3996.73391,0.00119
3994.67373,0.00100
3992.61356,0.00074
3990.55339,0.00039
3988.49322,0.00000
3986.43305,0.00002
3984.37287,0.00051
3982.31270,0.00094
3980.25253,0.00110
3978.19236,0.00117
3976.13219,0.00131
3974.07201,0.00137
3972.01184,0.00120
3969.95167,0.00102
3967.89150,0.00093
3965.83133,0.00089
3963.77115,0.00103
3961.71098,0.00127
3959.65081,0.00120
3957.59064,0.00078
3955.53046,0.00049
3953.47029,0.00066
3951.41012,0.00119
3949.34995,0.00166
3947.28978,0.00172
3945.22960,0.00136
3943.16943,0.00103
3941.10926,0.00102
3939.04909,0.00102
3936.98892,0.00086
3934.92874,0.00083
3932.86857,0.00116
3930.80840,0.00148
3928.74823,0.00148
3926.68805,0.00134
3924.62788,0.00138
3922.56771,0.00179
3920.50754,0.00210
3918.44737,0.00171
3916.38719,0.00114
3914.32702,0.00101
3912.26685,0.00098
3910.20668,0.00079
3908.14651,0.00062
3906.08633,0.00061
3904.02616,0.00068
3901.96599,0.00068
3899.90582,0.00078
3897.84565,0.00114
3895.78547,0.00134
3893.72530,0.00127
3891.66513,0.00143
3889.60496,0.00178
3887.54478,0.00178
3885.48461,0.00151
3883.42444,0.00145
3881.36427,0.00176
3879.30410,0.00230
3877.24392,0.00259
3875.18375,0.00250
3873.12358,0.00216
3871.06341,0.00167
3869.00324,0.00145
3866.94306,0.00178
3864.88289,0.00225
3862.82272,0.00227
3860.76255,0.00183
3858.70237,0.00116
3856.64220,0.00043
3854.58203,0.00025
3852.52186,0.00106
3850.46169,0.00165
3848.40151,0.00166
3846.34134,0.00172
3844.28117,0.00177
3842.22100,0.00128
3840.16083,0.00044
3838.10065,0.00008
3836.04048,0.00042
3833.98031,0.00093
3831.92014,0.00122
3829.85997,0.00132
3827.79979,0.00132
3825.73962,0.00134
3823.67945,0.00155
3821.61928,0.00205
3819.55910,0.00235
3817.49893,0.00207
3815.43876,0.00181
3813.37859,0.00178
3811.31842,0.00175
3809.25824,0.00177
3807.19807,0.00194
3805.13790,0.00195
3803.07773,0.00162
3801.01756,0.00146
3798.95738,0.00159
3796.89721,0.00167
3794.83704,0.00172
3792.77687,0.00188
3790.71670,0.00218
3788.65652,0.00237
3786.59635,0.00237
3784.53618,0.00224
3782.47601,0.00191
3780.41583,0.00163
3778.35566,0.00173
3776.29549,0.00209
3774.23532,0.00223
3772.17515,0.00187
3770.11497,0.00135
3768.05480,0.00132
3765.99463,0.00185
3763.93446,0.00239
3761.87429,0.00230
3759.81411,0.00177
3757.75394,0.00138
3755.69377,0.00114
3753.63360,0.00083
3751.57342,0.00090
3749.51325,0.00147
3747.45308,0.00175
3745.39291,0.00210
3743.33274,0.00277
3741.27256,0.00307
3739.21239,0.00297
3737.15222,0.00290
3735.09205,0.00296
3733.03188,0.00305
3730.97170,0.00294
3728.91153,0.00246
3726.85136,0.00197
3724.79119,0.00192
3722.73102,0.00208
3720.67084,0.00214
3718.61067,0.00213
3716.55050,0.00187
3714.49033,0.00136
3712.43015,0.00122
3710.36998,0.00179
3708.30981,0.00236
3706.24964,0.00253
3704.18947,0.00251
3702.12929,0.00246
3700.06912,0.00234
3698.00895,0.00215
3695.94878,0.00195
3693.88861,0.00182
3691.82843,0.00201
3689.76826,0.00260
3687.70809,0.00304
3685.64792,0.00304
3683.58775,0.00288
3681.52757,0.00267
3679.46740,0.00246
3677.40723,0.00240
3675.34706,0.00260
3673.28688,0.00291
3671.22671,0.00343
3669.16654,0.00417
3667.10637,0.00432
3665.04620,0.00390
3662.98602,0.00386
3660.92585,0.00442
3658.86568,0.00508
3656.80551,0.00553
3654.74534,0.00565
3652.68516,0.00557
3650.62499,0.00570
3648.56482,0.00624
3646.50465,0.00689
3644.44447,0.00718
3642.38430,0.00727
3640.32413,0.00758
3638.26396,0.00814
3636.20379,0.00875
3634.14361,0.00911
3632.08344,0.00887
3630.02327,0.00866
3627.96310,0.00959
3625.90293,0.01076
3623.84275,0.01094
3621.78258,0.01066
3619.72241,0.01093
3617.66224,0.01198
3615.60207,0.01321
3613.54189,0.01431
3611.48172,0.01522
3609.42155,0.01585
3607.36138,0.01630
3605.30120,0.01645
3603.24103,0.01634
3601.18086,0.01638
3599.12069,0.01691
3597.06052,0.01784
3595.00034,0.01875
3592.94017,0.01935
3590.88000,0.01973
3588.81983,0.02030
3586.75966,0.02111
3584.69948,0.02167
3582.63931,0.02182
3580.57914,0.02202
3578.51897,0.02255
3576.45879,0.02316
3574.39862,0.02361
3572.33845,0.02394
3570.27828,0.02422
3568.21811,0.02457
3566.15793,0.02517
3564.09776,0.02576
3562.03759,0.02610
3559.97742,0.02640
3557.91725,0.02691
3555.85707,0.02752
3553.79690,0.02801
3551.73673,0.02841
3549.67656,0.02893
3547.61639,0.02982
3545.55621,0.03096
3543.49604,0.03179
3541.43587,0.03209
3539.37570,0.03216
3537.31552,0.03227
3535.25535,0.03262
3533.19518,0.03321
3531.13501,0.03406
3529.07484,0.03490
3527.01466,0.03534
3524.95449,0.03557
3522.89432,0.03603
3520.83415,0.03645
3518.77398,0.03671
3516.71380,0.03734
3514.65363,0.03813
3512.59346,0.03837
3510.53329,0.03845
3508.47312,0.03885
3506.41294,0.03923
3504.35277,0.03957
3502.29260,0.04032
3500.23243,0.04114
3498.17225,0.04153
3496.11208,0.04160
3494.05191,0.04162
3491.99174,0.04182
3489.93157,0.04228
3487.87139,0.04280
3485.81122,0.04326
3483.75105,0.04373
3481.69088,0.04445
3479.63071,0.04533
3477.57053,0.04584
3475.51036,0.04576
3473.45019,0.04563
3471.39002,0.04584
3469.32984,0.04622
3467.26967,0.04688
3465.20950,0.04762
3463.14933,0.04806
3461.08916,0.04844
3459.02898,0.04892
3456.96881,0.04935
3454.90864,0.04963
3452.84847,0.04963
3450.78830,0.04973
3448.72812,0.05031
3446.66795,0.05076
3444.60778,0.05078
3442.54761,0.05095
3440.48744,0.05154
3438.42726,0.05219
3436.36709,0.05257
3434.30692,0.05277
3432.24675,0.05304
3430.18657,0.05337
3428.12640,0.05356
3426.06623,0.05362
3424.00606,0.05396
3421.94589,0.05463
3419.88571,0.05513
3417.82554,0.05532
3415.76537,0.05536
3413.70520,0.05549
3411.64503,0.05584
3409.58485,0.05615
3407.52468,0.05634
3405.46451,0.05653
3403.40434,0.05668
3401.34416,0.05685
3399.28399,0.05712
3397.22382,0.05745
3395.16365,0.05781
3393.10348,0.05794
3391.04330,0.05793
3388.98313,0.05799
3386.92296,0.05803
3384.86279,0.05801
3382.80262,0.05823
3380.74244,0.05860
3378.68227,0.05865
3376.62210,0.05855
3374.56193,0.05878
3372.50176,0.05912
3370.44158,0.05914
3368.38141,0.05896
3366.32124,0.05894
3364.26107,0.05926
3362.20089,0.05983
3360.14072,0.06024
3358.08055,0.06038
3356.02038,0.06056
3353.96021,0.06088
3351.90003,0.06111
3349.83986,0.06084
3347.77969,0.06027
3345.71952,0.06007
3343.65935,0.06035
3341.59917,0.06076
3339.53900,0.06072
3337.47883,0.06024
3335.41866,0.06030
3333.35849,0.06083
3331.29831,0.06091
3329.23814,0.06066
3327.17797,0.06063
3325.11780,0.06075
3323.05762,0.06088
3320.99745,0.06111
3318.93728,0.06140
3316.87711,0.06142
3314.81694,0.06105
3312.75676,0.06056
3310.69659,0.06046
3308.63642,0.06082
3306.57625,0.06134
3304.51608,0.06181
3302.45590,0.06210
3300.39573,0.06213
3298.33556,0.06199
3296.27539,0.06184
3294.21521,0.06191
3292.15504,0.06203
3290.09487,0.06181
3288.03470,0.06173
3285.97453,0.06227
3283.91435,0.06271
3281.85418,0.06246
3279.79401,0.06199
3277.73384,0.06198
3275.67367,0.06230
3273.61349,0.06237
3271.55332,0.06207
3269.49315,0.06176
3267.43298,0.06165
3265.37281,0.06170
3263.31263,0.06170
3261.25246,0.06179
3259.19229,0.06205
3257.13212,0.06208
3255.07194,0.06197
3253.01177,0.06209
3250.95160,0.06219
3248.89143,0.06221
3246.83126,0.06222
3244.77108,0.06195
3242.71091,0.06177
3240.65074,0.06212
3238.59057,0.06232
3236.53040,0.06202
3234.47022,0.06169
3232.41005,0.06174
3230.34988,0.06204
3228.28971,0.06211
3226.22954,0.06178
3224.16936,0.06133
3222.10919,0.06094
3220.04902,0.06068
3217.98885,0.06067
3215.92867,0.06078
3213.86850,0.06071
3211.80833,0.06039
3209.74816,0.05994
3207.68799,0.05977
3205.62781,0.05999
3203.56764,0.06012
3201.50747,0.06017
3199.44730,0.06043
3197.38713,0.06056
3195.32695,0.06027
3193.26678,0.05988
3191.20661,0.05951
3189.14644,0.05918
3187.08626,0.05905
3185.02609,0.05894
3182.96592,0.05871
3180.90575,0.05834
3178.84558,0.05787
3176.78540,0.05756
3174.72523,0.05754
3172.66506,0.05771
3170.60489,0.05768
3168.54472,0.05735
3166.48454,0.05713
3164.42437,0.05706
3162.36420,0.05682
3160.30403,0.05655
3158.24386,0.05651
3156.18368,0.05656
3154.12351,0.05659
3152.06334,0.05641
3150.00317,0.05601
3147.94299,0.05582
3145.88282,0.05581
3143.82265,0.05582
3141.76248,0.05574
3139.70231,0.05540
3137.64213,0.05492
3135.58196,0.05470
3133.52179,0.05460
3131.46162,0.05425
3129.40145,0.05383
3127.34127,0.05365
3125.28110,0.05367
3123.22093,0.05360
3121.16076,0.05318
3119.10058,0.05271
3117.04041,0.05240
3114.98024,0.05207
3112.92007,0.05183
3110.85990,0.05195
3108.79972,0.05201
3106.73955,0.05158
3104.67938,0.05099
3102.61921,0.05056
3100.55904,0.05027
3098.49886,0.05025
3096.43869,0.05035
3094.37852,0.05017
3092.31835,0.04980
3090.25818,0.04947
3088.19800,0.04915
3086.13783,0.04882
3084.07766,0.04865
3082.01749,0.04858
3079.95731,0.04837
3077.89714,0.04786
3075.83697,0.04719
3073.77680,0.04676
3071.71663,0.04671
3069.65645,0.04669
3067.59628,0.04640
3065.53611,0.04599
3063.47594,0.04586
3061.41577,0.04582
3059.35559,0.04556
3057.29542,0.04532
3055.23525,0.04515
3053.17508,0.04486
3051.11491,0.04450
3049.05473,0.04416
3046.99456,0.04387
3044.93439,0.04371
3042.87422,0.04361
3040.81404,0.04336
3038.75387,0.04313
3036.69370,0.04308
3034.63353,0.04288
3032.57336,0.04237
3030.51318,0.04186
3028.45301,0.04144
3026.39284,0.04097
3024.33267,0.04057
3022.27250,0.04047
3020.21232,0.04045
3018.15215,0.04018
3016.09198,0.03972
3014.03181,0.03939
3011.97163,0.03922
3009.91146,0.03909
3007.85129,0.03892
3005.79112,0.03862
3003.73095,0.03823
3001.67077,0.03793
2999.61060,0.03780
2997.55043,0.03782
2995.49026,0.03782
2993.43009,0.03766
2991.36991,0.03735
2989.30974,0.03698
2987.24957,0.03658
2985.18940,0.03633
2983.12923,0.03638
2981.06905,0.03658
2979.00888,0.03664
2976.94871,0.03638
2974.88854,0.03610
2972.82836,0.03612
2970.76819,0.03610
2968.70802,0.03589
2966.64785,0.03577
2964.58768,0.03576
2962.52750,0.03575
2960.46733,0.03564
2958.40716,0.03539
2956.34699,0.03516
2954.28682,0.03515
2952.22664,0.03540
2950.16647,0.03574
2948.10630,0.03588
2946.04613,0.03576
2943.98596,0.03552
2941.92578,0.03531
2939.86561,0.03521
2937.80544,0.03526
2935.74527,0.03543
2933.68509,0.03548
2931.62492,0.03536
2929.56475,0.03512
2927.50458,0.03475
2925.44441,0.03454
2923.38423,0.03462
2921.32406,0.03468
2919.26389,0.03457
2917.20372,0.03449
2915.14355,0.03425
2913.08337,0.03380
2911.02320,0.03364
2908.96303,0.03358
2906.90286,0.03328
2904.84268,0.03293
2902.78251,0.03266
2900.72234,0.03259
2898.66217,0.03271
2896.60200,0.03262
2894.54182,0.03234
2892.48165,0.03216
2890.42148,0.03209
2888.36131,0.03198
2886.30114,0.03186
2884.24096,0.03187
2882.18079,0.03184
2880.12062,0.03152
2878.06045,0.03121
2876.00028,0.03105
2873.94010,0.03101
2871.87993,0.03111
2869.81976,0.03107
2867.75959,0.03084
2865.69941,0.03058
2863.63924,0.03048
2861.57907,0.03052
2859.51890,0.03028
2857.45873,0.02983
2855.39855,0.02956
2853.33838,0.02943
2851.27821,0.02936
2849.21804,0.02930
2847.15787,0.02905
2845.09769,0.02879
2843.03752,0.02873
2840.97735,0.02861
2838.91718,0.02835
2836.85700,0.02804
2834.79683,0.02768
2832.73666,0.02740
2830.67649,0.02740
2828.61632,0.02750
2826.55614,0.02737
2824.49597,0.02706
2822.43580,0.02676
2820.37563,0.02657
2818.31546,0.02661
2816.25528,0.02663
2814.19511,0.02642
2812.13494,0.02633
2810.07477,0.02636
2808.01460,0.02631
2805.95442,0.02619
2803.89425,0.02596
2801.83408,0.02559
2799.77391,0.02519
2797.71373,0.02498
2795.65356,0.02494
2793.59339,0.02489
2791.53322,0.02494
2789.47305,0.02501
2787.41287,0.02488
2785.35270,0.02476
2783.29253,0.02478
2781.23236,0.02478
2779.17219,0.02464
2777.11201,0.02432
2775.05184,0.02411
2772.99167,0.02414
2770.93150,0.02410
2768.87133,0.02396
2766.81115,0.02394
2764.75098,0.02381
2762.69081,0.02352
2760.63064,0.02339
2758.57046,0.02340
2756.51029,0.02335
2754.45012,0.02315
2752.38995,0.02287
2750.32978,0.02252
2748.26960,0.02210
2746.20943,0.02187
2744.14926,0.02198
2742.08909,0.02213
2740.02892,0.02219
2737.96874,0.02216
2735.90857,0.02198
2733.84840,0.02182
2731.78823,0.02169
2729.72805,0.02145
2727.66788,0.02133
2725.60771,0.02128
2723.54754,0.02108
2721.48737,0.02098
2719.42719,0.02116
2717.36702,0.02121
2715.30685,0.02085
2713.24668,0.02051
2711.18651,0.02051
2709.12633,0.02050
2707.06616,0.02026
2705.00599,0.02006
2702.94582,0.01995
2700.88565,0.01979
2698.82547,0.01982
2696.76530,0.01991
2694.70513,0.01965
2692.64496,0.01918
2690.58478,0.01896
2688.52461,0.01901
2686.46444,0.01903
2684.40427,0.01893
2682.34410,0.01880
2680.28392,0.01861
2678.22375,0.01833
2676.16358,0.01814
2674.10341,0.01817
2672.04324,0.01824
2669.98306,0.01826
2667.92289,0.01814
2665.86272,0.01787
2663.80255,0.01762
2661.74238,0.01748
2659.68220,0.01740
2657.62203,0.01738
2655.56186,0.01723
2653.50169,0.01689
2651.44151,0.01666
2649.38134,0.01650
2647.32117,0.01614
2645.26100,0.01572
2643.20083,0.01562
2641.14065,0.01575
2639.08048,0.01579
2637.02031,0.01591
2634.96014,0.01610
2632.89997,0.01604
2630.83979,0.01575
2628.77962,0.01542
2626.71945,0.01515
2624.65928,0.01493
2622.59910,0.01481
2620.53893,0.01473
2618.47876,0.01444
2616.41859,0.01418
2614.35842,0.01436
2612.29824,0.01455
2610.23807,0.01432
2608.17790,0.01406
2606.11773,0.01394
2604.05756,0.01369
2601.99738,0.01348
2599.93721,0.01355
2597.87704,0.01355
2595.81687,0.01324
2593.75670,0.01299
2591.69652,0.01307
2589.63635,0.01311
2587.57618,0.01292
2585.51601,0.01299
2583.45583,0.01330
2581.39566,0.01323
2579.33549,0.01301
2577.27532,0.01299
2575.21515,0.01296
2573.15497,0.01308
2571.09480,0.01336
2569.03463,0.01316
2566.97446,0.01269
2564.91429,0.01262
2562.85411,0.01261
2560.79394,0.01250
2558.73377,0.01280
2556.67360,0.01309
2554.61342,0.01291
2552.55325,0.01295
2550.49308,0.01317
2548.43291,0.01293
2546.37274,0.01241
2544.31256,0.01207
2542.25239,0.01198
2540.19222,0.01201
2538.13205,0.01218
2536.07188,0.01251
2534.01170,0.01294
2531.95153,0.01348
2529.89136,0.01372
2527.83119,0.01319
2525.77102,0.01258
2523.71084,0.01237
2521.65067,0.01216
2519.59050,0.01200
2517.53033,0.01208
2515.47015,0.01221
2513.40998,0.01234
2511.34981,0.01241
2509.28964,0.01231
2507.22947,0.01242
2505.16929,0.01297
2503.10912,0.01311
2501.04895,0.01264
2498.98878,0.01245
2496.92861,0.01252
2494.86843,0.01227
2492.80826,0.01188
2490.74809,0.01173
2488.68792,0.01186
2486.62775,0.01226
2484.56757,0.01266
2482.50740,0.01278
2480.44723,0.01296
2478.38706,0.01324
2476.32688,0.01324
2474.26671,0.01287
2472.20654,0.01235
2470.14637,0.01214
2468.08620,0.01223
2466.02602,0.01242
2463.96585,0.01253
2461.90568,0.01245
2459.84551,0.01255
2457.78534,0.01291
2455.72516,0.01340
2453.66499,0.01373
2451.60482,0.01359
2449.54465,0.01336
2447.48447,0.01328
2445.42430,0.01320
2443.36413,0.01320
2441.30396,0.01317
2439.24379,0.01309
2437.18361,0.01335
2435.12344,0.01374
2433.06327,0.01352
2431.00310,0.01306
2428.94293,0.01305
2426.88275,0.01316
2424.82258,0.01310
2422.76241,0.01308
2420.70224,0.01316
2418.64207,0.01327
2416.58189,0.01314
2414.52172,0.01282
2412.46155,0.01277
2410.40138,0.01291
2408.34120,0.01305
2406.28103,0.01331
2404.22086,0.01344
2402.16069,0.01323
2400.10052,0.01287
2398.04034,0.01259
2395.98017,0.01243
2393.92000,0.01249
2391.85983,0.01263
2389.79966,0.01275
2387.73948,0.01285
2385.67931,0.01295
2383.61914,0.01288
2381.55897,0.01275
2379.49880,0.01299
2377.43862,0.01369
2375.37845,0.01395
2373.31828,0.01311
2371.25811,0.01203
2369.19793,0.01223
2367.13776,0.01410
2365.07759,0.01537
2363.01742,0.01343
2360.95725,0.01053
2358.89707,0.00952
2356.83690,0.00963
2354.77673,0.01038
2352.71656,0.01194
2350.65639,0.01321
2348.59621,0.01319
2346.53604,0.01231
2344.47587,0.01174
2342.41570,0.01182
2340.35552,0.01206
2338.29535,0.01264
2336.23518,0.01362
2334.17501,0.01431
2332.11484,0.01424
2330.05466,0.01374
2327.99449,0.01355
2325.93432,0.01365
2323.87415,0.01332
2321.81398,0.01276
2319.75380,0.01261
2317.69363,0.01250
2315.63346,0.01213
2313.57329,0.01205
2311.51312,0.01232
2309.45294,0.01243
2307.39277,0.01217
2305.33260,0.01180
2303.27243,0.01168
2301.21225,0.01192
2299.15208,0.01224
2297.09191,0.01237
2295.03174,0.01220
2292.97157,0.01189
2290.91139,0.01188
2288.85122,0.01230
2286.79105,0.01261
2284.73088,0.01238
2282.67071,0.01183
2280.61053,0.01150
2278.55036,0.01147
2276.49019,0.01117
2274.43002,0.01054
2272.36984,0.01013
2270.30967,0.01004
2268.24950,0.00980
2266.18933,0.00946
2264.12916,0.00950
2262.06898,0.01009
2260.00881,0.01064
2257.94864,0.01043
2255.88847,0.00991
2253.82830,0.00994
2251.76812,0.01033
2249.70795,0.01029
2247.64778,0.00967
2245.58761,0.00902
2243.52744,0.00843
2241.46726,0.00833
2239.40709,0.00862
2237.34692,0.00871
2235.28675,0.00920
2233.22657,0.00973
2231.16640,0.00942
2229.10623,0.00953
2227.04606,0.01031
2224.98589,0.01018
2222.92571,0.00917
2220.86554,0.00840
2218.80537,0.00792
2216.74520,0.00744
2214.68503,0.00723
2212.62485,0.00737
2210.56468,0.00774
2208.50451,0.00786
2206.44434,0.00787
2204.38417,0.00869
2202.32399,0.00920
2200.26382,0.00852
2198.20365,0.00814
2196.14348,0.00818
2194.08330,0.00776
2192.02313,0.00757
2189.96296,0.00787
2187.90279,0.00738
2185.84262,0.00562
2183.78244,0.00441
2181.72227,0.00535
2179.66210,0.00684
2177.60193,0.00702
2175.54176,0.00633
2173.48158,0.00592
2171.42141,0.00630
2169.36124,0.00629
2167.30107,0.00506
2165.24089,0.00425
2163.18072,0.00459
2161.12055,0.00425
2159.06038,0.00228
2157.00021,0.00119
2154.94003,0.00262
2152.87986,0.00406
2150.81969,0.00451
2148.75952,0.00549
2146.69935,0.00593
2144.63917,0.00522
2142.57900,0.00503
2140.51883,0.00494
2138.45866,0.00473
2136.39849,0.00494
2134.33831,0.00498
2132.27814,0.00522
2130.21797,0.00572
2128.15780,0.00580
2126.09762,0.00587
2124.03745,0.00632
2121.97728,0.00666
2119.91711,0.00677
2117.85694,0.00666
2115.79676,0.00626
2113.73659,0.00593
2111.67642,0.00602
2109.61625,0.00626
2107.55608,0.00606
2105.49590,0.00583
2103.43573,0.00619
2101.37556,0.00664
2099.31539,0.00618
2097.25521,0.00515
2095.19504,0.00506
2093.13487,0.00574
2091.07470,0.00567
2089.01453,0.00527
2086.95435,0.00578
2084.89418,0.00656
2082.83401,0.00627
2080.77384,0.00553
2078.71367,0.00550
2076.65349,0.00595
2074.59332,0.00620
2072.53315,0.00616
2070.47298,0.00657
2068.41281,0.00709
2066.35263,0.00644
2064.29246,0.00524
2062.23229,0.00491
2060.17212,0.00524
2058.11194,0.00512
2056.05177,0.00506
2053.99160,0.00609
2051.93143,0.00725
2049.87126,0.00651
2047.81108,0.00413
2045.75091,0.00283
2043.69074,0.00312
2041.63057,0.00357
2039.57040,0.00373
2037.51022,0.00339
2035.45005,0.00297
2033.38988,0.00338
2031.32971,0.00380
2029.26954,0.00353
2027.20936,0.00327
2025.14919,0.00302
2023.08902,0.00280
2021.02885,0.00287
2018.96867,0.00237
2016.90850,0.00145
2014.84833,0.00199
2012.78816,0.00371
2010.72799,0.00466
2008.66781,0.00472
2006.60764,0.00465
2004.54747,0.00430
2002.48730,0.00377
2000.42713,0.00400
1998.36695,0.00504
1996.30678,0.00542
1994.24661,0.00538
1992.18644,0.00634
1990.12626,0.00694
1988.06609,0.00601
1986.00592,0.00488
1983.94575,0.00442
1981.88558,0.00425
1979.82540,0.00409
1977.76523,0.00377
1975.70506,0.00326
1973.64489,0.00307
1971.58472,0.00339
1969.52454,0.00379
1967.46437,0.00368
1965.40420,0.00293
1963.34403,0.00193
1961.28386,0.00104
1959.22368,0.00121
1957.16351,0.00225
1955.10334,0.00260
1953.04317,0.00243
1950.98299,0.00286
1948.92282,0.00385
1946.86265,0.00497
1944.80248,0.00542
1942.74231,0.00429
1940.68213,0.00288
1938.62196,0.00332
1936.56179,0.00457
1934.50162,0.00473
1932.44145,0.00415
1930.38127,0.00365
1928.32110,0.00355
1926.26093,0.00405
1924.20076,0.00464
1922.14059,0.00456
1920.08041,0.00412
1918.02024,0.00391
1915.96007,0.00388
1913.89990,0.00392
1911.83972,0.00432
1909.77955,0.00495
1907.71938,0.00523
1905.65921,0.00515
1903.59904,0.00508
1901.53886,0.00517
1899.47869,0.00525
1897.41852,0.00499
1895.35835,0.00468
1893.29818,0.00481
1891.23800,0.00513
1889.17783,0.00512
1887.11766,0.00480
1885.05749,0.00468
1882.99731,0.00484
1880.93714,0.00502
1878.87697,0.00513
1876.81680,0.00501
1874.75663,0.00454
1872.69645,0.00394
1870.63628,0.00355
1868.57611,0.00358
1866.51594,0.00380
1864.45577,0.00402
1862.39559,0.00442
1860.33542,0.00502
1858.27525,0.00542
1856.21508,0.00533
1854.15491,0.00501
1852.09473,0.00479
1850.03456,0.00455
1847.97439,0.00407
1845.91422,0.00373
1843.85404,0.00385
1841.79387,0.00392
1839.73370,0.00390
1837.67353,0.00432
1835.61336,0.00485
1833.55318,0.00481
1831.49301,0.00451
1829.43284,0.00451
1827.37267,0.00447
1825.31250,0.00432
1823.25232,0.00446
1821.19215,0.00466
1819.13198,0.00462
1817.07181,0.00455
1815.01163,0.00475
1812.95146,0.00507
1810.89129,0.00522
1808.83112,0.00522
1806.77095,0.00519
1804.71077,0.00519
1802.65060,0.00524
1800.59043,0.00512
1798.53026,0.00471
1796.47009,0.00418
1794.40991,0.00393
1792.34974,0.00424
1790.28957,0.00476
1788.22940,0.00497
1786.16923,0.00499
1784.10905,0.00507
1782.04888,0.00522
1779.98871,0.00533
1777.92854,0.00533
1775.86836,0.00519
1773.80819,0.00489
1771.74802,0.00465
1769.68785,0.00479
1767.62768,0.00527
1765.56750,0.00572
1763.50733,0.00592
1761.44716,0.00594
1759.38699,0.00597
1757.32682,0.00619
1755.26664,0.00658
1753.20647,0.00686
1751.14630,0.00695
1749.08613,0.00699
1747.02596,0.00707
1744.96578,0.00724
1742.90561,0.00750
1740.84544,0.00787
1738.78527,0.00817
1736.72509,0.00813
1734.66492,0.00810
1732.60475,0.00841
1730.54458,0.00870
1728.48441,0.00890
1726.42423,0.00924
1724.36406,0.00964
1722.30389,0.00978
1720.24372,0.00956
1718.18355,0.00942
1716.12337,0.00985
1714.06320,0.01047
1712.00303,0.01079
1709.94286,0.01081
1707.88268,0.01075
1705.82251,0.01091
1703.76234,0.01128
1701.70217,0.01161
1699.64200,0.01209
1697.58182,0.01296
1695.52165,0.01402
1693.46148,0.01469
1691.40131,0.01488
1689.34114,0.01486
1687.28096,0.01484
1685.22079,0.01544
1683.16062,0.01679
1681.10045,0.01757
1679.04028,0.01761
1676.98010,0.01762
1674.91993,0.01789
1672.85976,0.01829
1670.79959,0.01889
1668.73941,0.01993
1666.67924,0.02092
1664.61907,0.02150
1662.55890,0.02196
1660.49873,0.02237
1658.43855,0.02253
1656.37838,0.02244
1654.31821,0.02246
1652.25804,0.02287
1650.19787,0.02303
1648.13769,0.02280
1646.07752,0.02292
1644.01735,0.02354
1641.95718,0.02406
1639.89701,0.02418
1637.83683,0.02381
1635.77666,0.02336
1633.71649,0.02327
1631.65632,0.02318
1629.59614,0.02284
1627.53597,0.02240
1625.47580,0.02206
1623.41563,0.02194
1621.35546,0.02199
1619.29528,0.02198
1617.23511,0.02196
1615.17494,0.02207
1613.11477,0.02209
1611.05460,0.02194
1608.99442,0.02159
1606.93425,0.02104
1604.87408,0.02051
1602.81391,0.02015
1600.75373,0.01979
1598.69356,0.01924
1596.63339,0.01857
1594.57322,0.01795
1592.51305,0.01738
1590.45287,0.01680
1588.39270,0.01622
1586.33253,0.01563
1584.27236,0.01504
1582.21219,0.01450
1580.15201,0.01388
1578.09184,0.01309
1576.03167,0.01251
1573.97150,0.01230
1571.91133,0.01201
1569.85115,0.01152
1567.79098,0.01113
1565.73081,0.01090
1563.67064,0.01053
1561.61046,0.00977
1559.55029,0.00900
1557.49012,0.00887
1555.42995,0.00891
1553.36978,0.00879
1551.30960,0.00863
1549.24943,0.00850
1547.18926,0.00829
1545.12909,0.00777
1543.06892,0.00690
1541.00874,0.00622
1538.94857,0.00639
1536.88840,0.00666
1534.82823,0.00650
1532.76805,0.00628
1530.70788,0.00621
1528.64771,0.00608
1526.58754,0.00587
1524.52737,0.00568
1522.46719,0.00563
1520.40702,0.00578
1518.34685,0.00575
1516.28668,0.00547
1514.22651,0.00525
1512.16633,0.00525
1510.10616,0.00528
1508.04599,0.00518
1505.98582,0.00505
1503.92565,0.00494
1501.86547,0.00477
1499.80530,0.00457
1497.74513,0.00443
1495.68496,0.00434
1493.62478,0.00422
1491.56461,0.00418
1489.50444,0.00436
1487.44427,0.00455
1485.38410,0.00459
1483.32392,0.00451
1481.26375,0.00443
1479.20358,0.00453
1477.14341,0.00476
1475.08324,0.00490
1473.02306,0.00509
1470.96289,0.00551
1468.90272,0.00576
1466.84255,0.00572
1464.78238,0.00588
1462.72220,0.00626
1460.66203,0.00641
1458.60186,0.00645
1456.54169,0.00674
1454.48151,0.00706
1452.42134,0.00712
1450.36117,0.00695
1448.30100,0.00678
1446.24083,0.00680
1444.18065,0.00689
1442.12048,0.00684
1440.06031,0.00662
1438.00014,0.00649
1435.93997,0.00668
1433.87979,0.00698
1431.81962,0.00716
1429.75945,0.00741
1427.69928,0.00776
1425.63910,0.00802
1423.57893,0.00813
1421.51876,0.00811
1419.45859,0.00819
1417.39842,0.00852
1415.33824,0.00871
1413.27807,0.00866
1411.21790,0.00867
1409.15773,0.00876
1407.09756,0.00871
1405.03738,0.00843
1402.97721,0.00796
1400.91704,0.00751
1398.85687,0.00724
1396.79670,0.00705
1394.73652,0.00683
1392.67635,0.00667
1390.61618,0.00663
1388.55601,0.00670
1386.49583,0.00684
1384.43566,0.00690
1382.37549,0.00689
1380.31532,0.00695
1378.25515,0.00706
1376.19497,0.00710
1374.13480,0.00716
1372.07463,0.00723
1370.01446,0.00710
1367.95429,0.00676
1365.89411,0.00640
1363.83394,0.00623
1361.77377,0.00621
1359.71360,0.00612
1357.65343,0.00599
1355.59325,0.00588
1353.53308,0.00567
1351.47291,0.00538
1349.41274,0.00514
1347.35256,0.00502
1345.29239,0.00504
1343.23222,0.00514
1341.17205,0.00520
1339.11188,0.00520
1337.05170,0.00524
1334.99153,0.00530
1332.93136,0.00519
1330.87119,0.00492
1328.81102,0.00472
1326.75084,0.00468
1324.69067,0.00465
1322.63050,0.00456
1320.57033,0.00456
1318.51015,0.00467
1316.44998,0.00470
1314.38981,0.00455
1312.32964,0.00445
1310.26947,0.00449
1308.20929,0.00460
1306.14912,0.00473
1304.08895,0.00485
1302.02878,0.00486
1299.96861,0.00481
1297.90843,0.00487
1295.84826,0.00494
1293.78809,0.00488
1291.72792,0.00492
1289.66775,0.00511
1287.60757,0.00530
1285.54740,0.00542
1283.48723,0.00547
1281.42706,0.00552
1279.36688,0.00565
1277.30671,0.00574
1275.24654,0.00576
1273.18637,0.00578
1271.12620,0.00579
1269.06602,0.00587
1267.00585,0.00602
1264.94568,0.00607
1262.88551,0.00606
1260.82534,0.00603
1258.76516,0.00590
1256.70499,0.00578
1254.64482,0.00577
1252.58465,0.00578
1250.52447,0.00580
1248.46430,0.00584
1246.40413,0.00568
1244.34396,0.00529
1242.28379,0.00498
1240.22361,0.00483
1238.16344,0.00483
1236.10327,0.00482
1234.04310,0.00457
1231.98293,0.00426
1229.92275,0.00408
1227.86258,0.00382
1225.80241,0.00344
1223.74224,0.00311
1221.68207,0.00277
1219.62189,0.00247
1217.56172,0.00235
1215.50155,0.00230
1213.44138,0.00222
1211.38120,0.00213
1209.32103,0.00194
1207.26086,0.00163
1205.20069,0.00143
1203.14052,0.00151
1201.08034,0.00180
1199.02017,0.00196
1196.96000,0.00177
1194.89983,0.00159
1192.83966,0.00179
1190.77948,0.00227
1188.71931,0.00276
1186.65914,0.00319
1184.59897,0.00369
1182.53880,0.00432
1180.47862,0.00507
1178.41845,0.00590
1176.35828,0.00683
1174.29811,0.00772
1172.23793,0.00851
1170.17776,0.00945
1168.11759,0.01071
1166.05742,0.01199
1163.99725,0.01298
1161.93707,0.01378
1159.87690,0.01468
1157.81673,0.01576
1155.75656,0.01677
1153.69639,0.01765
1151.63621,0.01855
1149.57604,0.01945
1147.51587,0.02050
1145.45570,0.02158
1143.39552,0.02243
1141.33535,0.02325
1139.27518,0.02429
1137.21501,0.02548
1135.15484,0.02661
1133.09466,0.02770
1131.03449,0.02895
1128.97432,0.03044
1126.91415,0.03201
1124.85398,0.03347
1122.79380,0.03471
1120.73363,0.03583
1118.67346,0.03711
1116.61329,0.03873
1114.55312,0.04033
1112.49294,0.04170
1110.43277,0.04326
1108.37260,0.04509
1106.31243,0.04667
1104.25225,0.04796
1102.19208,0.04938
1100.13191,0.05100
1098.07174,0.05251
1096.01157,0.05387
1093.95139,0.05535
1091.89122,0.05706
1089.83105,0.05869
1087.77088,0.05993
1085.71071,0.06087
1083.65053,0.06189
1081.59036,0.06315
1079.53019,0.06432
1077.47002,0.06526
1075.40985,0.06612
1073.34967,0.06690
1071.28950,0.06750
1069.22933,0.06792
1067.16916,0.06827
1065.10898,0.06837
1063.04881,0.06818
1060.98864,0.06798
1058.92847,0.06772
1056.86830,0.06728
1054.80812,0.06666
1052.74795,0.06592
1050.68778,0.06512
1048.62761,0.06412
1046.56744,0.06294
1044.50726,0.06183
1042.44709,0.06079
1040.38692,0.05948
1038.32675,0.05785
1036.26657,0.05632
1034.20640,0.05502
1032.14623,0.05369
1030.08606,0.05226
1028.02589,0.05093
1025.96571,0.04983
1023.90554,0.04876
1021.84537,0.04753
1019.78520,0.04616
1017.72503,0.04478
1015.66485,0.04364
1013.60468,0.04276
1011.54451,0.04192
1009.48434,0.04111
1007.42417,0.04047
1005.36399,0.03996
1003.30382,0.03973
1001.24365,0.03988
999.18348,0.04029
997.12330,0.04104
995.06313,0.04219
993.00296,0.04333
990.94279,0.04405
988.88262,0.04449
986.82244,0.04483
984.76227,0.04500
982.70210,0.04496
980.64193,0.04467
978.58176,0.04392
976.52158,0.04266
974.46141,0.04109
972.40124,0.03934
970.34107,0.03726
968.28089,0.03505
966.22072,0.03321
964.16055,0.03166
962.10038,0.03008
960.04021,0.02845
957.98003,0.02700
955.91986,0.02579
953.85969,0.02456
951.79952,0.02324
949.73935,0.02204
947.67917,0.02115
945.61900,0.02058
943.55883,0.02016
941.49866,0.01977
939.43849,0.01950
937.37831,0.01949
935.31814,0.01967
933.25797,0.01974
931.19780,0.01955
929.13762,0.01921
927.07745,0.01867
925.01728,0.01802
922.95711,0.01760
920.89694,0.01723
918.83676,0.01652
916.77659,0.01568
914.71642,0.01484
912.65625,0.01408
910.59608,0.01360
908.53590,0.01316
906.47573,0.01272
904.41556,0.01244
902.35539,0.01228
900.29522,0.01243
898.23504,0.01286
896.17487,0.01309
894.11470,0.01287
892.05453,0.01281
889.99435,0.01330
887.93418,0.01400
885.87401,0.01461
883.81384,0.01498
881.75367,0.01530
879.69349,0.01559
877.63332,0.01571
875.57315,0.01600
873.51298,0.01660
871.45281,0.01716
869.39263,0.01751
867.33246,0.01752
865.27229,0.01727
863.21212,0.01720
861.15194,0.01735
859.09177,0.01742
857.03160,0.01732
854.97143,0.01698
852.91126,0.01639
850.85108,0.01560
848.79091,0.01485
846.73074,0.01438
844.67057,0.01435
842.61040,0.01449
840.55022,0.01400
838.49005,0.01272
836.42988,0.01158
834.36971,0.01090
832.30954,0.01041
830.24936,0.01026
828.18919,0.01016
826.12902,0.00969
824.06885,0.00923
822.00867,0.00904
819.94850,0.00877
817.88833,0.00833
815.82816,0.00770
813.76799,0.00703
811.70781,0.00671
809.64764,0.00664
807.58747,0.00662
805.52730,0.00668
803.46713,0.00685
801.40695,0.00699
799.34678,0.00685
797.28661,0.00638
795.22644,0.00557
793.16627,0.00477
791.10609,0.00448
789.04592,0.00443
786.98575,0.00431
784.92558,0.00429
782.86540,0.00456
780.80523,0.00496
778.74506,0.00542
776.68489,0.00570
774.62472,0.00577
772.56454,0.00562
770.50437,0.00517
768.44420,0.00492
766.38403,0.00497
764.32386,0.00492
762.26368,0.00427
760.20351,0.00341
758.14334,0.00314
756.08317,0.00285
754.02299,0.00230
751.96282,0.00220
749.90265,0.00259
747.84248,0.00282
745.78231,0.00258
743.72213,0.00250
741.66196,0.00281
739.60179,0.00283
737.54162,0.00258
735.48145,0.00235
733.42127,0.00234
731.36110,0.00274
729.30093,0.00270
727.24076,0.00205
725.18059,0.00191
723.12041,0.00240
721.06024,0.00310
719.00007,0.00348
716.93990,0.00348
714.87972,0.00378
712.81955,0.00475
710.75938,0.00559
708.69921,0.00540
706.63904,0.00458
704.57886,0.00407
702.51869,0.00406
700.45852,0.00408
698.39835,0.00408
696.33818,0.00424
694.27800,0.00430
692.21783,0.00416
690.15766,0.00411
688.09749,0.00426
686.03731,0.00420
683.97714,0.00341
681.91697,0.00266
679.85680,0.00316
677.79663,0.00420
675.73645,0.00414
673.67628,0.00283
671.61611,0.00170
669.55594,0.00210
667.49577,0.00350
665.43559,0.00414
663.37542,0.00440
661.31525,0.00506
659.25508,0.00528
657.19491,0.00472
655.13473,0.00443
653.07456,0.00440
651.01439,0.00398
648.95422,0.00372
646.89404,0.00387
644.83387,0.00365
642.77370,0.00304
640.71353,0.00333
638.65336,0.00451
636.59318,0.00517
634.53301,0.00479
632.47284,0.00378
630.41267,0.00304
628.35250,0.00264
626.29232,0.00173
624.23215,0.00171
622.17198,0.00397
620.11181,0.00545
618.05164,0.00510
615.99146,0.00453
613.93129,0.00512
611.87112,0.00554
609.81095,0.00453
607.75077,0.00274
605.69060,0.00096
603.63043,0.00025
601.57026,0.00000
599.51009,0.00000
