3996.73391,0.00091
3994.67373,0.00068
3992.61356,0.00033
3990.55339,0.00007
3988.49322,0.00000
3986.43305,0.00004
3984.37287,0.00012
3982.31270,0.00022
3980.25253,0.00036
3978.19236,0.00041
3976.13219,0.00033
3974.07201,0.00034
3972.01184,0.00041
3969.95167,0.00038
3967.89150,0.00024
3965.83133,0.00019
3963.77115,0.00047
3961.71098,0.00091
3959.65081,0.00112
3957.59064,0.00108
3955.53046,0.00109
3953.47029,0.00121
3951.41012,0.00124
3949.34995,0.00123
3947.28978,0.00133
3945.22960,0.00139
3943.16943,0.00133
3941.10926,0.00111
3939.04909,0.00078
3936.98892,0.00064
3934.92874,0.00079
3932.86857,0.00101
3930.80840,0.00113
3928.74823,0.00112
3926.68805,0.00111
3924.62788,0.00134
3922.56771,0.00175
3920.50754,0.00168
3918.44737,0.00103
3916.38719,0.00066
3914.32702,0.00088
3912.26685,0.00097
3910.20668,0.00070
3908.14651,0.00053
3906.08633,0.00063
3904.02616,0.00094
3901.96599,0.00120
3899.90582,0.00117
3897.84565,0.00102
3895.78547,0.00094
3893.72530,0.00113
3891.66513,0.00150
3889.60496,0.00146
3887.54478,0.00109
3885.48461,0.00098
3883.42444,0.00103
3881.36427,0.00111
3879.30410,0.00144
3877.24392,0.00176
3875.18375,0.00181
3873.12358,0.00151
3871.06341,0.00099
3869.00324,0.00070
3866.94306,0.00070
3864.88289,0.00077
3862.82272,0.00080
3860.76255,0.00076
3858.70237,0.00059
3856.64220,0.00023
3854.58203,0.00009
3852.52186,0.00077
3850.46169,0.00139
3848.40151,0.00131
3846.34134,0.00098
3844.28117,0.00078
3842.22100,0.00061
3840.16083,0.00039
3838.10065,0.00033
3836.04048,0.00071
3833.98031,0.00111
3831.92014,0.00113
3829.85997,0.00105
3827.79979,0.00102
3825.73962,0.00082
3823.67945,0.00049
3821.61928,0.00066
3819.55910,0.00138
3817.49893,0.00168
3815.43876,0.00152
3813.37859,0.00138
3811.31842,0.00129
3809.25824,0.00113
3807.19807,0.00091
3805.13790,0.00050
3803.07773,0.00013
3801.01756,0.00029
3798.95738,0.00072
3796.89721,0.00108
3794.83704,0.00141
3792.77687,0.00157
3790.71670,0.00148
3788.65652,0.00116
3786.59635,0.00086
3784.53618,0.00084
3782.47601,0.00094
3780.41583,0.00104
3778.35566,0.00129
3776.29549,0.00163
3774.23532,0.00178
3772.17515,0.00144
3770.11497,0.00082
3768.05480,0.00061
3765.99463,0.00101
3763.93446,0.00150
3761.87429,0.00139
3759.81411,0.00088
3757.75394,0.00072
3755.69377,0.00085
3753.63360,0.00090
3751.57342,0.00130
3749.51325,0.00201
3747.45308,0.00192
3745.39291,0.00145
3743.33274,0.00149
3741.27256,0.00165
3739.21239,0.00167
3737.15222,0.00174
3735.09205,0.00187
3733.03188,0.00186
3730.97170,0.00170
3728.91153,0.00131
3726.85136,0.00112
3724.79119,0.00148
3722.73102,0.00175
3720.67084,0.00170
3718.61067,0.00154
3716.55050,0.00113
3714.49033,0.00042
3712.43015,0.00022
3710.36998,0.00124
3708.30981,0.00216
3706.24964,0.00229
3704.18947,0.00206
3702.12929,0.00182
3700.06912,0.00171
3698.00895,0.00170
3695.94878,0.00162
3693.88861,0.00147
3691.82843,0.00176
3689.76826,0.00249
3687.70809,0.00291
3685.64792,0.00270
3683.58775,0.00243
3681.52757,0.00219
3679.46740,0.00191
3677.40723,0.00167
3675.34706,0.00153
3673.28688,0.00151
3671.22671,0.00180
3669.16654,0.00246
3667.10637,0.00289
3665.04620,0.00291
3662.98602,0.00305
3660.92585,0.00353
3658.86568,0.00404
3656.80551,0.00451
3654.74534,0.00500
3652.68516,0.00541
3650.62499,0.00583
3648.56482,0.00624
3646.50465,0.00644
3644.44447,0.00662
3642.38430,0.00689
3640.32413,0.00714
3638.26396,0.00739
3636.20379,0.00781
3634.14361,0.00813
3632.08344,0.00788
3630.02327,0.00766
3627.96310,0.00854
3625.90293,0.00983
3623.84275,0.01061
3621.78258,0.01089
3619.72241,0.01108
3617.66224,0.01159
3615.60207,0.01235
3613.54189,0.01326
3611.48172,0.01420
3609.42155,0.01496
3607.36138,0.01539
3605.30120,0.01541
3603.24103,0.01525
3601.18086,0.01521
3599.12069,0.01573
3597.06052,0.01687
3595.00034,0.01818
3592.94017,0.01898
3590.88000,0.01927
3588.81983,0.01951
3586.75966,0.01989
3584.69948,0.02006
3582.63931,0.02008
3580.57914,0.02044
3578.51897,0.02119
3576.45879,0.02189
3574.39862,0.02229
3572.33845,0.02262
3570.27828,0.02312
3568.21811,0.02380
3566.15793,0.02427
3564.09776,0.02440
3562.03759,0.02465
3559.97742,0.02503
3557.91725,0.02547
3555.85707,0.02596
3553.79690,0.02628
3551.73673,0.02643
3549.67656,0.02684
3547.61639,0.02798
3545.55621,0.02945
3543.49604,0.03025
3541.43587,0.03047
3539.37570,0.03075
3537.31552,0.03124
3535.25535,0.03172
3533.19518,0.03204
3531.13501,0.03221
3529.07484,0.03228
3527.01466,0.03249
3524.95449,0.03309
3522.89432,0.03400
3520.83415,0.03479
3518.77398,0.03515
3516.71380,0.03531
3514.65363,0.03564
3512.59346,0.03626
3510.53329,0.03698
3508.47312,0.03755
3506.41294,0.03776
3504.35277,0.03783
3502.29260,0.03824
3500.23243,0.03876
3498.17225,0.03890
3496.11208,0.03898
3494.05191,0.03941
3491.99174,0.04001
3489.93157,0.04060
3487.87139,0.04125
3485.81122,0.04184
3483.75105,0.04219
3481.69088,0.04264
3479.63071,0.04320
3477.57053,0.04345
3475.51036,0.04358
3473.45019,0.04395
3471.39002,0.04431
3469.32984,0.04443
3467.26967,0.04469
3465.20950,0.04516
3463.14933,0.04549
3461.08916,0.04581
3459.02898,0.04629
3456.96881,0.04673
3454.90864,0.04706
3452.84847,0.04719
3450.78830,0.04714
3448.72812,0.04733
3446.66795,0.04779
3444.60778,0.04817
3442.54761,0.04854
3440.48744,0.04915
3438.42726,0.04979
3436.36709,0.05018
3434.30692,0.05040
3432.24675,0.05063
3430.18657,0.05087
3428.12640,0.05109
3426.06623,0.05122
3424.00606,0.05143
3421.94589,0.05189
3419.88571,0.05233
3417.82554,0.05262
3415.76537,0.05295
3413.70520,0.05330
3411.64503,0.05357
3409.58485,0.05356
3407.52468,0.05320
3405.46451,0.05306
3403.40434,0.05362
3401.34416,0.05453
3399.28399,0.05514
3397.22382,0.05536
3395.16365,0.05550
3393.10348,0.05558
3391.04330,0.05556
3388.98313,0.05549
3386.92296,0.05558
3384.86279,0.05588
3382.80262,0.05618
3380.74244,0.05629
3378.68227,0.05621
3376.62210,0.05626
3374.56193,0.05668
3372.50176,0.05697
3370.44158,0.05683
3368.38141,0.05689
3366.32124,0.05726
3364.26107,0.05736
3362.20089,0.05722
3360.14072,0.05730
3358.08055,0.05772
3356.02038,0.05822
3353.96021,0.05847
3351.90003,0.05830
3349.83986,0.05785
3347.77969,0.05761
3345.71952,0.05788
3343.65935,0.05833
3341.59917,0.05857
3339.53900,0.05844
3337.47883,0.05830
3335.41866,0.05856
3333.35849,0.05886
3331.29831,0.05868
3329.23814,0.05843
3327.17797,0.05844
3325.11780,0.05832
3323.05762,0.05815
3320.99745,0.05830
3318.93728,0.05851
3316.87711,0.05855
3314.81694,0.05857
3312.75676,0.05865
3310.69659,0.05884
3308.63642,0.05910
3306.57625,0.05925
3304.51608,0.05936
3302.45590,0.05958
3300.39573,0.05969
3298.33556,0.05951
3296.27539,0.05933
3294.21521,0.05926
3292.15504,0.05928
3290.09487,0.05925
3288.03470,0.05922
3285.97453,0.05957
3283.91435,0.05983
3281.85418,0.05952
3279.79401,0.05927
3277.73384,0.05946
3275.67367,0.05977
3273.61349,0.05985
3271.55332,0.05951
3269.49315,0.05910
3267.43298,0.05906
3265.37281,0.05937
3263.31263,0.05973
3261.25246,0.06001
3259.19229,0.06017
3257.13212,0.06013
3255.07194,0.05982
3253.01177,0.05935
3250.95160,0.05914
3248.89143,0.05936
3246.83126,0.05944
3244.77108,0.05910
3242.71091,0.05891
3240.65074,0.05906
3238.59057,0.05916
3236.53040,0.05913
3234.47022,0.05904
3232.41005,0.05900
3230.34988,0.05929
3228.28971,0.05969
3226.22954,0.05979
3224.16936,0.05955
3222.10919,0.05912
3220.04902,0.05887
3217.98885,0.05901
3215.92867,0.05908
3213.86850,0.05889
3211.80833,0.05864
3209.74816,0.05835
3207.68799,0.05819
3205.62781,0.05811
3203.56764,0.05786
3201.50747,0.05780
3199.44730,0.05805
3197.38713,0.05812
3195.32695,0.05784
3193.26678,0.05739
3191.20661,0.05696
3189.14644,0.05689
3187.08626,0.05710
3185.02609,0.05714
3182.96592,0.05694
3180.90575,0.05662
3178.84558,0.05613
3176.78540,0.05581
3174.72523,0.05596
3172.66506,0.05608
3170.60489,0.05579
3168.54472,0.05548
3166.48454,0.05532
3164.42437,0.05502
3162.36420,0.05463
3160.30403,0.05457
3158.24386,0.05476
3156.18368,0.05490
3154.12351,0.05490
3152.06334,0.05465
3150.00317,0.05420
3147.94299,0.05391
3145.88282,0.05390
3143.82265,0.05385
3141.76248,0.05358
3139.70231,0.05322
3137.64213,0.05281
3135.58196,0.05247
3133.52179,0.05217
3131.46162,0.05182
3129.40145,0.05147
3127.34127,0.05129
3125.28110,0.05151
3123.22093,0.05190
3121.16076,0.05183
3119.10058,0.05113
3117.04041,0.05028
3114.98024,0.04989
3112.92007,0.05003
3110.85990,0.05025
3108.79972,0.05019
3106.73955,0.04985
3104.67938,0.04944
3102.61921,0.04908
3100.55904,0.04879
3098.49886,0.04864
3096.43869,0.04855
3094.37852,0.04841
3092.31835,0.04811
3090.25818,0.04767
3088.19800,0.04723
3086.13783,0.04699
3084.07766,0.04690
3082.01749,0.04662
3079.95731,0.04618
3077.89714,0.04584
3075.83697,0.04558
3073.77680,0.04536
3071.71663,0.04524
3069.65645,0.04531
3067.59628,0.04524
3065.53611,0.04477
3063.47594,0.04429
3061.41577,0.04396
3059.35559,0.04372
3057.29542,0.04373
3055.23525,0.04375
3053.17508,0.04343
3051.11491,0.04297
3049.05473,0.04276
3046.99456,0.04270
3044.93439,0.04249
3042.87422,0.04211
3040.81404,0.04169
3038.75387,0.04138
3036.69370,0.04120
3034.63353,0.04097
3032.57336,0.04060
3030.51318,0.04022
3028.45301,0.03986
3026.39284,0.03954
3024.33267,0.03929
3022.27250,0.03910
3020.21232,0.03903
3018.15215,0.03894
3016.09198,0.03865
3014.03181,0.03827
3011.97163,0.03793
3009.91146,0.03776
3007.85129,0.03768
3005.79112,0.03743
3003.73095,0.03717
3001.67077,0.03708
2999.61060,0.03685
2997.55043,0.03660
2995.49026,0.03663
2993.43009,0.03664
2991.36991,0.03643
2989.30974,0.03617
2987.24957,0.03593
2985.18940,0.03565
2983.12923,0.03549
2981.06905,0.03546
2979.00888,0.03539
2976.94871,0.03511
2974.88854,0.03479
2972.82836,0.03475
2970.76819,0.03475
2968.70802,0.03467
2966.64785,0.03459
2964.58768,0.03441
2962.52750,0.03433
2960.46733,0.03443
2958.40716,0.03452
2956.34699,0.03465
2954.28682,0.03472
2952.22664,0.03461
2950.16647,0.03450
2948.10630,0.03448
2946.04613,0.03445
2943.98596,0.03450
2941.92578,0.03467
2939.86561,0.03475
2937.80544,0.03469
2935.74527,0.03459
2933.68509,0.03443
2931.62492,0.03437
2929.56475,0.03433
2927.50458,0.03409
2925.44441,0.03385
2923.38423,0.03377
2921.32406,0.03365
2919.26389,0.03352
2917.20372,0.03348
2915.14355,0.03325
2913.08337,0.03286
2911.02320,0.03277
2908.96303,0.03275
2906.90286,0.03242
2904.84268,0.03195
2902.78251,0.03161
2900.72234,0.03151
2898.66217,0.03151
2896.60200,0.03145
2894.54182,0.03155
2892.48165,0.03180
2890.42148,0.03179
2888.36131,0.03140
2886.30114,0.03100
2884.24096,0.03102
2882.18079,0.03133
2880.12062,0.03142
2878.06045,0.03126
2876.00028,0.03095
2873.94010,0.03057
2871.87993,0.03043
2869.81976,0.03059
2867.75959,0.03064
2865.69941,0.03035
2863.63924,0.03000
2861.57907,0.02982
2859.51890,0.02966
2857.45873,0.02930
2855.39855,0.02893
2853.33838,0.02888
2851.27821,0.02901
2849.21804,0.02892
2847.15787,0.02852
2845.09769,0.02818
2843.03752,0.02809
2840.97735,0.02805
2838.91718,0.02798
2836.85700,0.02787
2834.79683,0.02768
2832.73666,0.02747
2830.67649,0.02746
2828.61632,0.02754
2826.55614,0.02724
2824.49597,0.02670
2822.43580,0.02633
2820.37563,0.02623
2818.31546,0.02629
2816.25528,0.02632
2814.19511,0.02610
2812.13494,0.02578
2810.07477,0.02572
2808.01460,0.02570
2805.95442,0.02545
2803.89425,0.02531
2801.83408,0.02531
2799.77391,0.02510
2797.71373,0.02481
2795.65356,0.02470
2793.59339,0.02471
2791.53322,0.02473
2789.47305,0.02465
2787.41287,0.02439
2785.35270,0.02408
2783.29253,0.02404
2781.23236,0.02423
2779.17219,0.02428
2777.11201,0.02412
2775.05184,0.02388
2772.99167,0.02373
2770.93150,0.02375
2768.87133,0.02377
2766.81115,0.02366
2764.75098,0.02338
2762.69081,0.02300
2760.63064,0.02284
2758.57046,0.02283
2756.51029,0.02280
2754.45012,0.02284
2752.38995,0.02290
2750.32978,0.02268
2748.26960,0.02223
2746.20943,0.02191
2744.14926,0.02191
2742.08909,0.02212
2740.02892,0.02229
2737.96874,0.02228
2735.90857,0.02221
2733.84840,0.02213
2731.78823,0.02182
2729.72805,0.02145
2727.66788,0.02140
2725.60771,0.02143
2723.54754,0.02121
2721.48737,0.02091
2719.42719,0.02075
2717.36702,0.02073
2715.30685,0.02064
2713.24668,0.02044
2711.18651,0.02036
2709.12633,0.02042
2707.06616,0.02043
2705.00599,0.02032
2702.94582,0.02013
2700.88565,0.01987
2698.82547,0.01969
2696.76530,0.01958
2694.70513,0.01939
2692.64496,0.01917
2690.58478,0.01912
2688.52461,0.01923
2686.46444,0.01917
2684.40427,0.01892
2682.34410,0.01877
2680.28392,0.01865
2678.22375,0.01843
2676.16358,0.01827
2674.10341,0.01827
2672.04324,0.01826
2669.98306,0.01822
2667.92289,0.01816
2665.86272,0.01795
2663.80255,0.01778
2661.74238,0.01771
2659.68220,0.01772
2657.62203,0.01768
2655.56186,0.01732
2653.50169,0.01687
2651.44151,0.01670
2649.38134,0.01666
2647.32117,0.01649
2645.26100,0.01630
2643.20083,0.01622
2641.14065,0.01615
2639.08048,0.01607
2637.02031,0.01617
2634.96014,0.01634
2632.89997,0.01623
2630.83979,0.01591
2628.77962,0.01583
2626.71945,0.01594
2624.65928,0.01574
2622.59910,0.01530
2620.53893,0.01483
2618.47876,0.01438
2616.41859,0.01430
2614.35842,0.01440
2612.29824,0.01429
2610.23807,0.01437
2608.17790,0.01463
2606.11773,0.01442
2604.05756,0.01388
2601.99738,0.01353
2599.93721,0.01349
2597.87704,0.01359
2595.81687,0.01352
2593.75670,0.01331
2591.69652,0.01324
2589.63635,0.01318
2587.57618,0.01300
2585.51601,0.01302
2583.45583,0.01315
2581.39566,0.01318
2579.33549,0.01329
2577.27532,0.01338
2575.21515,0.01323
2573.15497,0.01309
2571.09480,0.01328
2569.03463,0.01327
2566.97446,0.01301
2564.91429,0.01323
2562.85411,0.01346
2560.79394,0.01324
2558.73377,0.01335
2556.67360,0.01370
2554.61342,0.01352
2552.55325,0.01311
2550.49308,0.01304
2548.43291,0.01311
2546.37274,0.01305
2544.31256,0.01275
2542.25239,0.01237
2540.19222,0.01227
2538.13205,0.01260
2536.07188,0.01304
2534.01170,0.01325
2531.95153,0.01328
2529.89136,0.01313
2527.83119,0.01282
2525.77102,0.01261
2523.71084,0.01252
2521.65067,0.01235
2519.59050,0.01214
2517.53033,0.01231
2515.47015,0.01274
2513.40998,0.01283
2511.34981,0.01277
2509.28964,0.01293
2507.22947,0.01308
2505.16929,0.01320
2503.10912,0.01323
2501.04895,0.01303
2498.98878,0.01294
2496.92861,0.01285
2494.86843,0.01236
2492.80826,0.01201
2490.74809,0.01254
2488.68792,0.01330
2486.62775,0.01355
2484.56757,0.01351
2482.50740,0.01330
2480.44723,0.01315
2478.38706,0.01325
2476.32688,0.01330
2474.26671,0.01321
2472.20654,0.01309
2470.14637,0.01300
2468.08620,0.01296
2466.02602,0.01295
2463.96585,0.01294
2461.90568,0.01306
2459.84551,0.01338
2457.78534,0.01358
2455.72516,0.01357
2453.66499,0.01366
2451.60482,0.01388
2449.54465,0.01404
2447.48447,0.01395
2445.42430,0.01377
2443.36413,0.01368
2441.30396,0.01366
2439.24379,0.01361
2437.18361,0.01374
2435.12344,0.01400
2433.06327,0.01380
2431.00310,0.01348
2428.94293,0.01352
2426.88275,0.01351
2424.82258,0.01333
2422.76241,0.01342
2420.70224,0.01388
2418.64207,0.01432
2416.58189,0.01418
2414.52172,0.01353
2412.46155,0.01303
2410.40138,0.01300
2408.34120,0.01325
2406.28103,0.01354
2404.22086,0.01376
2402.16069,0.01363
2400.10052,0.01329
2398.04034,0.01320
2395.98017,0.01320
2393.92000,0.01319
2391.85983,0.01322
2389.79966,0.01330
2387.73948,0.01342
2385.67931,0.01373
2383.61914,0.01410
2381.55897,0.01421
2379.49880,0.01412
2377.43862,0.01400
2375.37845,0.01313
2373.31828,0.01202
2371.25811,0.01139
2369.19793,0.01092
2367.13776,0.01129
2365.07759,0.01229
2363.01742,0.01038
2360.95725,0.00873
2358.89707,0.00792
2356.83690,0.00828
2354.77673,0.00944
2352.71656,0.01207
2350.65639,0.01672
2348.59621,0.01859
2346.53604,0.01376
2344.47587,0.01260
2342.41570,0.01246
2340.35552,0.01149
2338.29535,0.01131
2336.23518,0.01163
2334.17501,0.01226
2332.11484,0.01290
2330.05466,0.01391
2327.99449,0.01441
2325.93432,0.01539
2323.87415,0.01466
2321.81398,0.01377
2319.75380,0.01311
2317.69363,0.01357
2315.63346,0.01343
2313.57329,0.01298
2311.51312,0.01284
2309.45294,0.01284
2307.39277,0.01310
2305.33260,0.01344
2303.27243,0.01364
2301.21225,0.01353
2299.15208,0.01342
2297.09191,0.01305
2295.03174,0.01249
2292.97157,0.01226
2290.91139,0.01240
2288.85122,0.01261
2286.79105,0.01268
2284.73088,0.01247
2282.67071,0.01195
2280.61053,0.01152
2278.55036,0.01159
2276.49019,0.01183
2274.43002,0.01187
2272.36984,0.01173
2270.30967,0.01152
2268.24950,0.01106
2266.18933,0.01059
2264.12916,0.01044
2262.06898,0.01052
2260.00881,0.01063
2257.94864,0.01062
2255.88847,0.01040
2253.82830,0.01057
2251.76812,0.01098
2249.70795,0.01095
2247.64778,0.01073
2245.58761,0.01044
2243.52744,0.00990
2241.46726,0.00957
2239.40709,0.00881
2237.34692,0.00783
2235.28675,0.00862
2233.22657,0.01008
2231.16640,0.01013
2229.10623,0.01024
2227.04606,0.01048
2224.98589,0.00973
2222.92571,0.00902
2220.86554,0.00873
2218.80537,0.00855
2216.74520,0.00834
2214.68503,0.00831
2212.62485,0.00918
2210.56468,0.00990
2208.50451,0.00862
2206.44434,0.00738
2204.38417,0.00876
2202.32399,0.01030
2200.26382,0.00983
2198.20365,0.00885
2196.14348,0.00808
2194.08330,0.00726
2192.02313,0.00707
2189.96296,0.00768
2187.90279,0.00731
2185.84262,0.00567
2183.78244,0.00565
2181.72227,0.00772
2179.66210,0.00900
2177.60193,0.00813
2175.54176,0.00687
2173.48158,0.00751
2171.42141,0.00934
2169.36124,0.00959
2167.30107,0.00752
2165.24089,0.00595
2163.18072,0.00664
2161.12055,0.00657
2159.06038,0.00382
2157.00021,0.00185
2154.94003,0.00328
2152.87986,0.00638
2150.81969,0.00794
2148.75952,0.00728
2146.69935,0.00595
2144.63917,0.00544
2142.57900,0.00628
2140.51883,0.00679
2138.45866,0.00594
2136.39849,0.00503
2134.33831,0.00504
2132.27814,0.00586
2130.21797,0.00690
2128.15780,0.00724
2126.09762,0.00689
2124.03745,0.00668
2121.97728,0.00683
2119.91711,0.00750
2117.85694,0.00846
2115.79676,0.00876
2113.73659,0.00858
2111.67642,0.00847
2109.61625,0.00789
2107.55608,0.00698
2105.49590,0.00674
2103.43573,0.00668
2101.37556,0.00621
2099.31539,0.00540
2097.25521,0.00485
2095.19504,0.00522
2093.13487,0.00607
2091.07470,0.00657
2089.01453,0.00674
2086.95435,0.00686
2084.89418,0.00700
2082.83401,0.00697
2080.77384,0.00676
2078.71367,0.00665
2076.65349,0.00660
2074.59332,0.00652
2072.53315,0.00667
2070.47298,0.00729
2068.41281,0.00778
2066.35263,0.00734
2064.29246,0.00643
2062.23229,0.00596
2060.17212,0.00629
2058.11194,0.00706
2056.05177,0.00747
2053.99160,0.00744
2051.93143,0.00718
2049.87126,0.00643
2047.81108,0.00553
2045.75091,0.00562
2043.69074,0.00640
2041.63057,0.00639
2039.57040,0.00540
2037.51022,0.00506
2035.45005,0.00566
2033.38988,0.00598
2031.32971,0.00576
2029.26954,0.00484
2027.20936,0.00366
2025.14919,0.00331
2023.08902,0.00370
2021.02885,0.00368
2018.96867,0.00246
2016.90850,0.00134
2014.84833,0.00168
2012.78816,0.00270
2010.72799,0.00393
2008.66781,0.00524
2006.60764,0.00554
2004.54747,0.00474
2002.48730,0.00406
2000.42713,0.00404
1998.36695,0.00383
1996.30678,0.00272
1994.24661,0.00207
1992.18644,0.00292
1990.12626,0.00375
1988.06609,0.00373
1986.00592,0.00387
1983.94575,0.00460
1981.88558,0.00511
1979.82540,0.00461
1977.76523,0.00430
1975.70506,0.00475
1973.64489,0.00448
1971.58472,0.00368
1969.52454,0.00358
1967.46437,0.00418
1965.40420,0.00426
1963.34403,0.00340
1961.28386,0.00285
1959.22368,0.00293
1957.16351,0.00291
1955.10334,0.00282
1953.04317,0.00274
1950.98299,0.00278
1948.92282,0.00308
1946.86265,0.00353
1944.80248,0.00377
1942.74231,0.00346
1940.68213,0.00322
1938.62196,0.00348
1936.56179,0.00367
1934.50162,0.00355
1932.44145,0.00337
1930.38127,0.00306
1928.32110,0.00275
1926.26093,0.00290
1924.20076,0.00341
1922.14059,0.00361
1920.08041,0.00343
1918.02024,0.00355
1915.96007,0.00395
1913.89990,0.00417
1911.83972,0.00452
1909.77955,0.00540
1907.71938,0.00604
1905.65921,0.00583
1903.59904,0.00539
1901.53886,0.00508
1899.47869,0.00459
1897.41852,0.00418
1895.35835,0.00429
1893.29818,0.00457
1891.23800,0.00471
1889.17783,0.00482
1887.11766,0.00500
1885.05749,0.00518
1882.99731,0.00499
1880.93714,0.00446
1878.87697,0.00396
1876.81680,0.00369
1874.75663,0.00360
1872.69645,0.00351
1870.63628,0.00341
1868.57611,0.00360
1866.51594,0.00409
1864.45577,0.00449
1862.39559,0.00462
1860.33542,0.00484
1858.27525,0.00533
1856.21508,0.00560
1854.15491,0.00540
1852.09473,0.00502
1850.03456,0.00458
1847.97439,0.00410
1845.91422,0.00399
1843.85404,0.00439
1841.79387,0.00457
1839.73370,0.00442
1837.67353,0.00450
1835.61336,0.00478
1833.55318,0.00477
1831.49301,0.00458
1829.43284,0.00473
1827.37267,0.00502
1825.31250,0.00501
1823.25232,0.00481
1821.19215,0.00458
1819.13198,0.00441
1817.07181,0.00444
1815.01163,0.00464
1812.95146,0.00479
1810.89129,0.00473
1808.83112,0.00470
1806.77095,0.00493
1804.71077,0.00516
1802.65060,0.00519
1800.59043,0.00504
1798.53026,0.00470
1796.47009,0.00416
1794.40991,0.00374
1792.34974,0.00389
1790.28957,0.00448
1788.22940,0.00493
1786.16923,0.00505
1784.10905,0.00495
1782.04888,0.00493
1779.98871,0.00519
1777.92854,0.00536
1775.86836,0.00510
1773.80819,0.00471
1771.74802,0.00470
1769.68785,0.00504
1767.62768,0.00540
1765.56750,0.00569
1763.50733,0.00584
1761.44716,0.00586
1759.38699,0.00598
1757.32682,0.00641
1755.26664,0.00693
1753.20647,0.00725
1751.14630,0.00738
1749.08613,0.00738
1747.02596,0.00744
1744.96578,0.00767
1742.90561,0.00783
1740.84544,0.00792
1738.78527,0.00816
1736.72509,0.00828
1734.66492,0.00834
1732.60475,0.00871
1730.54458,0.00903
1728.48441,0.00909
1726.42423,0.00913
1724.36406,0.00934
1722.30389,0.00948
1720.24372,0.00922
1718.18355,0.00888
1716.12337,0.00927
1714.06320,0.01019
1712.00303,0.01078
1709.94286,0.01089
1707.88268,0.01093
1705.82251,0.01120
1703.76234,0.01150
1701.70217,0.01174
1699.64200,0.01226
1697.58182,0.01290
1695.52165,0.01339
1693.46148,0.01378
1691.40131,0.01404
1689.34114,0.01423
1687.28096,0.01445
1685.22079,0.01490
1683.16062,0.01577
1681.10045,0.01659
1679.04028,0.01713
1676.98010,0.01754
1674.91993,0.01797
1672.85976,0.01836
1670.79959,0.01887
1668.73941,0.01976
1666.67924,0.02053
1664.61907,0.02098
1662.55890,0.02147
1660.49873,0.02187
1658.43855,0.02189
1656.37838,0.02168
1654.31821,0.02174
1652.25804,0.02238
1650.19787,0.02280
1648.13769,0.02279
1646.07752,0.02301
1644.01735,0.02350
1641.95718,0.02378
1639.89701,0.02361
1637.83683,0.02303
1635.77666,0.02251
1633.71649,0.02242
1631.65632,0.02232
1629.59614,0.02198
1627.53597,0.02166
1625.47580,0.02159
1623.41563,0.02174
1621.35546,0.02200
1619.29528,0.02210
1617.23511,0.02207
1615.17494,0.02208
1613.11477,0.02203
1611.05460,0.02176
1608.99442,0.02119
1606.93425,0.02054
1604.87408,0.02009
1602.81391,0.01984
1600.75373,0.01962
1598.69356,0.01922
1596.63339,0.01856
1594.57322,0.01778
1592.51305,0.01709
1590.45287,0.01653
1588.39270,0.01599
1586.33253,0.01539
1584.27236,0.01475
1582.21219,0.01414
1580.15201,0.01352
1578.09184,0.01296
1576.03167,0.01274
1573.97150,0.01274
1571.91133,0.01244
1569.85115,0.01185
1567.79098,0.01134
1565.73081,0.01102
1563.67064,0.01054
1561.61046,0.00958
1559.55029,0.00880
1557.49012,0.00919
1555.42995,0.00976
1553.36978,0.00974
1551.30960,0.00933
1549.24943,0.00886
1547.18926,0.00849
1545.12909,0.00814
1543.06892,0.00766
1541.00874,0.00718
1538.94857,0.00716
1536.88840,0.00731
1534.82823,0.00713
1532.76805,0.00677
1530.70788,0.00663
1528.64771,0.00661
1526.58754,0.00649
1524.52737,0.00617
1522.46719,0.00584
1520.40702,0.00575
1518.34685,0.00574
1516.28668,0.00561
1514.22651,0.00544
1512.16633,0.00532
1510.10616,0.00516
1508.04599,0.00496
1505.98582,0.00487
1503.92565,0.00489
1501.86547,0.00484
1499.80530,0.00468
1497.74513,0.00451
1495.68496,0.00437
1493.62478,0.00425
1491.56461,0.00431
1489.50444,0.00464
1487.44427,0.00488
1485.38410,0.00481
1483.32392,0.00466
1481.26375,0.00467
1479.20358,0.00487
1477.14341,0.00517
1475.08324,0.00552
1473.02306,0.00589
1470.96289,0.00627
1468.90272,0.00641
1466.84255,0.00636
1464.78238,0.00649
1462.72220,0.00681
1460.66203,0.00688
1458.60186,0.00676
1456.54169,0.00686
1454.48151,0.00710
1452.42134,0.00720
1450.36117,0.00710
1448.30100,0.00696
1446.24083,0.00694
1444.18065,0.00701
1442.12048,0.00699
1440.06031,0.00685
1438.00014,0.00678
1435.93997,0.00695
1433.87979,0.00719
1431.81962,0.00734
1429.75945,0.00751
1427.69928,0.00773
1425.63910,0.00797
1423.57893,0.00817
1421.51876,0.00825
1419.45859,0.00840
1417.39842,0.00878
1415.33824,0.00893
1413.27807,0.00870
1411.21790,0.00850
1409.15773,0.00853
1407.09756,0.00857
1405.03738,0.00838
1402.97721,0.00804
1400.91704,0.00776
1398.85687,0.00758
1396.79670,0.00740
1394.73652,0.00727
1392.67635,0.00723
1390.61618,0.00718
1388.55601,0.00719
1386.49583,0.00726
1384.43566,0.00728
1382.37549,0.00728
1380.31532,0.00735
1378.25515,0.00743
1376.19497,0.00752
1374.13480,0.00762
1372.07463,0.00758
1370.01446,0.00731
1367.95429,0.00696
1365.89411,0.00671
1363.83394,0.00660
1361.77377,0.00655
1359.71360,0.00639
1357.65343,0.00615
1355.59325,0.00597
1353.53308,0.00582
1351.47291,0.00563
1349.41274,0.00545
1347.35256,0.00534
1345.29239,0.00534
1343.23222,0.00546
1341.17205,0.00557
1339.11188,0.00557
1337.05170,0.00551
1334.99153,0.00550
1332.93136,0.00548
1330.87119,0.00541
1328.81102,0.00531
1326.75084,0.00513
1324.69067,0.00488
1322.63050,0.00480
1320.57033,0.00494
1318.51015,0.00506
1316.44998,0.00510
1314.38981,0.00509
1312.32964,0.00500
1310.26947,0.00494
1308.20929,0.00499
1306.14912,0.00497
1304.08895,0.00486
1302.02878,0.00482
1299.96861,0.00480
1297.90843,0.00481
1295.84826,0.00484
1293.78809,0.00484
1291.72792,0.00497
1289.66775,0.00522
1287.60757,0.00537
1285.54740,0.00539
1283.48723,0.00545
1281.42706,0.00558
1279.36688,0.00565
1277.30671,0.00572
1275.24654,0.00586
1273.18637,0.00595
1271.12620,0.00593
1269.06602,0.00606
1267.00585,0.00633
1264.94568,0.00638
1262.88551,0.00617
1260.82534,0.00594
1258.76516,0.00580
1256.70499,0.00587
1254.64482,0.00607
1252.58465,0.00613
1250.52447,0.00602
1248.46430,0.00587
1246.40413,0.00570
1244.34396,0.00551
1242.28379,0.00527
1240.22361,0.00501
1238.16344,0.00484
1236.10327,0.00474
1234.04310,0.00459
1231.98293,0.00445
1229.92275,0.00435
1227.86258,0.00414
1225.80241,0.00387
1223.74224,0.00371
1221.68207,0.00356
1219.62189,0.00336
1217.56172,0.00318
1215.50155,0.00295
1213.44138,0.00267
1211.38120,0.00246
1209.32103,0.00230
1207.26086,0.00208
1205.20069,0.00189
1203.14052,0.00187
1201.08034,0.00198
1199.02017,0.00211
1196.96000,0.00215
1194.89983,0.00214
1192.83966,0.00216
1190.77948,0.00242
1188.71931,0.00297
1186.65914,0.00358
1184.59897,0.00402
1182.53880,0.00453
1180.47862,0.00545
1178.41845,0.00647
1176.35828,0.00720
1174.29811,0.00782
1172.23793,0.00869
1170.17776,0.00975
1168.11759,0.01088
1166.05742,0.01214
1163.99725,0.01327
1161.93707,0.01408
1159.87690,0.01485
1157.81673,0.01573
1155.75656,0.01667
1153.69639,0.01774
1151.63621,0.01887
1149.57604,0.01982
1147.51587,0.02055
1145.45570,0.02141
1143.39552,0.02263
1141.33535,0.02386
1139.27518,0.02481
1137.21501,0.02573
1135.15484,0.02688
1133.09466,0.02806
1131.03449,0.02922
1128.97432,0.03064
1126.91415,0.03213
1124.85398,0.03348
1122.79380,0.03476
1120.73363,0.03585
1118.67346,0.03687
1116.61329,0.03834
1114.55312,0.04004
1112.49294,0.04156
1110.43277,0.04322
1108.37260,0.04517
1106.31243,0.04691
1104.25225,0.04830
1102.19208,0.04963
1100.13191,0.05104
1098.07174,0.05244
1096.01157,0.05377
1093.95139,0.05512
1091.89122,0.05654
1089.83105,0.05796
1087.77088,0.05927
1085.71071,0.06039
1083.65053,0.06140
1081.59036,0.06251
1079.53019,0.06377
1077.47002,0.06490
1075.40985,0.06568
1073.34967,0.06617
1071.28950,0.06652
1069.22933,0.06692
1067.16916,0.06727
1065.10898,0.06729
1063.04881,0.06725
1060.98864,0.06734
1058.92847,0.06730
1056.86830,0.06685
1054.80812,0.06598
1052.74795,0.06513
1050.68778,0.06439
1048.62761,0.06334
1046.56744,0.06214
1044.50726,0.06112
1042.44709,0.06006
1040.38692,0.05875
1038.32675,0.05732
1036.26657,0.05605
1034.20640,0.05506
1032.14623,0.05410
1030.08606,0.05277
1028.02589,0.05120
1025.96571,0.04984
1023.90554,0.04868
1021.84537,0.04771
1019.78520,0.04691
1017.72503,0.04607
1015.66485,0.04510
1013.60468,0.04403
1011.54451,0.04294
1009.48434,0.04203
1007.42417,0.04135
1005.36399,0.04074
1003.30382,0.04042
1001.24365,0.04054
999.18348,0.04099
997.12330,0.04178
995.06313,0.04276
993.00296,0.04367
990.94279,0.04442
988.88262,0.04497
986.82244,0.04524
984.76227,0.04529
982.70210,0.04516
980.64193,0.04471
978.58176,0.04406
976.52158,0.04320
974.46141,0.04165
972.40124,0.03961
970.34107,0.03759
968.28089,0.03564
966.22072,0.03376
964.16055,0.03193
962.10038,0.03018
960.04021,0.02870
957.98003,0.02751
955.91986,0.02640
953.85969,0.02538
951.79952,0.02444
949.73935,0.02338
947.67917,0.02236
945.61900,0.02183
943.55883,0.02157
941.49866,0.02113
939.43849,0.02073
937.37831,0.02071
935.31814,0.02080
933.25797,0.02070
931.19780,0.02046
929.13762,0.02038
927.07745,0.02033
925.01728,0.01982
922.95711,0.01893
920.89694,0.01825
918.83676,0.01798
916.77659,0.01765
914.71642,0.01682
912.65625,0.01603
910.59608,0.01569
908.53590,0.01516
906.47573,0.01441
904.41556,0.01395
902.35539,0.01374
900.29522,0.01382
898.23504,0.01412
896.17487,0.01435
894.11470,0.01465
892.05453,0.01500
889.99435,0.01513
887.93418,0.01535
885.87401,0.01591
883.81384,0.01640
881.75367,0.01671
879.69349,0.01697
877.63332,0.01717
875.57315,0.01767
873.51298,0.01861
871.45281,0.01932
869.39263,0.01946
867.33246,0.01929
865.27229,0.01875
863.21212,0.01815
861.15194,0.01812
859.09177,0.01850
857.03160,0.01883
854.97143,0.01864
852.91126,0.01794
850.85108,0.01739
848.79091,0.01706
846.73074,0.01659
844.67057,0.01626
842.61040,0.01613
840.55022,0.01579
838.49005,0.01502
836.42988,0.01388
834.36971,0.01309
832.30954,0.01310
830.24936,0.01312
828.18919,0.01264
826.12902,0.01194
824.06885,0.01122
822.00867,0.01067
819.94850,0.01047
817.88833,0.01043
815.82816,0.01019
813.76799,0.00984
811.70781,0.00959
809.64764,0.00928
807.58747,0.00893
805.52730,0.00865
803.46713,0.00840
801.40695,0.00798
799.34678,0.00756
797.28661,0.00749
795.22644,0.00737
793.16627,0.00706
791.10609,0.00666
789.04592,0.00636
786.98575,0.00657
784.92558,0.00696
782.86540,0.00699
780.80523,0.00696
778.74506,0.00722
776.68489,0.00730
774.62472,0.00714
772.56454,0.00704
770.50437,0.00708
768.44420,0.00730
766.38403,0.00721
764.32386,0.00689
762.26368,0.00669
760.20351,0.00655
758.14334,0.00649
756.08317,0.00623
754.02299,0.00573
751.96282,0.00529
749.90265,0.00521
747.84248,0.00551
745.78231,0.00569
743.72213,0.00573
741.66196,0.00578
739.60179,0.00542
737.54162,0.00497
735.48145,0.00521
733.42127,0.00572
731.36110,0.00604
729.30093,0.00621
727.24076,0.00591
725.18059,0.00539
723.12041,0.00576
721.06024,0.00603
719.00007,0.00674
716.93990,0.00735
714.87972,0.00791
712.81955,0.00823
710.75938,0.00813
708.69921,0.00785
706.63904,0.00757
704.57886,0.00741
702.51869,0.00741
700.45852,0.00755
698.39835,0.00780
696.33818,0.00824
694.27800,0.00880
692.21783,0.00917
690.15766,0.00890
688.09749,0.00798
686.03731,0.00684
683.97714,0.00626
681.91697,0.00712
679.85680,0.00855
677.79663,0.00886
675.73645,0.00800
673.67628,0.00827
671.61611,0.01086
669.55594,0.00801
667.49577,0.00226
665.43559,0.00950
663.37542,0.00799
661.31525,0.00654
659.25508,0.00735
657.19491,0.00847
655.13473,0.00898
653.07456,0.00819
651.01439,0.00651
648.95422,0.00553
646.89404,0.00605
644.83387,0.00606
642.77370,0.00522
640.71353,0.00465
638.65336,0.00511
636.59318,0.00606
634.53301,0.00658
632.47284,0.00637
630.41267,0.00519
628.35250,0.00339
626.29232,0.00229
624.23215,0.00224
622.17198,0.00331
620.11181,0.00412
618.05164,0.00313
615.99146,0.00207
613.93129,0.00461
611.87112,0.00803
609.81095,0.00729
607.75077,0.00392
605.69060,0.00088
603.63043,0.00000
601.57026,0.00067
599.51009,0.00000
