3996.73391,0.00111
3994.67373,0.00090
3992.61356,0.00041
3990.55339,0.00004
3988.49322,0.00000
3986.43305,0.00016
3984.37287,0.00033
3982.31270,0.00047
3980.25253,0.00062
3978.19236,0.00086
3976.13219,0.00097
3974.07201,0.00081
3972.01184,0.00058
3969.95167,0.00057
3967.89150,0.00074
3965.83133,0.00077
3963.77115,0.00074
3961.71098,0.00099
3959.65081,0.00127
3957.59064,0.00103
3955.53046,0.00045
3953.47029,0.00029
3951.41012,0.00086
3949.34995,0.00165
3947.28978,0.00185
3945.22960,0.00142
3943.16943,0.00110
3941.10926,0.00106
3939.04909,0.00086
3936.98892,0.00076
3934.92874,0.00124
3932.86857,0.00180
3930.80840,0.00178
3928.74823,0.00146
3926.68805,0.00136
3924.62788,0.00149
3922.56771,0.00165
3920.50754,0.00153
3918.44737,0.00118
3916.38719,0.00106
3914.32702,0.00119
3912.26685,0.00112
3910.20668,0.00090
3908.14651,0.00075
3906.08633,0.00062
3904.02616,0.00046
3901.96599,0.00046
3899.90582,0.00074
3897.84565,0.00106
3895.78547,0.00111
3893.72530,0.00113
3891.66513,0.00148
3889.60496,0.00173
3887.54478,0.00157
3885.48461,0.00156
3883.42444,0.00192
3881.36427,0.00216
3879.30410,0.00213
3877.24392,0.00202
3875.18375,0.00183
3873.12358,0.00132
3871.06341,0.00061
3869.00324,0.00028
3866.94306,0.00046
3864.88289,0.00086
3862.82272,0.00121
3860.76255,0.00121
3858.70237,0.00086
3856.64220,0.00039
3854.58203,0.00043
3852.52186,0.00142
3850.46169,0.00209
3848.40151,0.00195
3846.34134,0.00182
3844.28117,0.00189
3842.22100,0.00168
3840.16083,0.00112
3838.10065,0.00080
3836.04048,0.00102
3833.98031,0.00141
3831.92014,0.00160
3829.85997,0.00150
3827.79979,0.00134
3825.73962,0.00135
3823.67945,0.00135
3821.61928,0.00119
3819.55910,0.00099
3817.49893,0.00091
3815.43876,0.00121
3813.37859,0.00171
3811.31842,0.00191
3809.25824,0.00172
3807.19807,0.00146
3805.13790,0.00128
3803.07773,0.00095
3801.01756,0.00076
3798.95738,0.00101
3796.89721,0.00139
3794.83704,0.00163
3792.77687,0.00155
3790.71670,0.00133
3788.65652,0.00122
3786.59635,0.00129
3784.53618,0.00151
3782.47601,0.00146
3780.41583,0.00107
3778.35566,0.00108
3776.29549,0.00157
3774.23532,0.00179
3772.17515,0.00166
3770.11497,0.00158
3768.05480,0.00151
3765.99463,0.00148
3763.93446,0.00179
3761.87429,0.00204
3759.81411,0.00180
3757.75394,0.00139
3755.69377,0.00101
3753.63360,0.00054
3751.57342,0.00037
3749.51325,0.00086
3747.45308,0.00152
3745.39291,0.00253
3743.33274,0.00364
3741.27256,0.00389
3739.21239,0.00350
3737.15222,0.00305
3735.09205,0.00276
3733.03188,0.00254
3730.97170,0.00222
3728.91153,0.00179
3726.85136,0.00145
3724.79119,0.00139
3722.73102,0.00153
3720.67084,0.00195
3718.61067,0.00234
3716.55050,0.00210
3714.49033,0.00139
3712.43015,0.00114
3710.36998,0.00175
3708.30981,0.00246
3706.24964,0.00281
3704.18947,0.00270
3702.12929,0.00229
3700.06912,0.00223
3698.00895,0.00257
3695.94878,0.00273
3693.88861,0.00253
3691.82843,0.00221
3689.76826,0.00199
3687.70809,0.00198
3685.64792,0.00209
3683.58775,0.00222
3681.52757,0.00237
3679.46740,0.00247
3677.40723,0.00246
3675.34706,0.00271
3673.28688,0.00328
3671.22671,0.00386
3669.16654,0.00434
3667.10637,0.00437
3665.04620,0.00420
3662.98602,0.00444
3660.92585,0.00489
3658.86568,0.00509
3656.80551,0.00525
3654.74534,0.00559
3652.68516,0.00576
3650.62499,0.00582
3648.56482,0.00631
3646.50465,0.00704
3644.44447,0.00739
3642.38430,0.00749
3640.32413,0.00775
3638.26396,0.00817
3636.20379,0.00845
3634.14361,0.00846
3632.08344,0.00843
3630.02327,0.00911
3627.96310,0.01063
3625.90293,0.01161
3623.84275,0.01154
3621.78258,0.01115
3619.72241,0.01106
3617.66224,0.01145
3615.60207,0.01215
3613.54189,0.01308
3611.48172,0.01416
3609.42155,0.01521
3607.36138,0.01604
3605.30120,0.01651
3603.24103,0.01664
3601.18086,0.01663
3599.12069,0.01695
3597.06052,0.01792
3595.00034,0.01910
3592.94017,0.01994
3590.88000,0.02047
3588.81983,0.02127
3586.75966,0.02234
3584.69948,0.02281
3582.63931,0.02261
3580.57914,0.02248
3578.51897,0.02287
3576.45879,0.02352
3574.39862,0.02405
3572.33845,0.02435
3570.27828,0.02457
3568.21811,0.02492
3566.15793,0.02541
3564.09776,0.02577
3562.03759,0.02615
3559.97742,0.02681
3557.91725,0.02759
3555.85707,0.02805
3553.79690,0.02804
3551.73673,0.02806
3549.67656,0.02863
3547.61639,0.02969
3545.55621,0.03086
3543.49604,0.03165
3541.43587,0.03200
3539.37570,0.03231
3537.31552,0.03289
3535.25535,0.03374
3533.19518,0.03448
3531.13501,0.03491
3529.07484,0.03523
3527.01466,0.03569
3524.95449,0.03634
3522.89432,0.03690
3520.83415,0.03708
3518.77398,0.03715
3516.71380,0.03762
3514.65363,0.03826
3512.59346,0.03865
3510.53329,0.03906
3508.47312,0.03970
3506.41294,0.04020
3504.35277,0.04060
3502.29260,0.04119
3500.23243,0.04160
3498.17225,0.04164
3496.11208,0.04170
3494.05191,0.04210
3491.99174,0.04287
3489.93157,0.04357
3487.87139,0.04387
3485.81122,0.04402
3483.75105,0.04433
3481.69088,0.04497
3479.63071,0.04575
3477.57053,0.04627
3475.51036,0.04653
3473.45019,0.04662
3471.39002,0.04669
3469.32984,0.04705
3467.26967,0.04780
3465.20950,0.04864
3463.14933,0.04919
3461.08916,0.04951
3459.02898,0.04991
3456.96881,0.05030
3454.90864,0.05041
3452.84847,0.05024
3450.78830,0.05003
3448.72812,0.05011
3446.66795,0.05053
3444.60778,0.05097
3442.54761,0.05140
3440.48744,0.05195
3438.42726,0.05272
3436.36709,0.05353
3434.30692,0.05397
3432.24675,0.05416
3430.18657,0.05442
3428.12640,0.05465
3426.06623,0.05461
3424.00606,0.05468
3421.94589,0.05497
3419.88571,0.05504
3417.82554,0.05514
3415.76537,0.05557
3413.70520,0.05630
3411.64503,0.05701
3409.58485,0.05719
3407.52468,0.05704
3405.46451,0.05714
3403.40434,0.05757
3401.34416,0.05800
3399.28399,0.05826
3397.22382,0.05833
3395.16365,0.05837
3393.10348,0.05863
3391.04330,0.05900
3388.98313,0.05898
3386.92296,0.05876
3384.86279,0.05883
3382.80262,0.05924
3380.74244,0.05974
3378.68227,0.05990
3376.62210,0.05988
3374.56193,0.06010
3372.50176,0.06040
3370.44158,0.06056
3368.38141,0.06075
3366.32124,0.06110
3364.26107,0.06122
3362.20089,0.06115
3360.14072,0.06139
3358.08055,0.06172
3356.02038,0.06164
3353.96021,0.06146
3351.90003,0.06157
3349.83986,0.06161
3347.77969,0.06143
3345.71952,0.06141
3343.65935,0.06160
3341.59917,0.06174
3339.53900,0.06165
3337.47883,0.06144
3335.41866,0.06134
3333.35849,0.06141
3331.29831,0.06147
3329.23814,0.06147
3327.17797,0.06148
3325.11780,0.06159
3323.05762,0.06192
3320.99745,0.06231
3318.93728,0.06245
3316.87711,0.06239
3314.81694,0.06226
3312.75676,0.06208
3310.69659,0.06206
3308.63642,0.06226
3306.57625,0.06239
3304.51608,0.06242
3302.45590,0.06247
3300.39573,0.06247
3298.33556,0.06260
3296.27539,0.06278
3294.21521,0.06263
3292.15504,0.06249
3290.09487,0.06264
3288.03470,0.06272
3285.97453,0.06270
3283.91435,0.06260
3281.85418,0.06227
3279.79401,0.06217
3277.73384,0.06256
3275.67367,0.06297
3273.61349,0.06307
3271.55332,0.06297
3269.49315,0.06278
3267.43298,0.06258
3265.37281,0.06254
3263.31263,0.06263
3261.25246,0.06266
3259.19229,0.06255
3257.13212,0.06245
3255.07194,0.06245
3253.01177,0.06258
3250.95160,0.06286
3248.89143,0.06308
3246.83126,0.06319
3244.77108,0.06323
3242.71091,0.06315
3240.65074,0.06287
3238.59057,0.06254
3236.53040,0.06250
3234.47022,0.06269
3232.41005,0.06286
3230.34988,0.06280
3228.28971,0.06261
3226.22954,0.06248
3224.16936,0.06235
3222.10919,0.06227
3220.04902,0.06219
3217.98885,0.06214
3215.92867,0.06216
3213.86850,0.06204
3211.80833,0.06177
3209.74816,0.06139
3207.68799,0.06110
3205.62781,0.06109
3203.56764,0.06114
3201.50747,0.06126
3199.44730,0.06161
3197.38713,0.06169
3195.32695,0.06123
3193.26678,0.06052
3191.20661,0.05989
3189.14644,0.05982
3187.08626,0.06014
3185.02609,0.06024
3182.96592,0.06016
3180.90575,0.05983
3178.84558,0.05916
3176.78540,0.05863
3174.72523,0.05858
3172.66506,0.05886
3170.60489,0.05899
3168.54472,0.05876
3166.48454,0.05855
3164.42437,0.05834
3162.36420,0.05778
3160.30403,0.05729
3158.24386,0.05742
3156.18368,0.05764
3154.12351,0.05748
3152.06334,0.05716
3150.00317,0.05686
3147.94299,0.05674
3145.88282,0.05678
3143.82265,0.05678
3141.76248,0.05664
3139.70231,0.05635
3137.64213,0.05581
3135.58196,0.05512
3133.52179,0.05468
3131.46162,0.05466
3129.40145,0.05469
3127.34127,0.05449
3125.28110,0.05424
3123.22093,0.05403
3121.16076,0.05377
3119.10058,0.05348
3117.04041,0.05314
3114.98024,0.05291
3112.92007,0.05285
3110.85990,0.05271
3108.79972,0.05235
3106.73955,0.05196
3104.67938,0.05172
3102.61921,0.05147
3100.55904,0.05128
3098.49886,0.05126
3096.43869,0.05114
3094.37852,0.05074
3092.31835,0.05020
3090.25818,0.04976
3088.19800,0.04948
3086.13783,0.04922
3084.07766,0.04902
3082.01749,0.04910
3079.95731,0.04921
3077.89714,0.04883
3075.83697,0.04819
3073.77680,0.04778
3071.71663,0.04769
3069.65645,0.04761
3067.59628,0.04726
3065.53611,0.04679
3063.47594,0.04658
3061.41577,0.04646
3059.35559,0.04609
3057.29542,0.04563
3055.23525,0.04536
3053.17508,0.04521
3051.11491,0.04502
3049.05473,0.04472
3046.99456,0.04429
3044.93439,0.04391
3042.87422,0.04377
3040.81404,0.04364
3038.75387,0.04338
3036.69370,0.04326
3034.63353,0.04316
3032.57336,0.04280
3030.51318,0.04235
3028.45301,0.04195
3026.39284,0.04146
3024.33267,0.04090
3022.27250,0.04044
3020.21232,0.04018
3018.15215,0.04015
3016.09198,0.04011
3014.03181,0.03988
3011.97163,0.03965
3009.91146,0.03944
3007.85129,0.03912
3005.79112,0.03874
3003.73095,0.03843
3001.67077,0.03828
2999.61060,0.03807
2997.55043,0.03768
2995.49026,0.03746
2993.43009,0.03756
2991.36991,0.03756
2989.30974,0.03716
2987.24957,0.03670
2985.18940,0.03658
2983.12923,0.03679
2981.06905,0.03705
2979.00888,0.03705
2976.94871,0.03668
2974.88854,0.03633
2972.82836,0.03634
2970.76819,0.03636
2968.70802,0.03607
2966.64785,0.03580
2964.58768,0.03578
2962.52750,0.03586
2960.46733,0.03577
2958.40716,0.03561
2956.34699,0.03550
2954.28682,0.03553
2952.22664,0.03582
2950.16647,0.03619
2948.10630,0.03629
2946.04613,0.03604
2943.98596,0.03566
2941.92578,0.03542
2939.86561,0.03540
2937.80544,0.03561
2935.74527,0.03589
2933.68509,0.03588
2931.62492,0.03565
2929.56475,0.03538
2927.50458,0.03495
2925.44441,0.03460
2923.38423,0.03465
2921.32406,0.03466
2919.26389,0.03424
2917.20372,0.03385
2915.14355,0.03360
2913.08337,0.03342
2911.02320,0.03363
2908.96303,0.03388
2906.90286,0.03360
2904.84268,0.03300
2902.78251,0.03257
2900.72234,0.03247
2898.66217,0.03247
2896.60200,0.03236
2894.54182,0.03230
2892.48165,0.03232
2890.42148,0.03231
2888.36131,0.03219
2886.30114,0.03189
2884.24096,0.03175
2882.18079,0.03188
2880.12062,0.03184
2878.06045,0.03158
2876.00028,0.03138
2873.94010,0.03122
2871.87993,0.03114
2869.81976,0.03114
2867.75959,0.03104
2865.69941,0.03071
2863.63924,0.03035
2861.57907,0.03018
2859.51890,0.02995
2857.45873,0.02956
2855.39855,0.02929
2853.33838,0.02932
2851.27821,0.02936
2849.21804,0.02916
2847.15787,0.02888
2845.09769,0.02874
2843.03752,0.02866
2840.97735,0.02840
2838.91718,0.02817
2836.85700,0.02811
2834.79683,0.02791
2832.73666,0.02758
2830.67649,0.02755
2828.61632,0.02761
2826.55614,0.02735
2824.49597,0.02679
2822.43580,0.02636
2820.37563,0.02631
2818.31546,0.02631
2816.25528,0.02618
2814.19511,0.02598
2812.13494,0.02582
2810.07477,0.02588
2808.01460,0.02587
2805.95442,0.02567
2803.89425,0.02559
2801.83408,0.02560
2799.77391,0.02550
2797.71373,0.02537
2795.65356,0.02533
2793.59339,0.02530
2791.53322,0.02521
2789.47305,0.02494
2787.41287,0.02452
2785.35270,0.02426
2783.29253,0.02421
2781.23236,0.02422
2779.17219,0.02421
2777.11201,0.02400
2775.05184,0.02367
2772.99167,0.02360
2770.93150,0.02371
2768.87133,0.02366
2766.81115,0.02340
2764.75098,0.02300
2762.69081,0.02265
2760.63064,0.02260
2758.57046,0.02279
2756.51029,0.02294
2754.45012,0.02288
2752.38995,0.02263
2750.32978,0.02238
2748.26960,0.02215
2746.20943,0.02186
2744.14926,0.02174
2742.08909,0.02193
2740.02892,0.02210
2737.96874,0.02202
2735.90857,0.02180
2733.84840,0.02161
2731.78823,0.02138
2729.72805,0.02103
2727.66788,0.02087
2725.60771,0.02093
2723.54754,0.02082
2721.48737,0.02041
2719.42719,0.02019
2717.36702,0.02037
2715.30685,0.02041
2713.24668,0.02017
2711.18651,0.02007
2709.12633,0.02014
2707.06616,0.01993
2705.00599,0.01957
2702.94582,0.01948
2700.88565,0.01944
2698.82547,0.01941
2696.76530,0.01941
2694.70513,0.01925
2692.64496,0.01901
2690.58478,0.01880
2688.52461,0.01862
2686.46444,0.01845
2684.40427,0.01833
2682.34410,0.01821
2680.28392,0.01795
2678.22375,0.01762
2676.16358,0.01748
2674.10341,0.01758
2672.04324,0.01769
2669.98306,0.01764
2667.92289,0.01738
2665.86272,0.01706
2663.80255,0.01690
2661.74238,0.01688
2659.68220,0.01695
2657.62203,0.01696
2655.56186,0.01674
2653.50169,0.01638
2651.44151,0.01614
2649.38134,0.01601
2647.32117,0.01584
2645.26100,0.01574
2643.20083,0.01582
2641.14065,0.01592
2639.08048,0.01584
2637.02031,0.01578
2634.96014,0.01579
2632.89997,0.01568
2630.83979,0.01538
2628.77962,0.01495
2626.71945,0.01460
2624.65928,0.01445
2622.59910,0.01450
2620.53893,0.01436
2618.47876,0.01385
2616.41859,0.01353
2614.35842,0.01373
2612.29824,0.01408
2610.23807,0.01419
2608.17790,0.01406
2606.11773,0.01381
2604.05756,0.01349
2601.99738,0.01339
2599.93721,0.01350
2597.87704,0.01327
2595.81687,0.01273
2593.75670,0.01246
2591.69652,0.01251
2589.63635,0.01240
2587.57618,0.01210
2585.51601,0.01196
2583.45583,0.01200
2581.39566,0.01197
2579.33549,0.01191
2577.27532,0.01210
2575.21515,0.01223
2573.15497,0.01197
2571.09480,0.01163
2569.03463,0.01156
2566.97446,0.01192
2564.91429,0.01246
2562.85411,0.01234
2560.79394,0.01174
2558.73377,0.01183
2556.67360,0.01219
2554.61342,0.01197
2552.55325,0.01182
2550.49308,0.01203
2548.43291,0.01202
2546.37274,0.01184
2544.31256,0.01195
2542.25239,0.01222
2540.19222,0.01228
2538.13205,0.01215
2536.07188,0.01207
2534.01170,0.01214
2531.95153,0.01236
2529.89136,0.01246
2527.83119,0.01206
2525.77102,0.01154
2523.71084,0.01163
2521.65067,0.01198
2519.59050,0.01175
2517.53033,0.01133
2515.47015,0.01144
2513.40998,0.01192
2511.34981,0.01215
2509.28964,0.01194
2507.22947,0.01195
2505.16929,0.01248
2503.10912,0.01271
2501.04895,0.01236
2498.98878,0.01207
2496.92861,0.01202
2494.86843,0.01198
2492.80826,0.01192
2490.74809,0.01192
2488.68792,0.01201
2486.62775,0.01211
2484.56757,0.01222
2482.50740,0.01232
2480.44723,0.01243
2478.38706,0.01259
2476.32688,0.01261
2474.26671,0.01232
2472.20654,0.01184
2470.14637,0.01128
2468.08620,0.01114
2466.02602,0.01158
2463.96585,0.01190
2461.90568,0.01194
2459.84551,0.01202
2457.78534,0.01215
2455.72516,0.01269
2453.66499,0.01346
2451.60482,0.01362
2449.54465,0.01320
2447.48447,0.01266
2445.42430,0.01230
2443.36413,0.01219
2441.30396,0.01212
2439.24379,0.01204
2437.18361,0.01243
2435.12344,0.01322
2433.06327,0.01342
2431.00310,0.01283
2428.94293,0.01207
2426.88275,0.01153
2424.82258,0.01159
2422.76241,0.01226
2420.70224,0.01294
2418.64207,0.01336
2416.58189,0.01322
2414.52172,0.01253
2412.46155,0.01211
2410.40138,0.01200
2408.34120,0.01192
2406.28103,0.01193
2404.22086,0.01217
2402.16069,0.01255
2400.10052,0.01248
2398.04034,0.01205
2395.98017,0.01195
2393.92000,0.01228
2391.85983,0.01251
2389.79966,0.01238
2387.73948,0.01213
2385.67931,0.01199
2383.61914,0.01195
2381.55897,0.01192
2379.49880,0.01186
2377.43862,0.01166
2375.37845,0.01107
2373.31828,0.01000
2371.25811,0.00922
2369.19793,0.00908
2367.13776,0.00863
2365.07759,0.00733
2363.01742,0.00631
2360.95725,0.00733
2358.89707,0.00869
2356.83690,0.00804
2354.77673,0.00792
2352.71656,0.01009
2350.65639,0.01198
2348.59621,0.01174
2346.53604,0.01027
2344.47587,0.00922
2342.41570,0.00911
2340.35552,0.00926
2338.29535,0.00960
2336.23518,0.01047
2334.17501,0.01160
2332.11484,0.01225
2330.05466,0.01222
2327.99449,0.01208
2325.93432,0.01221
2323.87415,0.01218
2321.81398,0.01192
2319.75380,0.01198
2317.69363,0.01222
2315.63346,0.01201
2313.57329,0.01144
2311.51312,0.01101
2309.45294,0.01107
2307.39277,0.01164
2305.33260,0.01202
2303.27243,0.01171
2301.21225,0.01125
2299.15208,0.01100
2297.09191,0.01104
2295.03174,0.01133
2292.97157,0.01136
2290.91139,0.01105
2288.85122,0.01089
2286.79105,0.01095
2284.73088,0.01081
2282.67071,0.01032
2280.61053,0.00995
2278.55036,0.01016
2276.49019,0.01065
2274.43002,0.01065
2272.36984,0.00999
2270.30967,0.00925
2268.24950,0.00884
2266.18933,0.00879
2264.12916,0.00894
2262.06898,0.00916
2260.00881,0.00892
2257.94864,0.00801
2255.88847,0.00770
2253.82830,0.00862
2251.76812,0.00931
2249.70795,0.00898
2247.64778,0.00851
2245.58761,0.00830
2243.52744,0.00822
2241.46726,0.00835
2239.40709,0.00813
2237.34692,0.00716
2235.28675,0.00712
2233.22657,0.00811
2231.16640,0.00845
2229.10623,0.00853
2227.04606,0.00869
2224.98589,0.00841
2222.92571,0.00773
2220.86554,0.00710
2218.80537,0.00696
2216.74520,0.00714
2214.68503,0.00717
2212.62485,0.00704
2210.56468,0.00671
2208.50451,0.00633
2206.44434,0.00683
2204.38417,0.00789
2202.32399,0.00792
2200.26382,0.00694
2198.20365,0.00647
2196.14348,0.00648
2194.08330,0.00602
2192.02313,0.00605
2189.96296,0.00665
2187.90279,0.00588
2185.84262,0.00390
2183.78244,0.00294
2181.72227,0.00319
2179.66210,0.00341
2177.60193,0.00383
2175.54176,0.00442
2173.48158,0.00454
2171.42141,0.00500
2169.36124,0.00571
2167.30107,0.00541
2165.24089,0.00539
2163.18072,0.00665
2161.12055,0.00651
2159.06038,0.00362
2157.00021,0.00129
2154.94003,0.00186
2152.87986,0.00345
2150.81969,0.00381
2148.75952,0.00349
2146.69935,0.00311
2144.63917,0.00276
2142.57900,0.00312
2140.51883,0.00319
2138.45866,0.00234
2136.39849,0.00211
2134.33831,0.00273
2132.27814,0.00365
2130.21797,0.00473
2128.15780,0.00468
2126.09762,0.00398
2124.03745,0.00454
2121.97728,0.00582
2119.91711,0.00658
2117.85694,0.00688
2115.79676,0.00696
2113.73659,0.00660
2111.67642,0.00583
2109.61625,0.00506
2107.55608,0.00472
2105.49590,0.00494
2103.43573,0.00520
2101.37556,0.00549
2099.31539,0.00549
2097.25521,0.00474
2095.19504,0.00403
2093.13487,0.00410
2091.07470,0.00452
2089.01453,0.00482
2086.95435,0.00503
2084.89418,0.00509
2082.83401,0.00481
2080.77384,0.00473
2078.71367,0.00497
2076.65349,0.00486
2074.59332,0.00471
2072.53315,0.00502
2070.47298,0.00543
2068.41281,0.00540
2066.35263,0.00473
2064.29246,0.00403
2062.23229,0.00371
2060.17212,0.00385
2058.11194,0.00428
2056.05177,0.00447
2053.99160,0.00490
2051.93143,0.00573
2049.87126,0.00574
2047.81108,0.00500
2045.75091,0.00435
2043.69074,0.00299
2041.63057,0.00144
2039.57040,0.00134
2037.51022,0.00205
2035.45005,0.00282
2033.38988,0.00318
2031.32971,0.00263
2029.26954,0.00189
2027.20936,0.00121
2025.14919,0.00034
2023.08902,0.00012
2021.02885,0.00038
2018.96867,0.00024
2016.90850,0.00030
2014.84833,0.00113
2012.78816,0.00192
2010.72799,0.00259
2008.66781,0.00347
2006.60764,0.00306
2004.54747,0.00164
2002.48730,0.00152
2000.42713,0.00295
1998.36695,0.00402
1996.30678,0.00311
1994.24661,0.00182
1992.18644,0.00242
1990.12626,0.00376
1988.06609,0.00415
1986.00592,0.00386
1983.94575,0.00336
1981.88558,0.00300
1979.82540,0.00306
1977.76523,0.00315
1975.70506,0.00283
1973.64489,0.00247
1971.58472,0.00198
1969.52454,0.00102
1967.46437,0.00037
1965.40420,0.00017
1963.34403,0.00012
1961.28386,0.00062
1959.22368,0.00149
1957.16351,0.00174
1955.10334,0.00108
1953.04317,0.00045
1950.98299,0.00085
1948.92282,0.00175
1946.86265,0.00197
1944.80248,0.00151
1942.74231,0.00091
1940.68213,0.00039
1938.62196,0.00058
1936.56179,0.00155
1934.50162,0.00214
1932.44145,0.00207
1930.38127,0.00187
1928.32110,0.00171
1926.26093,0.00204
1924.20076,0.00269
1922.14059,0.00275
1920.08041,0.00236
1918.02024,0.00238
1915.96007,0.00289
1913.89990,0.00326
1911.83972,0.00339
1909.77955,0.00377
1907.71938,0.00407
1905.65921,0.00377
1903.59904,0.00309
1901.53886,0.00254
1899.47869,0.00236
1897.41852,0.00238
1895.35835,0.00243
1893.29818,0.00263
1891.23800,0.00310
1889.17783,0.00339
1887.11766,0.00301
1885.05749,0.00262
1882.99731,0.00288
1880.93714,0.00318
1878.87697,0.00302
1876.81680,0.00275
1874.75663,0.00263
1872.69645,0.00246
1870.63628,0.00224
1868.57611,0.00215
1866.51594,0.00224
1864.45577,0.00252
1862.39559,0.00290
1860.33542,0.00328
1858.27525,0.00362
1856.21508,0.00369
1854.15491,0.00350
1852.09473,0.00331
1850.03456,0.00311
1847.97439,0.00263
1845.91422,0.00200
1843.85404,0.00173
1841.79387,0.00200
1839.73370,0.00242
1837.67353,0.00292
1835.61336,0.00338
1833.55318,0.00334
1831.49301,0.00286
1829.43284,0.00259
1827.37267,0.00268
1825.31250,0.00289
1823.25232,0.00307
1821.19215,0.00304
1819.13198,0.00282
1817.07181,0.00269
1815.01163,0.00288
1812.95146,0.00322
1810.89129,0.00337
1808.83112,0.00342
1806.77095,0.00358
1804.71077,0.00366
1802.65060,0.00346
1800.59043,0.00307
1798.53026,0.00269
1796.47009,0.00236
1794.40991,0.00209
1792.34974,0.00218
1790.28957,0.00270
1788.22940,0.00312
1786.16923,0.00326
1784.10905,0.00336
1782.04888,0.00359
1779.98871,0.00390
1777.92854,0.00403
1775.86836,0.00387
1773.80819,0.00354
1771.74802,0.00337
1769.68785,0.00360
1767.62768,0.00407
1765.56750,0.00443
1763.50733,0.00443
1761.44716,0.00416
1759.38699,0.00401
1757.32682,0.00429
1755.26664,0.00483
1753.20647,0.00531
1751.14630,0.00561
1749.08613,0.00568
1747.02596,0.00564
1744.96578,0.00581
1742.90561,0.00607
1740.84544,0.00626
1738.78527,0.00638
1736.72509,0.00642
1734.66492,0.00662
1732.60475,0.00715
1730.54458,0.00749
1728.48441,0.00759
1726.42423,0.00779
1724.36406,0.00814
1722.30389,0.00820
1720.24372,0.00778
1718.18355,0.00737
1716.12337,0.00764
1714.06320,0.00833
1712.00303,0.00893
1709.94286,0.00929
1707.88268,0.00943
1705.82251,0.00958
1703.76234,0.00993
1701.70217,0.01039
1699.64200,0.01106
1697.58182,0.01197
1695.52165,0.01285
1693.46148,0.01335
1691.40131,0.01347
1689.34114,0.01340
1687.28096,0.01326
1685.22079,0.01355
1683.16062,0.01464
1681.10045,0.01561
1679.04028,0.01604
1676.98010,0.01640
1674.91993,0.01696
1672.85976,0.01743
1670.79959,0.01782
1668.73941,0.01866
1666.67924,0.01969
1664.61907,0.02039
1662.55890,0.02094
1660.49873,0.02136
1658.43855,0.02133
1656.37838,0.02084
1654.31821,0.02058
1652.25804,0.02135
1650.19787,0.02202
1648.13769,0.02195
1646.07752,0.02208
1644.01735,0.02273
1641.95718,0.02318
1639.89701,0.02310
1637.83683,0.02252
1635.77666,0.02190
1633.71649,0.02180
1631.65632,0.02189
1629.59614,0.02177
1627.53597,0.02149
1625.47580,0.02115
1623.41563,0.02096
1621.35546,0.02102
1619.29528,0.02099
1617.23511,0.02085
1615.17494,0.02092
1613.11477,0.02105
1611.05460,0.02083
1608.99442,0.02020
1606.93425,0.01949
1604.87408,0.01899
1602.81391,0.01865
1600.75373,0.01834
1598.69356,0.01792
1596.63339,0.01722
1594.57322,0.01633
1592.51305,0.01556
1590.45287,0.01505
1588.39270,0.01467
1586.33253,0.01428
1584.27236,0.01382
1582.21219,0.01324
1580.15201,0.01254
1578.09184,0.01190
1576.03167,0.01159
1573.97150,0.01139
1571.91133,0.01088
1569.85115,0.01017
1567.79098,0.00967
1565.73081,0.00935
1563.67064,0.00886
1561.61046,0.00803
1559.55029,0.00731
1557.49012,0.00737
1555.42995,0.00754
1553.36978,0.00733
1551.30960,0.00705
1549.24943,0.00699
1547.18926,0.00691
1545.12909,0.00643
1543.06892,0.00565
1541.00874,0.00515
1538.94857,0.00526
1536.88840,0.00536
1534.82823,0.00511
1532.76805,0.00484
1530.70788,0.00476
1528.64771,0.00464
1526.58754,0.00438
1524.52737,0.00412
1522.46719,0.00403
1520.40702,0.00409
1518.34685,0.00396
1516.28668,0.00368
1514.22651,0.00365
1512.16633,0.00381
1510.10616,0.00364
1508.04599,0.00297
1505.98582,0.00256
1503.92565,0.00279
1501.86547,0.00301
1499.80530,0.00296
1497.74513,0.00280
1495.68496,0.00276
1493.62478,0.00275
1491.56461,0.00270
1489.50444,0.00283
1487.44427,0.00313
1485.38410,0.00325
1483.32392,0.00316
1481.26375,0.00317
1479.20358,0.00338
1477.14341,0.00359
1475.08324,0.00364
1473.02306,0.00374
1470.96289,0.00413
1468.90272,0.00443
1466.84255,0.00442
1464.78238,0.00442
1462.72220,0.00457
1460.66203,0.00459
1458.60186,0.00464
1456.54169,0.00506
1454.48151,0.00543
1452.42134,0.00539
1450.36117,0.00512
1448.30100,0.00500
1446.24083,0.00518
1444.18065,0.00535
1442.12048,0.00523
1440.06031,0.00491
1438.00014,0.00480
1435.93997,0.00515
1433.87979,0.00558
1431.81962,0.00575
1429.75945,0.00582
1427.69928,0.00592
1425.63910,0.00600
1423.57893,0.00612
1421.51876,0.00624
1419.45859,0.00643
1417.39842,0.00685
1415.33824,0.00714
1413.27807,0.00711
1411.21790,0.00704
1409.15773,0.00703
1407.09756,0.00691
1405.03738,0.00658
1402.97721,0.00624
1400.91704,0.00607
1398.85687,0.00595
1396.79670,0.00563
1394.73652,0.00527
1392.67635,0.00513
1390.61618,0.00507
1388.55601,0.00501
1386.49583,0.00504
1384.43566,0.00512
1382.37549,0.00519
1380.31532,0.00529
1378.25515,0.00542
1376.19497,0.00557
1374.13480,0.00573
1372.07463,0.00573
1370.01446,0.00554
1367.95429,0.00526
1365.89411,0.00500
1363.83394,0.00480
1361.77377,0.00464
1359.71360,0.00452
1357.65343,0.00440
1355.59325,0.00423
1353.53308,0.00399
1351.47291,0.00380
1349.41274,0.00374
1347.35256,0.00371
1345.29239,0.00364
1343.23222,0.00364
1341.17205,0.00371
1339.11188,0.00369
1337.05170,0.00358
1334.99153,0.00347
1332.93136,0.00339
1330.87119,0.00331
1328.81102,0.00327
1326.75084,0.00327
1324.69067,0.00326
1322.63050,0.00319
1320.57033,0.00313
1318.51015,0.00312
1316.44998,0.00307
1314.38981,0.00297
1312.32964,0.00296
1310.26947,0.00310
1308.20929,0.00322
1306.14912,0.00321
1304.08895,0.00321
1302.02878,0.00322
1299.96861,0.00313
1297.90843,0.00305
1295.84826,0.00314
1293.78809,0.00330
1291.72792,0.00346
1289.66775,0.00365
1287.60757,0.00377
1285.54740,0.00380
1283.48723,0.00388
1281.42706,0.00410
1279.36688,0.00427
1277.30671,0.00429
1275.24654,0.00427
1273.18637,0.00427
1271.12620,0.00424
1269.06602,0.00430
1267.00585,0.00447
1264.94568,0.00463
1262.88551,0.00471
1260.82534,0.00463
1258.76516,0.00451
1256.70499,0.00449
1254.64482,0.00453
1252.58465,0.00448
1250.52447,0.00434
1248.46430,0.00411
1246.40413,0.00387
1244.34396,0.00379
1242.28379,0.00378
1240.22361,0.00363
1238.16344,0.00344
1236.10327,0.00334
1234.04310,0.00325
1231.98293,0.00304
1229.92275,0.00273
1227.86258,0.00243
1225.80241,0.00218
1223.74224,0.00198
1221.68207,0.00172
1219.62189,0.00143
1217.56172,0.00122
1215.50155,0.00107
1213.44138,0.00099
1211.38120,0.00092
1209.32103,0.00071
1207.26086,0.00039
1205.20069,0.00012
1203.14052,0.00005
1201.08034,0.00022
1199.02017,0.00039
1196.96000,0.00028
1194.89983,0.00014
1192.83966,0.00033
1190.77948,0.00088
1188.71931,0.00145
1186.65914,0.00182
1184.59897,0.00220
1182.53880,0.00287
1180.47862,0.00373
1178.41845,0.00459
1176.35828,0.00547
1174.29811,0.00642
1172.23793,0.00749
1170.17776,0.00864
1168.11759,0.00981
1166.05742,0.01097
1163.99725,0.01194
1161.93707,0.01268
1159.87690,0.01337
1157.81673,0.01421
1155.75656,0.01518
1153.69639,0.01615
1151.63621,0.01714
1149.57604,0.01814
1147.51587,0.01914
1145.45570,0.02018
1143.39552,0.02123
1141.33535,0.02232
1139.27518,0.02339
1137.21501,0.02444
1135.15484,0.02544
1133.09466,0.02650
1131.03449,0.02786
1128.97432,0.02948
1126.91415,0.03117
1124.85398,0.03283
1122.79380,0.03413
1120.73363,0.03507
1118.67346,0.03616
1116.61329,0.03769
1114.55312,0.03931
1112.49294,0.04076
1110.43277,0.04245
1108.37260,0.04447
1106.31243,0.04617
1104.25225,0.04750
1102.19208,0.04909
1100.13191,0.05089
1098.07174,0.05243
1096.01157,0.05372
1093.95139,0.05501
1091.89122,0.05656
1089.83105,0.05824
1087.77088,0.05959
1085.71071,0.06063
1083.65053,0.06164
1081.59036,0.06291
1079.53019,0.06439
1077.47002,0.06560
1075.40985,0.06630
1073.34967,0.06684
1071.28950,0.06743
1069.22933,0.06809
1067.16916,0.06860
1065.10898,0.06860
1063.04881,0.06835
1060.98864,0.06819
1058.92847,0.06792
1056.86830,0.06731
1054.80812,0.06639
1052.74795,0.06542
1050.68778,0.06467
1048.62761,0.06394
1046.56744,0.06294
1044.50726,0.06177
1042.44709,0.06051
1040.38692,0.05916
1038.32675,0.05772
1036.26657,0.05628
1034.20640,0.05499
1032.14623,0.05367
1030.08606,0.05208
1028.02589,0.05063
1025.96571,0.04956
1023.90554,0.04854
1021.84537,0.04749
1019.78520,0.04643
1017.72503,0.04512
1015.66485,0.04381
1013.60468,0.04298
1011.54451,0.04238
1009.48434,0.04157
1007.42417,0.04059
1005.36399,0.03976
1003.30382,0.03948
1001.24365,0.03982
999.18348,0.04042
997.12330,0.04097
995.06313,0.04158
993.00296,0.04253
990.94279,0.04369
988.88262,0.04461
986.82244,0.04500
984.76227,0.04489
982.70210,0.04463
980.64193,0.04431
978.58176,0.04375
976.52158,0.04271
974.46141,0.04110
972.40124,0.03919
970.34107,0.03727
968.28089,0.03534
966.22072,0.03333
964.16055,0.03128
962.10038,0.02952
960.04021,0.02821
957.98003,0.02707
955.91986,0.02578
953.85969,0.02433
951.79952,0.02298
949.73935,0.02187
947.67917,0.02085
945.61900,0.02010
943.55883,0.01975
941.49866,0.01945
939.43849,0.01921
937.37831,0.01916
935.31814,0.01903
933.25797,0.01889
931.19780,0.01895
929.13762,0.01898
927.07745,0.01860
925.01728,0.01802
922.95711,0.01754
920.89694,0.01703
918.83676,0.01628
916.77659,0.01542
914.71642,0.01467
912.65625,0.01409
910.59608,0.01366
908.53590,0.01341
906.47573,0.01317
904.41556,0.01276
902.35539,0.01224
900.29522,0.01196
898.23504,0.01203
896.17487,0.01226
894.11470,0.01257
892.05453,0.01284
889.99435,0.01316
887.93418,0.01372
885.87401,0.01448
883.81384,0.01515
881.75367,0.01557
879.69349,0.01592
877.63332,0.01607
875.57315,0.01614
873.51298,0.01655
871.45281,0.01700
869.39263,0.01719
867.33246,0.01717
865.27229,0.01700
863.21212,0.01698
861.15194,0.01707
859.09177,0.01708
857.03160,0.01730
854.97143,0.01746
852.91126,0.01710
850.85108,0.01637
848.79091,0.01535
846.73074,0.01455
844.67057,0.01430
842.61040,0.01411
840.55022,0.01376
838.49005,0.01329
836.42988,0.01272
834.36971,0.01199
832.30954,0.01120
830.24936,0.01061
828.18919,0.01015
826.12902,0.00949
824.06885,0.00867
822.00867,0.00828
819.94850,0.00819
817.88833,0.00793
815.82816,0.00771
813.76799,0.00758
811.70781,0.00715
809.64764,0.00643
807.58747,0.00600
805.52730,0.00584
803.46713,0.00567
801.40695,0.00550
799.34678,0.00522
797.28661,0.00477
795.22644,0.00442
793.16627,0.00441
791.10609,0.00445
789.04592,0.00411
786.98575,0.00378
784.92558,0.00415
782.86540,0.00494
780.80523,0.00555
778.74506,0.00578
776.68489,0.00550
774.62472,0.00505
772.56454,0.00461
770.50437,0.00421
768.44420,0.00405
766.38403,0.00408
764.32386,0.00401
762.26368,0.00364
760.20351,0.00347
758.14334,0.00398
756.08317,0.00420
754.02299,0.00349
751.96282,0.00270
749.90265,0.00277
747.84248,0.00342
745.78231,0.00337
743.72213,0.00249
741.66196,0.00207
739.60179,0.00251
737.54162,0.00311
735.48145,0.00330
733.42127,0.00286
731.36110,0.00230
729.30093,0.00247
727.24076,0.00296
725.18059,0.00272
723.12041,0.00202
721.06024,0.00179
719.00007,0.00233
716.93990,0.00319
714.87972,0.00391
712.81955,0.00433
710.75938,0.00435
708.69921,0.00420
706.63904,0.00387
704.57886,0.00327
702.51869,0.00333
700.45852,0.00463
698.39835,0.00584
696.33818,0.00558
694.27800,0.00434
692.21783,0.00348
690.15766,0.00350
688.09749,0.00392
686.03731,0.00394
683.97714,0.00336
681.91697,0.00312
679.85680,0.00369
677.79663,0.00419
675.73645,0.00394
673.67628,0.00321
671.61611,0.00258
669.55594,0.00246
667.49577,0.00266
665.43559,0.00262
663.37542,0.00287
661.31525,0.00387
659.25508,0.00521
657.19491,0.00634
655.13473,0.00677
653.07456,0.00586
651.01439,0.00463
648.95422,0.00468
646.89404,0.00514
644.83387,0.00426
642.77370,0.00282
640.71353,0.00295
638.65336,0.00467
636.59318,0.00634
634.53301,0.00685
632.47284,0.00569
630.41267,0.00331
628.35250,0.00104
626.29232,0.00000
624.23215,0.00064
622.17198,0.00295
620.11181,0.00449
618.05164,0.00492
615.99146,0.00495
613.93129,0.00540
611.87112,0.00481
609.81095,0.00219
607.75077,0.00081
605.69060,0.00151
603.63043,0.00216
601.57026,0.00161
599.51009,0.00000
