3996.73391,-0.00096
3994.67373,-0.00095
3992.61356,-0.00095
3990.55339,-0.00106
3988.49322,-0.00106
3986.43305,-0.00076
3984.37287,-0.00052
3982.31270,-0.00055
3980.25253,-0.00058
3978.19236,-0.00054
3976.13219,-0.00055
3974.07201,-0.00061
3972.01184,-0.00061
3969.95167,-0.00054
3967.89150,-0.00037
3965.83133,-0.00009
3963.77115,0.00009
3961.71098,0.00008
3959.65081,0.00010
3957.59064,0.00022
3955.53046,0.00022
3953.47029,0.00005
3951.41012,-0.00008
3949.34995,-0.00003
3947.28978,0.00000
3945.22960,-0.00020
3943.16943,-0.00044
3941.10926,-0.00049
3939.04909,-0.00024
3936.98892,0.00009
3934.92874,0.00022
3932.86857,0.00017
3930.80840,0.00019
3928.74823,0.00028
3926.68805,0.00023
3924.62788,0.00008
3922.56771,0.00007
3920.50754,0.00011
3918.44737,0.00000
3916.38719,0.00000
3914.32702,0.00034
3912.26685,0.00080
3910.20668,0.00092
3908.14651,0.00065
3906.08633,0.00030
3904.02616,0.00025
3901.96599,0.00051
3899.90582,0.00081
3897.84565,0.00100
3895.78547,0.00097
3893.72530,0.00074
3891.66513,0.00067
3889.60496,0.00081
3887.54478,0.00090
3885.48461,0.00082
3883.42444,0.00055
3881.36427,0.00024
3879.30410,0.00030
3877.24392,0.00060
3875.18375,0.00065
3873.12358,0.00034
3871.06341,0.00010
3869.00324,0.00037
3866.94306,0.00083
3864.88289,0.00112
3862.82272,0.00125
3860.76255,0.00129
3858.70237,0.00122
3856.64220,0.00088
3854.58203,0.00040
3852.52186,0.00038
3850.46169,0.00076
3848.40151,0.00091
3846.34134,0.00075
3844.28117,0.00046
3842.22100,0.00027
3840.16083,0.00035
3838.10065,0.00078
3836.04048,0.00132
3833.98031,0.00158
3831.92014,0.00151
3829.85997,0.00132
3827.79979,0.00118
3825.73962,0.00109
3823.67945,0.00094
3821.61928,0.00087
3819.55910,0.00107
3817.49893,0.00134
3815.43876,0.00149
3813.37859,0.00146
3811.31842,0.00123
3809.25824,0.00085
3807.19807,0.00056
3805.13790,0.00049
3803.07773,0.00044
3801.01756,0.00066
3798.95738,0.00134
3796.89721,0.00187
3794.83704,0.00186
3792.77687,0.00159
3790.71670,0.00143
3788.65652,0.00134
3786.59635,0.00116
3784.53618,0.00107
3782.47601,0.00121
3780.41583,0.00146
3778.35566,0.00174
3776.29549,0.00184
3774.23532,0.00161
3772.17515,0.00123
3770.11497,0.00107
3768.05480,0.00130
3765.99463,0.00154
3763.93446,0.00148
3761.87429,0.00134
3759.81411,0.00138
3757.75394,0.00142
3755.69377,0.00114
3753.63360,0.00054
3751.57342,0.00000
3749.51325,0.00005
3747.45308,0.00057
3745.39291,0.00127
3743.33274,0.00182
3741.27256,0.00178
3739.21239,0.00132
3737.15222,0.00074
3735.09205,0.00050
3733.03188,0.00079
3730.97170,0.00101
3728.91153,0.00094
3726.85136,0.00098
3724.79119,0.00102
3722.73102,0.00084
3720.67084,0.00084
3718.61067,0.00102
3716.55050,0.00093
3714.49033,0.00046
3712.43015,0.00003
3710.36998,0.00011
3708.30981,0.00048
3706.24964,0.00079
3704.18947,0.00091
3702.12929,0.00097
3700.06912,0.00116
3698.00895,0.00134
3695.94878,0.00130
3693.88861,0.00098
3691.82843,0.00059
3689.76826,0.00062
3687.70809,0.00124
3685.64792,0.00170
3683.58775,0.00171
3681.52757,0.00142
3679.46740,0.00117
3677.40723,0.00123
3675.34706,0.00136
3673.28688,0.00115
3671.22671,0.00085
3669.16654,0.00104
3667.10637,0.00146
3665.04620,0.00156
3662.98602,0.00151
3660.92585,0.00164
3658.86568,0.00201
3656.80551,0.00222
3654.74534,0.00177
3652.68516,0.00087
3650.62499,0.00030
3648.56482,0.00077
3646.50465,0.00179
3644.44447,0.00232
3642.38430,0.00228
3640.32413,0.00206
3638.26396,0.00202
3636.20379,0.00217
3634.14361,0.00223
3632.08344,0.00207
3630.02327,0.00202
3627.96310,0.00262
3625.90293,0.00327
3623.84275,0.00341
3621.78258,0.00331
3619.72241,0.00320
3617.66224,0.00308
3615.60207,0.00299
3613.54189,0.00302
3611.48172,0.00312
3609.42155,0.00321
3607.36138,0.00341
3605.30120,0.00373
3603.24103,0.00404
3601.18086,0.00445
3599.12069,0.00496
3597.06052,0.00516
3595.00034,0.00503
3592.94017,0.00495
3590.88000,0.00508
3588.81983,0.00530
3586.75966,0.00564
3584.69948,0.00602
3582.63931,0.00630
3580.57914,0.00645
3578.51897,0.00649
3576.45879,0.00662
3574.39862,0.00695
3572.33845,0.00734
3570.27828,0.00758
3568.21811,0.00741
3566.15793,0.00696
3564.09776,0.00682
3562.03759,0.00710
3559.97742,0.00753
3557.91725,0.00800
3555.85707,0.00842
3553.79690,0.00867
3551.73673,0.00887
3549.67656,0.00910
3547.61639,0.00923
3545.55621,0.00928
3543.49604,0.00946
3541.43587,0.00977
3539.37570,0.01005
3537.31552,0.01037
3535.25535,0.01075
3533.19518,0.01093
3531.13501,0.01088
3529.07484,0.01091
3527.01466,0.01128
3524.95449,0.01184
3522.89432,0.01228
3520.83415,0.01258
3518.77398,0.01279
3516.71380,0.01284
3514.65363,0.01273
3512.59346,0.01269
3510.53329,0.01292
3508.47312,0.01331
3506.41294,0.01360
3504.35277,0.01374
3502.29260,0.01396
3500.23243,0.01440
3498.17225,0.01485
3496.11208,0.01510
3494.05191,0.01512
3491.99174,0.01505
3489.93157,0.01504
3487.87139,0.01507
3485.81122,0.01517
3483.75105,0.01541
3481.69088,0.01578
3479.63071,0.01614
3477.57053,0.01645
3475.51036,0.01682
3473.45019,0.01715
3471.39002,0.01721
3469.32984,0.01724
3467.26967,0.01739
3465.20950,0.01756
3463.14933,0.01777
3461.08916,0.01800
3459.02898,0.01819
3456.96881,0.01838
3454.90864,0.01855
3452.84847,0.01863
3450.78830,0.01870
3448.72812,0.01885
3446.66795,0.01903
3444.60778,0.01918
3442.54761,0.01936
3440.48744,0.01959
3438.42726,0.01986
3436.36709,0.02016
3434.30692,0.02054
3432.24675,0.02097
3430.18657,0.02135
3428.12640,0.02150
3426.06623,0.02140
3424.00606,0.02134
3421.94589,0.02139
3419.88571,0.02152
3417.82554,0.02176
3415.76537,0.02201
3413.70520,0.02210
3411.64503,0.02216
3409.58485,0.02253
3407.52468,0.02311
3405.46451,0.02335
3403.40434,0.02313
3401.34416,0.02298
3399.28399,0.02305
3397.22382,0.02310
3395.16365,0.02325
3393.10348,0.02349
3391.04330,0.02369
3388.98313,0.02389
3386.92296,0.02406
3384.86279,0.02408
3382.80262,0.02421
3380.74244,0.02464
3378.68227,0.02500
3376.62210,0.02500
3374.56193,0.02489
3372.50176,0.02495
3370.44158,0.02501
3368.38141,0.02505
3366.32124,0.02528
3364.26107,0.02565
3362.20089,0.02605
3360.14072,0.02630
3358.08055,0.02619
3356.02038,0.02597
3353.96021,0.02592
3351.90003,0.02589
3349.83986,0.02581
3347.77969,0.02587
3345.71952,0.02605
3343.65935,0.02616
3341.59917,0.02627
3339.53900,0.02653
3337.47883,0.02674
3335.41866,0.02677
3333.35849,0.02670
3331.29831,0.02671
3329.23814,0.02681
3327.17797,0.02693
3325.11780,0.02707
3323.05762,0.02720
3320.99745,0.02728
3318.93728,0.02732
3316.87711,0.02738
3314.81694,0.02751
3312.75676,0.02766
3310.69659,0.02778
3308.63642,0.02781
3306.57625,0.02771
3304.51608,0.02774
3302.45590,0.02794
3300.39573,0.02798
3298.33556,0.02789
3296.27539,0.02805
3294.21521,0.02837
3292.15504,0.02846
3290.09487,0.02831
3288.03470,0.02813
3285.97453,0.02810
3283.91435,0.02814
3281.85418,0.02819
3279.79401,0.02833
3277.73384,0.02843
3275.67367,0.02838
3273.61349,0.02824
3271.55332,0.02811
3269.49315,0.02819
3267.43298,0.02843
3265.37281,0.02852
3263.31263,0.02838
3261.25246,0.02823
3259.19229,0.02828
3257.13212,0.02832
3255.07194,0.02800
3253.01177,0.02753
3250.95160,0.02742
3248.89143,0.02769
3246.83126,0.02797
3244.77108,0.02804
3242.71091,0.02800
3240.65074,0.02798
3238.59057,0.02786
3236.53040,0.02769
3234.47022,0.02761
3232.41005,0.02755
3230.34988,0.02747
3228.28971,0.02740
3226.22954,0.02734
3224.16936,0.02725
3222.10919,0.02710
3220.04902,0.02706
3217.98885,0.02705
3215.92867,0.02679
3213.86850,0.02650
3211.80833,0.02637
3209.74816,0.02631
3207.68799,0.02638
3205.62781,0.02653
3203.56764,0.02661
3201.50747,0.02658
3199.44730,0.02639
3197.38713,0.02616
3195.32695,0.02603
3193.26678,0.02583
3191.20661,0.02557
3189.14644,0.02550
3187.08626,0.02555
3185.02609,0.02555
3182.96592,0.02545
3180.90575,0.02525
3178.84558,0.02508
3176.78540,0.02497
3174.72523,0.02477
3172.66506,0.02446
3170.60489,0.02435
3168.54472,0.02444
3166.48454,0.02443
3164.42437,0.02429
3162.36420,0.02410
3160.30403,0.02393
3158.24386,0.02385
3156.18368,0.02379
3154.12351,0.02366
3152.06334,0.02344
3150.00317,0.02322
3147.94299,0.02317
3145.88282,0.02337
3143.82265,0.02347
3141.76248,0.02323
3139.70231,0.02285
3137.64213,0.02259
3135.58196,0.02257
3133.52179,0.02262
3131.46162,0.02248
3129.40145,0.02221
3127.34127,0.02203
3125.28110,0.02197
3123.22093,0.02191
3121.16076,0.02176
3119.10058,0.02166
3117.04041,0.02169
3114.98024,0.02171
3112.92007,0.02163
3110.85990,0.02158
3108.79972,0.02152
3106.73955,0.02133
3104.67938,0.02113
3102.61921,0.02096
3100.55904,0.02087
3098.49886,0.02090
3096.43869,0.02084
3094.37852,0.02066
3092.31835,0.02058
3090.25818,0.02058
3088.19800,0.02056
3086.13783,0.02047
3084.07766,0.02035
3082.01749,0.02027
3079.95731,0.02019
3077.89714,0.02013
3075.83697,0.02010
3073.77680,0.01995
3071.71663,0.01966
3069.65645,0.01939
3067.59628,0.01925
3065.53611,0.01921
3063.47594,0.01918
3061.41577,0.01912
3059.35559,0.01900
3057.29542,0.01871
3055.23525,0.01834
3053.17508,0.01824
3051.11491,0.01836
3049.05473,0.01842
3046.99456,0.01832
3044.93439,0.01815
3042.87422,0.01800
3040.81404,0.01791
3038.75387,0.01783
3036.69370,0.01776
3034.63353,0.01779
3032.57336,0.01772
3030.51318,0.01738
3028.45301,0.01709
3026.39284,0.01702
3024.33267,0.01696
3022.27250,0.01681
3020.21232,0.01676
3018.15215,0.01678
3016.09198,0.01664
3014.03181,0.01645
3011.97163,0.01648
3009.91146,0.01647
3007.85129,0.01626
3005.79112,0.01613
3003.73095,0.01609
3001.67077,0.01600
2999.61060,0.01592
2997.55043,0.01596
2995.49026,0.01598
2993.43009,0.01592
2991.36991,0.01581
2989.30974,0.01565
2987.24957,0.01556
2985.18940,0.01572
2983.12923,0.01605
2981.06905,0.01617
2979.00888,0.01616
2976.94871,0.01641
2974.88854,0.01684
2972.82836,0.01710
2970.76819,0.01732
2968.70802,0.01773
2966.64785,0.01820
2964.58768,0.01862
2962.52750,0.01913
2960.46733,0.01979
2958.40716,0.02040
2956.34699,0.02086
2954.28682,0.02127
2952.22664,0.02173
2950.16647,0.02222
2948.10630,0.02276
2946.04613,0.02344
2943.98596,0.02434
2941.92578,0.02530
2939.86561,0.02614
2937.80544,0.02709
2935.74527,0.02831
2933.68509,0.02955
2931.62492,0.03073
2929.56475,0.03197
2927.50458,0.03317
2925.44441,0.03422
2923.38423,0.03527
2921.32406,0.03641
2919.26389,0.03742
2917.20372,0.03781
2915.14355,0.03710
2913.08337,0.03543
2911.02320,0.03348
2908.96303,0.03178
2906.90286,0.03042
2904.84268,0.02933
2902.78251,0.02842
2900.72234,0.02766
2898.66217,0.02697
2896.60200,0.02632
2894.54182,0.02576
2892.48165,0.02519
2890.42148,0.02466
2888.36131,0.02416
2886.30114,0.02359
2884.24096,0.02301
2882.18079,0.02256
2880.12062,0.02222
2878.06045,0.02209
2876.00028,0.02214
2873.94010,0.02215
2871.87993,0.02213
2869.81976,0.02222
2867.75959,0.02248
2865.69941,0.02303
2863.63924,0.02375
2861.57907,0.02443
2859.51890,0.02525
2857.45873,0.02637
2855.39855,0.02768
2853.33838,0.02909
2851.27821,0.03038
2849.21804,0.03099
2847.15787,0.03017
2845.09769,0.02795
2843.03752,0.02536
2840.97735,0.02330
2838.91718,0.02187
2836.85700,0.02086
2834.79683,0.01999
2832.73666,0.01915
2830.67649,0.01847
2828.61632,0.01801
2826.55614,0.01765
2824.49597,0.01739
2822.43580,0.01710
2820.37563,0.01672
2818.31546,0.01649
2816.25528,0.01643
2814.19511,0.01630
2812.13494,0.01602
2810.07477,0.01567
2808.01460,0.01539
2805.95442,0.01535
2803.89425,0.01542
2801.83408,0.01538
2799.77391,0.01525
2797.71373,0.01512
2795.65356,0.01496
2793.59339,0.01478
2791.53322,0.01466
2789.47305,0.01464
2787.41287,0.01463
2785.35270,0.01452
2783.29253,0.01430
2781.23236,0.01413
2779.17219,0.01404
2777.11201,0.01405
2775.05184,0.01411
2772.99167,0.01403
2770.93150,0.01385
2768.87133,0.01376
2766.81115,0.01375
2764.75098,0.01380
2762.69081,0.01378
2760.63064,0.01363
2758.57046,0.01344
2756.51029,0.01323
2754.45012,0.01308
2752.38995,0.01307
2750.32978,0.01314
2748.26960,0.01321
2746.20943,0.01323
2744.14926,0.01322
2742.08909,0.01323
2740.02892,0.01327
2737.96874,0.01322
2735.90857,0.01312
2733.84840,0.01314
2731.78823,0.01317
2729.72805,0.01314
2727.66788,0.01310
2725.60771,0.01306
2723.54754,0.01304
2721.48737,0.01296
2719.42719,0.01279
2717.36702,0.01264
2715.30685,0.01251
2713.24668,0.01249
2711.18651,0.01261
2709.12633,0.01263
2707.06616,0.01253
2705.00599,0.01246
2702.94582,0.01243
2700.88565,0.01236
2698.82547,0.01232
2696.76530,0.01233
2694.70513,0.01224
2692.64496,0.01212
2690.58478,0.01213
2688.52461,0.01213
2686.46444,0.01212
2684.40427,0.01217
2682.34410,0.01216
2680.28392,0.01213
2678.22375,0.01214
2676.16358,0.01210
2674.10341,0.01203
2672.04324,0.01201
2669.98306,0.01198
2667.92289,0.01193
2665.86272,0.01194
2663.80255,0.01195
2661.74238,0.01183
2659.68220,0.01169
2657.62203,0.01166
2655.56186,0.01162
2653.50169,0.01152
2651.44151,0.01149
2649.38134,0.01144
2647.32117,0.01136
2645.26100,0.01131
2643.20083,0.01123
2641.14065,0.01112
2639.08048,0.01116
2637.02031,0.01130
2634.96014,0.01126
2632.89997,0.01093
2630.83979,0.01068
2628.77962,0.01065
2626.71945,0.01053
2624.65928,0.01043
2622.59910,0.01054
2620.53893,0.01057
2618.47876,0.01041
2616.41859,0.01028
2614.35842,0.01028
2612.29824,0.01031
2610.23807,0.01026
2608.17790,0.01019
2606.11773,0.01019
2604.05756,0.01001
2601.99738,0.00970
2599.93721,0.00968
2597.87704,0.00982
2595.81687,0.00982
2593.75670,0.00972
2591.69652,0.00948
2589.63635,0.00929
2587.57618,0.00936
2585.51601,0.00948
2583.45583,0.00948
2581.39566,0.00944
2579.33549,0.00945
2577.27532,0.00941
2575.21515,0.00924
2573.15497,0.00903
2571.09480,0.00904
2569.03463,0.00943
2566.97446,0.00971
2564.91429,0.00935
2562.85411,0.00876
2560.79394,0.00870
2558.73377,0.00907
2556.67360,0.00926
2554.61342,0.00915
2552.55325,0.00889
2550.49308,0.00860
2548.43291,0.00856
2546.37274,0.00862
2544.31256,0.00855
2542.25239,0.00862
2540.19222,0.00886
2538.13205,0.00881
2536.07188,0.00841
2534.01170,0.00812
2531.95153,0.00809
2529.89136,0.00809
2527.83119,0.00803
2525.77102,0.00798
2523.71084,0.00791
2521.65067,0.00790
2519.59050,0.00800
2517.53033,0.00798
2515.47015,0.00786
2513.40998,0.00792
2511.34981,0.00804
2509.28964,0.00801
2507.22947,0.00796
2505.16929,0.00795
2503.10912,0.00789
2501.04895,0.00784
2498.98878,0.00782
2496.92861,0.00767
2494.86843,0.00741
2492.80826,0.00730
2490.74809,0.00742
2488.68792,0.00759
2486.62775,0.00766
2484.56757,0.00766
2482.50740,0.00774
2480.44723,0.00779
2478.38706,0.00780
2476.32688,0.00788
2474.26671,0.00793
2472.20654,0.00785
2470.14637,0.00771
2468.08620,0.00753
2466.02602,0.00732
2463.96585,0.00709
2461.90568,0.00688
2459.84551,0.00681
2457.78534,0.00696
2455.72516,0.00721
2453.66499,0.00743
2451.60482,0.00754
2449.54465,0.00755
2447.48447,0.00747
2445.42430,0.00719
2443.36413,0.00688
2441.30396,0.00683
2439.24379,0.00684
2437.18361,0.00683
2435.12344,0.00694
2433.06327,0.00707
2431.00310,0.00704
2428.94293,0.00685
2426.88275,0.00663
2424.82258,0.00649
2422.76241,0.00644
2420.70224,0.00647
2418.64207,0.00652
2416.58189,0.00646
2414.52172,0.00643
2412.46155,0.00661
2410.40138,0.00673
2408.34120,0.00650
2406.28103,0.00623
2404.22086,0.00619
2402.16069,0.00627
2400.10052,0.00627
2398.04034,0.00619
2395.98017,0.00609
2393.92000,0.00598
2391.85983,0.00589
2389.79966,0.00588
2387.73948,0.00590
2385.67931,0.00598
2383.61914,0.00615
2381.55897,0.00628
2379.49880,0.00632
2377.43862,0.00628
2375.37845,0.00604
2373.31828,0.00582
2371.25811,0.00585
2369.19793,0.00583
2367.13776,0.00551
2365.07759,0.00533
2363.01742,0.00535
2360.95725,0.00529
2358.89707,0.00430
2356.83690,0.00405
2354.77673,0.00487
2352.71656,0.00555
2350.65639,0.00642
2348.59621,0.00674
2346.53604,0.00520
2344.47587,0.00456
2342.41570,0.00456
2340.35552,0.00490
2338.29535,0.00578
2336.23518,0.00638
2334.17501,0.00636
2332.11484,0.00603
2330.05466,0.00606
2327.99449,0.00630
2325.93432,0.00677
2323.87415,0.00670
2321.81398,0.00621
2319.75380,0.00586
2317.69363,0.00646
2315.63346,0.00690
2313.57329,0.00672
2311.51312,0.00658
2309.45294,0.00658
2307.39277,0.00630
2305.33260,0.00581
2303.27243,0.00555
2301.21225,0.00550
2299.15208,0.00564
2297.09191,0.00579
2295.03174,0.00579
2292.97157,0.00586
2290.91139,0.00594
2288.85122,0.00573
2286.79105,0.00537
2284.73088,0.00519
2282.67071,0.00512
2280.61053,0.00515
2278.55036,0.00545
2276.49019,0.00579
2274.43002,0.00574
2272.36984,0.00542
2270.30967,0.00531
2268.24950,0.00528
2266.18933,0.00491
2264.12916,0.00430
2262.06898,0.00402
2260.00881,0.00418
2257.94864,0.00448
2255.88847,0.00470
2253.82830,0.00496
2251.76812,0.00520
2249.70795,0.00514
2247.64778,0.00478
2245.58761,0.00437
2243.52744,0.00441
2241.46726,0.00517
2239.40709,0.00585
2237.34692,0.00535
2235.28675,0.00424
2233.22657,0.00391
2231.16640,0.00435
2229.10623,0.00441
2227.04606,0.00401
2224.98589,0.00393
2222.92571,0.00396
2220.86554,0.00389
2218.80537,0.00412
2216.74520,0.00457
2214.68503,0.00476
2212.62485,0.00465
2210.56468,0.00474
2208.50451,0.00490
2206.44434,0.00422
2204.38417,0.00361
2202.32399,0.00431
2200.26382,0.00531
2198.20365,0.00589
2196.14348,0.00610
2194.08330,0.00573
2192.02313,0.00493
2189.96296,0.00435
2187.90279,0.00435
2185.84262,0.00447
2183.78244,0.00415
2181.72227,0.00348
2179.66210,0.00291
2177.60193,0.00255
2175.54176,0.00263
2173.48158,0.00326
2171.42141,0.00370
2169.36124,0.00356
2167.30107,0.00329
2165.24089,0.00367
2163.18072,0.00401
2161.12055,0.00246
2159.06038,0.00075
2157.00021,0.00113
2154.94003,0.00163
2152.87986,0.00116
2150.81969,0.00131
2148.75952,0.00232
2146.69935,0.00287
2144.63917,0.00278
2142.57900,0.00237
2140.51883,0.00177
2138.45866,0.00135
2136.39849,0.00141
2134.33831,0.00191
2132.27814,0.00250
2130.21797,0.00300
2128.15780,0.00339
2126.09762,0.00350
2124.03745,0.00350
2121.97728,0.00373
2119.91711,0.00405
2117.85694,0.00427
2115.79676,0.00435
2113.73659,0.00395
2111.67642,0.00328
2109.61625,0.00315
2107.55608,0.00359
2105.49590,0.00412
2103.43573,0.00437
2101.37556,0.00426
2099.31539,0.00421
2097.25521,0.00441
2095.19504,0.00438
2093.13487,0.00389
2091.07470,0.00336
2089.01453,0.00307
2086.95435,0.00308
2084.89418,0.00330
2082.83401,0.00325
2080.77384,0.00288
2078.71367,0.00268
2076.65349,0.00279
2074.59332,0.00307
2072.53315,0.00335
2070.47298,0.00362
2068.41281,0.00388
2066.35263,0.00394
2064.29246,0.00355
2062.23229,0.00309
2060.17212,0.00324
2058.11194,0.00350
2056.05177,0.00313
2053.99160,0.00298
2051.93143,0.00338
2049.87126,0.00320
2047.81108,0.00236
2045.75091,0.00204
2043.69074,0.00251
2041.63057,0.00281
2039.57040,0.00224
2037.51022,0.00155
2035.45005,0.00121
2033.38988,0.00063
2031.32971,0.00000
2029.26954,-0.00001
2027.20936,0.00082
2025.14919,0.00184
2023.08902,0.00229
2021.02885,0.00265
2018.96867,0.00305
2016.90850,0.00284
2014.84833,0.00227
2012.78816,0.00184
2010.72799,0.00149
2008.66781,0.00113
2006.60764,0.00110
2004.54747,0.00134
2002.48730,0.00116
2000.42713,0.00102
1998.36695,0.00172
1996.30678,0.00248
1994.24661,0.00252
1992.18644,0.00208
1990.12626,0.00133
1988.06609,0.00092
1986.00592,0.00139
1983.94575,0.00188
1981.88558,0.00167
1979.82540,0.00106
1977.76523,0.00028
1975.70506,0.00007
1973.64489,0.00102
1971.58472,0.00189
1969.52454,0.00151
1967.46437,0.00059
1965.40420,0.00021
1963.34403,0.00012
1961.28386,-0.00000
1959.22368,0.00046
1957.16351,0.00134
1955.10334,0.00173
1953.04317,0.00153
1950.98299,0.00112
1948.92282,0.00067
1946.86265,0.00032
1944.80248,0.00035
1942.74231,0.00076
1940.68213,0.00143
1938.62196,0.00209
1936.56179,0.00216
1934.50162,0.00165
1932.44145,0.00137
1930.38127,0.00162
1928.32110,0.00181
1926.26093,0.00157
1924.20076,0.00117
1922.14059,0.00090
1920.08041,0.00090
1918.02024,0.00122
1915.96007,0.00181
1913.89990,0.00218
1911.83972,0.00197
1909.77955,0.00154
1907.71938,0.00143
1905.65921,0.00152
1903.59904,0.00168
1901.53886,0.00182
1899.47869,0.00155
1897.41852,0.00095
1895.35835,0.00077
1893.29818,0.00110
1891.23800,0.00139
1889.17783,0.00151
1887.11766,0.00155
1885.05749,0.00141
1882.99731,0.00123
1880.93714,0.00115
1878.87697,0.00112
1876.81680,0.00119
1874.75663,0.00125
1872.69645,0.00105
1870.63628,0.00070
1868.57611,0.00055
1866.51594,0.00071
1864.45577,0.00090
1862.39559,0.00087
1860.33542,0.00066
1858.27525,0.00055
1856.21508,0.00063
1854.15491,0.00066
1852.09473,0.00052
1850.03456,0.00040
1847.97439,0.00043
1845.91422,0.00042
1843.85404,0.00023
1841.79387,0.00009
1839.73370,0.00016
1837.67353,0.00035
1835.61336,0.00045
1833.55318,0.00036
1831.49301,0.00024
1829.43284,0.00020
1827.37267,0.00023
1825.31250,0.00033
1823.25232,0.00053
1821.19215,0.00057
1819.13198,0.00028
1817.07181,0.00000
1815.01163,0.00002
1812.95146,0.00019
1810.89129,0.00024
1808.83112,0.00013
1806.77095,0.00007
1804.71077,0.00011
1802.65060,0.00018
1800.59043,0.00023
1798.53026,0.00023
1796.47009,0.00021
1794.40991,0.00018
1792.34974,0.00016
1790.28957,0.00019
1788.22940,0.00025
1786.16923,0.00026
1784.10905,0.00019
1782.04888,0.00009
1779.98871,0.00000
1777.92854,-0.00009
1775.86836,-0.00018
1773.80819,-0.00026
1771.74802,-0.00014
1769.68785,0.00019
1767.62768,0.00045
1765.56750,0.00057
1763.50733,0.00065
1761.44716,0.00081
1759.38699,0.00116
1757.32682,0.00166
1755.26664,0.00223
1753.20647,0.00277
1751.14630,0.00326
1749.08613,0.00404
1747.02596,0.00545
1744.96578,0.00726
1742.90561,0.00931
1740.84544,0.01177
1738.78527,0.01443
1736.72509,0.01660
1734.66492,0.01825
1732.60475,0.01977
1730.54458,0.02093
1728.48441,0.02152
1726.42423,0.02168
1724.36406,0.02174
1722.30389,0.02189
1720.24372,0.02204
1718.18355,0.02196
1716.12337,0.02173
1714.06320,0.02163
1712.00303,0.02171
1709.94286,0.02178
1707.88268,0.02151
1705.82251,0.02091
1703.76234,0.02041
1701.70217,0.01984
1699.64200,0.01875
1697.58182,0.01783
1695.52165,0.01750
1693.46148,0.01736
1691.40131,0.01715
1689.34114,0.01686
1687.28096,0.01662
1685.22079,0.01635
1683.16062,0.01610
1681.10045,0.01618
1679.04028,0.01650
1676.98010,0.01680
1674.91993,0.01690
1672.85976,0.01691
1670.79959,0.01704
1668.73941,0.01741
1666.67924,0.01802
1664.61907,0.01868
1662.55890,0.01930
1660.49873,0.01998
1658.43855,0.02072
1656.37838,0.02143
1654.31821,0.02186
1652.25804,0.02196
1650.19787,0.02212
1648.13769,0.02229
1646.07752,0.02244
1644.01735,0.02286
1641.95718,0.02338
1639.89701,0.02373
1637.83683,0.02384
1635.77666,0.02382
1633.71649,0.02395
1631.65632,0.02430
1629.59614,0.02462
1627.53597,0.02488
1625.47580,0.02523
1623.41563,0.02562
1621.35546,0.02598
1619.29528,0.02635
1617.23511,0.02662
1615.17494,0.02690
1613.11477,0.02735
1611.05460,0.02774
1608.99442,0.02795
1606.93425,0.02806
1604.87408,0.02800
1602.81391,0.02777
1600.75373,0.02754
1598.69356,0.02716
1596.63339,0.02646
1594.57322,0.02568
1592.51305,0.02506
1590.45287,0.02444
1588.39270,0.02366
1586.33253,0.02278
1584.27236,0.02190
1582.21219,0.02114
1580.15201,0.02050
1578.09184,0.01965
1576.03167,0.01846
1573.97150,0.01753
1571.91133,0.01697
1569.85115,0.01622
1567.79098,0.01544
1565.73081,0.01508
1563.67064,0.01500
1561.61046,0.01483
1559.55029,0.01428
1557.49012,0.01377
1555.42995,0.01388
1553.36978,0.01419
1551.30960,0.01435
1549.24943,0.01444
1547.18926,0.01456
1545.12909,0.01458
1543.06892,0.01439
1541.00874,0.01397
1538.94857,0.01362
1536.88840,0.01354
1534.82823,0.01341
1532.76805,0.01313
1530.70788,0.01294
1528.64771,0.01266
1526.58754,0.01209
1524.52737,0.01142
1522.46719,0.01099
1520.40702,0.01093
1518.34685,0.01108
1516.28668,0.01116
1514.22651,0.01122
1512.16633,0.01120
1510.10616,0.01091
1508.04599,0.01012
1505.98582,0.00899
1503.92565,0.00821
1501.86547,0.00776
1499.80530,0.00715
1497.74513,0.00613
1495.68496,0.00511
1493.62478,0.00447
1491.56461,0.00378
1489.50444,0.00278
1487.44427,0.00221
1485.38410,0.00234
1483.32392,0.00260
1481.26375,0.00271
1479.20358,0.00293
1477.14341,0.00342
1475.08324,0.00432
1473.02306,0.00589
1470.96289,0.00784
1468.90272,0.00945
1466.84255,0.01068
1464.78238,0.01185
1462.72220,0.01291
1460.66203,0.01351
1458.60186,0.01374
1456.54169,0.01426
1454.48151,0.01525
1452.42134,0.01616
1450.36117,0.01675
1448.30100,0.01710
1446.24083,0.01741
1444.18065,0.01773
1442.12048,0.01789
1440.06031,0.01778
1438.00014,0.01720
1435.93997,0.01616
1433.87979,0.01530
1431.81962,0.01473
1429.75945,0.01413
1427.69928,0.01357
1425.63910,0.01317
1423.57893,0.01292
1421.51876,0.01270
1419.45859,0.01244
1417.39842,0.01247
1415.33824,0.01299
1413.27807,0.01359
1411.21790,0.01395
1409.15773,0.01403
1407.09756,0.01382
1405.03738,0.01343
1402.97721,0.01312
1400.91704,0.01289
1398.85687,0.01270
1396.79670,0.01260
1394.73652,0.01263
1392.67635,0.01280
1390.61618,0.01310
1388.55601,0.01340
1386.49583,0.01367
1384.43566,0.01407
1382.37549,0.01458
1380.31532,0.01515
1378.25515,0.01573
1376.19497,0.01615
1374.13480,0.01645
1372.07463,0.01679
1370.01446,0.01711
1367.95429,0.01727
1365.89411,0.01726
1363.83394,0.01706
1361.77377,0.01682
1359.71360,0.01685
1357.65343,0.01705
1355.59325,0.01724
1353.53308,0.01743
1351.47291,0.01766
1349.41274,0.01798
1347.35256,0.01839
1345.29239,0.01883
1343.23222,0.01924
1341.17205,0.01951
1339.11188,0.01966
1337.05170,0.01981
1334.99153,0.01994
1332.93136,0.02001
1330.87119,0.02010
1328.81102,0.02031
1326.75084,0.02066
1324.69067,0.02116
1322.63050,0.02170
1320.57033,0.02207
1318.51015,0.02218
1316.44998,0.02219
1314.38981,0.02212
1312.32964,0.02194
1310.26947,0.02169
1308.20929,0.02131
1306.14912,0.02065
1304.08895,0.01976
1302.02878,0.01887
1299.96861,0.01799
1297.90843,0.01706
1295.84826,0.01621
1293.78809,0.01548
1291.72792,0.01492
1289.66775,0.01460
1287.60757,0.01438
1285.54740,0.01410
1283.48723,0.01388
1281.42706,0.01384
1279.36688,0.01390
1277.30671,0.01406
1275.24654,0.01444
1273.18637,0.01497
1271.12620,0.01545
1269.06602,0.01586
1267.00585,0.01626
1264.94568,0.01662
1262.88551,0.01699
1260.82534,0.01744
1258.76516,0.01793
1256.70499,0.01833
1254.64482,0.01875
1252.58465,0.01928
1250.52447,0.01976
1248.46430,0.02016
1246.40413,0.02063
1244.34396,0.02111
1242.28379,0.02151
1240.22361,0.02188
1238.16344,0.02217
1236.10327,0.02237
1234.04310,0.02272
1231.98293,0.02328
1229.92275,0.02375
1227.86258,0.02388
1225.80241,0.02384
1223.74224,0.02386
1221.68207,0.02407
1219.62189,0.02440
1217.56172,0.02460
1215.50155,0.02463
1213.44138,0.02467
1211.38120,0.02485
1209.32103,0.02512
1207.26086,0.02542
1205.20069,0.02574
1203.14052,0.02604
1201.08034,0.02623
1199.02017,0.02628
1196.96000,0.02623
1194.89983,0.02603
1192.83966,0.02562
1190.77948,0.02518
1188.71931,0.02484
1186.65914,0.02445
1184.59897,0.02397
1182.53880,0.02352
1180.47862,0.02315
1178.41845,0.02293
1176.35828,0.02293
1174.29811,0.02307
1172.23793,0.02320
1170.17776,0.02324
1168.11759,0.02315
1166.05742,0.02300
1163.99725,0.02284
1161.93707,0.02257
1159.87690,0.02212
1157.81673,0.02164
1155.75656,0.02125
1153.69639,0.02075
1151.63621,0.02010
1149.57604,0.01956
1147.51587,0.01914
1145.45570,0.01862
1143.39552,0.01810
1141.33535,0.01770
1139.27518,0.01726
1137.21501,0.01687
1135.15484,0.01689
1133.09466,0.01726
1131.03449,0.01766
1128.97432,0.01795
1126.91415,0.01834
1124.85398,0.01911
1122.79380,0.02004
1120.73363,0.02085
1118.67346,0.02172
1116.61329,0.02283
1114.55312,0.02421
1112.49294,0.02571
1110.43277,0.02721
1108.37260,0.02868
1106.31243,0.03011
1104.25225,0.03146
1102.19208,0.03274
1100.13191,0.03390
1098.07174,0.03482
1096.01157,0.03548
1093.95139,0.03606
1091.89122,0.03683
1089.83105,0.03790
1087.77088,0.03910
1085.71071,0.04020
1083.65053,0.04121
1081.59036,0.04212
1079.53019,0.04290
1077.47002,0.04367
1075.40985,0.04422
1073.34967,0.04466
1071.28950,0.04531
1069.22933,0.04584
1067.16916,0.04605
1065.10898,0.04625
1063.04881,0.04658
1060.98864,0.04703
1058.92847,0.04756
1056.86830,0.04804
1054.80812,0.04858
1052.74795,0.04935
1050.68778,0.05029
1048.62761,0.05120
1046.56744,0.05202
1044.50726,0.05285
1042.44709,0.05368
1040.38692,0.05458
1038.32675,0.05560
1036.26657,0.05649
1034.20640,0.05728
1032.14623,0.05818
1030.08606,0.05898
1028.02589,0.05960
1025.96571,0.06013
1023.90554,0.06052
1021.84537,0.06081
1019.78520,0.06110
1017.72503,0.06119
1015.66485,0.06083
1013.60468,0.06013
1011.54451,0.05910
1009.48434,0.05771
1007.42417,0.05626
1005.36399,0.05494
1003.30382,0.05357
1001.24365,0.05202
999.18348,0.05045
997.12330,0.04893
995.06313,0.04748
993.00296,0.04607
990.94279,0.04466
988.88262,0.04322
986.82244,0.04168
984.76227,0.03995
982.70210,0.03808
980.64193,0.03623
978.58176,0.03454
976.52158,0.03322
974.46141,0.03217
972.40124,0.03103
970.34107,0.02976
968.28089,0.02864
966.22072,0.02783
964.16055,0.02711
962.10038,0.02607
960.04021,0.02478
957.98003,0.02357
955.91986,0.02256
953.85969,0.02170
951.79952,0.02069
949.73935,0.01933
947.67917,0.01785
945.61900,0.01652
943.55883,0.01533
941.49866,0.01430
939.43849,0.01361
937.37831,0.01328
935.31814,0.01290
933.25797,0.01223
931.19780,0.01166
929.13762,0.01126
927.07745,0.01079
925.01728,0.01038
922.95711,0.01006
920.89694,0.00956
918.83676,0.00883
916.77659,0.00797
914.71642,0.00703
912.65625,0.00623
910.59608,0.00562
908.53590,0.00519
906.47573,0.00482
904.41556,0.00426
902.35539,0.00398
900.29522,0.00418
898.23504,0.00441
896.17487,0.00448
894.11470,0.00445
892.05453,0.00437
889.99435,0.00425
887.93418,0.00413
885.87401,0.00398
883.81384,0.00380
881.75367,0.00358
879.69349,0.00335
877.63332,0.00345
875.57315,0.00399
873.51298,0.00452
871.45281,0.00474
869.39263,0.00461
867.33246,0.00428
865.27229,0.00388
863.21212,0.00342
861.15194,0.00298
859.09177,0.00239
857.03160,0.00160
854.97143,0.00103
852.91126,0.00074
850.85108,0.00034
848.79091,0.00000
846.73074,-0.00001
844.67057,0.00021
842.61040,0.00037
840.55022,0.00043
838.49005,0.00053
836.42988,0.00071
834.36971,0.00109
832.30954,0.00164
830.24936,0.00188
828.18919,0.00148
826.12902,0.00084
824.06885,0.00061
822.00867,0.00074
819.94850,0.00096
817.88833,0.00133
815.82816,0.00168
813.76799,0.00184
811.70781,0.00174
809.64764,0.00128
807.58747,0.00077
805.52730,0.00061
803.46713,0.00051
801.40695,0.00025
799.34678,0.00000
797.28661,-0.00038
795.22644,-0.00053
793.16627,-0.00054
791.10609,-0.00039
789.04592,-0.00007
786.98575,0.00019
784.92558,0.00029
782.86540,0.00049
780.80523,0.00077
778.74506,0.00062
776.68489,0.00013
774.62472,-0.00005
772.56454,0.00028
770.50437,0.00096
768.44420,0.00159
766.38403,0.00203
764.32386,0.00292
762.26368,0.00425
760.20351,0.00527
758.14334,0.00601
756.08317,0.00642
754.02299,0.00621
751.96282,0.00556
749.90265,0.00467
747.84248,0.00361
745.78231,0.00270
743.72213,0.00221
741.66196,0.00216
739.60179,0.00239
737.54162,0.00253
735.48145,0.00254
733.42127,0.00315
731.36110,0.00439
729.30093,0.00549
727.24076,0.00617
725.18059,0.00631
723.12041,0.00610
721.06024,0.00614
719.00007,0.00674
716.93990,0.00677
714.87972,0.00617
712.81955,0.00551
710.75938,0.00474
708.69921,0.00406
706.63904,0.00386
704.57886,0.00399
702.51869,0.00373
700.45852,0.00301
698.39835,0.00251
696.33818,0.00230
694.27800,0.00207
692.21783,0.00166
690.15766,0.00091
688.09749,0.00012
686.03731,-0.00011
683.97714,0.00009
681.91697,0.00012
679.85680,0.00003
677.79663,0.00021
675.73645,0.00063
673.67628,0.00138
671.61611,0.00282
669.55594,0.00280
667.49577,0.00178
665.43559,0.00380
663.37542,0.00289
661.31525,0.00189
659.25508,0.00131
657.19491,0.00052
655.13473,-0.00008
653.07456,0.00022
651.01439,0.00098
648.95422,0.00101
646.89404,0.00051
644.83387,0.00062
642.77370,0.00168
640.71353,0.00281
638.65336,0.00321
636.59318,0.00276
634.53301,0.00223
632.47284,0.00231
630.41267,0.00264
628.35250,0.00270
626.29232,0.00232
624.23215,0.00144
622.17198,0.00103
620.11181,0.00175
618.05164,0.00221
615.99146,0.00122
613.93129,0.00024
611.87112,0.00067
609.81095,0.00159
607.75077,0.00179
605.69060,0.00144
603.63043,0.00060
601.57026,-0.00042
599.51009,0.00000
