3996.73391,0.00098
3994.67373,0.00113
3992.61356,0.00116
3990.55339,0.00096
3988.49322,0.00075
3986.43305,0.00078
3984.37287,0.00081
3982.31270,0.00053
3980.25253,0.00013
3978.19236,0.00000
3976.13219,0.00025
3974.07201,0.00057
3972.01184,0.00071
3969.95167,0.00079
3967.89150,0.00094
3965.83133,0.00104
3963.77115,0.00095
3961.71098,0.00073
3959.65081,0.00066
3957.59064,0.00070
3955.53046,0.00071
3953.47029,0.00081
3951.41012,0.00103
3949.34995,0.00109
3947.28978,0.00087
3945.22960,0.00060
3943.16943,0.00043
3941.10926,0.00037
3939.04909,0.00030
3936.98892,0.00016
3934.92874,0.00006
3932.86857,0.00008
3930.80840,0.00019
3928.74823,0.00040
3926.68805,0.00080
3924.62788,0.00122
3922.56771,0.00126
3920.50754,0.00101
3918.44737,0.00089
3916.38719,0.00099
3914.32702,0.00102
3912.26685,0.00088
3910.20668,0.00068
3908.14651,0.00061
3906.08633,0.00076
3904.02616,0.00091
3901.96599,0.00076
3899.90582,0.00037
3897.84565,0.00014
3895.78547,0.00026
3893.72530,0.00055
3891.66513,0.00082
3889.60496,0.00088
3887.54478,0.00072
3885.48461,0.00059
3883.42444,0.00070
3881.36427,0.00087
3879.30410,0.00092
3877.24392,0.00095
3875.18375,0.00104
3873.12358,0.00098
3871.06341,0.00076
3869.00324,0.00067
3866.94306,0.00075
3864.88289,0.00085
3862.82272,0.00091
3860.76255,0.00092
3858.70237,0.00089
3856.64220,0.00088
3854.58203,0.00100
3852.52186,0.00119
3850.46169,0.00120
3848.40151,0.00106
3846.34134,0.00095
3844.28117,0.00087
3842.22100,0.00069
3840.16083,0.00049
3838.10065,0.00056
3836.04048,0.00084
3833.98031,0.00094
3831.92014,0.00087
3829.85997,0.00079
3827.79979,0.00072
3825.73962,0.00076
3823.67945,0.00105
3821.61928,0.00122
3819.55910,0.00088
3817.49893,0.00041
3815.43876,0.00024
3813.37859,0.00035
3811.31842,0.00050
3809.25824,0.00059
3807.19807,0.00068
3805.13790,0.00064
3803.07773,0.00038
3801.01756,0.00015
3798.95738,0.00012
3796.89721,0.00027
3794.83704,0.00053
3792.77687,0.00069
3790.71670,0.00064
3788.65652,0.00052
3786.59635,0.00046
3784.53618,0.00040
3782.47601,0.00028
3780.41583,0.00020
3778.35566,0.00028
3776.29549,0.00053
3774.23532,0.00072
3772.17515,0.00069
3770.11497,0.00054
3768.05480,0.00049
3765.99463,0.00059
3763.93446,0.00074
3761.87429,0.00091
3759.81411,0.00100
3757.75394,0.00085
3755.69377,0.00055
3753.63360,0.00028
3751.57342,0.00024
3749.51325,0.00060
3747.45308,0.00107
3745.39291,0.00107
3743.33274,0.00056
3741.27256,0.00010
3739.21239,0.00007
3737.15222,0.00050
3735.09205,0.00102
3733.03188,0.00110
3730.97170,0.00089
3728.91153,0.00073
3726.85136,0.00071
3724.79119,0.00078
3722.73102,0.00079
3720.67084,0.00060
3718.61067,0.00030
3716.55050,0.00010
3714.49033,0.00001
3712.43015,0.00004
3710.36998,0.00028
3708.30981,0.00053
3706.24964,0.00060
3704.18947,0.00057
3702.12929,0.00051
3700.06912,0.00046
3698.00895,0.00046
3695.94878,0.00056
3693.88861,0.00085
3691.82843,0.00131
3689.76826,0.00158
3687.70809,0.00143
3685.64792,0.00113
3683.58775,0.00092
3681.52757,0.00081
3679.46740,0.00082
3677.40723,0.00089
3675.34706,0.00078
3673.28688,0.00029
3671.22671,0.00000
3669.16654,0.00042
3667.10637,0.00107
3665.04620,0.00133
3662.98602,0.00138
3660.92585,0.00158
3658.86568,0.00185
3656.80551,0.00199
3654.74534,0.00205
3652.68516,0.00226
3650.62499,0.00275
3648.56482,0.00322
3646.50465,0.00323
3644.44447,0.00302
3642.38430,0.00298
3640.32413,0.00319
3638.26396,0.00357
3636.20379,0.00402
3634.14361,0.00432
3632.08344,0.00439
3630.02327,0.00445
3627.96310,0.00484
3625.90293,0.00528
3623.84275,0.00545
3621.78258,0.00549
3619.72241,0.00564
3617.66224,0.00578
3615.60207,0.00588
3613.54189,0.00625
3611.48172,0.00682
3609.42155,0.00711
3607.36138,0.00703
3605.30120,0.00707
3603.24103,0.00747
3601.18086,0.00801
3599.12069,0.00853
3597.06052,0.00894
3595.00034,0.00912
3592.94017,0.00915
3590.88000,0.00930
3588.81983,0.00961
3586.75966,0.00985
3584.69948,0.00995
3582.63931,0.01016
3580.57914,0.01056
3578.51897,0.01111
3576.45879,0.01165
3574.39862,0.01202
3572.33845,0.01228
3570.27828,0.01267
3568.21811,0.01334
3566.15793,0.01403
3564.09776,0.01430
3562.03759,0.01428
3559.97742,0.01436
3557.91725,0.01483
3555.85707,0.01552
3553.79690,0.01592
3551.73673,0.01588
3549.67656,0.01594
3547.61639,0.01651
3545.55621,0.01729
3543.49604,0.01774
3541.43587,0.01794
3539.37570,0.01837
3537.31552,0.01914
3535.25535,0.01992
3533.19518,0.02033
3531.13501,0.02042
3529.07484,0.02058
3527.01466,0.02111
3524.95449,0.02185
3522.89432,0.02242
3520.83415,0.02277
3518.77398,0.02308
3516.71380,0.02346
3514.65363,0.02388
3512.59346,0.02415
3510.53329,0.02420
3508.47312,0.02437
3506.41294,0.02492
3504.35277,0.02569
3502.29260,0.02633
3500.23243,0.02670
3498.17225,0.02699
3496.11208,0.02736
3494.05191,0.02764
3491.99174,0.02786
3489.93157,0.02840
3487.87139,0.02910
3485.81122,0.02940
3483.75105,0.02941
3481.69088,0.02965
3479.63071,0.03018
3477.57053,0.03075
3475.51036,0.03125
3473.45019,0.03160
3471.39002,0.03181
3469.32984,0.03209
3467.26967,0.03253
3465.20950,0.03303
3463.14933,0.03364
3461.08916,0.03435
3459.02898,0.03491
3456.96881,0.03523
3454.90864,0.03539
3452.84847,0.03559
3450.78830,0.03597
3448.72812,0.03646
3446.66795,0.03679
3444.60778,0.03698
3442.54761,0.03738
3440.48744,0.03800
3438.42726,0.03857
3436.36709,0.03906
3434.30692,0.03946
3432.24675,0.03965
3430.18657,0.03983
3428.12640,0.04021
3426.06623,0.04067
3424.00606,0.04095
3421.94589,0.04119
3419.88571,0.04158
3417.82554,0.04189
3415.76537,0.04205
3413.70520,0.04230
3411.64503,0.04285
3409.58485,0.04347
3407.52468,0.04384
3405.46451,0.04398
3403.40434,0.04422
3401.34416,0.04474
3399.28399,0.04507
3397.22382,0.04509
3395.16365,0.04520
3393.10348,0.04558
3391.04330,0.04602
3388.98313,0.04630
3386.92296,0.04644
3384.86279,0.04664
3382.80262,0.04694
3380.74244,0.04730
3378.68227,0.04759
3376.62210,0.04784
3374.56193,0.04809
3372.50176,0.04828
3370.44158,0.04847
3368.38141,0.04883
3366.32124,0.04917
3364.26107,0.04928
3362.20089,0.04941
3360.14072,0.04966
3358.08055,0.04997
3356.02038,0.05030
3353.96021,0.05059
3351.90003,0.05089
3349.83986,0.05112
3347.77969,0.05116
3345.71952,0.05116
3343.65935,0.05116
3341.59917,0.05118
3339.53900,0.05136
3337.47883,0.05158
3335.41866,0.05170
3333.35849,0.05190
3331.29831,0.05215
3329.23814,0.05234
3327.17797,0.05234
3325.11780,0.05208
3323.05762,0.05193
3320.99745,0.05210
3318.93728,0.05224
3316.87711,0.05226
3314.81694,0.05238
3312.75676,0.05249
3310.69659,0.05261
3308.63642,0.05283
3306.57625,0.05293
3304.51608,0.05296
3302.45590,0.05312
3300.39573,0.05334
3298.33556,0.05350
3296.27539,0.05364
3294.21521,0.05374
3292.15504,0.05378
3290.09487,0.05379
3288.03470,0.05382
3285.97453,0.05386
3283.91435,0.05392
3281.85418,0.05393
3279.79401,0.05382
3277.73384,0.05377
3275.67367,0.05382
3273.61349,0.05386
3271.55332,0.05395
3269.49315,0.05402
3267.43298,0.05388
3265.37281,0.05363
3263.31263,0.05346
3261.25246,0.05343
3259.19229,0.05335
3257.13212,0.05312
3255.07194,0.05291
3253.01177,0.05276
3250.95160,0.05249
3248.89143,0.05222
3246.83126,0.05202
3244.77108,0.05176
3242.71091,0.05151
3240.65074,0.05143
3238.59057,0.05141
3236.53040,0.05132
3234.47022,0.05125
3232.41005,0.05111
3230.34988,0.05092
3228.28971,0.05093
3226.22954,0.05105
3224.16936,0.05101
3222.10919,0.05084
3220.04902,0.05058
3217.98885,0.05033
3215.92867,0.05021
3213.86850,0.05003
3211.80833,0.04966
3209.74816,0.04928
3207.68799,0.04904
3205.62781,0.04887
3203.56764,0.04869
3201.50747,0.04857
3199.44730,0.04851
3197.38713,0.04829
3195.32695,0.04799
3193.26678,0.04786
3191.20661,0.04773
3189.14644,0.04738
3187.08626,0.04702
3185.02609,0.04680
3182.96592,0.04675
3180.90575,0.04670
3178.84558,0.04647
3176.78540,0.04610
3174.72523,0.04580
3172.66506,0.04555
3170.60489,0.04533
3168.54472,0.04529
3166.48454,0.04532
3164.42437,0.04506
3162.36420,0.04454
3160.30403,0.04414
3158.24386,0.04396
3156.18368,0.04376
3154.12351,0.04354
3152.06334,0.04334
3150.00317,0.04295
3147.94299,0.04250
3145.88282,0.04228
3143.82265,0.04209
3141.76248,0.04179
3139.70231,0.04155
3137.64213,0.04135
3135.58196,0.04109
3133.52179,0.04085
3131.46162,0.04074
3129.40145,0.04054
3127.34127,0.04011
3125.28110,0.03970
3123.22093,0.03948
3121.16076,0.03934
3119.10058,0.03924
3117.04041,0.03905
3114.98024,0.03874
3112.92007,0.03852
3110.85990,0.03839
3108.79972,0.03823
3106.73955,0.03804
3104.67938,0.03778
3102.61921,0.03755
3100.55904,0.03747
3098.49886,0.03735
3096.43869,0.03696
3094.37852,0.03643
3092.31835,0.03613
3090.25818,0.03605
3088.19800,0.03598
3086.13783,0.03592
3084.07766,0.03589
3082.01749,0.03577
3079.95731,0.03549
3077.89714,0.03512
3075.83697,0.03471
3073.77680,0.03437
3071.71663,0.03425
3069.65645,0.03430
3067.59628,0.03431
3065.53611,0.03414
3063.47594,0.03387
3061.41577,0.03361
3059.35559,0.03341
3057.29542,0.03320
3055.23525,0.03291
3053.17508,0.03253
3051.11491,0.03210
3049.05473,0.03177
3046.99456,0.03156
3044.93439,0.03127
3042.87422,0.03097
3040.81404,0.03082
3038.75387,0.03068
3036.69370,0.03052
3034.63353,0.03040
3032.57336,0.03015
3030.51318,0.02972
3028.45301,0.02931
3026.39284,0.02908
3024.33267,0.02897
3022.27250,0.02886
3020.21232,0.02876
3018.15215,0.02864
3016.09198,0.02847
3014.03181,0.02835
3011.97163,0.02829
3009.91146,0.02810
3007.85129,0.02787
3005.79112,0.02766
3003.73095,0.02740
3001.67077,0.02707
2999.61060,0.02675
2997.55043,0.02661
2995.49026,0.02667
2993.43009,0.02675
2991.36991,0.02671
2989.30974,0.02677
2987.24957,0.02699
2985.18940,0.02727
2983.12923,0.02766
2981.06905,0.02809
2979.00888,0.02844
2976.94871,0.02870
2974.88854,0.02901
2972.82836,0.02952
2970.76819,0.03015
2968.70802,0.03086
2966.64785,0.03162
2964.58768,0.03236
2962.52750,0.03324
2960.46733,0.03428
2958.40716,0.03537
2956.34699,0.03646
2954.28682,0.03745
2952.22664,0.03821
2950.16647,0.03888
2948.10630,0.03999
2946.04613,0.04168
2943.98596,0.04356
2941.92578,0.04528
2939.86561,0.04696
2937.80544,0.04893
2935.74527,0.05124
2933.68509,0.05364
2931.62492,0.05584
2929.56475,0.05783
2927.50458,0.05970
2925.44441,0.06136
2923.38423,0.06286
2921.32406,0.06418
2919.26389,0.06504
2917.20372,0.06491
2915.14355,0.06331
2913.08337,0.06049
2911.02320,0.05729
2908.96303,0.05441
2906.90286,0.05217
2904.84268,0.05049
2902.78251,0.04909
2900.72234,0.04793
2898.66217,0.04701
2896.60200,0.04612
2894.54182,0.04503
2892.48165,0.04383
2890.42148,0.04274
2888.36131,0.04184
2886.30114,0.04104
2884.24096,0.04023
2882.18079,0.03947
2880.12062,0.03890
2878.06045,0.03866
2876.00028,0.03869
2873.94010,0.03881
2871.87993,0.03896
2869.81976,0.03922
2867.75959,0.03963
2865.69941,0.04032
2863.63924,0.04141
2861.57907,0.04283
2859.51890,0.04452
2857.45873,0.04646
2855.39855,0.04854
2853.33838,0.05060
2851.27821,0.05222
2849.21804,0.05236
2847.15787,0.05002
2845.09769,0.04580
2843.03752,0.04153
2840.97735,0.03825
2838.91718,0.03591
2836.85700,0.03411
2834.79683,0.03272
2832.73666,0.03177
2830.67649,0.03091
2828.61632,0.03005
2826.55614,0.02940
2824.49597,0.02888
2822.43580,0.02839
2820.37563,0.02790
2818.31546,0.02745
2816.25528,0.02713
2814.19511,0.02684
2812.13494,0.02650
2810.07477,0.02624
2808.01460,0.02594
2805.95442,0.02547
2803.89425,0.02514
2801.83408,0.02507
2799.77391,0.02499
2797.71373,0.02476
2795.65356,0.02445
2793.59339,0.02418
2791.53322,0.02404
2789.47305,0.02391
2787.41287,0.02369
2785.35270,0.02344
2783.29253,0.02319
2781.23236,0.02303
2779.17219,0.02298
2777.11201,0.02287
2775.05184,0.02279
2772.99167,0.02283
2770.93150,0.02280
2768.87133,0.02265
2766.81115,0.02248
2764.75098,0.02233
2762.69081,0.02224
2760.63064,0.02213
2758.57046,0.02201
2756.51029,0.02192
2754.45012,0.02181
2752.38995,0.02173
2750.32978,0.02166
2748.26960,0.02155
2746.20943,0.02148
2744.14926,0.02141
2742.08909,0.02125
2740.02892,0.02114
2737.96874,0.02120
2735.90857,0.02130
2733.84840,0.02129
2731.78823,0.02118
2729.72805,0.02108
2727.66788,0.02103
2725.60771,0.02097
2723.54754,0.02084
2721.48737,0.02075
2719.42719,0.02076
2717.36702,0.02076
2715.30685,0.02067
2713.24668,0.02052
2711.18651,0.02033
2709.12633,0.02009
2707.06616,0.01997
2705.00599,0.01996
2702.94582,0.01995
2700.88565,0.01993
2698.82547,0.01983
2696.76530,0.01967
2694.70513,0.01955
2692.64496,0.01946
2690.58478,0.01944
2688.52461,0.01949
2686.46444,0.01952
2684.40427,0.01953
2682.34410,0.01945
2680.28392,0.01924
2678.22375,0.01907
2676.16358,0.01900
2674.10341,0.01893
2672.04324,0.01882
2669.98306,0.01866
2667.92289,0.01847
2665.86272,0.01836
2663.80255,0.01839
2661.74238,0.01843
2659.68220,0.01832
2657.62203,0.01813
2655.56186,0.01794
2653.50169,0.01771
2651.44151,0.01749
2649.38134,0.01743
2647.32117,0.01756
2645.26100,0.01769
2643.20083,0.01756
2641.14065,0.01732
2639.08048,0.01717
2637.02031,0.01707
2634.96014,0.01696
2632.89997,0.01688
2630.83979,0.01686
2628.77962,0.01673
2626.71945,0.01646
2624.65928,0.01623
2622.59910,0.01606
2620.53893,0.01583
2618.47876,0.01568
2616.41859,0.01573
2614.35842,0.01578
2612.29824,0.01565
2610.23807,0.01547
2608.17790,0.01538
2606.11773,0.01529
2604.05756,0.01519
2601.99738,0.01517
2599.93721,0.01511
2597.87704,0.01489
2595.81687,0.01470
2593.75670,0.01482
2591.69652,0.01503
2589.63635,0.01498
2587.57618,0.01466
2585.51601,0.01430
2583.45583,0.01413
2581.39566,0.01416
2579.33549,0.01423
2577.27532,0.01418
2575.21515,0.01408
2573.15497,0.01406
2571.09480,0.01393
2569.03463,0.01374
2566.97446,0.01357
2564.91429,0.01339
2562.85411,0.01330
2560.79394,0.01333
2558.73377,0.01339
2556.67360,0.01358
2554.61342,0.01364
2552.55325,0.01343
2550.49308,0.01338
2548.43291,0.01348
2546.37274,0.01342
2544.31256,0.01329
2542.25239,0.01323
2540.19222,0.01327
2538.13205,0.01346
2536.07188,0.01354
2534.01170,0.01337
2531.95153,0.01306
2529.89136,0.01264
2527.83119,0.01221
2525.77102,0.01193
2523.71084,0.01183
2521.65067,0.01181
2519.59050,0.01193
2517.53033,0.01214
2515.47015,0.01216
2513.40998,0.01197
2511.34981,0.01159
2509.28964,0.01110
2507.22947,0.01101
2505.16929,0.01144
2503.10912,0.01177
2501.04895,0.01169
2498.98878,0.01155
2496.92861,0.01157
2494.86843,0.01167
2492.80826,0.01177
2490.74809,0.01178
2488.68792,0.01161
2486.62775,0.01125
2484.56757,0.01091
2482.50740,0.01074
2480.44723,0.01075
2478.38706,0.01083
2476.32688,0.01089
2474.26671,0.01103
2472.20654,0.01108
2470.14637,0.01088
2468.08620,0.01068
2466.02602,0.01050
2463.96585,0.01043
2461.90568,0.01063
2459.84551,0.01085
2457.78534,0.01083
2455.72516,0.01063
2453.66499,0.01031
2451.60482,0.01011
2449.54465,0.01012
2447.48447,0.01011
2445.42430,0.01010
2443.36413,0.01020
2441.30396,0.01027
2439.24379,0.01016
2437.18361,0.00987
2435.12344,0.00965
2433.06327,0.00965
2431.00310,0.00961
2428.94293,0.00945
2426.88275,0.00935
2424.82258,0.00931
2422.76241,0.00927
2420.70224,0.00916
2418.64207,0.00900
2416.58189,0.00903
2414.52172,0.00921
2412.46155,0.00926
2410.40138,0.00908
2408.34120,0.00894
2406.28103,0.00907
2404.22086,0.00914
2402.16069,0.00910
2400.10052,0.00921
2398.04034,0.00929
2395.98017,0.00911
2393.92000,0.00889
2391.85983,0.00871
2389.79966,0.00860
2387.73948,0.00861
2385.67931,0.00866
2383.61914,0.00861
2381.55897,0.00853
2379.49880,0.00849
2377.43862,0.00841
2375.37845,0.00817
2373.31828,0.00796
2371.25811,0.00781
2369.19793,0.00749
2367.13776,0.00700
2365.07759,0.00664
2363.01742,0.00684
2360.95725,0.00779
2358.89707,0.00806
2356.83690,0.00827
2354.77673,0.00862
2352.71656,0.00873
2350.65639,0.00912
2348.59621,0.00914
2346.53604,0.00786
2344.47587,0.00771
2342.41570,0.00773
2340.35552,0.00755
2338.29535,0.00804
2336.23518,0.00885
2334.17501,0.00939
2332.11484,0.00929
2330.05466,0.00894
2327.99449,0.00892
2325.93432,0.00962
2323.87415,0.00985
2321.81398,0.00940
2319.75380,0.00856
2317.69363,0.00830
2315.63346,0.00834
2313.57329,0.00820
2311.51312,0.00786
2309.45294,0.00768
2307.39277,0.00765
2305.33260,0.00746
2303.27243,0.00733
2301.21225,0.00744
2299.15208,0.00767
2297.09191,0.00777
2295.03174,0.00777
2292.97157,0.00775
2290.91139,0.00760
2288.85122,0.00730
2286.79105,0.00715
2284.73088,0.00726
2282.67071,0.00727
2280.61053,0.00692
2278.55036,0.00648
2276.49019,0.00638
2274.43002,0.00669
2272.36984,0.00705
2270.30967,0.00702
2268.24950,0.00651
2266.18933,0.00600
2264.12916,0.00591
2262.06898,0.00605
2260.00881,0.00616
2257.94864,0.00624
2255.88847,0.00618
2253.82830,0.00578
2251.76812,0.00549
2249.70795,0.00555
2247.64778,0.00560
2245.58761,0.00573
2243.52744,0.00604
2241.46726,0.00616
2239.40709,0.00610
2237.34692,0.00614
2235.28675,0.00613
2233.22657,0.00558
2231.16640,0.00487
2229.10623,0.00462
2227.04606,0.00453
2224.98589,0.00448
2222.92571,0.00486
2220.86554,0.00529
2218.80537,0.00545
2216.74520,0.00563
2214.68503,0.00553
2212.62485,0.00490
2210.56468,0.00441
2208.50451,0.00435
2206.44434,0.00393
2204.38417,0.00334
2202.32399,0.00356
2200.26382,0.00409
2198.20365,0.00438
2196.14348,0.00489
2194.08330,0.00515
2192.02313,0.00433
2189.96296,0.00326
2187.90279,0.00282
2185.84262,0.00261
2183.78244,0.00256
2181.72227,0.00311
2179.66210,0.00364
2177.60193,0.00393
2175.54176,0.00489
2173.48158,0.00567
2171.42141,0.00558
2169.36124,0.00561
2167.30107,0.00551
2165.24089,0.00493
2163.18072,0.00467
2161.12055,0.00423
2159.06038,0.00321
2157.00021,0.00218
2154.94003,0.00122
2152.87986,0.00072
2150.81969,0.00100
2148.75952,0.00203
2146.69935,0.00310
2144.63917,0.00339
2142.57900,0.00271
2140.51883,0.00197
2138.45866,0.00180
2136.39849,0.00180
2134.33831,0.00190
2132.27814,0.00261
2130.21797,0.00388
2128.15780,0.00482
2126.09762,0.00502
2124.03745,0.00469
2121.97728,0.00427
2119.91711,0.00445
2117.85694,0.00503
2115.79676,0.00529
2113.73659,0.00511
2111.67642,0.00437
2109.61625,0.00362
2107.55608,0.00369
2105.49590,0.00401
2103.43573,0.00406
2101.37556,0.00416
2099.31539,0.00422
2097.25521,0.00386
2095.19504,0.00362
2093.13487,0.00389
2091.07470,0.00420
2089.01453,0.00431
2086.95435,0.00432
2084.89418,0.00455
2082.83401,0.00492
2080.77384,0.00476
2078.71367,0.00387
2076.65349,0.00291
2074.59332,0.00255
2072.53315,0.00275
2070.47298,0.00337
2068.41281,0.00422
2066.35263,0.00482
2064.29246,0.00467
2062.23229,0.00383
2060.17212,0.00333
2058.11194,0.00360
2056.05177,0.00411
2053.99160,0.00452
2051.93143,0.00433
2049.87126,0.00316
2047.81108,0.00195
2045.75091,0.00178
2043.69074,0.00236
2041.63057,0.00246
2039.57040,0.00176
2037.51022,0.00153
2035.45005,0.00211
2033.38988,0.00255
2031.32971,0.00215
2029.26954,0.00095
2027.20936,0.00012
2025.14919,0.00039
2023.08902,0.00102
2021.02885,0.00137
2018.96867,0.00151
2016.90850,0.00156
2014.84833,0.00137
2012.78816,0.00127
2010.72799,0.00172
2008.66781,0.00189
2006.60764,0.00119
2004.54747,0.00081
2002.48730,0.00126
2000.42713,0.00156
1998.36695,0.00106
1996.30678,0.00038
1994.24661,0.00054
1992.18644,0.00139
1990.12626,0.00181
1988.06609,0.00136
1986.00592,0.00092
1983.94575,0.00137
1981.88558,0.00249
1979.82540,0.00308
1977.76523,0.00223
1975.70506,0.00124
1973.64489,0.00151
1971.58472,0.00175
1969.52454,0.00082
1967.46437,0.00000
1965.40420,0.00048
1963.34403,0.00132
1961.28386,0.00115
1959.22368,0.00047
1957.16351,0.00071
1955.10334,0.00165
1953.04317,0.00185
1950.98299,0.00118
1948.92282,0.00085
1946.86265,0.00135
1944.80248,0.00176
1942.74231,0.00148
1940.68213,0.00120
1938.62196,0.00142
1936.56179,0.00180
1934.50162,0.00215
1932.44145,0.00235
1930.38127,0.00213
1928.32110,0.00178
1926.26093,0.00170
1924.20076,0.00182
1922.14059,0.00200
1920.08041,0.00204
1918.02024,0.00170
1915.96007,0.00122
1913.89990,0.00108
1911.83972,0.00112
1909.77955,0.00100
1907.71938,0.00093
1905.65921,0.00112
1903.59904,0.00122
1901.53886,0.00111
1899.47869,0.00119
1897.41852,0.00148
1895.35835,0.00163
1893.29818,0.00149
1891.23800,0.00137
1889.17783,0.00148
1887.11766,0.00158
1885.05749,0.00149
1882.99731,0.00138
1880.93714,0.00132
1878.87697,0.00120
1876.81680,0.00110
1874.75663,0.00105
1872.69645,0.00095
1870.63628,0.00090
1868.57611,0.00100
1866.51594,0.00104
1864.45577,0.00095
1862.39559,0.00085
1860.33542,0.00075
1858.27525,0.00055
1856.21508,0.00034
1854.15491,0.00034
1852.09473,0.00058
1850.03456,0.00090
1847.97439,0.00111
1845.91422,0.00110
1843.85404,0.00091
1841.79387,0.00068
1839.73370,0.00048
1837.67353,0.00032
1835.61336,0.00028
1833.55318,0.00031
1831.49301,0.00025
1829.43284,0.00007
1827.37267,0.00000
1825.31250,0.00007
1823.25232,0.00013
1821.19215,0.00013
1819.13198,0.00004
1817.07181,0.00000
1815.01163,0.00014
1812.95146,0.00022
1810.89129,0.00009
1808.83112,-0.00011
1806.77095,-0.00019
1804.71077,-0.00013
1802.65060,-0.00003
1800.59043,0.00010
1798.53026,0.00024
1796.47009,0.00028
1794.40991,0.00021
1792.34974,0.00009
1790.28957,-0.00009
1788.22940,-0.00024
1786.16923,-0.00023
1784.10905,-0.00012
1782.04888,0.00000
1779.98871,-0.00004
1777.92854,-0.00008
1775.86836,-0.00001
1773.80819,0.00023
1771.74802,0.00058
1769.68785,0.00086
1767.62768,0.00104
1765.56750,0.00131
1763.50733,0.00189
1761.44716,0.00271
1759.38699,0.00354
1757.32682,0.00438
1755.26664,0.00540
1753.20647,0.00669
1751.14630,0.00848
1749.08613,0.01066
1747.02596,0.01292
1744.96578,0.01541
1742.90561,0.01848
1740.84544,0.02231
1738.78527,0.02650
1736.72509,0.03028
1734.66492,0.03352
1732.60475,0.03595
1730.54458,0.03703
1728.48441,0.03707
1726.42423,0.03657
1724.36406,0.03594
1722.30389,0.03554
1720.24372,0.03531
1718.18355,0.03475
1716.12337,0.03379
1714.06320,0.03308
1712.00303,0.03277
1709.94286,0.03265
1707.88268,0.03238
1705.82251,0.03166
1703.76234,0.03084
1701.70217,0.03028
1699.64200,0.02958
1697.58182,0.02865
1695.52165,0.02782
1693.46148,0.02742
1691.40131,0.02740
1689.34114,0.02744
1687.28096,0.02749
1685.22079,0.02751
1683.16062,0.02740
1681.10045,0.02738
1679.04028,0.02756
1676.98010,0.02777
1674.91993,0.02805
1672.85976,0.02862
1670.79959,0.02943
1668.73941,0.03034
1666.67924,0.03137
1664.61907,0.03264
1662.55890,0.03404
1660.49873,0.03530
1658.43855,0.03638
1656.37838,0.03747
1654.31821,0.03849
1652.25804,0.03924
1650.19787,0.03991
1648.13769,0.04051
1646.07752,0.04071
1644.01735,0.04068
1641.95718,0.04084
1639.89701,0.04129
1637.83683,0.04185
1635.77666,0.04223
1633.71649,0.04250
1631.65632,0.04299
1629.59614,0.04361
1627.53597,0.04419
1625.47580,0.04464
1623.41563,0.04490
1621.35546,0.04505
1619.29528,0.04531
1617.23511,0.04568
1615.17494,0.04619
1613.11477,0.04689
1611.05460,0.04763
1608.99442,0.04821
1606.93425,0.04846
1604.87408,0.04839
1602.81391,0.04814
1600.75373,0.04764
1598.69356,0.04678
1596.63339,0.04561
1594.57322,0.04419
1592.51305,0.04261
1590.45287,0.04092
1588.39270,0.03919
1586.33253,0.03748
1584.27236,0.03583
1582.21219,0.03434
1580.15201,0.03308
1578.09184,0.03177
1576.03167,0.03008
1573.97150,0.02852
1571.91133,0.02745
1569.85115,0.02628
1567.79098,0.02504
1565.73081,0.02434
1563.67064,0.02412
1561.61046,0.02408
1559.55029,0.02383
1557.49012,0.02328
1555.42995,0.02303
1553.36978,0.02303
1551.30960,0.02311
1549.24943,0.02326
1547.18926,0.02349
1545.12909,0.02386
1543.06892,0.02428
1541.00874,0.02441
1538.94857,0.02405
1536.88840,0.02371
1534.82823,0.02334
1532.76805,0.02256
1530.70788,0.02168
1528.64771,0.02103
1526.58754,0.02038
1524.52737,0.01971
1522.46719,0.01932
1520.40702,0.01943
1518.34685,0.01985
1516.28668,0.02018
1514.22651,0.02020
1512.16633,0.02002
1510.10616,0.01968
1508.04599,0.01858
1505.98582,0.01630
1503.92565,0.01448
1501.86547,0.01363
1499.80530,0.01286
1497.74513,0.01153
1495.68496,0.00989
1493.62478,0.00859
1491.56461,0.00756
1489.50444,0.00645
1487.44427,0.00557
1485.38410,0.00511
1483.32392,0.00492
1481.26375,0.00492
1479.20358,0.00533
1477.14341,0.00635
1475.08324,0.00814
1473.02306,0.01070
1470.96289,0.01353
1468.90272,0.01609
1466.84255,0.01851
1464.78238,0.02076
1462.72220,0.02239
1460.66203,0.02344
1458.60186,0.02448
1456.54169,0.02580
1454.48151,0.02705
1452.42134,0.02810
1450.36117,0.02908
1448.30100,0.03002
1446.24083,0.03083
1444.18065,0.03138
1442.12048,0.03155
1440.06031,0.03137
1438.00014,0.03076
1435.93997,0.02962
1433.87979,0.02833
1431.81962,0.02718
1429.75945,0.02602
1427.69928,0.02503
1425.63910,0.02443
1423.57893,0.02413
1421.51876,0.02398
1419.45859,0.02381
1417.39842,0.02354
1415.33824,0.02320
1413.27807,0.02279
1411.21790,0.02232
1409.15773,0.02192
1407.09756,0.02162
1405.03738,0.02142
1402.97721,0.02136
1400.91704,0.02147
1398.85687,0.02165
1396.79670,0.02182
1394.73652,0.02191
1392.67635,0.02202
1390.61618,0.02237
1388.55601,0.02299
1386.49583,0.02377
1384.43566,0.02464
1382.37549,0.02562
1380.31532,0.02661
1378.25515,0.02757
1376.19497,0.02851
1374.13480,0.02932
1372.07463,0.02991
1370.01446,0.03034
1367.95429,0.03061
1365.89411,0.03082
1363.83394,0.03102
1361.77377,0.03105
1359.71360,0.03094
1357.65343,0.03088
1355.59325,0.03094
1353.53308,0.03106
1351.47291,0.03126
1349.41274,0.03153
1347.35256,0.03188
1345.29239,0.03231
1343.23222,0.03276
1341.17205,0.03317
1339.11188,0.03351
1337.05170,0.03387
1334.99153,0.03435
1332.93136,0.03501
1330.87119,0.03578
1328.81102,0.03651
1326.75084,0.03719
1324.69067,0.03794
1322.63050,0.03883
1320.57033,0.03971
1318.51015,0.04030
1316.44998,0.04052
1314.38981,0.04044
1312.32964,0.04001
1310.26947,0.03920
1308.20929,0.03810
1306.14912,0.03681
1304.08895,0.03539
1302.02878,0.03376
1299.96861,0.03186
1297.90843,0.02984
1295.84826,0.02801
1293.78809,0.02662
1291.72792,0.02562
1289.66775,0.02475
1287.60757,0.02398
1285.54740,0.02345
1283.48723,0.02316
1281.42706,0.02313
1279.36688,0.02333
1277.30671,0.02356
1275.24654,0.02375
1273.18637,0.02405
1271.12620,0.02457
1269.06602,0.02517
1267.00585,0.02572
1264.94568,0.02622
1262.88551,0.02667
1260.82534,0.02714
1258.76516,0.02775
1256.70499,0.02848
1254.64482,0.02923
1252.58465,0.02987
1250.52447,0.03038
1248.46430,0.03089
1246.40413,0.03146
1244.34396,0.03207
1242.28379,0.03279
1240.22361,0.03366
1238.16344,0.03441
1236.10327,0.03491
1234.04310,0.03545
1231.98293,0.03611
1229.92275,0.03672
1227.86258,0.03730
1225.80241,0.03795
1223.74224,0.03866
1221.68207,0.03940
1219.62189,0.04010
1217.56172,0.04064
1215.50155,0.04093
1213.44138,0.04113
1211.38120,0.04154
1209.32103,0.04219
1207.26086,0.04291
1205.20069,0.04362
1203.14052,0.04428
1201.08034,0.04478
1199.02017,0.04509
1196.96000,0.04529
1194.89983,0.04530
1192.83966,0.04505
1190.77948,0.04467
1188.71931,0.04429
1186.65914,0.04388
1184.59897,0.04346
1182.53880,0.04317
1180.47862,0.04307
1178.41845,0.04303
1176.35828,0.04311
1174.29811,0.04351
1172.23793,0.04412
1170.17776,0.04467
1168.11759,0.04513
1166.05742,0.04558
1163.99725,0.04585
1161.93707,0.04554
1159.87690,0.04461
1157.81673,0.04349
1155.75656,0.04244
1153.69639,0.04146
1151.63621,0.04041
1149.57604,0.03935
1147.51587,0.03828
1145.45570,0.03708
1143.39552,0.03579
1141.33535,0.03460
1139.27518,0.03352
1137.21501,0.03244
1135.15484,0.03150
1133.09466,0.03091
1131.03449,0.03092
1128.97432,0.03148
1126.91415,0.03241
1124.85398,0.03362
1122.79380,0.03509
1120.73363,0.03684
1118.67346,0.03893
1116.61329,0.04128
1114.55312,0.04377
1112.49294,0.04639
1110.43277,0.04915
1108.37260,0.05196
1106.31243,0.05454
1104.25225,0.05669
1102.19208,0.05842
1100.13191,0.05973
1098.07174,0.06081
1096.01157,0.06197
1093.95139,0.06332
1091.89122,0.06470
1089.83105,0.06616
1087.77088,0.06784
1085.71071,0.06974
1083.65053,0.07176
1081.59036,0.07379
1079.53019,0.07579
1077.47002,0.07768
1075.40985,0.07943
1073.34967,0.08101
1071.28950,0.08240
1069.22933,0.08364
1067.16916,0.08481
1065.10898,0.08584
1063.04881,0.08689
1060.98864,0.08821
1058.92847,0.08956
1056.86830,0.09070
1054.80812,0.09190
1052.74795,0.09332
1050.68778,0.09479
1048.62761,0.09613
1046.56744,0.09747
1044.50726,0.09889
1042.44709,0.10026
1040.38692,0.10175
1038.32675,0.10358
1036.26657,0.10567
1034.20640,0.10779
1032.14623,0.10965
1030.08606,0.11113
1028.02589,0.11237
1025.96571,0.11332
1023.90554,0.11385
1021.84537,0.11405
1019.78520,0.11398
1017.72503,0.11357
1015.66485,0.11289
1013.60468,0.11187
1011.54451,0.11047
1009.48434,0.10868
1007.42417,0.10647
1005.36399,0.10402
1003.30382,0.10143
1001.24365,0.09860
999.18348,0.09568
997.12330,0.09305
995.06313,0.09086
993.00296,0.08873
990.94279,0.08626
988.88262,0.08337
986.82244,0.08025
984.76227,0.07703
982.70210,0.07374
980.64193,0.07048
978.58176,0.06741
976.52158,0.06453
974.46141,0.06178
972.40124,0.05922
970.34107,0.05702
968.28089,0.05505
966.22072,0.05312
964.16055,0.05119
962.10038,0.04916
960.04021,0.04716
957.98003,0.04524
955.91986,0.04311
953.85969,0.04074
951.79952,0.03844
949.73935,0.03631
947.67917,0.03421
945.61900,0.03185
943.55883,0.02938
941.49866,0.02738
939.43849,0.02609
937.37831,0.02527
935.31814,0.02461
933.25797,0.02392
931.19780,0.02311
929.13762,0.02225
927.07745,0.02135
925.01728,0.02048
922.95711,0.01963
920.89694,0.01867
918.83676,0.01775
916.77659,0.01679
914.71642,0.01553
912.65625,0.01406
910.59608,0.01267
908.53590,0.01140
906.47573,0.01026
904.41556,0.00947
902.35539,0.00905
900.29522,0.00876
898.23504,0.00865
896.17487,0.00886
894.11470,0.00908
892.05453,0.00902
889.99435,0.00881
887.93418,0.00848
885.87401,0.00796
883.81384,0.00753
881.75367,0.00734
879.69349,0.00740
877.63332,0.00765
875.57315,0.00783
873.51298,0.00784
871.45281,0.00788
869.39263,0.00782
867.33246,0.00731
865.27229,0.00643
863.21212,0.00543
861.15194,0.00426
859.09177,0.00294
857.03160,0.00184
854.97143,0.00102
852.91126,0.00033
850.85108,0.00000
848.79091,-0.00012
846.73074,-0.00015
844.67057,-0.00005
842.61040,0.00009
840.55022,0.00037
838.49005,0.00077
836.42988,0.00116
834.36971,0.00161
832.30954,0.00195
830.24936,0.00214
828.18919,0.00240
826.12902,0.00253
824.06885,0.00238
822.00867,0.00221
819.94850,0.00243
817.88833,0.00304
815.82816,0.00325
813.76799,0.00291
811.70781,0.00269
809.64764,0.00257
807.58747,0.00222
805.52730,0.00169
803.46713,0.00132
801.40695,0.00106
799.34678,0.00056
797.28661,0.00000
795.22644,-0.00052
793.16627,-0.00058
791.10609,-0.00054
789.04592,-0.00029
786.98575,0.00012
784.92558,0.00024
782.86540,0.00004
780.80523,-0.00009
778.74506,-0.00000
776.68489,0.00031
774.62472,0.00071
772.56454,0.00118
770.50437,0.00200
768.44420,0.00330
766.38403,0.00474
764.32386,0.00620
762.26368,0.00797
760.20351,0.00997
758.14334,0.01143
756.08317,0.01190
754.02299,0.01146
751.96282,0.01027
749.90265,0.00864
747.84248,0.00697
745.78231,0.00547
743.72213,0.00448
741.66196,0.00416
739.60179,0.00393
737.54162,0.00344
735.48145,0.00300
733.42127,0.00281
731.36110,0.00280
729.30093,0.00294
727.24076,0.00318
725.18059,0.00303
723.12041,0.00275
721.06024,0.00287
719.00007,0.00349
716.93990,0.00349
714.87972,0.00239
712.81955,0.00102
710.75938,0.00061
708.69921,0.00130
706.63904,0.00204
704.57886,0.00198
702.51869,0.00103
700.45852,0.00000
698.39835,-0.00010
696.33818,0.00027
694.27800,-0.00006
692.21783,-0.00083
690.15766,-0.00118
688.09749,-0.00112
686.03731,-0.00089
683.97714,-0.00068
681.91697,-0.00067
679.85680,-0.00097
677.79663,-0.00156
675.73645,-0.00181
673.67628,-0.00084
671.61611,0.00077
669.55594,-0.00018
667.49577,-0.00200
665.43559,0.00052
663.37542,0.00045
661.31525,-0.00021
659.25508,-0.00076
657.19491,-0.00166
655.13473,-0.00288
653.07456,-0.00336
651.01439,-0.00212
648.95422,0.00000
646.89404,0.00102
644.83387,0.00050
642.77370,-0.00031
640.71353,-0.00060
638.65336,-0.00069
636.59318,-0.00119
634.53301,-0.00180
632.47284,-0.00183
630.41267,-0.00177
628.35250,-0.00252
626.29232,-0.00379
624.23215,-0.00449
622.17198,-0.00453
620.11181,-0.00411
618.05164,-0.00235
615.99146,0.00021
613.93129,0.00155
611.87112,0.00215
609.81095,0.00257
607.75077,0.00268
605.69060,0.00220
603.63043,0.00126
601.57026,0.00060
599.51009,0.00000
