3996.73391,0.00038
3994.67373,0.00007
3992.61356,-0.00001
3990.55339,0.00023
3988.49322,0.00033
3986.43305,0.00013
3984.37287,-0.00001
3982.31270,0.00013
3980.25253,0.00025
3978.19236,0.00023
3976.13219,0.00027
3974.07201,0.00036
3972.01184,0.00026
3969.95167,0.00009
3967.89150,-0.00001
3965.83133,0.00000
3963.77115,0.00006
3961.71098,0.00015
3959.65081,0.00024
3957.59064,0.00028
3955.53046,0.00020
3953.47029,0.00008
3951.41012,0.00012
3949.34995,0.00024
3947.28978,0.00024
3945.22960,0.00022
3943.16943,0.00028
3941.10926,0.00027
3939.04909,0.00019
3936.98892,0.00020
3934.92874,0.00031
3932.86857,0.00040
3930.80840,0.00033
3928.74823,0.00016
3926.68805,0.00011
3924.62788,0.00034
3922.56771,0.00073
3920.50754,0.00090
3918.44737,0.00077
3916.38719,0.00055
3914.32702,0.00040
3912.26685,0.00037
3910.20668,0.00034
3908.14651,0.00021
3906.08633,0.00021
3904.02616,0.00051
3901.96599,0.00077
3899.90582,0.00081
3897.84565,0.00083
3895.78547,0.00080
3893.72530,0.00058
3891.66513,0.00029
3889.60496,0.00015
3887.54478,0.00021
3885.48461,0.00037
3883.42444,0.00048
3881.36427,0.00045
3879.30410,0.00047
3877.24392,0.00061
3875.18375,0.00069
3873.12358,0.00065
3871.06341,0.00065
3869.00324,0.00079
3866.94306,0.00084
3864.88289,0.00077
3862.82272,0.00060
3860.76255,0.00038
3858.70237,0.00044
3856.64220,0.00090
3854.58203,0.00125
3852.52186,0.00109
3850.46169,0.00088
3848.40151,0.00082
3846.34134,0.00064
3844.28117,0.00030
3842.22100,0.00002
3840.16083,0.00001
3838.10065,0.00027
3836.04048,0.00058
3833.98031,0.00078
3831.92014,0.00099
3829.85997,0.00121
3827.79979,0.00131
3825.73962,0.00131
3823.67945,0.00131
3821.61928,0.00137
3819.55910,0.00132
3817.49893,0.00114
3815.43876,0.00099
3813.37859,0.00088
3811.31842,0.00077
3809.25824,0.00072
3807.19807,0.00074
3805.13790,0.00076
3803.07773,0.00077
3801.01756,0.00079
3798.95738,0.00062
3796.89721,0.00028
3794.83704,0.00009
3792.77687,0.00015
3790.71670,0.00027
3788.65652,0.00033
3786.59635,0.00024
3784.53618,0.00009
3782.47601,0.00003
3780.41583,0.00014
3778.35566,0.00043
3776.29549,0.00077
3774.23532,0.00076
3772.17515,0.00036
3770.11497,0.00007
3768.05480,0.00030
3765.99463,0.00077
3763.93446,0.00114
3761.87429,0.00126
3759.81411,0.00100
3757.75394,0.00067
3755.69377,0.00069
3753.63360,0.00091
3751.57342,0.00094
3749.51325,0.00078
3747.45308,0.00086
3745.39291,0.00133
3743.33274,0.00161
3741.27256,0.00116
3739.21239,0.00042
3737.15222,0.00000
3735.09205,0.00024
3733.03188,0.00064
3730.97170,0.00052
3728.91153,0.00020
3726.85136,0.00009
3724.79119,0.00008
3722.73102,0.00013
3720.67084,0.00043
3718.61067,0.00080
3716.55050,0.00093
3714.49033,0.00080
3712.43015,0.00053
3710.36998,0.00027
3708.30981,0.00014
3706.24964,0.00032
3704.18947,0.00064
3702.12929,0.00086
3700.06912,0.00098
3698.00895,0.00097
3695.94878,0.00075
3693.88861,0.00041
3691.82843,0.00030
3689.76826,0.00056
3687.70809,0.00083
3685.64792,0.00065
3683.58775,0.00027
3681.52757,0.00002
3679.46740,0.00005
3677.40723,0.00022
3675.34706,0.00027
3673.28688,0.00017
3671.22671,0.00039
3669.16654,0.00112
3667.10637,0.00160
3665.04620,0.00153
3662.98602,0.00137
3660.92585,0.00131
3658.86568,0.00123
3656.80551,0.00117
3654.74534,0.00131
3652.68516,0.00159
3650.62499,0.00172
3648.56482,0.00177
3646.50465,0.00211
3644.44447,0.00239
3642.38430,0.00250
3640.32413,0.00276
3638.26396,0.00319
3636.20379,0.00348
3634.14361,0.00355
3632.08344,0.00367
3630.02327,0.00407
3627.96310,0.00447
3625.90293,0.00450
3623.84275,0.00454
3621.78258,0.00480
3619.72241,0.00517
3617.66224,0.00564
3615.60207,0.00611
3613.54189,0.00639
3611.48172,0.00654
3609.42155,0.00669
3607.36138,0.00682
3605.30120,0.00697
3603.24103,0.00729
3601.18086,0.00773
3599.12069,0.00816
3597.06052,0.00844
3595.00034,0.00860
3592.94017,0.00879
3590.88000,0.00913
3588.81983,0.00955
3586.75966,0.01002
3584.69948,0.01029
3582.63931,0.01035
3580.57914,0.01061
3578.51897,0.01113
3576.45879,0.01156
3574.39862,0.01184
3572.33845,0.01212
3570.27828,0.01237
3568.21811,0.01267
3566.15793,0.01314
3564.09776,0.01354
3562.03759,0.01378
3559.97742,0.01401
3557.91725,0.01440
3555.85707,0.01501
3553.79690,0.01572
3551.73673,0.01633
3549.67656,0.01680
3547.61639,0.01715
3545.55621,0.01745
3543.49604,0.01783
3541.43587,0.01835
3539.37570,0.01893
3537.31552,0.01927
3535.25535,0.01934
3533.19518,0.01949
3531.13501,0.01992
3529.07484,0.02050
3527.01466,0.02103
3524.95449,0.02134
3522.89432,0.02150
3520.83415,0.02171
3518.77398,0.02199
3516.71380,0.02233
3514.65363,0.02289
3512.59346,0.02364
3510.53329,0.02423
3508.47312,0.02458
3506.41294,0.02489
3504.35277,0.02521
3502.29260,0.02562
3500.23243,0.02614
3498.17225,0.02655
3496.11208,0.02677
3494.05191,0.02698
3491.99174,0.02735
3489.93157,0.02770
3487.87139,0.02795
3485.81122,0.02828
3483.75105,0.02879
3481.69088,0.02943
3479.63071,0.03007
3477.57053,0.03060
3475.51036,0.03098
3473.45019,0.03124
3471.39002,0.03159
3469.32984,0.03212
3467.26967,0.03269
3465.20950,0.03299
3463.14933,0.03298
3461.08916,0.03317
3459.02898,0.03353
3456.96881,0.03381
3454.90864,0.03413
3452.84847,0.03443
3450.78830,0.03467
3448.72812,0.03504
3446.66795,0.03557
3444.60778,0.03609
3442.54761,0.03654
3440.48744,0.03693
3438.42726,0.03715
3436.36709,0.03736
3434.30692,0.03761
3432.24675,0.03779
3430.18657,0.03815
3428.12640,0.03878
3426.06623,0.03930
3424.00606,0.03965
3421.94589,0.04008
3419.88571,0.04059
3417.82554,0.04091
3415.76537,0.04107
3413.70520,0.04134
3411.64503,0.04169
3409.58485,0.04195
3407.52468,0.04215
3405.46451,0.04243
3403.40434,0.04295
3401.34416,0.04354
3399.28399,0.04386
3397.22382,0.04389
3395.16365,0.04403
3393.10348,0.04445
3391.04330,0.04490
3388.98313,0.04507
3386.92296,0.04511
3384.86279,0.04506
3382.80262,0.04490
3380.74244,0.04499
3378.68227,0.04549
3376.62210,0.04605
3374.56193,0.04638
3372.50176,0.04658
3370.44158,0.04685
3368.38141,0.04711
3366.32124,0.04728
3364.26107,0.04746
3362.20089,0.04770
3360.14072,0.04791
3358.08055,0.04796
3356.02038,0.04794
3353.96021,0.04800
3351.90003,0.04816
3349.83986,0.04838
3347.77969,0.04864
3345.71952,0.04885
3343.65935,0.04897
3341.59917,0.04912
3339.53900,0.04932
3337.47883,0.04937
3335.41866,0.04921
3333.35849,0.04921
3331.29831,0.04948
3329.23814,0.04969
3327.17797,0.04981
3325.11780,0.05004
3323.05762,0.05027
3320.99745,0.05034
3318.93728,0.05039
3316.87711,0.05049
3314.81694,0.05061
3312.75676,0.05079
3310.69659,0.05088
3308.63642,0.05073
3306.57625,0.05058
3304.51608,0.05067
3302.45590,0.05095
3300.39573,0.05127
3298.33556,0.05144
3296.27539,0.05138
3294.21521,0.05129
3292.15504,0.05126
3290.09487,0.05128
3288.03470,0.05144
3285.97453,0.05165
3283.91435,0.05168
3281.85418,0.05156
3279.79401,0.05148
3277.73384,0.05142
3275.67367,0.05132
3273.61349,0.05123
3271.55332,0.05120
3269.49315,0.05107
3267.43298,0.05086
3265.37281,0.05075
3263.31263,0.05075
3261.25246,0.05072
3259.19229,0.05062
3257.13212,0.05055
3255.07194,0.05052
3253.01177,0.05041
3250.95160,0.05029
3248.89143,0.05027
3246.83126,0.05024
3244.77108,0.05007
3242.71091,0.04973
3240.65074,0.04941
3238.59057,0.04924
3236.53040,0.04917
3234.47022,0.04920
3232.41005,0.04926
3230.34988,0.04919
3228.28971,0.04902
3226.22954,0.04885
3224.16936,0.04863
3222.10919,0.04828
3220.04902,0.04804
3217.98885,0.04806
3215.92867,0.04819
3213.86850,0.04826
3211.80833,0.04807
3209.74816,0.04765
3207.68799,0.04735
3205.62781,0.04712
3203.56764,0.04683
3201.50747,0.04664
3199.44730,0.04656
3197.38713,0.04638
3195.32695,0.04617
3193.26678,0.04605
3191.20661,0.04592
3189.14644,0.04578
3187.08626,0.04569
3185.02609,0.04545
3182.96592,0.04506
3180.90575,0.04475
3178.84558,0.04463
3176.78540,0.04466
3174.72523,0.04467
3172.66506,0.04449
3170.60489,0.04410
3168.54472,0.04368
3166.48454,0.04338
3164.42437,0.04312
3162.36420,0.04288
3160.30403,0.04273
3158.24386,0.04264
3156.18368,0.04249
3154.12351,0.04225
3152.06334,0.04200
3150.00317,0.04172
3147.94299,0.04144
3145.88282,0.04124
3143.82265,0.04108
3141.76248,0.04088
3139.70231,0.04067
3137.64213,0.04045
3135.58196,0.04018
3133.52179,0.03988
3131.46162,0.03962
3129.40145,0.03945
3127.34127,0.03930
3125.28110,0.03908
3123.22093,0.03873
3121.16076,0.03846
3119.10058,0.03834
3117.04041,0.03820
3114.98024,0.03801
3112.92007,0.03775
3110.85990,0.03745
3108.79972,0.03723
3106.73955,0.03703
3104.67938,0.03675
3102.61921,0.03645
3100.55904,0.03626
3098.49886,0.03619
3096.43869,0.03607
3094.37852,0.03586
3092.31835,0.03575
3090.25818,0.03575
3088.19800,0.03574
3086.13783,0.03561
3084.07766,0.03526
3082.01749,0.03489
3079.95731,0.03473
3077.89714,0.03461
3075.83697,0.03429
3073.77680,0.03395
3071.71663,0.03373
3069.65645,0.03361
3067.59628,0.03357
3065.53611,0.03339
3063.47594,0.03306
3061.41577,0.03281
3059.35559,0.03253
3057.29542,0.03213
3055.23525,0.03192
3053.17508,0.03193
3051.11491,0.03184
3049.05473,0.03164
3046.99456,0.03154
3044.93439,0.03144
3042.87422,0.03124
3040.81404,0.03095
3038.75387,0.03064
3036.69370,0.03028
3034.63353,0.02990
3032.57336,0.02956
3030.51318,0.02931
3028.45301,0.02915
3026.39284,0.02900
3024.33267,0.02894
3022.27250,0.02894
3020.21232,0.02888
3018.15215,0.02865
3016.09198,0.02830
3014.03181,0.02806
3011.97163,0.02805
3009.91146,0.02806
3007.85129,0.02782
3005.79112,0.02748
3003.73095,0.02731
3001.67077,0.02720
2999.61060,0.02705
2997.55043,0.02695
2995.49026,0.02691
2993.43009,0.02704
2991.36991,0.02737
2989.30974,0.02756
2987.24957,0.02759
2985.18940,0.02772
2983.12923,0.02798
2981.06905,0.02825
2979.00888,0.02855
2976.94871,0.02901
2974.88854,0.02966
2972.82836,0.03037
2970.76819,0.03102
2968.70802,0.03175
2966.64785,0.03275
2964.58768,0.03382
2962.52750,0.03485
2960.46733,0.03605
2958.40716,0.03729
2956.34699,0.03836
2954.28682,0.03935
2952.22664,0.04045
2950.16647,0.04176
2948.10630,0.04324
2946.04613,0.04488
2943.98596,0.04685
2941.92578,0.04901
2939.86561,0.05120
2937.80544,0.05358
2935.74527,0.05613
2933.68509,0.05873
2931.62492,0.06123
2929.56475,0.06359
2927.50458,0.06574
2925.44441,0.06762
2923.38423,0.06933
2921.32406,0.07089
2919.26389,0.07200
2917.20372,0.07193
2915.14355,0.07009
2913.08337,0.06660
2911.02320,0.06249
2908.96303,0.05900
2906.90286,0.05649
2904.84268,0.05460
2902.78251,0.05305
2900.72234,0.05158
2898.66217,0.05011
2896.60200,0.04874
2894.54182,0.04746
2892.48165,0.04627
2890.42148,0.04516
2888.36131,0.04408
2886.30114,0.04308
2884.24096,0.04216
2882.18079,0.04126
2880.12062,0.04050
2878.06045,0.04008
2876.00028,0.04002
2873.94010,0.04020
2871.87993,0.04050
2869.81976,0.04091
2867.75959,0.04146
2865.69941,0.04237
2863.63924,0.04377
2861.57907,0.04554
2859.51890,0.04770
2857.45873,0.05018
2855.39855,0.05276
2853.33838,0.05541
2851.27821,0.05748
2849.21804,0.05747
2847.15787,0.05444
2845.09769,0.04938
2843.03752,0.04444
2840.97735,0.04073
2838.91718,0.03798
2836.85700,0.03573
2834.79683,0.03397
2832.73666,0.03266
2830.67649,0.03160
2828.61632,0.03070
2826.55614,0.03004
2824.49597,0.02963
2822.43580,0.02924
2820.37563,0.02874
2818.31546,0.02820
2816.25528,0.02772
2814.19511,0.02734
2812.13494,0.02700
2810.07477,0.02662
2808.01460,0.02624
2805.95442,0.02600
2803.89425,0.02584
2801.83408,0.02563
2799.77391,0.02537
2797.71373,0.02513
2795.65356,0.02495
2793.59339,0.02472
2791.53322,0.02442
2789.47305,0.02422
2787.41287,0.02413
2785.35270,0.02397
2783.29253,0.02372
2781.23236,0.02352
2779.17219,0.02341
2777.11201,0.02338
2775.05184,0.02343
2772.99167,0.02339
2770.93150,0.02311
2768.87133,0.02279
2766.81115,0.02264
2764.75098,0.02259
2762.69081,0.02238
2760.63064,0.02219
2758.57046,0.02219
2756.51029,0.02217
2754.45012,0.02210
2752.38995,0.02203
2750.32978,0.02194
2748.26960,0.02183
2746.20943,0.02182
2744.14926,0.02191
2742.08909,0.02189
2740.02892,0.02171
2737.96874,0.02153
2735.90857,0.02151
2733.84840,0.02162
2731.78823,0.02162
2729.72805,0.02152
2727.66788,0.02148
2725.60771,0.02145
2723.54754,0.02137
2721.48737,0.02122
2719.42719,0.02105
2717.36702,0.02098
2715.30685,0.02101
2713.24668,0.02104
2711.18651,0.02088
2709.12633,0.02061
2707.06616,0.02055
2705.00599,0.02062
2702.94582,0.02054
2700.88565,0.02030
2698.82547,0.02008
2696.76530,0.01999
2694.70513,0.01998
2692.64496,0.02005
2690.58478,0.02010
2688.52461,0.02006
2686.46444,0.01995
2684.40427,0.01986
2682.34410,0.01982
2680.28392,0.01974
2678.22375,0.01965
2676.16358,0.01963
2674.10341,0.01961
2672.04324,0.01951
2669.98306,0.01936
2667.92289,0.01921
2665.86272,0.01907
2663.80255,0.01894
2661.74238,0.01897
2659.68220,0.01908
2657.62203,0.01903
2655.56186,0.01884
2653.50169,0.01870
2651.44151,0.01862
2649.38134,0.01848
2647.32117,0.01825
2645.26100,0.01797
2643.20083,0.01771
2641.14065,0.01768
2639.08048,0.01778
2637.02031,0.01774
2634.96014,0.01759
2632.89997,0.01751
2630.83979,0.01743
2628.77962,0.01733
2626.71945,0.01722
2624.65928,0.01690
2622.59910,0.01654
2620.53893,0.01642
2618.47876,0.01636
2616.41859,0.01620
2614.35842,0.01614
2612.29824,0.01613
2610.23807,0.01601
2608.17790,0.01595
2606.11773,0.01593
2604.05756,0.01575
2601.99738,0.01572
2599.93721,0.01602
2597.87704,0.01618
2595.81687,0.01592
2593.75670,0.01543
2591.69652,0.01511
2589.63635,0.01521
2587.57618,0.01544
2585.51601,0.01538
2583.45583,0.01517
2581.39566,0.01515
2579.33549,0.01515
2577.27532,0.01487
2575.21515,0.01451
2573.15497,0.01443
2571.09480,0.01453
2569.03463,0.01450
2566.97446,0.01439
2564.91429,0.01425
2562.85411,0.01418
2560.79394,0.01429
2558.73377,0.01445
2556.67360,0.01432
2554.61342,0.01392
2552.55325,0.01367
2550.49308,0.01360
2548.43291,0.01343
2546.37274,0.01326
2544.31256,0.01342
2542.25239,0.01369
2540.19222,0.01365
2538.13205,0.01344
2536.07188,0.01346
2534.01170,0.01341
2531.95153,0.01318
2529.89136,0.01325
2527.83119,0.01342
2525.77102,0.01325
2523.71084,0.01298
2521.65067,0.01292
2519.59050,0.01290
2517.53033,0.01272
2515.47015,0.01261
2513.40998,0.01263
2511.34981,0.01255
2509.28964,0.01243
2507.22947,0.01233
2505.16929,0.01214
2503.10912,0.01190
2501.04895,0.01194
2498.98878,0.01229
2496.92861,0.01242
2494.86843,0.01229
2492.80826,0.01218
2490.74809,0.01193
2488.68792,0.01172
2486.62775,0.01180
2484.56757,0.01184
2482.50740,0.01168
2480.44723,0.01137
2478.38706,0.01118
2476.32688,0.01146
2474.26671,0.01163
2472.20654,0.01133
2470.14637,0.01126
2468.08620,0.01151
2466.02602,0.01149
2463.96585,0.01138
2461.90568,0.01148
2459.84551,0.01154
2457.78534,0.01143
2455.72516,0.01131
2453.66499,0.01114
2451.60482,0.01100
2449.54465,0.01104
2447.48447,0.01097
2445.42430,0.01069
2443.36413,0.01044
2441.30396,0.01030
2439.24379,0.01030
2437.18361,0.01036
2435.12344,0.01022
2433.06327,0.00995
2431.00310,0.00984
2428.94293,0.00981
2426.88275,0.00970
2424.82258,0.00957
2422.76241,0.00966
2420.70224,0.00998
2418.64207,0.01012
2416.58189,0.00988
2414.52172,0.00961
2412.46155,0.00963
2410.40138,0.00969
2408.34120,0.00959
2406.28103,0.00953
2404.22086,0.00944
2402.16069,0.00933
2400.10052,0.00949
2398.04034,0.00970
2395.98017,0.00966
2393.92000,0.00939
2391.85983,0.00920
2389.79966,0.00923
2387.73948,0.00950
2385.67931,0.00981
2383.61914,0.00983
2381.55897,0.00956
2379.49880,0.00917
2377.43862,0.00868
2375.37845,0.00811
2373.31828,0.00817
2371.25811,0.00855
2369.19793,0.00845
2367.13776,0.00907
2365.07759,0.01069
2363.01742,0.01043
2360.95725,0.00894
2358.89707,0.00698
2356.83690,0.00641
2354.77673,0.00692
2352.71656,0.00791
2350.65639,0.01029
2348.59621,0.01129
2346.53604,0.00774
2344.47587,0.00587
2342.41570,0.00583
2340.35552,0.00647
2338.29535,0.00753
2336.23518,0.00854
2334.17501,0.00940
2332.11484,0.00945
2330.05466,0.00909
2327.99449,0.00854
2325.93432,0.00860
2323.87415,0.00835
2321.81398,0.00836
2319.75380,0.00820
2317.69363,0.00869
2315.63346,0.00920
2313.57329,0.00931
2311.51312,0.00903
2309.45294,0.00862
2307.39277,0.00852
2305.33260,0.00866
2303.27243,0.00858
2301.21225,0.00798
2299.15208,0.00755
2297.09191,0.00770
2295.03174,0.00817
2292.97157,0.00860
2290.91139,0.00884
2288.85122,0.00893
2286.79105,0.00872
2284.73088,0.00819
2282.67071,0.00767
2280.61053,0.00737
2278.55036,0.00729
2276.49019,0.00743
2274.43002,0.00777
2272.36984,0.00781
2270.30967,0.00747
2268.24950,0.00736
2266.18933,0.00760
2264.12916,0.00779
2262.06898,0.00772
2260.00881,0.00733
2257.94864,0.00695
2255.88847,0.00698
2253.82830,0.00733
2251.76812,0.00733
2249.70795,0.00660
2247.64778,0.00582
2245.58761,0.00597
2243.52744,0.00654
2241.46726,0.00656
2239.40709,0.00640
2237.34692,0.00638
2235.28675,0.00618
2233.22657,0.00585
2231.16640,0.00613
2229.10623,0.00681
2227.04606,0.00665
2224.98589,0.00608
2222.92571,0.00596
2220.86554,0.00598
2218.80537,0.00607
2216.74520,0.00649
2214.68503,0.00660
2212.62485,0.00582
2210.56468,0.00497
2208.50451,0.00494
2206.44434,0.00513
2204.38417,0.00499
2202.32399,0.00495
2200.26382,0.00529
2198.20365,0.00553
2196.14348,0.00522
2194.08330,0.00511
2192.02313,0.00591
2189.96296,0.00672
2187.90279,0.00653
2185.84262,0.00594
2183.78244,0.00583
2181.72227,0.00562
2179.66210,0.00470
2177.60193,0.00395
2175.54176,0.00422
2173.48158,0.00473
2171.42141,0.00489
2169.36124,0.00458
2167.30107,0.00377
2165.24089,0.00345
2163.18072,0.00331
2161.12055,0.00178
2159.06038,0.00000
2157.00021,0.00001
2154.94003,0.00103
2152.87986,0.00174
2150.81969,0.00281
2148.75952,0.00454
2146.69935,0.00548
2144.63917,0.00521
2142.57900,0.00490
2140.51883,0.00495
2138.45866,0.00455
2136.39849,0.00403
2134.33831,0.00447
2132.27814,0.00518
2130.21797,0.00518
2128.15780,0.00473
2126.09762,0.00475
2124.03745,0.00528
2121.97728,0.00553
2119.91711,0.00557
2117.85694,0.00592
2115.79676,0.00604
2113.73659,0.00551
2111.67642,0.00503
2109.61625,0.00512
2107.55608,0.00554
2105.49590,0.00590
2103.43573,0.00606
2101.37556,0.00599
2099.31539,0.00580
2097.25521,0.00551
2095.19504,0.00505
2093.13487,0.00488
2091.07470,0.00474
2089.01453,0.00420
2086.95435,0.00393
2084.89418,0.00422
2082.83401,0.00481
2080.77384,0.00551
2078.71367,0.00561
2076.65349,0.00505
2074.59332,0.00457
2072.53315,0.00428
2070.47298,0.00405
2068.41281,0.00403
2066.35263,0.00408
2064.29246,0.00386
2062.23229,0.00368
2060.17212,0.00372
2058.11194,0.00377
2056.05177,0.00428
2053.99160,0.00538
2051.93143,0.00553
2049.87126,0.00393
2047.81108,0.00229
2045.75091,0.00197
2043.69074,0.00208
2041.63057,0.00184
2039.57040,0.00180
2037.51022,0.00211
2035.45005,0.00194
2033.38988,0.00162
2031.32971,0.00231
2029.26954,0.00302
2027.20936,0.00254
2025.14919,0.00186
2023.08902,0.00222
2021.02885,0.00305
2018.96867,0.00316
2016.90850,0.00291
2014.84833,0.00257
2012.78816,0.00130
2010.72799,0.00000
2008.66781,0.00037
2006.60764,0.00185
2004.54747,0.00287
2002.48730,0.00326
2000.42713,0.00341
1998.36695,0.00297
1996.30678,0.00201
1994.24661,0.00112
1992.18644,0.00081
1990.12626,0.00161
1988.06609,0.00310
1986.00592,0.00400
1983.94575,0.00361
1981.88558,0.00263
1979.82540,0.00179
1977.76523,0.00094
1975.70506,0.00040
1973.64489,0.00039
1971.58472,0.00067
1969.52454,0.00117
1967.46437,0.00099
1965.40420,0.00031
1963.34403,0.00055
1961.28386,0.00139
1959.22368,0.00205
1957.16351,0.00272
1955.10334,0.00337
1953.04317,0.00334
1950.98299,0.00263
1948.92282,0.00220
1946.86265,0.00228
1944.80248,0.00227
1942.74231,0.00216
1940.68213,0.00229
1938.62196,0.00249
1936.56179,0.00249
1934.50162,0.00235
1932.44145,0.00206
1930.38127,0.00174
1928.32110,0.00184
1926.26093,0.00231
1924.20076,0.00247
1922.14059,0.00211
1920.08041,0.00195
1918.02024,0.00224
1915.96007,0.00244
1913.89990,0.00235
1911.83972,0.00206
1909.77955,0.00176
1907.71938,0.00166
1905.65921,0.00158
1903.59904,0.00148
1901.53886,0.00166
1899.47869,0.00204
1897.41852,0.00219
1895.35835,0.00193
1893.29818,0.00146
1891.23800,0.00114
1889.17783,0.00120
1887.11766,0.00140
1885.05749,0.00140
1882.99731,0.00137
1880.93714,0.00150
1878.87697,0.00156
1876.81680,0.00143
1874.75663,0.00144
1872.69645,0.00163
1870.63628,0.00154
1868.57611,0.00112
1866.51594,0.00072
1864.45577,0.00057
1862.39559,0.00062
1860.33542,0.00077
1858.27525,0.00092
1856.21508,0.00096
1854.15491,0.00094
1852.09473,0.00096
1850.03456,0.00098
1847.97439,0.00098
1845.91422,0.00094
1843.85404,0.00083
1841.79387,0.00073
1839.73370,0.00065
1837.67353,0.00050
1835.61336,0.00036
1833.55318,0.00033
1831.49301,0.00039
1829.43284,0.00048
1827.37267,0.00054
1825.31250,0.00056
1823.25232,0.00045
1821.19215,0.00017
1819.13198,0.00000
1817.07181,0.00002
1815.01163,0.00008
1812.95146,0.00006
1810.89129,-0.00003
1808.83112,-0.00009
1806.77095,-0.00002
1804.71077,0.00011
1802.65060,0.00006
1800.59043,-0.00019
1798.53026,-0.00037
1796.47009,-0.00027
1794.40991,-0.00007
1792.34974,-0.00007
1790.28957,-0.00016
1788.22940,-0.00011
1786.16923,-0.00001
1784.10905,0.00001
1782.04888,0.00000
1779.98871,-0.00007
1777.92854,-0.00014
1775.86836,-0.00027
1773.80819,-0.00041
1771.74802,-0.00027
1769.68785,0.00015
1767.62768,0.00055
1765.56750,0.00096
1763.50733,0.00154
1761.44716,0.00239
1759.38699,0.00340
1757.32682,0.00447
1755.26664,0.00555
1753.20647,0.00680
1751.14630,0.00857
1749.08613,0.01088
1747.02596,0.01340
1744.96578,0.01635
1742.90561,0.02014
1740.84544,0.02490
1738.78527,0.02997
1736.72509,0.03427
1734.66492,0.03780
1732.60475,0.04061
1730.54458,0.04216
1728.48441,0.04271
1726.42423,0.04272
1724.36406,0.04242
1722.30389,0.04202
1720.24372,0.04159
1718.18355,0.04106
1716.12337,0.04053
1714.06320,0.04031
1712.00303,0.04024
1709.94286,0.03998
1707.88268,0.03935
1705.82251,0.03833
1703.76234,0.03716
1701.70217,0.03594
1699.64200,0.03465
1697.58182,0.03369
1695.52165,0.03295
1693.46148,0.03229
1691.40131,0.03168
1689.34114,0.03108
1687.28096,0.03061
1685.22079,0.03013
1683.16062,0.02951
1681.10045,0.02909
1679.04028,0.02891
1676.98010,0.02877
1674.91993,0.02875
1672.85976,0.02895
1670.79959,0.02928
1668.73941,0.02967
1666.67924,0.03028
1664.61907,0.03114
1662.55890,0.03225
1660.49873,0.03345
1658.43855,0.03451
1656.37838,0.03543
1654.31821,0.03623
1652.25804,0.03684
1650.19787,0.03713
1648.13769,0.03728
1646.07752,0.03742
1644.01735,0.03768
1641.95718,0.03804
1639.89701,0.03843
1637.83683,0.03874
1635.77666,0.03898
1633.71649,0.03936
1631.65632,0.03990
1629.59614,0.04049
1627.53597,0.04103
1625.47580,0.04149
1623.41563,0.04193
1621.35546,0.04250
1619.29528,0.04317
1617.23511,0.04398
1615.17494,0.04501
1613.11477,0.04601
1611.05460,0.04676
1608.99442,0.04731
1606.93425,0.04765
1604.87408,0.04766
1602.81391,0.04730
1600.75373,0.04657
1598.69356,0.04544
1596.63339,0.04398
1594.57322,0.04240
1592.51305,0.04076
1590.45287,0.03905
1588.39270,0.03728
1586.33253,0.03543
1584.27236,0.03361
1582.21219,0.03200
1580.15201,0.03060
1578.09184,0.02912
1576.03167,0.02741
1573.97150,0.02610
1571.91133,0.02520
1569.85115,0.02408
1567.79098,0.02289
1565.73081,0.02204
1563.67064,0.02146
1561.61046,0.02097
1559.55029,0.02035
1557.49012,0.01995
1555.42995,0.02017
1553.36978,0.02057
1551.30960,0.02096
1549.24943,0.02143
1547.18926,0.02193
1545.12909,0.02230
1543.06892,0.02238
1541.00874,0.02224
1538.94857,0.02219
1536.88840,0.02226
1534.82823,0.02211
1532.76805,0.02164
1530.70788,0.02103
1528.64771,0.02028
1526.58754,0.01938
1524.52737,0.01856
1522.46719,0.01807
1520.40702,0.01802
1518.34685,0.01822
1516.28668,0.01843
1514.22651,0.01854
1512.16633,0.01842
1510.10616,0.01797
1508.04599,0.01673
1505.98582,0.01452
1503.92565,0.01281
1501.86547,0.01188
1499.80530,0.01090
1497.74513,0.00946
1495.68496,0.00789
1493.62478,0.00665
1491.56461,0.00555
1489.50444,0.00438
1487.44427,0.00354
1485.38410,0.00320
1483.32392,0.00322
1481.26375,0.00358
1479.20358,0.00426
1477.14341,0.00536
1475.08324,0.00713
1473.02306,0.00982
1470.96289,0.01304
1468.90272,0.01602
1466.84255,0.01869
1464.78238,0.02102
1462.72220,0.02263
1460.66203,0.02355
1458.60186,0.02442
1456.54169,0.02583
1454.48151,0.02745
1452.42134,0.02880
1450.36117,0.02991
1448.30100,0.03089
1446.24083,0.03176
1444.18065,0.03242
1442.12048,0.03264
1440.06031,0.03227
1438.00014,0.03124
1435.93997,0.02956
1433.87979,0.02782
1431.81962,0.02629
1429.75945,0.02480
1427.69928,0.02361
1425.63910,0.02293
1423.57893,0.02254
1421.51876,0.02232
1419.45859,0.02220
1417.39842,0.02209
1415.33824,0.02193
1413.27807,0.02167
1411.21790,0.02136
1409.15773,0.02107
1407.09756,0.02074
1405.03738,0.02040
1402.97721,0.02019
1400.91704,0.02020
1398.85687,0.02045
1396.79670,0.02085
1394.73652,0.02131
1392.67635,0.02186
1390.61618,0.02252
1388.55601,0.02323
1386.49583,0.02395
1384.43566,0.02476
1382.37549,0.02570
1380.31532,0.02677
1378.25515,0.02790
1376.19497,0.02898
1374.13480,0.02996
1372.07463,0.03079
1370.01446,0.03140
1367.95429,0.03184
1365.89411,0.03222
1363.83394,0.03252
1361.77377,0.03267
1359.71360,0.03276
1357.65343,0.03294
1355.59325,0.03326
1353.53308,0.03373
1351.47291,0.03428
1349.41274,0.03484
1347.35256,0.03533
1345.29239,0.03571
1343.23222,0.03614
1341.17205,0.03679
1339.11188,0.03754
1337.05170,0.03820
1334.99153,0.03880
1332.93136,0.03950
1330.87119,0.04021
1328.81102,0.04089
1326.75084,0.04166
1324.69067,0.04256
1322.63050,0.04348
1320.57033,0.04427
1318.51015,0.04478
1316.44998,0.04496
1314.38981,0.04481
1312.32964,0.04435
1310.26947,0.04360
1308.20929,0.04252
1306.14912,0.04111
1304.08895,0.03947
1302.02878,0.03756
1299.96861,0.03543
1297.90843,0.03333
1295.84826,0.03143
1293.78809,0.02982
1291.72792,0.02850
1289.66775,0.02740
1287.60757,0.02651
1285.54740,0.02586
1283.48723,0.02546
1281.42706,0.02526
1279.36688,0.02519
1277.30671,0.02515
1275.24654,0.02524
1273.18637,0.02566
1271.12620,0.02633
1269.06602,0.02708
1267.00585,0.02782
1264.94568,0.02860
1262.88551,0.02935
1260.82534,0.03000
1258.76516,0.03058
1256.70499,0.03112
1254.64482,0.03164
1252.58465,0.03218
1250.52447,0.03284
1248.46430,0.03366
1246.40413,0.03457
1244.34396,0.03550
1242.28379,0.03636
1240.22361,0.03713
1238.16344,0.03783
1236.10327,0.03849
1234.04310,0.03926
1231.98293,0.04020
1229.92275,0.04127
1227.86258,0.04228
1225.80241,0.04317
1223.74224,0.04402
1221.68207,0.04481
1219.62189,0.04555
1217.56172,0.04634
1215.50155,0.04713
1213.44138,0.04785
1211.38120,0.04859
1209.32103,0.04942
1207.26086,0.05029
1205.20069,0.05114
1203.14052,0.05203
1201.08034,0.05286
1199.02017,0.05348
1196.96000,0.05389
1194.89983,0.05403
1192.83966,0.05389
1190.77948,0.05369
1188.71931,0.05354
1186.65914,0.05319
1184.59897,0.05258
1182.53880,0.05185
1180.47862,0.05110
1178.41845,0.05060
1176.35828,0.05055
1174.29811,0.05072
1172.23793,0.05083
1170.17776,0.05084
1168.11759,0.05086
1166.05742,0.05076
1163.99725,0.05034
1161.93707,0.04958
1159.87690,0.04843
1157.81673,0.04695
1155.75656,0.04536
1153.69639,0.04386
1151.63621,0.04250
1149.57604,0.04121
1147.51587,0.03998
1145.45570,0.03882
1143.39552,0.03755
1141.33535,0.03614
1139.27518,0.03465
1137.21501,0.03325
1135.15484,0.03226
1133.09466,0.03175
1131.03449,0.03159
1128.97432,0.03192
1126.91415,0.03273
1124.85398,0.03373
1122.79380,0.03496
1120.73363,0.03663
1118.67346,0.03865
1116.61329,0.04084
1114.55312,0.04315
1112.49294,0.04561
1110.43277,0.04826
1108.37260,0.05096
1106.31243,0.05338
1104.25225,0.05548
1102.19208,0.05737
1100.13191,0.05901
1098.07174,0.06035
1096.01157,0.06152
1093.95139,0.06273
1091.89122,0.06409
1089.83105,0.06569
1087.77088,0.06748
1085.71071,0.06927
1083.65053,0.07117
1081.59036,0.07335
1079.53019,0.07546
1077.47002,0.07724
1075.40985,0.07881
1073.34967,0.08013
1071.28950,0.08122
1069.22933,0.08215
1067.16916,0.08292
1065.10898,0.08363
1063.04881,0.08440
1060.98864,0.08532
1058.92847,0.08646
1056.86830,0.08771
1054.80812,0.08897
1052.74795,0.09029
1050.68778,0.09164
1048.62761,0.09296
1046.56744,0.09433
1044.50726,0.09597
1042.44709,0.09789
1040.38692,0.09998
1038.32675,0.10231
1036.26657,0.10461
1034.20640,0.10654
1032.14623,0.10820
1030.08606,0.10970
1028.02589,0.11095
1025.96571,0.11184
1023.90554,0.11262
1021.84537,0.11339
1019.78520,0.11376
1017.72503,0.11372
1015.66485,0.11339
1013.60468,0.11255
1011.54451,0.11109
1009.48434,0.10916
1007.42417,0.10694
1005.36399,0.10462
1003.30382,0.10201
1001.24365,0.09896
999.18348,0.09592
997.12330,0.09321
995.06313,0.09082
993.00296,0.08848
990.94279,0.08580
988.88262,0.08286
986.82244,0.07990
984.76227,0.07677
982.70210,0.07337
980.64193,0.06991
978.58176,0.06657
976.52158,0.06346
974.46141,0.06070
972.40124,0.05820
970.34107,0.05577
968.28089,0.05357
966.22072,0.05186
964.16055,0.05041
962.10038,0.04868
960.04021,0.04661
957.98003,0.04460
955.91986,0.04272
953.85969,0.04068
951.79952,0.03835
949.73935,0.03596
947.67917,0.03377
945.61900,0.03175
943.55883,0.02981
941.49866,0.02799
939.43849,0.02634
937.37831,0.02504
935.31814,0.02410
933.25797,0.02329
931.19780,0.02273
929.13762,0.02245
927.07745,0.02196
925.01728,0.02109
922.95711,0.02004
920.89694,0.01886
918.83676,0.01753
916.77659,0.01613
914.71642,0.01466
912.65625,0.01320
910.59608,0.01196
908.53590,0.01084
906.47573,0.00972
904.41556,0.00885
902.35539,0.00849
900.29522,0.00842
898.23504,0.00825
896.17487,0.00811
894.11470,0.00809
892.05453,0.00797
889.99435,0.00779
887.93418,0.00777
885.87401,0.00784
883.81384,0.00770
881.75367,0.00749
879.69349,0.00775
877.63332,0.00830
875.57315,0.00861
873.51298,0.00878
871.45281,0.00906
869.39263,0.00922
867.33246,0.00875
865.27229,0.00748
863.21212,0.00608
861.15194,0.00492
859.09177,0.00372
857.03160,0.00262
854.97143,0.00180
852.91126,0.00093
850.85108,0.00019
848.79091,0.00000
846.73074,0.00007
844.67057,0.00004
842.61040,0.00004
840.55022,0.00040
838.49005,0.00120
836.42988,0.00208
834.36971,0.00267
832.30954,0.00292
830.24936,0.00297
828.18919,0.00294
826.12902,0.00285
824.06885,0.00304
822.00867,0.00344
819.94850,0.00358
817.88833,0.00356
815.82816,0.00365
813.76799,0.00364
811.70781,0.00333
809.64764,0.00290
807.58747,0.00252
805.52730,0.00217
803.46713,0.00187
801.40695,0.00160
799.34678,0.00111
797.28661,0.00039
795.22644,0.00000
793.16627,-0.00013
791.10609,0.00027
789.04592,0.00094
786.98575,0.00177
784.92558,0.00235
782.86540,0.00250
780.80523,0.00250
778.74506,0.00255
776.68489,0.00253
774.62472,0.00227
772.56454,0.00235
770.50437,0.00355
768.44420,0.00536
766.38403,0.00698
764.32386,0.00893
762.26368,0.01115
760.20351,0.01292
758.14334,0.01431
756.08317,0.01517
754.02299,0.01509
751.96282,0.01424
749.90265,0.01278
747.84248,0.01099
745.78231,0.00945
743.72213,0.00813
741.66196,0.00698
739.60179,0.00625
737.54162,0.00585
735.48145,0.00591
733.42127,0.00651
731.36110,0.00694
729.30093,0.00672
727.24076,0.00627
725.18059,0.00617
723.12041,0.00637
721.06024,0.00604
719.00007,0.00602
716.93990,0.00591
714.87972,0.00532
712.81955,0.00437
710.75938,0.00343
708.69921,0.00285
706.63904,0.00275
704.57886,0.00289
702.51869,0.00266
700.45852,0.00197
698.39835,0.00135
696.33818,0.00087
694.27800,0.00034
692.21783,-0.00005
690.15766,-0.00034
688.09749,-0.00057
686.03731,-0.00052
683.97714,-0.00057
681.91697,-0.00109
679.85680,-0.00154
677.79663,-0.00146
675.73645,-0.00107
673.67628,0.00005
671.61611,0.00166
669.55594,-0.00101
667.49577,-0.00435
665.43559,0.00120
663.37542,0.00081
661.31525,0.00002
659.25508,0.00067
657.19491,0.00144
655.13473,0.00189
653.07456,0.00175
651.01439,0.00090
648.95422,0.00029
646.89404,0.00083
644.83387,0.00099
642.77370,0.00041
640.71353,0.00068
638.65336,0.00216
636.59318,0.00296
634.53301,0.00234
632.47284,0.00140
630.41267,0.00091
628.35250,0.00059
626.29232,-0.00009
624.23215,-0.00057
622.17198,0.00075
620.11181,0.00369
618.05164,0.00561
615.99146,0.00462
613.93129,0.00315
611.87112,0.00363
609.81095,0.00553
607.75077,0.00678
605.69060,0.00584
603.63043,0.00276
601.57026,-0.00007
599.51009,0.00000
