3996.73391,0.00064
3994.67373,0.00055
3992.61356,0.00039
3990.55339,0.00011
3988.49322,0.00000
3986.43305,0.00014
3984.37287,0.00049
3982.31270,0.00080
3980.25253,0.00083
3978.19236,0.00089
3976.13219,0.00121
3974.07201,0.00132
3972.01184,0.00106
3969.95167,0.00085
3967.89150,0.00088
3965.83133,0.00090
3963.77115,0.00070
3961.71098,0.00044
3959.65081,0.00044
3957.59064,0.00065
3955.53046,0.00082
3953.47029,0.00077
3951.41012,0.00073
3949.34995,0.00100
3947.28978,0.00132
3945.22960,0.00128
3943.16943,0.00104
3941.10926,0.00092
3939.04909,0.00092
3936.98892,0.00097
3934.92874,0.00111
3932.86857,0.00137
3930.80840,0.00155
3928.74823,0.00140
3926.68805,0.00103
3924.62788,0.00067
3922.56771,0.00057
3920.50754,0.00083
3918.44737,0.00113
3916.38719,0.00113
3914.32702,0.00098
3912.26685,0.00097
3910.20668,0.00097
3908.14651,0.00081
3906.08633,0.00055
3904.02616,0.00049
3901.96599,0.00073
3899.90582,0.00107
3897.84565,0.00130
3895.78547,0.00164
3893.72530,0.00218
3891.66513,0.00235
3889.60496,0.00181
3887.54478,0.00127
3885.48461,0.00122
3883.42444,0.00139
3881.36427,0.00130
3879.30410,0.00102
3877.24392,0.00099
3875.18375,0.00120
3873.12358,0.00133
3871.06341,0.00107
3869.00324,0.00047
3866.94306,0.00009
3864.88289,0.00029
3862.82272,0.00060
3860.76255,0.00049
3858.70237,0.00046
3856.64220,0.00093
3854.58203,0.00157
3852.52186,0.00208
3850.46169,0.00238
3848.40151,0.00228
3846.34134,0.00190
3844.28117,0.00148
3842.22100,0.00111
3840.16083,0.00083
3838.10065,0.00089
3836.04048,0.00117
3833.98031,0.00124
3831.92014,0.00120
3829.85997,0.00130
3827.79979,0.00147
3825.73962,0.00160
3823.67945,0.00155
3821.61928,0.00129
3819.55910,0.00106
3817.49893,0.00113
3815.43876,0.00146
3813.37859,0.00167
3811.31842,0.00145
3809.25824,0.00097
3807.19807,0.00079
3805.13790,0.00121
3803.07773,0.00166
3801.01756,0.00156
3798.95738,0.00120
3796.89721,0.00110
3794.83704,0.00126
3792.77687,0.00147
3790.71670,0.00168
3788.65652,0.00175
3786.59635,0.00159
3784.53618,0.00152
3782.47601,0.00167
3780.41583,0.00182
3778.35566,0.00182
3776.29549,0.00160
3774.23532,0.00116
3772.17515,0.00085
3770.11497,0.00103
3768.05480,0.00143
3765.99463,0.00160
3763.93446,0.00144
3761.87429,0.00101
3759.81411,0.00058
3757.75394,0.00052
3755.69377,0.00076
3753.63360,0.00107
3751.57342,0.00146
3749.51325,0.00176
3747.45308,0.00188
3745.39291,0.00203
3743.33274,0.00195
3741.27256,0.00129
3739.21239,0.00051
3737.15222,0.00018
3735.09205,0.00062
3733.03188,0.00156
3730.97170,0.00210
3728.91153,0.00203
3726.85136,0.00184
3724.79119,0.00176
3722.73102,0.00161
3720.67084,0.00141
3718.61067,0.00134
3716.55050,0.00127
3714.49033,0.00104
3712.43015,0.00102
3710.36998,0.00157
3708.30981,0.00219
3706.24964,0.00236
3704.18947,0.00227
3702.12929,0.00231
3700.06912,0.00251
3698.00895,0.00253
3695.94878,0.00221
3693.88861,0.00174
3691.82843,0.00144
3689.76826,0.00185
3687.70809,0.00274
3685.64792,0.00305
3683.58775,0.00296
3681.52757,0.00302
3679.46740,0.00296
3677.40723,0.00274
3675.34706,0.00286
3673.28688,0.00307
3671.22671,0.00294
3669.16654,0.00283
3667.10637,0.00300
3665.04620,0.00328
3662.98602,0.00361
3660.92585,0.00392
3658.86568,0.00413
3656.80551,0.00439
3654.74534,0.00484
3652.68516,0.00542
3650.62499,0.00599
3648.56482,0.00634
3646.50465,0.00643
3644.44447,0.00675
3642.38430,0.00738
3640.32413,0.00793
3638.26396,0.00820
3636.20379,0.00840
3634.14361,0.00880
3632.08344,0.00945
3630.02327,0.01023
3627.96310,0.01087
3625.90293,0.01125
3623.84275,0.01152
3621.78258,0.01184
3619.72241,0.01245
3617.66224,0.01319
3615.60207,0.01355
3613.54189,0.01361
3611.48172,0.01386
3609.42155,0.01455
3607.36138,0.01553
3605.30120,0.01633
3603.24103,0.01662
3601.18086,0.01674
3599.12069,0.01707
3597.06052,0.01750
3595.00034,0.01789
3592.94017,0.01830
3590.88000,0.01886
3588.81983,0.01979
3586.75966,0.02105
3584.69948,0.02195
3582.63931,0.02211
3580.57914,0.02198
3578.51897,0.02210
3576.45879,0.02249
3574.39862,0.02298
3572.33845,0.02355
3570.27828,0.02401
3568.21811,0.02440
3566.15793,0.02521
3564.09776,0.02635
3562.03759,0.02720
3559.97742,0.02772
3557.91725,0.02789
3555.85707,0.02773
3553.79690,0.02763
3551.73673,0.02775
3549.67656,0.02808
3547.61639,0.02894
3545.55621,0.03027
3543.49604,0.03130
3541.43587,0.03170
3539.37570,0.03207
3537.31552,0.03288
3535.25535,0.03384
3533.19518,0.03440
3531.13501,0.03466
3529.07484,0.03497
3527.01466,0.03513
3524.95449,0.03510
3522.89432,0.03533
3520.83415,0.03594
3518.77398,0.03653
3516.71380,0.03703
3514.65363,0.03760
3512.59346,0.03811
3510.53329,0.03843
3508.47312,0.03878
3506.41294,0.03953
3504.35277,0.04050
3502.29260,0.04107
3500.23243,0.04124
3498.17225,0.04159
3496.11208,0.04222
3494.05191,0.04255
3491.99174,0.04248
3489.93157,0.04269
3487.87139,0.04343
3485.81122,0.04429
3483.75105,0.04478
3481.69088,0.04486
3479.63071,0.04501
3477.57053,0.04533
3475.51036,0.04583
3473.45019,0.04646
3471.39002,0.04679
3469.32984,0.04688
3467.26967,0.04715
3465.20950,0.04758
3463.14933,0.04804
3461.08916,0.04874
3459.02898,0.04945
3456.96881,0.04960
3454.90864,0.04949
3452.84847,0.04972
3450.78830,0.05029
3448.72812,0.05099
3446.66795,0.05155
3444.60778,0.05190
3442.54761,0.05226
3440.48744,0.05273
3438.42726,0.05305
3436.36709,0.05321
3434.30692,0.05324
3432.24675,0.05313
3430.18657,0.05325
3428.12640,0.05385
3426.06623,0.05450
3424.00606,0.05489
3421.94589,0.05515
3419.88571,0.05546
3417.82554,0.05563
3415.76537,0.05558
3413.70520,0.05577
3411.64503,0.05628
3409.58485,0.05675
3407.52468,0.05701
3405.46451,0.05724
3403.40434,0.05755
3401.34416,0.05764
3399.28399,0.05728
3397.22382,0.05708
3395.16365,0.05738
3393.10348,0.05802
3391.04330,0.05878
3388.98313,0.05924
3386.92296,0.05930
3384.86279,0.05925
3382.80262,0.05921
3380.74244,0.05928
3378.68227,0.05946
3376.62210,0.05975
3374.56193,0.06021
3372.50176,0.06053
3370.44158,0.06054
3368.38141,0.06053
3366.32124,0.06054
3364.26107,0.06066
3362.20089,0.06096
3360.14072,0.06125
3358.08055,0.06146
3356.02038,0.06157
3353.96021,0.06156
3351.90003,0.06150
3349.83986,0.06156
3347.77969,0.06169
3345.71952,0.06165
3343.65935,0.06149
3341.59917,0.06139
3339.53900,0.06147
3337.47883,0.06172
3335.41866,0.06202
3333.35849,0.06217
3331.29831,0.06230
3329.23814,0.06259
3327.17797,0.06276
3325.11780,0.06280
3323.05762,0.06283
3320.99745,0.06282
3318.93728,0.06282
3316.87711,0.06283
3314.81694,0.06268
3312.75676,0.06233
3310.69659,0.06200
3308.63642,0.06205
3306.57625,0.06237
3304.51608,0.06267
3302.45590,0.06318
3300.39573,0.06386
3298.33556,0.06404
3296.27539,0.06357
3294.21521,0.06311
3292.15504,0.06303
3290.09487,0.06308
3288.03470,0.06309
3285.97453,0.06308
3283.91435,0.06317
3281.85418,0.06337
3279.79401,0.06347
3277.73384,0.06357
3275.67367,0.06381
3273.61349,0.06412
3271.55332,0.06447
3269.49315,0.06458
3267.43298,0.06426
3265.37281,0.06366
3263.31263,0.06297
3261.25246,0.06265
3259.19229,0.06292
3257.13212,0.06320
3255.07194,0.06318
3253.01177,0.06328
3250.95160,0.06366
3248.89143,0.06392
3246.83126,0.06389
3244.77108,0.06394
3242.71091,0.06406
3240.65074,0.06393
3238.59057,0.06394
3236.53040,0.06425
3234.47022,0.06431
3232.41005,0.06406
3230.34988,0.06375
3228.28971,0.06351
3226.22954,0.06361
3224.16936,0.06385
3222.10919,0.06378
3220.04902,0.06357
3217.98885,0.06342
3215.92867,0.06318
3213.86850,0.06285
3211.80833,0.06266
3209.74816,0.06267
3207.68799,0.06267
3205.62781,0.06266
3203.56764,0.06267
3201.50747,0.06251
3199.44730,0.06233
3197.38713,0.06226
3195.32695,0.06213
3193.26678,0.06185
3191.20661,0.06145
3189.14644,0.06113
3187.08626,0.06106
3185.02609,0.06115
3182.96592,0.06126
3180.90575,0.06124
3178.84558,0.06106
3176.78540,0.06079
3174.72523,0.06051
3172.66506,0.06040
3170.60489,0.06031
3168.54472,0.05999
3166.48454,0.05973
3164.42437,0.05961
3162.36420,0.05949
3160.30403,0.05937
3158.24386,0.05914
3156.18368,0.05885
3154.12351,0.05880
3152.06334,0.05899
3150.00317,0.05898
3147.94299,0.05860
3145.88282,0.05808
3143.82265,0.05762
3141.76248,0.05745
3139.70231,0.05750
3137.64213,0.05742
3135.58196,0.05714
3133.52179,0.05670
3131.46162,0.05638
3129.40145,0.05633
3127.34127,0.05619
3125.28110,0.05588
3123.22093,0.05562
3121.16076,0.05538
3119.10058,0.05508
3117.04041,0.05483
3114.98024,0.05453
3112.92007,0.05413
3110.85990,0.05394
3108.79972,0.05392
3106.73955,0.05370
3104.67938,0.05343
3102.61921,0.05336
3100.55904,0.05313
3098.49886,0.05271
3096.43869,0.05244
3094.37852,0.05213
3092.31835,0.05167
3090.25818,0.05140
3088.19800,0.05132
3086.13783,0.05118
3084.07766,0.05094
3082.01749,0.05064
3079.95731,0.05033
3077.89714,0.05004
3075.83697,0.04968
3073.77680,0.04928
3071.71663,0.04903
3069.65645,0.04900
3067.59628,0.04907
3065.53611,0.04888
3063.47594,0.04832
3061.41577,0.04776
3059.35559,0.04741
3057.29542,0.04711
3055.23525,0.04679
3053.17508,0.04670
3051.11491,0.04673
3049.05473,0.04656
3046.99456,0.04633
3044.93439,0.04619
3042.87422,0.04592
3040.81404,0.04530
3038.75387,0.04472
3036.69370,0.04466
3034.63353,0.04481
3032.57336,0.04462
3030.51318,0.04409
3028.45301,0.04348
3026.39284,0.04307
3024.33267,0.04295
3022.27250,0.04299
3020.21232,0.04291
3018.15215,0.04246
3016.09198,0.04194
3014.03181,0.04173
3011.97163,0.04159
3009.91146,0.04124
3007.85129,0.04085
3005.79112,0.04056
3003.73095,0.04039
3001.67077,0.04040
2999.61060,0.04030
2997.55043,0.03984
2995.49026,0.03946
2993.43009,0.03930
2991.36991,0.03912
2989.30974,0.03893
2987.24957,0.03888
2985.18940,0.03898
2983.12923,0.03894
2981.06905,0.03862
2979.00888,0.03830
2976.94871,0.03803
2974.88854,0.03782
2972.82836,0.03769
2970.76819,0.03762
2968.70802,0.03752
2966.64785,0.03742
2964.58768,0.03741
2962.52750,0.03742
2960.46733,0.03746
2958.40716,0.03740
2956.34699,0.03726
2954.28682,0.03725
2952.22664,0.03736
2950.16647,0.03750
2948.10630,0.03747
2946.04613,0.03720
2943.98596,0.03705
2941.92578,0.03714
2939.86561,0.03712
2937.80544,0.03692
2935.74527,0.03686
2933.68509,0.03684
2931.62492,0.03664
2929.56475,0.03636
2927.50458,0.03604
2925.44441,0.03585
2923.38423,0.03584
2921.32406,0.03575
2919.26389,0.03550
2917.20372,0.03516
2915.14355,0.03482
2913.08337,0.03455
2911.02320,0.03447
2908.96303,0.03449
2906.90286,0.03436
2904.84268,0.03423
2902.78251,0.03424
2900.72234,0.03419
2898.66217,0.03402
2896.60200,0.03379
2894.54182,0.03366
2892.48165,0.03381
2890.42148,0.03403
2888.36131,0.03397
2886.30114,0.03377
2884.24096,0.03387
2882.18079,0.03410
2880.12062,0.03393
2878.06045,0.03338
2876.00028,0.03302
2873.94010,0.03301
2871.87993,0.03294
2869.81976,0.03262
2867.75959,0.03236
2865.69941,0.03221
2863.63924,0.03207
2861.57907,0.03188
2859.51890,0.03161
2857.45873,0.03147
2855.39855,0.03144
2853.33838,0.03134
2851.27821,0.03107
2849.21804,0.03077
2847.15787,0.03062
2845.09769,0.03043
2843.03752,0.03017
2840.97735,0.03016
2838.91718,0.03023
2836.85700,0.03005
2834.79683,0.02973
2832.73666,0.02939
2830.67649,0.02913
2828.61632,0.02911
2826.55614,0.02911
2824.49597,0.02897
2822.43580,0.02887
2820.37563,0.02878
2818.31546,0.02867
2816.25528,0.02858
2814.19511,0.02844
2812.13494,0.02823
2810.07477,0.02794
2808.01460,0.02760
2805.95442,0.02748
2803.89425,0.02760
2801.83408,0.02765
2799.77391,0.02762
2797.71373,0.02752
2795.65356,0.02726
2793.59339,0.02697
2791.53322,0.02685
2789.47305,0.02683
2787.41287,0.02678
2785.35270,0.02663
2783.29253,0.02636
2781.23236,0.02614
2779.17219,0.02619
2777.11201,0.02620
2775.05184,0.02604
2772.99167,0.02603
2770.93150,0.02607
2768.87133,0.02588
2766.81115,0.02568
2764.75098,0.02560
2762.69081,0.02546
2760.63064,0.02519
2758.57046,0.02498
2756.51029,0.02492
2754.45012,0.02488
2752.38995,0.02480
2750.32978,0.02466
2748.26960,0.02435
2746.20943,0.02400
2744.14926,0.02380
2742.08909,0.02382
2740.02892,0.02403
2737.96874,0.02416
2735.90857,0.02398
2733.84840,0.02360
2731.78823,0.02338
2729.72805,0.02335
2727.66788,0.02321
2725.60771,0.02300
2723.54754,0.02298
2721.48737,0.02301
2719.42719,0.02283
2717.36702,0.02254
2715.30685,0.02236
2713.24668,0.02229
2711.18651,0.02221
2709.12633,0.02208
2707.06616,0.02191
2705.00599,0.02179
2702.94582,0.02175
2700.88565,0.02169
2698.82547,0.02149
2696.76530,0.02128
2694.70513,0.02120
2692.64496,0.02121
2690.58478,0.02119
2688.52461,0.02099
2686.46444,0.02070
2684.40427,0.02047
2682.34410,0.02033
2680.28392,0.02027
2678.22375,0.02019
2676.16358,0.02010
2674.10341,0.02002
2672.04324,0.01985
2669.98306,0.01962
2667.92289,0.01942
2665.86272,0.01934
2663.80255,0.01936
2661.74238,0.01929
2659.68220,0.01907
2657.62203,0.01887
2655.56186,0.01872
2653.50169,0.01856
2651.44151,0.01841
2649.38134,0.01831
2647.32117,0.01830
2645.26100,0.01828
2643.20083,0.01812
2641.14065,0.01786
2639.08048,0.01753
2637.02031,0.01726
2634.96014,0.01725
2632.89997,0.01731
2630.83979,0.01704
2628.77962,0.01650
2626.71945,0.01617
2624.65928,0.01630
2622.59910,0.01658
2620.53893,0.01662
2618.47876,0.01637
2616.41859,0.01609
2614.35842,0.01591
2612.29824,0.01574
2610.23807,0.01559
2608.17790,0.01525
2606.11773,0.01477
2604.05756,0.01457
2601.99738,0.01464
2599.93721,0.01478
2597.87704,0.01493
2595.81687,0.01508
2593.75670,0.01502
2591.69652,0.01454
2589.63635,0.01424
2587.57618,0.01445
2585.51601,0.01457
2583.45583,0.01434
2581.39566,0.01404
2579.33549,0.01379
2577.27532,0.01363
2575.21515,0.01367
2573.15497,0.01389
2571.09480,0.01417
2569.03463,0.01438
2566.97446,0.01443
2564.91429,0.01409
2562.85411,0.01359
2560.79394,0.01348
2558.73377,0.01377
2556.67360,0.01400
2554.61342,0.01400
2552.55325,0.01406
2550.49308,0.01410
2548.43291,0.01375
2546.37274,0.01329
2544.31256,0.01335
2542.25239,0.01384
2540.19222,0.01426
2538.13205,0.01443
2536.07188,0.01421
2534.01170,0.01382
2531.95153,0.01377
2529.89136,0.01400
2527.83119,0.01407
2525.77102,0.01388
2523.71084,0.01369
2521.65067,0.01377
2519.59050,0.01395
2517.53033,0.01401
2515.47015,0.01408
2513.40998,0.01416
2511.34981,0.01426
2509.28964,0.01435
2507.22947,0.01431
2505.16929,0.01416
2503.10912,0.01394
2501.04895,0.01375
2498.98878,0.01360
2496.92861,0.01374
2494.86843,0.01424
2492.80826,0.01464
2490.74809,0.01470
2488.68792,0.01445
2486.62775,0.01400
2484.56757,0.01376
2482.50740,0.01402
2480.44723,0.01445
2478.38706,0.01451
2476.32688,0.01427
2474.26671,0.01419
2472.20654,0.01437
2470.14637,0.01447
2468.08620,0.01447
2466.02602,0.01454
2463.96585,0.01472
2461.90568,0.01504
2459.84551,0.01531
2457.78534,0.01528
2455.72516,0.01508
2453.66499,0.01492
2451.60482,0.01479
2449.54465,0.01458
2447.48447,0.01436
2445.42430,0.01460
2443.36413,0.01530
2441.30396,0.01570
2439.24379,0.01545
2437.18361,0.01512
2435.12344,0.01514
2433.06327,0.01525
2431.00310,0.01531
2428.94293,0.01533
2426.88275,0.01500
2424.82258,0.01449
2422.76241,0.01435
2420.70224,0.01445
2418.64207,0.01427
2416.58189,0.01394
2414.52172,0.01392
2412.46155,0.01418
2410.40138,0.01446
2408.34120,0.01469
2406.28103,0.01471
2404.22086,0.01462
2402.16069,0.01468
2400.10052,0.01468
2398.04034,0.01428
2395.98017,0.01415
2393.92000,0.01451
2391.85983,0.01510
2389.79966,0.01549
2387.73948,0.01548
2385.67931,0.01519
2383.61914,0.01480
2381.55897,0.01434
2379.49880,0.01393
2377.43862,0.01393
2375.37845,0.01450
2373.31828,0.01517
2371.25811,0.01527
2369.19793,0.01469
2367.13776,0.01407
2365.07759,0.01400
2363.01742,0.01409
2360.95725,0.01420
2358.89707,0.01486
2356.83690,0.01545
2354.77673,0.01549
2352.71656,0.01548
2350.65639,0.01541
2348.59621,0.01512
2346.53604,0.01506
2344.47587,0.01558
2342.41570,0.01618
2340.35552,0.01618
2338.29535,0.01589
2336.23518,0.01584
2334.17501,0.01581
2332.11484,0.01553
2330.05466,0.01542
2327.99449,0.01578
2325.93432,0.01596
2323.87415,0.01538
2321.81398,0.01476
2319.75380,0.01471
2317.69363,0.01459
2315.63346,0.01423
2313.57329,0.01410
2311.51312,0.01408
2309.45294,0.01395
2307.39277,0.01392
2305.33260,0.01402
2303.27243,0.01409
2301.21225,0.01411
2299.15208,0.01399
2297.09191,0.01365
2295.03174,0.01349
2292.97157,0.01371
2290.91139,0.01407
2288.85122,0.01432
2286.79105,0.01408
2284.73088,0.01324
2282.67071,0.01240
2280.61053,0.01205
2278.55036,0.01186
2276.49019,0.01171
2274.43002,0.01205
2272.36984,0.01259
2270.30967,0.01252
2268.24950,0.01197
2266.18933,0.01164
2264.12916,0.01177
2262.06898,0.01205
2260.00881,0.01195
2257.94864,0.01143
2255.88847,0.01130
2253.82830,0.01167
2251.76812,0.01179
2249.70795,0.01122
2247.64778,0.01038
2245.58761,0.00997
2243.52744,0.01002
2241.46726,0.01014
2239.40709,0.01022
2237.34692,0.01030
2235.28675,0.01007
2233.22657,0.00974
2231.16640,0.01011
2229.10623,0.01057
2227.04606,0.01045
2224.98589,0.01049
2222.92571,0.01057
2220.86554,0.01034
2218.80537,0.01037
2216.74520,0.01019
2214.68503,0.00907
2212.62485,0.00761
2210.56468,0.00715
2208.50451,0.00786
2206.44434,0.00813
2204.38417,0.00791
2202.32399,0.00838
2200.26382,0.00898
2198.20365,0.00902
2196.14348,0.00906
2194.08330,0.00888
2192.02313,0.00775
2189.96296,0.00664
2187.90279,0.00730
2185.84262,0.00888
2183.78244,0.00896
2181.72227,0.00807
2179.66210,0.00777
2177.60193,0.00792
2175.54176,0.00804
2173.48158,0.00760
2171.42141,0.00716
2169.36124,0.00741
2167.30107,0.00800
2165.24089,0.00867
2163.18072,0.00849
2161.12055,0.00709
2159.06038,0.00587
2157.00021,0.00480
2154.94003,0.00383
2152.87986,0.00427
2150.81969,0.00555
2148.75952,0.00643
2146.69935,0.00662
2144.63917,0.00655
2142.57900,0.00687
2140.51883,0.00699
2138.45866,0.00669
2136.39849,0.00654
2134.33831,0.00646
2132.27814,0.00606
2130.21797,0.00575
2128.15780,0.00604
2126.09762,0.00629
2124.03745,0.00637
2121.97728,0.00691
2119.91711,0.00766
2117.85694,0.00810
2115.79676,0.00820
2113.73659,0.00823
2111.67642,0.00839
2109.61625,0.00844
2107.55608,0.00811
2105.49590,0.00755
2103.43573,0.00724
2101.37556,0.00736
2099.31539,0.00770
2097.25521,0.00755
2095.19504,0.00701
2093.13487,0.00706
2091.07470,0.00749
2089.01453,0.00730
2086.95435,0.00676
2084.89418,0.00671
2082.83401,0.00706
2080.77384,0.00730
2078.71367,0.00756
2076.65349,0.00751
2074.59332,0.00660
2072.53315,0.00556
2070.47298,0.00521
2068.41281,0.00561
2066.35263,0.00607
2064.29246,0.00574
2062.23229,0.00528
2060.17212,0.00553
2058.11194,0.00619
2056.05177,0.00649
2053.99160,0.00599
2051.93143,0.00543
2049.87126,0.00538
2047.81108,0.00579
2045.75091,0.00640
2043.69074,0.00689
2041.63057,0.00726
2039.57040,0.00704
2037.51022,0.00601
2035.45005,0.00493
2033.38988,0.00413
2031.32971,0.00367
2029.26954,0.00408
2027.20936,0.00473
2025.14919,0.00441
2023.08902,0.00326
2021.02885,0.00271
2018.96867,0.00380
2016.90850,0.00529
2014.84833,0.00566
2012.78816,0.00541
2010.72799,0.00505
2008.66781,0.00422
2006.60764,0.00339
2004.54747,0.00372
2002.48730,0.00501
2000.42713,0.00609
1998.36695,0.00631
1996.30678,0.00548
1994.24661,0.00423
1992.18644,0.00367
1990.12626,0.00386
1988.06609,0.00452
1986.00592,0.00575
1983.94575,0.00625
1981.88558,0.00481
1979.82540,0.00262
1977.76523,0.00142
1975.70506,0.00157
1973.64489,0.00236
1971.58472,0.00370
1969.52454,0.00561
1967.46437,0.00685
1965.40420,0.00650
1963.34403,0.00500
1961.28386,0.00356
1959.22368,0.00333
1957.16351,0.00389
1955.10334,0.00424
1953.04317,0.00422
1950.98299,0.00420
1948.92282,0.00434
1946.86265,0.00434
1944.80248,0.00425
1942.74231,0.00429
1940.68213,0.00419
1938.62196,0.00415
1936.56179,0.00468
1934.50162,0.00519
1932.44145,0.00510
1930.38127,0.00467
1928.32110,0.00444
1926.26093,0.00442
1924.20076,0.00430
1922.14059,0.00414
1920.08041,0.00402
1918.02024,0.00420
1915.96007,0.00455
1913.89990,0.00447
1911.83972,0.00411
1909.77955,0.00407
1907.71938,0.00414
1905.65921,0.00378
1903.59904,0.00344
1901.53886,0.00371
1899.47869,0.00431
1897.41852,0.00486
1895.35835,0.00510
1893.29818,0.00487
1891.23800,0.00455
1889.17783,0.00457
1887.11766,0.00472
1885.05749,0.00476
1882.99731,0.00483
1880.93714,0.00494
1878.87697,0.00489
1876.81680,0.00459
1874.75663,0.00437
1872.69645,0.00435
1870.63628,0.00432
1868.57611,0.00440
1866.51594,0.00485
1864.45577,0.00527
1862.39559,0.00524
1860.33542,0.00489
1858.27525,0.00468
1856.21508,0.00494
1854.15491,0.00530
1852.09473,0.00528
1850.03456,0.00496
1847.97439,0.00475
1845.91422,0.00489
1843.85404,0.00509
1841.79387,0.00494
1839.73370,0.00463
1837.67353,0.00452
1835.61336,0.00468
1833.55318,0.00500
1831.49301,0.00525
1829.43284,0.00531
1827.37267,0.00534
1825.31250,0.00545
1823.25232,0.00552
1821.19215,0.00544
1819.13198,0.00526
1817.07181,0.00515
1815.01163,0.00515
1812.95146,0.00523
1810.89129,0.00537
1808.83112,0.00545
1806.77095,0.00539
1804.71077,0.00525
1802.65060,0.00514
1800.59043,0.00523
1798.53026,0.00560
1796.47009,0.00605
1794.40991,0.00637
1792.34974,0.00642
1790.28957,0.00621
1788.22940,0.00592
1786.16923,0.00578
1784.10905,0.00588
1782.04888,0.00618
1779.98871,0.00644
1777.92854,0.00638
1775.86836,0.00613
1773.80819,0.00597
1771.74802,0.00586
1769.68785,0.00589
1767.62768,0.00628
1765.56750,0.00675
1763.50733,0.00702
1761.44716,0.00724
1759.38699,0.00747
1757.32682,0.00757
1755.26664,0.00752
1753.20647,0.00753
1751.14630,0.00778
1749.08613,0.00815
1747.02596,0.00835
1744.96578,0.00839
1742.90561,0.00852
1740.84544,0.00878
1738.78527,0.00898
1736.72509,0.00896
1734.66492,0.00901
1732.60475,0.00947
1730.54458,0.00996
1728.48441,0.01022
1726.42423,0.01039
1724.36406,0.01054
1722.30389,0.01068
1720.24372,0.01079
1718.18355,0.01099
1716.12337,0.01145
1714.06320,0.01194
1712.00303,0.01217
1709.94286,0.01220
1707.88268,0.01225
1705.82251,0.01232
1703.76234,0.01231
1701.70217,0.01255
1699.64200,0.01344
1697.58182,0.01447
1695.52165,0.01516
1693.46148,0.01563
1691.40131,0.01607
1689.34114,0.01668
1687.28096,0.01742
1685.22079,0.01817
1683.16062,0.01876
1681.10045,0.01904
1679.04028,0.01928
1676.98010,0.01967
1674.91993,0.02017
1672.85976,0.02062
1670.79959,0.02102
1668.73941,0.02155
1666.67924,0.02211
1664.61907,0.02258
1662.55890,0.02309
1660.49873,0.02353
1658.43855,0.02365
1656.37838,0.02364
1654.31821,0.02391
1652.25804,0.02438
1650.19787,0.02443
1648.13769,0.02433
1646.07752,0.02446
1644.01735,0.02458
1641.95718,0.02444
1639.89701,0.02414
1637.83683,0.02389
1635.77666,0.02399
1633.71649,0.02427
1631.65632,0.02430
1629.59614,0.02413
1627.53597,0.02398
1625.47580,0.02381
1623.41563,0.02355
1621.35546,0.02324
1619.29528,0.02301
1617.23511,0.02308
1615.17494,0.02331
1613.11477,0.02322
1611.05460,0.02284
1608.99442,0.02248
1606.93425,0.02221
1604.87408,0.02194
1602.81391,0.02164
1600.75373,0.02127
1598.69356,0.02076
1596.63339,0.02021
1594.57322,0.01966
1592.51305,0.01904
1590.45287,0.01831
1588.39270,0.01770
1586.33253,0.01719
1584.27236,0.01653
1582.21219,0.01571
1580.15201,0.01495
1578.09184,0.01434
1576.03167,0.01390
1573.97150,0.01359
1571.91133,0.01324
1569.85115,0.01281
1567.79098,0.01240
1565.73081,0.01200
1563.67064,0.01156
1561.61046,0.01118
1559.55029,0.01083
1557.49012,0.01038
1555.42995,0.00982
1553.36978,0.00928
1551.30960,0.00894
1549.24943,0.00874
1547.18926,0.00847
1545.12909,0.00811
1543.06892,0.00784
1541.00874,0.00765
1538.94857,0.00742
1536.88840,0.00726
1534.82823,0.00712
1532.76805,0.00683
1530.70788,0.00654
1528.64771,0.00650
1526.58754,0.00648
1524.52737,0.00615
1522.46719,0.00564
1520.40702,0.00521
1518.34685,0.00491
1516.28668,0.00472
1514.22651,0.00474
1512.16633,0.00487
1510.10616,0.00484
1508.04599,0.00462
1505.98582,0.00452
1503.92565,0.00460
1501.86547,0.00458
1499.80530,0.00445
1497.74513,0.00436
1495.68496,0.00433
1493.62478,0.00422
1491.56461,0.00409
1489.50444,0.00406
1487.44427,0.00414
1485.38410,0.00425
1483.32392,0.00444
1481.26375,0.00471
1479.20358,0.00492
1477.14341,0.00499
1475.08324,0.00505
1473.02306,0.00521
1470.96289,0.00544
1468.90272,0.00557
1466.84255,0.00575
1464.78238,0.00611
1462.72220,0.00638
1460.66203,0.00638
1458.60186,0.00647
1456.54169,0.00675
1454.48151,0.00680
1452.42134,0.00666
1450.36117,0.00658
1448.30100,0.00660
1446.24083,0.00665
1444.18065,0.00669
1442.12048,0.00668
1440.06031,0.00664
1438.00014,0.00664
1435.93997,0.00681
1433.87979,0.00711
1431.81962,0.00744
1429.75945,0.00780
1427.69928,0.00807
1425.63910,0.00819
1423.57893,0.00825
1421.51876,0.00827
1419.45859,0.00831
1417.39842,0.00853
1415.33824,0.00875
1413.27807,0.00887
1411.21790,0.00893
1409.15773,0.00891
1407.09756,0.00879
1405.03738,0.00863
1402.97721,0.00848
1400.91704,0.00829
1398.85687,0.00803
1396.79670,0.00777
1394.73652,0.00760
1392.67635,0.00752
1390.61618,0.00751
1388.55601,0.00744
1386.49583,0.00736
1384.43566,0.00736
1382.37549,0.00743
1380.31532,0.00750
1378.25515,0.00750
1376.19497,0.00746
1374.13480,0.00747
1372.07463,0.00746
1370.01446,0.00735
1367.95429,0.00726
1365.89411,0.00722
1363.83394,0.00714
1361.77377,0.00703
1359.71360,0.00689
1357.65343,0.00666
1355.59325,0.00636
1353.53308,0.00606
1351.47291,0.00581
1349.41274,0.00565
1347.35256,0.00557
1345.29239,0.00551
1343.23222,0.00538
1341.17205,0.00528
1339.11188,0.00537
1337.05170,0.00555
1334.99153,0.00567
1332.93136,0.00570
1330.87119,0.00560
1328.81102,0.00537
1326.75084,0.00516
1324.69067,0.00510
1322.63050,0.00520
1320.57033,0.00536
1318.51015,0.00538
1316.44998,0.00531
1314.38981,0.00538
1312.32964,0.00550
1310.26947,0.00547
1308.20929,0.00531
1306.14912,0.00518
1304.08895,0.00518
1302.02878,0.00530
1299.96861,0.00545
1297.90843,0.00562
1295.84826,0.00582
1293.78809,0.00601
1291.72792,0.00601
1289.66775,0.00588
1287.60757,0.00587
1285.54740,0.00598
1283.48723,0.00613
1281.42706,0.00629
1279.36688,0.00639
1277.30671,0.00646
1275.24654,0.00659
1273.18637,0.00668
1271.12620,0.00668
1269.06602,0.00666
1267.00585,0.00665
1264.94568,0.00659
1262.88551,0.00657
1260.82534,0.00669
1258.76516,0.00677
1256.70499,0.00674
1254.64482,0.00670
1252.58465,0.00668
1250.52447,0.00663
1248.46430,0.00662
1246.40413,0.00668
1244.34396,0.00662
1242.28379,0.00624
1240.22361,0.00578
1238.16344,0.00554
1236.10327,0.00544
1234.04310,0.00525
1231.98293,0.00492
1229.92275,0.00460
1227.86258,0.00432
1225.80241,0.00404
1223.74224,0.00378
1221.68207,0.00366
1219.62189,0.00362
1217.56172,0.00345
1215.50155,0.00323
1213.44138,0.00304
1211.38120,0.00274
1209.32103,0.00238
1207.26086,0.00213
1205.20069,0.00197
1203.14052,0.00199
1201.08034,0.00223
1199.02017,0.00250
1196.96000,0.00263
1194.89983,0.00274
1192.83966,0.00299
1190.77948,0.00335
1188.71931,0.00379
1186.65914,0.00438
1184.59897,0.00502
1182.53880,0.00572
1180.47862,0.00667
1178.41845,0.00785
1176.35828,0.00901
1174.29811,0.01013
1172.23793,0.01132
1170.17776,0.01261
1168.11759,0.01384
1166.05742,0.01496
1163.99725,0.01607
1161.93707,0.01725
1159.87690,0.01841
1157.81673,0.01942
1155.75656,0.02040
1153.69639,0.02164
1151.63621,0.02306
1149.57604,0.02434
1147.51587,0.02549
1145.45570,0.02670
1143.39552,0.02803
1141.33535,0.02933
1139.27518,0.03059
1137.21501,0.03199
1135.15484,0.03338
1133.09466,0.03478
1131.03449,0.03637
1128.97432,0.03801
1126.91415,0.03948
1124.85398,0.04095
1122.79380,0.04259
1120.73363,0.04416
1118.67346,0.04572
1116.61329,0.04746
1114.55312,0.04923
1112.49294,0.05093
1110.43277,0.05263
1108.37260,0.05423
1106.31243,0.05573
1104.25225,0.05733
1102.19208,0.05919
1100.13191,0.06098
1098.07174,0.06254
1096.01157,0.06426
1093.95139,0.06601
1091.89122,0.06726
1089.83105,0.06833
1087.77088,0.06978
1085.71071,0.07143
1083.65053,0.07295
1081.59036,0.07444
1079.53019,0.07567
1077.47002,0.07646
1075.40985,0.07721
1073.34967,0.07804
1071.28950,0.07865
1069.22933,0.07898
1067.16916,0.07918
1065.10898,0.07920
1063.04881,0.07906
1060.98864,0.07877
1058.92847,0.07815
1056.86830,0.07725
1054.80812,0.07629
1052.74795,0.07536
1050.68778,0.07428
1048.62761,0.07295
1046.56744,0.07156
1044.50726,0.07032
1042.44709,0.06910
1040.38692,0.06767
1038.32675,0.06605
1036.26657,0.06438
1034.20640,0.06278
1032.14623,0.06136
1030.08606,0.05987
1028.02589,0.05815
1025.96571,0.05652
1023.90554,0.05531
1021.84537,0.05423
1019.78520,0.05278
1017.72503,0.05121
1015.66485,0.04992
1013.60468,0.04878
1011.54451,0.04770
1009.48434,0.04692
1007.42417,0.04665
1005.36399,0.04669
1003.30382,0.04667
1001.24365,0.04672
999.18348,0.04713
997.12330,0.04780
995.06313,0.04864
993.00296,0.04967
990.94279,0.05072
988.88262,0.05153
986.82244,0.05212
984.76227,0.05271
982.70210,0.05310
980.64193,0.05282
978.58176,0.05180
976.52158,0.05025
974.46141,0.04868
972.40124,0.04727
970.34107,0.04562
968.28089,0.04359
966.22072,0.04152
964.16055,0.03967
962.10038,0.03785
960.04021,0.03586
957.98003,0.03395
955.91986,0.03254
953.85969,0.03148
951.79952,0.03033
949.73935,0.02924
947.67917,0.02840
945.61900,0.02766
943.55883,0.02699
941.49866,0.02636
939.43849,0.02571
937.37831,0.02520
935.31814,0.02500
933.25797,0.02477
931.19780,0.02438
929.13762,0.02401
927.07745,0.02369
925.01728,0.02329
922.95711,0.02270
920.89694,0.02202
918.83676,0.02140
916.77659,0.02079
914.71642,0.02018
912.65625,0.01960
910.59608,0.01876
908.53590,0.01797
906.47573,0.01777
904.41556,0.01801
902.35539,0.01818
900.29522,0.01801
898.23504,0.01791
896.17487,0.01818
894.11470,0.01852
892.05453,0.01851
889.99435,0.01824
887.93418,0.01831
885.87401,0.01877
883.81384,0.01925
881.75367,0.01987
879.69349,0.02070
877.63332,0.02141
875.57315,0.02214
873.51298,0.02297
871.45281,0.02336
869.39263,0.02324
867.33246,0.02314
865.27229,0.02321
863.21212,0.02337
861.15194,0.02362
859.09177,0.02383
857.03160,0.02376
854.97143,0.02341
852.91126,0.02271
850.85108,0.02185
848.79091,0.02100
846.73074,0.02018
844.67057,0.01957
842.61040,0.01899
840.55022,0.01823
838.49005,0.01736
836.42988,0.01657
834.36971,0.01590
832.30954,0.01498
830.24936,0.01376
828.18919,0.01297
826.12902,0.01276
824.06885,0.01249
822.00867,0.01198
819.94850,0.01155
817.88833,0.01098
815.82816,0.01032
813.76799,0.01023
811.70781,0.01016
809.64764,0.00943
807.58747,0.00869
805.52730,0.00842
803.46713,0.00818
801.40695,0.00761
799.34678,0.00704
797.28661,0.00699
795.22644,0.00735
793.16627,0.00763
791.10609,0.00748
789.04592,0.00713
786.98575,0.00694
784.92558,0.00654
782.86540,0.00627
780.80523,0.00656
778.74506,0.00632
776.68489,0.00553
774.62472,0.00529
772.56454,0.00526
770.50437,0.00510
768.44420,0.00514
766.38403,0.00525
764.32386,0.00515
762.26368,0.00466
760.20351,0.00417
758.14334,0.00424
756.08317,0.00441
754.02299,0.00415
751.96282,0.00351
749.90265,0.00306
747.84248,0.00338
745.78231,0.00392
743.72213,0.00408
741.66196,0.00396
739.60179,0.00357
737.54162,0.00329
735.48145,0.00335
733.42127,0.00318
731.36110,0.00296
729.30093,0.00329
727.24076,0.00359
725.18059,0.00342
723.12041,0.00321
721.06024,0.00311
719.00007,0.00333
716.93990,0.00371
714.87972,0.00410
712.81955,0.00433
710.75938,0.00417
708.69921,0.00385
706.63904,0.00378
704.57886,0.00385
702.51869,0.00394
700.45852,0.00407
698.39835,0.00399
696.33818,0.00368
694.27800,0.00331
692.21783,0.00279
690.15766,0.00233
688.09749,0.00239
686.03731,0.00295
683.97714,0.00394
681.91697,0.00536
679.85680,0.00633
677.79663,0.00598
675.73645,0.00486
673.67628,0.00368
671.61611,0.00278
669.55594,0.00296
667.49577,0.00412
665.43559,0.00472
663.37542,0.00496
661.31525,0.00492
659.25508,0.00433
657.19491,0.00352
655.13473,0.00306
653.07456,0.00304
651.01439,0.00313
648.95422,0.00342
646.89404,0.00422
644.83387,0.00478
642.77370,0.00407
640.71353,0.00281
638.65336,0.00237
636.59318,0.00244
634.53301,0.00291
632.47284,0.00349
630.41267,0.00306
628.35250,0.00211
626.29232,0.00321
624.23215,0.00647
622.17198,0.00775
620.11181,0.00573
618.05164,0.00335
615.99146,0.00279
613.93129,0.00429
611.87112,0.00590
609.81095,0.00533
607.75077,0.00366
605.69060,0.00133
603.63043,0.00000
601.57026,0.00025
599.51009,0.00000
