3996.73391,0.00002
3994.67373,-0.00036
3992.61356,-0.00026
3990.55339,0.00006
3988.49322,-0.00011
3986.43305,-0.00040
3984.37287,-0.00035
3982.31270,-0.00021
3980.25253,-0.00033
3978.19236,-0.00050
3976.13219,-0.00035
3974.07201,0.00009
3972.01184,0.00058
3969.95167,0.00088
3967.89150,0.00069
3965.83133,0.00020
3963.77115,0.00015
3961.71098,0.00042
3959.65081,0.00056
3957.59064,0.00069
3955.53046,0.00066
3953.47029,0.00045
3951.41012,0.00046
3949.34995,0.00050
3947.28978,0.00000
3945.22960,-0.00023
3943.16943,0.00034
3941.10926,0.00054
3939.04909,0.00039
3936.98892,0.00046
3934.92874,0.00076
3932.86857,0.00103
3930.80840,0.00070
3928.74823,0.00012
3926.68805,0.00032
3924.62788,0.00099
3922.56771,0.00122
3920.50754,0.00157
3918.44737,0.00191
3916.38719,0.00156
3914.32702,0.00104
3912.26685,0.00112
3910.20668,0.00119
3908.14651,0.00101
3906.08633,0.00129
3904.02616,0.00161
3901.96599,0.00132
3899.90582,0.00123
3897.84565,0.00097
3895.78547,0.00093
3893.72530,0.00209
3891.66513,0.00302
3889.60496,0.00218
3887.54478,0.00201
3885.48461,0.00242
3883.42444,0.00196
3881.36427,0.00253
3879.30410,0.00259
3877.24392,0.00207
3875.18375,0.00268
3873.12358,0.00269
3871.06341,0.00240
3869.00324,0.00186
3866.94306,0.00161
3864.88289,0.00258
3862.82272,0.00229
3860.76255,0.00085
3858.70237,0.00000
3856.64220,0.00125
3854.58203,0.00439
3852.52186,0.00476
3850.46169,0.00231
3848.40151,0.00144
3846.34134,0.00210
3844.28117,0.00267
3842.22100,0.00219
3840.16083,0.00192
3838.10065,0.00226
3836.04048,0.00210
3833.98031,0.00203
3831.92014,0.00211
3829.85997,0.00158
3827.79979,0.00129
3825.73962,0.00125
3823.67945,0.00211
3821.61928,0.00355
3819.55910,0.00245
3817.49893,0.00195
3815.43876,0.00245
3813.37859,0.00194
3811.31842,0.00201
3809.25824,0.00294
3807.19807,0.00305
3805.13790,0.00143
3803.07773,0.00161
3801.01756,0.00258
3798.95738,0.00225
3796.89721,0.00283
3794.83704,0.00284
3792.77687,0.00216
3790.71670,0.00182
3788.65652,0.00177
3786.59635,0.00216
3784.53618,0.00245
3782.47601,0.00254
3780.41583,0.00319
3778.35566,0.00311
3776.29549,0.00240
3774.23532,0.00244
3772.17515,0.00303
3770.11497,0.00304
3768.05480,0.00223
3765.99463,0.00222
3763.93446,0.00232
3761.87429,0.00277
3759.81411,0.00372
3757.75394,0.00336
3755.69377,0.00228
3753.63360,0.00250
3751.57342,0.00305
3749.51325,0.00127
3747.45308,0.00000
3745.39291,0.00216
3743.33274,0.00304
3741.27256,0.00160
3739.21239,0.00140
3737.15222,0.00246
3735.09205,0.00288
3733.03188,0.00231
3730.97170,0.00172
3728.91153,0.00180
3726.85136,0.00260
3724.79119,0.00279
3722.73102,0.00263
3720.67084,0.00241
3718.61067,0.00192
3716.55050,0.00124
3714.49033,0.00135
3712.43015,0.00236
3710.36998,0.00256
3708.30981,0.00187
3706.24964,0.00172
3704.18947,0.00261
3702.12929,0.00358
3700.06912,0.00325
3698.00895,0.00268
3695.94878,0.00236
3693.88861,0.00202
3691.82843,0.00266
3689.76826,0.00366
3687.70809,0.00291
3685.64792,0.00163
3683.58775,0.00148
3681.52757,0.00161
3679.46740,0.00156
3677.40723,0.00228
3675.34706,0.00259
3673.28688,0.00122
3671.22671,0.00236
3669.16654,0.00344
3667.10637,0.00240
3665.04620,0.00229
3662.98602,0.00265
3660.92585,0.00252
3658.86568,0.00318
3656.80551,0.00445
3654.74534,0.00389
3652.68516,0.00351
3650.62499,0.00505
3648.56482,0.00531
3646.50465,0.00373
3644.44447,0.00297
3642.38430,0.00381
3640.32413,0.00445
3638.26396,0.00421
3636.20379,0.00391
3634.14361,0.00384
3632.08344,0.00401
3630.02327,0.00530
3627.96310,0.00527
3625.90293,0.00356
3623.84275,0.00305
3621.78258,0.00388
3619.72241,0.00486
3617.66224,0.00459
3615.60207,0.00434
3613.54189,0.00482
3611.48172,0.00493
3609.42155,0.00555
3607.36138,0.00607
3605.30120,0.00568
3603.24103,0.00572
3601.18086,0.00582
3599.12069,0.00526
3597.06052,0.00511
3595.00034,0.00543
3592.94017,0.00516
3590.88000,0.00531
3588.81983,0.00672
3586.75966,0.00730
3584.69948,0.00665
3582.63931,0.00678
3580.57914,0.00737
3578.51897,0.00760
3576.45879,0.00766
3574.39862,0.00761
3572.33845,0.00736
3570.27828,0.00782
3568.21811,0.00931
3566.15793,0.00975
3564.09776,0.00882
3562.03759,0.00858
3559.97742,0.00890
3557.91725,0.00898
3555.85707,0.00904
3553.79690,0.00939
3551.73673,0.00946
3549.67656,0.00932
3547.61639,0.00991
3545.55621,0.01076
3543.49604,0.01094
3541.43587,0.01071
3539.37570,0.01064
3537.31552,0.01095
3535.25535,0.01126
3533.19518,0.01139
3531.13501,0.01176
3529.07484,0.01228
3527.01466,0.01242
3524.95449,0.01240
3522.89432,0.01249
3520.83415,0.01253
3518.77398,0.01274
3516.71380,0.01305
3514.65363,0.01334
3512.59346,0.01380
3510.53329,0.01428
3508.47312,0.01432
3506.41294,0.01434
3504.35277,0.01476
3502.29260,0.01481
3500.23243,0.01449
3498.17225,0.01446
3496.11208,0.01444
3494.05191,0.01418
3491.99174,0.01435
3489.93157,0.01524
3487.87139,0.01595
3485.81122,0.01598
3483.75105,0.01609
3481.69088,0.01623
3479.63071,0.01602
3477.57053,0.01605
3475.51036,0.01637
3473.45019,0.01649
3471.39002,0.01653
3469.32984,0.01686
3467.26967,0.01734
3465.20950,0.01752
3463.14933,0.01757
3461.08916,0.01788
3459.02898,0.01830
3456.96881,0.01859
3454.90864,0.01883
3452.84847,0.01899
3450.78830,0.01887
3448.72812,0.01879
3446.66795,0.01860
3444.60778,0.01842
3442.54761,0.01892
3440.48744,0.01960
3438.42726,0.02011
3436.36709,0.02016
3434.30692,0.01981
3432.24675,0.01973
3430.18657,0.01982
3428.12640,0.02001
3426.06623,0.02049
3424.00606,0.02088
3421.94589,0.02108
3419.88571,0.02109
3417.82554,0.02088
3415.76537,0.02086
3413.70520,0.02125
3411.64503,0.02157
3409.58485,0.02154
3407.52468,0.02171
3405.46451,0.02231
3403.40434,0.02292
3401.34416,0.02312
3399.28399,0.02296
3397.22382,0.02270
3395.16365,0.02266
3393.10348,0.02297
3391.04330,0.02308
3388.98313,0.02302
3386.92296,0.02319
3384.86279,0.02337
3382.80262,0.02351
3380.74244,0.02393
3378.68227,0.02411
3376.62210,0.02379
3374.56193,0.02354
3372.50176,0.02341
3370.44158,0.02327
3368.38141,0.02342
3366.32124,0.02392
3364.26107,0.02440
3362.20089,0.02468
3360.14072,0.02491
3358.08055,0.02501
3356.02038,0.02484
3353.96021,0.02471
3351.90003,0.02478
3349.83986,0.02478
3347.77969,0.02454
3345.71952,0.02429
3343.65935,0.02456
3341.59917,0.02530
3339.53900,0.02577
3337.47883,0.02572
3335.41866,0.02551
3333.35849,0.02536
3331.29831,0.02531
3329.23814,0.02527
3327.17797,0.02516
3325.11780,0.02515
3323.05762,0.02524
3320.99745,0.02543
3318.93728,0.02565
3316.87711,0.02573
3314.81694,0.02563
3312.75676,0.02569
3310.69659,0.02616
3308.63642,0.02653
3306.57625,0.02644
3304.51608,0.02635
3302.45590,0.02646
3300.39573,0.02658
3298.33556,0.02662
3296.27539,0.02659
3294.21521,0.02655
3292.15504,0.02657
3290.09487,0.02664
3288.03470,0.02677
3285.97453,0.02705
3283.91435,0.02730
3281.85418,0.02718
3279.79401,0.02690
3277.73384,0.02683
3275.67367,0.02670
3273.61349,0.02658
3271.55332,0.02686
3269.49315,0.02704
3267.43298,0.02673
3265.37281,0.02642
3263.31263,0.02635
3261.25246,0.02643
3259.19229,0.02661
3257.13212,0.02661
3255.07194,0.02633
3253.01177,0.02604
3250.95160,0.02589
3248.89143,0.02596
3246.83126,0.02635
3244.77108,0.02661
3242.71091,0.02626
3240.65074,0.02576
3238.59057,0.02561
3236.53040,0.02566
3234.47022,0.02568
3232.41005,0.02552
3230.34988,0.02509
3228.28971,0.02473
3226.22954,0.02472
3224.16936,0.02499
3222.10919,0.02537
3220.04902,0.02532
3217.98885,0.02469
3215.92867,0.02432
3213.86850,0.02444
3211.80833,0.02448
3209.74816,0.02449
3207.68799,0.02450
3205.62781,0.02446
3203.56764,0.02429
3201.50747,0.02414
3199.44730,0.02420
3197.38713,0.02425
3195.32695,0.02433
3193.26678,0.02456
3191.20661,0.02468
3189.14644,0.02464
3187.08626,0.02447
3185.02609,0.02411
3182.96592,0.02366
3180.90575,0.02337
3178.84558,0.02340
3176.78540,0.02350
3174.72523,0.02349
3172.66506,0.02343
3170.60489,0.02338
3168.54472,0.02315
3166.48454,0.02268
3164.42437,0.02238
3162.36420,0.02236
3160.30403,0.02221
3158.24386,0.02200
3156.18368,0.02208
3154.12351,0.02222
3152.06334,0.02223
3150.00317,0.02208
3147.94299,0.02178
3145.88282,0.02177
3143.82265,0.02195
3141.76248,0.02158
3139.70231,0.02106
3137.64213,0.02125
3135.58196,0.02166
3133.52179,0.02143
3131.46162,0.02098
3129.40145,0.02088
3127.34127,0.02071
3125.28110,0.02047
3123.22093,0.02061
3121.16076,0.02084
3119.10058,0.02083
3117.04041,0.02066
3114.98024,0.02021
3112.92007,0.01960
3110.85990,0.01937
3108.79972,0.01959
3106.73955,0.01986
3104.67938,0.02000
3102.61921,0.02014
3100.55904,0.02015
3098.49886,0.02000
3096.43869,0.01970
3094.37852,0.01924
3092.31835,0.01909
3090.25818,0.01927
3088.19800,0.01931
3086.13783,0.01937
3084.07766,0.01950
3082.01749,0.01936
3079.95731,0.01897
3077.89714,0.01862
3075.83697,0.01847
3073.77680,0.01847
3071.71663,0.01851
3069.65645,0.01856
3067.59628,0.01872
3065.53611,0.01871
3063.47594,0.01830
3061.41577,0.01786
3059.35559,0.01763
3057.29542,0.01756
3055.23525,0.01754
3053.17508,0.01766
3051.11491,0.01779
3049.05473,0.01758
3046.99456,0.01730
3044.93439,0.01724
3042.87422,0.01724
3040.81404,0.01714
3038.75387,0.01708
3036.69370,0.01702
3034.63353,0.01670
3032.57336,0.01633
3030.51318,0.01614
3028.45301,0.01614
3026.39284,0.01624
3024.33267,0.01613
3022.27250,0.01587
3020.21232,0.01587
3018.15215,0.01611
3016.09198,0.01621
3014.03181,0.01604
3011.97163,0.01590
3009.91146,0.01576
3007.85129,0.01558
3005.79112,0.01554
3003.73095,0.01555
3001.67077,0.01534
2999.61060,0.01501
2997.55043,0.01497
2995.49026,0.01537
2993.43009,0.01580
2991.36991,0.01590
2989.30974,0.01563
2987.24957,0.01548
2985.18940,0.01571
2983.12923,0.01601
2981.06905,0.01621
2979.00888,0.01635
2976.94871,0.01634
2974.88854,0.01623
2972.82836,0.01644
2970.76819,0.01702
2968.70802,0.01749
2966.64785,0.01772
2964.58768,0.01802
2962.52750,0.01842
2960.46733,0.01886
2958.40716,0.01950
2956.34699,0.02021
2954.28682,0.02062
2952.22664,0.02080
2950.16647,0.02103
2948.10630,0.02148
2946.04613,0.02223
2943.98596,0.02305
2941.92578,0.02374
2939.86561,0.02430
2937.80544,0.02486
2935.74527,0.02572
2933.68509,0.02691
2931.62492,0.02811
2929.56475,0.02910
2927.50458,0.02978
2925.44441,0.03016
2923.38423,0.03058
2921.32406,0.03136
2919.26389,0.03233
2917.20372,0.03276
2915.14355,0.03208
2913.08337,0.03058
2911.02320,0.02914
2908.96303,0.02809
2906.90286,0.02718
2904.84268,0.02637
2902.78251,0.02567
2900.72234,0.02500
2898.66217,0.02435
2896.60200,0.02381
2894.54182,0.02337
2892.48165,0.02314
2890.42148,0.02303
2888.36131,0.02255
2886.30114,0.02173
2884.24096,0.02123
2882.18079,0.02101
2880.12062,0.02076
2878.06045,0.02061
2876.00028,0.02056
2873.94010,0.02049
2871.87993,0.02044
2869.81976,0.02055
2867.75959,0.02078
2865.69941,0.02113
2863.63924,0.02169
2861.57907,0.02236
2859.51890,0.02298
2857.45873,0.02362
2855.39855,0.02444
2853.33838,0.02545
2851.27821,0.02645
2849.21804,0.02683
2847.15787,0.02596
2845.09769,0.02413
2843.03752,0.02225
2840.97735,0.02073
2838.91718,0.01954
2836.85700,0.01860
2834.79683,0.01796
2832.73666,0.01761
2830.67649,0.01722
2828.61632,0.01677
2826.55614,0.01640
2824.49597,0.01595
2822.43580,0.01553
2820.37563,0.01537
2818.31546,0.01548
2816.25528,0.01564
2814.19511,0.01557
2812.13494,0.01523
2810.07477,0.01487
2808.01460,0.01466
2805.95442,0.01458
2803.89425,0.01446
2801.83408,0.01443
2799.77391,0.01458
2797.71373,0.01457
2795.65356,0.01440
2793.59339,0.01433
2791.53322,0.01418
2789.47305,0.01387
2787.41287,0.01363
2785.35270,0.01350
2783.29253,0.01349
2781.23236,0.01361
2779.17219,0.01357
2777.11201,0.01333
2775.05184,0.01318
2772.99167,0.01319
2770.93150,0.01328
2768.87133,0.01328
2766.81115,0.01301
2764.75098,0.01257
2762.69081,0.01227
2760.63064,0.01233
2758.57046,0.01256
2756.51029,0.01271
2754.45012,0.01286
2752.38995,0.01293
2750.32978,0.01279
2748.26960,0.01276
2746.20943,0.01289
2744.14926,0.01297
2742.08909,0.01293
2740.02892,0.01277
2737.96874,0.01269
2735.90857,0.01264
2733.84840,0.01252
2731.78823,0.01255
2729.72805,0.01264
2727.66788,0.01257
2725.60771,0.01244
2723.54754,0.01234
2721.48737,0.01230
2719.42719,0.01235
2717.36702,0.01245
2715.30685,0.01247
2713.24668,0.01238
2711.18651,0.01227
2709.12633,0.01221
2707.06616,0.01211
2705.00599,0.01190
2702.94582,0.01171
2700.88565,0.01169
2698.82547,0.01185
2696.76530,0.01213
2694.70513,0.01228
2692.64496,0.01211
2690.58478,0.01179
2688.52461,0.01140
2686.46444,0.01102
2684.40427,0.01094
2682.34410,0.01115
2680.28392,0.01135
2678.22375,0.01157
2676.16358,0.01181
2674.10341,0.01188
2672.04324,0.01180
2669.98306,0.01176
2667.92289,0.01165
2665.86272,0.01144
2663.80255,0.01138
2661.74238,0.01151
2659.68220,0.01150
2657.62203,0.01133
2655.56186,0.01130
2653.50169,0.01132
2651.44151,0.01127
2649.38134,0.01129
2647.32117,0.01129
2645.26100,0.01114
2643.20083,0.01090
2641.14065,0.01079
2639.08048,0.01080
2637.02031,0.01070
2634.96014,0.01061
2632.89997,0.01068
2630.83979,0.01079
2628.77962,0.01080
2626.71945,0.01056
2624.65928,0.01013
2622.59910,0.00996
2620.53893,0.01021
2618.47876,0.01040
2616.41859,0.01024
2614.35842,0.01011
2612.29824,0.01018
2610.23807,0.01001
2608.17790,0.00959
2606.11773,0.00950
2604.05756,0.00995
2601.99738,0.01031
2599.93721,0.01015
2597.87704,0.00965
2595.81687,0.00944
2593.75670,0.00963
2591.69652,0.00964
2589.63635,0.00938
2587.57618,0.00924
2585.51601,0.00923
2583.45583,0.00927
2581.39566,0.00934
2579.33549,0.00920
2577.27532,0.00881
2575.21515,0.00867
2573.15497,0.00890
2571.09480,0.00910
2569.03463,0.00925
2566.97446,0.00929
2564.91429,0.00922
2562.85411,0.00917
2560.79394,0.00884
2558.73377,0.00839
2556.67360,0.00839
2554.61342,0.00886
2552.55325,0.00929
2550.49308,0.00928
2548.43291,0.00893
2546.37274,0.00868
2544.31256,0.00883
2542.25239,0.00892
2540.19222,0.00877
2538.13205,0.00860
2536.07188,0.00859
2534.01170,0.00871
2531.95153,0.00869
2529.89136,0.00853
2527.83119,0.00823
2525.77102,0.00792
2523.71084,0.00802
2521.65067,0.00849
2519.59050,0.00881
2517.53033,0.00885
2515.47015,0.00897
2513.40998,0.00903
2511.34981,0.00870
2509.28964,0.00827
2507.22947,0.00830
2505.16929,0.00851
2503.10912,0.00822
2501.04895,0.00765
2498.98878,0.00738
2496.92861,0.00755
2494.86843,0.00782
2492.80826,0.00796
2490.74809,0.00795
2488.68792,0.00786
2486.62775,0.00785
2484.56757,0.00787
2482.50740,0.00779
2480.44723,0.00779
2478.38706,0.00786
2476.32688,0.00761
2474.26671,0.00726
2472.20654,0.00709
2470.14637,0.00690
2468.08620,0.00706
2466.02602,0.00766
2463.96585,0.00771
2461.90568,0.00712
2459.84551,0.00705
2457.78534,0.00744
2455.72516,0.00745
2453.66499,0.00699
2451.60482,0.00645
2449.54465,0.00612
2447.48447,0.00608
2445.42430,0.00639
2443.36413,0.00664
2441.30396,0.00643
2439.24379,0.00637
2437.18361,0.00688
2435.12344,0.00724
2433.06327,0.00695
2431.00310,0.00663
2428.94293,0.00692
2426.88275,0.00742
2424.82258,0.00743
2422.76241,0.00720
2420.70224,0.00724
2418.64207,0.00702
2416.58189,0.00625
2414.52172,0.00562
2412.46155,0.00556
2410.40138,0.00604
2408.34120,0.00651
2406.28103,0.00665
2404.22086,0.00668
2402.16069,0.00664
2400.10052,0.00645
2398.04034,0.00628
2395.98017,0.00627
2393.92000,0.00636
2391.85983,0.00647
2389.79966,0.00666
2387.73948,0.00675
2385.67931,0.00651
2383.61914,0.00629
2381.55897,0.00636
2379.49880,0.00628
2377.43862,0.00592
2375.37845,0.00564
2373.31828,0.00542
2371.25811,0.00499
2369.19793,0.00453
2367.13776,0.00460
2365.07759,0.00514
2363.01742,0.00516
2360.95725,0.00505
2358.89707,0.00505
2356.83690,0.00556
2354.77673,0.00596
2352.71656,0.00609
2350.65639,0.00667
2348.59621,0.00666
2346.53604,0.00512
2344.47587,0.00479
2342.41570,0.00518
2340.35552,0.00567
2338.29535,0.00640
2336.23518,0.00690
2334.17501,0.00715
2332.11484,0.00740
2330.05466,0.00747
2327.99449,0.00690
2325.93432,0.00637
2323.87415,0.00621
2321.81398,0.00661
2319.75380,0.00655
2317.69363,0.00616
2315.63346,0.00572
2313.57329,0.00544
2311.51312,0.00521
2309.45294,0.00499
2307.39277,0.00494
2305.33260,0.00506
2303.27243,0.00521
2301.21225,0.00554
2299.15208,0.00609
2297.09191,0.00628
2295.03174,0.00589
2292.97157,0.00541
2290.91139,0.00541
2288.85122,0.00581
2286.79105,0.00607
2284.73088,0.00595
2282.67071,0.00574
2280.61053,0.00564
2278.55036,0.00559
2276.49019,0.00552
2274.43002,0.00537
2272.36984,0.00507
2270.30967,0.00466
2268.24950,0.00446
2266.18933,0.00475
2264.12916,0.00515
2262.06898,0.00525
2260.00881,0.00527
2257.94864,0.00537
2255.88847,0.00519
2253.82830,0.00473
2251.76812,0.00430
2249.70795,0.00410
2247.64778,0.00466
2245.58761,0.00537
2243.52744,0.00518
2241.46726,0.00490
2239.40709,0.00522
2237.34692,0.00536
2235.28675,0.00559
2233.22657,0.00655
2231.16640,0.00644
2229.10623,0.00454
2227.04606,0.00305
2224.98589,0.00292
2222.92571,0.00321
2220.86554,0.00342
2218.80537,0.00375
2216.74520,0.00424
2214.68503,0.00483
2212.62485,0.00523
2210.56468,0.00453
2208.50451,0.00282
2206.44434,0.00202
2204.38417,0.00282
2202.32399,0.00361
2200.26382,0.00387
2198.20365,0.00426
2196.14348,0.00441
2194.08330,0.00434
2192.02313,0.00498
2189.96296,0.00549
2187.90279,0.00436
2185.84262,0.00298
2183.78244,0.00312
2181.72227,0.00406
2179.66210,0.00467
2177.60193,0.00472
2175.54176,0.00442
2173.48158,0.00414
2171.42141,0.00409
2169.36124,0.00402
2167.30107,0.00329
2165.24089,0.00234
2163.18072,0.00216
2161.12055,0.00176
2159.06038,0.00178
2157.00021,0.00273
2154.94003,0.00229
2152.87986,0.00114
2150.81969,0.00043
2148.75952,0.00000
2146.69935,0.00066
2144.63917,0.00209
2142.57900,0.00307
2140.51883,0.00358
2138.45866,0.00334
2136.39849,0.00271
2134.33831,0.00280
2132.27814,0.00332
2130.21797,0.00383
2128.15780,0.00423
2126.09762,0.00447
2124.03745,0.00440
2121.97728,0.00392
2119.91711,0.00345
2117.85694,0.00297
2115.79676,0.00224
2113.73659,0.00174
2111.67642,0.00183
2109.61625,0.00241
2107.55608,0.00339
2105.49590,0.00435
2103.43573,0.00476
2101.37556,0.00455
2099.31539,0.00419
2097.25521,0.00403
2095.19504,0.00398
2093.13487,0.00396
2091.07470,0.00410
2089.01453,0.00426
2086.95435,0.00406
2084.89418,0.00363
2082.83401,0.00347
2080.77384,0.00376
2078.71367,0.00390
2076.65349,0.00338
2074.59332,0.00318
2072.53315,0.00391
2070.47298,0.00447
2068.41281,0.00413
2066.35263,0.00359
2064.29246,0.00323
2062.23229,0.00287
2060.17212,0.00296
2058.11194,0.00316
2056.05177,0.00281
2053.99160,0.00271
2051.93143,0.00357
2049.87126,0.00407
2047.81108,0.00345
2045.75091,0.00327
2043.69074,0.00439
2041.63057,0.00520
2039.57040,0.00468
2037.51022,0.00450
2035.45005,0.00476
2033.38988,0.00405
2031.32971,0.00369
2029.26954,0.00442
2027.20936,0.00471
2025.14919,0.00366
2023.08902,0.00172
2021.02885,0.00081
2018.96867,0.00213
2016.90850,0.00305
2014.84833,0.00166
2012.78816,0.00051
2010.72799,0.00112
2008.66781,0.00225
2006.60764,0.00267
2004.54747,0.00238
2002.48730,0.00174
2000.42713,0.00164
1998.36695,0.00220
1996.30678,0.00252
1994.24661,0.00305
1992.18644,0.00369
1990.12626,0.00321
1988.06609,0.00257
1986.00592,0.00270
1983.94575,0.00307
1981.88558,0.00326
1979.82540,0.00341
1977.76523,0.00308
1975.70506,0.00222
1973.64489,0.00189
1971.58472,0.00191
1969.52454,0.00207
1967.46437,0.00326
1965.40420,0.00490
1963.34403,0.00544
1961.28386,0.00459
1959.22368,0.00297
1957.16351,0.00179
1955.10334,0.00195
1953.04317,0.00232
1950.98299,0.00174
1948.92282,0.00062
1946.86265,0.00000
1944.80248,0.00084
1942.74231,0.00290
1940.68213,0.00409
1938.62196,0.00403
1936.56179,0.00349
1934.50162,0.00273
1932.44145,0.00189
1930.38127,0.00148
1928.32110,0.00197
1926.26093,0.00277
1924.20076,0.00314
1922.14059,0.00243
1920.08041,0.00180
1918.02024,0.00207
1915.96007,0.00178
1913.89990,0.00144
1911.83972,0.00168
1909.77955,0.00187
1907.71938,0.00150
1905.65921,0.00136
1903.59904,0.00195
1901.53886,0.00215
1899.47869,0.00164
1897.41852,0.00158
1895.35835,0.00204
1893.29818,0.00207
1891.23800,0.00216
1889.17783,0.00222
1887.11766,0.00186
1885.05749,0.00189
1882.99731,0.00208
1880.93714,0.00205
1878.87697,0.00203
1876.81680,0.00200
1874.75663,0.00180
1872.69645,0.00155
1870.63628,0.00177
1868.57611,0.00181
1866.51594,0.00098
1864.45577,0.00061
1862.39559,0.00115
1860.33542,0.00171
1858.27525,0.00198
1856.21508,0.00200
1854.15491,0.00168
1852.09473,0.00141
1850.03456,0.00149
1847.97439,0.00151
1845.91422,0.00167
1843.85404,0.00166
1841.79387,0.00069
1839.73370,0.00050
1837.67353,0.00116
1835.61336,0.00123
1833.55318,0.00091
1831.49301,0.00129
1829.43284,0.00150
1827.37267,0.00100
1825.31250,0.00110
1823.25232,0.00113
1821.19215,0.00116
1819.13198,0.00142
1817.07181,0.00127
1815.01163,0.00085
1812.95146,0.00092
1810.89129,0.00117
1808.83112,0.00099
1806.77095,0.00082
1804.71077,0.00104
1802.65060,0.00173
1800.59043,0.00211
1798.53026,0.00136
1796.47009,0.00042
1794.40991,0.00065
1792.34974,0.00146
1790.28957,0.00098
1788.22940,0.00059
1786.16923,0.00118
1784.10905,0.00136
1782.04888,0.00110
1779.98871,0.00068
1777.92854,0.00000
1775.86836,0.00014
1773.80819,0.00139
1771.74802,0.00180
1769.68785,0.00092
1767.62768,0.00058
1765.56750,0.00052
1763.50733,0.00131
1761.44716,0.00214
1759.38699,0.00221
1757.32682,0.00272
1755.26664,0.00279
1753.20647,0.00300
1751.14630,0.00404
1749.08613,0.00470
1747.02596,0.00520
1744.96578,0.00640
1742.90561,0.00839
1740.84544,0.01063
1738.78527,0.01184
1736.72509,0.01321
1734.66492,0.01605
1732.60475,0.01653
1730.54458,0.01590
1728.48441,0.01624
1726.42423,0.01682
1724.36406,0.01720
1722.30389,0.01650
1720.24372,0.01623
1718.18355,0.01713
1716.12337,0.01648
1714.06320,0.01510
1712.00303,0.01477
1709.94286,0.01533
1707.88268,0.01612
1705.82251,0.01616
1703.76234,0.01516
1701.70217,0.01553
1699.64200,0.01546
1697.58182,0.01441
1695.52165,0.01437
1693.46148,0.01334
1691.40131,0.01327
1689.34114,0.01365
1687.28096,0.01386
1685.22079,0.01522
1683.16062,0.01434
1681.10045,0.01212
1679.04028,0.01195
1676.98010,0.01318
1674.91993,0.01372
1672.85976,0.01322
1670.79959,0.01442
1668.73941,0.01503
1666.67924,0.01411
1664.61907,0.01515
1662.55890,0.01708
1660.49873,0.01694
1658.43855,0.01640
1656.37838,0.01793
1654.31821,0.02108
1652.25804,0.01969
1650.19787,0.01657
1648.13769,0.01848
1646.07752,0.02030
1644.01735,0.01911
1641.95718,0.01858
1639.89701,0.01907
1637.83683,0.02053
1635.77666,0.02171
1633.71649,0.02017
1631.65632,0.01941
1629.59614,0.02059
1627.53597,0.02121
1625.47580,0.02141
1623.41563,0.02203
1621.35546,0.02164
1619.29528,0.02235
1617.23511,0.02428
1615.17494,0.02373
1613.11477,0.02270
1611.05460,0.02333
1608.99442,0.02397
1606.93425,0.02385
1604.87408,0.02381
1602.81391,0.02400
1600.75373,0.02371
1598.69356,0.02305
1596.63339,0.02243
1594.57322,0.02165
1592.51305,0.02067
1590.45287,0.01983
1588.39270,0.01915
1586.33253,0.01852
1584.27236,0.01779
1582.21219,0.01676
1580.15201,0.01582
1578.09184,0.01610
1576.03167,0.01576
1573.97150,0.01308
1571.91133,0.01243
1569.85115,0.01354
1567.79098,0.01265
1565.73081,0.01150
1563.67064,0.01090
1561.61046,0.01242
1559.55029,0.01564
1557.49012,0.01310
1555.42995,0.01033
1553.36978,0.01065
1551.30960,0.01170
1549.24943,0.01194
1547.18926,0.01138
1545.12909,0.01155
1543.06892,0.01246
1541.00874,0.01403
1538.94857,0.01286
1536.88840,0.01026
1534.82823,0.01104
1532.76805,0.01184
1530.70788,0.01066
1528.64771,0.01064
1526.58754,0.01075
1524.52737,0.01009
1522.46719,0.01052
1520.40702,0.01025
1518.34685,0.00977
1516.28668,0.01007
1514.22651,0.00940
1512.16633,0.00879
1510.10616,0.00949
1508.04599,0.01163
1505.98582,0.01062
1503.92565,0.00705
1501.86547,0.00617
1499.80530,0.00709
1497.74513,0.00724
1495.68496,0.00548
1493.62478,0.00367
1491.56461,0.00417
1489.50444,0.00483
1487.44427,0.00356
1485.38410,0.00239
1483.32392,0.00260
1481.26375,0.00319
1479.20358,0.00320
1477.14341,0.00352
1475.08324,0.00473
1473.02306,0.00647
1470.96289,0.00685
1468.90272,0.00714
1466.84255,0.00934
1464.78238,0.01114
1462.72220,0.01065
1460.66203,0.01089
1458.60186,0.01317
1456.54169,0.01383
1454.48151,0.01243
1452.42134,0.01272
1450.36117,0.01427
1448.30100,0.01552
1446.24083,0.01569
1444.18065,0.01558
1442.12048,0.01558
1440.06031,0.01557
1438.00014,0.01616
1435.93997,0.01553
1433.87979,0.01347
1431.81962,0.01285
1429.75945,0.01263
1427.69928,0.01172
1425.63910,0.01136
1423.57893,0.01109
1421.51876,0.01111
1419.45859,0.01212
1417.39842,0.01169
1415.33824,0.01075
1413.27807,0.01084
1411.21790,0.01102
1409.15773,0.01079
1407.09756,0.01091
1405.03738,0.01106
1402.97721,0.01043
1400.91704,0.01034
1398.85687,0.01082
1396.79670,0.01104
1394.73652,0.01124
1392.67635,0.01079
1390.61618,0.01088
1388.55601,0.01213
1386.49583,0.01278
1384.43566,0.01267
1382.37549,0.01312
1380.31532,0.01397
1378.25515,0.01469
1376.19497,0.01542
1374.13480,0.01575
1372.07463,0.01522
1370.01446,0.01514
1367.95429,0.01541
1365.89411,0.01550
1363.83394,0.01587
1361.77377,0.01577
1359.71360,0.01534
1357.65343,0.01554
1355.59325,0.01597
1353.53308,0.01615
1351.47291,0.01630
1349.41274,0.01649
1347.35256,0.01653
1345.29239,0.01646
1343.23222,0.01658
1341.17205,0.01714
1339.11188,0.01748
1337.05170,0.01726
1334.99153,0.01734
1332.93136,0.01787
1330.87119,0.01840
1328.81102,0.01877
1326.75084,0.01915
1324.69067,0.01955
1322.63050,0.01988
1320.57033,0.02024
1318.51015,0.02040
1316.44998,0.02024
1314.38981,0.02017
1312.32964,0.02011
1310.26947,0.01994
1308.20929,0.01976
1306.14912,0.01928
1304.08895,0.01842
1302.02878,0.01740
1299.96861,0.01649
1297.90843,0.01565
1295.84826,0.01468
1293.78809,0.01376
1291.72792,0.01321
1289.66775,0.01305
1287.60757,0.01284
1285.54740,0.01235
1283.48723,0.01186
1281.42706,0.01154
1279.36688,0.01136
1277.30671,0.01131
1275.24654,0.01133
1273.18637,0.01140
1271.12620,0.01143
1269.06602,0.01149
1267.00585,0.01169
1264.94568,0.01198
1262.88551,0.01239
1260.82534,0.01285
1258.76516,0.01314
1256.70499,0.01343
1254.64482,0.01377
1252.58465,0.01400
1250.52447,0.01422
1248.46430,0.01446
1246.40413,0.01461
1244.34396,0.01491
1242.28379,0.01548
1240.22361,0.01594
1238.16344,0.01616
1236.10327,0.01633
1234.04310,0.01648
1231.98293,0.01667
1229.92275,0.01717
1227.86258,0.01787
1225.80241,0.01841
1223.74224,0.01877
1221.68207,0.01913
1219.62189,0.01953
1217.56172,0.01970
1215.50155,0.01974
1213.44138,0.01997
1211.38120,0.02035
1209.32103,0.02067
1207.26086,0.02099
1205.20069,0.02141
1203.14052,0.02175
1201.08034,0.02196
1199.02017,0.02210
1196.96000,0.02214
1194.89983,0.02225
1192.83966,0.02251
1190.77948,0.02253
1188.71931,0.02227
1186.65914,0.02193
1184.59897,0.02150
1182.53880,0.02107
1180.47862,0.02085
1178.41845,0.02087
1176.35828,0.02078
1174.29811,0.02057
1172.23793,0.02054
1170.17776,0.02055
1168.11759,0.02049
1166.05742,0.02046
1163.99725,0.02036
1161.93707,0.02014
1159.87690,0.01971
1157.81673,0.01919
1155.75656,0.01888
1153.69639,0.01863
1151.63621,0.01804
1149.57604,0.01716
1147.51587,0.01644
1145.45570,0.01601
1143.39552,0.01562
1141.33535,0.01523
1139.27518,0.01483
1137.21501,0.01443
1135.15484,0.01422
1133.09466,0.01408
1131.03449,0.01388
1128.97432,0.01393
1126.91415,0.01419
1124.85398,0.01464
1122.79380,0.01528
1120.73363,0.01589
1118.67346,0.01659
1116.61329,0.01742
1114.55312,0.01825
1112.49294,0.01928
1110.43277,0.02050
1108.37260,0.02160
1106.31243,0.02259
1104.25225,0.02359
1102.19208,0.02446
1100.13191,0.02510
1098.07174,0.02568
1096.01157,0.02632
1093.95139,0.02704
1091.89122,0.02775
1089.83105,0.02837
1087.77088,0.02896
1085.71071,0.02962
1083.65053,0.03051
1081.59036,0.03142
1079.53019,0.03211
1077.47002,0.03287
1075.40985,0.03376
1073.34967,0.03456
1071.28950,0.03512
1069.22933,0.03547
1067.16916,0.03583
1065.10898,0.03626
1063.04881,0.03671
1060.98864,0.03719
1058.92847,0.03783
1056.86830,0.03838
1054.80812,0.03847
1052.74795,0.03859
1050.68778,0.03913
1048.62761,0.03965
1046.56744,0.04008
1044.50726,0.04079
1042.44709,0.04171
1040.38692,0.04273
1038.32675,0.04380
1036.26657,0.04474
1034.20640,0.04545
1032.14623,0.04617
1030.08606,0.04700
1028.02589,0.04751
1025.96571,0.04757
1023.90554,0.04756
1021.84537,0.04763
1019.78520,0.04763
1017.72503,0.04766
1015.66485,0.04762
1013.60468,0.04714
1011.54451,0.04632
1009.48434,0.04553
1007.42417,0.04475
1005.36399,0.04375
1003.30382,0.04262
1001.24365,0.04139
999.18348,0.04017
997.12330,0.03922
995.06313,0.03839
993.00296,0.03750
990.94279,0.03651
988.88262,0.03541
986.82244,0.03415
984.76227,0.03273
982.70210,0.03120
980.64193,0.02966
978.58176,0.02824
976.52158,0.02697
974.46141,0.02581
972.40124,0.02486
970.34107,0.02397
968.28089,0.02297
966.22072,0.02211
964.16055,0.02161
962.10038,0.02097
960.04021,0.02007
957.98003,0.01936
955.91986,0.01873
953.85969,0.01784
951.79952,0.01693
949.73935,0.01643
947.67917,0.01587
945.61900,0.01475
943.55883,0.01353
941.49866,0.01284
939.43849,0.01235
937.37831,0.01165
935.31814,0.01093
933.25797,0.01035
931.19780,0.01009
929.13762,0.01009
927.07745,0.00988
925.01728,0.00928
922.95711,0.00845
920.89694,0.00782
918.83676,0.00758
916.77659,0.00726
914.71642,0.00657
912.65625,0.00592
910.59608,0.00541
908.53590,0.00469
906.47573,0.00409
904.41556,0.00398
902.35539,0.00418
900.29522,0.00451
898.23504,0.00449
896.17487,0.00399
894.11470,0.00379
892.05453,0.00411
889.99435,0.00424
887.93418,0.00390
885.87401,0.00358
883.81384,0.00367
881.75367,0.00402
879.69349,0.00422
877.63332,0.00407
875.57315,0.00381
873.51298,0.00362
871.45281,0.00350
869.39263,0.00362
867.33246,0.00394
865.27229,0.00407
863.21212,0.00365
861.15194,0.00270
859.09177,0.00168
857.03160,0.00101
854.97143,0.00081
852.91126,0.00074
850.85108,0.00049
848.79091,0.00019
846.73074,0.00000
844.67057,-0.00003
842.61040,0.00012
840.55022,0.00029
838.49005,0.00032
836.42988,0.00039
834.36971,0.00065
832.30954,0.00089
830.24936,0.00105
828.18919,0.00122
826.12902,0.00131
824.06885,0.00118
822.00867,0.00094
819.94850,0.00105
817.88833,0.00141
815.82816,0.00133
813.76799,0.00068
811.70781,0.00044
809.64764,0.00095
807.58747,0.00123
805.52730,0.00100
803.46713,0.00073
801.40695,0.00051
799.34678,0.00022
797.28661,0.00000
795.22644,-0.00015
793.16627,0.00005
791.10609,0.00054
789.04592,0.00107
786.98575,0.00113
784.92558,0.00058
782.86540,0.00034
780.80523,0.00106
778.74506,0.00176
776.68489,0.00190
774.62472,0.00207
772.56454,0.00230
770.50437,0.00246
768.44420,0.00272
766.38403,0.00304
764.32386,0.00370
762.26368,0.00470
760.20351,0.00567
758.14334,0.00646
756.08317,0.00680
754.02299,0.00648
751.96282,0.00598
749.90265,0.00571
747.84248,0.00538
745.78231,0.00501
743.72213,0.00476
741.66196,0.00425
739.60179,0.00337
737.54162,0.00278
735.48145,0.00270
733.42127,0.00253
731.36110,0.00224
729.30093,0.00214
727.24076,0.00211
725.18059,0.00260
723.12041,0.00369
721.06024,0.00410
719.00007,0.00377
716.93990,0.00335
714.87972,0.00331
712.81955,0.00313
710.75938,0.00248
708.69921,0.00191
706.63904,0.00219
704.57886,0.00303
702.51869,0.00306
700.45852,0.00210
698.39835,0.00094
696.33818,0.00000
694.27800,-0.00010
692.21783,0.00108
690.15766,0.00247
688.09749,0.00281
686.03731,0.00181
683.97714,-0.00024
681.91697,-0.00185
679.85680,-0.00158
677.79663,-0.00012
675.73645,0.00070
673.67628,0.00070
671.61611,0.00144
669.55594,0.00169
667.49577,0.00065
665.43559,0.00204
663.37542,0.00126
661.31525,0.00021
659.25508,-0.00151
657.19491,-0.00288
655.13473,-0.00199
653.07456,0.00083
651.01439,0.00300
648.95422,0.00284
646.89404,0.00175
644.83387,0.00123
642.77370,0.00084
640.71353,0.00000
638.65336,-0.00015
636.59318,0.00101
634.53301,0.00162
632.47284,0.00039
630.41267,-0.00110
628.35250,-0.00143
626.29232,-0.00153
624.23215,-0.00133
622.17198,0.00096
620.11181,0.00303
618.05164,0.00215
615.99146,-0.00119
613.93129,-0.00435
611.87112,-0.00459
609.81095,-0.00126
607.75077,0.00137
605.69060,0.00012
603.63043,-0.00171
601.57026,-0.00136
599.51009,0.00000
