3996.73391,-0.00020
3994.67373,-0.00032
3992.61356,-0.00030
3990.55339,-0.00024
3988.49322,-0.00023
3986.43305,-0.00024
3984.37287,-0.00004
3982.31270,0.00021
3980.25253,0.00013
3978.19236,-0.00030
3976.13219,-0.00039
3974.07201,0.00018
3972.01184,0.00070
3969.95167,0.00066
3967.89150,0.00045
3965.83133,0.00040
3963.77115,0.00041
3961.71098,0.00053
3959.65081,0.00081
3957.59064,0.00093
3955.53046,0.00081
3953.47029,0.00047
3951.41012,0.00007
3949.34995,0.00000
3947.28978,0.00053
3945.22960,0.00080
3943.16943,0.00055
3941.10926,0.00082
3939.04909,0.00140
3936.98892,0.00177
3934.92874,0.00153
3932.86857,0.00072
3930.80840,0.00053
3928.74823,0.00106
3926.68805,0.00119
3924.62788,0.00129
3922.56771,0.00206
3920.50754,0.00225
3918.44737,0.00173
3916.38719,0.00165
3914.32702,0.00181
3912.26685,0.00152
3910.20668,0.00146
3908.14651,0.00166
3906.08633,0.00125
3904.02616,0.00109
3901.96599,0.00160
3899.90582,0.00169
3897.84565,0.00234
3895.78547,0.00308
3893.72530,0.00243
3891.66513,0.00181
3889.60496,0.00254
3887.54478,0.00218
3885.48461,0.00137
3883.42444,0.00170
3881.36427,0.00111
3879.30410,0.00151
3877.24392,0.00299
3875.18375,0.00321
3873.12358,0.00316
3871.06341,0.00262
3869.00324,0.00271
3866.94306,0.00308
3864.88289,0.00206
3862.82272,0.00198
3860.76255,0.00299
3858.70237,0.00359
3856.64220,0.00254
3854.58203,0.00000
3852.52186,0.00024
3850.46169,0.00317
3848.40151,0.00446
3846.34134,0.00411
3844.28117,0.00351
3842.22100,0.00333
3840.16083,0.00276
3838.10065,0.00230
3836.04048,0.00309
3833.98031,0.00349
3831.92014,0.00321
3829.85997,0.00337
3827.79979,0.00352
3825.73962,0.00401
3823.67945,0.00374
3821.61928,0.00250
3819.55910,0.00359
3817.49893,0.00389
3815.43876,0.00327
3813.37859,0.00409
3811.31842,0.00410
3809.25824,0.00254
3807.19807,0.00167
3805.13790,0.00305
3803.07773,0.00284
3801.01756,0.00198
3798.95738,0.00276
3796.89721,0.00267
3794.83704,0.00277
3792.77687,0.00301
3790.71670,0.00270
3788.65652,0.00238
3786.59635,0.00215
3784.53618,0.00241
3782.47601,0.00267
3780.41583,0.00175
3778.35566,0.00131
3776.29549,0.00198
3774.23532,0.00239
3772.17515,0.00207
3770.11497,0.00164
3768.05480,0.00192
3765.99463,0.00226
3763.93446,0.00317
3761.87429,0.00345
3759.81411,0.00257
3757.75394,0.00265
3755.69377,0.00343
3753.63360,0.00280
3751.57342,0.00162
3749.51325,0.00269
3747.45308,0.00346
3745.39291,0.00148
3743.33274,0.00159
3741.27256,0.00393
3739.21239,0.00445
3737.15222,0.00277
3735.09205,0.00122
3733.03188,0.00167
3730.97170,0.00290
3728.91153,0.00309
3726.85136,0.00239
3724.79119,0.00254
3722.73102,0.00277
3720.67084,0.00237
3718.61067,0.00219
3716.55050,0.00247
3714.49033,0.00177
3712.43015,0.00000
3710.36998,0.00008
3708.30981,0.00242
3706.24964,0.00412
3704.18947,0.00386
3702.12929,0.00294
3700.06912,0.00305
3698.00895,0.00315
3695.94878,0.00299
3693.88861,0.00320
3691.82843,0.00291
3689.76826,0.00230
3687.70809,0.00302
3685.64792,0.00411
3683.58775,0.00417
3681.52757,0.00399
3679.46740,0.00378
3677.40723,0.00241
3675.34706,0.00166
3673.28688,0.00352
3671.22671,0.00330
3669.16654,0.00283
3667.10637,0.00420
3665.04620,0.00457
3662.98602,0.00426
3660.92585,0.00435
3658.86568,0.00430
3656.80551,0.00442
3654.74534,0.00594
3652.68516,0.00616
3650.62499,0.00417
3648.56482,0.00406
3646.50465,0.00626
3644.44447,0.00747
3642.38430,0.00689
3640.32413,0.00609
3638.26396,0.00590
3636.20379,0.00607
3634.14361,0.00640
3632.08344,0.00651
3630.02327,0.00550
3627.96310,0.00607
3625.90293,0.00835
3623.84275,0.00909
3621.78258,0.00842
3619.72241,0.00791
3617.66224,0.00884
3615.60207,0.00954
3613.54189,0.00929
3611.48172,0.00960
3609.42155,0.00975
3607.36138,0.00990
3605.30120,0.01055
3603.24103,0.01063
3601.18086,0.01051
3599.12069,0.01093
3597.06052,0.01119
3595.00034,0.01135
3592.94017,0.01239
3590.88000,0.01330
3588.81983,0.01292
3586.75966,0.01285
3584.69948,0.01369
3582.63931,0.01384
3580.57914,0.01361
3578.51897,0.01373
3576.45879,0.01431
3574.39862,0.01526
3572.33845,0.01621
3570.27828,0.01639
3568.21811,0.01579
3566.15793,0.01605
3564.09776,0.01742
3562.03759,0.01814
3559.97742,0.01837
3557.91725,0.01889
3555.85707,0.01923
3553.79690,0.01906
3551.73673,0.01924
3549.67656,0.01989
3547.61639,0.02001
3545.55621,0.02003
3543.49604,0.02070
3541.43587,0.02163
3539.37570,0.02224
3537.31552,0.02258
3535.25535,0.02340
3533.19518,0.02455
3531.13501,0.02506
3529.07484,0.02500
3527.01466,0.02498
3524.95449,0.02516
3522.89432,0.02583
3520.83415,0.02699
3518.77398,0.02772
3516.71380,0.02779
3514.65363,0.02765
3512.59346,0.02787
3510.53329,0.02849
3508.47312,0.02926
3506.41294,0.02979
3504.35277,0.02996
3502.29260,0.03057
3500.23243,0.03131
3498.17225,0.03140
3496.11208,0.03129
3494.05191,0.03152
3491.99174,0.03198
3489.93157,0.03252
3487.87139,0.03306
3485.81122,0.03344
3483.75105,0.03349
3481.69088,0.03380
3479.63071,0.03474
3477.57053,0.03526
3475.51036,0.03529
3473.45019,0.03587
3471.39002,0.03682
3469.32984,0.03726
3467.26967,0.03748
3465.20950,0.03793
3463.14933,0.03810
3461.08916,0.03814
3459.02898,0.03864
3456.96881,0.03938
3454.90864,0.03996
3452.84847,0.04036
3450.78830,0.04078
3448.72812,0.04106
3446.66795,0.04148
3444.60778,0.04217
3442.54761,0.04243
3440.48744,0.04269
3438.42726,0.04323
3436.36709,0.04372
3434.30692,0.04413
3432.24675,0.04447
3430.18657,0.04486
3428.12640,0.04535
3426.06623,0.04581
3424.00606,0.04613
3421.94589,0.04633
3419.88571,0.04671
3417.82554,0.04719
3415.76537,0.04753
3413.70520,0.04791
3411.64503,0.04824
3409.58485,0.04844
3407.52468,0.04849
3405.46451,0.04874
3403.40434,0.04939
3401.34416,0.04993
3399.28399,0.05016
3397.22382,0.05032
3395.16365,0.05038
3393.10348,0.05036
3391.04330,0.05059
3388.98313,0.05081
3386.92296,0.05085
3384.86279,0.05125
3382.80262,0.05197
3380.74244,0.05250
3378.68227,0.05291
3376.62210,0.05311
3374.56193,0.05307
3372.50176,0.05321
3370.44158,0.05347
3368.38141,0.05364
3366.32124,0.05409
3364.26107,0.05456
3362.20089,0.05446
3360.14072,0.05418
3358.08055,0.05420
3356.02038,0.05463
3353.96021,0.05531
3351.90003,0.05565
3349.83986,0.05549
3347.77969,0.05542
3345.71952,0.05569
3343.65935,0.05606
3341.59917,0.05625
3339.53900,0.05645
3337.47883,0.05676
3335.41866,0.05699
3333.35849,0.05686
3331.29831,0.05648
3329.23814,0.05643
3327.17797,0.05687
3325.11780,0.05728
3323.05762,0.05747
3320.99745,0.05770
3318.93728,0.05782
3316.87711,0.05758
3314.81694,0.05747
3312.75676,0.05767
3310.69659,0.05785
3308.63642,0.05815
3306.57625,0.05850
3304.51608,0.05853
3302.45590,0.05850
3300.39573,0.05846
3298.33556,0.05817
3296.27539,0.05785
3294.21521,0.05792
3292.15504,0.05827
3290.09487,0.05849
3288.03470,0.05856
3285.97453,0.05870
3283.91435,0.05868
3281.85418,0.05851
3279.79401,0.05864
3277.73384,0.05896
3275.67367,0.05914
3273.61349,0.05910
3271.55332,0.05889
3269.49315,0.05857
3267.43298,0.05817
3265.37281,0.05774
3263.31263,0.05754
3261.25246,0.05775
3259.19229,0.05805
3257.13212,0.05793
3255.07194,0.05745
3253.01177,0.05709
3250.95160,0.05682
3248.89143,0.05661
3246.83126,0.05668
3244.77108,0.05673
3242.71091,0.05651
3240.65074,0.05624
3238.59057,0.05603
3236.53040,0.05574
3234.47022,0.05557
3232.41005,0.05557
3230.34988,0.05564
3228.28971,0.05575
3226.22954,0.05564
3224.16936,0.05515
3222.10919,0.05471
3220.04902,0.05460
3217.98885,0.05451
3215.92867,0.05438
3213.86850,0.05445
3211.80833,0.05462
3209.74816,0.05436
3207.68799,0.05376
3205.62781,0.05335
3203.56764,0.05334
3201.50747,0.05329
3199.44730,0.05283
3197.38713,0.05242
3195.32695,0.05238
3193.26678,0.05228
3191.20661,0.05194
3189.14644,0.05167
3187.08626,0.05149
3185.02609,0.05134
3182.96592,0.05135
3180.90575,0.05136
3178.84558,0.05131
3176.78540,0.05132
3174.72523,0.05113
3172.66506,0.05056
3170.60489,0.04984
3168.54472,0.04918
3166.48454,0.04883
3164.42437,0.04877
3162.36420,0.04856
3160.30403,0.04827
3158.24386,0.04819
3156.18368,0.04795
3154.12351,0.04737
3152.06334,0.04687
3150.00317,0.04664
3147.94299,0.04638
3145.88282,0.04605
3143.82265,0.04590
3141.76248,0.04581
3139.70231,0.04557
3137.64213,0.04534
3135.58196,0.04521
3133.52179,0.04496
3131.46162,0.04453
3129.40145,0.04410
3127.34127,0.04394
3125.28110,0.04380
3123.22093,0.04342
3121.16076,0.04326
3119.10058,0.04329
3117.04041,0.04294
3114.98024,0.04245
3112.92007,0.04224
3110.85990,0.04203
3108.79972,0.04184
3106.73955,0.04183
3104.67938,0.04182
3102.61921,0.04156
3100.55904,0.04122
3098.49886,0.04110
3096.43869,0.04085
3094.37852,0.04034
3092.31835,0.03991
3090.25818,0.03974
3088.19800,0.03978
3086.13783,0.03998
3084.07766,0.04008
3082.01749,0.03994
3079.95731,0.03974
3077.89714,0.03934
3075.83697,0.03867
3073.77680,0.03823
3071.71663,0.03831
3069.65645,0.03845
3067.59628,0.03830
3065.53611,0.03787
3063.47594,0.03721
3061.41577,0.03673
3059.35559,0.03664
3057.29542,0.03654
3055.23525,0.03635
3053.17508,0.03627
3051.11491,0.03616
3049.05473,0.03590
3046.99456,0.03564
3044.93439,0.03544
3042.87422,0.03516
3040.81404,0.03469
3038.75387,0.03421
3036.69370,0.03390
3034.63353,0.03364
3032.57336,0.03329
3030.51318,0.03293
3028.45301,0.03267
3026.39284,0.03249
3024.33267,0.03250
3022.27250,0.03253
3020.21232,0.03227
3018.15215,0.03190
3016.09198,0.03161
3014.03181,0.03137
3011.97163,0.03141
3009.91146,0.03179
3007.85129,0.03206
3005.79112,0.03191
3003.73095,0.03144
3001.67077,0.03087
2999.61060,0.03049
2997.55043,0.03042
2995.49026,0.03053
2993.43009,0.03069
2991.36991,0.03069
2989.30974,0.03065
2987.24957,0.03083
2985.18940,0.03106
2983.12923,0.03124
2981.06905,0.03157
2979.00888,0.03207
2976.94871,0.03258
2974.88854,0.03312
2972.82836,0.03373
2970.76819,0.03448
2968.70802,0.03534
2966.64785,0.03615
2964.58768,0.03710
2962.52750,0.03818
2960.46733,0.03925
2958.40716,0.04037
2956.34699,0.04147
2954.28682,0.04238
2952.22664,0.04323
2950.16647,0.04423
2948.10630,0.04543
2946.04613,0.04690
2943.98596,0.04859
2941.92578,0.05055
2939.86561,0.05289
2937.80544,0.05537
2935.74527,0.05780
2933.68509,0.06018
2931.62492,0.06257
2929.56475,0.06504
2927.50458,0.06735
2925.44441,0.06912
2923.38423,0.07051
2921.32406,0.07189
2919.26389,0.07298
2917.20372,0.07294
2915.14355,0.07105
2913.08337,0.06759
2911.02320,0.06376
2908.96303,0.06059
2906.90286,0.05840
2904.84268,0.05667
2902.78251,0.05491
2900.72234,0.05338
2898.66217,0.05226
2896.60200,0.05128
2894.54182,0.05004
2892.48165,0.04862
2890.42148,0.04733
2888.36131,0.04617
2886.30114,0.04512
2884.24096,0.04435
2882.18079,0.04368
2880.12062,0.04313
2878.06045,0.04291
2876.00028,0.04292
2873.94010,0.04311
2871.87993,0.04347
2869.81976,0.04380
2867.75959,0.04423
2865.69941,0.04500
2863.63924,0.04612
2861.57907,0.04757
2859.51890,0.04936
2857.45873,0.05145
2855.39855,0.05384
2853.33838,0.05634
2851.27821,0.05839
2849.21804,0.05860
2847.15787,0.05561
2845.09769,0.05048
2843.03752,0.04568
2840.97735,0.04211
2838.91718,0.03955
2836.85700,0.03780
2834.79683,0.03636
2832.73666,0.03490
2830.67649,0.03364
2828.61632,0.03276
2826.55614,0.03222
2824.49597,0.03178
2822.43580,0.03127
2820.37563,0.03076
2818.31546,0.03037
2816.25528,0.03006
2814.19511,0.02978
2812.13494,0.02959
2810.07477,0.02923
2808.01460,0.02870
2805.95442,0.02840
2803.89425,0.02826
2801.83408,0.02805
2799.77391,0.02784
2797.71373,0.02748
2795.65356,0.02713
2793.59339,0.02708
2791.53322,0.02704
2789.47305,0.02679
2787.41287,0.02643
2785.35270,0.02603
2783.29253,0.02570
2781.23236,0.02551
2779.17219,0.02532
2777.11201,0.02511
2775.05184,0.02504
2772.99167,0.02496
2770.93150,0.02483
2768.87133,0.02487
2766.81115,0.02496
2764.75098,0.02489
2762.69081,0.02470
2760.63064,0.02445
2758.57046,0.02429
2756.51029,0.02415
2754.45012,0.02388
2752.38995,0.02366
2750.32978,0.02368
2748.26960,0.02382
2746.20943,0.02393
2744.14926,0.02397
2742.08909,0.02389
2740.02892,0.02371
2737.96874,0.02364
2735.90857,0.02362
2733.84840,0.02337
2731.78823,0.02315
2729.72805,0.02321
2727.66788,0.02343
2725.60771,0.02349
2723.54754,0.02327
2721.48737,0.02297
2719.42719,0.02285
2717.36702,0.02290
2715.30685,0.02287
2713.24668,0.02268
2711.18651,0.02252
2709.12633,0.02251
2707.06616,0.02250
2705.00599,0.02238
2702.94582,0.02233
2700.88565,0.02247
2698.82547,0.02251
2696.76530,0.02230
2694.70513,0.02203
2692.64496,0.02187
2690.58478,0.02174
2688.52461,0.02164
2686.46444,0.02158
2684.40427,0.02132
2682.34410,0.02095
2680.28392,0.02088
2678.22375,0.02098
2676.16358,0.02092
2674.10341,0.02078
2672.04324,0.02074
2669.98306,0.02076
2667.92289,0.02079
2665.86272,0.02069
2663.80255,0.02044
2661.74238,0.02032
2659.68220,0.02032
2657.62203,0.02023
2655.56186,0.02025
2653.50169,0.02034
2651.44151,0.02008
2649.38134,0.01973
2647.32117,0.01969
2645.26100,0.01957
2643.20083,0.01924
2641.14065,0.01916
2639.08048,0.01931
2637.02031,0.01932
2634.96014,0.01913
2632.89997,0.01876
2630.83979,0.01837
2628.77962,0.01834
2626.71945,0.01853
2624.65928,0.01847
2622.59910,0.01824
2620.53893,0.01814
2618.47876,0.01824
2616.41859,0.01835
2614.35842,0.01802
2612.29824,0.01741
2610.23807,0.01726
2608.17790,0.01758
2606.11773,0.01770
2604.05756,0.01757
2601.99738,0.01742
2599.93721,0.01717
2597.87704,0.01686
2595.81687,0.01640
2593.75670,0.01590
2591.69652,0.01573
2589.63635,0.01575
2587.57618,0.01579
2585.51601,0.01602
2583.45583,0.01637
2581.39566,0.01652
2579.33549,0.01636
2577.27532,0.01628
2575.21515,0.01656
2573.15497,0.01660
2571.09480,0.01612
2569.03463,0.01581
2566.97446,0.01575
2564.91429,0.01532
2562.85411,0.01479
2560.79394,0.01509
2558.73377,0.01565
2556.67360,0.01536
2554.61342,0.01475
2552.55325,0.01449
2550.49308,0.01444
2548.43291,0.01437
2546.37274,0.01458
2544.31256,0.01507
2542.25239,0.01528
2540.19222,0.01499
2538.13205,0.01446
2536.07188,0.01424
2534.01170,0.01437
2531.95153,0.01426
2529.89136,0.01391
2527.83119,0.01383
2525.77102,0.01398
2523.71084,0.01405
2521.65067,0.01364
2519.59050,0.01306
2517.53033,0.01336
2515.47015,0.01408
2513.40998,0.01423
2511.34981,0.01418
2509.28964,0.01405
2507.22947,0.01340
2505.16929,0.01265
2503.10912,0.01215
2501.04895,0.01193
2498.98878,0.01221
2496.92861,0.01291
2494.86843,0.01323
2492.80826,0.01277
2490.74809,0.01236
2488.68792,0.01225
2486.62775,0.01210
2484.56757,0.01229
2482.50740,0.01277
2480.44723,0.01281
2478.38706,0.01263
2476.32688,0.01254
2474.26671,0.01239
2472.20654,0.01226
2470.14637,0.01210
2468.08620,0.01178
2466.02602,0.01148
2463.96585,0.01159
2461.90568,0.01188
2459.84551,0.01177
2457.78534,0.01156
2455.72516,0.01146
2453.66499,0.01111
2451.60482,0.01094
2449.54465,0.01123
2447.48447,0.01130
2445.42430,0.01111
2443.36413,0.01113
2441.30396,0.01131
2439.24379,0.01145
2437.18361,0.01164
2435.12344,0.01173
2433.06327,0.01142
2431.00310,0.01102
2428.94293,0.01085
2426.88275,0.01060
2424.82258,0.01045
2422.76241,0.01081
2420.70224,0.01115
2418.64207,0.01111
2416.58189,0.01119
2414.52172,0.01121
2412.46155,0.01061
2410.40138,0.00994
2408.34120,0.00989
2406.28103,0.01014
2404.22086,0.01025
2402.16069,0.01030
2400.10052,0.01035
2398.04034,0.01008
2395.98017,0.00983
2393.92000,0.00974
2391.85983,0.00982
2389.79966,0.00982
2387.73948,0.00959
2385.67931,0.00939
2383.61914,0.00941
2381.55897,0.00948
2379.49880,0.00944
2377.43862,0.00927
2375.37845,0.00891
2373.31828,0.00812
2371.25811,0.00706
2369.19793,0.00644
2367.13776,0.00640
2365.07759,0.00641
2363.01742,0.00643
2360.95725,0.00613
2358.89707,0.00641
2356.83690,0.00716
2354.77673,0.00809
2352.71656,0.00862
2350.65639,0.00819
2348.59621,0.00801
2346.53604,0.00933
2344.47587,0.00945
2342.41570,0.00869
2340.35552,0.00804
2338.29535,0.00769
2336.23518,0.00759
2334.17501,0.00724
2332.11484,0.00669
2330.05466,0.00654
2327.99449,0.00732
2325.93432,0.00809
2323.87415,0.00878
2321.81398,0.00937
2319.75380,0.01004
2317.69363,0.01022
2315.63346,0.01004
2313.57329,0.00936
2311.51312,0.00841
2309.45294,0.00795
2307.39277,0.00807
2305.33260,0.00804
2303.27243,0.00760
2301.21225,0.00737
2299.15208,0.00760
2297.09191,0.00794
2295.03174,0.00806
2292.97157,0.00808
2290.91139,0.00818
2288.85122,0.00832
2286.79105,0.00849
2284.73088,0.00862
2282.67071,0.00846
2280.61053,0.00801
2278.55036,0.00759
2276.49019,0.00754
2274.43002,0.00768
2272.36984,0.00768
2270.30967,0.00755
2268.24950,0.00720
2266.18933,0.00690
2264.12916,0.00700
2262.06898,0.00717
2260.00881,0.00730
2257.94864,0.00721
2255.88847,0.00629
2253.82830,0.00504
2251.76812,0.00439
2249.70795,0.00449
2247.64778,0.00593
2245.58761,0.00780
2243.52744,0.00798
2241.46726,0.00718
2239.40709,0.00681
2237.34692,0.00640
2235.28675,0.00579
2233.22657,0.00548
2231.16640,0.00530
2229.10623,0.00516
2227.04606,0.00527
2224.98589,0.00605
2222.92571,0.00663
2220.86554,0.00582
2218.80537,0.00517
2216.74520,0.00564
2214.68503,0.00555
2212.62485,0.00429
2210.56468,0.00349
2208.50451,0.00428
2206.44434,0.00575
2204.38417,0.00631
2202.32399,0.00582
2200.26382,0.00533
2198.20365,0.00532
2196.14348,0.00572
2194.08330,0.00590
2192.02313,0.00470
2189.96296,0.00367
2187.90279,0.00525
2185.84262,0.00754
2183.78244,0.00791
2181.72227,0.00594
2179.66210,0.00431
2177.60193,0.00566
2175.54176,0.00809
2173.48158,0.00895
2171.42141,0.00752
2169.36124,0.00532
2167.30107,0.00414
2165.24089,0.00410
2163.18072,0.00447
2161.12055,0.00398
2159.06038,0.00280
2157.00021,0.00241
2154.94003,0.00293
2152.87986,0.00382
2150.81969,0.00418
2148.75952,0.00354
2146.69935,0.00295
2144.63917,0.00320
2142.57900,0.00391
2140.51883,0.00460
2138.45866,0.00456
2136.39849,0.00394
2134.33831,0.00411
2132.27814,0.00479
2130.21797,0.00497
2128.15780,0.00491
2126.09762,0.00503
2124.03745,0.00544
2121.97728,0.00589
2119.91711,0.00593
2117.85694,0.00543
2115.79676,0.00499
2113.73659,0.00462
2111.67642,0.00406
2109.61625,0.00376
2107.55608,0.00414
2105.49590,0.00479
2103.43573,0.00495
2101.37556,0.00494
2099.31539,0.00533
2097.25521,0.00538
2095.19504,0.00470
2093.13487,0.00437
2091.07470,0.00459
2089.01453,0.00431
2086.95435,0.00368
2084.89418,0.00368
2082.83401,0.00437
2080.77384,0.00515
2078.71367,0.00599
2076.65349,0.00656
2074.59332,0.00598
2072.53315,0.00460
2070.47298,0.00357
2068.41281,0.00341
2066.35263,0.00364
2064.29246,0.00354
2062.23229,0.00356
2060.17212,0.00386
2058.11194,0.00380
2056.05177,0.00383
2053.99160,0.00409
2051.93143,0.00397
2049.87126,0.00340
2047.81108,0.00276
2045.75091,0.00281
2043.69074,0.00348
2041.63057,0.00387
2039.57040,0.00376
2037.51022,0.00341
2035.45005,0.00322
2033.38988,0.00312
2031.32971,0.00295
2029.26954,0.00270
2027.20936,0.00240
2025.14919,0.00221
2023.08902,0.00239
2021.02885,0.00280
2018.96867,0.00198
2016.90850,0.00029
2014.84833,0.00000
2012.78816,0.00064
2010.72799,0.00088
2008.66781,0.00068
2006.60764,0.00060
2004.54747,0.00109
2002.48730,0.00205
2000.42713,0.00278
1998.36695,0.00262
1996.30678,0.00176
1994.24661,0.00080
1992.18644,0.00065
1990.12626,0.00148
1988.06609,0.00135
1986.00592,0.00079
1983.94575,0.00134
1981.88558,0.00194
1979.82540,0.00181
1977.76523,0.00230
1975.70506,0.00376
1973.64489,0.00442
1971.58472,0.00400
1969.52454,0.00352
1967.46437,0.00321
1965.40420,0.00303
1963.34403,0.00240
1961.28386,0.00163
1959.22368,0.00156
1957.16351,0.00190
1955.10334,0.00225
1953.04317,0.00259
1950.98299,0.00332
1948.92282,0.00449
1946.86265,0.00494
1944.80248,0.00387
1942.74231,0.00259
1940.68213,0.00269
1938.62196,0.00282
1936.56179,0.00223
1934.50162,0.00186
1932.44145,0.00193
1930.38127,0.00223
1928.32110,0.00257
1926.26093,0.00251
1924.20076,0.00180
1922.14059,0.00171
1920.08041,0.00233
1918.02024,0.00248
1915.96007,0.00254
1913.89990,0.00227
1911.83972,0.00168
1909.77955,0.00120
1907.71938,0.00112
1905.65921,0.00125
1903.59904,0.00148
1901.53886,0.00194
1899.47869,0.00224
1897.41852,0.00210
1895.35835,0.00188
1893.29818,0.00197
1891.23800,0.00190
1889.17783,0.00201
1887.11766,0.00245
1885.05749,0.00230
1882.99731,0.00191
1880.93714,0.00178
1878.87697,0.00193
1876.81680,0.00213
1874.75663,0.00194
1872.69645,0.00153
1870.63628,0.00109
1868.57611,0.00111
1866.51594,0.00182
1864.45577,0.00202
1862.39559,0.00152
1860.33542,0.00118
1858.27525,0.00114
1856.21508,0.00109
1854.15491,0.00110
1852.09473,0.00133
1850.03456,0.00146
1847.97439,0.00134
1845.91422,0.00103
1843.85404,0.00122
1841.79387,0.00221
1839.73370,0.00215
1837.67353,0.00127
1835.61336,0.00095
1833.55318,0.00094
1831.49301,0.00028
1829.43284,0.00000
1827.37267,0.00056
1825.31250,0.00066
1823.25232,0.00098
1821.19215,0.00124
1819.13198,0.00085
1817.07181,0.00074
1815.01163,0.00125
1812.95146,0.00139
1810.89129,0.00109
1808.83112,0.00093
1806.77095,0.00076
1804.71077,0.00054
1802.65060,0.00029
1800.59043,0.00033
1798.53026,0.00100
1796.47009,0.00150
1794.40991,0.00087
1792.34974,-0.00001
1790.28957,0.00068
1788.22940,0.00138
1786.16923,0.00105
1784.10905,0.00084
1782.04888,0.00068
1779.98871,0.00055
1777.92854,0.00102
1775.86836,0.00110
1773.80819,0.00018
1771.74802,0.00000
1769.68785,0.00122
1767.62768,0.00221
1765.56750,0.00307
1763.50733,0.00333
1761.44716,0.00389
1759.38699,0.00510
1757.32682,0.00571
1755.26664,0.00694
1753.20647,0.00809
1751.14630,0.00878
1749.08613,0.01103
1747.02596,0.01434
1744.96578,0.01734
1742.90561,0.02031
1740.84544,0.02413
1738.78527,0.02944
1736.72509,0.03361
1734.66492,0.03498
1732.60475,0.03750
1730.54458,0.03983
1728.48441,0.04039
1726.42423,0.04026
1724.36406,0.03986
1722.30389,0.03990
1720.24372,0.03907
1718.18355,0.03710
1716.12337,0.03714
1714.06320,0.03837
1712.00303,0.03882
1709.94286,0.03854
1707.88268,0.03777
1705.82251,0.03721
1703.76234,0.03743
1701.70217,0.03577
1699.64200,0.03369
1697.58182,0.03302
1695.52165,0.03230
1693.46148,0.03291
1691.40131,0.03269
1689.34114,0.03217
1687.28096,0.03179
1685.22079,0.02947
1683.16062,0.02892
1681.10045,0.03106
1679.04028,0.03210
1676.98010,0.03156
1674.91993,0.03136
1672.85976,0.03236
1670.79959,0.03222
1668.73941,0.03299
1666.67924,0.03523
1664.61907,0.03566
1662.55890,0.03575
1660.49873,0.03811
1658.43855,0.04065
1656.37838,0.04093
1654.31821,0.03913
1652.25804,0.04099
1650.19787,0.04441
1648.13769,0.04281
1646.07752,0.04128
1644.01735,0.04311
1641.95718,0.04447
1639.89701,0.04459
1637.83683,0.04341
1635.77666,0.04254
1633.71649,0.04509
1631.65632,0.04718
1629.59614,0.04704
1627.53597,0.04712
1625.47580,0.04764
1623.41563,0.04800
1621.35546,0.04983
1619.29528,0.05065
1617.23511,0.04980
1615.17494,0.05112
1613.11477,0.05311
1611.05460,0.05355
1608.99442,0.05368
1606.93425,0.05417
1604.87408,0.05428
1602.81391,0.05372
1600.75373,0.05301
1598.69356,0.05202
1596.63339,0.05045
1594.57322,0.04882
1592.51305,0.04745
1590.45287,0.04592
1588.39270,0.04411
1586.33253,0.04202
1584.27236,0.03985
1582.21219,0.03826
1580.15201,0.03720
1578.09184,0.03492
1576.03167,0.03244
1573.97150,0.03243
1571.91133,0.03115
1569.85115,0.02802
1567.79098,0.02696
1565.73081,0.02705
1563.67064,0.02736
1561.61046,0.02577
1559.55029,0.02165
1557.49012,0.02274
1555.42995,0.02536
1553.36978,0.02550
1551.30960,0.02485
1549.24943,0.02506
1547.18926,0.02611
1545.12909,0.02623
1543.06892,0.02548
1541.00874,0.02395
1538.94857,0.02489
1536.88840,0.02733
1534.82823,0.02604
1532.76805,0.02393
1530.70788,0.02386
1528.64771,0.02302
1526.58754,0.02178
1524.52737,0.02102
1522.46719,0.01949
1520.40702,0.01948
1518.34685,0.02035
1516.28668,0.02043
1514.22651,0.02131
1512.16633,0.02189
1510.10616,0.02053
1508.04599,0.01607
1505.98582,0.01334
1503.92565,0.01469
1501.86547,0.01479
1499.80530,0.01276
1497.74513,0.01035
1495.68496,0.00952
1493.62478,0.00959
1491.56461,0.00778
1489.50444,0.00529
1487.44427,0.00473
1485.38410,0.00508
1483.32392,0.00500
1481.26375,0.00508
1479.20358,0.00618
1477.14341,0.00747
1475.08324,0.00869
1473.02306,0.01076
1470.96289,0.01517
1468.90272,0.01918
1466.84255,0.02066
1464.78238,0.02218
1462.72220,0.02521
1460.66203,0.02647
1458.60186,0.02528
1456.54169,0.02635
1454.48151,0.03023
1452.42134,0.03227
1450.36117,0.03262
1448.30100,0.03292
1446.24083,0.03395
1444.18065,0.03495
1442.12048,0.03547
1440.06031,0.03537
1438.00014,0.03339
1435.93997,0.03131
1433.87979,0.03089
1431.81962,0.02967
1429.75945,0.02797
1427.69928,0.02717
1425.63910,0.02632
1423.57893,0.02578
1421.51876,0.02543
1419.45859,0.02430
1417.39842,0.02453
1415.33824,0.02535
1413.27807,0.02496
1411.21790,0.02414
1409.15773,0.02376
1407.09756,0.02327
1405.03738,0.02284
1402.97721,0.02338
1400.91704,0.02368
1398.85687,0.02360
1396.79670,0.02394
1394.73652,0.02425
1392.67635,0.02504
1390.61618,0.02552
1388.55601,0.02528
1386.49583,0.02586
1384.43566,0.02733
1382.37549,0.02851
1380.31532,0.02970
1378.25515,0.03115
1376.19497,0.03211
1374.13480,0.03275
1372.07463,0.03385
1370.01446,0.03448
1367.95429,0.03474
1365.89411,0.03492
1363.83394,0.03433
1361.77377,0.03406
1359.71360,0.03461
1357.65343,0.03487
1355.59325,0.03495
1353.53308,0.03533
1351.47291,0.03573
1349.41274,0.03602
1347.35256,0.03657
1345.29239,0.03739
1343.23222,0.03799
1341.17205,0.03800
1339.11188,0.03830
1337.05170,0.03945
1334.99153,0.04045
1332.93136,0.04102
1330.87119,0.04163
1328.81102,0.04247
1326.75084,0.04338
1324.69067,0.04424
1322.63050,0.04501
1320.57033,0.04551
1318.51015,0.04599
1316.44998,0.04650
1314.38981,0.04644
1312.32964,0.04587
1310.26947,0.04512
1308.20929,0.04393
1306.14912,0.04231
1304.08895,0.04038
1302.02878,0.03830
1299.96861,0.03621
1297.90843,0.03411
1295.84826,0.03206
1293.78809,0.03041
1291.72792,0.02913
1289.66775,0.02792
1287.60757,0.02696
1285.54740,0.02646
1283.48723,0.02607
1281.42706,0.02568
1279.36688,0.02556
1277.30671,0.02572
1275.24654,0.02598
1273.18637,0.02622
1271.12620,0.02655
1269.06602,0.02713
1267.00585,0.02784
1264.94568,0.02846
1262.88551,0.02882
1260.82534,0.02917
1258.76516,0.02988
1256.70499,0.03069
1254.64482,0.03143
1252.58465,0.03207
1250.52447,0.03257
1248.46430,0.03325
1246.40413,0.03415
1244.34396,0.03503
1242.28379,0.03588
1240.22361,0.03670
1238.16344,0.03742
1236.10327,0.03809
1234.04310,0.03897
1231.98293,0.04010
1229.92275,0.04119
1227.86258,0.04213
1225.80241,0.04307
1223.74224,0.04406
1221.68207,0.04504
1219.62189,0.04590
1217.56172,0.04654
1215.50155,0.04714
1213.44138,0.04792
1211.38120,0.04880
1209.32103,0.04974
1207.26086,0.05073
1205.20069,0.05156
1203.14052,0.05231
1201.08034,0.05305
1199.02017,0.05362
1196.96000,0.05400
1194.89983,0.05410
1192.83966,0.05381
1190.77948,0.05336
1188.71931,0.05280
1186.65914,0.05199
1184.59897,0.05128
1182.53880,0.05075
1180.47862,0.05012
1178.41845,0.04960
1176.35828,0.04952
1174.29811,0.04979
1172.23793,0.05020
1170.17776,0.05047
1168.11759,0.05042
1166.05742,0.05026
1163.99725,0.05008
1161.93707,0.04967
1159.87690,0.04897
1157.81673,0.04799
1155.75656,0.04672
1153.69639,0.04537
1151.63621,0.04413
1149.57604,0.04286
1147.51587,0.04158
1145.45570,0.04036
1143.39552,0.03913
1141.33535,0.03779
1139.27518,0.03646
1137.21501,0.03544
1135.15484,0.03479
1133.09466,0.03436
1131.03449,0.03433
1128.97432,0.03482
1126.91415,0.03569
1124.85398,0.03679
1122.79380,0.03807
1120.73363,0.03966
1118.67346,0.04162
1116.61329,0.04407
1114.55312,0.04708
1112.49294,0.05012
1110.43277,0.05279
1108.37260,0.05548
1106.31243,0.05848
1104.25225,0.06144
1102.19208,0.06389
1100.13191,0.06559
1098.07174,0.06687
1096.01157,0.06817
1093.95139,0.06949
1091.89122,0.07089
1089.83105,0.07254
1087.77088,0.07449
1085.71071,0.07661
1083.65053,0.07884
1081.59036,0.08118
1079.53019,0.08357
1077.47002,0.08591
1075.40985,0.08799
1073.34967,0.08968
1071.28950,0.09117
1069.22933,0.09250
1067.16916,0.09368
1065.10898,0.09498
1063.04881,0.09634
1060.98864,0.09740
1058.92847,0.09823
1056.86830,0.09929
1054.80812,0.10069
1052.74795,0.10238
1050.68778,0.10430
1048.62761,0.10597
1046.56744,0.10726
1044.50726,0.10856
1042.44709,0.11004
1040.38692,0.11187
1038.32675,0.11412
1036.26657,0.11665
1034.20640,0.11918
1032.14623,0.12134
1030.08606,0.12306
1028.02589,0.12432
1025.96571,0.12521
1023.90554,0.12596
1021.84537,0.12633
1019.78520,0.12605
1017.72503,0.12536
1015.66485,0.12438
1013.60468,0.12316
1011.54451,0.12199
1009.48434,0.12071
1007.42417,0.11870
1005.36399,0.11601
1003.30382,0.11325
1001.24365,0.11043
999.18348,0.10714
997.12330,0.10368
995.06313,0.10051
993.00296,0.09762
990.94279,0.09478
988.88262,0.09172
986.82244,0.08829
984.76227,0.08450
982.70210,0.08050
980.64193,0.07673
978.58176,0.07326
976.52158,0.06990
974.46141,0.06679
972.40124,0.06420
970.34107,0.06209
968.28089,0.06021
966.22072,0.05857
964.16055,0.05721
962.10038,0.05553
960.04021,0.05314
957.98003,0.05055
955.91986,0.04804
953.85969,0.04536
951.79952,0.04255
949.73935,0.03996
947.67917,0.03777
945.61900,0.03560
943.55883,0.03339
941.49866,0.03165
939.43849,0.03047
937.37831,0.02926
935.31814,0.02784
933.25797,0.02658
931.19780,0.02542
929.13762,0.02427
927.07745,0.02336
925.01728,0.02282
922.95711,0.02224
920.89694,0.02098
918.83676,0.01931
916.77659,0.01804
914.71642,0.01699
912.65625,0.01555
910.59608,0.01394
908.53590,0.01253
906.47573,0.01152
904.41556,0.01110
902.35539,0.01092
900.29522,0.01062
898.23504,0.01026
896.17487,0.01000
894.11470,0.00975
892.05453,0.00965
889.99435,0.00966
887.93418,0.00963
885.87401,0.00946
883.81384,0.00904
881.75367,0.00891
879.69349,0.00929
877.63332,0.00941
875.57315,0.00902
873.51298,0.00871
871.45281,0.00895
869.39263,0.00929
867.33246,0.00876
865.27229,0.00758
863.21212,0.00647
861.15194,0.00530
859.09177,0.00390
857.03160,0.00253
854.97143,0.00131
852.91126,0.00032
850.85108,0.00000
848.79091,-0.00003
846.73074,-0.00040
844.67057,-0.00054
842.61040,-0.00000
840.55022,0.00066
838.49005,0.00121
836.42988,0.00223
834.36971,0.00366
832.30954,0.00455
830.24936,0.00439
828.18919,0.00358
826.12902,0.00267
824.06885,0.00231
822.00867,0.00294
819.94850,0.00368
817.88833,0.00363
815.82816,0.00334
813.76799,0.00330
811.70781,0.00306
809.64764,0.00262
807.58747,0.00267
805.52730,0.00291
803.46713,0.00241
801.40695,0.00131
799.34678,0.00034
797.28661,0.00000
795.22644,-0.00024
793.16627,-0.00028
791.10609,0.00003
789.04592,0.00083
786.98575,0.00163
784.92558,0.00209
782.86540,0.00197
780.80523,0.00163
778.74506,0.00185
776.68489,0.00227
774.62472,0.00241
772.56454,0.00305
770.50437,0.00474
768.44420,0.00678
766.38403,0.00851
764.32386,0.01044
762.26368,0.01287
760.20351,0.01469
758.14334,0.01527
756.08317,0.01527
754.02299,0.01512
751.96282,0.01407
749.90265,0.01236
747.84248,0.01121
745.78231,0.00988
743.72213,0.00812
741.66196,0.00724
739.60179,0.00731
737.54162,0.00755
735.48145,0.00750
733.42127,0.00719
731.36110,0.00696
729.30093,0.00696
727.24076,0.00657
725.18059,0.00572
723.12041,0.00547
721.06024,0.00574
719.00007,0.00551
716.93990,0.00495
714.87972,0.00473
712.81955,0.00467
710.75938,0.00416
708.69921,0.00346
706.63904,0.00338
704.57886,0.00431
702.51869,0.00538
700.45852,0.00538
698.39835,0.00451
696.33818,0.00356
694.27800,0.00229
692.21783,0.00075
690.15766,0.00000
688.09749,0.00053
686.03731,0.00178
683.97714,0.00264
681.91697,0.00233
679.85680,0.00117
677.79663,0.00040
675.73645,0.00060
673.67628,0.00077
671.61611,-0.00018
669.55594,0.00047
667.49577,0.00330
665.43559,0.00198
663.37542,0.00201
661.31525,0.00144
659.25508,0.00042
657.19491,0.00036
655.13473,0.00145
653.07456,0.00257
651.01439,0.00315
648.95422,0.00278
646.89404,0.00124
644.83387,0.00000
642.77370,-0.00004
640.71353,0.00074
638.65336,0.00128
636.59318,0.00182
634.53301,0.00291
632.47284,0.00341
630.41267,0.00295
628.35250,0.00274
626.29232,0.00221
624.23215,-0.00030
622.17198,-0.00225
620.11181,-0.00234
618.05164,-0.00097
615.99146,0.00156
613.93129,0.00305
611.87112,0.00236
609.81095,0.00100
607.75077,0.00151
605.69060,0.00221
603.63043,0.00005
601.57026,-0.00195
599.51009,0.00000
