3996.73391,0.00062
3994.67373,0.00012
3992.61356,-0.00003
3990.55339,0.00042
3988.49322,0.00088
3986.43305,0.00071
3984.37287,0.00024
3982.31270,0.00011
3980.25253,0.00039
3978.19236,0.00060
3976.13219,0.00033
3974.07201,-0.00011
3972.01184,-0.00019
3969.95167,0.00015
3967.89150,0.00049
3965.83133,0.00051
3963.77115,0.00035
3961.71098,0.00018
3959.65081,0.00007
3957.59064,-0.00000
3955.53046,0.00000
3953.47029,0.00009
3951.41012,0.00028
3949.34995,0.00060
3947.28978,0.00094
3945.22960,0.00103
3943.16943,0.00080
3941.10926,0.00050
3939.04909,0.00037
3936.98892,0.00046
3934.92874,0.00049
3932.86857,0.00034
3930.80840,0.00025
3928.74823,0.00036
3926.68805,0.00044
3924.62788,0.00040
3922.56771,0.00043
3920.50754,0.00058
3918.44737,0.00069
3916.38719,0.00076
3914.32702,0.00099
3912.26685,0.00135
3910.20668,0.00144
3908.14651,0.00111
3906.08633,0.00066
3904.02616,0.00055
3901.96599,0.00081
3899.90582,0.00090
3897.84565,0.00082
3895.78547,0.00087
3893.72530,0.00087
3891.66513,0.00082
3889.60496,0.00085
3887.54478,0.00062
3885.48461,0.00021
3883.42444,0.00024
3881.36427,0.00061
3879.30410,0.00074
3877.24392,0.00072
3875.18375,0.00092
3873.12358,0.00119
3871.06341,0.00113
3869.00324,0.00078
3866.94306,0.00059
3864.88289,0.00083
3862.82272,0.00134
3860.76255,0.00160
3858.70237,0.00149
3856.64220,0.00132
3854.58203,0.00116
3852.52186,0.00103
3850.46169,0.00111
3848.40151,0.00138
3846.34134,0.00161
3844.28117,0.00169
3842.22100,0.00153
3840.16083,0.00110
3838.10065,0.00070
3836.04048,0.00071
3833.98031,0.00110
3831.92014,0.00152
3829.85997,0.00166
3827.79979,0.00155
3825.73962,0.00122
3823.67945,0.00091
3821.61928,0.00111
3819.55910,0.00157
3817.49893,0.00144
3815.43876,0.00105
3813.37859,0.00089
3811.31842,0.00069
3809.25824,0.00054
3807.19807,0.00084
3805.13790,0.00128
3803.07773,0.00120
3801.01756,0.00075
3798.95738,0.00076
3796.89721,0.00144
3794.83704,0.00189
3792.77687,0.00152
3790.71670,0.00100
3788.65652,0.00110
3786.59635,0.00164
3784.53618,0.00197
3782.47601,0.00188
3780.41583,0.00178
3778.35566,0.00205
3776.29549,0.00232
3774.23532,0.00215
3772.17515,0.00156
3770.11497,0.00088
3768.05480,0.00069
3765.99463,0.00113
3763.93446,0.00163
3761.87429,0.00192
3759.81411,0.00200
3757.75394,0.00159
3755.69377,0.00073
3753.63360,0.00000
3751.57342,0.00003
3749.51325,0.00082
3747.45308,0.00139
3745.39291,0.00169
3743.33274,0.00205
3741.27256,0.00223
3739.21239,0.00198
3737.15222,0.00132
3735.09205,0.00072
3733.03188,0.00058
3730.97170,0.00074
3728.91153,0.00102
3726.85136,0.00146
3724.79119,0.00184
3722.73102,0.00190
3720.67084,0.00194
3718.61067,0.00217
3716.55050,0.00218
3714.49033,0.00163
3712.43015,0.00099
3710.36998,0.00098
3708.30981,0.00130
3706.24964,0.00137
3704.18947,0.00114
3702.12929,0.00102
3700.06912,0.00120
3698.00895,0.00142
3695.94878,0.00165
3693.88861,0.00175
3691.82843,0.00155
3689.76826,0.00125
3687.70809,0.00148
3685.64792,0.00207
3683.58775,0.00236
3681.52757,0.00230
3679.46740,0.00240
3677.40723,0.00284
3675.34706,0.00305
3673.28688,0.00249
3671.22671,0.00170
3669.16654,0.00162
3667.10637,0.00224
3665.04620,0.00275
3662.98602,0.00282
3660.92585,0.00274
3658.86568,0.00293
3656.80551,0.00339
3654.74534,0.00386
3652.68516,0.00416
3650.62499,0.00440
3648.56482,0.00472
3646.50465,0.00485
3644.44447,0.00453
3642.38430,0.00416
3640.32413,0.00412
3638.26396,0.00427
3636.20379,0.00444
3634.14361,0.00479
3632.08344,0.00540
3630.02327,0.00618
3627.96310,0.00665
3625.90293,0.00627
3623.84275,0.00575
3621.78258,0.00560
3619.72241,0.00563
3617.66224,0.00557
3615.60207,0.00543
3613.54189,0.00573
3611.48172,0.00650
3609.42155,0.00705
3607.36138,0.00735
3605.30120,0.00781
3603.24103,0.00839
3601.18086,0.00902
3599.12069,0.00942
3597.06052,0.00936
3595.00034,0.00932
3592.94017,0.00956
3590.88000,0.00999
3588.81983,0.01068
3586.75966,0.01131
3584.69948,0.01135
3582.63931,0.01131
3580.57914,0.01180
3578.51897,0.01269
3576.45879,0.01348
3574.39862,0.01380
3572.33845,0.01369
3570.27828,0.01354
3568.21811,0.01365
3566.15793,0.01403
3564.09776,0.01437
3562.03759,0.01479
3559.97742,0.01549
3557.91725,0.01619
3555.85707,0.01664
3553.79690,0.01709
3551.73673,0.01759
3549.67656,0.01795
3547.61639,0.01837
3545.55621,0.01909
3543.49604,0.01982
3541.43587,0.02032
3539.37570,0.02067
3537.31552,0.02088
3535.25535,0.02108
3533.19518,0.02147
3531.13501,0.02194
3529.07484,0.02227
3527.01466,0.02255
3524.95449,0.02298
3522.89432,0.02360
3520.83415,0.02422
3518.77398,0.02450
3516.71380,0.02445
3514.65363,0.02457
3512.59346,0.02500
3510.53329,0.02548
3508.47312,0.02587
3506.41294,0.02620
3504.35277,0.02677
3502.29260,0.02770
3500.23243,0.02834
3498.17225,0.02843
3496.11208,0.02871
3494.05191,0.02955
3491.99174,0.03032
3489.93157,0.03073
3487.87139,0.03099
3485.81122,0.03114
3483.75105,0.03125
3481.69088,0.03149
3479.63071,0.03183
3477.57053,0.03235
3475.51036,0.03312
3473.45019,0.03372
3471.39002,0.03394
3469.32984,0.03404
3467.26967,0.03427
3465.20950,0.03485
3463.14933,0.03549
3461.08916,0.03577
3459.02898,0.03595
3456.96881,0.03628
3454.90864,0.03675
3452.84847,0.03744
3450.78830,0.03804
3448.72812,0.03828
3446.66795,0.03842
3444.60778,0.03867
3442.54761,0.03891
3440.48744,0.03921
3438.42726,0.03991
3436.36709,0.04084
3434.30692,0.04135
3432.24675,0.04153
3430.18657,0.04180
3428.12640,0.04213
3426.06623,0.04251
3424.00606,0.04303
3421.94589,0.04351
3419.88571,0.04381
3417.82554,0.04406
3415.76537,0.04453
3413.70520,0.04514
3411.64503,0.04526
3409.58485,0.04494
3407.52468,0.04501
3405.46451,0.04547
3403.40434,0.04577
3401.34416,0.04591
3399.28399,0.04602
3397.22382,0.04605
3395.16365,0.04639
3393.10348,0.04724
3391.04330,0.04812
3388.98313,0.04851
3386.92296,0.04857
3384.86279,0.04863
3382.80262,0.04886
3380.74244,0.04921
3378.68227,0.04942
3376.62210,0.04958
3374.56193,0.04982
3372.50176,0.04990
3370.44158,0.04984
3368.38141,0.04986
3366.32124,0.05000
3364.26107,0.05036
3362.20089,0.05097
3360.14072,0.05135
3358.08055,0.05131
3356.02038,0.05123
3353.96021,0.05143
3351.90003,0.05198
3349.83986,0.05263
3347.77969,0.05286
3345.71952,0.05259
3343.65935,0.05239
3341.59917,0.05255
3339.53900,0.05288
3337.47883,0.05321
3335.41866,0.05338
3333.35849,0.05333
3331.29831,0.05319
3329.23814,0.05319
3327.17797,0.05364
3325.11780,0.05444
3323.05762,0.05491
3320.99745,0.05478
3318.93728,0.05451
3316.87711,0.05444
3314.81694,0.05447
3312.75676,0.05461
3310.69659,0.05496
3308.63642,0.05523
3306.57625,0.05514
3304.51608,0.05500
3302.45590,0.05501
3300.39573,0.05519
3298.33556,0.05551
3296.27539,0.05576
3294.21521,0.05577
3292.15504,0.05559
3290.09487,0.05530
3288.03470,0.05515
3285.97453,0.05528
3283.91435,0.05552
3281.85418,0.05565
3279.79401,0.05553
3277.73384,0.05545
3275.67367,0.05567
3273.61349,0.05591
3271.55332,0.05590
3269.49315,0.05568
3267.43298,0.05541
3265.37281,0.05523
3263.31263,0.05509
3261.25246,0.05504
3259.19229,0.05505
3257.13212,0.05484
3255.07194,0.05451
3253.01177,0.05415
3250.95160,0.05377
3248.89143,0.05354
3246.83126,0.05358
3244.77108,0.05372
3242.71091,0.05366
3240.65074,0.05373
3238.59057,0.05379
3236.53040,0.05343
3234.47022,0.05299
3232.41005,0.05270
3230.34988,0.05233
3228.28971,0.05190
3226.22954,0.05165
3224.16936,0.05180
3222.10919,0.05204
3220.04902,0.05188
3217.98885,0.05156
3215.92867,0.05154
3213.86850,0.05170
3211.80833,0.05168
3209.74816,0.05156
3207.68799,0.05140
3205.62781,0.05112
3203.56764,0.05082
3201.50747,0.05050
3199.44730,0.05012
3197.38713,0.04971
3195.32695,0.04934
3193.26678,0.04892
3191.20661,0.04856
3189.14644,0.04857
3187.08626,0.04867
3185.02609,0.04843
3182.96592,0.04805
3180.90575,0.04785
3178.84558,0.04782
3176.78540,0.04767
3174.72523,0.04746
3172.66506,0.04730
3170.60489,0.04709
3168.54472,0.04679
3166.48454,0.04636
3164.42437,0.04587
3162.36420,0.04543
3160.30403,0.04505
3158.24386,0.04474
3156.18368,0.04446
3154.12351,0.04429
3152.06334,0.04423
3150.00317,0.04406
3147.94299,0.04372
3145.88282,0.04330
3143.82265,0.04281
3141.76248,0.04259
3139.70231,0.04268
3137.64213,0.04257
3135.58196,0.04220
3133.52179,0.04193
3131.46162,0.04164
3129.40145,0.04119
3127.34127,0.04095
3125.28110,0.04092
3123.22093,0.04067
3121.16076,0.04035
3119.10058,0.04021
3117.04041,0.03996
3114.98024,0.03940
3112.92007,0.03905
3110.85990,0.03914
3108.79972,0.03915
3106.73955,0.03890
3104.67938,0.03879
3102.61921,0.03871
3100.55904,0.03839
3098.49886,0.03806
3096.43869,0.03786
3094.37852,0.03770
3092.31835,0.03757
3090.25818,0.03733
3088.19800,0.03683
3086.13783,0.03638
3084.07766,0.03631
3082.01749,0.03639
3079.95731,0.03633
3077.89714,0.03601
3075.83697,0.03548
3073.77680,0.03497
3071.71663,0.03464
3069.65645,0.03443
3067.59628,0.03423
3065.53611,0.03413
3063.47594,0.03435
3061.41577,0.03466
3059.35559,0.03450
3057.29542,0.03384
3055.23525,0.03322
3053.17508,0.03299
3051.11491,0.03297
3049.05473,0.03283
3046.99456,0.03258
3044.93439,0.03241
3042.87422,0.03228
3040.81404,0.03207
3038.75387,0.03168
3036.69370,0.03106
3034.63353,0.03050
3032.57336,0.03041
3030.51318,0.03060
3028.45301,0.03055
3026.39284,0.03019
3024.33267,0.02976
3022.27250,0.02938
3020.21232,0.02917
3018.15215,0.02913
3016.09198,0.02910
3014.03181,0.02911
3011.97163,0.02907
3009.91146,0.02888
3007.85129,0.02856
3005.79112,0.02818
3003.73095,0.02793
3001.67077,0.02792
2999.61060,0.02787
2997.55043,0.02780
2995.49026,0.02792
2993.43009,0.02806
2991.36991,0.02801
2989.30974,0.02800
2987.24957,0.02824
2985.18940,0.02857
2983.12923,0.02875
2981.06905,0.02889
2979.00888,0.02905
2976.94871,0.02928
2974.88854,0.02972
2972.82836,0.03034
2970.76819,0.03117
2968.70802,0.03212
2966.64785,0.03297
2964.58768,0.03378
2962.52750,0.03463
2960.46733,0.03560
2958.40716,0.03657
2956.34699,0.03740
2954.28682,0.03827
2952.22664,0.03912
2950.16647,0.03987
2948.10630,0.04081
2946.04613,0.04202
2943.98596,0.04343
2941.92578,0.04526
2939.86561,0.04740
2937.80544,0.04944
2935.74527,0.05127
2933.68509,0.05315
2931.62492,0.05524
2929.56475,0.05722
2927.50458,0.05891
2925.44441,0.06049
2923.38423,0.06192
2921.32406,0.06291
2919.26389,0.06335
2917.20372,0.06313
2915.14355,0.06167
2913.08337,0.05885
2911.02320,0.05577
2908.96303,0.05330
2906.90286,0.05146
2904.84268,0.04998
2902.78251,0.04858
2900.72234,0.04734
2898.66217,0.04646
2896.60200,0.04570
2894.54182,0.04472
2892.48165,0.04354
2890.42148,0.04247
2888.36131,0.04167
2886.30114,0.04101
2884.24096,0.04039
2882.18079,0.03987
2880.12062,0.03945
2878.06045,0.03915
2876.00028,0.03904
2873.94010,0.03905
2871.87993,0.03908
2869.81976,0.03920
2867.75959,0.03957
2865.69941,0.04026
2863.63924,0.04123
2861.57907,0.04241
2859.51890,0.04375
2857.45873,0.04527
2855.39855,0.04701
2853.33838,0.04893
2851.27821,0.05068
2849.21804,0.05106
2847.15787,0.04895
2845.09769,0.04502
2843.03752,0.04111
2840.97735,0.03820
2838.91718,0.03603
2836.85700,0.03435
2834.79683,0.03322
2832.73666,0.03236
2830.67649,0.03150
2828.61632,0.03076
2826.55614,0.03018
2824.49597,0.02957
2822.43580,0.02889
2820.37563,0.02836
2818.31546,0.02801
2816.25528,0.02767
2814.19511,0.02723
2812.13494,0.02688
2810.07477,0.02681
2808.01460,0.02675
2805.95442,0.02638
2803.89425,0.02592
2801.83408,0.02566
2799.77391,0.02562
2797.71373,0.02580
2795.65356,0.02585
2793.59339,0.02534
2791.53322,0.02462
2789.47305,0.02415
2787.41287,0.02408
2785.35270,0.02422
2783.29253,0.02415
2781.23236,0.02399
2779.17219,0.02397
2777.11201,0.02390
2775.05184,0.02379
2772.99167,0.02373
2770.93150,0.02343
2768.87133,0.02292
2766.81115,0.02276
2764.75098,0.02295
2762.69081,0.02298
2760.63064,0.02287
2758.57046,0.02282
2756.51029,0.02276
2754.45012,0.02272
2752.38995,0.02279
2750.32978,0.02287
2748.26960,0.02274
2746.20943,0.02237
2744.14926,0.02209
2742.08909,0.02212
2740.02892,0.02226
2737.96874,0.02225
2735.90857,0.02208
2733.84840,0.02192
2731.78823,0.02196
2729.72805,0.02214
2727.66788,0.02224
2725.60771,0.02216
2723.54754,0.02191
2721.48737,0.02161
2719.42719,0.02144
2717.36702,0.02144
2715.30685,0.02137
2713.24668,0.02120
2711.18651,0.02121
2709.12633,0.02133
2707.06616,0.02128
2705.00599,0.02105
2702.94582,0.02088
2700.88565,0.02089
2698.82547,0.02089
2696.76530,0.02085
2694.70513,0.02075
2692.64496,0.02060
2690.58478,0.02048
2688.52461,0.02036
2686.46444,0.02042
2684.40427,0.02056
2682.34410,0.02050
2680.28392,0.02027
2678.22375,0.02005
2676.16358,0.01993
2674.10341,0.01982
2672.04324,0.01978
2669.98306,0.01983
2667.92289,0.01968
2665.86272,0.01948
2663.80255,0.01949
2661.74238,0.01952
2659.68220,0.01943
2657.62203,0.01924
2655.56186,0.01910
2653.50169,0.01908
2651.44151,0.01902
2649.38134,0.01906
2647.32117,0.01929
2645.26100,0.01930
2643.20083,0.01898
2641.14065,0.01862
2639.08048,0.01847
2637.02031,0.01850
2634.96014,0.01842
2632.89997,0.01810
2630.83979,0.01796
2628.77962,0.01816
2626.71945,0.01823
2624.65928,0.01798
2622.59910,0.01771
2620.53893,0.01754
2618.47876,0.01739
2616.41859,0.01698
2614.35842,0.01650
2612.29824,0.01656
2610.23807,0.01691
2608.17790,0.01688
2606.11773,0.01659
2604.05756,0.01644
2601.99738,0.01645
2599.93721,0.01656
2597.87704,0.01668
2595.81687,0.01664
2593.75670,0.01644
2591.69652,0.01620
2589.63635,0.01604
2587.57618,0.01594
2585.51601,0.01581
2583.45583,0.01584
2581.39566,0.01619
2579.33549,0.01628
2577.27532,0.01574
2575.21515,0.01519
2573.15497,0.01508
2571.09480,0.01535
2569.03463,0.01572
2566.97446,0.01564
2564.91429,0.01520
2562.85411,0.01496
2560.79394,0.01503
2558.73377,0.01519
2556.67360,0.01495
2554.61342,0.01439
2552.55325,0.01403
2550.49308,0.01399
2548.43291,0.01421
2546.37274,0.01464
2544.31256,0.01497
2542.25239,0.01474
2540.19222,0.01417
2538.13205,0.01381
2536.07188,0.01378
2534.01170,0.01401
2531.95153,0.01410
2529.89136,0.01361
2527.83119,0.01306
2525.77102,0.01310
2523.71084,0.01334
2521.65067,0.01345
2519.59050,0.01356
2517.53033,0.01381
2515.47015,0.01399
2513.40998,0.01383
2511.34981,0.01373
2509.28964,0.01381
2507.22947,0.01369
2505.16929,0.01361
2503.10912,0.01370
2501.04895,0.01333
2498.98878,0.01271
2496.92861,0.01250
2494.86843,0.01244
2492.80826,0.01254
2490.74809,0.01288
2488.68792,0.01284
2486.62775,0.01228
2484.56757,0.01192
2482.50740,0.01205
2480.44723,0.01230
2478.38706,0.01250
2476.32688,0.01253
2474.26671,0.01241
2472.20654,0.01242
2470.14637,0.01254
2468.08620,0.01259
2466.02602,0.01233
2463.96585,0.01199
2461.90568,0.01202
2459.84551,0.01213
2457.78534,0.01209
2455.72516,0.01221
2453.66499,0.01230
2451.60482,0.01190
2449.54465,0.01143
2447.48447,0.01125
2445.42430,0.01112
2443.36413,0.01114
2441.30396,0.01138
2439.24379,0.01162
2437.18361,0.01181
2435.12344,0.01182
2433.06327,0.01176
2431.00310,0.01175
2428.94293,0.01162
2426.88275,0.01156
2424.82258,0.01155
2422.76241,0.01147
2420.70224,0.01132
2418.64207,0.01097
2416.58189,0.01057
2414.52172,0.01025
2412.46155,0.01014
2410.40138,0.01026
2408.34120,0.01022
2406.28103,0.01008
2404.22086,0.01020
2402.16069,0.01042
2400.10052,0.01037
2398.04034,0.01030
2395.98017,0.01026
2393.92000,0.01012
2391.85983,0.00992
2389.79966,0.00995
2387.73948,0.01009
2385.67931,0.01020
2383.61914,0.01051
2381.55897,0.01112
2379.49880,0.01160
2377.43862,0.01157
2375.37845,0.01072
2373.31828,0.00974
2371.25811,0.00895
2369.19793,0.00779
2367.13776,0.00706
2365.07759,0.00810
2363.01742,0.00906
2360.95725,0.00871
2358.89707,0.00707
2356.83690,0.00732
2354.77673,0.00892
2352.71656,0.01020
2350.65639,0.01202
2348.59621,0.01268
2346.53604,0.01013
2344.47587,0.00979
2342.41570,0.01034
2340.35552,0.01014
2338.29535,0.01027
2336.23518,0.01082
2334.17501,0.01100
2332.11484,0.01038
2330.05466,0.00988
2327.99449,0.00960
2325.93432,0.00996
2323.87415,0.01006
2321.81398,0.01004
2319.75380,0.00978
2317.69363,0.01025
2315.63346,0.01016
2313.57329,0.00945
2311.51312,0.00925
2309.45294,0.00960
2307.39277,0.00986
2305.33260,0.00978
2303.27243,0.00973
2301.21225,0.00965
2299.15208,0.00927
2297.09191,0.00874
2295.03174,0.00875
2292.97157,0.00918
2290.91139,0.00926
2288.85122,0.00901
2286.79105,0.00896
2284.73088,0.00903
2282.67071,0.00886
2280.61053,0.00867
2278.55036,0.00865
2276.49019,0.00847
2274.43002,0.00825
2272.36984,0.00834
2270.30967,0.00859
2268.24950,0.00869
2266.18933,0.00866
2264.12916,0.00877
2262.06898,0.00918
2260.00881,0.00931
2257.94864,0.00885
2255.88847,0.00833
2253.82830,0.00791
2251.76812,0.00744
2249.70795,0.00707
2247.64778,0.00690
2245.58761,0.00678
2243.52744,0.00668
2241.46726,0.00684
2239.40709,0.00729
2237.34692,0.00799
2235.28675,0.00879
2233.22657,0.00882
2231.16640,0.00806
2229.10623,0.00760
2227.04606,0.00707
2224.98589,0.00618
2222.92571,0.00574
2220.86554,0.00549
2218.80537,0.00550
2216.74520,0.00656
2214.68503,0.00755
2212.62485,0.00691
2210.56468,0.00552
2208.50451,0.00525
2206.44434,0.00596
2204.38417,0.00590
2202.32399,0.00518
2200.26382,0.00511
2198.20365,0.00594
2196.14348,0.00698
2194.08330,0.00719
2192.02313,0.00694
2189.96296,0.00720
2187.90279,0.00678
2185.84262,0.00490
2183.78244,0.00357
2181.72227,0.00399
2179.66210,0.00499
2177.60193,0.00549
2175.54176,0.00581
2173.48158,0.00595
2171.42141,0.00562
2169.36124,0.00476
2167.30107,0.00359
2165.24089,0.00406
2163.18072,0.00544
2161.12055,0.00393
2159.06038,0.00094
2157.00021,0.00153
2154.94003,0.00409
2152.87986,0.00442
2150.81969,0.00355
2148.75952,0.00359
2146.69935,0.00417
2144.63917,0.00471
2142.57900,0.00531
2140.51883,0.00562
2138.45866,0.00531
2136.39849,0.00496
2134.33831,0.00489
2132.27814,0.00502
2130.21797,0.00531
2128.15780,0.00565
2126.09762,0.00585
2124.03745,0.00605
2121.97728,0.00615
2119.91711,0.00562
2117.85694,0.00524
2115.79676,0.00602
2113.73659,0.00721
2111.67642,0.00746
2109.61625,0.00677
2107.55608,0.00610
2105.49590,0.00586
2103.43573,0.00597
2101.37556,0.00626
2099.31539,0.00643
2097.25521,0.00649
2095.19504,0.00649
2093.13487,0.00632
2091.07470,0.00642
2089.01453,0.00695
2086.95435,0.00731
2084.89418,0.00731
2082.83401,0.00727
2080.77384,0.00710
2078.71367,0.00677
2076.65349,0.00670
2074.59332,0.00690
2072.53315,0.00646
2070.47298,0.00501
2068.41281,0.00373
2066.35263,0.00373
2064.29246,0.00443
2062.23229,0.00454
2060.17212,0.00450
2058.11194,0.00507
2056.05177,0.00611
2053.99160,0.00735
2051.93143,0.00755
2049.87126,0.00650
2047.81108,0.00562
2045.75091,0.00505
2043.69074,0.00470
2041.63057,0.00498
2039.57040,0.00551
2037.51022,0.00543
2035.45005,0.00399
2033.38988,0.00141
2031.32971,0.00018
2029.26954,0.00195
2027.20936,0.00484
2025.14919,0.00628
2023.08902,0.00633
2021.02885,0.00582
2018.96867,0.00448
2016.90850,0.00354
2014.84833,0.00426
2012.78816,0.00520
2010.72799,0.00462
2008.66781,0.00276
2006.60764,0.00161
2004.54747,0.00192
2002.48730,0.00240
2000.42713,0.00272
1998.36695,0.00399
1996.30678,0.00569
1994.24661,0.00642
1992.18644,0.00648
1990.12626,0.00599
1988.06609,0.00525
1986.00592,0.00595
1983.94575,0.00776
1981.88558,0.00816
1979.82540,0.00600
1977.76523,0.00343
1975.70506,0.00285
1973.64489,0.00366
1971.58472,0.00468
1969.52454,0.00450
1967.46437,0.00223
1965.40420,0.00000
1963.34403,0.00023
1961.28386,0.00284
1959.22368,0.00526
1957.16351,0.00563
1955.10334,0.00468
1953.04317,0.00381
1950.98299,0.00373
1948.92282,0.00399
1946.86265,0.00391
1944.80248,0.00351
1942.74231,0.00307
1940.68213,0.00295
1938.62196,0.00306
1936.56179,0.00314
1934.50162,0.00317
1932.44145,0.00319
1930.38127,0.00338
1928.32110,0.00376
1926.26093,0.00393
1924.20076,0.00369
1922.14059,0.00313
1920.08041,0.00259
1918.02024,0.00262
1915.96007,0.00347
1913.89990,0.00436
1911.83972,0.00446
1909.77955,0.00430
1907.71938,0.00456
1905.65921,0.00470
1903.59904,0.00435
1901.53886,0.00387
1899.47869,0.00343
1897.41852,0.00281
1895.35835,0.00213
1893.29818,0.00201
1891.23800,0.00241
1889.17783,0.00262
1887.11766,0.00271
1885.05749,0.00289
1882.99731,0.00284
1880.93714,0.00257
1878.87697,0.00243
1876.81680,0.00254
1874.75663,0.00269
1872.69645,0.00266
1870.63628,0.00251
1868.57611,0.00225
1866.51594,0.00182
1864.45577,0.00143
1862.39559,0.00137
1860.33542,0.00159
1858.27525,0.00192
1856.21508,0.00233
1854.15491,0.00254
1852.09473,0.00219
1850.03456,0.00156
1847.97439,0.00116
1845.91422,0.00123
1843.85404,0.00164
1841.79387,0.00209
1839.73370,0.00242
1837.67353,0.00255
1835.61336,0.00231
1833.55318,0.00184
1831.49301,0.00160
1829.43284,0.00163
1827.37267,0.00151
1825.31250,0.00121
1823.25232,0.00103
1821.19215,0.00102
1819.13198,0.00096
1817.07181,0.00081
1815.01163,0.00077
1812.95146,0.00084
1810.89129,0.00080
1808.83112,0.00065
1806.77095,0.00068
1804.71077,0.00088
1802.65060,0.00093
1800.59043,0.00081
1798.53026,0.00079
1796.47009,0.00090
1794.40991,0.00076
1792.34974,0.00025
1790.28957,0.00000
1788.22940,0.00018
1786.16923,0.00043
1784.10905,0.00039
1782.04888,0.00016
1779.98871,0.00006
1777.92854,0.00025
1775.86836,0.00046
1773.80819,0.00044
1771.74802,0.00041
1769.68785,0.00082
1767.62768,0.00158
1765.56750,0.00218
1763.50733,0.00250
1761.44716,0.00290
1759.38699,0.00353
1757.32682,0.00437
1755.26664,0.00536
1753.20647,0.00620
1751.14630,0.00700
1749.08613,0.00845
1747.02596,0.01089
1744.96578,0.01392
1742.90561,0.01727
1740.84544,0.02089
1738.78527,0.02445
1736.72509,0.02738
1734.66492,0.02996
1732.60475,0.03210
1730.54458,0.03301
1728.48441,0.03312
1726.42423,0.03298
1724.36406,0.03270
1722.30389,0.03238
1720.24372,0.03190
1718.18355,0.03105
1716.12337,0.03037
1714.06320,0.03052
1712.00303,0.03088
1709.94286,0.03081
1707.88268,0.03016
1705.82251,0.02920
1703.76234,0.02844
1701.70217,0.02784
1699.64200,0.02713
1697.58182,0.02664
1695.52165,0.02635
1693.46148,0.02607
1691.40131,0.02575
1689.34114,0.02554
1687.28096,0.02555
1685.22079,0.02556
1683.16062,0.02546
1681.10045,0.02554
1679.04028,0.02593
1676.98010,0.02659
1674.91993,0.02726
1672.85976,0.02775
1670.79959,0.02819
1668.73941,0.02895
1666.67924,0.03011
1664.61907,0.03135
1662.55890,0.03276
1660.49873,0.03448
1658.43855,0.03607
1656.37838,0.03720
1654.31821,0.03788
1652.25804,0.03844
1650.19787,0.03904
1648.13769,0.03964
1646.07752,0.04034
1644.01735,0.04101
1641.95718,0.04141
1639.89701,0.04162
1637.83683,0.04186
1635.77666,0.04246
1633.71649,0.04333
1631.65632,0.04396
1629.59614,0.04433
1627.53597,0.04459
1625.47580,0.04480
1623.41563,0.04513
1621.35546,0.04581
1619.29528,0.04663
1617.23511,0.04726
1615.17494,0.04772
1613.11477,0.04819
1611.05460,0.04861
1608.99442,0.04883
1606.93425,0.04896
1604.87408,0.04904
1602.81391,0.04882
1600.75373,0.04815
1598.69356,0.04712
1596.63339,0.04578
1594.57322,0.04428
1592.51305,0.04278
1590.45287,0.04127
1588.39270,0.03977
1586.33253,0.03827
1584.27236,0.03667
1582.21219,0.03502
1580.15201,0.03359
1578.09184,0.03208
1576.03167,0.03011
1573.97150,0.02849
1571.91133,0.02747
1569.85115,0.02631
1567.79098,0.02526
1565.73081,0.02480
1563.67064,0.02466
1561.61046,0.02462
1559.55029,0.02433
1557.49012,0.02353
1555.42995,0.02306
1553.36978,0.02318
1551.30960,0.02363
1549.24943,0.02408
1547.18926,0.02413
1545.12909,0.02368
1543.06892,0.02309
1541.00874,0.02293
1538.94857,0.02335
1536.88840,0.02368
1534.82823,0.02337
1532.76805,0.02251
1530.70788,0.02170
1528.64771,0.02102
1526.58754,0.02016
1524.52737,0.01940
1522.46719,0.01911
1520.40702,0.01914
1518.34685,0.01923
1516.28668,0.01937
1514.22651,0.01951
1512.16633,0.01943
1510.10616,0.01883
1508.04599,0.01715
1505.98582,0.01477
1503.92565,0.01365
1501.86547,0.01321
1499.80530,0.01225
1497.74513,0.01076
1495.68496,0.00946
1493.62478,0.00858
1491.56461,0.00769
1489.50444,0.00660
1487.44427,0.00580
1485.38410,0.00549
1483.32392,0.00548
1481.26375,0.00558
1479.20358,0.00585
1477.14341,0.00661
1475.08324,0.00821
1473.02306,0.01090
1470.96289,0.01414
1468.90272,0.01689
1466.84255,0.01907
1464.78238,0.02092
1462.72220,0.02233
1460.66203,0.02329
1458.60186,0.02429
1456.54169,0.02578
1454.48151,0.02736
1452.42134,0.02863
1450.36117,0.02963
1448.30100,0.03045
1446.24083,0.03119
1444.18065,0.03185
1442.12048,0.03223
1440.06031,0.03209
1438.00014,0.03120
1435.93997,0.02977
1433.87979,0.02853
1431.81962,0.02757
1429.75945,0.02661
1427.69928,0.02573
1425.63910,0.02504
1423.57893,0.02466
1421.51876,0.02467
1419.45859,0.02472
1417.39842,0.02456
1415.33824,0.02440
1413.27807,0.02417
1411.21790,0.02374
1409.15773,0.02332
1407.09756,0.02304
1405.03738,0.02285
1402.97721,0.02271
1400.91704,0.02247
1398.85687,0.02208
1396.79670,0.02193
1394.73652,0.02222
1392.67635,0.02269
1390.61618,0.02314
1388.55601,0.02368
1386.49583,0.02448
1384.43566,0.02544
1382.37549,0.02640
1380.31532,0.02742
1378.25515,0.02851
1376.19497,0.02940
1374.13480,0.03004
1372.07463,0.03060
1370.01446,0.03102
1367.95429,0.03117
1365.89411,0.03121
1363.83394,0.03132
1361.77377,0.03143
1359.71360,0.03147
1357.65343,0.03147
1355.59325,0.03154
1353.53308,0.03176
1351.47291,0.03211
1349.41274,0.03245
1347.35256,0.03274
1345.29239,0.03302
1343.23222,0.03324
1341.17205,0.03336
1339.11188,0.03360
1337.05170,0.03408
1334.99153,0.03461
1332.93136,0.03511
1330.87119,0.03579
1328.81102,0.03669
1326.75084,0.03763
1324.69067,0.03841
1322.63050,0.03906
1320.57033,0.03969
1318.51015,0.04020
1316.44998,0.04037
1314.38981,0.04014
1312.32964,0.03964
1310.26947,0.03894
1308.20929,0.03802
1306.14912,0.03685
1304.08895,0.03541
1302.02878,0.03367
1299.96861,0.03175
1297.90843,0.02986
1295.84826,0.02819
1293.78809,0.02675
1291.72792,0.02555
1289.66775,0.02466
1287.60757,0.02406
1285.54740,0.02362
1283.48723,0.02333
1281.42706,0.02309
1279.36688,0.02288
1277.30671,0.02281
1275.24654,0.02292
1273.18637,0.02320
1271.12620,0.02367
1269.06602,0.02412
1267.00585,0.02455
1264.94568,0.02505
1262.88551,0.02555
1260.82534,0.02616
1258.76516,0.02700
1256.70499,0.02783
1254.64482,0.02846
1252.58465,0.02895
1250.52447,0.02943
1248.46430,0.03001
1246.40413,0.03072
1244.34396,0.03148
1242.28379,0.03220
1240.22361,0.03275
1238.16344,0.03326
1236.10327,0.03382
1234.04310,0.03437
1231.98293,0.03501
1229.92275,0.03583
1227.86258,0.03653
1225.80241,0.03705
1223.74224,0.03763
1221.68207,0.03832
1219.62189,0.03892
1217.56172,0.03937
1215.50155,0.03982
1213.44138,0.04035
1211.38120,0.04076
1209.32103,0.04100
1207.26086,0.04133
1205.20069,0.04192
1203.14052,0.04262
1201.08034,0.04322
1199.02017,0.04352
1196.96000,0.04350
1194.89983,0.04330
1192.83966,0.04303
1190.77948,0.04261
1188.71931,0.04198
1186.65914,0.04129
1184.59897,0.04085
1182.53880,0.04060
1180.47862,0.04026
1178.41845,0.03981
1176.35828,0.03947
1174.29811,0.03961
1172.23793,0.04039
1170.17776,0.04122
1168.11759,0.04163
1166.05742,0.04172
1163.99725,0.04168
1161.93707,0.04153
1159.87690,0.04116
1157.81673,0.04068
1155.75656,0.04008
1153.69639,0.03923
1151.63621,0.03834
1149.57604,0.03749
1147.51587,0.03665
1145.45570,0.03592
1143.39552,0.03523
1141.33535,0.03444
1139.27518,0.03364
1137.21501,0.03293
1135.15484,0.03229
1133.09466,0.03181
1131.03449,0.03169
1128.97432,0.03198
1126.91415,0.03262
1124.85398,0.03350
1122.79380,0.03473
1120.73363,0.03638
1118.67346,0.03819
1116.61329,0.04040
1114.55312,0.04316
1112.49294,0.04588
1110.43277,0.04830
1108.37260,0.05075
1106.31243,0.05330
1104.25225,0.05569
1102.19208,0.05772
1100.13191,0.05942
1098.07174,0.06069
1096.01157,0.06156
1093.95139,0.06236
1091.89122,0.06347
1089.83105,0.06498
1087.77088,0.06673
1085.71071,0.06863
1083.65053,0.07073
1081.59036,0.07300
1079.53019,0.07516
1077.47002,0.07712
1075.40985,0.07909
1073.34967,0.08084
1071.28950,0.08209
1069.22933,0.08307
1067.16916,0.08392
1065.10898,0.08481
1063.04881,0.08592
1060.98864,0.08714
1058.92847,0.08842
1056.86830,0.08978
1054.80812,0.09125
1052.74795,0.09282
1050.68778,0.09447
1048.62761,0.09603
1046.56744,0.09708
1044.50726,0.09799
1042.44709,0.09957
1040.38692,0.10168
1038.32675,0.10379
1036.26657,0.10566
1034.20640,0.10741
1032.14623,0.10933
1030.08606,0.11130
1028.02589,0.11303
1025.96571,0.11426
1023.90554,0.11466
1021.84537,0.11441
1019.78520,0.11417
1017.72503,0.11394
1015.66485,0.11333
1013.60468,0.11233
1011.54451,0.11105
1009.48434,0.10947
1007.42417,0.10769
1005.36399,0.10573
1003.30382,0.10349
1001.24365,0.10103
999.18348,0.09836
997.12330,0.09555
995.06313,0.09309
993.00296,0.09089
990.94279,0.08828
988.88262,0.08546
986.82244,0.08271
984.76227,0.07950
982.70210,0.07590
980.64193,0.07234
978.58176,0.06870
976.52158,0.06511
974.46141,0.06212
972.40124,0.05977
970.34107,0.05746
968.28089,0.05489
966.22072,0.05242
964.16055,0.05030
962.10038,0.04836
960.04021,0.04665
957.98003,0.04512
955.91986,0.04323
953.85969,0.04076
951.79952,0.03818
949.73935,0.03593
947.67917,0.03399
945.61900,0.03212
943.55883,0.03016
941.49866,0.02829
939.43849,0.02692
937.37831,0.02604
935.31814,0.02527
933.25797,0.02442
931.19780,0.02357
929.13762,0.02283
927.07745,0.02222
925.01728,0.02156
922.95711,0.02079
920.89694,0.01996
918.83676,0.01875
916.77659,0.01699
914.71642,0.01519
912.65625,0.01402
910.59608,0.01311
908.53590,0.01187
906.47573,0.01068
904.41556,0.00985
902.35539,0.00932
900.29522,0.00923
898.23504,0.00942
896.17487,0.00949
894.11470,0.00943
892.05453,0.00936
889.99435,0.00911
887.93418,0.00854
885.87401,0.00795
883.81384,0.00756
881.75367,0.00714
879.69349,0.00675
877.63332,0.00678
875.57315,0.00719
873.51298,0.00753
871.45281,0.00753
869.39263,0.00741
867.33246,0.00719
865.27229,0.00671
863.21212,0.00593
861.15194,0.00477
859.09177,0.00336
857.03160,0.00209
854.97143,0.00121
852.91126,0.00074
850.85108,0.00034
848.79091,0.00000
846.73074,0.00001
844.67057,0.00036
842.61040,0.00065
840.55022,0.00085
838.49005,0.00115
836.42988,0.00150
834.36971,0.00186
832.30954,0.00226
830.24936,0.00264
828.18919,0.00278
826.12902,0.00238
824.06885,0.00182
822.00867,0.00160
819.94850,0.00162
817.88833,0.00199
815.82816,0.00234
813.76799,0.00216
811.70781,0.00216
809.64764,0.00243
807.58747,0.00231
805.52730,0.00173
803.46713,0.00109
801.40695,0.00070
799.34678,0.00034
797.28661,0.00000
795.22644,-0.00033
793.16627,-0.00041
791.10609,-0.00052
789.04592,-0.00046
786.98575,-0.00049
784.92558,-0.00068
782.86540,-0.00045
780.80523,0.00038
778.74506,0.00126
776.68489,0.00137
774.62472,0.00129
772.56454,0.00209
770.50437,0.00299
768.44420,0.00348
766.38403,0.00489
764.32386,0.00724
762.26368,0.00942
760.20351,0.01125
758.14334,0.01246
756.08317,0.01268
754.02299,0.01222
751.96282,0.01108
749.90265,0.00933
747.84248,0.00760
745.78231,0.00650
743.72213,0.00557
741.66196,0.00441
739.60179,0.00379
737.54162,0.00329
735.48145,0.00260
733.42127,0.00275
731.36110,0.00337
729.30093,0.00313
727.24076,0.00270
725.18059,0.00353
723.12041,0.00463
721.06024,0.00437
719.00007,0.00359
716.93990,0.00259
714.87972,0.00162
712.81955,0.00101
710.75938,0.00081
708.69921,0.00098
706.63904,0.00136
704.57886,0.00144
702.51869,0.00095
700.45852,0.00047
698.39835,0.00077
696.33818,0.00189
694.27800,0.00277
692.21783,0.00264
690.15766,0.00199
688.09749,0.00145
686.03731,0.00116
683.97714,0.00073
681.91697,-0.00031
679.85680,-0.00141
677.79663,-0.00158
675.73645,-0.00123
673.67628,-0.00074
671.61611,0.00019
669.55594,-0.00225
667.49577,-0.00524
665.43559,0.00113
663.37542,0.00243
661.31525,0.00216
659.25508,0.00123
657.19491,0.00006
655.13473,0.00022
653.07456,0.00106
651.01439,0.00094
648.95422,0.00011
646.89404,0.00004
644.83387,0.00096
642.77370,0.00208
640.71353,0.00146
638.65336,-0.00125
636.59318,-0.00346
634.53301,-0.00298
632.47284,-0.00103
630.41267,-0.00020
628.35250,-0.00071
626.29232,-0.00023
624.23215,0.00206
622.17198,0.00363
620.11181,0.00275
618.05164,0.00028
615.99146,0.00007
613.93129,0.00197
611.87112,0.00163
609.81095,0.00239
607.75077,0.00671
605.69060,0.00819
603.63043,0.00469
601.57026,0.00073
599.51009,0.00000
