3996.73391,-0.00009
3994.67373,-0.00015
3992.61356,0.00000
3990.55339,0.00015
3988.49322,0.00004
3986.43305,-0.00003
3984.37287,0.00014
3982.31270,0.00017
3980.25253,-0.00000
3978.19236,-0.00004
3976.13219,0.00020
3974.07201,0.00046
3972.01184,0.00034
3969.95167,0.00000
3967.89150,0.00008
3965.83133,0.00068
3963.77115,0.00116
3961.71098,0.00107
3959.65081,0.00069
3957.59064,0.00046
3955.53046,0.00044
3953.47029,0.00043
3951.41012,0.00034
3949.34995,0.00043
3947.28978,0.00070
3945.22960,0.00083
3943.16943,0.00085
3941.10926,0.00097
3939.04909,0.00121
3936.98892,0.00145
3934.92874,0.00155
3932.86857,0.00150
3930.80840,0.00123
3928.74823,0.00080
3926.68805,0.00042
3924.62788,0.00038
3922.56771,0.00065
3920.50754,0.00078
3918.44737,0.00072
3916.38719,0.00081
3914.32702,0.00097
3912.26685,0.00098
3910.20668,0.00076
3908.14651,0.00038
3906.08633,0.00002
3904.02616,0.00000
3901.96599,0.00066
3899.90582,0.00167
3897.84565,0.00221
3895.78547,0.00204
3893.72530,0.00181
3891.66513,0.00204
3889.60496,0.00213
3887.54478,0.00155
3885.48461,0.00100
3883.42444,0.00110
3881.36427,0.00144
3879.30410,0.00161
3877.24392,0.00177
3875.18375,0.00209
3873.12358,0.00215
3871.06341,0.00172
3869.00324,0.00145
3866.94306,0.00154
3864.88289,0.00173
3862.82272,0.00175
3860.76255,0.00137
3858.70237,0.00075
3856.64220,0.00023
3854.58203,0.00040
3852.52186,0.00156
3850.46169,0.00236
3848.40151,0.00212
3846.34134,0.00161
3844.28117,0.00123
3842.22100,0.00090
3840.16083,0.00085
3838.10065,0.00116
3836.04048,0.00143
3833.98031,0.00125
3831.92014,0.00069
3829.85997,0.00033
3827.79979,0.00054
3825.73962,0.00105
3823.67945,0.00137
3821.61928,0.00154
3819.55910,0.00181
3817.49893,0.00191
3815.43876,0.00189
3813.37859,0.00205
3811.31842,0.00205
3809.25824,0.00178
3807.19807,0.00170
3805.13790,0.00191
3803.07773,0.00185
3801.01756,0.00133
3798.95738,0.00085
3796.89721,0.00080
3794.83704,0.00106
3792.77687,0.00122
3790.71670,0.00109
3788.65652,0.00088
3786.59635,0.00098
3784.53618,0.00142
3782.47601,0.00175
3780.41583,0.00159
3778.35566,0.00112
3776.29549,0.00096
3774.23532,0.00144
3772.17515,0.00209
3770.11497,0.00217
3768.05480,0.00167
3765.99463,0.00125
3763.93446,0.00115
3761.87429,0.00126
3759.81411,0.00159
3757.75394,0.00196
3755.69377,0.00201
3753.63360,0.00184
3751.57342,0.00151
3749.51325,0.00086
3747.45308,0.00021
3745.39291,0.00000
3743.33274,0.00052
3741.27256,0.00153
3739.21239,0.00233
3737.15222,0.00279
3735.09205,0.00307
3733.03188,0.00302
3730.97170,0.00251
3728.91153,0.00166
3726.85136,0.00084
3724.79119,0.00056
3722.73102,0.00073
3720.67084,0.00065
3718.61067,0.00029
3716.55050,0.00014
3714.49033,0.00015
3712.43015,0.00014
3710.36998,0.00053
3708.30981,0.00135
3706.24964,0.00189
3704.18947,0.00199
3702.12929,0.00190
3700.06912,0.00177
3698.00895,0.00169
3695.94878,0.00161
3693.88861,0.00129
3691.82843,0.00096
3689.76826,0.00108
3687.70809,0.00150
3685.64792,0.00161
3683.58775,0.00141
3681.52757,0.00122
3679.46740,0.00110
3677.40723,0.00096
3675.34706,0.00079
3673.28688,0.00061
3671.22671,0.00080
3669.16654,0.00141
3667.10637,0.00169
3665.04620,0.00163
3662.98602,0.00179
3660.92585,0.00225
3658.86568,0.00285
3656.80551,0.00355
3654.74534,0.00403
3652.68516,0.00385
3650.62499,0.00323
3648.56482,0.00299
3646.50465,0.00343
3644.44447,0.00378
3642.38430,0.00387
3640.32413,0.00391
3638.26396,0.00398
3636.20379,0.00401
3634.14361,0.00404
3632.08344,0.00438
3630.02327,0.00517
3627.96310,0.00588
3625.90293,0.00586
3623.84275,0.00557
3621.78258,0.00548
3619.72241,0.00549
3617.66224,0.00559
3615.60207,0.00578
3613.54189,0.00598
3611.48172,0.00631
3609.42155,0.00664
3607.36138,0.00661
3605.30120,0.00646
3603.24103,0.00676
3601.18086,0.00743
3599.12069,0.00788
3597.06052,0.00804
3595.00034,0.00832
3592.94017,0.00874
3590.88000,0.00904
3588.81983,0.00944
3586.75966,0.01002
3584.69948,0.01035
3582.63931,0.01045
3580.57914,0.01054
3578.51897,0.01066
3576.45879,0.01092
3574.39862,0.01144
3572.33845,0.01197
3570.27828,0.01245
3568.21811,0.01285
3566.15793,0.01307
3564.09776,0.01321
3562.03759,0.01329
3559.97742,0.01344
3557.91725,0.01383
3555.85707,0.01432
3553.79690,0.01465
3551.73673,0.01498
3549.67656,0.01547
3547.61639,0.01598
3545.55621,0.01629
3543.49604,0.01652
3541.43587,0.01700
3539.37570,0.01777
3537.31552,0.01847
3535.25535,0.01885
3533.19518,0.01910
3531.13501,0.01932
3529.07484,0.01954
3527.01466,0.01984
3524.95449,0.02027
3522.89432,0.02095
3520.83415,0.02178
3518.77398,0.02236
3516.71380,0.02247
3514.65363,0.02246
3512.59346,0.02272
3510.53329,0.02299
3508.47312,0.02299
3506.41294,0.02318
3504.35277,0.02387
3502.29260,0.02471
3500.23243,0.02527
3498.17225,0.02559
3496.11208,0.02576
3494.05191,0.02577
3491.99174,0.02597
3489.93157,0.02674
3487.87139,0.02757
3485.81122,0.02780
3483.75105,0.02779
3481.69088,0.02810
3479.63071,0.02852
3477.57053,0.02876
3475.51036,0.02897
3473.45019,0.02938
3471.39002,0.02978
3469.32984,0.03010
3467.26967,0.03053
3465.20950,0.03097
3463.14933,0.03143
3461.08916,0.03192
3459.02898,0.03203
3456.96881,0.03194
3454.90864,0.03214
3452.84847,0.03239
3450.78830,0.03259
3448.72812,0.03305
3446.66795,0.03377
3444.60778,0.03445
3442.54761,0.03489
3440.48744,0.03511
3438.42726,0.03541
3436.36709,0.03584
3434.30692,0.03609
3432.24675,0.03632
3430.18657,0.03663
3428.12640,0.03682
3426.06623,0.03709
3424.00606,0.03755
3421.94589,0.03798
3419.88571,0.03824
3417.82554,0.03841
3415.76537,0.03853
3413.70520,0.03868
3411.64503,0.03902
3409.58485,0.03954
3407.52468,0.03996
3405.46451,0.04027
3403.40434,0.04053
3401.34416,0.04057
3399.28399,0.04048
3397.22382,0.04047
3395.16365,0.04078
3393.10348,0.04125
3391.04330,0.04158
3388.98313,0.04189
3386.92296,0.04230
3384.86279,0.04269
3382.80262,0.04300
3380.74244,0.04322
3378.68227,0.04350
3376.62210,0.04373
3374.56193,0.04370
3372.50176,0.04368
3370.44158,0.04372
3368.38141,0.04383
3366.32124,0.04427
3364.26107,0.04463
3362.20089,0.04462
3360.14072,0.04468
3358.08055,0.04494
3356.02038,0.04518
3353.96021,0.04533
3351.90003,0.04536
3349.83986,0.04545
3347.77969,0.04569
3345.71952,0.04600
3343.65935,0.04622
3341.59917,0.04634
3339.53900,0.04654
3337.47883,0.04680
3335.41866,0.04679
3333.35849,0.04647
3331.29831,0.04629
3329.23814,0.04641
3327.17797,0.04651
3325.11780,0.04658
3323.05762,0.04665
3320.99745,0.04670
3318.93728,0.04690
3316.87711,0.04724
3314.81694,0.04777
3312.75676,0.04835
3310.69659,0.04858
3308.63642,0.04867
3306.57625,0.04891
3304.51608,0.04898
3302.45590,0.04866
3300.39573,0.04814
3298.33556,0.04772
3296.27539,0.04766
3294.21521,0.04788
3292.15504,0.04826
3290.09487,0.04861
3288.03470,0.04883
3285.97453,0.04902
3283.91435,0.04878
3281.85418,0.04816
3279.79401,0.04802
3277.73384,0.04847
3275.67367,0.04901
3273.61349,0.04921
3271.55332,0.04912
3269.49315,0.04899
3267.43298,0.04878
3265.37281,0.04849
3263.31263,0.04839
3261.25246,0.04845
3259.19229,0.04841
3257.13212,0.04811
3255.07194,0.04748
3253.01177,0.04677
3250.95160,0.04653
3248.89143,0.04678
3246.83126,0.04718
3244.77108,0.04762
3242.71091,0.04781
3240.65074,0.04764
3238.59057,0.04731
3236.53040,0.04691
3234.47022,0.04664
3232.41005,0.04634
3230.34988,0.04582
3228.28971,0.04565
3226.22954,0.04594
3224.16936,0.04602
3222.10919,0.04584
3220.04902,0.04581
3217.98885,0.04582
3215.92867,0.04552
3213.86850,0.04514
3211.80833,0.04515
3209.74816,0.04529
3207.68799,0.04512
3205.62781,0.04490
3203.56764,0.04485
3201.50747,0.04477
3199.44730,0.04450
3197.38713,0.04416
3195.32695,0.04399
3193.26678,0.04393
3191.20661,0.04366
3189.14644,0.04329
3187.08626,0.04317
3185.02609,0.04319
3182.96592,0.04312
3180.90575,0.04308
3178.84558,0.04334
3176.78540,0.04352
3174.72523,0.04322
3172.66506,0.04272
3170.60489,0.04238
3168.54472,0.04198
3166.48454,0.04141
3164.42437,0.04108
3162.36420,0.04108
3160.30403,0.04110
3158.24386,0.04099
3156.18368,0.04065
3154.12351,0.04007
3152.06334,0.03962
3150.00317,0.03943
3147.94299,0.03926
3145.88282,0.03906
3143.82265,0.03891
3141.76248,0.03885
3139.70231,0.03874
3137.64213,0.03827
3135.58196,0.03787
3133.52179,0.03801
3131.46162,0.03815
3129.40145,0.03787
3127.34127,0.03743
3125.28110,0.03703
3123.22093,0.03673
3121.16076,0.03660
3119.10058,0.03663
3117.04041,0.03658
3114.98024,0.03636
3112.92007,0.03601
3110.85990,0.03560
3108.79972,0.03543
3106.73955,0.03552
3104.67938,0.03556
3102.61921,0.03533
3100.55904,0.03503
3098.49886,0.03499
3096.43869,0.03498
3094.37852,0.03467
3092.31835,0.03421
3090.25818,0.03386
3088.19800,0.03380
3086.13783,0.03400
3084.07766,0.03402
3082.01749,0.03369
3079.95731,0.03340
3077.89714,0.03326
3075.83697,0.03301
3073.77680,0.03279
3071.71663,0.03272
3069.65645,0.03264
3067.59628,0.03245
3065.53611,0.03215
3063.47594,0.03176
3061.41577,0.03147
3059.35559,0.03151
3057.29542,0.03171
3055.23525,0.03162
3053.17508,0.03114
3051.11491,0.03064
3049.05473,0.03043
3046.99456,0.03049
3044.93439,0.03052
3042.87422,0.03035
3040.81404,0.03008
3038.75387,0.02980
3036.69370,0.02942
3034.63353,0.02903
3032.57336,0.02881
3030.51318,0.02859
3028.45301,0.02815
3026.39284,0.02777
3024.33267,0.02778
3022.27250,0.02785
3020.21232,0.02750
3018.15215,0.02709
3016.09198,0.02713
3014.03181,0.02734
3011.97163,0.02733
3009.91146,0.02724
3007.85129,0.02714
3005.79112,0.02691
3003.73095,0.02667
3001.67077,0.02653
2999.61060,0.02629
2997.55043,0.02587
2995.49026,0.02564
2993.43009,0.02580
2991.36991,0.02597
2989.30974,0.02606
2987.24957,0.02625
2985.18940,0.02645
2983.12923,0.02658
2981.06905,0.02679
2979.00888,0.02720
2976.94871,0.02757
2974.88854,0.02773
2972.82836,0.02804
2970.76819,0.02888
2968.70802,0.02993
2966.64785,0.03069
2964.58768,0.03142
2962.52750,0.03242
2960.46733,0.03344
2958.40716,0.03423
2956.34699,0.03492
2954.28682,0.03571
2952.22664,0.03666
2950.16647,0.03772
2948.10630,0.03883
2946.04613,0.03995
2943.98596,0.04125
2941.92578,0.04292
2939.86561,0.04490
2937.80544,0.04700
2935.74527,0.04905
2933.68509,0.05089
2931.62492,0.05286
2929.56475,0.05524
2927.50458,0.05751
2925.44441,0.05918
2923.38423,0.06047
2921.32406,0.06182
2919.26389,0.06293
2917.20372,0.06301
2915.14355,0.06168
2913.08337,0.05897
2911.02320,0.05547
2908.96303,0.05231
2906.90286,0.05001
2904.84268,0.04817
2902.78251,0.04651
2900.72234,0.04532
2898.66217,0.04451
2896.60200,0.04359
2894.54182,0.04245
2892.48165,0.04134
2890.42148,0.04035
2888.36131,0.03926
2886.30114,0.03822
2884.24096,0.03761
2882.18079,0.03719
2880.12062,0.03658
2878.06045,0.03604
2876.00028,0.03592
2873.94010,0.03615
2871.87993,0.03649
2869.81976,0.03683
2867.75959,0.03729
2865.69941,0.03792
2863.63924,0.03874
2861.57907,0.04005
2859.51890,0.04195
2857.45873,0.04406
2855.39855,0.04607
2853.33838,0.04822
2851.27821,0.05044
2849.21804,0.05113
2847.15787,0.04864
2845.09769,0.04413
2843.03752,0.04000
2840.97735,0.03700
2838.91718,0.03459
2836.85700,0.03252
2834.79683,0.03096
2832.73666,0.02991
2830.67649,0.02917
2828.61632,0.02859
2826.55614,0.02803
2824.49597,0.02756
2822.43580,0.02718
2820.37563,0.02666
2818.31546,0.02617
2816.25528,0.02600
2814.19511,0.02599
2812.13494,0.02588
2810.07477,0.02557
2808.01460,0.02515
2805.95442,0.02484
2803.89425,0.02450
2801.83408,0.02423
2799.77391,0.02416
2797.71373,0.02392
2795.65356,0.02346
2793.59339,0.02327
2791.53322,0.02329
2789.47305,0.02318
2787.41287,0.02299
2785.35270,0.02267
2783.29253,0.02218
2781.23236,0.02187
2779.17219,0.02182
2777.11201,0.02184
2775.05184,0.02181
2772.99167,0.02165
2770.93150,0.02148
2768.87133,0.02145
2766.81115,0.02140
2764.75098,0.02131
2762.69081,0.02130
2760.63064,0.02115
2758.57046,0.02092
2756.51029,0.02091
2754.45012,0.02088
2752.38995,0.02060
2750.32978,0.02041
2748.26960,0.02050
2746.20943,0.02078
2744.14926,0.02114
2742.08909,0.02116
2740.02892,0.02075
2737.96874,0.02042
2735.90857,0.02030
2733.84840,0.02007
2731.78823,0.01991
2729.72805,0.02003
2727.66788,0.02021
2725.60771,0.02037
2723.54754,0.02048
2721.48737,0.02030
2719.42719,0.01998
2717.36702,0.01986
2715.30685,0.01977
2713.24668,0.01959
2711.18651,0.01950
2709.12633,0.01944
2707.06616,0.01926
2705.00599,0.01912
2702.94582,0.01922
2700.88565,0.01943
2698.82547,0.01955
2696.76530,0.01957
2694.70513,0.01936
2692.64496,0.01890
2690.58478,0.01862
2688.52461,0.01871
2686.46444,0.01879
2684.40427,0.01846
2682.34410,0.01800
2680.28392,0.01799
2678.22375,0.01822
2676.16358,0.01823
2674.10341,0.01823
2672.04324,0.01828
2669.98306,0.01823
2667.92289,0.01826
2665.86272,0.01833
2663.80255,0.01821
2661.74238,0.01797
2659.68220,0.01773
2657.62203,0.01752
2655.56186,0.01749
2653.50169,0.01751
2651.44151,0.01731
2649.38134,0.01711
2647.32117,0.01712
2645.26100,0.01704
2643.20083,0.01685
2641.14065,0.01693
2639.08048,0.01709
2637.02031,0.01693
2634.96014,0.01659
2632.89997,0.01632
2630.83979,0.01612
2628.77962,0.01603
2626.71945,0.01605
2624.65928,0.01596
2622.59910,0.01568
2620.53893,0.01555
2618.47876,0.01576
2616.41859,0.01596
2614.35842,0.01556
2612.29824,0.01495
2610.23807,0.01485
2608.17790,0.01511
2606.11773,0.01515
2604.05756,0.01496
2601.99738,0.01479
2599.93721,0.01460
2597.87704,0.01435
2595.81687,0.01412
2593.75670,0.01392
2591.69652,0.01399
2589.63635,0.01427
2587.57618,0.01434
2585.51601,0.01434
2583.45583,0.01446
2581.39566,0.01417
2579.33549,0.01360
2577.27532,0.01349
2575.21515,0.01373
2573.15497,0.01384
2571.09480,0.01380
2569.03463,0.01381
2566.97446,0.01371
2564.91429,0.01332
2562.85411,0.01303
2560.79394,0.01316
2558.73377,0.01323
2556.67360,0.01333
2554.61342,0.01371
2552.55325,0.01382
2550.49308,0.01332
2548.43291,0.01260
2546.37274,0.01243
2544.31256,0.01291
2542.25239,0.01315
2540.19222,0.01259
2538.13205,0.01185
2536.07188,0.01161
2534.01170,0.01164
2531.95153,0.01165
2529.89136,0.01171
2527.83119,0.01189
2525.77102,0.01204
2523.71084,0.01206
2521.65067,0.01178
2519.59050,0.01142
2517.53033,0.01177
2515.47015,0.01237
2513.40998,0.01224
2511.34981,0.01212
2509.28964,0.01219
2507.22947,0.01180
2505.16929,0.01127
2503.10912,0.01096
2501.04895,0.01085
2498.98878,0.01078
2496.92861,0.01076
2494.86843,0.01086
2492.80826,0.01088
2490.74809,0.01091
2488.68792,0.01098
2486.62775,0.01088
2484.56757,0.01087
2482.50740,0.01086
2480.44723,0.01042
2478.38706,0.00994
2476.32688,0.00979
2474.26671,0.00987
2472.20654,0.00998
2470.14637,0.01015
2468.08620,0.01047
2466.02602,0.01060
2463.96585,0.01055
2461.90568,0.01050
2459.84551,0.01023
2457.78534,0.01003
2455.72516,0.00997
2453.66499,0.00960
2451.60482,0.00925
2449.54465,0.00931
2447.48447,0.00947
2445.42430,0.00934
2443.36413,0.00914
2441.30396,0.00937
2439.24379,0.00982
2437.18361,0.01012
2435.12344,0.01011
2433.06327,0.00985
2431.00310,0.00955
2428.94293,0.00914
2426.88275,0.00882
2424.82258,0.00902
2422.76241,0.00966
2420.70224,0.01004
2418.64207,0.00977
2416.58189,0.00939
2414.52172,0.00915
2412.46155,0.00878
2410.40138,0.00852
2408.34120,0.00868
2406.28103,0.00894
2404.22086,0.00890
2402.16069,0.00872
2400.10052,0.00877
2398.04034,0.00892
2395.98017,0.00887
2393.92000,0.00855
2391.85983,0.00824
2389.79966,0.00820
2387.73948,0.00822
2385.67931,0.00811
2383.61914,0.00801
2381.55897,0.00806
2379.49880,0.00819
2377.43862,0.00836
2375.37845,0.00834
2373.31828,0.00787
2371.25811,0.00705
2369.19793,0.00611
2367.13776,0.00487
2365.07759,0.00297
2363.01742,0.00156
2360.95725,0.00248
2358.89707,0.00473
2356.83690,0.00568
2354.77673,0.00543
2352.71656,0.00577
2350.65639,0.00687
2348.59621,0.00777
2346.53604,0.00791
2344.47587,0.00745
2342.41570,0.00718
2340.35552,0.00735
2338.29535,0.00751
2336.23518,0.00755
2334.17501,0.00734
2332.11484,0.00696
2330.05466,0.00711
2327.99449,0.00802
2325.93432,0.00871
2323.87415,0.00858
2321.81398,0.00846
2319.75380,0.00891
2317.69363,0.00938
2315.63346,0.00914
2313.57329,0.00811
2311.51312,0.00700
2309.45294,0.00682
2307.39277,0.00748
2305.33260,0.00779
2303.27243,0.00721
2301.21225,0.00647
2299.15208,0.00617
2297.09191,0.00614
2295.03174,0.00596
2292.97157,0.00587
2290.91139,0.00625
2288.85122,0.00672
2286.79105,0.00690
2284.73088,0.00694
2282.67071,0.00710
2280.61053,0.00716
2278.55036,0.00691
2276.49019,0.00684
2274.43002,0.00719
2272.36984,0.00735
2270.30967,0.00707
2268.24950,0.00651
2266.18933,0.00588
2264.12916,0.00569
2262.06898,0.00610
2260.00881,0.00651
2257.94864,0.00620
2255.88847,0.00531
2253.82830,0.00506
2251.76812,0.00550
2249.70795,0.00587
2247.64778,0.00663
2245.58761,0.00697
2243.52744,0.00594
2241.46726,0.00484
2239.40709,0.00411
2237.34692,0.00348
2235.28675,0.00335
2233.22657,0.00361
2231.16640,0.00385
2229.10623,0.00416
2227.04606,0.00435
2224.98589,0.00482
2222.92571,0.00551
2220.86554,0.00533
2218.80537,0.00479
2216.74520,0.00503
2214.68503,0.00553
2212.62485,0.00540
2210.56468,0.00492
2208.50451,0.00482
2206.44434,0.00521
2204.38417,0.00563
2202.32399,0.00551
2200.26382,0.00454
2198.20365,0.00368
2196.14348,0.00380
2194.08330,0.00389
2192.02313,0.00321
2189.96296,0.00245
2187.90279,0.00273
2185.84262,0.00409
2183.78244,0.00497
2181.72227,0.00464
2179.66210,0.00449
2177.60193,0.00522
2175.54176,0.00642
2173.48158,0.00720
2171.42141,0.00621
2169.36124,0.00402
2167.30107,0.00234
2165.24089,0.00227
2163.18072,0.00348
2161.12055,0.00348
2159.06038,0.00211
2157.00021,0.00199
2154.94003,0.00259
2152.87986,0.00328
2150.81969,0.00393
2148.75952,0.00378
2146.69935,0.00328
2144.63917,0.00274
2142.57900,0.00241
2140.51883,0.00322
2138.45866,0.00402
2136.39849,0.00352
2134.33831,0.00305
2132.27814,0.00324
2130.21797,0.00328
2128.15780,0.00290
2126.09762,0.00281
2124.03745,0.00336
2121.97728,0.00377
2119.91711,0.00376
2117.85694,0.00355
2115.79676,0.00358
2113.73659,0.00396
2111.67642,0.00389
2109.61625,0.00373
2107.55608,0.00420
2105.49590,0.00483
2103.43573,0.00532
2101.37556,0.00561
2099.31539,0.00554
2097.25521,0.00487
2095.19504,0.00385
2093.13487,0.00354
2091.07470,0.00399
2089.01453,0.00433
2086.95435,0.00409
2084.89418,0.00329
2082.83401,0.00274
2080.77384,0.00303
2078.71367,0.00353
2076.65349,0.00389
2074.59332,0.00416
2072.53315,0.00381
2070.47298,0.00308
2068.41281,0.00286
2066.35263,0.00285
2064.29246,0.00248
2062.23229,0.00238
2060.17212,0.00257
2058.11194,0.00298
2056.05177,0.00412
2053.99160,0.00475
2051.93143,0.00396
2049.87126,0.00271
2047.81108,0.00188
2045.75091,0.00166
2043.69074,0.00127
2041.63057,0.00060
2039.57040,0.00062
2037.51022,0.00108
2035.45005,0.00174
2033.38988,0.00294
2031.32971,0.00374
2029.26954,0.00283
2027.20936,0.00109
2025.14919,0.00060
2023.08902,0.00125
2021.02885,0.00142
2018.96867,0.00077
2016.90850,0.00060
2014.84833,0.00171
2012.78816,0.00278
2010.72799,0.00215
2008.66781,0.00101
2006.60764,0.00149
2004.54747,0.00239
2002.48730,0.00233
2000.42713,0.00222
1998.36695,0.00220
1996.30678,0.00190
1994.24661,0.00146
1992.18644,0.00129
1990.12626,0.00172
1988.06609,0.00162
1986.00592,0.00090
1983.94575,0.00112
1981.88558,0.00176
1979.82540,0.00162
1977.76523,0.00131
1975.70506,0.00133
1973.64489,0.00149
1971.58472,0.00149
1969.52454,0.00100
1967.46437,0.00086
1965.40420,0.00156
1963.34403,0.00167
1961.28386,0.00094
1959.22368,0.00048
1957.16351,0.00034
1955.10334,0.00029
1953.04317,0.00070
1950.98299,0.00114
1948.92282,0.00112
1946.86265,0.00136
1944.80248,0.00180
1942.74231,0.00121
1940.68213,0.00043
1938.62196,0.00083
1936.56179,0.00128
1934.50162,0.00079
1932.44145,0.00019
1930.38127,0.00059
1928.32110,0.00160
1926.26093,0.00177
1924.20076,0.00086
1922.14059,0.00003
1920.08041,0.00009
1918.02024,0.00075
1915.96007,0.00131
1913.89990,0.00134
1911.83972,0.00091
1909.77955,0.00056
1907.71938,0.00068
1905.65921,0.00082
1903.59904,0.00076
1901.53886,0.00090
1899.47869,0.00111
1897.41852,0.00111
1895.35835,0.00113
1893.29818,0.00121
1891.23800,0.00140
1889.17783,0.00170
1887.11766,0.00174
1885.05749,0.00163
1882.99731,0.00165
1880.93714,0.00160
1878.87697,0.00143
1876.81680,0.00137
1874.75663,0.00140
1872.69645,0.00150
1870.63628,0.00158
1868.57611,0.00132
1866.51594,0.00083
1864.45577,0.00085
1862.39559,0.00130
1860.33542,0.00139
1858.27525,0.00102
1856.21508,0.00086
1854.15491,0.00105
1852.09473,0.00106
1850.03456,0.00074
1847.97439,0.00058
1845.91422,0.00099
1843.85404,0.00168
1841.79387,0.00183
1839.73370,0.00128
1837.67353,0.00060
1835.61336,0.00024
1833.55318,0.00007
1831.49301,0.00000
1829.43284,0.00002
1827.37267,0.00010
1825.31250,0.00020
1823.25232,0.00030
1821.19215,0.00033
1819.13198,0.00023
1817.07181,0.00015
1815.01163,0.00030
1812.95146,0.00065
1810.89129,0.00094
1808.83112,0.00090
1806.77095,0.00055
1804.71077,0.00014
1802.65060,-0.00007
1800.59043,0.00000
1798.53026,0.00017
1796.47009,0.00029
1794.40991,0.00041
1792.34974,0.00052
1790.28957,0.00047
1788.22940,0.00029
1786.16923,0.00020
1784.10905,0.00025
1782.04888,0.00019
1779.98871,0.00000
1777.92854,-0.00009
1775.86836,0.00014
1773.80819,0.00049
1771.74802,0.00068
1769.68785,0.00067
1767.62768,0.00073
1765.56750,0.00112
1763.50733,0.00190
1761.44716,0.00283
1759.38699,0.00357
1757.32682,0.00424
1755.26664,0.00497
1753.20647,0.00573
1751.14630,0.00699
1749.08613,0.00920
1747.02596,0.01185
1744.96578,0.01448
1742.90561,0.01748
1740.84544,0.02120
1738.78527,0.02522
1736.72509,0.02865
1734.66492,0.03142
1732.60475,0.03362
1730.54458,0.03490
1728.48441,0.03538
1726.42423,0.03538
1724.36406,0.03523
1722.30389,0.03502
1720.24372,0.03465
1718.18355,0.03422
1716.12337,0.03412
1714.06320,0.03417
1712.00303,0.03396
1709.94286,0.03366
1707.88268,0.03338
1705.82251,0.03303
1703.76234,0.03260
1701.70217,0.03186
1699.64200,0.03047
1697.58182,0.02916
1695.52165,0.02851
1693.46148,0.02824
1691.40131,0.02812
1689.34114,0.02815
1687.28096,0.02815
1685.22079,0.02775
1683.16062,0.02719
1681.10045,0.02733
1679.04028,0.02779
1676.98010,0.02807
1674.91993,0.02828
1672.85976,0.02873
1670.79959,0.02948
1668.73941,0.03036
1666.67924,0.03110
1664.61907,0.03193
1662.55890,0.03322
1660.49873,0.03469
1658.43855,0.03585
1656.37838,0.03672
1654.31821,0.03768
1652.25804,0.03887
1650.19787,0.03950
1648.13769,0.03941
1646.07752,0.03929
1644.01735,0.03962
1641.95718,0.04007
1639.89701,0.04054
1637.83683,0.04118
1635.77666,0.04198
1633.71649,0.04276
1631.65632,0.04342
1629.59614,0.04394
1627.53597,0.04440
1625.47580,0.04490
1623.41563,0.04541
1621.35546,0.04594
1619.29528,0.04664
1617.23511,0.04742
1615.17494,0.04803
1613.11477,0.04849
1611.05460,0.04904
1608.99442,0.04965
1606.93425,0.05005
1604.87408,0.04991
1602.81391,0.04927
1600.75373,0.04858
1598.69356,0.04793
1596.63339,0.04698
1594.57322,0.04575
1592.51305,0.04437
1590.45287,0.04283
1588.39270,0.04120
1586.33253,0.03956
1584.27236,0.03785
1582.21219,0.03622
1580.15201,0.03485
1578.09184,0.03357
1576.03167,0.03203
1573.97150,0.03061
1571.91133,0.02959
1569.85115,0.02854
1567.79098,0.02742
1565.73081,0.02660
1563.67064,0.02611
1561.61046,0.02575
1559.55029,0.02515
1557.49012,0.02460
1555.42995,0.02481
1553.36978,0.02522
1551.30960,0.02547
1549.24943,0.02573
1547.18926,0.02601
1545.12909,0.02614
1543.06892,0.02617
1541.00874,0.02612
1538.94857,0.02575
1536.88840,0.02537
1534.82823,0.02503
1532.76805,0.02452
1530.70788,0.02398
1528.64771,0.02353
1526.58754,0.02303
1524.52737,0.02248
1522.46719,0.02216
1520.40702,0.02232
1518.34685,0.02263
1516.28668,0.02262
1514.22651,0.02237
1512.16633,0.02202
1510.10616,0.02131
1508.04599,0.01975
1505.98582,0.01762
1503.92565,0.01639
1501.86547,0.01587
1499.80530,0.01518
1497.74513,0.01390
1495.68496,0.01230
1493.62478,0.01111
1491.56461,0.01016
1489.50444,0.00891
1487.44427,0.00768
1485.38410,0.00702
1483.32392,0.00685
1481.26375,0.00696
1479.20358,0.00745
1477.14341,0.00853
1475.08324,0.01039
1473.02306,0.01295
1470.96289,0.01559
1468.90272,0.01775
1466.84255,0.01972
1464.78238,0.02170
1462.72220,0.02325
1460.66203,0.02421
1458.60186,0.02522
1456.54169,0.02674
1454.48151,0.02811
1452.42134,0.02912
1450.36117,0.03009
1448.30100,0.03104
1446.24083,0.03181
1444.18065,0.03234
1442.12048,0.03264
1440.06031,0.03256
1438.00014,0.03175
1435.93997,0.03016
1433.87979,0.02869
1431.81962,0.02764
1429.75945,0.02654
1427.69928,0.02546
1425.63910,0.02469
1423.57893,0.02429
1421.51876,0.02413
1419.45859,0.02398
1417.39842,0.02383
1415.33824,0.02376
1413.27807,0.02363
1411.21790,0.02330
1409.15773,0.02293
1407.09756,0.02275
1405.03738,0.02272
1402.97721,0.02272
1400.91704,0.02279
1398.85687,0.02295
1396.79670,0.02317
1394.73652,0.02344
1392.67635,0.02375
1390.61618,0.02423
1388.55601,0.02495
1386.49583,0.02575
1384.43566,0.02649
1382.37549,0.02730
1380.31532,0.02831
1378.25515,0.02938
1376.19497,0.03033
1374.13480,0.03105
1372.07463,0.03146
1370.01446,0.03167
1367.95429,0.03186
1365.89411,0.03211
1363.83394,0.03228
1361.77377,0.03231
1359.71360,0.03235
1357.65343,0.03246
1355.59325,0.03266
1353.53308,0.03292
1351.47291,0.03318
1349.41274,0.03352
1347.35256,0.03393
1345.29239,0.03430
1343.23222,0.03467
1341.17205,0.03511
1339.11188,0.03559
1337.05170,0.03610
1334.99153,0.03663
1332.93136,0.03713
1330.87119,0.03774
1328.81102,0.03859
1326.75084,0.03955
1324.69067,0.04039
1322.63050,0.04106
1320.57033,0.04153
1318.51015,0.04183
1316.44998,0.04208
1314.38981,0.04223
1312.32964,0.04205
1310.26947,0.04142
1308.20929,0.04043
1306.14912,0.03907
1304.08895,0.03736
1302.02878,0.03559
1299.96861,0.03388
1297.90843,0.03218
1295.84826,0.03055
1293.78809,0.02918
1291.72792,0.02806
1289.66775,0.02708
1287.60757,0.02637
1285.54740,0.02584
1283.48723,0.02539
1281.42706,0.02512
1279.36688,0.02505
1277.30671,0.02510
1275.24654,0.02531
1273.18637,0.02568
1271.12620,0.02610
1269.06602,0.02664
1267.00585,0.02733
1264.94568,0.02797
1262.88551,0.02836
1260.82534,0.02869
1258.76516,0.02922
1256.70499,0.02995
1254.64482,0.03074
1252.58465,0.03140
1250.52447,0.03189
1248.46430,0.03237
1246.40413,0.03305
1244.34396,0.03389
1242.28379,0.03471
1240.22361,0.03541
1238.16344,0.03605
1236.10327,0.03670
1234.04310,0.03748
1231.98293,0.03839
1229.92275,0.03928
1227.86258,0.04012
1225.80241,0.04089
1223.74224,0.04158
1221.68207,0.04226
1219.62189,0.04297
1217.56172,0.04370
1215.50155,0.04439
1213.44138,0.04498
1211.38120,0.04553
1209.32103,0.04609
1207.26086,0.04673
1205.20069,0.04749
1203.14052,0.04823
1201.08034,0.04879
1199.02017,0.04913
1196.96000,0.04938
1194.89983,0.04968
1192.83966,0.04987
1190.77948,0.04960
1188.71931,0.04885
1186.65914,0.04810
1184.59897,0.04762
1182.53880,0.04726
1180.47862,0.04682
1178.41845,0.04643
1176.35828,0.04649
1174.29811,0.04695
1172.23793,0.04732
1170.17776,0.04736
1168.11759,0.04722
1166.05742,0.04696
1163.99725,0.04659
1161.93707,0.04612
1159.87690,0.04552
1157.81673,0.04461
1155.75656,0.04338
1153.69639,0.04210
1151.63621,0.04080
1149.57604,0.03949
1147.51587,0.03829
1145.45570,0.03718
1143.39552,0.03610
1141.33535,0.03507
1139.27518,0.03401
1137.21501,0.03288
1135.15484,0.03216
1133.09466,0.03205
1131.03449,0.03206
1128.97432,0.03224
1126.91415,0.03298
1124.85398,0.03414
1122.79380,0.03541
1120.73363,0.03681
1118.67346,0.03849
1116.61329,0.04041
1114.55312,0.04246
1112.49294,0.04482
1110.43277,0.04755
1108.37260,0.05033
1106.31243,0.05281
1104.25225,0.05488
1102.19208,0.05671
1100.13191,0.05835
1098.07174,0.05971
1096.01157,0.06095
1093.95139,0.06226
1091.89122,0.06378
1089.83105,0.06547
1087.77088,0.06700
1085.71071,0.06842
1083.65053,0.07020
1081.59036,0.07223
1079.53019,0.07413
1077.47002,0.07584
1075.40985,0.07734
1073.34967,0.07852
1071.28950,0.07944
1069.22933,0.08022
1067.16916,0.08085
1065.10898,0.08158
1063.04881,0.08247
1060.98864,0.08316
1058.92847,0.08374
1056.86830,0.08463
1054.80812,0.08571
1052.74795,0.08693
1050.68778,0.08853
1048.62761,0.09012
1046.56744,0.09129
1044.50726,0.09222
1042.44709,0.09308
1040.38692,0.09417
1038.32675,0.09579
1036.26657,0.09762
1034.20640,0.09930
1032.14623,0.10079
1030.08606,0.10202
1028.02589,0.10290
1025.96571,0.10354
1023.90554,0.10405
1021.84537,0.10421
1019.78520,0.10393
1017.72503,0.10330
1015.66485,0.10238
1013.60468,0.10135
1011.54451,0.10023
1009.48434,0.09892
1007.42417,0.09701
1005.36399,0.09419
1003.30382,0.09129
1001.24365,0.08915
999.18348,0.08723
997.12330,0.08485
995.06313,0.08220
993.00296,0.07953
990.94279,0.07677
988.88262,0.07397
986.82244,0.07123
984.76227,0.06853
982.70210,0.06566
980.64193,0.06252
978.58176,0.05940
976.52158,0.05667
974.46141,0.05427
972.40124,0.05210
970.34107,0.05028
968.28089,0.04881
966.22072,0.04750
964.16055,0.04614
962.10038,0.04476
960.04021,0.04320
957.98003,0.04120
955.91986,0.03898
953.85969,0.03676
951.79952,0.03469
949.73935,0.03303
947.67917,0.03161
945.61900,0.02982
943.55883,0.02772
941.49866,0.02589
939.43849,0.02460
937.37831,0.02374
935.31814,0.02287
933.25797,0.02174
931.19780,0.02060
929.13762,0.01963
927.07745,0.01914
925.01728,0.01922
922.95711,0.01892
920.89694,0.01759
918.83676,0.01591
916.77659,0.01463
914.71642,0.01349
912.65625,0.01214
910.59608,0.01095
908.53590,0.01001
906.47573,0.00911
904.41556,0.00845
902.35539,0.00838
900.29522,0.00865
898.23504,0.00886
896.17487,0.00899
894.11470,0.00885
892.05453,0.00851
889.99435,0.00826
887.93418,0.00818
885.87401,0.00815
883.81384,0.00783
881.75367,0.00735
879.69349,0.00726
877.63332,0.00757
875.57315,0.00777
873.51298,0.00787
871.45281,0.00806
869.39263,0.00801
867.33246,0.00736
865.27229,0.00632
863.21212,0.00548
861.15194,0.00466
859.09177,0.00347
857.03160,0.00221
854.97143,0.00131
852.91126,0.00081
850.85108,0.00055
848.79091,0.00034
846.73074,0.00000
844.67057,-0.00025
842.61040,0.00038
840.55022,0.00111
838.49005,0.00127
836.42988,0.00210
834.36971,0.00364
832.30954,0.00414
830.24936,0.00346
828.18919,0.00292
826.12902,0.00254
824.06885,0.00197
822.00867,0.00187
819.94850,0.00244
817.88833,0.00300
815.82816,0.00305
813.76799,0.00281
811.70781,0.00279
809.64764,0.00296
807.58747,0.00299
805.52730,0.00290
803.46713,0.00247
801.40695,0.00148
799.34678,0.00049
797.28661,0.00000
795.22644,-0.00057
793.16627,-0.00118
791.10609,-0.00115
789.04592,-0.00014
786.98575,0.00070
784.92558,0.00075
782.86540,0.00046
780.80523,0.00025
778.74506,0.00043
776.68489,0.00086
774.62472,0.00135
772.56454,0.00174
770.50437,0.00221
768.44420,0.00362
766.38403,0.00547
764.32386,0.00722
762.26368,0.00959
760.20351,0.01167
758.14334,0.01211
756.08317,0.01176
754.02299,0.01145
751.96282,0.01070
749.90265,0.00920
747.84248,0.00755
745.78231,0.00621
743.72213,0.00508
741.66196,0.00430
739.60179,0.00419
737.54162,0.00466
735.48145,0.00511
733.42127,0.00512
731.36110,0.00505
729.30093,0.00493
727.24076,0.00466
725.18059,0.00470
723.12041,0.00527
721.06024,0.00562
719.00007,0.00518
716.93990,0.00415
714.87972,0.00320
712.81955,0.00286
710.75938,0.00284
708.69921,0.00248
706.63904,0.00195
704.57886,0.00195
702.51869,0.00261
700.45852,0.00338
698.39835,0.00360
696.33818,0.00309
694.27800,0.00202
692.21783,0.00084
690.15766,0.00000
688.09749,-0.00031
686.03731,0.00009
683.97714,0.00052
681.91697,0.00024
679.85680,-0.00002
677.79663,0.00047
675.73645,0.00115
673.67628,0.00136
671.61611,0.00083
669.55594,-0.00015
667.49577,0.00018
665.43559,0.00215
663.37542,0.00379
661.31525,0.00388
659.25508,0.00237
657.19491,0.00071
655.13473,0.00056
653.07456,0.00187
651.01439,0.00349
648.95422,0.00426
646.89404,0.00344
644.83387,0.00181
642.77370,0.00064
640.71353,0.00000
638.65336,-0.00028
636.59318,0.00048
634.53301,0.00232
632.47284,0.00371
630.41267,0.00381
628.35250,0.00323
626.29232,0.00174
624.23215,-0.00068
622.17198,-0.00034
620.11181,0.00297
618.05164,0.00626
615.99146,0.00831
613.93129,0.00912
611.87112,0.00964
609.81095,0.00919
607.75077,0.00712
605.69060,0.00470
603.63043,0.00166
601.57026,-0.00054
599.51009,0.00000
