3996.73391,0.00074
3994.67373,0.00039
3992.61356,0.00040
3990.55339,0.00053
3988.49322,0.00049
3986.43305,0.00051
3984.37287,0.00073
3982.31270,0.00076
3980.25253,0.00039
3978.19236,-0.00001
3976.13219,0.00000
3974.07201,0.00038
3972.01184,0.00083
3969.95167,0.00109
3967.89150,0.00107
3965.83133,0.00081
3963.77115,0.00044
3961.71098,0.00021
3959.65081,0.00045
3957.59064,0.00095
3955.53046,0.00109
3953.47029,0.00094
3951.41012,0.00094
3949.34995,0.00096
3947.28978,0.00071
3945.22960,0.00050
3943.16943,0.00061
3941.10926,0.00084
3939.04909,0.00100
3936.98892,0.00121
3934.92874,0.00135
3932.86857,0.00112
3930.80840,0.00074
3928.74823,0.00052
3926.68805,0.00049
3924.62788,0.00062
3922.56771,0.00081
3920.50754,0.00109
3918.44737,0.00131
3916.38719,0.00120
3914.32702,0.00090
3912.26685,0.00069
3910.20668,0.00079
3908.14651,0.00109
3906.08633,0.00110
3904.02616,0.00067
3901.96599,0.00023
3899.90582,0.00032
3897.84565,0.00079
3895.78547,0.00110
3893.72530,0.00111
3891.66513,0.00110
3889.60496,0.00130
3887.54478,0.00168
3885.48461,0.00197
3883.42444,0.00191
3881.36427,0.00181
3879.30410,0.00203
3877.24392,0.00230
3875.18375,0.00234
3873.12358,0.00216
3871.06341,0.00187
3869.00324,0.00166
3866.94306,0.00149
3864.88289,0.00115
3862.82272,0.00072
3860.76255,0.00050
3858.70237,0.00058
3856.64220,0.00100
3854.58203,0.00159
3852.52186,0.00180
3850.46169,0.00165
3848.40151,0.00161
3846.34134,0.00170
3844.28117,0.00172
3842.22100,0.00171
3840.16083,0.00194
3838.10065,0.00225
3836.04048,0.00205
3833.98031,0.00141
3831.92014,0.00085
3829.85997,0.00059
3827.79979,0.00065
3825.73962,0.00103
3823.67945,0.00131
3821.61928,0.00111
3819.55910,0.00070
3817.49893,0.00054
3815.43876,0.00073
3813.37859,0.00122
3811.31842,0.00166
3809.25824,0.00187
3807.19807,0.00186
3805.13790,0.00160
3803.07773,0.00124
3801.01756,0.00108
3798.95738,0.00123
3796.89721,0.00146
3794.83704,0.00170
3792.77687,0.00177
3790.71670,0.00163
3788.65652,0.00151
3786.59635,0.00161
3784.53618,0.00196
3782.47601,0.00243
3780.41583,0.00275
3778.35566,0.00264
3776.29549,0.00229
3774.23532,0.00211
3772.17515,0.00192
3770.11497,0.00150
3768.05480,0.00123
3765.99463,0.00129
3763.93446,0.00148
3761.87429,0.00186
3759.81411,0.00245
3757.75394,0.00295
3755.69377,0.00294
3753.63360,0.00232
3751.57342,0.00129
3749.51325,0.00034
3747.45308,0.00000
3745.39291,0.00052
3743.33274,0.00148
3741.27256,0.00190
3739.21239,0.00199
3737.15222,0.00200
3735.09205,0.00164
3733.03188,0.00133
3730.97170,0.00150
3728.91153,0.00188
3726.85136,0.00212
3724.79119,0.00219
3722.73102,0.00218
3720.67084,0.00170
3718.61067,0.00075
3716.55050,0.00004
3714.49033,0.00000
3712.43015,0.00053
3710.36998,0.00136
3708.30981,0.00207
3706.24964,0.00237
3704.18947,0.00243
3702.12929,0.00231
3700.06912,0.00204
3698.00895,0.00187
3695.94878,0.00186
3693.88861,0.00204
3691.82843,0.00234
3689.76826,0.00230
3687.70809,0.00181
3685.64792,0.00146
3683.58775,0.00117
3681.52757,0.00084
3679.46740,0.00083
3677.40723,0.00131
3675.34706,0.00185
3673.28688,0.00219
3671.22671,0.00243
3669.16654,0.00247
3667.10637,0.00230
3665.04620,0.00229
3662.98602,0.00251
3660.92585,0.00289
3658.86568,0.00330
3656.80551,0.00351
3654.74534,0.00338
3652.68516,0.00311
3650.62499,0.00317
3648.56482,0.00370
3646.50465,0.00399
3644.44447,0.00404
3642.38430,0.00423
3640.32413,0.00445
3638.26396,0.00462
3636.20379,0.00517
3634.14361,0.00612
3632.08344,0.00661
3630.02327,0.00610
3627.96310,0.00551
3625.90293,0.00586
3623.84275,0.00634
3621.78258,0.00635
3619.72241,0.00642
3617.66224,0.00682
3615.60207,0.00701
3613.54189,0.00696
3611.48172,0.00713
3609.42155,0.00743
3607.36138,0.00766
3605.30120,0.00801
3603.24103,0.00844
3601.18086,0.00872
3599.12069,0.00895
3597.06052,0.00935
3595.00034,0.00972
3592.94017,0.00999
3590.88000,0.01024
3588.81983,0.01059
3586.75966,0.01101
3584.69948,0.01162
3582.63931,0.01213
3580.57914,0.01226
3578.51897,0.01219
3576.45879,0.01224
3574.39862,0.01252
3572.33845,0.01304
3570.27828,0.01365
3568.21811,0.01413
3566.15793,0.01434
3564.09776,0.01448
3562.03759,0.01488
3559.97742,0.01531
3557.91725,0.01557
3555.85707,0.01582
3553.79690,0.01609
3551.73673,0.01648
3549.67656,0.01702
3547.61639,0.01752
3545.55621,0.01805
3543.49604,0.01862
3541.43587,0.01889
3539.37570,0.01894
3537.31552,0.01942
3535.25535,0.02033
3533.19518,0.02103
3531.13501,0.02137
3529.07484,0.02152
3527.01466,0.02152
3524.95449,0.02176
3522.89432,0.02249
3520.83415,0.02335
3518.77398,0.02406
3516.71380,0.02470
3514.65363,0.02515
3512.59346,0.02531
3510.53329,0.02546
3508.47312,0.02591
3506.41294,0.02638
3504.35277,0.02639
3502.29260,0.02631
3500.23243,0.02672
3498.17225,0.02729
3496.11208,0.02766
3494.05191,0.02790
3491.99174,0.02823
3489.93157,0.02881
3487.87139,0.02946
3485.81122,0.03008
3483.75105,0.03068
3481.69088,0.03101
3479.63071,0.03122
3477.57053,0.03162
3475.51036,0.03206
3473.45019,0.03243
3471.39002,0.03281
3469.32984,0.03321
3467.26967,0.03351
3465.20950,0.03357
3463.14933,0.03364
3461.08916,0.03407
3459.02898,0.03472
3456.96881,0.03515
3454.90864,0.03544
3452.84847,0.03583
3450.78830,0.03638
3448.72812,0.03695
3446.66795,0.03736
3444.60778,0.03779
3442.54761,0.03817
3440.48744,0.03825
3438.42726,0.03837
3436.36709,0.03883
3434.30692,0.03964
3432.24675,0.04030
3430.18657,0.04034
3428.12640,0.04030
3426.06623,0.04079
3424.00606,0.04146
3421.94589,0.04188
3419.88571,0.04208
3417.82554,0.04226
3415.76537,0.04258
3413.70520,0.04289
3411.64503,0.04315
3409.58485,0.04358
3407.52468,0.04424
3405.46451,0.04473
3403.40434,0.04482
3401.34416,0.04491
3399.28399,0.04519
3397.22382,0.04545
3395.16365,0.04568
3393.10348,0.04601
3391.04330,0.04635
3388.98313,0.04669
3386.92296,0.04693
3384.86279,0.04687
3382.80262,0.04678
3380.74244,0.04700
3378.68227,0.04732
3376.62210,0.04759
3374.56193,0.04784
3372.50176,0.04793
3370.44158,0.04782
3368.38141,0.04794
3366.32124,0.04863
3364.26107,0.04945
3362.20089,0.04979
3360.14072,0.04991
3358.08055,0.05023
3356.02038,0.05046
3353.96021,0.05037
3351.90003,0.05022
3349.83986,0.05025
3347.77969,0.05045
3345.71952,0.05064
3343.65935,0.05081
3341.59917,0.05113
3339.53900,0.05146
3337.47883,0.05149
3335.41866,0.05132
3333.35849,0.05112
3331.29831,0.05113
3329.23814,0.05140
3327.17797,0.05165
3325.11780,0.05188
3323.05762,0.05205
3320.99745,0.05223
3318.93728,0.05238
3316.87711,0.05228
3314.81694,0.05215
3312.75676,0.05235
3310.69659,0.05262
3308.63642,0.05271
3306.57625,0.05282
3304.51608,0.05291
3302.45590,0.05301
3300.39573,0.05336
3298.33556,0.05365
3296.27539,0.05353
3294.21521,0.05327
3292.15504,0.05314
3290.09487,0.05317
3288.03470,0.05348
3285.97453,0.05399
3283.91435,0.05416
3281.85418,0.05382
3279.79401,0.05353
3277.73384,0.05368
3275.67367,0.05397
3273.61349,0.05416
3271.55332,0.05432
3269.49315,0.05419
3267.43298,0.05380
3265.37281,0.05355
3263.31263,0.05325
3261.25246,0.05282
3259.19229,0.05262
3257.13212,0.05261
3255.07194,0.05257
3253.01177,0.05250
3250.95160,0.05237
3248.89143,0.05227
3246.83126,0.05213
3244.77108,0.05193
3242.71091,0.05167
3240.65074,0.05127
3238.59057,0.05104
3236.53040,0.05128
3234.47022,0.05159
3232.41005,0.05144
3230.34988,0.05091
3228.28971,0.05056
3226.22954,0.05062
3224.16936,0.05090
3222.10919,0.05119
3220.04902,0.05104
3217.98885,0.05034
3215.92867,0.04994
3213.86850,0.05019
3211.80833,0.05042
3209.74816,0.05027
3207.68799,0.04996
3205.62781,0.04975
3203.56764,0.04961
3201.50747,0.04944
3199.44730,0.04935
3197.38713,0.04924
3195.32695,0.04910
3193.26678,0.04896
3191.20661,0.04869
3189.14644,0.04845
3187.08626,0.04823
3185.02609,0.04796
3182.96592,0.04771
3180.90575,0.04747
3178.84558,0.04730
3176.78540,0.04701
3174.72523,0.04654
3172.66506,0.04630
3170.60489,0.04634
3168.54472,0.04625
3166.48454,0.04592
3164.42437,0.04558
3162.36420,0.04545
3160.30403,0.04532
3158.24386,0.04510
3156.18368,0.04506
3154.12351,0.04512
3152.06334,0.04487
3150.00317,0.04418
3147.94299,0.04356
3145.88282,0.04350
3143.82265,0.04348
3141.76248,0.04310
3139.70231,0.04285
3137.64213,0.04295
3135.58196,0.04297
3133.52179,0.04267
3131.46162,0.04219
3129.40145,0.04178
3127.34127,0.04153
3125.28110,0.04142
3123.22093,0.04141
3121.16076,0.04133
3119.10058,0.04113
3117.04041,0.04098
3114.98024,0.04077
3112.92007,0.04030
3110.85990,0.03990
3108.79972,0.03980
3106.73955,0.03964
3104.67938,0.03934
3102.61921,0.03925
3100.55904,0.03927
3098.49886,0.03899
3096.43869,0.03857
3094.37852,0.03839
3092.31835,0.03843
3090.25818,0.03847
3088.19800,0.03822
3086.13783,0.03780
3084.07766,0.03759
3082.01749,0.03752
3079.95731,0.03730
3077.89714,0.03707
3075.83697,0.03704
3073.77680,0.03692
3071.71663,0.03652
3069.65645,0.03615
3067.59628,0.03606
3065.53611,0.03603
3063.47594,0.03581
3061.41577,0.03546
3059.35559,0.03504
3057.29542,0.03471
3055.23525,0.03455
3053.17508,0.03437
3051.11491,0.03404
3049.05473,0.03366
3046.99456,0.03348
3044.93439,0.03352
3042.87422,0.03364
3040.81404,0.03372
3038.75387,0.03354
3036.69370,0.03305
3034.63353,0.03242
3032.57336,0.03178
3030.51318,0.03126
3028.45301,0.03097
3026.39284,0.03088
3024.33267,0.03073
3022.27250,0.03041
3020.21232,0.03012
3018.15215,0.03008
3016.09198,0.03022
3014.03181,0.03032
3011.97163,0.03031
3009.91146,0.03010
3007.85129,0.02977
3005.79112,0.02945
3003.73095,0.02906
3001.67077,0.02861
2999.61060,0.02835
2997.55043,0.02824
2995.49026,0.02828
2993.43009,0.02872
2991.36991,0.02914
2989.30974,0.02908
2987.24957,0.02887
2985.18940,0.02890
2983.12923,0.02918
2981.06905,0.02960
2979.00888,0.03003
2976.94871,0.03030
2974.88854,0.03046
2972.82836,0.03082
2970.76819,0.03139
2968.70802,0.03193
2966.64785,0.03259
2964.58768,0.03341
2962.52750,0.03428
2960.46733,0.03524
2958.40716,0.03632
2956.34699,0.03734
2954.28682,0.03785
2952.22664,0.03809
2950.16647,0.03887
2948.10630,0.04017
2946.04613,0.04145
2943.98596,0.04265
2941.92578,0.04396
2939.86561,0.04549
2937.80544,0.04720
2935.74527,0.04904
2933.68509,0.05119
2931.62492,0.05342
2929.56475,0.05523
2927.50458,0.05666
2925.44441,0.05786
2923.38423,0.05897
2921.32406,0.06043
2919.26389,0.06202
2917.20372,0.06246
2915.14355,0.06085
2913.08337,0.05793
2911.02320,0.05498
2908.96303,0.05256
2906.90286,0.05062
2904.84268,0.04900
2902.78251,0.04766
2900.72234,0.04653
2898.66217,0.04554
2896.60200,0.04467
2894.54182,0.04384
2892.48165,0.04310
2890.42148,0.04237
2888.36131,0.04129
2886.30114,0.04012
2884.24096,0.03941
2882.18079,0.03897
2880.12062,0.03847
2878.06045,0.03824
2876.00028,0.03838
2873.94010,0.03849
2871.87993,0.03844
2869.81976,0.03843
2867.75959,0.03875
2865.69941,0.03942
2863.63924,0.04034
2861.57907,0.04162
2859.51890,0.04308
2857.45873,0.04448
2855.39855,0.04606
2853.33838,0.04790
2851.27821,0.04947
2849.21804,0.04982
2847.15787,0.04802
2845.09769,0.04458
2843.03752,0.04096
2840.97735,0.03789
2838.91718,0.03560
2836.85700,0.03400
2834.79683,0.03279
2832.73666,0.03194
2830.67649,0.03130
2828.61632,0.03073
2826.55614,0.03005
2824.49597,0.02931
2822.43580,0.02882
2820.37563,0.02862
2818.31546,0.02848
2816.25528,0.02827
2814.19511,0.02793
2812.13494,0.02743
2810.07477,0.02695
2808.01460,0.02681
2805.95442,0.02688
2803.89425,0.02670
2801.83408,0.02628
2799.77391,0.02601
2797.71373,0.02586
2795.65356,0.02576
2793.59339,0.02580
2791.53322,0.02568
2789.47305,0.02532
2787.41287,0.02493
2785.35270,0.02460
2783.29253,0.02448
2781.23236,0.02463
2779.17219,0.02475
2777.11201,0.02457
2775.05184,0.02424
2772.99167,0.02403
2770.93150,0.02402
2768.87133,0.02396
2766.81115,0.02368
2764.75098,0.02334
2762.69081,0.02327
2760.63064,0.02347
2758.57046,0.02359
2756.51029,0.02345
2754.45012,0.02322
2752.38995,0.02303
2750.32978,0.02299
2748.26960,0.02301
2746.20943,0.02288
2744.14926,0.02282
2742.08909,0.02298
2740.02892,0.02301
2737.96874,0.02281
2735.90857,0.02249
2733.84840,0.02228
2731.78823,0.02244
2729.72805,0.02266
2727.66788,0.02265
2725.60771,0.02256
2723.54754,0.02240
2721.48737,0.02221
2719.42719,0.02218
2717.36702,0.02221
2715.30685,0.02207
2713.24668,0.02185
2711.18651,0.02173
2709.12633,0.02173
2707.06616,0.02173
2705.00599,0.02156
2702.94582,0.02129
2700.88565,0.02111
2698.82547,0.02106
2696.76530,0.02107
2694.70513,0.02113
2692.64496,0.02120
2690.58478,0.02112
2688.52461,0.02085
2686.46444,0.02055
2684.40427,0.02033
2682.34410,0.02029
2680.28392,0.02040
2678.22375,0.02051
2676.16358,0.02060
2674.10341,0.02063
2672.04324,0.02056
2669.98306,0.02049
2667.92289,0.02031
2665.86272,0.02006
2663.80255,0.02010
2661.74238,0.02027
2659.68220,0.02011
2657.62203,0.01989
2655.56186,0.01999
2653.50169,0.02010
2651.44151,0.01998
2649.38134,0.01974
2647.32117,0.01946
2645.26100,0.01914
2643.20083,0.01884
2641.14065,0.01870
2639.08048,0.01886
2637.02031,0.01906
2634.96014,0.01894
2632.89997,0.01867
2630.83979,0.01858
2628.77962,0.01851
2626.71945,0.01826
2624.65928,0.01785
2622.59910,0.01750
2620.53893,0.01728
2618.47876,0.01710
2616.41859,0.01696
2614.35842,0.01709
2612.29824,0.01719
2610.23807,0.01687
2608.17790,0.01655
2606.11773,0.01678
2604.05756,0.01718
2601.99738,0.01720
2599.93721,0.01691
2597.87704,0.01646
2595.81687,0.01637
2593.75670,0.01694
2591.69652,0.01731
2589.63635,0.01692
2587.57618,0.01633
2585.51601,0.01604
2583.45583,0.01591
2581.39566,0.01586
2579.33549,0.01575
2577.27532,0.01543
2575.21515,0.01521
2573.15497,0.01527
2571.09480,0.01530
2569.03463,0.01521
2566.97446,0.01512
2564.91429,0.01513
2562.85411,0.01521
2560.79394,0.01500
2558.73377,0.01450
2556.67360,0.01437
2554.61342,0.01492
2552.55325,0.01529
2550.49308,0.01518
2548.43291,0.01509
2546.37274,0.01501
2544.31256,0.01484
2542.25239,0.01465
2540.19222,0.01436
2538.13205,0.01400
2536.07188,0.01376
2534.01170,0.01382
2531.95153,0.01409
2529.89136,0.01397
2527.83119,0.01337
2525.77102,0.01289
2523.71084,0.01291
2521.65067,0.01326
2519.59050,0.01353
2517.53033,0.01374
2515.47015,0.01413
2513.40998,0.01421
2511.34981,0.01367
2509.28964,0.01311
2507.22947,0.01323
2505.16929,0.01359
2503.10912,0.01333
2501.04895,0.01278
2498.98878,0.01254
2496.92861,0.01254
2494.86843,0.01284
2492.80826,0.01326
2490.74809,0.01317
2488.68792,0.01278
2486.62775,0.01272
2484.56757,0.01288
2482.50740,0.01279
2480.44723,0.01242
2478.38706,0.01209
2476.32688,0.01197
2474.26671,0.01201
2472.20654,0.01204
2470.14637,0.01181
2468.08620,0.01144
2466.02602,0.01132
2463.96585,0.01144
2461.90568,0.01163
2459.84551,0.01175
2457.78534,0.01173
2455.72516,0.01155
2453.66499,0.01110
2451.60482,0.01067
2449.54465,0.01062
2447.48447,0.01075
2445.42430,0.01079
2443.36413,0.01074
2441.30396,0.01074
2439.24379,0.01088
2437.18361,0.01097
2435.12344,0.01088
2433.06327,0.01078
2431.00310,0.01080
2428.94293,0.01098
2426.88275,0.01115
2424.82258,0.01110
2422.76241,0.01076
2420.70224,0.01046
2418.64207,0.01018
2416.58189,0.00992
2414.52172,0.01005
2412.46155,0.01025
2410.40138,0.01002
2408.34120,0.00977
2406.28103,0.01011
2404.22086,0.01067
2402.16069,0.01062
2400.10052,0.01018
2398.04034,0.00982
2395.98017,0.00976
2393.92000,0.00995
2391.85983,0.01017
2389.79966,0.01023
2387.73948,0.01024
2385.67931,0.01013
2383.61914,0.00995
2381.55897,0.00965
2379.49880,0.00912
2377.43862,0.00864
2375.37845,0.00874
2373.31828,0.00871
2371.25811,0.00830
2369.19793,0.00882
2367.13776,0.00967
2365.07759,0.00956
2363.01742,0.00946
2360.95725,0.00875
2358.89707,0.00941
2356.83690,0.01039
2354.77673,0.01109
2352.71656,0.01093
2350.65639,0.00868
2348.59621,0.00789
2346.53604,0.01136
2344.47587,0.01153
2342.41570,0.00975
2340.35552,0.00906
2338.29535,0.00911
2336.23518,0.00970
2334.17501,0.01012
2332.11484,0.01037
2330.05466,0.01040
2327.99449,0.01044
2325.93432,0.00996
2323.87415,0.01027
2321.81398,0.01081
2319.75380,0.01127
2317.69363,0.01057
2315.63346,0.01006
2313.57329,0.00983
2311.51312,0.00925
2309.45294,0.00864
2307.39277,0.00844
2305.33260,0.00857
2303.27243,0.00874
2301.21225,0.00914
2299.15208,0.00946
2297.09191,0.00937
2295.03174,0.00896
2292.97157,0.00848
2290.91139,0.00840
2288.85122,0.00892
2286.79105,0.00929
2284.73088,0.00880
2282.67071,0.00799
2280.61053,0.00775
2278.55036,0.00806
2276.49019,0.00824
2274.43002,0.00787
2272.36984,0.00727
2270.30967,0.00709
2268.24950,0.00772
2266.18933,0.00845
2264.12916,0.00841
2262.06898,0.00789
2260.00881,0.00736
2257.94864,0.00695
2255.88847,0.00691
2253.82830,0.00695
2251.76812,0.00680
2249.70795,0.00648
2247.64778,0.00628
2245.58761,0.00636
2243.52744,0.00669
2241.46726,0.00705
2239.40709,0.00699
2237.34692,0.00634
2235.28675,0.00608
2233.22657,0.00700
2231.16640,0.00747
2229.10623,0.00660
2227.04606,0.00611
2224.98589,0.00666
2222.92571,0.00708
2220.86554,0.00648
2218.80537,0.00566
2216.74520,0.00547
2214.68503,0.00571
2212.62485,0.00578
2210.56468,0.00516
2208.50451,0.00464
2206.44434,0.00484
2204.38417,0.00499
2202.32399,0.00466
2200.26382,0.00457
2198.20365,0.00524
2196.14348,0.00607
2194.08330,0.00663
2192.02313,0.00712
2189.96296,0.00743
2187.90279,0.00689
2185.84262,0.00542
2183.78244,0.00397
2181.72227,0.00363
2179.66210,0.00432
2177.60193,0.00427
2175.54176,0.00333
2173.48158,0.00310
2171.42141,0.00375
2169.36124,0.00417
2167.30107,0.00363
2165.24089,0.00308
2163.18072,0.00382
2161.12055,0.00451
2159.06038,0.00425
2157.00021,0.00418
2154.94003,0.00422
2152.87986,0.00426
2150.81969,0.00427
2148.75952,0.00397
2146.69935,0.00342
2144.63917,0.00358
2142.57900,0.00470
2140.51883,0.00481
2138.45866,0.00330
2136.39849,0.00216
2134.33831,0.00283
2132.27814,0.00419
2130.21797,0.00456
2128.15780,0.00403
2126.09762,0.00366
2124.03745,0.00418
2121.97728,0.00540
2119.91711,0.00633
2117.85694,0.00615
2115.79676,0.00523
2113.73659,0.00456
2111.67642,0.00419
2109.61625,0.00399
2107.55608,0.00461
2105.49590,0.00580
2103.43573,0.00623
2101.37556,0.00576
2099.31539,0.00517
2097.25521,0.00462
2095.19504,0.00439
2093.13487,0.00502
2091.07470,0.00596
2089.01453,0.00627
2086.95435,0.00600
2084.89418,0.00586
2082.83401,0.00614
2080.77384,0.00657
2078.71367,0.00658
2076.65349,0.00558
2074.59332,0.00438
2072.53315,0.00432
2070.47298,0.00510
2068.41281,0.00517
2066.35263,0.00464
2064.29246,0.00462
2062.23229,0.00459
2060.17212,0.00425
2058.11194,0.00405
2056.05177,0.00389
2053.99160,0.00417
2051.93143,0.00482
2049.87126,0.00477
2047.81108,0.00449
2045.75091,0.00493
2043.69074,0.00535
2041.63057,0.00542
2039.57040,0.00579
2037.51022,0.00640
2035.45005,0.00599
2033.38988,0.00467
2031.32971,0.00454
2029.26954,0.00543
2027.20936,0.00527
2025.14919,0.00390
2023.08902,0.00276
2021.02885,0.00316
2018.96867,0.00433
2016.90850,0.00385
2014.84833,0.00179
2012.78816,0.00084
2010.72799,0.00176
2008.66781,0.00227
2006.60764,0.00145
2004.54747,0.00079
2002.48730,0.00110
2000.42713,0.00180
1998.36695,0.00209
1996.30678,0.00247
1994.24661,0.00339
1992.18644,0.00412
1990.12626,0.00410
1988.06609,0.00392
1986.00592,0.00419
1983.94575,0.00420
1981.88558,0.00393
1979.82540,0.00403
1977.76523,0.00365
1975.70506,0.00207
1973.64489,0.00034
1971.58472,0.00000
1969.52454,0.00097
1967.46437,0.00230
1965.40420,0.00355
1963.34403,0.00410
1961.28386,0.00387
1959.22368,0.00300
1957.16351,0.00200
1955.10334,0.00240
1953.04317,0.00340
1950.98299,0.00284
1948.92282,0.00135
1946.86265,0.00066
1944.80248,0.00116
1942.74231,0.00215
1940.68213,0.00279
1938.62196,0.00291
1936.56179,0.00280
1934.50162,0.00268
1932.44145,0.00249
1930.38127,0.00222
1928.32110,0.00219
1926.26093,0.00228
1924.20076,0.00209
1922.14059,0.00194
1920.08041,0.00208
1918.02024,0.00217
1915.96007,0.00212
1913.89990,0.00225
1911.83972,0.00231
1909.77955,0.00200
1907.71938,0.00157
1905.65921,0.00129
1903.59904,0.00130
1901.53886,0.00148
1899.47869,0.00161
1897.41852,0.00165
1895.35835,0.00157
1893.29818,0.00162
1891.23800,0.00197
1889.17783,0.00224
1887.11766,0.00224
1885.05749,0.00210
1882.99731,0.00185
1880.93714,0.00160
1878.87697,0.00163
1876.81680,0.00192
1874.75663,0.00217
1872.69645,0.00225
1870.63628,0.00209
1868.57611,0.00157
1866.51594,0.00109
1864.45577,0.00100
1862.39559,0.00110
1860.33542,0.00121
1858.27525,0.00130
1856.21508,0.00119
1854.15491,0.00087
1852.09473,0.00075
1850.03456,0.00100
1847.97439,0.00130
1845.91422,0.00125
1843.85404,0.00086
1841.79387,0.00037
1839.73370,0.00005
1837.67353,0.00010
1835.61336,0.00040
1833.55318,0.00050
1831.49301,0.00042
1829.43284,0.00045
1827.37267,0.00042
1825.31250,0.00015
1823.25232,0.00000
1821.19215,0.00019
1819.13198,0.00041
1817.07181,0.00035
1815.01163,0.00012
1812.95146,-0.00008
1810.89129,-0.00019
1808.83112,-0.00020
1806.77095,-0.00017
1804.71077,-0.00013
1802.65060,-0.00006
1800.59043,0.00004
1798.53026,0.00000
1796.47009,-0.00021
1794.40991,-0.00038
1792.34974,-0.00026
1790.28957,0.00020
1788.22940,0.00065
1786.16923,0.00076
1784.10905,0.00061
1782.04888,0.00046
1779.98871,0.00025
1777.92854,0.00000
1775.86836,0.00005
1773.80819,0.00038
1771.74802,0.00033
1769.68785,0.00004
1767.62768,0.00015
1765.56750,0.00060
1763.50733,0.00110
1761.44716,0.00167
1759.38699,0.00241
1757.32682,0.00327
1755.26664,0.00414
1753.20647,0.00491
1751.14630,0.00598
1749.08613,0.00777
1747.02596,0.00992
1744.96578,0.01230
1742.90561,0.01532
1740.84544,0.01902
1738.78527,0.02279
1736.72509,0.02586
1734.66492,0.02852
1732.60475,0.03087
1730.54458,0.03226
1728.48441,0.03291
1726.42423,0.03316
1724.36406,0.03304
1722.30389,0.03268
1720.24372,0.03233
1718.18355,0.03191
1716.12337,0.03139
1714.06320,0.03115
1712.00303,0.03122
1709.94286,0.03123
1707.88268,0.03084
1705.82251,0.03011
1703.76234,0.02959
1701.70217,0.02931
1699.64200,0.02883
1697.58182,0.02839
1695.52165,0.02808
1693.46148,0.02768
1691.40131,0.02724
1689.34114,0.02687
1687.28096,0.02651
1685.22079,0.02584
1683.16062,0.02524
1681.10045,0.02543
1679.04028,0.02584
1676.98010,0.02595
1674.91993,0.02585
1672.85976,0.02583
1670.79959,0.02610
1668.73941,0.02682
1666.67924,0.02781
1664.61907,0.02893
1662.55890,0.03034
1660.49873,0.03185
1658.43855,0.03314
1656.37838,0.03414
1654.31821,0.03459
1652.25804,0.03464
1650.19787,0.03496
1648.13769,0.03554
1646.07752,0.03619
1644.01735,0.03673
1641.95718,0.03709
1639.89701,0.03729
1637.83683,0.03736
1635.77666,0.03769
1633.71649,0.03853
1631.65632,0.03940
1629.59614,0.04009
1627.53597,0.04070
1625.47580,0.04139
1623.41563,0.04238
1621.35546,0.04352
1619.29528,0.04451
1617.23511,0.04546
1615.17494,0.04644
1613.11477,0.04724
1611.05460,0.04789
1608.99442,0.04842
1606.93425,0.04872
1604.87408,0.04873
1602.81391,0.04841
1600.75373,0.04767
1598.69356,0.04649
1596.63339,0.04504
1594.57322,0.04356
1592.51305,0.04209
1590.45287,0.04054
1588.39270,0.03889
1586.33253,0.03707
1584.27236,0.03515
1582.21219,0.03346
1580.15201,0.03209
1578.09184,0.03056
1576.03167,0.02859
1573.97150,0.02697
1571.91133,0.02591
1569.85115,0.02465
1567.79098,0.02316
1565.73081,0.02207
1563.67064,0.02152
1561.61046,0.02132
1559.55029,0.02111
1557.49012,0.02077
1555.42995,0.02059
1553.36978,0.02060
1551.30960,0.02081
1549.24943,0.02105
1547.18926,0.02119
1545.12909,0.02127
1543.06892,0.02121
1541.00874,0.02089
1538.94857,0.02061
1536.88840,0.02060
1534.82823,0.02041
1532.76805,0.01990
1530.70788,0.01943
1528.64771,0.01901
1526.58754,0.01833
1524.52737,0.01743
1522.46719,0.01676
1520.40702,0.01666
1518.34685,0.01689
1516.28668,0.01709
1514.22651,0.01717
1512.16633,0.01697
1510.10616,0.01637
1508.04599,0.01500
1505.98582,0.01305
1503.92565,0.01179
1501.86547,0.01099
1499.80530,0.00986
1497.74513,0.00830
1495.68496,0.00690
1493.62478,0.00596
1491.56461,0.00495
1489.50444,0.00361
1487.44427,0.00261
1485.38410,0.00230
1483.32392,0.00230
1481.26375,0.00237
1479.20358,0.00262
1477.14341,0.00327
1475.08324,0.00458
1473.02306,0.00691
1470.96289,0.00988
1468.90272,0.01252
1466.84255,0.01476
1464.78238,0.01688
1462.72220,0.01864
1460.66203,0.01977
1458.60186,0.02066
1456.54169,0.02203
1454.48151,0.02368
1452.42134,0.02504
1450.36117,0.02616
1448.30100,0.02719
1446.24083,0.02812
1444.18065,0.02883
1442.12048,0.02919
1440.06031,0.02899
1438.00014,0.02796
1435.93997,0.02625
1433.87979,0.02456
1431.81962,0.02312
1429.75945,0.02181
1427.69928,0.02089
1425.63910,0.02037
1423.57893,0.02002
1421.51876,0.01978
1419.45859,0.01962
1417.39842,0.01942
1415.33824,0.01913
1413.27807,0.01876
1411.21790,0.01837
1409.15773,0.01809
1407.09756,0.01791
1405.03738,0.01780
1402.97721,0.01773
1400.91704,0.01772
1398.85687,0.01785
1396.79670,0.01815
1394.73652,0.01846
1392.67635,0.01885
1390.61618,0.01950
1388.55601,0.02033
1386.49583,0.02111
1384.43566,0.02180
1382.37549,0.02253
1380.31532,0.02337
1378.25515,0.02421
1376.19497,0.02492
1374.13480,0.02562
1372.07463,0.02641
1370.01446,0.02720
1367.95429,0.02779
1365.89411,0.02798
1363.83394,0.02777
1361.77377,0.02758
1359.71360,0.02781
1357.65343,0.02824
1355.59325,0.02860
1353.53308,0.02899
1351.47291,0.02944
1349.41274,0.02985
1347.35256,0.03021
1345.29239,0.03060
1343.23222,0.03095
1341.17205,0.03120
1339.11188,0.03163
1337.05170,0.03247
1334.99153,0.03340
1332.93136,0.03413
1330.87119,0.03464
1328.81102,0.03515
1326.75084,0.03588
1324.69067,0.03681
1322.63050,0.03775
1320.57033,0.03859
1318.51015,0.03915
1316.44998,0.03927
1314.38981,0.03898
1312.32964,0.03852
1310.26947,0.03806
1308.20929,0.03734
1306.14912,0.03601
1304.08895,0.03410
1302.02878,0.03190
1299.96861,0.02979
1297.90843,0.02785
1295.84826,0.02599
1293.78809,0.02428
1291.72792,0.02286
1289.66775,0.02173
1287.60757,0.02077
1285.54740,0.01995
1283.48723,0.01931
1281.42706,0.01884
1279.36688,0.01850
1277.30671,0.01836
1275.24654,0.01842
1273.18637,0.01862
1271.12620,0.01893
1269.06602,0.01933
1267.00585,0.01976
1264.94568,0.02033
1262.88551,0.02111
1260.82534,0.02175
1258.76516,0.02211
1256.70499,0.02249
1254.64482,0.02314
1252.58465,0.02389
1250.52447,0.02453
1248.46430,0.02511
1246.40413,0.02579
1244.34396,0.02654
1242.28379,0.02733
1240.22361,0.02810
1238.16344,0.02872
1236.10327,0.02931
1234.04310,0.03006
1231.98293,0.03098
1229.92275,0.03203
1227.86258,0.03311
1225.80241,0.03416
1223.74224,0.03517
1221.68207,0.03603
1219.62189,0.03670
1217.56172,0.03732
1215.50155,0.03800
1213.44138,0.03881
1211.38120,0.03975
1209.32103,0.04073
1207.26086,0.04177
1205.20069,0.04289
1203.14052,0.04385
1201.08034,0.04451
1199.02017,0.04497
1196.96000,0.04532
1194.89983,0.04572
1192.83966,0.04605
1190.77948,0.04604
1188.71931,0.04571
1186.65914,0.04519
1184.59897,0.04439
1182.53880,0.04359
1180.47862,0.04311
1178.41845,0.04283
1176.35828,0.04263
1174.29811,0.04255
1172.23793,0.04256
1170.17776,0.04252
1168.11759,0.04235
1166.05742,0.04206
1163.99725,0.04176
1161.93707,0.04135
1159.87690,0.04054
1157.81673,0.03932
1155.75656,0.03806
1153.69639,0.03705
1151.63621,0.03612
1149.57604,0.03495
1147.51587,0.03369
1145.45570,0.03268
1143.39552,0.03178
1141.33535,0.03065
1139.27518,0.02932
1137.21501,0.02820
1135.15484,0.02763
1133.09466,0.02742
1131.03449,0.02734
1128.97432,0.02759
1126.91415,0.02826
1124.85398,0.02921
1122.79380,0.03028
1120.73363,0.03152
1118.67346,0.03293
1116.61329,0.03471
1114.55312,0.03684
1112.49294,0.03908
1110.43277,0.04145
1108.37260,0.04401
1106.31243,0.04659
1104.25225,0.04906
1102.19208,0.05120
1100.13191,0.05292
1098.07174,0.05456
1096.01157,0.05625
1093.95139,0.05782
1091.89122,0.05916
1089.83105,0.06040
1087.77088,0.06189
1085.71071,0.06375
1083.65053,0.06583
1081.59036,0.06779
1079.53019,0.06965
1077.47002,0.07170
1075.40985,0.07361
1073.34967,0.07477
1071.28950,0.07543
1069.22933,0.07623
1067.16916,0.07731
1065.10898,0.07844
1063.04881,0.07947
1060.98864,0.08031
1058.92847,0.08132
1056.86830,0.08271
1054.80812,0.08408
1052.74795,0.08539
1050.68778,0.08685
1048.62761,0.08853
1046.56744,0.09042
1044.50726,0.09233
1042.44709,0.09413
1040.38692,0.09622
1038.32675,0.09892
1036.26657,0.10170
1034.20640,0.10417
1032.14623,0.10627
1030.08606,0.10763
1028.02589,0.10848
1025.96571,0.10922
1023.90554,0.10978
1021.84537,0.11013
1019.78520,0.11018
1017.72503,0.10986
1015.66485,0.10931
1013.60468,0.10857
1011.54451,0.10743
1009.48434,0.10599
1007.42417,0.10424
1005.36399,0.10186
1003.30382,0.09905
1001.24365,0.09641
999.18348,0.09402
997.12330,0.09161
995.06313,0.08927
993.00296,0.08677
990.94279,0.08379
988.88262,0.08066
986.82244,0.07757
984.76227,0.07434
982.70210,0.07089
980.64193,0.06749
978.58176,0.06433
976.52158,0.06134
974.46141,0.05869
972.40124,0.05646
970.34107,0.05433
968.28089,0.05243
966.22072,0.05103
964.16055,0.04974
962.10038,0.04823
960.04021,0.04661
957.98003,0.04487
955.91986,0.04302
953.85969,0.04105
951.79952,0.03893
949.73935,0.03701
947.67917,0.03530
945.61900,0.03322
943.55883,0.03098
941.49866,0.02934
939.43849,0.02830
937.37831,0.02727
935.31814,0.02617
933.25797,0.02538
931.19780,0.02485
929.13762,0.02434
927.07745,0.02381
925.01728,0.02282
922.95711,0.02129
920.89694,0.01986
918.83676,0.01888
916.77659,0.01796
914.71642,0.01667
912.65625,0.01531
910.59608,0.01422
908.53590,0.01310
906.47573,0.01198
904.41556,0.01116
902.35539,0.01070
900.29522,0.01068
898.23504,0.01069
896.17487,0.01046
894.11470,0.01031
892.05453,0.01030
889.99435,0.01028
887.93418,0.01004
885.87401,0.00936
883.81384,0.00847
881.75367,0.00812
879.69349,0.00858
877.63332,0.00899
875.57315,0.00891
873.51298,0.00887
871.45281,0.00893
869.39263,0.00898
867.33246,0.00908
865.27229,0.00882
863.21212,0.00772
861.15194,0.00604
859.09177,0.00468
857.03160,0.00354
854.97143,0.00215
852.91126,0.00103
850.85108,0.00054
848.79091,0.00022
846.73074,0.00000
844.67057,0.00022
842.61040,0.00047
840.55022,0.00057
838.49005,0.00083
836.42988,0.00120
834.36971,0.00178
832.30954,0.00252
830.24936,0.00286
828.18919,0.00246
826.12902,0.00179
824.06885,0.00156
822.00867,0.00216
819.94850,0.00292
817.88833,0.00301
815.82816,0.00262
813.76799,0.00212
811.70781,0.00188
809.64764,0.00199
807.58747,0.00214
805.52730,0.00205
803.46713,0.00158
801.40695,0.00112
799.34678,0.00094
797.28661,0.00069
795.22644,0.00021
793.16627,0.00000
791.10609,0.00034
789.04592,0.00147
786.98575,0.00218
784.92558,0.00209
782.86540,0.00210
780.80523,0.00294
778.74506,0.00395
776.68489,0.00429
774.62472,0.00417
772.56454,0.00418
770.50437,0.00454
768.44420,0.00517
766.38403,0.00630
764.32386,0.00801
762.26368,0.00993
760.20351,0.01216
758.14334,0.01435
756.08317,0.01513
754.02299,0.01418
751.96282,0.01283
749.90265,0.01194
747.84248,0.01097
745.78231,0.00980
743.72213,0.00907
741.66196,0.00823
739.60179,0.00653
737.54162,0.00529
735.48145,0.00531
733.42127,0.00535
731.36110,0.00533
729.30093,0.00596
727.24076,0.00620
725.18059,0.00576
723.12041,0.00581
721.06024,0.00659
719.00007,0.00619
716.93990,0.00525
714.87972,0.00450
712.81955,0.00388
710.75938,0.00337
708.69921,0.00252
706.63904,0.00159
704.57886,0.00156
702.51869,0.00203
700.45852,0.00186
698.39835,0.00097
696.33818,0.00000
694.27800,-0.00034
692.21783,0.00013
690.15766,0.00025
688.09749,-0.00096
686.03731,-0.00242
683.97714,-0.00310
681.91697,-0.00334
679.85680,-0.00274
677.79663,-0.00093
675.73645,0.00042
673.67628,-0.00072
671.61611,-0.00311
669.55594,0.00105
667.49577,0.00668
665.43559,0.00011
663.37542,0.00002
661.31525,0.00053
659.25508,-0.00044
657.19491,-0.00078
655.13473,0.00014
653.07456,0.00186
651.01439,0.00362
648.95422,0.00446
646.89404,0.00456
644.83387,0.00483
642.77370,0.00413
640.71353,0.00248
638.65336,0.00133
636.59318,0.00065
634.53301,0.00000
632.47284,-0.00062
630.41267,0.00004
628.35250,0.00207
626.29232,0.00298
624.23215,0.00106
622.17198,-0.00041
620.11181,-0.00088
618.05164,-0.00123
615.99146,-0.00168
613.93129,-0.00248
611.87112,-0.00106
609.81095,0.00242
607.75077,0.00317
605.69060,0.00130
603.63043,0.00015
601.57026,-0.00046
599.51009,0.00000
