3996.73391,0.00093
3994.67373,0.00101
3992.61356,0.00082
3990.55339,0.00070
3988.49322,0.00083
3986.43305,0.00086
3984.37287,0.00053
3982.31270,0.00013
3980.25253,0.00000
3978.19236,0.00004
3976.13219,0.00010
3974.07201,0.00019
3972.01184,0.00037
3969.95167,0.00065
3967.89150,0.00084
3965.83133,0.00084
3963.77115,0.00071
3961.71098,0.00062
3959.65081,0.00061
3957.59064,0.00056
3955.53046,0.00048
3953.47029,0.00058
3951.41012,0.00081
3949.34995,0.00083
3947.28978,0.00061
3945.22960,0.00049
3943.16943,0.00068
3941.10926,0.00095
3939.04909,0.00103
3936.98892,0.00096
3934.92874,0.00081
3932.86857,0.00060
3930.80840,0.00038
3928.74823,0.00021
3926.68805,0.00010
3924.62788,0.00017
3922.56771,0.00038
3920.50754,0.00065
3918.44737,0.00094
3916.38719,0.00106
3914.32702,0.00096
3912.26685,0.00086
3910.20668,0.00080
3908.14651,0.00076
3906.08633,0.00065
3904.02616,0.00030
3901.96599,0.00000
3899.90582,0.00020
3897.84565,0.00056
3895.78547,0.00069
3893.72530,0.00069
3891.66513,0.00067
3889.60496,0.00051
3887.54478,0.00031
3885.48461,0.00038
3883.42444,0.00077
3881.36427,0.00103
3879.30410,0.00093
3877.24392,0.00073
3875.18375,0.00065
3873.12358,0.00086
3871.06341,0.00129
3869.00324,0.00138
3866.94306,0.00093
3864.88289,0.00049
3862.82272,0.00046
3860.76255,0.00073
3858.70237,0.00107
3856.64220,0.00142
3854.58203,0.00158
3852.52186,0.00118
3850.46169,0.00069
3848.40151,0.00069
3846.34134,0.00090
3844.28117,0.00086
3842.22100,0.00051
3840.16083,0.00024
3838.10065,0.00033
3836.04048,0.00054
3833.98031,0.00056
3831.92014,0.00057
3829.85997,0.00075
3827.79979,0.00091
3825.73962,0.00093
3823.67945,0.00090
3821.61928,0.00090
3819.55910,0.00094
3817.49893,0.00106
3815.43876,0.00109
3813.37859,0.00084
3811.31842,0.00053
3809.25824,0.00046
3807.19807,0.00058
3805.13790,0.00080
3803.07773,0.00120
3801.01756,0.00146
3798.95738,0.00125
3796.89721,0.00097
3794.83704,0.00096
3792.77687,0.00104
3790.71670,0.00106
3788.65652,0.00110
3786.59635,0.00131
3784.53618,0.00155
3782.47601,0.00141
3780.41583,0.00104
3778.35566,0.00080
3776.29549,0.00063
3774.23532,0.00055
3772.17515,0.00060
3770.11497,0.00058
3768.05480,0.00049
3765.99463,0.00062
3763.93446,0.00100
3761.87429,0.00121
3759.81411,0.00096
3757.75394,0.00053
3755.69377,0.00039
3753.63360,0.00043
3751.57342,0.00055
3749.51325,0.00104
3747.45308,0.00164
3745.39291,0.00170
3743.33274,0.00136
3741.27256,0.00118
3739.21239,0.00107
3737.15222,0.00061
3735.09205,0.00000
3733.03188,0.00000
3730.97170,0.00041
3728.91153,0.00063
3726.85136,0.00065
3724.79119,0.00074
3722.73102,0.00095
3720.67084,0.00111
3718.61067,0.00107
3716.55050,0.00090
3714.49033,0.00087
3712.43015,0.00105
3710.36998,0.00111
3708.30981,0.00081
3706.24964,0.00041
3704.18947,0.00026
3702.12929,0.00043
3700.06912,0.00075
3698.00895,0.00098
3695.94878,0.00103
3693.88861,0.00105
3691.82843,0.00118
3689.76826,0.00129
3687.70809,0.00126
3685.64792,0.00126
3683.58775,0.00121
3681.52757,0.00105
3679.46740,0.00072
3677.40723,0.00045
3675.34706,0.00082
3673.28688,0.00154
3671.22671,0.00171
3669.16654,0.00132
3667.10637,0.00101
3665.04620,0.00111
3662.98602,0.00141
3660.92585,0.00175
3658.86568,0.00213
3656.80551,0.00233
3654.74534,0.00209
3652.68516,0.00184
3650.62499,0.00195
3648.56482,0.00226
3646.50465,0.00270
3644.44447,0.00310
3642.38430,0.00311
3640.32413,0.00292
3638.26396,0.00295
3636.20379,0.00328
3634.14361,0.00363
3632.08344,0.00378
3630.02327,0.00382
3627.96310,0.00391
3625.90293,0.00398
3623.84275,0.00399
3621.78258,0.00424
3619.72241,0.00482
3617.66224,0.00520
3615.60207,0.00509
3613.54189,0.00514
3611.48172,0.00584
3609.42155,0.00665
3607.36138,0.00703
3605.30120,0.00710
3603.24103,0.00713
3601.18086,0.00716
3599.12069,0.00726
3597.06052,0.00755
3595.00034,0.00797
3592.94017,0.00850
3590.88000,0.00908
3588.81983,0.00962
3586.75966,0.00976
3584.69948,0.00952
3582.63931,0.00937
3580.57914,0.00946
3578.51897,0.00979
3576.45879,0.01034
3574.39862,0.01087
3572.33845,0.01124
3570.27828,0.01164
3568.21811,0.01211
3566.15793,0.01236
3564.09776,0.01244
3562.03759,0.01256
3559.97742,0.01268
3557.91725,0.01290
3555.85707,0.01337
3553.79690,0.01398
3551.73673,0.01446
3549.67656,0.01470
3547.61639,0.01493
3545.55621,0.01536
3543.49604,0.01573
3541.43587,0.01586
3539.37570,0.01594
3537.31552,0.01612
3535.25535,0.01653
3533.19518,0.01720
3531.13501,0.01780
3529.07484,0.01816
3527.01466,0.01842
3524.95449,0.01860
3522.89432,0.01878
3520.83415,0.01917
3518.77398,0.01968
3516.71380,0.02020
3514.65363,0.02065
3512.59346,0.02091
3510.53329,0.02099
3508.47312,0.02101
3506.41294,0.02123
3504.35277,0.02174
3502.29260,0.02229
3500.23243,0.02270
3498.17225,0.02302
3496.11208,0.02332
3494.05191,0.02367
3491.99174,0.02405
3489.93157,0.02429
3487.87139,0.02441
3485.81122,0.02473
3483.75105,0.02522
3481.69088,0.02554
3479.63071,0.02574
3477.57053,0.02602
3475.51036,0.02622
3473.45019,0.02636
3471.39002,0.02681
3469.32984,0.02752
3467.26967,0.02812
3465.20950,0.02848
3463.14933,0.02867
3461.08916,0.02875
3459.02898,0.02883
3456.96881,0.02900
3454.90864,0.02941
3452.84847,0.03007
3450.78830,0.03071
3448.72812,0.03097
3446.66795,0.03086
3444.60778,0.03083
3442.54761,0.03120
3440.48744,0.03189
3438.42726,0.03263
3436.36709,0.03316
3434.30692,0.03359
3432.24675,0.03393
3430.18657,0.03391
3428.12640,0.03377
3426.06623,0.03402
3424.00606,0.03449
3421.94589,0.03480
3419.88571,0.03507
3417.82554,0.03530
3415.76537,0.03546
3413.70520,0.03571
3411.64503,0.03603
3409.58485,0.03627
3407.52468,0.03643
3405.46451,0.03663
3403.40434,0.03705
3401.34416,0.03757
3399.28399,0.03769
3397.22382,0.03746
3395.16365,0.03729
3393.10348,0.03756
3391.04330,0.03818
3388.98313,0.03871
3386.92296,0.03894
3384.86279,0.03902
3382.80262,0.03907
3380.74244,0.03914
3378.68227,0.03935
3376.62210,0.03974
3374.56193,0.04013
3372.50176,0.04037
3370.44158,0.04049
3368.38141,0.04049
3366.32124,0.04036
3364.26107,0.04030
3362.20089,0.04052
3360.14072,0.04089
3358.08055,0.04118
3356.02038,0.04142
3353.96021,0.04162
3351.90003,0.04179
3349.83986,0.04196
3347.77969,0.04202
3345.71952,0.04206
3343.65935,0.04229
3341.59917,0.04251
3339.53900,0.04253
3337.47883,0.04260
3335.41866,0.04288
3333.35849,0.04329
3331.29831,0.04362
3329.23814,0.04365
3327.17797,0.04354
3325.11780,0.04352
3323.05762,0.04346
3320.99745,0.04326
3318.93728,0.04315
3316.87711,0.04329
3314.81694,0.04370
3312.75676,0.04415
3310.69659,0.04444
3308.63642,0.04450
3306.57625,0.04442
3304.51608,0.04442
3302.45590,0.04448
3300.39573,0.04447
3298.33556,0.04439
3296.27539,0.04437
3294.21521,0.04451
3292.15504,0.04463
3290.09487,0.04447
3288.03470,0.04423
3285.97453,0.04431
3283.91435,0.04461
3281.85418,0.04480
3279.79401,0.04492
3277.73384,0.04510
3275.67367,0.04518
3273.61349,0.04498
3271.55332,0.04472
3269.49315,0.04463
3267.43298,0.04463
3265.37281,0.04458
3263.31263,0.04449
3261.25246,0.04444
3259.19229,0.04436
3257.13212,0.04415
3255.07194,0.04394
3253.01177,0.04384
3250.95160,0.04388
3248.89143,0.04404
3246.83126,0.04405
3244.77108,0.04389
3242.71091,0.04380
3240.65074,0.04367
3238.59057,0.04340
3236.53040,0.04319
3234.47022,0.04327
3232.41005,0.04343
3230.34988,0.04338
3228.28971,0.04322
3226.22954,0.04308
3224.16936,0.04282
3222.10919,0.04241
3220.04902,0.04219
3217.98885,0.04228
3215.92867,0.04228
3213.86850,0.04211
3211.80833,0.04196
3209.74816,0.04179
3207.68799,0.04168
3205.62781,0.04163
3203.56764,0.04155
3201.50747,0.04147
3199.44730,0.04129
3197.38713,0.04099
3195.32695,0.04074
3193.26678,0.04063
3191.20661,0.04060
3189.14644,0.04054
3187.08626,0.04049
3185.02609,0.04033
3182.96592,0.03992
3180.90575,0.03949
3178.84558,0.03925
3176.78540,0.03905
3174.72523,0.03892
3172.66506,0.03894
3170.60489,0.03896
3168.54472,0.03871
3166.48454,0.03827
3164.42437,0.03794
3162.36420,0.03781
3160.30403,0.03772
3158.24386,0.03759
3156.18368,0.03745
3154.12351,0.03736
3152.06334,0.03739
3150.00317,0.03747
3147.94299,0.03739
3145.88282,0.03715
3143.82265,0.03691
3141.76248,0.03661
3139.70231,0.03625
3137.64213,0.03595
3135.58196,0.03563
3133.52179,0.03529
3131.46162,0.03506
3129.40145,0.03489
3127.34127,0.03482
3125.28110,0.03483
3123.22093,0.03481
3121.16076,0.03475
3119.10058,0.03454
3117.04041,0.03422
3114.98024,0.03396
3112.92007,0.03371
3110.85990,0.03349
3108.79972,0.03342
3106.73955,0.03327
3104.67938,0.03293
3102.61921,0.03270
3100.55904,0.03252
3098.49886,0.03223
3096.43869,0.03206
3094.37852,0.03211
3092.31835,0.03209
3090.25818,0.03191
3088.19800,0.03178
3086.13783,0.03177
3084.07766,0.03169
3082.01749,0.03135
3079.95731,0.03102
3077.89714,0.03086
3075.83697,0.03059
3073.77680,0.03018
3071.71663,0.03005
3069.65645,0.03025
3067.59628,0.03025
3065.53611,0.02984
3063.47594,0.02948
3061.41577,0.02936
3059.35559,0.02933
3057.29542,0.02932
3055.23525,0.02925
3053.17508,0.02905
3051.11491,0.02878
3049.05473,0.02850
3046.99456,0.02825
3044.93439,0.02796
3042.87422,0.02761
3040.81404,0.02740
3038.75387,0.02740
3036.69370,0.02724
3034.63353,0.02686
3032.57336,0.02665
3030.51318,0.02660
3028.45301,0.02636
3026.39284,0.02604
3024.33267,0.02582
3022.27250,0.02561
3020.21232,0.02543
3018.15215,0.02545
3016.09198,0.02553
3014.03181,0.02545
3011.97163,0.02528
3009.91146,0.02509
3007.85129,0.02482
3005.79112,0.02443
3003.73095,0.02414
3001.67077,0.02412
2999.61060,0.02430
2997.55043,0.02443
2995.49026,0.02441
2993.43009,0.02434
2991.36991,0.02423
2989.30974,0.02408
2987.24957,0.02405
2985.18940,0.02408
2983.12923,0.02419
2981.06905,0.02457
2979.00888,0.02503
2976.94871,0.02527
2974.88854,0.02547
2972.82836,0.02578
2970.76819,0.02622
2968.70802,0.02684
2966.64785,0.02752
2964.58768,0.02818
2962.52750,0.02899
2960.46733,0.02984
2958.40716,0.03049
2956.34699,0.03105
2954.28682,0.03163
2952.22664,0.03232
2950.16647,0.03322
2948.10630,0.03435
2946.04613,0.03569
2943.98596,0.03707
2941.92578,0.03842
2939.86561,0.03991
2937.80544,0.04154
2935.74527,0.04317
2933.68509,0.04478
2931.62492,0.04626
2929.56475,0.04768
2927.50458,0.04905
2925.44441,0.05032
2923.38423,0.05165
2921.32406,0.05299
2919.26389,0.05398
2917.20372,0.05412
2915.14355,0.05281
2913.08337,0.05019
2911.02320,0.04740
2908.96303,0.04511
2906.90286,0.04340
2904.84268,0.04215
2902.78251,0.04110
2900.72234,0.04013
2898.66217,0.03925
2896.60200,0.03841
2894.54182,0.03762
2892.48165,0.03693
2890.42148,0.03624
2888.36131,0.03547
2886.30114,0.03473
2884.24096,0.03411
2882.18079,0.03367
2880.12062,0.03329
2878.06045,0.03282
2876.00028,0.03245
2873.94010,0.03246
2871.87993,0.03275
2869.81976,0.03298
2867.75959,0.03321
2865.69941,0.03379
2863.63924,0.03465
2861.57907,0.03560
2859.51890,0.03682
2857.45873,0.03843
2855.39855,0.04020
2853.33838,0.04196
2851.27821,0.04348
2849.21804,0.04379
2847.15787,0.04197
2845.09769,0.03863
2843.03752,0.03527
2840.97735,0.03261
2838.91718,0.03066
2836.85700,0.02927
2834.79683,0.02830
2832.73666,0.02746
2830.67649,0.02654
2828.61632,0.02579
2826.55614,0.02533
2824.49597,0.02497
2822.43580,0.02466
2820.37563,0.02435
2818.31546,0.02402
2816.25528,0.02371
2814.19511,0.02345
2812.13494,0.02326
2810.07477,0.02298
2808.01460,0.02258
2805.95442,0.02225
2803.89425,0.02202
2801.83408,0.02185
2799.77391,0.02176
2797.71373,0.02169
2795.65356,0.02160
2793.59339,0.02146
2791.53322,0.02129
2789.47305,0.02119
2787.41287,0.02114
2785.35270,0.02096
2783.29253,0.02056
2781.23236,0.02029
2779.17219,0.02035
2777.11201,0.02039
2775.05184,0.02021
2772.99167,0.02006
2770.93150,0.01994
2768.87133,0.01972
2766.81115,0.01956
2764.75098,0.01970
2762.69081,0.01995
2760.63064,0.01995
2758.57046,0.01974
2756.51029,0.01960
2754.45012,0.01956
2752.38995,0.01943
2750.32978,0.01927
2748.26960,0.01917
2746.20943,0.01912
2744.14926,0.01899
2742.08909,0.01874
2740.02892,0.01858
2737.96874,0.01858
2735.90857,0.01864
2733.84840,0.01881
2731.78823,0.01902
2729.72805,0.01902
2727.66788,0.01874
2725.60771,0.01838
2723.54754,0.01819
2721.48737,0.01822
2719.42719,0.01832
2717.36702,0.01832
2715.30685,0.01822
2713.24668,0.01816
2711.18651,0.01824
2709.12633,0.01825
2707.06616,0.01811
2705.00599,0.01795
2702.94582,0.01790
2700.88565,0.01798
2698.82547,0.01799
2696.76530,0.01783
2694.70513,0.01765
2692.64496,0.01753
2690.58478,0.01749
2688.52461,0.01754
2686.46444,0.01746
2684.40427,0.01729
2682.34410,0.01724
2680.28392,0.01719
2678.22375,0.01704
2676.16358,0.01695
2674.10341,0.01696
2672.04324,0.01698
2669.98306,0.01696
2667.92289,0.01696
2665.86272,0.01701
2663.80255,0.01704
2661.74238,0.01699
2659.68220,0.01688
2657.62203,0.01684
2655.56186,0.01686
2653.50169,0.01672
2651.44151,0.01636
2649.38134,0.01613
2647.32117,0.01604
2645.26100,0.01591
2643.20083,0.01584
2641.14065,0.01576
2639.08048,0.01565
2637.02031,0.01556
2634.96014,0.01542
2632.89997,0.01528
2630.83979,0.01519
2628.77962,0.01516
2626.71945,0.01524
2624.65928,0.01529
2622.59910,0.01510
2620.53893,0.01481
2618.47876,0.01457
2616.41859,0.01439
2614.35842,0.01427
2612.29824,0.01419
2610.23807,0.01421
2608.17790,0.01417
2606.11773,0.01390
2604.05756,0.01375
2601.99738,0.01390
2599.93721,0.01399
2597.87704,0.01374
2595.81687,0.01339
2593.75670,0.01324
2591.69652,0.01313
2589.63635,0.01308
2587.57618,0.01333
2585.51601,0.01363
2583.45583,0.01356
2581.39566,0.01340
2579.33549,0.01344
2577.27532,0.01331
2575.21515,0.01279
2573.15497,0.01225
2571.09480,0.01217
2569.03463,0.01251
2566.97446,0.01274
2564.91429,0.01258
2562.85411,0.01232
2560.79394,0.01222
2558.73377,0.01207
2556.67360,0.01181
2554.61342,0.01169
2552.55325,0.01169
2550.49308,0.01183
2548.43291,0.01207
2546.37274,0.01204
2544.31256,0.01179
2542.25239,0.01161
2540.19222,0.01161
2538.13205,0.01176
2536.07188,0.01164
2534.01170,0.01126
2531.95153,0.01103
2529.89136,0.01085
2527.83119,0.01067
2525.77102,0.01071
2523.71084,0.01091
2521.65067,0.01085
2519.59050,0.01053
2517.53033,0.01027
2515.47015,0.01028
2513.40998,0.01045
2511.34981,0.01049
2509.28964,0.01027
2507.22947,0.01009
2505.16929,0.01022
2503.10912,0.01048
2501.04895,0.01049
2498.98878,0.01023
2496.92861,0.00993
2494.86843,0.00971
2492.80826,0.00952
2490.74809,0.00951
2488.68792,0.00977
2486.62775,0.00997
2484.56757,0.00985
2482.50740,0.00964
2480.44723,0.00976
2478.38706,0.01009
2476.32688,0.01005
2474.26671,0.00974
2472.20654,0.00949
2470.14637,0.00936
2468.08620,0.00924
2466.02602,0.00897
2463.96585,0.00883
2461.90568,0.00902
2459.84551,0.00942
2457.78534,0.00981
2455.72516,0.00981
2453.66499,0.00952
2451.60482,0.00932
2449.54465,0.00923
2447.48447,0.00916
2445.42430,0.00913
2443.36413,0.00922
2441.30396,0.00928
2439.24379,0.00911
2437.18361,0.00883
2435.12344,0.00864
2433.06327,0.00862
2431.00310,0.00847
2428.94293,0.00812
2426.88275,0.00799
2424.82258,0.00823
2422.76241,0.00843
2420.70224,0.00835
2418.64207,0.00830
2416.58189,0.00835
2414.52172,0.00831
2412.46155,0.00824
2410.40138,0.00816
2408.34120,0.00803
2406.28103,0.00806
2404.22086,0.00818
2402.16069,0.00808
2400.10052,0.00791
2398.04034,0.00784
2395.98017,0.00771
2393.92000,0.00752
2391.85983,0.00746
2389.79966,0.00760
2387.73948,0.00774
2385.67931,0.00768
2383.61914,0.00741
2381.55897,0.00721
2379.49880,0.00734
2377.43862,0.00768
2375.37845,0.00792
2373.31828,0.00753
2371.25811,0.00686
2369.19793,0.00712
2367.13776,0.00770
2365.07759,0.00760
2363.01742,0.00797
2360.95725,0.00838
2358.89707,0.00833
2356.83690,0.00788
2354.77673,0.00798
2352.71656,0.00812
2350.65639,0.00724
2348.59621,0.00673
2346.53604,0.00809
2344.47587,0.00880
2342.41570,0.00879
2340.35552,0.00834
2338.29535,0.00748
2336.23518,0.00666
2334.17501,0.00605
2332.11484,0.00608
2330.05466,0.00686
2327.99449,0.00820
2325.93432,0.00915
2323.87415,0.00953
2321.81398,0.00897
2319.75380,0.00812
2317.69363,0.00732
2315.63346,0.00705
2313.57329,0.00723
2311.51312,0.00738
2309.45294,0.00716
2307.39277,0.00682
2305.33260,0.00669
2303.27243,0.00677
2301.21225,0.00690
2299.15208,0.00675
2297.09191,0.00648
2295.03174,0.00638
2292.97157,0.00639
2290.91139,0.00637
2288.85122,0.00627
2286.79105,0.00623
2284.73088,0.00639
2282.67071,0.00663
2280.61053,0.00670
2278.55036,0.00655
2276.49019,0.00658
2274.43002,0.00700
2272.36984,0.00723
2270.30967,0.00678
2268.24950,0.00613
2266.18933,0.00594
2264.12916,0.00615
2262.06898,0.00616
2260.00881,0.00576
2257.94864,0.00538
2255.88847,0.00543
2253.82830,0.00558
2251.76812,0.00552
2249.70795,0.00538
2247.64778,0.00530
2245.58761,0.00521
2243.52744,0.00502
2241.46726,0.00485
2239.40709,0.00487
2237.34692,0.00494
2235.28675,0.00479
2233.22657,0.00449
2231.16640,0.00425
2229.10623,0.00428
2227.04606,0.00457
2224.98589,0.00479
2222.92571,0.00477
2220.86554,0.00430
2218.80537,0.00349
2216.74520,0.00313
2214.68503,0.00374
2212.62485,0.00459
2210.56468,0.00483
2208.50451,0.00492
2206.44434,0.00520
2204.38417,0.00497
2202.32399,0.00421
2200.26382,0.00398
2198.20365,0.00416
2196.14348,0.00358
2194.08330,0.00317
2192.02313,0.00395
2189.96296,0.00488
2187.90279,0.00455
2185.84262,0.00298
2183.78244,0.00185
2181.72227,0.00225
2179.66210,0.00308
2177.60193,0.00318
2175.54176,0.00285
2173.48158,0.00314
2171.42141,0.00448
2169.36124,0.00515
2167.30107,0.00439
2165.24089,0.00384
2163.18072,0.00321
2161.12055,0.00159
2159.06038,0.00069
2157.00021,0.00117
2154.94003,0.00189
2152.87986,0.00209
2150.81969,0.00154
2148.75952,0.00120
2146.69935,0.00159
2144.63917,0.00206
2142.57900,0.00209
2140.51883,0.00241
2138.45866,0.00350
2136.39849,0.00406
2134.33831,0.00371
2132.27814,0.00351
2130.21797,0.00354
2128.15780,0.00335
2126.09762,0.00297
2124.03745,0.00287
2121.97728,0.00309
2119.91711,0.00315
2117.85694,0.00329
2115.79676,0.00379
2113.73659,0.00431
2111.67642,0.00467
2109.61625,0.00472
2107.55608,0.00444
2105.49590,0.00428
2103.43573,0.00425
2101.37556,0.00399
2099.31539,0.00394
2097.25521,0.00374
2095.19504,0.00297
2093.13487,0.00257
2091.07470,0.00297
2089.01453,0.00357
2086.95435,0.00379
2084.89418,0.00371
2082.83401,0.00361
2080.77384,0.00332
2078.71367,0.00292
2076.65349,0.00275
2074.59332,0.00282
2072.53315,0.00306
2070.47298,0.00345
2068.41281,0.00366
2066.35263,0.00364
2064.29246,0.00384
2062.23229,0.00400
2060.17212,0.00368
2058.11194,0.00325
2056.05177,0.00304
2053.99160,0.00296
2051.93143,0.00278
2049.87126,0.00262
2047.81108,0.00289
2045.75091,0.00315
2043.69074,0.00274
2041.63057,0.00236
2039.57040,0.00303
2037.51022,0.00417
2035.45005,0.00448
2033.38988,0.00323
2031.32971,0.00123
2029.26954,0.00030
2027.20936,0.00038
2025.14919,0.00063
2023.08902,0.00156
2021.02885,0.00307
2018.96867,0.00376
2016.90850,0.00311
2014.84833,0.00204
2012.78816,0.00167
2010.72799,0.00228
2008.66781,0.00286
2006.60764,0.00265
2004.54747,0.00253
2002.48730,0.00282
2000.42713,0.00284
1998.36695,0.00241
1996.30678,0.00160
1994.24661,0.00062
1992.18644,0.00044
1990.12626,0.00148
1988.06609,0.00272
1986.00592,0.00350
1983.94575,0.00358
1981.88558,0.00304
1979.82540,0.00248
1977.76523,0.00231
1975.70506,0.00241
1973.64489,0.00204
1971.58472,0.00128
1969.52454,0.00066
1967.46437,0.00014
1965.40420,0.00000
1963.34403,0.00061
1961.28386,0.00171
1959.22368,0.00231
1957.16351,0.00194
1955.10334,0.00145
1953.04317,0.00176
1950.98299,0.00218
1948.92282,0.00178
1946.86265,0.00134
1944.80248,0.00136
1942.74231,0.00132
1940.68213,0.00127
1938.62196,0.00135
1936.56179,0.00123
1934.50162,0.00104
1932.44145,0.00122
1930.38127,0.00172
1928.32110,0.00204
1926.26093,0.00191
1924.20076,0.00145
1922.14059,0.00096
1920.08041,0.00078
1918.02024,0.00093
1915.96007,0.00123
1913.89990,0.00165
1911.83972,0.00202
1909.77955,0.00204
1907.71938,0.00181
1905.65921,0.00171
1903.59904,0.00172
1901.53886,0.00150
1899.47869,0.00119
1897.41852,0.00111
1895.35835,0.00123
1893.29818,0.00131
1891.23800,0.00117
1889.17783,0.00084
1887.11766,0.00063
1885.05749,0.00081
1882.99731,0.00124
1880.93714,0.00154
1878.87697,0.00156
1876.81680,0.00133
1874.75663,0.00109
1872.69645,0.00116
1870.63628,0.00150
1868.57611,0.00177
1866.51594,0.00184
1864.45577,0.00177
1862.39559,0.00157
1860.33542,0.00131
1858.27525,0.00102
1856.21508,0.00086
1854.15491,0.00092
1852.09473,0.00088
1850.03456,0.00062
1847.97439,0.00052
1845.91422,0.00070
1843.85404,0.00083
1841.79387,0.00068
1839.73370,0.00043
1837.67353,0.00032
1835.61336,0.00038
1833.55318,0.00048
1831.49301,0.00058
1829.43284,0.00069
1827.37267,0.00071
1825.31250,0.00061
1823.25232,0.00053
1821.19215,0.00049
1819.13198,0.00031
1817.07181,0.00005
1815.01163,0.00000
1812.95146,0.00012
1810.89129,0.00021
1808.83112,0.00032
1806.77095,0.00049
1804.71077,0.00053
1802.65060,0.00039
1800.59043,0.00019
1798.53026,0.00011
1796.47009,0.00024
1794.40991,0.00035
1792.34974,0.00018
1790.28957,-0.00013
1788.22940,-0.00029
1786.16923,-0.00024
1784.10905,-0.00007
1782.04888,0.00000
1779.98871,-0.00012
1777.92854,-0.00015
1775.86836,-0.00008
1773.80819,0.00003
1771.74802,0.00021
1769.68785,0.00052
1767.62768,0.00088
1765.56750,0.00130
1763.50733,0.00185
1761.44716,0.00242
1759.38699,0.00293
1757.32682,0.00359
1755.26664,0.00448
1753.20647,0.00558
1751.14630,0.00705
1749.08613,0.00875
1747.02596,0.01046
1744.96578,0.01248
1742.90561,0.01521
1740.84544,0.01860
1738.78527,0.02205
1736.72509,0.02489
1734.66492,0.02750
1732.60475,0.02995
1730.54458,0.03130
1728.48441,0.03165
1726.42423,0.03151
1724.36406,0.03119
1722.30389,0.03099
1720.24372,0.03093
1718.18355,0.03061
1716.12337,0.03003
1714.06320,0.02972
1712.00303,0.02957
1709.94286,0.02933
1707.88268,0.02897
1705.82251,0.02841
1703.76234,0.02769
1701.70217,0.02702
1699.64200,0.02635
1697.58182,0.02572
1695.52165,0.02516
1693.46148,0.02487
1691.40131,0.02478
1689.34114,0.02466
1687.28096,0.02448
1685.22079,0.02422
1683.16062,0.02385
1681.10045,0.02372
1679.04028,0.02377
1676.98010,0.02391
1674.91993,0.02432
1672.85976,0.02495
1670.79959,0.02544
1668.73941,0.02585
1666.67924,0.02654
1664.61907,0.02755
1662.55890,0.02874
1660.49873,0.02999
1658.43855,0.03125
1656.37838,0.03243
1654.31821,0.03334
1652.25804,0.03392
1650.19787,0.03440
1648.13769,0.03475
1646.07752,0.03482
1644.01735,0.03497
1641.95718,0.03543
1639.89701,0.03596
1637.83683,0.03636
1635.77666,0.03666
1633.71649,0.03702
1631.65632,0.03758
1629.59614,0.03830
1627.53597,0.03899
1625.47580,0.03956
1623.41563,0.04009
1621.35546,0.04075
1619.29528,0.04154
1617.23511,0.04221
1615.17494,0.04270
1613.11477,0.04331
1611.05460,0.04406
1608.99442,0.04467
1606.93425,0.04494
1604.87408,0.04488
1602.81391,0.04452
1600.75373,0.04393
1598.69356,0.04317
1596.63339,0.04219
1594.57322,0.04096
1592.51305,0.03957
1590.45287,0.03806
1588.39270,0.03654
1586.33253,0.03511
1584.27236,0.03375
1582.21219,0.03244
1580.15201,0.03129
1578.09184,0.03007
1576.03167,0.02847
1573.97150,0.02713
1571.91133,0.02632
1569.85115,0.02525
1567.79098,0.02390
1565.73081,0.02301
1563.67064,0.02264
1561.61046,0.02240
1559.55029,0.02188
1557.49012,0.02130
1555.42995,0.02127
1553.36978,0.02147
1551.30960,0.02164
1549.24943,0.02184
1547.18926,0.02209
1545.12909,0.02234
1543.06892,0.02242
1541.00874,0.02222
1538.94857,0.02190
1536.88840,0.02172
1534.82823,0.02146
1532.76805,0.02091
1530.70788,0.02028
1528.64771,0.01971
1526.58754,0.01919
1524.52737,0.01880
1522.46719,0.01862
1520.40702,0.01864
1518.34685,0.01881
1516.28668,0.01902
1514.22651,0.01913
1512.16633,0.01901
1510.10616,0.01834
1508.04599,0.01667
1505.98582,0.01463
1503.92565,0.01370
1501.86547,0.01332
1499.80530,0.01267
1497.74513,0.01162
1495.68496,0.01039
1493.62478,0.00936
1491.56461,0.00842
1489.50444,0.00729
1487.44427,0.00621
1485.38410,0.00554
1483.32392,0.00534
1481.26375,0.00550
1479.20358,0.00597
1477.14341,0.00685
1475.08324,0.00832
1473.02306,0.01041
1470.96289,0.01274
1468.90272,0.01482
1466.84255,0.01677
1464.78238,0.01869
1462.72220,0.02019
1460.66203,0.02119
1458.60186,0.02219
1456.54169,0.02355
1454.48151,0.02484
1452.42134,0.02583
1450.36117,0.02672
1448.30100,0.02757
1446.24083,0.02834
1444.18065,0.02897
1442.12048,0.02930
1440.06031,0.02916
1438.00014,0.02837
1435.93997,0.02699
1433.87979,0.02565
1431.81962,0.02448
1429.75945,0.02338
1427.69928,0.02256
1425.63910,0.02204
1423.57893,0.02169
1421.51876,0.02150
1419.45859,0.02131
1417.39842,0.02096
1415.33824,0.02067
1413.27807,0.02048
1411.21790,0.02025
1409.15773,0.01997
1407.09756,0.01970
1405.03738,0.01945
1402.97721,0.01937
1400.91704,0.01951
1398.85687,0.01976
1396.79670,0.01997
1394.73652,0.02004
1392.67635,0.02014
1390.61618,0.02048
1388.55601,0.02105
1386.49583,0.02171
1384.43566,0.02244
1382.37549,0.02331
1380.31532,0.02432
1378.25515,0.02530
1376.19497,0.02615
1374.13480,0.02681
1372.07463,0.02731
1370.01446,0.02772
1367.95429,0.02805
1365.89411,0.02829
1363.83394,0.02838
1361.77377,0.02827
1359.71360,0.02815
1357.65343,0.02823
1355.59325,0.02844
1353.53308,0.02863
1351.47291,0.02882
1349.41274,0.02907
1347.35256,0.02940
1345.29239,0.02974
1343.23222,0.03007
1341.17205,0.03037
1339.11188,0.03063
1337.05170,0.03102
1334.99153,0.03167
1332.93136,0.03250
1330.87119,0.03329
1328.81102,0.03397
1326.75084,0.03475
1324.69067,0.03571
1322.63050,0.03666
1320.57033,0.03737
1318.51015,0.03782
1316.44998,0.03806
1314.38981,0.03807
1312.32964,0.03772
1310.26947,0.03700
1308.20929,0.03597
1306.14912,0.03459
1304.08895,0.03297
1302.02878,0.03126
1299.96861,0.02950
1297.90843,0.02773
1295.84826,0.02606
1293.78809,0.02460
1291.72792,0.02330
1289.66775,0.02213
1287.60757,0.02123
1285.54740,0.02076
1283.48723,0.02053
1281.42706,0.02028
1279.36688,0.02016
1277.30671,0.02020
1275.24654,0.02035
1273.18637,0.02076
1271.12620,0.02133
1269.06602,0.02181
1267.00585,0.02213
1264.94568,0.02248
1262.88551,0.02292
1260.82534,0.02336
1258.76516,0.02384
1256.70499,0.02447
1254.64482,0.02514
1252.58465,0.02577
1250.52447,0.02651
1248.46430,0.02723
1246.40413,0.02775
1244.34396,0.02822
1242.28379,0.02874
1240.22361,0.02916
1238.16344,0.02949
1236.10327,0.02997
1234.04310,0.03061
1231.98293,0.03126
1229.92275,0.03194
1227.86258,0.03264
1225.80241,0.03338
1223.74224,0.03422
1221.68207,0.03502
1219.62189,0.03564
1217.56172,0.03617
1215.50155,0.03676
1213.44138,0.03743
1211.38120,0.03799
1209.32103,0.03841
1207.26086,0.03897
1205.20069,0.03975
1203.14052,0.04057
1201.08034,0.04118
1199.02017,0.04150
1196.96000,0.04167
1194.89983,0.04169
1192.83966,0.04151
1190.77948,0.04120
1188.71931,0.04087
1186.65914,0.04047
1184.59897,0.04005
1182.53880,0.03969
1180.47862,0.03932
1178.41845,0.03906
1176.35828,0.03891
1174.29811,0.03889
1172.23793,0.03921
1170.17776,0.03969
1168.11759,0.03988
1166.05742,0.03967
1163.99725,0.03924
1161.93707,0.03869
1159.87690,0.03805
1157.81673,0.03729
1155.75656,0.03641
1153.69639,0.03546
1151.63621,0.03452
1149.57604,0.03360
1147.51587,0.03257
1145.45570,0.03135
1143.39552,0.02994
1141.33535,0.02853
1139.27518,0.02740
1137.21501,0.02651
1135.15484,0.02590
1133.09466,0.02563
1131.03449,0.02562
1128.97432,0.02602
1126.91415,0.02679
1124.85398,0.02772
1122.79380,0.02887
1120.73363,0.03023
1118.67346,0.03168
1116.61329,0.03333
1114.55312,0.03533
1112.49294,0.03769
1110.43277,0.04025
1108.37260,0.04272
1106.31243,0.04483
1104.25225,0.04652
1102.19208,0.04798
1100.13191,0.04924
1098.07174,0.05033
1096.01157,0.05135
1093.95139,0.05232
1091.89122,0.05346
1089.83105,0.05480
1087.77088,0.05625
1085.71071,0.05785
1083.65053,0.05945
1081.59036,0.06092
1079.53019,0.06230
1077.47002,0.06358
1075.40985,0.06463
1073.34967,0.06557
1071.28950,0.06659
1069.22933,0.06747
1067.16916,0.06826
1065.10898,0.06922
1063.04881,0.07034
1060.98864,0.07150
1058.92847,0.07264
1056.86830,0.07383
1054.80812,0.07519
1052.74795,0.07661
1050.68778,0.07794
1048.62761,0.07909
1046.56744,0.08014
1044.50726,0.08124
1042.44709,0.08236
1040.38692,0.08347
1038.32675,0.08474
1036.26657,0.08641
1034.20640,0.08838
1032.14623,0.09016
1030.08606,0.09155
1028.02589,0.09255
1025.96571,0.09299
1023.90554,0.09288
1021.84537,0.09249
1019.78520,0.09204
1017.72503,0.09142
1015.66485,0.09059
1013.60468,0.08974
1011.54451,0.08891
1009.48434,0.08782
1007.42417,0.08632
1005.36399,0.08460
1003.30382,0.08286
1001.24365,0.08114
999.18348,0.07937
997.12330,0.07745
995.06313,0.07535
993.00296,0.07315
990.94279,0.07097
988.88262,0.06859
986.82244,0.06577
984.76227,0.06286
982.70210,0.06007
980.64193,0.05712
978.58176,0.05414
976.52158,0.05149
974.46141,0.04912
972.40124,0.04697
970.34107,0.04515
968.28089,0.04345
966.22072,0.04187
964.16055,0.04055
962.10038,0.03920
960.04021,0.03765
957.98003,0.03607
955.91986,0.03440
953.85969,0.03258
951.79952,0.03077
949.73935,0.02911
947.67917,0.02750
945.61900,0.02561
943.55883,0.02361
941.49866,0.02218
939.43849,0.02137
937.37831,0.02073
935.31814,0.02024
933.25797,0.01999
931.19780,0.01954
929.13762,0.01868
927.07745,0.01781
925.01728,0.01706
922.95711,0.01603
920.89694,0.01484
918.83676,0.01376
916.77659,0.01247
914.71642,0.01104
912.65625,0.00993
910.59608,0.00915
908.53590,0.00862
906.47573,0.00831
904.41556,0.00790
902.35539,0.00737
900.29522,0.00720
898.23504,0.00766
896.17487,0.00815
894.11470,0.00812
892.05453,0.00789
889.99435,0.00778
887.93418,0.00764
885.87401,0.00733
883.81384,0.00685
881.75367,0.00629
879.69349,0.00594
877.63332,0.00604
875.57315,0.00642
873.51298,0.00667
871.45281,0.00657
869.39263,0.00622
867.33246,0.00585
865.27229,0.00526
863.21212,0.00409
861.15194,0.00268
859.09177,0.00152
857.03160,0.00060
854.97143,0.00007
852.91126,-0.00001
850.85108,-0.00004
848.79091,-0.00017
846.73074,-0.00026
844.67057,-0.00037
842.61040,-0.00050
840.55022,-0.00022
838.49005,0.00058
836.42988,0.00145
834.36971,0.00194
832.30954,0.00193
830.24936,0.00168
828.18919,0.00145
826.12902,0.00133
824.06885,0.00135
822.00867,0.00166
819.94850,0.00230
817.88833,0.00279
815.82816,0.00292
813.76799,0.00284
811.70781,0.00255
809.64764,0.00244
807.58747,0.00256
805.52730,0.00231
803.46713,0.00160
801.40695,0.00085
799.34678,0.00028
797.28661,0.00000
795.22644,-0.00044
793.16627,-0.00067
791.10609,-0.00047
789.04592,-0.00002
786.98575,0.00029
784.92558,0.00074
782.86540,0.00151
780.80523,0.00212
778.74506,0.00216
776.68489,0.00187
774.62472,0.00168
772.56454,0.00170
770.50437,0.00205
768.44420,0.00314
766.38403,0.00497
764.32386,0.00687
762.26368,0.00844
760.20351,0.00967
758.14334,0.01093
756.08317,0.01217
754.02299,0.01225
751.96282,0.01094
749.90265,0.00937
747.84248,0.00827
745.78231,0.00727
743.72213,0.00627
741.66196,0.00583
739.60179,0.00564
737.54162,0.00502
735.48145,0.00455
733.42127,0.00464
731.36110,0.00481
729.30093,0.00490
727.24076,0.00499
725.18059,0.00483
723.12041,0.00441
721.06024,0.00446
719.00007,0.00467
716.93990,0.00474
714.87972,0.00457
712.81955,0.00418
710.75938,0.00381
708.69921,0.00359
706.63904,0.00347
704.57886,0.00339
702.51869,0.00330
700.45852,0.00286
698.39835,0.00211
696.33818,0.00160
694.27800,0.00112
692.21783,0.00048
690.15766,0.00020
688.09749,0.00007
686.03731,-0.00040
683.97714,-0.00067
681.91697,-0.00037
679.85680,0.00017
677.79663,0.00053
675.73645,0.00041
673.67628,0.00005
671.61611,-0.00004
669.55594,0.00154
667.49577,0.00270
665.43559,0.00014
663.37542,0.00058
661.31525,0.00095
659.25508,0.00027
657.19491,-0.00071
655.13473,-0.00093
653.07456,0.00039
651.01439,0.00221
648.95422,0.00255
646.89404,0.00111
644.83387,0.00000
642.77370,-0.00003
640.71353,0.00032
638.65336,0.00020
636.59318,-0.00021
634.53301,0.00002
632.47284,0.00144
630.41267,0.00262
628.35250,0.00198
626.29232,0.00025
624.23215,-0.00044
622.17198,0.00005
620.11181,0.00149
618.05164,0.00186
615.99146,0.00110
613.93129,0.00215
611.87112,0.00400
609.81095,0.00410
607.75077,0.00278
605.69060,0.00255
603.63043,0.00364
601.57026,0.00285
599.51009,0.00000
