3996.73391,0.00096
3994.67373,0.00071
3992.61356,0.00047
3990.55339,0.00058
3988.49322,0.00081
3986.43305,0.00076
3984.37287,0.00049
3982.31270,0.00030
3980.25253,0.00028
3978.19236,0.00022
3976.13219,0.00007
3974.07201,0.00000
3972.01184,0.00021
3969.95167,0.00063
3967.89150,0.00097
3965.83133,0.00102
3963.77115,0.00074
3961.71098,0.00039
3959.65081,0.00022
3957.59064,0.00023
3955.53046,0.00035
3953.47029,0.00043
3951.41012,0.00038
3949.34995,0.00028
3947.28978,0.00024
3945.22960,0.00032
3943.16943,0.00054
3941.10926,0.00074
3939.04909,0.00070
3936.98892,0.00051
3934.92874,0.00037
3932.86857,0.00038
3930.80840,0.00043
3928.74823,0.00028
3926.68805,0.00001
3924.62788,-0.00003
3922.56771,0.00020
3920.50754,0.00049
3918.44737,0.00075
3916.38719,0.00092
3914.32702,0.00092
3912.26685,0.00090
3910.20668,0.00092
3908.14651,0.00087
3906.08633,0.00071
3904.02616,0.00036
3901.96599,0.00000
3899.90582,0.00008
3897.84565,0.00042
3895.78547,0.00054
3893.72530,0.00049
3891.66513,0.00045
3889.60496,0.00036
3887.54478,0.00024
3885.48461,0.00022
3883.42444,0.00034
3881.36427,0.00052
3879.30410,0.00075
3877.24392,0.00096
3875.18375,0.00109
3873.12358,0.00110
3871.06341,0.00109
3869.00324,0.00101
3866.94306,0.00074
3864.88289,0.00051
3862.82272,0.00044
3860.76255,0.00048
3858.70237,0.00069
3856.64220,0.00110
3854.58203,0.00137
3852.52186,0.00107
3850.46169,0.00058
3848.40151,0.00040
3846.34134,0.00047
3844.28117,0.00058
3842.22100,0.00056
3840.16083,0.00049
3838.10065,0.00059
3836.04048,0.00080
3833.98031,0.00090
3831.92014,0.00089
3829.85997,0.00078
3827.79979,0.00059
3825.73962,0.00040
3823.67945,0.00032
3821.61928,0.00032
3819.55910,0.00044
3817.49893,0.00063
3815.43876,0.00066
3813.37859,0.00047
3811.31842,0.00031
3809.25824,0.00036
3807.19807,0.00053
3805.13790,0.00064
3803.07773,0.00069
3801.01756,0.00075
3798.95738,0.00081
3796.89721,0.00097
3794.83704,0.00112
3792.77687,0.00108
3790.71670,0.00100
3788.65652,0.00103
3786.59635,0.00121
3784.53618,0.00143
3782.47601,0.00136
3780.41583,0.00099
3778.35566,0.00072
3776.29549,0.00073
3774.23532,0.00079
3772.17515,0.00068
3770.11497,0.00035
3768.05480,0.00003
3765.99463,0.00000
3763.93446,0.00022
3761.87429,0.00033
3759.81411,0.00015
3757.75394,0.00006
3755.69377,0.00037
3753.63360,0.00064
3751.57342,0.00044
3749.51325,0.00025
3747.45308,0.00048
3745.39291,0.00085
3743.33274,0.00099
3741.27256,0.00070
3739.21239,0.00027
3737.15222,-0.00001
3735.09205,0.00016
3733.03188,0.00048
3730.97170,0.00047
3728.91153,0.00032
3726.85136,0.00025
3724.79119,0.00021
3722.73102,0.00018
3720.67084,0.00022
3718.61067,0.00031
3716.55050,0.00044
3714.49033,0.00049
3712.43015,0.00045
3710.36998,0.00050
3708.30981,0.00043
3706.24964,0.00033
3704.18947,0.00038
3702.12929,0.00065
3700.06912,0.00108
3698.00895,0.00141
3695.94878,0.00135
3693.88861,0.00086
3691.82843,0.00032
3689.76826,0.00000
3687.70809,0.00025
3685.64792,0.00077
3683.58775,0.00094
3681.52757,0.00063
3679.46740,0.00024
3677.40723,0.00023
3675.34706,0.00090
3673.28688,0.00186
3671.22671,0.00225
3669.16654,0.00180
3667.10637,0.00117
3665.04620,0.00102
3662.98602,0.00134
3660.92585,0.00184
3658.86568,0.00219
3656.80551,0.00215
3654.74534,0.00175
3652.68516,0.00139
3650.62499,0.00140
3648.56482,0.00193
3646.50465,0.00278
3644.44447,0.00332
3642.38430,0.00326
3640.32413,0.00291
3638.26396,0.00273
3636.20379,0.00281
3634.14361,0.00297
3632.08344,0.00305
3630.02327,0.00307
3627.96310,0.00324
3625.90293,0.00355
3623.84275,0.00378
3621.78258,0.00391
3619.72241,0.00415
3617.66224,0.00449
3615.60207,0.00475
3613.54189,0.00520
3611.48172,0.00581
3609.42155,0.00624
3607.36138,0.00629
3605.30120,0.00615
3603.24103,0.00622
3601.18086,0.00654
3599.12069,0.00704
3597.06052,0.00759
3595.00034,0.00815
3592.94017,0.00850
3590.88000,0.00855
3588.81983,0.00839
3586.75966,0.00827
3584.69948,0.00846
3582.63931,0.00898
3580.57914,0.00967
3578.51897,0.01043
3576.45879,0.01111
3574.39862,0.01150
3572.33845,0.01153
3570.27828,0.01153
3568.21811,0.01188
3566.15793,0.01243
3564.09776,0.01278
3562.03759,0.01289
3559.97742,0.01292
3557.91725,0.01310
3555.85707,0.01348
3553.79690,0.01395
3551.73673,0.01441
3549.67656,0.01484
3547.61639,0.01530
3545.55621,0.01580
3543.49604,0.01620
3541.43587,0.01639
3539.37570,0.01639
3537.31552,0.01643
3535.25535,0.01680
3533.19518,0.01750
3531.13501,0.01801
3529.07484,0.01802
3527.01466,0.01806
3524.95449,0.01858
3522.89432,0.01923
3520.83415,0.01967
3518.77398,0.01990
3516.71380,0.02007
3514.65363,0.02036
3512.59346,0.02095
3510.53329,0.02165
3508.47312,0.02204
3506.41294,0.02232
3504.35277,0.02289
3502.29260,0.02351
3500.23243,0.02386
3498.17225,0.02396
3496.11208,0.02402
3494.05191,0.02433
3491.99174,0.02495
3489.93157,0.02544
3487.87139,0.02553
3485.81122,0.02549
3483.75105,0.02561
3481.69088,0.02584
3479.63071,0.02610
3477.57053,0.02642
3475.51036,0.02688
3473.45019,0.02746
3471.39002,0.02812
3469.32984,0.02879
3467.26967,0.02927
3465.20950,0.02938
3463.14933,0.02937
3461.08916,0.02963
3459.02898,0.03006
3456.96881,0.03045
3454.90864,0.03101
3452.84847,0.03174
3450.78830,0.03228
3448.72812,0.03255
3446.66795,0.03256
3444.60778,0.03240
3442.54761,0.03240
3440.48744,0.03280
3438.42726,0.03338
3436.36709,0.03389
3434.30692,0.03448
3432.24675,0.03515
3430.18657,0.03542
3428.12640,0.03535
3426.06623,0.03564
3424.00606,0.03605
3421.94589,0.03614
3419.88571,0.03642
3417.82554,0.03687
3415.76537,0.03696
3413.70520,0.03697
3411.64503,0.03731
3409.58485,0.03777
3407.52468,0.03802
3405.46451,0.03810
3403.40434,0.03818
3401.34416,0.03836
3399.28399,0.03867
3397.22382,0.03890
3395.16365,0.03895
3393.10348,0.03918
3391.04330,0.03978
3388.98313,0.04044
3386.92296,0.04085
3384.86279,0.04091
3382.80262,0.04087
3380.74244,0.04108
3378.68227,0.04145
3376.62210,0.04173
3374.56193,0.04185
3372.50176,0.04202
3370.44158,0.04234
3368.38141,0.04255
3366.32124,0.04259
3364.26107,0.04266
3362.20089,0.04279
3360.14072,0.04295
3358.08055,0.04322
3356.02038,0.04354
3353.96021,0.04365
3351.90003,0.04361
3349.83986,0.04360
3347.77969,0.04368
3345.71952,0.04389
3343.65935,0.04410
3341.59917,0.04413
3339.53900,0.04425
3337.47883,0.04465
3335.41866,0.04497
3333.35849,0.04506
3331.29831,0.04521
3329.23814,0.04548
3327.17797,0.04560
3325.11780,0.04557
3323.05762,0.04551
3320.99745,0.04549
3318.93728,0.04564
3316.87711,0.04593
3314.81694,0.04629
3312.75676,0.04668
3310.69659,0.04695
3308.63642,0.04697
3306.57625,0.04685
3304.51608,0.04680
3302.45590,0.04698
3300.39573,0.04715
3298.33556,0.04707
3296.27539,0.04703
3294.21521,0.04726
3292.15504,0.04733
3290.09487,0.04705
3288.03470,0.04687
3285.97453,0.04692
3283.91435,0.04706
3281.85418,0.04724
3279.79401,0.04734
3277.73384,0.04744
3275.67367,0.04765
3273.61349,0.04766
3271.55332,0.04733
3269.49315,0.04701
3267.43298,0.04686
3265.37281,0.04669
3263.31263,0.04663
3261.25246,0.04678
3259.19229,0.04680
3257.13212,0.04667
3255.07194,0.04664
3253.01177,0.04663
3250.95160,0.04651
3248.89143,0.04628
3246.83126,0.04596
3244.77108,0.04570
3242.71091,0.04572
3240.65074,0.04576
3238.59057,0.04550
3236.53040,0.04520
3234.47022,0.04520
3232.41005,0.04527
3230.34988,0.04498
3228.28971,0.04449
3226.22954,0.04424
3224.16936,0.04409
3222.10919,0.04379
3220.04902,0.04360
3217.98885,0.04370
3215.92867,0.04378
3213.86850,0.04363
3211.80833,0.04338
3209.74816,0.04325
3207.68799,0.04319
3205.62781,0.04293
3203.56764,0.04265
3201.50747,0.04260
3199.44730,0.04262
3197.38713,0.04245
3195.32695,0.04206
3193.26678,0.04174
3191.20661,0.04166
3189.14644,0.04163
3187.08626,0.04167
3185.02609,0.04174
3182.96592,0.04153
3180.90575,0.04108
3178.84558,0.04071
3176.78540,0.04051
3174.72523,0.04041
3172.66506,0.04040
3170.60489,0.04033
3168.54472,0.04000
3166.48454,0.03957
3164.42437,0.03917
3162.36420,0.03889
3160.30403,0.03877
3158.24386,0.03857
3156.18368,0.03820
3154.12351,0.03806
3152.06334,0.03817
3150.00317,0.03821
3147.94299,0.03812
3145.88282,0.03783
3143.82265,0.03742
3141.76248,0.03713
3139.70231,0.03684
3137.64213,0.03643
3135.58196,0.03604
3133.52179,0.03574
3131.46162,0.03552
3129.40145,0.03539
3127.34127,0.03535
3125.28110,0.03547
3123.22093,0.03573
3121.16076,0.03577
3119.10058,0.03543
3117.04041,0.03498
3114.98024,0.03450
3112.92007,0.03402
3110.85990,0.03382
3108.79972,0.03376
3106.73955,0.03357
3104.67938,0.03335
3102.61921,0.03318
3100.55904,0.03303
3098.49886,0.03289
3096.43869,0.03272
3094.37852,0.03253
3092.31835,0.03242
3090.25818,0.03238
3088.19800,0.03236
3086.13783,0.03230
3084.07766,0.03205
3082.01749,0.03172
3079.95731,0.03147
3077.89714,0.03127
3075.83697,0.03099
3073.77680,0.03070
3071.71663,0.03066
3069.65645,0.03081
3067.59628,0.03077
3065.53611,0.03042
3063.47594,0.03000
3061.41577,0.02975
3059.35559,0.02968
3057.29542,0.02967
3055.23525,0.02956
3053.17508,0.02930
3051.11491,0.02900
3049.05473,0.02880
3046.99456,0.02866
3044.93439,0.02842
3042.87422,0.02818
3040.81404,0.02806
3038.75387,0.02789
3036.69370,0.02763
3034.63353,0.02739
3032.57336,0.02723
3030.51318,0.02705
3028.45301,0.02680
3026.39284,0.02657
3024.33267,0.02644
3022.27250,0.02631
3020.21232,0.02623
3018.15215,0.02631
3016.09198,0.02640
3014.03181,0.02630
3011.97163,0.02609
3009.91146,0.02592
3007.85129,0.02573
3005.79112,0.02546
3003.73095,0.02518
3001.67077,0.02505
2999.61060,0.02505
2997.55043,0.02507
2995.49026,0.02500
2993.43009,0.02489
2991.36991,0.02487
2989.30974,0.02497
2987.24957,0.02506
2985.18940,0.02510
2983.12923,0.02527
2981.06905,0.02567
2979.00888,0.02607
2976.94871,0.02645
2974.88854,0.02699
2972.82836,0.02761
2970.76819,0.02817
2968.70802,0.02886
2966.64785,0.02972
2964.58768,0.03066
2962.52750,0.03172
2960.46733,0.03282
2958.40716,0.03374
2956.34699,0.03453
2954.28682,0.03531
2952.22664,0.03621
2950.16647,0.03722
2948.10630,0.03821
2946.04613,0.03939
2943.98596,0.04097
2941.92578,0.04287
2939.86561,0.04498
2937.80544,0.04710
2935.74527,0.04904
2933.68509,0.05111
2931.62492,0.05342
2929.56475,0.05559
2927.50458,0.05751
2925.44441,0.05932
2923.38423,0.06096
2921.32406,0.06228
2919.26389,0.06307
2917.20372,0.06277
2915.14355,0.06078
2913.08337,0.05753
2911.02320,0.05423
2908.96303,0.05146
2906.90286,0.04930
2904.84268,0.04762
2902.78251,0.04623
2900.72234,0.04504
2898.66217,0.04399
2896.60200,0.04295
2894.54182,0.04188
2892.48165,0.04093
2890.42148,0.04002
2888.36131,0.03903
2886.30114,0.03807
2884.24096,0.03730
2882.18079,0.03672
2880.12062,0.03619
2878.06045,0.03572
2876.00028,0.03554
2873.94010,0.03567
2871.87993,0.03593
2869.81976,0.03618
2867.75959,0.03654
2865.69941,0.03731
2863.63924,0.03854
2861.57907,0.04008
2859.51890,0.04192
2857.45873,0.04412
2855.39855,0.04648
2853.33838,0.04859
2851.27821,0.05005
2849.21804,0.05000
2847.15787,0.04756
2845.09769,0.04342
2843.03752,0.03925
2840.97735,0.03601
2838.91718,0.03367
2836.85700,0.03192
2834.79683,0.03064
2832.73666,0.02965
2830.67649,0.02878
2828.61632,0.02804
2826.55614,0.02726
2824.49597,0.02639
2822.43580,0.02576
2820.37563,0.02548
2818.31546,0.02536
2816.25528,0.02514
2814.19511,0.02487
2812.13494,0.02470
2810.07477,0.02451
2808.01460,0.02420
2805.95442,0.02380
2803.89425,0.02339
2801.83408,0.02310
2799.77391,0.02293
2797.71373,0.02275
2795.65356,0.02250
2793.59339,0.02226
2791.53322,0.02206
2789.47305,0.02192
2787.41287,0.02181
2785.35270,0.02166
2783.29253,0.02150
2781.23236,0.02138
2779.17219,0.02136
2777.11201,0.02127
2775.05184,0.02104
2772.99167,0.02084
2770.93150,0.02071
2768.87133,0.02063
2766.81115,0.02053
2764.75098,0.02042
2762.69081,0.02046
2760.63064,0.02057
2758.57046,0.02049
2756.51029,0.02030
2754.45012,0.02016
2752.38995,0.02001
2750.32978,0.01994
2748.26960,0.01988
2746.20943,0.01966
2744.14926,0.01942
2742.08909,0.01929
2740.02892,0.01925
2737.96874,0.01930
2735.90857,0.01938
2733.84840,0.01950
2731.78823,0.01965
2729.72805,0.01967
2727.66788,0.01951
2725.60771,0.01929
2723.54754,0.01914
2721.48737,0.01909
2719.42719,0.01908
2717.36702,0.01910
2715.30685,0.01909
2713.24668,0.01903
2711.18651,0.01903
2709.12633,0.01901
2707.06616,0.01889
2705.00599,0.01876
2702.94582,0.01864
2700.88565,0.01851
2698.82547,0.01851
2696.76530,0.01855
2694.70513,0.01840
2692.64496,0.01815
2690.58478,0.01806
2688.52461,0.01812
2686.46444,0.01819
2684.40427,0.01814
2682.34410,0.01799
2680.28392,0.01788
2678.22375,0.01783
2676.16358,0.01781
2674.10341,0.01779
2672.04324,0.01776
2669.98306,0.01771
2667.92289,0.01762
2665.86272,0.01755
2663.80255,0.01753
2661.74238,0.01751
2659.68220,0.01752
2657.62203,0.01750
2655.56186,0.01737
2653.50169,0.01715
2651.44151,0.01685
2649.38134,0.01659
2647.32117,0.01646
2645.26100,0.01643
2643.20083,0.01643
2641.14065,0.01628
2639.08048,0.01606
2637.02031,0.01610
2634.96014,0.01627
2632.89997,0.01619
2630.83979,0.01603
2628.77962,0.01603
2626.71945,0.01598
2624.65928,0.01585
2622.59910,0.01577
2620.53893,0.01569
2618.47876,0.01557
2616.41859,0.01531
2614.35842,0.01497
2612.29824,0.01495
2610.23807,0.01510
2608.17790,0.01496
2606.11773,0.01472
2604.05756,0.01469
2601.99738,0.01474
2599.93721,0.01460
2597.87704,0.01425
2595.81687,0.01396
2593.75670,0.01383
2591.69652,0.01376
2589.63635,0.01384
2587.57618,0.01407
2585.51601,0.01417
2583.45583,0.01405
2581.39566,0.01396
2579.33549,0.01399
2577.27532,0.01398
2575.21515,0.01383
2573.15497,0.01362
2571.09480,0.01349
2569.03463,0.01346
2566.97446,0.01327
2564.91429,0.01287
2562.85411,0.01266
2560.79394,0.01276
2558.73377,0.01285
2556.67360,0.01281
2554.61342,0.01285
2552.55325,0.01287
2550.49308,0.01270
2548.43291,0.01254
2546.37274,0.01234
2544.31256,0.01211
2542.25239,0.01205
2540.19222,0.01218
2538.13205,0.01244
2536.07188,0.01262
2534.01170,0.01259
2531.95153,0.01247
2529.89136,0.01229
2527.83119,0.01224
2525.77102,0.01231
2523.71084,0.01223
2521.65067,0.01202
2519.59050,0.01182
2517.53033,0.01166
2515.47015,0.01163
2513.40998,0.01165
2511.34981,0.01151
2509.28964,0.01110
2507.22947,0.01081
2505.16929,0.01094
2503.10912,0.01111
2501.04895,0.01097
2498.98878,0.01087
2496.92861,0.01096
2494.86843,0.01089
2492.80826,0.01057
2490.74809,0.01032
2488.68792,0.01033
2486.62775,0.01042
2484.56757,0.01045
2482.50740,0.01049
2480.44723,0.01074
2478.38706,0.01109
2476.32688,0.01112
2474.26671,0.01093
2472.20654,0.01073
2470.14637,0.01038
2468.08620,0.00994
2466.02602,0.00958
2463.96585,0.00938
2461.90568,0.00958
2459.84551,0.01012
2457.78534,0.01035
2455.72516,0.01013
2453.66499,0.01003
2451.60482,0.01027
2449.54465,0.01054
2447.48447,0.01058
2445.42430,0.01040
2443.36413,0.01035
2441.30396,0.01056
2439.24379,0.01053
2437.18361,0.00995
2435.12344,0.00925
2433.06327,0.00893
2431.00310,0.00887
2428.94293,0.00890
2426.88275,0.00903
2424.82258,0.00920
2422.76241,0.00919
2420.70224,0.00900
2418.64207,0.00888
2416.58189,0.00897
2414.52172,0.00903
2412.46155,0.00883
2410.40138,0.00854
2408.34120,0.00861
2406.28103,0.00899
2404.22086,0.00915
2402.16069,0.00903
2400.10052,0.00886
2398.04034,0.00874
2395.98017,0.00855
2393.92000,0.00842
2391.85983,0.00846
2389.79966,0.00860
2387.73948,0.00878
2385.67931,0.00899
2383.61914,0.00904
2381.55897,0.00888
2379.49880,0.00878
2377.43862,0.00887
2375.37845,0.00863
2373.31828,0.00829
2371.25811,0.00824
2369.19793,0.00832
2367.13776,0.00890
2365.07759,0.00919
2363.01742,0.00761
2360.95725,0.00714
2358.89707,0.00710
2356.83690,0.00737
2354.77673,0.00714
2352.71656,0.00718
2350.65639,0.00995
2348.59621,0.01165
2346.53604,0.00804
2344.47587,0.00686
2342.41570,0.00737
2340.35552,0.00757
2338.29535,0.00767
2336.23518,0.00748
2334.17501,0.00742
2332.11484,0.00726
2330.05466,0.00768
2327.99449,0.00847
2325.93432,0.00957
2323.87415,0.00942
2321.81398,0.00915
2319.75380,0.00887
2317.69363,0.00905
2315.63346,0.00848
2313.57329,0.00795
2311.51312,0.00810
2309.45294,0.00815
2307.39277,0.00802
2305.33260,0.00803
2303.27243,0.00818
2301.21225,0.00815
2299.15208,0.00812
2297.09191,0.00807
2295.03174,0.00795
2292.97157,0.00782
2290.91139,0.00775
2288.85122,0.00763
2286.79105,0.00731
2284.73088,0.00698
2282.67071,0.00685
2280.61053,0.00684
2278.55036,0.00693
2276.49019,0.00732
2274.43002,0.00798
2272.36984,0.00836
2270.30967,0.00819
2268.24950,0.00756
2266.18933,0.00684
2264.12916,0.00662
2262.06898,0.00675
2260.00881,0.00658
2257.94864,0.00622
2255.88847,0.00610
2253.82830,0.00631
2251.76812,0.00658
2249.70795,0.00656
2247.64778,0.00641
2245.58761,0.00644
2243.52744,0.00616
2241.46726,0.00581
2239.40709,0.00589
2237.34692,0.00612
2235.28675,0.00628
2233.22657,0.00622
2231.16640,0.00590
2229.10623,0.00602
2227.04606,0.00639
2224.98589,0.00596
2222.92571,0.00537
2220.86554,0.00529
2218.80537,0.00549
2216.74520,0.00574
2214.68503,0.00558
2212.62485,0.00524
2210.56468,0.00508
2208.50451,0.00497
2206.44434,0.00489
2204.38417,0.00467
2202.32399,0.00425
2200.26382,0.00440
2198.20365,0.00538
2196.14348,0.00597
2194.08330,0.00558
2192.02313,0.00491
2189.96296,0.00451
2187.90279,0.00454
2185.84262,0.00455
2183.78244,0.00399
2181.72227,0.00352
2179.66210,0.00386
2177.60193,0.00462
2175.54176,0.00506
2173.48158,0.00491
2171.42141,0.00481
2169.36124,0.00502
2167.30107,0.00496
2165.24089,0.00485
2163.18072,0.00420
2161.12055,0.00195
2159.06038,0.00029
2157.00021,0.00088
2154.94003,0.00214
2152.87986,0.00299
2150.81969,0.00294
2148.75952,0.00230
2146.69935,0.00207
2144.63917,0.00278
2142.57900,0.00367
2140.51883,0.00367
2138.45866,0.00318
2136.39849,0.00306
2134.33831,0.00343
2132.27814,0.00394
2130.21797,0.00453
2128.15780,0.00492
2126.09762,0.00465
2124.03745,0.00435
2121.97728,0.00461
2119.91711,0.00512
2117.85694,0.00551
2115.79676,0.00561
2113.73659,0.00579
2111.67642,0.00608
2109.61625,0.00585
2107.55608,0.00537
2105.49590,0.00523
2103.43573,0.00499
2101.37556,0.00445
2099.31539,0.00421
2097.25521,0.00417
2095.19504,0.00397
2093.13487,0.00382
2091.07470,0.00403
2089.01453,0.00458
2086.95435,0.00507
2084.89418,0.00526
2082.83401,0.00515
2080.77384,0.00471
2078.71367,0.00426
2076.65349,0.00399
2074.59332,0.00369
2072.53315,0.00390
2070.47298,0.00511
2068.41281,0.00601
2066.35263,0.00569
2064.29246,0.00521
2062.23229,0.00512
2060.17212,0.00523
2058.11194,0.00529
2056.05177,0.00460
2053.99160,0.00350
2051.93143,0.00306
2049.87126,0.00320
2047.81108,0.00346
2045.75091,0.00368
2043.69074,0.00389
2041.63057,0.00438
2039.57040,0.00480
2037.51022,0.00401
2035.45005,0.00226
2033.38988,0.00106
2031.32971,0.00089
2029.26954,0.00131
2027.20936,0.00213
2025.14919,0.00291
2023.08902,0.00327
2021.02885,0.00358
2018.96867,0.00372
2016.90850,0.00360
2014.84833,0.00355
2012.78816,0.00270
2010.72799,0.00171
2008.66781,0.00192
2006.60764,0.00232
2004.54747,0.00217
2002.48730,0.00208
2000.42713,0.00229
1998.36695,0.00200
1996.30678,0.00082
1994.24661,0.00000
1992.18644,0.00074
1990.12626,0.00253
1988.06609,0.00367
1986.00592,0.00415
1983.94575,0.00484
1981.88558,0.00496
1979.82540,0.00412
1977.76523,0.00365
1975.70506,0.00342
1973.64489,0.00227
1971.58472,0.00096
1969.52454,0.00029
1967.46437,0.00053
1965.40420,0.00167
1963.34403,0.00267
1961.28386,0.00275
1959.22368,0.00237
1957.16351,0.00234
1955.10334,0.00252
1953.04317,0.00277
1950.98299,0.00294
1948.92282,0.00253
1946.86265,0.00187
1944.80248,0.00142
1942.74231,0.00110
1940.68213,0.00102
1938.62196,0.00117
1936.56179,0.00139
1934.50162,0.00161
1932.44145,0.00180
1930.38127,0.00203
1928.32110,0.00230
1926.26093,0.00234
1924.20076,0.00210
1922.14059,0.00200
1920.08041,0.00199
1918.02024,0.00185
1915.96007,0.00180
1913.89990,0.00197
1911.83972,0.00219
1909.77955,0.00234
1907.71938,0.00242
1905.65921,0.00238
1903.59904,0.00217
1901.53886,0.00176
1899.47869,0.00147
1897.41852,0.00158
1895.35835,0.00181
1893.29818,0.00192
1891.23800,0.00194
1889.17783,0.00183
1887.11766,0.00162
1885.05749,0.00159
1882.99731,0.00189
1880.93714,0.00212
1878.87697,0.00187
1876.81680,0.00128
1874.75663,0.00086
1872.69645,0.00095
1870.63628,0.00141
1868.57611,0.00183
1866.51594,0.00194
1864.45577,0.00170
1862.39559,0.00133
1860.33542,0.00114
1858.27525,0.00110
1856.21508,0.00104
1854.15491,0.00092
1852.09473,0.00076
1850.03456,0.00060
1847.97439,0.00058
1845.91422,0.00073
1843.85404,0.00089
1841.79387,0.00080
1839.73370,0.00056
1837.67353,0.00048
1835.61336,0.00065
1833.55318,0.00089
1831.49301,0.00103
1829.43284,0.00111
1827.37267,0.00116
1825.31250,0.00101
1823.25232,0.00069
1821.19215,0.00045
1819.13198,0.00028
1817.07181,0.00007
1815.01163,0.00000
1812.95146,0.00008
1810.89129,0.00019
1808.83112,0.00035
1806.77095,0.00051
1804.71077,0.00039
1802.65060,0.00004
1800.59043,-0.00013
1798.53026,-0.00003
1796.47009,0.00013
1794.40991,0.00023
1792.34974,0.00019
1790.28957,0.00001
1788.22940,-0.00017
1786.16923,-0.00019
1784.10905,-0.00006
1782.04888,0.00000
1779.98871,-0.00013
1777.92854,-0.00020
1775.86836,-0.00023
1773.80819,-0.00034
1771.74802,-0.00039
1769.68785,-0.00010
1767.62768,0.00047
1765.56750,0.00110
1763.50733,0.00174
1761.44716,0.00237
1759.38699,0.00297
1757.32682,0.00375
1755.26664,0.00479
1753.20647,0.00593
1751.14630,0.00729
1749.08613,0.00901
1747.02596,0.01098
1744.96578,0.01335
1742.90561,0.01643
1740.84544,0.02020
1738.78527,0.02412
1736.72509,0.02746
1734.66492,0.03033
1732.60475,0.03268
1730.54458,0.03392
1728.48441,0.03435
1726.42423,0.03426
1724.36406,0.03381
1722.30389,0.03336
1720.24372,0.03298
1718.18355,0.03241
1716.12337,0.03192
1714.06320,0.03192
1712.00303,0.03206
1709.94286,0.03199
1707.88268,0.03161
1705.82251,0.03095
1703.76234,0.03017
1701.70217,0.02929
1699.64200,0.02818
1697.58182,0.02736
1695.52165,0.02703
1693.46148,0.02690
1691.40131,0.02690
1689.34114,0.02700
1687.28096,0.02707
1685.22079,0.02698
1683.16062,0.02686
1681.10045,0.02708
1679.04028,0.02750
1676.98010,0.02794
1674.91993,0.02847
1672.85976,0.02907
1670.79959,0.02958
1668.73941,0.03024
1666.67924,0.03118
1664.61907,0.03228
1662.55890,0.03354
1660.49873,0.03501
1658.43855,0.03655
1656.37838,0.03796
1654.31821,0.03905
1652.25804,0.03983
1650.19787,0.04041
1648.13769,0.04067
1646.07752,0.04064
1644.01735,0.04083
1641.95718,0.04134
1639.89701,0.04189
1637.83683,0.04235
1635.77666,0.04270
1633.71649,0.04309
1631.65632,0.04366
1629.59614,0.04433
1627.53597,0.04484
1625.47580,0.04511
1623.41563,0.04520
1621.35546,0.04535
1619.29528,0.04572
1617.23511,0.04615
1615.17494,0.04649
1613.11477,0.04687
1611.05460,0.04732
1608.99442,0.04769
1606.93425,0.04785
1604.87408,0.04772
1602.81391,0.04731
1600.75373,0.04669
1598.69356,0.04586
1596.63339,0.04473
1594.57322,0.04327
1592.51305,0.04161
1590.45287,0.03983
1588.39270,0.03804
1586.33253,0.03630
1584.27236,0.03463
1582.21219,0.03309
1580.15201,0.03171
1578.09184,0.03024
1576.03167,0.02854
1573.97150,0.02730
1571.91133,0.02660
1569.85115,0.02563
1567.79098,0.02443
1565.73081,0.02364
1563.67064,0.02332
1561.61046,0.02314
1559.55029,0.02277
1557.49012,0.02250
1555.42995,0.02280
1553.36978,0.02334
1551.30960,0.02382
1549.24943,0.02422
1547.18926,0.02456
1545.12909,0.02489
1543.06892,0.02503
1541.00874,0.02479
1538.94857,0.02451
1536.88840,0.02455
1534.82823,0.02440
1532.76805,0.02384
1530.70788,0.02331
1528.64771,0.02284
1526.58754,0.02223
1524.52737,0.02169
1522.46719,0.02153
1520.40702,0.02166
1518.34685,0.02184
1516.28668,0.02199
1514.22651,0.02199
1512.16633,0.02172
1510.10616,0.02100
1508.04599,0.01931
1505.98582,0.01697
1503.92565,0.01557
1501.86547,0.01478
1499.80530,0.01379
1497.74513,0.01251
1495.68496,0.01122
1493.62478,0.01024
1491.56461,0.00932
1489.50444,0.00803
1487.44427,0.00675
1485.38410,0.00609
1483.32392,0.00597
1481.26375,0.00621
1479.20358,0.00680
1477.14341,0.00778
1475.08324,0.00937
1473.02306,0.01180
1470.96289,0.01464
1468.90272,0.01715
1466.84255,0.01943
1464.78238,0.02155
1462.72220,0.02306
1460.66203,0.02393
1458.60186,0.02474
1456.54169,0.02590
1454.48151,0.02711
1452.42134,0.02816
1450.36117,0.02915
1448.30100,0.03001
1446.24083,0.03068
1444.18065,0.03111
1442.12048,0.03120
1440.06031,0.03082
1438.00014,0.02987
1435.93997,0.02848
1433.87979,0.02715
1431.81962,0.02593
1429.75945,0.02462
1427.69928,0.02356
1425.63910,0.02290
1423.57893,0.02251
1421.51876,0.02227
1419.45859,0.02204
1417.39842,0.02182
1415.33824,0.02175
1413.27807,0.02168
1411.21790,0.02144
1409.15773,0.02108
1407.09756,0.02070
1405.03738,0.02038
1402.97721,0.02026
1400.91704,0.02036
1398.85687,0.02048
1396.79670,0.02053
1394.73652,0.02067
1392.67635,0.02101
1390.61618,0.02142
1388.55601,0.02183
1386.49583,0.02235
1384.43566,0.02311
1382.37549,0.02414
1380.31532,0.02537
1378.25515,0.02652
1376.19497,0.02729
1374.13480,0.02771
1372.07463,0.02805
1370.01446,0.02844
1367.95429,0.02876
1365.89411,0.02889
1363.83394,0.02886
1361.77377,0.02874
1359.71360,0.02867
1357.65343,0.02878
1355.59325,0.02902
1353.53308,0.02919
1351.47291,0.02931
1349.41274,0.02957
1347.35256,0.03002
1345.29239,0.03053
1343.23222,0.03097
1341.17205,0.03125
1339.11188,0.03150
1337.05170,0.03192
1334.99153,0.03257
1332.93136,0.03323
1330.87119,0.03380
1328.81102,0.03447
1326.75084,0.03538
1324.69067,0.03641
1322.63050,0.03729
1320.57033,0.03794
1318.51015,0.03837
1316.44998,0.03863
1314.38981,0.03874
1312.32964,0.03856
1310.26947,0.03801
1308.20929,0.03714
1306.14912,0.03599
1304.08895,0.03454
1302.02878,0.03289
1299.96861,0.03121
1297.90843,0.02957
1295.84826,0.02799
1293.78809,0.02655
1291.72792,0.02527
1289.66775,0.02420
1287.60757,0.02335
1285.54740,0.02278
1283.48723,0.02245
1281.42706,0.02226
1279.36688,0.02224
1277.30671,0.02248
1275.24654,0.02283
1273.18637,0.02323
1271.12620,0.02370
1269.06602,0.02414
1267.00585,0.02447
1264.94568,0.02479
1262.88551,0.02521
1260.82534,0.02574
1258.76516,0.02637
1256.70499,0.02701
1254.64482,0.02759
1252.58465,0.02820
1250.52447,0.02887
1248.46430,0.02951
1246.40413,0.03013
1244.34396,0.03088
1242.28379,0.03173
1240.22361,0.03234
1238.16344,0.03270
1236.10327,0.03315
1234.04310,0.03376
1231.98293,0.03439
1229.92275,0.03496
1227.86258,0.03543
1225.80241,0.03597
1223.74224,0.03673
1221.68207,0.03755
1219.62189,0.03823
1217.56172,0.03871
1215.50155,0.03907
1213.44138,0.03954
1211.38120,0.03998
1209.32103,0.04030
1207.26086,0.04070
1205.20069,0.04128
1203.14052,0.04190
1201.08034,0.04254
1199.02017,0.04299
1196.96000,0.04307
1194.89983,0.04296
1192.83966,0.04277
1190.77948,0.04242
1188.71931,0.04191
1186.65914,0.04139
1184.59897,0.04097
1182.53880,0.04071
1180.47862,0.04059
1178.41845,0.04057
1176.35828,0.04072
1174.29811,0.04096
1172.23793,0.04143
1170.17776,0.04214
1168.11759,0.04282
1166.05742,0.04322
1163.99725,0.04320
1161.93707,0.04290
1159.87690,0.04245
1157.81673,0.04171
1155.75656,0.04071
1153.69639,0.03962
1151.63621,0.03851
1149.57604,0.03749
1147.51587,0.03656
1145.45570,0.03540
1143.39552,0.03394
1141.33535,0.03245
1139.27518,0.03123
1137.21501,0.03024
1135.15484,0.02938
1133.09466,0.02868
1131.03449,0.02825
1128.97432,0.02830
1126.91415,0.02887
1124.85398,0.02979
1122.79380,0.03098
1120.73363,0.03227
1118.67346,0.03361
1116.61329,0.03527
1114.55312,0.03743
1112.49294,0.03980
1110.43277,0.04218
1108.37260,0.04467
1106.31243,0.04707
1104.25225,0.04915
1102.19208,0.05078
1100.13191,0.05196
1098.07174,0.05304
1096.01157,0.05422
1093.95139,0.05542
1091.89122,0.05662
1089.83105,0.05789
1087.77088,0.05934
1085.71071,0.06100
1083.65053,0.06274
1081.59036,0.06441
1079.53019,0.06596
1077.47002,0.06739
1075.40985,0.06852
1073.34967,0.06946
1071.28950,0.07042
1069.22933,0.07130
1067.16916,0.07216
1065.10898,0.07295
1063.04881,0.07380
1060.98864,0.07494
1058.92847,0.07616
1056.86830,0.07721
1054.80812,0.07827
1052.74795,0.07951
1050.68778,0.08078
1048.62761,0.08186
1046.56744,0.08280
1044.50726,0.08378
1042.44709,0.08479
1040.38692,0.08577
1038.32675,0.08698
1036.26657,0.08877
1034.20640,0.09080
1032.14623,0.09252
1030.08606,0.09375
1028.02589,0.09450
1025.96571,0.09491
1023.90554,0.09507
1021.84537,0.09506
1019.78520,0.09489
1017.72503,0.09447
1015.66485,0.09386
1013.60468,0.09314
1011.54451,0.09214
1009.48434,0.09070
1007.42417,0.08906
1005.36399,0.08744
1003.30382,0.08570
1001.24365,0.08390
999.18348,0.08204
997.12330,0.07985
995.06313,0.07736
993.00296,0.07507
990.94279,0.07305
988.88262,0.07075
986.82244,0.06788
984.76227,0.06475
982.70210,0.06163
980.64193,0.05851
978.58176,0.05554
976.52158,0.05285
974.46141,0.05036
972.40124,0.04821
970.34107,0.04655
968.28089,0.04491
966.22072,0.04321
964.16055,0.04195
962.10038,0.04081
960.04021,0.03917
957.98003,0.03733
955.91986,0.03556
953.85969,0.03365
951.79952,0.03160
949.73935,0.02955
947.67917,0.02765
945.61900,0.02578
943.55883,0.02385
941.49866,0.02242
939.43849,0.02161
937.37831,0.02097
935.31814,0.02041
933.25797,0.01987
931.19780,0.01918
929.13762,0.01847
927.07745,0.01782
925.01728,0.01694
922.95711,0.01586
920.89694,0.01492
918.83676,0.01406
916.77659,0.01293
914.71642,0.01163
912.65625,0.01036
910.59608,0.00918
908.53590,0.00839
906.47573,0.00802
904.41556,0.00762
902.35539,0.00703
900.29522,0.00672
898.23504,0.00686
896.17487,0.00703
894.11470,0.00686
892.05453,0.00653
889.99435,0.00636
887.93418,0.00633
885.87401,0.00614
883.81384,0.00574
881.75367,0.00545
879.69349,0.00531
877.63332,0.00532
875.57315,0.00571
873.51298,0.00611
871.45281,0.00605
869.39263,0.00570
867.33246,0.00545
865.27229,0.00520
863.21212,0.00453
861.15194,0.00338
859.09177,0.00205
857.03160,0.00103
854.97143,0.00052
852.91126,0.00020
850.85108,0.00000
848.79091,-0.00009
846.73074,-0.00019
844.67057,-0.00026
842.61040,0.00002
840.55022,0.00087
838.49005,0.00186
836.42988,0.00232
834.36971,0.00232
832.30954,0.00229
830.24936,0.00227
828.18919,0.00202
826.12902,0.00165
824.06885,0.00138
822.00867,0.00143
819.94850,0.00173
817.88833,0.00199
815.82816,0.00211
813.76799,0.00194
811.70781,0.00163
809.64764,0.00177
807.58747,0.00211
805.52730,0.00192
803.46713,0.00105
801.40695,0.00027
799.34678,0.00000
797.28661,-0.00046
795.22644,-0.00078
793.16627,-0.00114
791.10609,-0.00145
789.04592,-0.00142
786.98575,-0.00088
784.92558,-0.00004
782.86540,0.00061
780.80523,0.00084
778.74506,0.00069
776.68489,0.00046
774.62472,0.00052
772.56454,0.00106
770.50437,0.00167
768.44420,0.00236
766.38403,0.00360
764.32386,0.00499
762.26368,0.00638
760.20351,0.00803
758.14334,0.00938
756.08317,0.00961
754.02299,0.00897
751.96282,0.00829
749.90265,0.00744
747.84248,0.00629
745.78231,0.00536
743.72213,0.00470
741.66196,0.00391
739.60179,0.00299
737.54162,0.00226
735.48145,0.00215
733.42127,0.00292
731.36110,0.00381
729.30093,0.00412
727.24076,0.00432
725.18059,0.00431
723.12041,0.00416
721.06024,0.00388
719.00007,0.00448
716.93990,0.00462
714.87972,0.00388
712.81955,0.00306
710.75938,0.00245
708.69921,0.00215
706.63904,0.00206
704.57886,0.00184
702.51869,0.00155
700.45852,0.00145
698.39835,0.00130
696.33818,0.00095
694.27800,0.00046
692.21783,0.00005
690.15766,0.00014
688.09749,0.00067
686.03731,0.00079
683.97714,0.00031
681.91697,-0.00030
679.85680,-0.00080
677.79663,-0.00099
675.73645,-0.00072
673.67628,0.00077
671.61611,0.00321
669.55594,-0.00011
667.49577,-0.00431
665.43559,0.00324
663.37542,0.00199
661.31525,-0.00069
659.25508,-0.00176
657.19491,-0.00247
655.13473,-0.00284
653.07456,-0.00200
651.01439,-0.00053
648.95422,0.00000
646.89404,-0.00008
644.83387,0.00023
642.77370,0.00076
640.71353,0.00045
638.65336,-0.00018
636.59318,-0.00038
634.53301,-0.00016
632.47284,0.00046
630.41267,0.00097
628.35250,0.00103
626.29232,0.00093
624.23215,0.00053
622.17198,0.00088
620.11181,0.00314
618.05164,0.00461
615.99146,0.00397
613.93129,0.00315
611.87112,0.00190
609.81095,0.00081
607.75077,0.00068
605.69060,0.00127
603.63043,0.00266
601.57026,0.00264
599.51009,0.00000
