3996.73391,0.00030
3994.67373,0.00022
3992.61356,-0.00011
3990.55339,-0.00030
3988.49322,-0.00008
3986.43305,0.00012
3984.37287,0.00024
3982.31270,0.00044
3980.25253,0.00043
3978.19236,0.00019
3976.13219,0.00006
3974.07201,0.00007
3972.01184,0.00001
3969.95167,-0.00015
3967.89150,-0.00017
3965.83133,0.00002
3963.77115,0.00017
3961.71098,0.00021
3959.65081,0.00031
3957.59064,0.00050
3955.53046,0.00048
3953.47029,0.00023
3951.41012,0.00005
3949.34995,0.00000
3947.28978,0.00011
3945.22960,0.00032
3943.16943,0.00045
3941.10926,0.00048
3939.04909,0.00051
3936.98892,0.00056
3934.92874,0.00045
3932.86857,0.00018
3930.80840,0.00005
3928.74823,0.00018
3926.68805,0.00036
3924.62788,0.00053
3922.56771,0.00061
3920.50754,0.00055
3918.44737,0.00061
3916.38719,0.00087
3914.32702,0.00093
3912.26685,0.00079
3910.20668,0.00072
3908.14651,0.00066
3906.08633,0.00047
3904.02616,0.00024
3901.96599,0.00015
3899.90582,0.00038
3897.84565,0.00072
3895.78547,0.00073
3893.72530,0.00047
3891.66513,0.00033
3889.60496,0.00056
3887.54478,0.00085
3885.48461,0.00092
3883.42444,0.00087
3881.36427,0.00074
3879.30410,0.00040
3877.24392,0.00005
3875.18375,0.00002
3873.12358,0.00026
3871.06341,0.00054
3869.00324,0.00068
3866.94306,0.00052
3864.88289,0.00017
3862.82272,0.00000
3860.76255,0.00012
3858.70237,0.00043
3856.64220,0.00074
3854.58203,0.00075
3852.52186,0.00057
3850.46169,0.00064
3848.40151,0.00083
3846.34134,0.00089
3844.28117,0.00077
3842.22100,0.00055
3840.16083,0.00044
3838.10065,0.00042
3836.04048,0.00037
3833.98031,0.00053
3831.92014,0.00093
3829.85997,0.00120
3827.79979,0.00114
3825.73962,0.00083
3823.67945,0.00039
3821.61928,0.00000
3819.55910,0.00005
3817.49893,0.00053
3815.43876,0.00112
3813.37859,0.00152
3811.31842,0.00171
3809.25824,0.00174
3807.19807,0.00153
3805.13790,0.00119
3803.07773,0.00099
3801.01756,0.00102
3798.95738,0.00117
3796.89721,0.00136
3794.83704,0.00136
3792.77687,0.00110
3790.71670,0.00088
3788.65652,0.00088
3786.59635,0.00101
3784.53618,0.00117
3782.47601,0.00126
3780.41583,0.00107
3778.35566,0.00063
3776.29549,0.00048
3774.23532,0.00089
3772.17515,0.00140
3770.11497,0.00136
3768.05480,0.00090
3765.99463,0.00061
3763.93446,0.00061
3761.87429,0.00063
3759.81411,0.00058
3757.75394,0.00057
3755.69377,0.00055
3753.63360,0.00034
3751.57342,0.00000
3749.51325,0.00010
3747.45308,0.00049
3745.39291,0.00069
3743.33274,0.00098
3741.27256,0.00131
3739.21239,0.00130
3737.15222,0.00114
3735.09205,0.00129
3733.03188,0.00167
3730.97170,0.00182
3728.91153,0.00157
3726.85136,0.00118
3724.79119,0.00100
3722.73102,0.00086
3720.67084,0.00060
3718.61067,0.00050
3716.55050,0.00063
3714.49033,0.00086
3712.43015,0.00103
3710.36998,0.00101
3708.30981,0.00087
3706.24964,0.00077
3704.18947,0.00083
3702.12929,0.00098
3700.06912,0.00101
3698.00895,0.00085
3695.94878,0.00064
3693.88861,0.00040
3691.82843,0.00014
3689.76826,0.00016
3687.70809,0.00047
3685.64792,0.00077
3683.58775,0.00096
3681.52757,0.00104
3679.46740,0.00101
3677.40723,0.00093
3675.34706,0.00078
3673.28688,0.00079
3671.22671,0.00110
3669.16654,0.00132
3667.10637,0.00120
3665.04620,0.00115
3662.98602,0.00131
3660.92585,0.00139
3658.86568,0.00145
3656.80551,0.00175
3654.74534,0.00210
3652.68516,0.00216
3650.62499,0.00215
3648.56482,0.00234
3646.50465,0.00265
3644.44447,0.00298
3642.38430,0.00331
3640.32413,0.00346
3638.26396,0.00338
3636.20379,0.00341
3634.14361,0.00360
3632.08344,0.00367
3630.02327,0.00386
3627.96310,0.00453
3625.90293,0.00514
3623.84275,0.00543
3621.78258,0.00571
3619.72241,0.00601
3617.66224,0.00617
3615.60207,0.00625
3613.54189,0.00633
3611.48172,0.00642
3609.42155,0.00678
3607.36138,0.00759
3605.30120,0.00813
3603.24103,0.00802
3601.18086,0.00795
3599.12069,0.00837
3597.06052,0.00895
3595.00034,0.00918
3592.94017,0.00914
3590.88000,0.00918
3588.81983,0.00953
3586.75966,0.01031
3584.69948,0.01121
3582.63931,0.01168
3580.57914,0.01179
3578.51897,0.01203
3576.45879,0.01264
3574.39862,0.01335
3572.33845,0.01387
3570.27828,0.01418
3568.21811,0.01418
3566.15793,0.01402
3564.09776,0.01420
3562.03759,0.01469
3559.97742,0.01521
3557.91725,0.01574
3555.85707,0.01622
3553.79690,0.01641
3551.73673,0.01645
3549.67656,0.01691
3547.61639,0.01779
3545.55621,0.01852
3543.49604,0.01896
3541.43587,0.01940
3539.37570,0.01997
3537.31552,0.02061
3535.25535,0.02115
3533.19518,0.02151
3531.13501,0.02178
3529.07484,0.02212
3527.01466,0.02248
3524.95449,0.02283
3522.89432,0.02335
3520.83415,0.02409
3518.77398,0.02461
3516.71380,0.02476
3514.65363,0.02485
3512.59346,0.02512
3510.53329,0.02566
3508.47312,0.02642
3506.41294,0.02702
3504.35277,0.02725
3502.29260,0.02741
3500.23243,0.02776
3498.17225,0.02818
3496.11208,0.02862
3494.05191,0.02921
3491.99174,0.02981
3489.93157,0.03028
3487.87139,0.03078
3485.81122,0.03138
3483.75105,0.03192
3481.69088,0.03233
3479.63071,0.03264
3477.57053,0.03306
3475.51036,0.03361
3473.45019,0.03392
3471.39002,0.03401
3469.32984,0.03437
3467.26967,0.03512
3465.20950,0.03583
3463.14933,0.03616
3461.08916,0.03630
3459.02898,0.03653
3456.96881,0.03676
3454.90864,0.03707
3452.84847,0.03759
3450.78830,0.03812
3448.72812,0.03851
3446.66795,0.03875
3444.60778,0.03904
3442.54761,0.03952
3440.48744,0.04005
3438.42726,0.04060
3436.36709,0.04128
3434.30692,0.04186
3432.24675,0.04214
3430.18657,0.04227
3428.12640,0.04246
3426.06623,0.04283
3424.00606,0.04353
3421.94589,0.04420
3419.88571,0.04426
3417.82554,0.04404
3415.76537,0.04420
3413.70520,0.04474
3411.64503,0.04534
3409.58485,0.04579
3407.52468,0.04598
3405.46451,0.04613
3403.40434,0.04653
3401.34416,0.04706
3399.28399,0.04757
3397.22382,0.04797
3395.16365,0.04819
3393.10348,0.04841
3391.04330,0.04878
3388.98313,0.04929
3386.92296,0.04965
3384.86279,0.04963
3382.80262,0.04953
3380.74244,0.04964
3378.68227,0.04993
3376.62210,0.05028
3374.56193,0.05069
3372.50176,0.05105
3370.44158,0.05118
3368.38141,0.05120
3366.32124,0.05138
3364.26107,0.05174
3362.20089,0.05215
3360.14072,0.05252
3358.08055,0.05268
3356.02038,0.05261
3353.96021,0.05289
3351.90003,0.05351
3349.83986,0.05377
3347.77969,0.05367
3345.71952,0.05368
3343.65935,0.05377
3341.59917,0.05384
3339.53900,0.05403
3337.47883,0.05430
3335.41866,0.05458
3333.35849,0.05474
3331.29831,0.05472
3329.23814,0.05475
3327.17797,0.05488
3325.11780,0.05497
3323.05762,0.05501
3320.99745,0.05511
3318.93728,0.05530
3316.87711,0.05542
3314.81694,0.05548
3312.75676,0.05574
3310.69659,0.05611
3308.63642,0.05635
3306.57625,0.05641
3304.51608,0.05637
3302.45590,0.05630
3300.39573,0.05627
3298.33556,0.05636
3296.27539,0.05656
3294.21521,0.05673
3292.15504,0.05683
3290.09487,0.05694
3288.03470,0.05702
3285.97453,0.05702
3283.91435,0.05692
3281.85418,0.05668
3279.79401,0.05652
3277.73384,0.05655
3275.67367,0.05661
3273.61349,0.05676
3271.55332,0.05709
3269.49315,0.05733
3267.43298,0.05720
3265.37281,0.05695
3263.31263,0.05676
3261.25246,0.05642
3259.19229,0.05594
3257.13212,0.05579
3255.07194,0.05591
3253.01177,0.05580
3250.95160,0.05542
3248.89143,0.05511
3246.83126,0.05513
3244.77108,0.05532
3242.71091,0.05533
3240.65074,0.05516
3238.59057,0.05503
3236.53040,0.05477
3234.47022,0.05425
3232.41005,0.05387
3230.34988,0.05378
3228.28971,0.05370
3226.22954,0.05357
3224.16936,0.05346
3222.10919,0.05334
3220.04902,0.05332
3217.98885,0.05331
3215.92867,0.05313
3213.86850,0.05281
3211.80833,0.05244
3209.74816,0.05205
3207.68799,0.05169
3205.62781,0.05149
3203.56764,0.05153
3201.50747,0.05171
3199.44730,0.05161
3197.38713,0.05111
3195.32695,0.05053
3193.26678,0.05019
3191.20661,0.05026
3189.14644,0.05054
3187.08626,0.05054
3185.02609,0.05026
3182.96592,0.04987
3180.90575,0.04942
3178.84558,0.04899
3176.78540,0.04870
3174.72523,0.04858
3172.66506,0.04855
3170.60489,0.04842
3168.54472,0.04807
3166.48454,0.04774
3164.42437,0.04766
3162.36420,0.04757
3160.30403,0.04707
3158.24386,0.04638
3156.18368,0.04585
3154.12351,0.04557
3152.06334,0.04551
3150.00317,0.04552
3147.94299,0.04538
3145.88282,0.04504
3143.82265,0.04475
3141.76248,0.04470
3139.70231,0.04464
3137.64213,0.04428
3135.58196,0.04368
3133.52179,0.04315
3131.46162,0.04290
3129.40145,0.04294
3127.34127,0.04297
3125.28110,0.04270
3123.22093,0.04238
3121.16076,0.04228
3119.10058,0.04219
3117.04041,0.04190
3114.98024,0.04148
3112.92007,0.04097
3110.85990,0.04059
3108.79972,0.04046
3106.73955,0.04030
3104.67938,0.03997
3102.61921,0.03959
3100.55904,0.03929
3098.49886,0.03909
3096.43869,0.03889
3094.37852,0.03872
3092.31835,0.03869
3090.25818,0.03867
3088.19800,0.03851
3086.13783,0.03825
3084.07766,0.03806
3082.01749,0.03791
3079.95731,0.03777
3077.89714,0.03770
3075.83697,0.03748
3073.77680,0.03703
3071.71663,0.03677
3069.65645,0.03678
3067.59628,0.03668
3065.53611,0.03649
3063.47594,0.03623
3061.41577,0.03574
3059.35559,0.03525
3057.29542,0.03503
3055.23525,0.03505
3053.17508,0.03504
3051.11491,0.03472
3049.05473,0.03420
3046.99456,0.03385
3044.93439,0.03369
3042.87422,0.03351
3040.81404,0.03331
3038.75387,0.03314
3036.69370,0.03293
3034.63353,0.03270
3032.57336,0.03242
3030.51318,0.03191
3028.45301,0.03125
3026.39284,0.03088
3024.33267,0.03093
3022.27250,0.03095
3020.21232,0.03068
3018.15215,0.03046
3016.09198,0.03054
3014.03181,0.03067
3011.97163,0.03060
3009.91146,0.03028
3007.85129,0.02988
3005.79112,0.02967
3003.73095,0.02949
3001.67077,0.02921
2999.61060,0.02902
2997.55043,0.02891
2995.49026,0.02870
2993.43009,0.02862
2991.36991,0.02883
2989.30974,0.02896
2987.24957,0.02899
2985.18940,0.02918
2983.12923,0.02954
2981.06905,0.02995
2979.00888,0.03028
2976.94871,0.03058
2974.88854,0.03093
2972.82836,0.03138
2970.76819,0.03202
2968.70802,0.03277
2966.64785,0.03354
2964.58768,0.03442
2962.52750,0.03545
2960.46733,0.03650
2958.40716,0.03747
2956.34699,0.03843
2954.28682,0.03943
2952.22664,0.04047
2950.16647,0.04153
2948.10630,0.04273
2946.04613,0.04415
2943.98596,0.04575
2941.92578,0.04752
2939.86561,0.04940
2937.80544,0.05135
2935.74527,0.05342
2933.68509,0.05569
2931.62492,0.05804
2929.56475,0.06019
2927.50458,0.06200
2925.44441,0.06358
2923.38423,0.06514
2921.32406,0.06679
2919.26389,0.06826
2917.20372,0.06856
2915.14355,0.06683
2913.08337,0.06356
2911.02320,0.06012
2908.96303,0.05733
2906.90286,0.05512
2904.84268,0.05340
2902.78251,0.05197
2900.72234,0.05062
2898.66217,0.04940
2896.60200,0.04841
2894.54182,0.04746
2892.48165,0.04643
2890.42148,0.04541
2888.36131,0.04454
2886.30114,0.04377
2884.24096,0.04300
2882.18079,0.04222
2880.12062,0.04151
2878.06045,0.04101
2876.00028,0.04083
2873.94010,0.04097
2871.87993,0.04127
2869.81976,0.04154
2867.75959,0.04178
2865.69941,0.04223
2863.63924,0.04314
2861.57907,0.04451
2859.51890,0.04623
2857.45873,0.04830
2855.39855,0.05062
2853.33838,0.05303
2851.27821,0.05503
2849.21804,0.05529
2847.15787,0.05277
2845.09769,0.04841
2843.03752,0.04411
2840.97735,0.04077
2838.91718,0.03838
2836.85700,0.03669
2834.79683,0.03546
2832.73666,0.03437
2830.67649,0.03322
2828.61632,0.03220
2826.55614,0.03149
2824.49597,0.03096
2822.43580,0.03060
2820.37563,0.03037
2818.31546,0.03008
2816.25528,0.02965
2814.19511,0.02920
2812.13494,0.02879
2810.07477,0.02846
2808.01460,0.02824
2805.95442,0.02801
2803.89425,0.02767
2801.83408,0.02739
2799.77391,0.02722
2797.71373,0.02698
2795.65356,0.02664
2793.59339,0.02641
2791.53322,0.02633
2789.47305,0.02638
2787.41287,0.02645
2785.35270,0.02622
2783.29253,0.02575
2781.23236,0.02535
2779.17219,0.02505
2777.11201,0.02487
2775.05184,0.02485
2772.99167,0.02480
2770.93150,0.02458
2768.87133,0.02438
2766.81115,0.02429
2764.75098,0.02423
2762.69081,0.02409
2760.63064,0.02400
2758.57046,0.02410
2756.51029,0.02415
2754.45012,0.02394
2752.38995,0.02370
2750.32978,0.02359
2748.26960,0.02344
2746.20943,0.02326
2744.14926,0.02325
2742.08909,0.02341
2740.02892,0.02349
2737.96874,0.02340
2735.90857,0.02321
2733.84840,0.02302
2731.78823,0.02285
2729.72805,0.02269
2727.66788,0.02258
2725.60771,0.02257
2723.54754,0.02260
2721.48737,0.02258
2719.42719,0.02249
2717.36702,0.02241
2715.30685,0.02240
2713.24668,0.02244
2711.18651,0.02239
2709.12633,0.02218
2707.06616,0.02202
2705.00599,0.02206
2702.94582,0.02206
2700.88565,0.02185
2698.82547,0.02161
2696.76530,0.02152
2694.70513,0.02151
2692.64496,0.02150
2690.58478,0.02143
2688.52461,0.02136
2686.46444,0.02135
2684.40427,0.02137
2682.34410,0.02130
2680.28392,0.02117
2678.22375,0.02104
2676.16358,0.02089
2674.10341,0.02074
2672.04324,0.02059
2669.98306,0.02043
2667.92289,0.02043
2665.86272,0.02060
2663.80255,0.02057
2661.74238,0.02031
2659.68220,0.02012
2657.62203,0.02011
2655.56186,0.02013
2653.50169,0.02004
2651.44151,0.01977
2649.38134,0.01952
2647.32117,0.01947
2645.26100,0.01940
2643.20083,0.01922
2641.14065,0.01909
2639.08048,0.01897
2637.02031,0.01879
2634.96014,0.01862
2632.89997,0.01847
2630.83979,0.01836
2628.77962,0.01822
2626.71945,0.01816
2624.65928,0.01834
2622.59910,0.01850
2620.53893,0.01839
2618.47876,0.01812
2616.41859,0.01772
2614.35842,0.01725
2612.29824,0.01721
2610.23807,0.01752
2608.17790,0.01751
2606.11773,0.01706
2604.05756,0.01666
2601.99738,0.01667
2599.93721,0.01680
2597.87704,0.01678
2595.81687,0.01677
2593.75670,0.01686
2591.69652,0.01678
2589.63635,0.01636
2587.57618,0.01590
2585.51601,0.01578
2583.45583,0.01594
2581.39566,0.01608
2579.33549,0.01610
2577.27532,0.01611
2575.21515,0.01618
2573.15497,0.01626
2571.09480,0.01604
2569.03463,0.01553
2566.97446,0.01523
2564.91429,0.01515
2562.85411,0.01496
2560.79394,0.01490
2558.73377,0.01514
2556.67360,0.01527
2554.61342,0.01507
2552.55325,0.01483
2550.49308,0.01478
2548.43291,0.01479
2546.37274,0.01456
2544.31256,0.01423
2542.25239,0.01422
2540.19222,0.01446
2538.13205,0.01450
2536.07188,0.01437
2534.01170,0.01444
2531.95153,0.01454
2529.89136,0.01448
2527.83119,0.01445
2525.77102,0.01432
2523.71084,0.01397
2521.65067,0.01394
2519.59050,0.01428
2517.53033,0.01412
2515.47015,0.01349
2513.40998,0.01319
2511.34981,0.01318
2509.28964,0.01318
2507.22947,0.01327
2505.16929,0.01326
2503.10912,0.01316
2501.04895,0.01310
2498.98878,0.01293
2496.92861,0.01272
2494.86843,0.01267
2492.80826,0.01269
2490.74809,0.01255
2488.68792,0.01224
2486.62775,0.01215
2484.56757,0.01243
2482.50740,0.01265
2480.44723,0.01284
2478.38706,0.01312
2476.32688,0.01313
2474.26671,0.01278
2472.20654,0.01237
2470.14637,0.01211
2468.08620,0.01209
2466.02602,0.01220
2463.96585,0.01212
2461.90568,0.01197
2459.84551,0.01191
2457.78534,0.01183
2455.72516,0.01193
2453.66499,0.01202
2451.60482,0.01177
2449.54465,0.01147
2447.48447,0.01140
2445.42430,0.01145
2443.36413,0.01139
2441.30396,0.01125
2439.24379,0.01114
2437.18361,0.01122
2435.12344,0.01132
2433.06327,0.01124
2431.00310,0.01123
2428.94293,0.01130
2426.88275,0.01111
2424.82258,0.01073
2422.76241,0.01057
2420.70224,0.01070
2418.64207,0.01082
2416.58189,0.01074
2414.52172,0.01072
2412.46155,0.01082
2410.40138,0.01082
2408.34120,0.01070
2406.28103,0.01065
2404.22086,0.01066
2402.16069,0.01052
2400.10052,0.01032
2398.04034,0.01015
2395.98017,0.01003
2393.92000,0.00996
2391.85983,0.00985
2389.79966,0.00976
2387.73948,0.00978
2385.67931,0.00976
2383.61914,0.00980
2381.55897,0.00996
2379.49880,0.01005
2377.43862,0.00993
2375.37845,0.00984
2373.31828,0.00964
2371.25811,0.00927
2369.19793,0.00904
2367.13776,0.00832
2365.07759,0.00689
2363.01742,0.00695
2360.95725,0.00871
2358.89707,0.01049
2356.83690,0.01042
2354.77673,0.00972
2352.71656,0.00950
2350.65639,0.00870
2348.59621,0.00800
2346.53604,0.00894
2344.47587,0.00938
2342.41570,0.00950
2340.35552,0.00979
2338.29535,0.01011
2336.23518,0.01042
2334.17501,0.01049
2332.11484,0.01014
2330.05466,0.00953
2327.99449,0.00961
2325.93432,0.01011
2323.87415,0.01047
2321.81398,0.01016
2319.75380,0.00956
2317.69363,0.00889
2315.63346,0.00867
2313.57329,0.00873
2311.51312,0.00889
2309.45294,0.00920
2307.39277,0.00942
2305.33260,0.00937
2303.27243,0.00907
2301.21225,0.00864
2299.15208,0.00825
2297.09191,0.00829
2295.03174,0.00870
2292.97157,0.00899
2290.91139,0.00910
2288.85122,0.00921
2286.79105,0.00916
2284.73088,0.00884
2282.67071,0.00838
2280.61053,0.00811
2278.55036,0.00813
2276.49019,0.00809
2274.43002,0.00784
2272.36984,0.00765
2270.30967,0.00773
2268.24950,0.00790
2266.18933,0.00778
2264.12916,0.00754
2262.06898,0.00754
2260.00881,0.00752
2257.94864,0.00723
2255.88847,0.00708
2253.82830,0.00728
2251.76812,0.00760
2249.70795,0.00746
2247.64778,0.00643
2245.58761,0.00560
2243.52744,0.00621
2241.46726,0.00735
2239.40709,0.00750
2237.34692,0.00707
2235.28675,0.00708
2233.22657,0.00725
2231.16640,0.00707
2229.10623,0.00701
2227.04606,0.00700
2224.98589,0.00660
2222.92571,0.00594
2220.86554,0.00525
2218.80537,0.00500
2216.74520,0.00559
2214.68503,0.00639
2212.62485,0.00646
2210.56468,0.00623
2208.50451,0.00644
2206.44434,0.00664
2204.38417,0.00654
2202.32399,0.00702
2200.26382,0.00780
2198.20365,0.00742
2196.14348,0.00594
2194.08330,0.00451
2192.02313,0.00433
2189.96296,0.00528
2187.90279,0.00610
2185.84262,0.00594
2183.78244,0.00527
2181.72227,0.00515
2179.66210,0.00523
2177.60193,0.00472
2175.54176,0.00419
2173.48158,0.00439
2171.42141,0.00487
2169.36124,0.00515
2167.30107,0.00549
2165.24089,0.00508
2163.18072,0.00300
2161.12055,0.00153
2159.06038,0.00299
2157.00021,0.00531
2154.94003,0.00567
2152.87986,0.00445
2150.81969,0.00339
2148.75952,0.00278
2146.69935,0.00277
2144.63917,0.00358
2142.57900,0.00416
2140.51883,0.00412
2138.45866,0.00402
2136.39849,0.00383
2134.33831,0.00379
2132.27814,0.00435
2130.21797,0.00496
2128.15780,0.00509
2126.09762,0.00500
2124.03745,0.00506
2121.97728,0.00535
2119.91711,0.00562
2117.85694,0.00576
2115.79676,0.00588
2113.73659,0.00603
2111.67642,0.00626
2109.61625,0.00666
2107.55608,0.00693
2105.49590,0.00661
2103.43573,0.00603
2101.37556,0.00563
2099.31539,0.00537
2097.25521,0.00526
2095.19504,0.00534
2093.13487,0.00558
2091.07470,0.00593
2089.01453,0.00612
2086.95435,0.00588
2084.89418,0.00563
2082.83401,0.00556
2080.77384,0.00547
2078.71367,0.00529
2076.65349,0.00513
2074.59332,0.00507
2072.53315,0.00493
2070.47298,0.00454
2068.41281,0.00411
2066.35263,0.00406
2064.29246,0.00462
2062.23229,0.00526
2060.17212,0.00559
2058.11194,0.00587
2056.05177,0.00586
2053.99160,0.00523
2051.93143,0.00433
2049.87126,0.00346
2047.81108,0.00303
2045.75091,0.00307
2043.69074,0.00325
2041.63057,0.00371
2039.57040,0.00418
2037.51022,0.00383
2035.45005,0.00273
2033.38988,0.00239
2031.32971,0.00339
2029.26954,0.00443
2027.20936,0.00438
2025.14919,0.00304
2023.08902,0.00167
2021.02885,0.00156
2018.96867,0.00196
2016.90850,0.00223
2014.84833,0.00231
2012.78816,0.00199
2010.72799,0.00140
2008.66781,0.00064
2006.60764,0.00007
2004.54747,0.00000
2002.48730,0.00032
2000.42713,0.00130
1998.36695,0.00261
1996.30678,0.00331
1994.24661,0.00303
1992.18644,0.00238
1990.12626,0.00175
1988.06609,0.00111
1986.00592,0.00140
1983.94575,0.00282
1981.88558,0.00381
1979.82540,0.00354
1977.76523,0.00236
1975.70506,0.00114
1973.64489,0.00138
1971.58472,0.00266
1969.52454,0.00258
1967.46437,0.00119
1965.40420,0.00080
1963.34403,0.00163
1961.28386,0.00202
1959.22368,0.00156
1957.16351,0.00136
1955.10334,0.00180
1953.04317,0.00207
1950.98299,0.00223
1948.92282,0.00270
1946.86265,0.00276
1944.80248,0.00237
1942.74231,0.00231
1940.68213,0.00230
1938.62196,0.00200
1936.56179,0.00210
1934.50162,0.00261
1932.44145,0.00275
1930.38127,0.00234
1928.32110,0.00207
1926.26093,0.00238
1924.20076,0.00289
1922.14059,0.00298
1920.08041,0.00262
1918.02024,0.00225
1915.96007,0.00212
1913.89990,0.00197
1911.83972,0.00188
1909.77955,0.00217
1907.71938,0.00262
1905.65921,0.00269
1903.59904,0.00240
1901.53886,0.00208
1899.47869,0.00181
1897.41852,0.00170
1895.35835,0.00189
1893.29818,0.00220
1891.23800,0.00230
1889.17783,0.00214
1887.11766,0.00206
1885.05749,0.00219
1882.99731,0.00228
1880.93714,0.00219
1878.87697,0.00217
1876.81680,0.00216
1874.75663,0.00206
1872.69645,0.00207
1870.63628,0.00215
1868.57611,0.00201
1866.51594,0.00182
1864.45577,0.00182
1862.39559,0.00184
1860.33542,0.00185
1858.27525,0.00190
1856.21508,0.00189
1854.15491,0.00167
1852.09473,0.00133
1850.03456,0.00110
1847.97439,0.00097
1845.91422,0.00084
1843.85404,0.00074
1841.79387,0.00070
1839.73370,0.00068
1837.67353,0.00059
1835.61336,0.00041
1833.55318,0.00018
1831.49301,0.00000
1829.43284,-0.00004
1827.37267,0.00012
1825.31250,0.00046
1823.25232,0.00077
1821.19215,0.00082
1819.13198,0.00063
1817.07181,0.00038
1815.01163,0.00022
1812.95146,0.00021
1810.89129,0.00025
1808.83112,0.00020
1806.77095,0.00006
1804.71077,0.00004
1802.65060,0.00021
1800.59043,0.00032
1798.53026,0.00014
1796.47009,-0.00005
1794.40991,-0.00011
1792.34974,-0.00004
1790.28957,0.00010
1788.22940,0.00012
1786.16923,-0.00002
1784.10905,-0.00011
1782.04888,0.00000
1779.98871,0.00009
1777.92854,0.00015
1775.86836,0.00018
1773.80819,0.00020
1771.74802,0.00035
1769.68785,0.00068
1767.62768,0.00113
1765.56750,0.00160
1763.50733,0.00208
1761.44716,0.00269
1759.38699,0.00353
1757.32682,0.00459
1755.26664,0.00559
1753.20647,0.00632
1751.14630,0.00724
1749.08613,0.00903
1747.02596,0.01166
1744.96578,0.01472
1742.90561,0.01802
1740.84544,0.02164
1738.78527,0.02558
1736.72509,0.02930
1734.66492,0.03262
1732.60475,0.03529
1730.54458,0.03671
1728.48441,0.03720
1726.42423,0.03711
1724.36406,0.03673
1722.30389,0.03638
1720.24372,0.03605
1718.18355,0.03533
1716.12337,0.03441
1714.06320,0.03402
1712.00303,0.03389
1709.94286,0.03360
1707.88268,0.03325
1705.82251,0.03281
1703.76234,0.03218
1701.70217,0.03140
1699.64200,0.03033
1697.58182,0.02934
1695.52165,0.02886
1693.46148,0.02885
1691.40131,0.02896
1689.34114,0.02896
1687.28096,0.02893
1685.22079,0.02883
1683.16062,0.02870
1681.10045,0.02882
1679.04028,0.02916
1676.98010,0.02948
1674.91993,0.02976
1672.85976,0.03017
1670.79959,0.03090
1668.73941,0.03197
1666.67924,0.03311
1664.61907,0.03421
1662.55890,0.03554
1660.49873,0.03715
1658.43855,0.03866
1656.37838,0.03971
1654.31821,0.04031
1652.25804,0.04089
1650.19787,0.04153
1648.13769,0.04197
1646.07752,0.04243
1644.01735,0.04312
1641.95718,0.04376
1639.89701,0.04423
1637.83683,0.04456
1635.77666,0.04483
1633.71649,0.04534
1631.65632,0.04601
1629.59614,0.04662
1627.53597,0.04722
1625.47580,0.04781
1623.41563,0.04819
1621.35546,0.04857
1619.29528,0.04921
1617.23511,0.04998
1615.17494,0.05069
1613.11477,0.05125
1611.05460,0.05168
1608.99442,0.05200
1606.93425,0.05230
1604.87408,0.05254
1602.81391,0.05247
1600.75373,0.05196
1598.69356,0.05117
1596.63339,0.05011
1594.57322,0.04875
1592.51305,0.04718
1590.45287,0.04550
1588.39270,0.04369
1586.33253,0.04184
1584.27236,0.04013
1582.21219,0.03861
1580.15201,0.03727
1578.09184,0.03584
1576.03167,0.03401
1573.97150,0.03233
1571.91133,0.03117
1569.85115,0.02993
1567.79098,0.02863
1565.73081,0.02772
1563.67064,0.02715
1561.61046,0.02666
1559.55029,0.02585
1557.49012,0.02492
1555.42995,0.02479
1553.36978,0.02526
1551.30960,0.02584
1549.24943,0.02625
1547.18926,0.02643
1545.12909,0.02651
1543.06892,0.02652
1541.00874,0.02616
1538.94857,0.02557
1536.88840,0.02531
1534.82823,0.02501
1532.76805,0.02435
1530.70788,0.02367
1528.64771,0.02300
1526.58754,0.02214
1524.52737,0.02129
1522.46719,0.02072
1520.40702,0.02067
1518.34685,0.02112
1516.28668,0.02157
1514.22651,0.02169
1512.16633,0.02157
1510.10616,0.02117
1508.04599,0.01973
1505.98582,0.01735
1503.92565,0.01597
1501.86547,0.01541
1499.80530,0.01456
1497.74513,0.01307
1495.68496,0.01140
1493.62478,0.01010
1491.56461,0.00894
1489.50444,0.00759
1487.44427,0.00643
1485.38410,0.00580
1483.32392,0.00564
1481.26375,0.00586
1479.20358,0.00643
1477.14341,0.00744
1475.08324,0.00921
1473.02306,0.01191
1470.96289,0.01484
1468.90272,0.01722
1466.84255,0.01940
1464.78238,0.02168
1462.72220,0.02345
1460.66203,0.02436
1458.60186,0.02510
1456.54169,0.02657
1454.48151,0.02832
1452.42134,0.02960
1450.36117,0.03053
1448.30100,0.03145
1446.24083,0.03236
1444.18065,0.03302
1442.12048,0.03329
1440.06031,0.03319
1438.00014,0.03251
1435.93997,0.03119
1433.87979,0.02990
1431.81962,0.02891
1429.75945,0.02797
1427.69928,0.02717
1425.63910,0.02666
1423.57893,0.02638
1421.51876,0.02623
1419.45859,0.02597
1417.39842,0.02566
1415.33824,0.02546
1413.27807,0.02521
1411.21790,0.02479
1409.15773,0.02437
1407.09756,0.02412
1405.03738,0.02395
1402.97721,0.02380
1400.91704,0.02371
1398.85687,0.02369
1396.79670,0.02377
1394.73652,0.02396
1392.67635,0.02436
1390.61618,0.02494
1388.55601,0.02560
1386.49583,0.02631
1384.43566,0.02719
1382.37549,0.02829
1380.31532,0.02948
1378.25515,0.03056
1376.19497,0.03147
1374.13480,0.03231
1372.07463,0.03310
1370.01446,0.03371
1367.95429,0.03406
1365.89411,0.03421
1363.83394,0.03419
1361.77377,0.03406
1359.71360,0.03398
1357.65343,0.03402
1355.59325,0.03408
1353.53308,0.03418
1351.47291,0.03436
1349.41274,0.03465
1347.35256,0.03501
1345.29239,0.03543
1343.23222,0.03589
1341.17205,0.03634
1339.11188,0.03677
1337.05170,0.03727
1334.99153,0.03783
1332.93136,0.03840
1330.87119,0.03902
1328.81102,0.03970
1326.75084,0.04047
1324.69067,0.04124
1322.63050,0.04189
1320.57033,0.04248
1318.51015,0.04306
1316.44998,0.04342
1314.38981,0.04329
1312.32964,0.04272
1310.26947,0.04194
1308.20929,0.04087
1306.14912,0.03938
1304.08895,0.03765
1302.02878,0.03588
1299.96861,0.03410
1297.90843,0.03226
1295.84826,0.03040
1293.78809,0.02869
1291.72792,0.02734
1289.66775,0.02628
1287.60757,0.02541
1285.54740,0.02477
1283.48723,0.02440
1281.42706,0.02417
1279.36688,0.02405
1277.30671,0.02419
1275.24654,0.02458
1273.18637,0.02515
1271.12620,0.02578
1269.06602,0.02646
1267.00585,0.02718
1264.94568,0.02793
1262.88551,0.02873
1260.82534,0.02953
1258.76516,0.03023
1256.70499,0.03081
1254.64482,0.03138
1252.58465,0.03200
1250.52447,0.03272
1248.46430,0.03351
1246.40413,0.03429
1244.34396,0.03507
1242.28379,0.03589
1240.22361,0.03666
1238.16344,0.03735
1236.10327,0.03813
1234.04310,0.03902
1231.98293,0.03985
1229.92275,0.04055
1227.86258,0.04117
1225.80241,0.04181
1223.74224,0.04242
1221.68207,0.04300
1219.62189,0.04365
1217.56172,0.04428
1215.50155,0.04473
1213.44138,0.04501
1211.38120,0.04530
1209.32103,0.04573
1207.26086,0.04637
1205.20069,0.04709
1203.14052,0.04762
1201.08034,0.04806
1199.02017,0.04850
1196.96000,0.04873
1194.89983,0.04862
1192.83966,0.04830
1190.77948,0.04779
1188.71931,0.04701
1186.65914,0.04614
1184.59897,0.04543
1182.53880,0.04488
1180.47862,0.04451
1178.41845,0.04435
1176.35828,0.04437
1174.29811,0.04457
1172.23793,0.04490
1170.17776,0.04527
1168.11759,0.04563
1166.05742,0.04599
1163.99725,0.04614
1161.93707,0.04582
1159.87690,0.04513
1157.81673,0.04429
1155.75656,0.04346
1153.69639,0.04264
1151.63621,0.04166
1149.57604,0.04056
1147.51587,0.03953
1145.45570,0.03858
1143.39552,0.03755
1141.33535,0.03641
1139.27518,0.03538
1137.21501,0.03454
1135.15484,0.03388
1133.09466,0.03354
1131.03449,0.03357
1128.97432,0.03397
1126.91415,0.03480
1124.85398,0.03600
1122.79380,0.03748
1120.73363,0.03925
1118.67346,0.04127
1116.61329,0.04366
1114.55312,0.04638
1112.49294,0.04921
1110.43277,0.05202
1108.37260,0.05472
1106.31243,0.05731
1104.25225,0.05977
1102.19208,0.06181
1100.13191,0.06339
1098.07174,0.06479
1096.01157,0.06599
1093.95139,0.06709
1091.89122,0.06852
1089.83105,0.07035
1087.77088,0.07237
1085.71071,0.07443
1083.65053,0.07645
1081.59036,0.07854
1079.53019,0.08079
1077.47002,0.08305
1075.40985,0.08506
1073.34967,0.08668
1071.28950,0.08805
1069.22933,0.08928
1067.16916,0.09044
1065.10898,0.09180
1063.04881,0.09335
1060.98864,0.09468
1058.92847,0.09565
1056.86830,0.09665
1054.80812,0.09807
1052.74795,0.09974
1050.68778,0.10123
1048.62761,0.10264
1046.56744,0.10429
1044.50726,0.10613
1042.44709,0.10794
1040.38692,0.10977
1038.32675,0.11178
1036.26657,0.11398
1034.20640,0.11616
1032.14623,0.11823
1030.08606,0.12006
1028.02589,0.12127
1025.96571,0.12180
1023.90554,0.12200
1021.84537,0.12206
1019.78520,0.12201
1017.72503,0.12167
1015.66485,0.12080
1013.60468,0.11951
1011.54451,0.11798
1009.48434,0.11621
1007.42417,0.11404
1005.36399,0.11141
1003.30382,0.10857
1001.24365,0.10545
999.18348,0.10207
997.12330,0.09900
995.06313,0.09635
993.00296,0.09367
990.94279,0.09081
988.88262,0.08781
986.82244,0.08472
984.76227,0.08150
982.70210,0.07798
980.64193,0.07432
978.58176,0.07095
976.52158,0.06794
974.46141,0.06511
972.40124,0.06249
970.34107,0.06022
968.28089,0.05839
966.22072,0.05678
964.16055,0.05498
962.10038,0.05280
960.04021,0.05057
957.98003,0.04856
955.91986,0.04630
953.85969,0.04365
951.79952,0.04106
949.73935,0.03866
947.67917,0.03632
945.61900,0.03399
943.55883,0.03179
941.49866,0.02993
939.43849,0.02839
937.37831,0.02695
935.31814,0.02565
933.25797,0.02472
931.19780,0.02410
929.13762,0.02357
927.07745,0.02308
925.01728,0.02251
922.95711,0.02165
920.89694,0.02045
918.83676,0.01904
916.77659,0.01750
914.71642,0.01602
912.65625,0.01478
910.59608,0.01374
908.53590,0.01279
906.47573,0.01195
904.41556,0.01133
902.35539,0.01079
900.29522,0.01029
898.23504,0.01013
896.17487,0.01015
894.11470,0.01000
892.05453,0.00972
889.99435,0.00945
887.93418,0.00908
885.87401,0.00859
883.81384,0.00812
881.75367,0.00800
879.69349,0.00823
877.63332,0.00836
875.57315,0.00854
873.51298,0.00913
871.45281,0.00944
869.39263,0.00919
867.33246,0.00884
865.27229,0.00825
863.21212,0.00701
861.15194,0.00537
859.09177,0.00390
857.03160,0.00267
854.97143,0.00170
852.91126,0.00103
850.85108,0.00055
848.79091,0.00023
846.73074,0.00000
844.67057,-0.00005
842.61040,0.00043
840.55022,0.00095
838.49005,0.00128
836.42988,0.00182
834.36971,0.00250
832.30954,0.00282
830.24936,0.00274
828.18919,0.00265
826.12902,0.00286
824.06885,0.00323
822.00867,0.00349
819.94850,0.00376
817.88833,0.00402
815.82816,0.00399
813.76799,0.00388
811.70781,0.00406
809.64764,0.00402
807.58747,0.00322
805.52730,0.00227
803.46713,0.00178
801.40695,0.00122
799.34678,0.00064
797.28661,0.00039
795.22644,0.00000
793.16627,-0.00055
791.10609,-0.00022
789.04592,0.00044
786.98575,0.00097
784.92558,0.00138
782.86540,0.00161
780.80523,0.00162
778.74506,0.00145
776.68489,0.00119
774.62472,0.00105
772.56454,0.00153
770.50437,0.00282
768.44420,0.00416
766.38403,0.00534
764.32386,0.00700
762.26368,0.00904
760.20351,0.01064
758.14334,0.01170
756.08317,0.01238
754.02299,0.01219
751.96282,0.01125
749.90265,0.01023
747.84248,0.00910
745.78231,0.00740
743.72213,0.00544
741.66196,0.00438
739.60179,0.00447
737.54162,0.00447
735.48145,0.00387
733.42127,0.00369
731.36110,0.00450
729.30093,0.00528
727.24076,0.00497
725.18059,0.00419
723.12041,0.00403
721.06024,0.00496
719.00007,0.00572
716.93990,0.00536
714.87972,0.00423
712.81955,0.00340
710.75938,0.00336
708.69921,0.00355
706.63904,0.00335
704.57886,0.00302
702.51869,0.00308
700.45852,0.00335
698.39835,0.00326
696.33818,0.00266
694.27800,0.00207
692.21783,0.00193
690.15766,0.00196
688.09749,0.00184
686.03731,0.00157
683.97714,0.00122
681.91697,0.00080
679.85680,0.00046
677.79663,0.00052
675.73645,0.00090
673.67628,0.00104
671.61611,0.00092
669.55594,0.00276
667.49577,0.00498
665.43559,0.00316
663.37542,0.00384
661.31525,0.00460
659.25508,0.00410
657.19491,0.00267
655.13473,0.00127
653.07456,0.00054
651.01439,0.00020
648.95422,0.00000
646.89404,-0.00001
644.83387,0.00110
642.77370,0.00214
640.71353,0.00174
638.65336,0.00029
636.59318,-0.00088
634.53301,-0.00095
632.47284,0.00003
630.41267,0.00098
628.35250,0.00108
626.29232,0.00044
624.23215,-0.00102
622.17198,-0.00219
620.11181,-0.00163
618.05164,-0.00014
615.99146,0.00113
613.93129,0.00225
611.87112,0.00312
609.81095,0.00243
607.75077,0.00132
605.69060,0.00213
603.63043,0.00369
601.57026,0.00292
599.51009,0.00000
