3996.73391,0.00012
3994.67373,0.00024
3992.61356,0.00038
3990.55339,0.00035
3988.49322,0.00011
3986.43305,0.00000
3984.37287,0.00013
3982.31270,0.00023
3980.25253,0.00024
3978.19236,0.00028
3976.13219,0.00044
3974.07201,0.00061
3972.01184,0.00060
3969.95167,0.00045
3967.89150,0.00033
3965.83133,0.00023
3963.77115,0.00024
3961.71098,0.00046
3959.65081,0.00076
3957.59064,0.00099
3955.53046,0.00114
3953.47029,0.00113
3951.41012,0.00089
3949.34995,0.00059
3947.28978,0.00047
3945.22960,0.00042
3943.16943,0.00030
3941.10926,0.00040
3939.04909,0.00069
3936.98892,0.00084
3934.92874,0.00084
3932.86857,0.00080
3930.80840,0.00069
3928.74823,0.00058
3926.68805,0.00070
3924.62788,0.00100
3922.56771,0.00117
3920.50754,0.00111
3918.44737,0.00089
3916.38719,0.00071
3914.32702,0.00075
3912.26685,0.00085
3910.20668,0.00092
3908.14651,0.00109
3906.08633,0.00115
3904.02616,0.00084
3901.96599,0.00069
3899.90582,0.00086
3897.84565,0.00070
3895.78547,0.00034
3893.72530,0.00029
3891.66513,0.00040
3889.60496,0.00030
3887.54478,0.00010
3885.48461,0.00004
3883.42444,0.00007
3881.36427,0.00009
3879.30410,0.00021
3877.24392,0.00050
3875.18375,0.00086
3873.12358,0.00102
3871.06341,0.00085
3869.00324,0.00052
3866.94306,0.00032
3864.88289,0.00044
3862.82272,0.00065
3860.76255,0.00065
3858.70237,0.00066
3856.64220,0.00081
3854.58203,0.00097
3852.52186,0.00101
3850.46169,0.00105
3848.40151,0.00100
3846.34134,0.00081
3844.28117,0.00059
3842.22100,0.00045
3840.16083,0.00040
3838.10065,0.00052
3836.04048,0.00079
3833.98031,0.00088
3831.92014,0.00059
3829.85997,0.00027
3827.79979,0.00024
3825.73962,0.00046
3823.67945,0.00072
3821.61928,0.00100
3819.55910,0.00133
3817.49893,0.00140
3815.43876,0.00101
3813.37859,0.00061
3811.31842,0.00039
3809.25824,0.00017
3807.19807,0.00003
3805.13790,0.00021
3803.07773,0.00056
3801.01756,0.00076
3798.95738,0.00056
3796.89721,0.00035
3794.83704,0.00054
3792.77687,0.00083
3790.71670,0.00075
3788.65652,0.00046
3786.59635,0.00036
3784.53618,0.00059
3782.47601,0.00092
3780.41583,0.00114
3778.35566,0.00111
3776.29549,0.00082
3774.23532,0.00052
3772.17515,0.00058
3770.11497,0.00094
3768.05480,0.00107
3765.99463,0.00091
3763.93446,0.00084
3761.87429,0.00099
3759.81411,0.00116
3757.75394,0.00093
3755.69377,0.00047
3753.63360,0.00059
3751.57342,0.00116
3749.51325,0.00122
3747.45308,0.00093
3745.39291,0.00060
3743.33274,0.00016
3741.27256,0.00000
3739.21239,0.00037
3737.15222,0.00096
3735.09205,0.00100
3733.03188,0.00051
3730.97170,0.00013
3728.91153,0.00000
3726.85136,0.00000
3724.79119,0.00013
3722.73102,0.00034
3720.67084,0.00047
3718.61067,0.00048
3716.55050,0.00030
3714.49033,0.00024
3712.43015,0.00064
3710.36998,0.00105
3708.30981,0.00107
3706.24964,0.00093
3704.18947,0.00088
3702.12929,0.00089
3700.06912,0.00080
3698.00895,0.00061
3695.94878,0.00056
3693.88861,0.00098
3691.82843,0.00185
3689.76826,0.00257
3687.70809,0.00234
3685.64792,0.00168
3683.58775,0.00117
3681.52757,0.00088
3679.46740,0.00077
3677.40723,0.00088
3675.34706,0.00107
3673.28688,0.00123
3671.22671,0.00118
3669.16654,0.00105
3667.10637,0.00121
3665.04620,0.00144
3662.98602,0.00146
3660.92585,0.00155
3658.86568,0.00192
3656.80551,0.00230
3654.74534,0.00249
3652.68516,0.00282
3650.62499,0.00331
3648.56482,0.00352
3646.50465,0.00343
3644.44447,0.00338
3642.38430,0.00350
3640.32413,0.00363
3638.26396,0.00368
3636.20379,0.00388
3634.14361,0.00424
3632.08344,0.00454
3630.02327,0.00486
3627.96310,0.00508
3625.90293,0.00507
3623.84275,0.00508
3621.78258,0.00525
3619.72241,0.00571
3617.66224,0.00644
3615.60207,0.00690
3613.54189,0.00677
3611.48172,0.00650
3609.42155,0.00656
3607.36138,0.00712
3605.30120,0.00794
3603.24103,0.00855
3601.18086,0.00879
3599.12069,0.00897
3597.06052,0.00959
3595.00034,0.01035
3592.94017,0.01070
3590.88000,0.01086
3588.81983,0.01123
3586.75966,0.01162
3584.69948,0.01190
3582.63931,0.01209
3580.57914,0.01228
3578.51897,0.01249
3576.45879,0.01278
3574.39862,0.01333
3572.33845,0.01387
3570.27828,0.01415
3568.21811,0.01455
3566.15793,0.01530
3564.09776,0.01599
3562.03759,0.01637
3559.97742,0.01654
3557.91725,0.01664
3555.85707,0.01685
3553.79690,0.01739
3551.73673,0.01807
3549.67656,0.01867
3547.61639,0.01931
3545.55621,0.01997
3543.49604,0.02031
3541.43587,0.02042
3539.37570,0.02069
3537.31552,0.02113
3535.25535,0.02153
3533.19518,0.02197
3531.13501,0.02256
3529.07484,0.02313
3527.01466,0.02371
3524.95449,0.02456
3522.89432,0.02536
3520.83415,0.02569
3518.77398,0.02568
3516.71380,0.02567
3514.65363,0.02592
3512.59346,0.02649
3510.53329,0.02729
3508.47312,0.02812
3506.41294,0.02857
3504.35277,0.02864
3502.29260,0.02897
3500.23243,0.02982
3498.17225,0.03058
3496.11208,0.03095
3494.05191,0.03130
3491.99174,0.03183
3489.93157,0.03238
3487.87139,0.03283
3485.81122,0.03321
3483.75105,0.03354
3481.69088,0.03375
3479.63071,0.03398
3477.57053,0.03447
3475.51036,0.03506
3473.45019,0.03543
3471.39002,0.03574
3469.32984,0.03630
3467.26967,0.03696
3465.20950,0.03752
3463.14933,0.03800
3461.08916,0.03834
3459.02898,0.03857
3456.96881,0.03881
3454.90864,0.03924
3452.84847,0.03990
3450.78830,0.04065
3448.72812,0.04124
3446.66795,0.04154
3444.60778,0.04181
3442.54761,0.04227
3440.48744,0.04269
3438.42726,0.04308
3436.36709,0.04357
3434.30692,0.04397
3432.24675,0.04436
3430.18657,0.04480
3428.12640,0.04512
3426.06623,0.04550
3424.00606,0.04607
3421.94589,0.04641
3419.88571,0.04643
3417.82554,0.04666
3415.76537,0.04717
3413.70520,0.04752
3411.64503,0.04780
3409.58485,0.04831
3407.52468,0.04878
3405.46451,0.04900
3403.40434,0.04916
3401.34416,0.04941
3399.28399,0.04968
3397.22382,0.05006
3395.16365,0.05041
3393.10348,0.05068
3391.04330,0.05101
3388.98313,0.05139
3386.92296,0.05169
3384.86279,0.05195
3382.80262,0.05232
3380.74244,0.05285
3378.68227,0.05344
3376.62210,0.05381
3374.56193,0.05383
3372.50176,0.05382
3370.44158,0.05406
3368.38141,0.05441
3366.32124,0.05475
3364.26107,0.05507
3362.20089,0.05531
3360.14072,0.05551
3358.08055,0.05571
3356.02038,0.05580
3353.96021,0.05572
3351.90003,0.05580
3349.83986,0.05609
3347.77969,0.05620
3345.71952,0.05644
3343.65935,0.05695
3341.59917,0.05720
3339.53900,0.05718
3337.47883,0.05725
3335.41866,0.05738
3333.35849,0.05760
3331.29831,0.05795
3329.23814,0.05814
3327.17797,0.05805
3325.11780,0.05795
3323.05762,0.05808
3320.99745,0.05832
3318.93728,0.05853
3316.87711,0.05868
3314.81694,0.05883
3312.75676,0.05902
3310.69659,0.05919
3308.63642,0.05942
3306.57625,0.05961
3304.51608,0.05949
3302.45590,0.05930
3300.39573,0.05926
3298.33556,0.05931
3296.27539,0.05955
3294.21521,0.05988
3292.15504,0.06011
3290.09487,0.06019
3288.03470,0.06024
3285.97453,0.06038
3283.91435,0.06043
3281.85418,0.06031
3279.79401,0.06020
3277.73384,0.06017
3275.67367,0.06017
3273.61349,0.06013
3271.55332,0.05994
3269.49315,0.05964
3267.43298,0.05941
3265.37281,0.05930
3263.31263,0.05922
3261.25246,0.05916
3259.19229,0.05901
3257.13212,0.05868
3255.07194,0.05822
3253.01177,0.05784
3250.95160,0.05767
3248.89143,0.05773
3246.83126,0.05788
3244.77108,0.05785
3242.71091,0.05758
3240.65074,0.05727
3238.59057,0.05713
3236.53040,0.05713
3234.47022,0.05702
3232.41005,0.05687
3230.34988,0.05683
3228.28971,0.05677
3226.22954,0.05664
3224.16936,0.05651
3222.10919,0.05633
3220.04902,0.05609
3217.98885,0.05583
3215.92867,0.05551
3213.86850,0.05508
3211.80833,0.05478
3209.74816,0.05474
3207.68799,0.05474
3205.62781,0.05468
3203.56764,0.05463
3201.50747,0.05446
3199.44730,0.05413
3197.38713,0.05387
3195.32695,0.05368
3193.26678,0.05335
3191.20661,0.05305
3189.14644,0.05286
3187.08626,0.05268
3185.02609,0.05257
3182.96592,0.05243
3180.90575,0.05216
3178.84558,0.05186
3176.78540,0.05165
3174.72523,0.05160
3172.66506,0.05161
3170.60489,0.05138
3168.54472,0.05100
3166.48454,0.05069
3164.42437,0.05030
3162.36420,0.04977
3160.30403,0.04937
3158.24386,0.04917
3156.18368,0.04896
3154.12351,0.04866
3152.06334,0.04836
3150.00317,0.04812
3147.94299,0.04794
3145.88282,0.04775
3143.82265,0.04749
3141.76248,0.04718
3139.70231,0.04688
3137.64213,0.04651
3135.58196,0.04614
3133.52179,0.04590
3131.46162,0.04578
3129.40145,0.04569
3127.34127,0.04551
3125.28110,0.04529
3123.22093,0.04508
3121.16076,0.04490
3119.10058,0.04465
3117.04041,0.04431
3114.98024,0.04399
3112.92007,0.04373
3110.85990,0.04349
3108.79972,0.04314
3106.73955,0.04257
3104.67938,0.04209
3102.61921,0.04199
3100.55904,0.04198
3098.49886,0.04183
3096.43869,0.04173
3094.37852,0.04167
3092.31835,0.04147
3090.25818,0.04115
3088.19800,0.04092
3086.13783,0.04094
3084.07766,0.04099
3082.01749,0.04082
3079.95731,0.04043
3077.89714,0.03995
3075.83697,0.03955
3073.77680,0.03925
3071.71663,0.03893
3069.65645,0.03878
3067.59628,0.03889
3065.53611,0.03888
3063.47594,0.03862
3061.41577,0.03842
3059.35559,0.03826
3057.29542,0.03788
3055.23525,0.03743
3053.17508,0.03718
3051.11491,0.03694
3049.05473,0.03650
3046.99456,0.03616
3044.93439,0.03602
3042.87422,0.03574
3040.81404,0.03527
3038.75387,0.03488
3036.69370,0.03475
3034.63353,0.03475
3032.57336,0.03459
3030.51318,0.03420
3028.45301,0.03373
3026.39284,0.03335
3024.33267,0.03311
3022.27250,0.03294
3020.21232,0.03291
3018.15215,0.03297
3016.09198,0.03294
3014.03181,0.03269
3011.97163,0.03237
3009.91146,0.03221
3007.85129,0.03210
3005.79112,0.03188
3003.73095,0.03163
3001.67077,0.03138
2999.61060,0.03112
2997.55043,0.03101
2995.49026,0.03107
2993.43009,0.03114
2991.36991,0.03105
2989.30974,0.03094
2987.24957,0.03105
2985.18940,0.03135
2983.12923,0.03181
2981.06905,0.03230
2979.00888,0.03272
2976.94871,0.03328
2974.88854,0.03398
2972.82836,0.03463
2970.76819,0.03526
2968.70802,0.03601
2966.64785,0.03701
2964.58768,0.03823
2962.52750,0.03939
2960.46733,0.04040
2958.40716,0.04151
2956.34699,0.04283
2954.28682,0.04428
2952.22664,0.04555
2950.16647,0.04653
2948.10630,0.04776
2946.04613,0.04956
2943.98596,0.05158
2941.92578,0.05359
2939.86561,0.05581
2937.80544,0.05839
2935.74527,0.06126
2933.68509,0.06414
2931.62492,0.06683
2929.56475,0.06932
2927.50458,0.07180
2925.44441,0.07427
2923.38423,0.07634
2921.32406,0.07802
2919.26389,0.07933
2917.20372,0.07942
2915.14355,0.07727
2913.08337,0.07314
2911.02320,0.06870
2908.96303,0.06516
2906.90286,0.06242
2904.84268,0.06010
2902.78251,0.05810
2900.72234,0.05649
2898.66217,0.05517
2896.60200,0.05390
2894.54182,0.05257
2892.48165,0.05127
2890.42148,0.05015
2888.36131,0.04919
2886.30114,0.04830
2884.24096,0.04724
2882.18079,0.04608
2880.12062,0.04535
2878.06045,0.04521
2876.00028,0.04526
2873.94010,0.04528
2871.87993,0.04540
2869.81976,0.04581
2867.75959,0.04643
2865.69941,0.04720
2863.63924,0.04834
2861.57907,0.04995
2859.51890,0.05201
2857.45873,0.05450
2855.39855,0.05732
2853.33838,0.06028
2851.27821,0.06257
2849.21804,0.06255
2847.15787,0.05920
2845.09769,0.05389
2843.03752,0.04886
2840.97735,0.04511
2838.91718,0.04241
2836.85700,0.04014
2834.79683,0.03818
2832.73666,0.03671
2830.67649,0.03565
2828.61632,0.03479
2826.55614,0.03403
2824.49597,0.03342
2822.43580,0.03297
2820.37563,0.03252
2818.31546,0.03192
2816.25528,0.03136
2814.19511,0.03094
2812.13494,0.03061
2810.07477,0.03028
2808.01460,0.02985
2805.95442,0.02933
2803.89425,0.02895
2801.83408,0.02878
2799.77391,0.02862
2797.71373,0.02841
2795.65356,0.02829
2793.59339,0.02821
2791.53322,0.02810
2789.47305,0.02797
2787.41287,0.02770
2785.35270,0.02730
2783.29253,0.02703
2781.23236,0.02684
2779.17219,0.02668
2777.11201,0.02662
2775.05184,0.02651
2772.99167,0.02622
2770.93150,0.02589
2768.87133,0.02576
2766.81115,0.02576
2764.75098,0.02566
2762.69081,0.02544
2760.63064,0.02523
2758.57046,0.02505
2756.51029,0.02493
2754.45012,0.02487
2752.38995,0.02484
2750.32978,0.02486
2748.26960,0.02479
2746.20943,0.02463
2744.14926,0.02451
2742.08909,0.02442
2740.02892,0.02440
2737.96874,0.02448
2735.90857,0.02446
2733.84840,0.02429
2731.78823,0.02414
2729.72805,0.02409
2727.66788,0.02423
2725.60771,0.02433
2723.54754,0.02418
2721.48737,0.02400
2719.42719,0.02392
2717.36702,0.02373
2715.30685,0.02351
2713.24668,0.02344
2711.18651,0.02342
2709.12633,0.02338
2707.06616,0.02337
2705.00599,0.02329
2702.94582,0.02313
2700.88565,0.02298
2698.82547,0.02280
2696.76530,0.02262
2694.70513,0.02262
2692.64496,0.02273
2690.58478,0.02281
2688.52461,0.02280
2686.46444,0.02261
2684.40427,0.02239
2682.34410,0.02234
2680.28392,0.02227
2678.22375,0.02201
2676.16358,0.02186
2674.10341,0.02179
2672.04324,0.02167
2669.98306,0.02162
2667.92289,0.02167
2665.86272,0.02160
2663.80255,0.02142
2661.74238,0.02136
2659.68220,0.02138
2657.62203,0.02123
2655.56186,0.02090
2653.50169,0.02058
2651.44151,0.02043
2649.38134,0.02037
2647.32117,0.02023
2645.26100,0.02009
2643.20083,0.02011
2641.14065,0.02021
2639.08048,0.02007
2637.02031,0.01973
2634.96014,0.01965
2632.89997,0.01972
2630.83979,0.01957
2628.77962,0.01936
2626.71945,0.01928
2624.65928,0.01908
2622.59910,0.01869
2620.53893,0.01844
2618.47876,0.01843
2616.41859,0.01840
2614.35842,0.01830
2612.29824,0.01816
2610.23807,0.01805
2608.17790,0.01797
2606.11773,0.01780
2604.05756,0.01751
2601.99738,0.01737
2599.93721,0.01741
2597.87704,0.01731
2595.81687,0.01701
2593.75670,0.01690
2591.69652,0.01708
2589.63635,0.01728
2587.57618,0.01715
2585.51601,0.01694
2583.45583,0.01702
2581.39566,0.01711
2579.33549,0.01710
2577.27532,0.01708
2575.21515,0.01704
2573.15497,0.01703
2571.09480,0.01711
2569.03463,0.01699
2566.97446,0.01646
2564.91429,0.01590
2562.85411,0.01584
2560.79394,0.01616
2558.73377,0.01634
2556.67360,0.01618
2554.61342,0.01590
2552.55325,0.01563
2550.49308,0.01537
2548.43291,0.01538
2546.37274,0.01547
2544.31256,0.01520
2542.25239,0.01492
2540.19222,0.01506
2538.13205,0.01523
2536.07188,0.01510
2534.01170,0.01481
2531.95153,0.01464
2529.89136,0.01457
2527.83119,0.01448
2525.77102,0.01454
2523.71084,0.01453
2521.65067,0.01426
2519.59050,0.01415
2517.53033,0.01418
2515.47015,0.01415
2513.40998,0.01414
2511.34981,0.01412
2509.28964,0.01394
2507.22947,0.01369
2505.16929,0.01346
2503.10912,0.01322
2501.04895,0.01316
2498.98878,0.01323
2496.92861,0.01309
2494.86843,0.01299
2492.80826,0.01325
2490.74809,0.01343
2488.68792,0.01312
2486.62775,0.01280
2484.56757,0.01276
2482.50740,0.01260
2480.44723,0.01237
2478.38706,0.01245
2476.32688,0.01263
2474.26671,0.01274
2472.20654,0.01283
2470.14637,0.01279
2468.08620,0.01261
2466.02602,0.01234
2463.96585,0.01215
2461.90568,0.01211
2459.84551,0.01210
2457.78534,0.01202
2455.72516,0.01189
2453.66499,0.01185
2451.60482,0.01193
2449.54465,0.01201
2447.48447,0.01206
2445.42430,0.01199
2443.36413,0.01180
2441.30396,0.01176
2439.24379,0.01171
2437.18361,0.01137
2435.12344,0.01116
2433.06327,0.01139
2431.00310,0.01151
2428.94293,0.01137
2426.88275,0.01131
2424.82258,0.01120
2422.76241,0.01093
2420.70224,0.01079
2418.64207,0.01083
2416.58189,0.01089
2414.52172,0.01088
2412.46155,0.01093
2410.40138,0.01083
2408.34120,0.01041
2406.28103,0.01012
2404.22086,0.01019
2402.16069,0.01054
2400.10052,0.01090
2398.04034,0.01085
2395.98017,0.01058
2393.92000,0.01037
2391.85983,0.01026
2389.79966,0.01015
2387.73948,0.01002
2385.67931,0.00976
2383.61914,0.00942
2381.55897,0.00926
2379.49880,0.00943
2377.43862,0.00973
2375.37845,0.01012
2373.31828,0.01028
2371.25811,0.01012
2369.19793,0.00989
2367.13776,0.00912
2365.07759,0.00852
2363.01742,0.00964
2360.95725,0.01035
2358.89707,0.01133
2356.83690,0.01146
2354.77673,0.01149
2352.71656,0.01149
2350.65639,0.00922
2348.59621,0.00784
2346.53604,0.01085
2344.47587,0.01097
2342.41570,0.00950
2340.35552,0.00871
2338.29535,0.00832
2336.23518,0.00893
2334.17501,0.00994
2332.11484,0.01081
2330.05466,0.01097
2327.99449,0.01096
2325.93432,0.01046
2323.87415,0.01052
2321.81398,0.01055
2319.75380,0.01073
2317.69363,0.01011
2315.63346,0.00969
2313.57329,0.00960
2311.51312,0.00941
2309.45294,0.00920
2307.39277,0.00891
2305.33260,0.00860
2303.27243,0.00840
2301.21225,0.00844
2299.15208,0.00853
2297.09191,0.00875
2295.03174,0.00886
2292.97157,0.00857
2290.91139,0.00838
2288.85122,0.00866
2286.79105,0.00889
2284.73088,0.00865
2282.67071,0.00830
2280.61053,0.00812
2278.55036,0.00792
2276.49019,0.00748
2274.43002,0.00685
2272.36984,0.00654
2270.30967,0.00680
2268.24950,0.00742
2266.18933,0.00797
2264.12916,0.00800
2262.06898,0.00758
2260.00881,0.00731
2257.94864,0.00715
2255.88847,0.00680
2253.82830,0.00659
2251.76812,0.00668
2249.70795,0.00668
2247.64778,0.00674
2245.58761,0.00684
2243.52744,0.00640
2241.46726,0.00607
2239.40709,0.00646
2237.34692,0.00687
2235.28675,0.00695
2233.22657,0.00713
2231.16640,0.00750
2229.10623,0.00750
2227.04606,0.00690
2224.98589,0.00629
2222.92571,0.00616
2220.86554,0.00655
2218.80537,0.00667
2216.74520,0.00595
2214.68503,0.00539
2212.62485,0.00600
2210.56468,0.00706
2208.50451,0.00721
2206.44434,0.00651
2204.38417,0.00608
2202.32399,0.00572
2200.26382,0.00480
2198.20365,0.00440
2196.14348,0.00520
2194.08330,0.00621
2192.02313,0.00642
2189.96296,0.00613
2187.90279,0.00589
2185.84262,0.00583
2183.78244,0.00617
2181.72227,0.00618
2179.66210,0.00550
2177.60193,0.00466
2175.54176,0.00370
2173.48158,0.00333
2171.42141,0.00414
2169.36124,0.00566
2167.30107,0.00666
2165.24089,0.00554
2163.18072,0.00313
2161.12055,0.00225
2159.06038,0.00302
2157.00021,0.00308
2154.94003,0.00239
2152.87986,0.00221
2150.81969,0.00257
2148.75952,0.00312
2146.69935,0.00353
2144.63917,0.00341
2142.57900,0.00301
2140.51883,0.00307
2138.45866,0.00349
2136.39849,0.00330
2134.33831,0.00276
2132.27814,0.00303
2130.21797,0.00394
2128.15780,0.00449
2126.09762,0.00482
2124.03745,0.00511
2121.97728,0.00502
2119.91711,0.00490
2117.85694,0.00495
2115.79676,0.00480
2113.73659,0.00459
2111.67642,0.00468
2109.61625,0.00485
2107.55608,0.00471
2105.49590,0.00417
2103.43573,0.00396
2101.37556,0.00446
2099.31539,0.00484
2097.25521,0.00462
2095.19504,0.00434
2093.13487,0.00430
2091.07470,0.00431
2089.01453,0.00452
2086.95435,0.00498
2084.89418,0.00534
2082.83401,0.00551
2080.77384,0.00557
2078.71367,0.00538
2076.65349,0.00511
2074.59332,0.00532
2072.53315,0.00566
2070.47298,0.00532
2068.41281,0.00464
2066.35263,0.00414
2064.29246,0.00408
2062.23229,0.00432
2060.17212,0.00414
2058.11194,0.00361
2056.05177,0.00332
2053.99160,0.00368
2051.93143,0.00434
2049.87126,0.00464
2047.81108,0.00470
2045.75091,0.00473
2043.69074,0.00451
2041.63057,0.00389
2039.57040,0.00276
2037.51022,0.00127
2035.45005,0.00001
2033.38988,0.00000
2031.32971,0.00124
2029.26954,0.00229
2027.20936,0.00223
2025.14919,0.00197
2023.08902,0.00226
2021.02885,0.00225
2018.96867,0.00161
2016.90850,0.00152
2014.84833,0.00209
2012.78816,0.00207
2010.72799,0.00180
2008.66781,0.00175
2006.60764,0.00157
2004.54747,0.00169
2002.48730,0.00192
2000.42713,0.00173
1998.36695,0.00150
1996.30678,0.00133
1994.24661,0.00102
1992.18644,0.00104
1990.12626,0.00134
1988.06609,0.00131
1986.00592,0.00134
1983.94575,0.00148
1981.88558,0.00151
1979.82540,0.00153
1977.76523,0.00138
1975.70506,0.00090
1973.64489,0.00045
1971.58472,0.00072
1969.52454,0.00168
1967.46437,0.00269
1965.40420,0.00315
1963.34403,0.00297
1961.28386,0.00229
1959.22368,0.00136
1957.16351,0.00075
1955.10334,0.00076
1953.04317,0.00107
1950.98299,0.00098
1948.92282,0.00048
1946.86265,0.00043
1944.80248,0.00064
1942.74231,0.00057
1940.68213,0.00060
1938.62196,0.00090
1936.56179,0.00119
1934.50162,0.00129
1932.44145,0.00149
1930.38127,0.00199
1928.32110,0.00226
1926.26093,0.00208
1924.20076,0.00192
1922.14059,0.00190
1920.08041,0.00182
1918.02024,0.00169
1915.96007,0.00141
1913.89990,0.00123
1911.83972,0.00148
1909.77955,0.00205
1907.71938,0.00240
1905.65921,0.00221
1903.59904,0.00208
1901.53886,0.00229
1899.47869,0.00212
1897.41852,0.00155
1895.35835,0.00137
1893.29818,0.00179
1891.23800,0.00231
1889.17783,0.00238
1887.11766,0.00191
1885.05749,0.00133
1882.99731,0.00097
1880.93714,0.00080
1878.87697,0.00073
1876.81680,0.00090
1874.75663,0.00124
1872.69645,0.00150
1870.63628,0.00160
1868.57611,0.00144
1866.51594,0.00101
1864.45577,0.00072
1862.39559,0.00064
1860.33542,0.00050
1858.27525,0.00050
1856.21508,0.00088
1854.15491,0.00131
1852.09473,0.00139
1850.03456,0.00127
1847.97439,0.00115
1845.91422,0.00102
1843.85404,0.00087
1841.79387,0.00075
1839.73370,0.00054
1837.67353,0.00019
1835.61336,0.00000
1833.55318,0.00015
1831.49301,0.00048
1829.43284,0.00067
1827.37267,0.00062
1825.31250,0.00044
1823.25232,0.00027
1821.19215,0.00015
1819.13198,0.00006
1817.07181,0.00002
1815.01163,-0.00001
1812.95146,-0.00006
1810.89129,-0.00008
1808.83112,-0.00008
1806.77095,-0.00011
1804.71077,-0.00019
1802.65060,-0.00028
1800.59043,-0.00028
1798.53026,-0.00011
1796.47009,0.00005
1794.40991,-0.00001
1792.34974,-0.00025
1790.28957,-0.00038
1788.22940,-0.00024
1786.16923,-0.00002
1784.10905,0.00008
1782.04888,0.00005
1779.98871,0.00000
1777.92854,-0.00007
1775.86836,0.00010
1773.80819,0.00049
1771.74802,0.00090
1769.68785,0.00113
1767.62768,0.00132
1765.56750,0.00162
1763.50733,0.00215
1761.44716,0.00303
1759.38699,0.00402
1757.32682,0.00506
1755.26664,0.00621
1753.20647,0.00745
1751.14630,0.00918
1749.08613,0.01169
1747.02596,0.01456
1744.96578,0.01766
1742.90561,0.02145
1740.84544,0.02614
1738.78527,0.03104
1736.72509,0.03503
1734.66492,0.03853
1732.60475,0.04171
1730.54458,0.04328
1728.48441,0.04327
1726.42423,0.04264
1724.36406,0.04203
1722.30389,0.04171
1720.24372,0.04164
1718.18355,0.04144
1716.12337,0.04096
1714.06320,0.04062
1712.00303,0.04049
1709.94286,0.04025
1707.88268,0.03969
1705.82251,0.03881
1703.76234,0.03776
1701.70217,0.03661
1699.64200,0.03541
1697.58182,0.03443
1695.52165,0.03369
1693.46148,0.03324
1691.40131,0.03300
1689.34114,0.03272
1687.28096,0.03239
1685.22079,0.03224
1683.16062,0.03227
1681.10045,0.03222
1679.04028,0.03205
1676.98010,0.03197
1674.91993,0.03227
1672.85976,0.03298
1670.79959,0.03391
1668.73941,0.03480
1666.67924,0.03556
1664.61907,0.03657
1662.55890,0.03808
1660.49873,0.03977
1658.43855,0.04125
1656.37838,0.04253
1654.31821,0.04377
1652.25804,0.04484
1650.19787,0.04555
1648.13769,0.04608
1646.07752,0.04639
1644.01735,0.04648
1641.95718,0.04678
1639.89701,0.04736
1637.83683,0.04807
1635.77666,0.04880
1633.71649,0.04948
1631.65632,0.05003
1629.59614,0.05055
1627.53597,0.05120
1625.47580,0.05187
1623.41563,0.05241
1621.35546,0.05294
1619.29528,0.05364
1617.23511,0.05462
1615.17494,0.05573
1613.11477,0.05667
1611.05460,0.05744
1608.99442,0.05808
1606.93425,0.05843
1604.87408,0.05838
1602.81391,0.05793
1600.75373,0.05722
1598.69356,0.05630
1596.63339,0.05510
1594.57322,0.05353
1592.51305,0.05165
1590.45287,0.04958
1588.39270,0.04745
1586.33253,0.04539
1584.27236,0.04343
1582.21219,0.04167
1580.15201,0.04017
1578.09184,0.03856
1576.03167,0.03646
1573.97150,0.03455
1571.91133,0.03318
1569.85115,0.03171
1567.79098,0.03016
1565.73081,0.02905
1563.67064,0.02848
1561.61046,0.02832
1559.55029,0.02817
1557.49012,0.02770
1555.42995,0.02751
1553.36978,0.02770
1551.30960,0.02797
1549.24943,0.02823
1547.18926,0.02854
1545.12909,0.02898
1543.06892,0.02948
1541.00874,0.02972
1538.94857,0.02949
1536.88840,0.02912
1534.82823,0.02866
1532.76805,0.02799
1530.70788,0.02726
1528.64771,0.02659
1526.58754,0.02578
1524.52737,0.02495
1522.46719,0.02451
1520.40702,0.02448
1518.34685,0.02466
1516.28668,0.02482
1514.22651,0.02473
1512.16633,0.02436
1510.10616,0.02371
1508.04599,0.02229
1505.98582,0.01993
1503.92565,0.01814
1501.86547,0.01706
1499.80530,0.01592
1497.74513,0.01431
1495.68496,0.01245
1493.62478,0.01098
1491.56461,0.00990
1489.50444,0.00878
1487.44427,0.00761
1485.38410,0.00679
1483.32392,0.00647
1481.26375,0.00665
1479.20358,0.00734
1477.14341,0.00872
1475.08324,0.01105
1473.02306,0.01432
1470.96289,0.01769
1468.90272,0.02040
1466.84255,0.02293
1464.78238,0.02557
1462.72220,0.02759
1460.66203,0.02872
1458.60186,0.02995
1456.54169,0.03192
1454.48151,0.03363
1452.42134,0.03476
1450.36117,0.03587
1448.30100,0.03717
1446.24083,0.03830
1444.18065,0.03895
1442.12048,0.03917
1440.06031,0.03894
1438.00014,0.03796
1435.93997,0.03617
1433.87979,0.03435
1431.81962,0.03284
1429.75945,0.03137
1427.69928,0.03004
1425.63910,0.02908
1423.57893,0.02843
1421.51876,0.02810
1419.45859,0.02819
1417.39842,0.02845
1415.33824,0.02833
1413.27807,0.02788
1411.21790,0.02742
1409.15773,0.02709
1407.09756,0.02688
1405.03738,0.02672
1402.97721,0.02660
1400.91704,0.02656
1398.85687,0.02656
1396.79670,0.02666
1394.73652,0.02698
1392.67635,0.02742
1390.61618,0.02787
1388.55601,0.02854
1386.49583,0.02949
1384.43566,0.03047
1382.37549,0.03148
1380.31532,0.03274
1378.25515,0.03416
1376.19497,0.03539
1374.13480,0.03628
1372.07463,0.03690
1370.01446,0.03743
1367.95429,0.03788
1365.89411,0.03815
1363.83394,0.03827
1361.77377,0.03832
1359.71360,0.03835
1357.65343,0.03843
1355.59325,0.03865
1353.53308,0.03896
1351.47291,0.03931
1349.41274,0.03965
1347.35256,0.03996
1345.29239,0.04034
1343.23222,0.04084
1341.17205,0.04147
1339.11188,0.04222
1337.05170,0.04296
1334.99153,0.04358
1332.93136,0.04417
1330.87119,0.04481
1328.81102,0.04560
1326.75084,0.04655
1324.69067,0.04753
1322.63050,0.04846
1320.57033,0.04931
1318.51015,0.04992
1316.44998,0.05011
1314.38981,0.04988
1312.32964,0.04937
1310.26947,0.04860
1308.20929,0.04741
1306.14912,0.04580
1304.08895,0.04396
1302.02878,0.04198
1299.96861,0.03980
1297.90843,0.03752
1295.84826,0.03540
1293.78809,0.03361
1291.72792,0.03205
1289.66775,0.03076
1287.60757,0.02988
1285.54740,0.02931
1283.48723,0.02883
1281.42706,0.02849
1279.36688,0.02834
1277.30671,0.02836
1275.24654,0.02856
1273.18637,0.02886
1271.12620,0.02919
1269.06602,0.02980
1267.00585,0.03070
1264.94568,0.03157
1262.88551,0.03233
1260.82534,0.03300
1258.76516,0.03349
1256.70499,0.03406
1254.64482,0.03483
1252.58465,0.03559
1250.52447,0.03630
1248.46430,0.03705
1246.40413,0.03793
1244.34396,0.03899
1242.28379,0.04010
1240.22361,0.04114
1238.16344,0.04213
1236.10327,0.04317
1234.04310,0.04425
1231.98293,0.04520
1229.92275,0.04607
1227.86258,0.04701
1225.80241,0.04807
1223.74224,0.04917
1221.68207,0.05019
1219.62189,0.05108
1217.56172,0.05188
1215.50155,0.05264
1213.44138,0.05336
1211.38120,0.05420
1209.32103,0.05512
1207.26086,0.05595
1205.20069,0.05684
1203.14052,0.05780
1201.08034,0.05857
1199.02017,0.05919
1196.96000,0.05966
1194.89983,0.05989
1192.83966,0.06005
1190.77948,0.06002
1188.71931,0.05953
1186.65914,0.05868
1184.59897,0.05775
1182.53880,0.05689
1180.47862,0.05625
1178.41845,0.05589
1176.35828,0.05569
1174.29811,0.05564
1172.23793,0.05590
1170.17776,0.05626
1168.11759,0.05640
1166.05742,0.05635
1163.99725,0.05600
1161.93707,0.05519
1159.87690,0.05418
1157.81673,0.05316
1155.75656,0.05197
1153.69639,0.05063
1151.63621,0.04957
1149.57604,0.04869
1147.51587,0.04755
1145.45570,0.04620
1143.39552,0.04484
1141.33535,0.04352
1139.27518,0.04227
1137.21501,0.04107
1135.15484,0.04016
1133.09466,0.03980
1131.03449,0.03986
1128.97432,0.04028
1126.91415,0.04113
1124.85398,0.04234
1122.79380,0.04393
1120.73363,0.04585
1118.67346,0.04796
1116.61329,0.05042
1114.55312,0.05340
1112.49294,0.05673
1110.43277,0.06012
1108.37260,0.06349
1106.31243,0.06667
1104.25225,0.06930
1102.19208,0.07150
1100.13191,0.07369
1098.07174,0.07590
1096.01157,0.07779
1093.95139,0.07930
1091.89122,0.08074
1089.83105,0.08248
1087.77088,0.08448
1085.71071,0.08646
1083.65053,0.08852
1081.59036,0.09100
1079.53019,0.09361
1077.47002,0.09587
1075.40985,0.09777
1073.34967,0.09949
1071.28950,0.10094
1069.22933,0.10201
1067.16916,0.10293
1065.10898,0.10383
1063.04881,0.10470
1060.98864,0.10571
1058.92847,0.10673
1056.86830,0.10767
1054.80812,0.10866
1052.74795,0.10997
1050.68778,0.11168
1048.62761,0.11340
1046.56744,0.11497
1044.50726,0.11677
1042.44709,0.11875
1040.38692,0.12065
1038.32675,0.12273
1036.26657,0.12529
1034.20640,0.12806
1032.14623,0.13054
1030.08606,0.13245
1028.02589,0.13366
1025.96571,0.13453
1023.90554,0.13544
1021.84537,0.13617
1019.78520,0.13637
1017.72503,0.13620
1015.66485,0.13578
1013.60468,0.13484
1011.54451,0.13319
1009.48434,0.13087
1007.42417,0.12820
1005.36399,0.12527
1003.30382,0.12198
1001.24365,0.11838
999.18348,0.11467
997.12330,0.11120
995.06313,0.10793
993.00296,0.10457
990.94279,0.10133
988.88262,0.09813
986.82244,0.09440
984.76227,0.09020
982.70210,0.08617
980.64193,0.08247
978.58176,0.07879
976.52158,0.07524
974.46141,0.07208
972.40124,0.06928
970.34107,0.06691
968.28089,0.06497
966.22072,0.06315
964.16055,0.06119
962.10038,0.05925
960.04021,0.05725
957.98003,0.05488
955.91986,0.05235
953.85969,0.04988
951.79952,0.04724
949.73935,0.04450
947.67917,0.04184
945.61900,0.03916
943.55883,0.03675
941.49866,0.03489
939.43849,0.03315
937.37831,0.03132
935.31814,0.02969
933.25797,0.02849
931.19780,0.02782
929.13762,0.02747
927.07745,0.02698
925.01728,0.02611
922.95711,0.02489
920.89694,0.02335
918.83676,0.02158
916.77659,0.02003
914.71642,0.01877
912.65625,0.01735
910.59608,0.01580
908.53590,0.01433
906.47573,0.01313
904.41556,0.01237
902.35539,0.01191
900.29522,0.01148
898.23504,0.01118
896.17487,0.01103
894.11470,0.01088
892.05453,0.01076
889.99435,0.01053
887.93418,0.01025
885.87401,0.01004
883.81384,0.00985
881.75367,0.00983
879.69349,0.01010
877.63332,0.01048
875.57315,0.01082
873.51298,0.01122
871.45281,0.01157
869.39263,0.01143
867.33246,0.01076
865.27229,0.00970
863.21212,0.00831
861.15194,0.00679
859.09177,0.00542
857.03160,0.00419
854.97143,0.00279
852.91126,0.00150
850.85108,0.00076
848.79091,0.00031
846.73074,0.00000
844.67057,0.00009
842.61040,0.00077
840.55022,0.00163
838.49005,0.00240
836.42988,0.00298
834.36971,0.00336
832.30954,0.00375
830.24936,0.00388
828.18919,0.00346
826.12902,0.00298
824.06885,0.00316
822.00867,0.00411
819.94850,0.00501
817.88833,0.00513
815.82816,0.00479
813.76799,0.00458
811.70781,0.00451
809.64764,0.00426
807.58747,0.00398
805.52730,0.00370
803.46713,0.00290
801.40695,0.00161
799.34678,0.00044
797.28661,0.00000
795.22644,-0.00026
793.16627,-0.00038
791.10609,-0.00033
789.04592,0.00011
786.98575,0.00082
784.92558,0.00169
782.86540,0.00245
780.80523,0.00262
778.74506,0.00223
776.68489,0.00188
774.62472,0.00212
772.56454,0.00278
770.50437,0.00364
768.44420,0.00495
766.38403,0.00663
764.32386,0.00885
762.26368,0.01180
760.20351,0.01441
758.14334,0.01569
756.08317,0.01608
754.02299,0.01624
751.96282,0.01569
749.90265,0.01385
747.84248,0.01134
745.78231,0.00918
743.72213,0.00797
741.66196,0.00757
739.60179,0.00706
737.54162,0.00608
735.48145,0.00512
733.42127,0.00454
731.36110,0.00466
729.30093,0.00563
727.24076,0.00672
725.18059,0.00708
723.12041,0.00679
721.06024,0.00682
719.00007,0.00608
716.93990,0.00501
714.87972,0.00410
712.81955,0.00331
710.75938,0.00269
708.69921,0.00233
706.63904,0.00240
704.57886,0.00259
702.51869,0.00266
700.45852,0.00277
698.39835,0.00275
696.33818,0.00220
694.27800,0.00129
692.21783,0.00058
690.15766,0.00017
688.09749,-0.00025
686.03731,-0.00075
683.97714,-0.00087
681.91697,-0.00059
679.85680,-0.00033
677.79663,-0.00024
675.73645,-0.00036
673.67628,-0.00181
671.61611,-0.00424
669.55594,-0.00062
667.49577,0.00414
665.43559,-0.00208
663.37542,-0.00071
661.31525,0.00092
659.25508,0.00027
657.19491,-0.00093
655.13473,-0.00180
653.07456,-0.00174
651.01439,-0.00084
648.95422,0.00000
646.89404,-0.00023
644.83387,-0.00080
642.77370,-0.00142
640.71353,-0.00125
638.65336,-0.00026
636.59318,-0.00001
634.53301,-0.00124
632.47284,-0.00243
630.41267,-0.00187
628.35250,-0.00032
626.29232,0.00019
624.23215,0.00021
622.17198,0.00058
620.11181,0.00079
618.05164,0.00077
615.99146,0.00091
613.93129,0.00177
611.87112,0.00286
609.81095,0.00349
607.75077,0.00443
605.69060,0.00440
603.63043,0.00313
601.57026,0.00216
599.51009,0.00000
