3996.73391,0.00036
3994.67373,0.00043
3992.61356,0.00028
3990.55339,0.00007
3988.49322,-0.00000
3986.43305,0.00009
3984.37287,0.00022
3982.31270,0.00027
3980.25253,0.00028
3978.19236,0.00030
3976.13219,0.00036
3974.07201,0.00043
3972.01184,0.00035
3969.95167,0.00015
3967.89150,-0.00000
3965.83133,0.00000
3963.77115,0.00008
3961.71098,0.00016
3959.65081,0.00030
3957.59064,0.00049
3955.53046,0.00062
3953.47029,0.00064
3951.41012,0.00062
3949.34995,0.00065
3947.28978,0.00066
3945.22960,0.00058
3943.16943,0.00050
3941.10926,0.00058
3939.04909,0.00068
3936.98892,0.00069
3934.92874,0.00057
3932.86857,0.00044
3930.80840,0.00043
3928.74823,0.00040
3926.68805,0.00042
3924.62788,0.00073
3922.56771,0.00108
3920.50754,0.00118
3918.44737,0.00096
3916.38719,0.00058
3914.32702,0.00036
3912.26685,0.00040
3910.20668,0.00063
3908.14651,0.00097
3906.08633,0.00129
3904.02616,0.00138
3901.96599,0.00148
3899.90582,0.00160
3897.84565,0.00136
3895.78547,0.00099
3893.72530,0.00090
3891.66513,0.00084
3889.60496,0.00038
3887.54478,0.00000
3885.48461,0.00020
3883.42444,0.00064
3881.36427,0.00085
3879.30410,0.00086
3877.24392,0.00091
3875.18375,0.00117
3873.12358,0.00156
3871.06341,0.00185
3869.00324,0.00165
3866.94306,0.00113
3864.88289,0.00098
3862.82272,0.00111
3860.76255,0.00105
3858.70237,0.00102
3856.64220,0.00132
3854.58203,0.00184
3852.52186,0.00208
3850.46169,0.00183
3848.40151,0.00142
3846.34134,0.00103
3844.28117,0.00079
3842.22100,0.00088
3840.16083,0.00114
3838.10065,0.00139
3836.04048,0.00168
3833.98031,0.00181
3831.92014,0.00162
3829.85997,0.00140
3827.79979,0.00139
3825.73962,0.00143
3823.67945,0.00151
3821.61928,0.00168
3819.55910,0.00176
3817.49893,0.00164
3815.43876,0.00132
3813.37859,0.00091
3811.31842,0.00046
3809.25824,0.00012
3807.19807,0.00025
3805.13790,0.00075
3803.07773,0.00098
3801.01756,0.00090
3798.95738,0.00082
3796.89721,0.00079
3794.83704,0.00078
3792.77687,0.00081
3790.71670,0.00078
3788.65652,0.00073
3786.59635,0.00076
3784.53618,0.00083
3782.47601,0.00091
3780.41583,0.00115
3778.35566,0.00134
3776.29549,0.00115
3774.23532,0.00079
3772.17515,0.00073
3770.11497,0.00097
3768.05480,0.00104
3765.99463,0.00092
3763.93446,0.00093
3761.87429,0.00104
3759.81411,0.00113
3757.75394,0.00113
3755.69377,0.00122
3753.63360,0.00171
3751.57342,0.00223
3749.51325,0.00202
3747.45308,0.00151
3745.39291,0.00135
3743.33274,0.00118
3741.27256,0.00079
3739.21239,0.00075
3737.15222,0.00117
3735.09205,0.00138
3733.03188,0.00089
3730.97170,0.00025
3728.91153,0.00000
3726.85136,0.00019
3724.79119,0.00058
3722.73102,0.00080
3720.67084,0.00095
3718.61067,0.00105
3716.55050,0.00114
3714.49033,0.00121
3712.43015,0.00134
3710.36998,0.00157
3708.30981,0.00132
3706.24964,0.00086
3704.18947,0.00056
3702.12929,0.00048
3700.06912,0.00055
3698.00895,0.00052
3695.94878,0.00056
3693.88861,0.00079
3691.82843,0.00120
3689.76826,0.00149
3687.70809,0.00152
3685.64792,0.00141
3683.58775,0.00128
3681.52757,0.00114
3679.46740,0.00126
3677.40723,0.00148
3675.34706,0.00134
3673.28688,0.00099
3671.22671,0.00101
3669.16654,0.00141
3667.10637,0.00179
3665.04620,0.00205
3662.98602,0.00218
3660.92585,0.00207
3658.86568,0.00181
3656.80551,0.00166
3654.74534,0.00178
3652.68516,0.00214
3650.62499,0.00254
3648.56482,0.00270
3646.50465,0.00262
3644.44447,0.00243
3642.38430,0.00225
3640.32413,0.00205
3638.26396,0.00204
3636.20379,0.00250
3634.14361,0.00310
3632.08344,0.00331
3630.02327,0.00326
3627.96310,0.00326
3625.90293,0.00323
3623.84275,0.00348
3621.78258,0.00398
3619.72241,0.00451
3617.66224,0.00511
3615.60207,0.00557
3613.54189,0.00575
3611.48172,0.00554
3609.42155,0.00538
3607.36138,0.00547
3605.30120,0.00560
3603.24103,0.00585
3601.18086,0.00619
3599.12069,0.00660
3597.06052,0.00708
3595.00034,0.00767
3592.94017,0.00814
3590.88000,0.00855
3588.81983,0.00880
3586.75966,0.00887
3584.69948,0.00892
3582.63931,0.00908
3580.57914,0.00925
3578.51897,0.00937
3576.45879,0.00967
3574.39862,0.01022
3572.33845,0.01064
3570.27828,0.01075
3568.21811,0.01098
3566.15793,0.01148
3564.09776,0.01189
3562.03759,0.01205
3559.97742,0.01210
3557.91725,0.01219
3555.85707,0.01248
3553.79690,0.01309
3551.73673,0.01393
3549.67656,0.01470
3547.61639,0.01531
3545.55621,0.01584
3543.49604,0.01623
3541.43587,0.01639
3539.37570,0.01642
3537.31552,0.01645
3535.25535,0.01651
3533.19518,0.01675
3531.13501,0.01721
3529.07484,0.01761
3527.01466,0.01792
3524.95449,0.01845
3522.89432,0.01914
3520.83415,0.01965
3518.77398,0.01979
3516.71380,0.01977
3514.65363,0.02000
3512.59346,0.02063
3510.53329,0.02143
3508.47312,0.02213
3506.41294,0.02249
3504.35277,0.02253
3502.29260,0.02273
3500.23243,0.02334
3498.17225,0.02397
3496.11208,0.02433
3494.05191,0.02463
3491.99174,0.02500
3489.93157,0.02539
3487.87139,0.02565
3485.81122,0.02584
3483.75105,0.02610
3481.69088,0.02628
3479.63071,0.02640
3477.57053,0.02672
3475.51036,0.02726
3473.45019,0.02769
3471.39002,0.02786
3469.32984,0.02807
3467.26967,0.02848
3465.20950,0.02900
3463.14933,0.02951
3461.08916,0.02997
3459.02898,0.03038
3456.96881,0.03070
3454.90864,0.03092
3452.84847,0.03125
3450.78830,0.03178
3448.72812,0.03223
3446.66795,0.03253
3444.60778,0.03292
3442.54761,0.03329
3440.48744,0.03339
3438.42726,0.03349
3436.36709,0.03383
3434.30692,0.03448
3432.24675,0.03520
3430.18657,0.03546
3428.12640,0.03537
3426.06623,0.03558
3424.00606,0.03614
3421.94589,0.03667
3419.88571,0.03697
3417.82554,0.03722
3415.76537,0.03753
3413.70520,0.03780
3411.64503,0.03799
3409.58485,0.03821
3407.52468,0.03848
3405.46451,0.03872
3403.40434,0.03891
3401.34416,0.03912
3399.28399,0.03940
3397.22382,0.03978
3395.16365,0.04004
3393.10348,0.04015
3391.04330,0.04035
3388.98313,0.04062
3386.92296,0.04073
3384.86279,0.04075
3382.80262,0.04104
3380.74244,0.04154
3378.68227,0.04197
3376.62210,0.04220
3374.56193,0.04228
3372.50176,0.04244
3370.44158,0.04273
3368.38141,0.04296
3366.32124,0.04322
3364.26107,0.04353
3362.20089,0.04375
3360.14072,0.04389
3358.08055,0.04399
3356.02038,0.04412
3353.96021,0.04439
3351.90003,0.04477
3349.83986,0.04496
3347.77969,0.04490
3345.71952,0.04500
3343.65935,0.04536
3341.59917,0.04553
3339.53900,0.04546
3337.47883,0.04560
3335.41866,0.04584
3333.35849,0.04581
3331.29831,0.04572
3329.23814,0.04587
3327.17797,0.04600
3325.11780,0.04599
3323.05762,0.04606
3320.99745,0.04621
3318.93728,0.04641
3316.87711,0.04656
3314.81694,0.04658
3312.75676,0.04673
3310.69659,0.04718
3308.63642,0.04764
3306.57625,0.04771
3304.51608,0.04751
3302.45590,0.04742
3300.39573,0.04741
3298.33556,0.04738
3296.27539,0.04747
3294.21521,0.04769
3292.15504,0.04780
3290.09487,0.04787
3288.03470,0.04805
3285.97453,0.04817
3283.91435,0.04802
3281.85418,0.04779
3279.79401,0.04780
3277.73384,0.04806
3275.67367,0.04836
3273.61349,0.04852
3271.55332,0.04841
3269.49315,0.04816
3267.43298,0.04799
3265.37281,0.04783
3263.31263,0.04768
3261.25246,0.04772
3259.19229,0.04770
3257.13212,0.04728
3255.07194,0.04678
3253.01177,0.04656
3250.95160,0.04659
3248.89143,0.04677
3246.83126,0.04687
3244.77108,0.04665
3242.71091,0.04629
3240.65074,0.04613
3238.59057,0.04609
3236.53040,0.04595
3234.47022,0.04579
3232.41005,0.04572
3230.34988,0.04561
3228.28971,0.04553
3226.22954,0.04566
3224.16936,0.04565
3222.10919,0.04521
3220.04902,0.04474
3217.98885,0.04455
3215.92867,0.04445
3213.86850,0.04431
3211.80833,0.04439
3209.74816,0.04449
3207.68799,0.04415
3205.62781,0.04355
3203.56764,0.04317
3201.50747,0.04304
3199.44730,0.04304
3197.38713,0.04296
3195.32695,0.04277
3193.26678,0.04261
3191.20661,0.04245
3189.14644,0.04215
3187.08626,0.04183
3185.02609,0.04174
3182.96592,0.04170
3180.90575,0.04152
3178.84558,0.04132
3176.78540,0.04118
3174.72523,0.04110
3172.66506,0.04114
3170.60489,0.04098
3168.54472,0.04048
3166.48454,0.04012
3164.42437,0.04003
3162.36420,0.03986
3160.30403,0.03947
3158.24386,0.03916
3156.18368,0.03910
3154.12351,0.03904
3152.06334,0.03878
3150.00317,0.03841
3147.94299,0.03812
3145.88282,0.03795
3143.82265,0.03774
3141.76248,0.03754
3139.70231,0.03742
3137.64213,0.03722
3135.58196,0.03687
3133.52179,0.03652
3131.46162,0.03641
3129.40145,0.03650
3127.34127,0.03641
3125.28110,0.03599
3123.22093,0.03560
3121.16076,0.03554
3119.10058,0.03549
3117.04041,0.03521
3114.98024,0.03483
3112.92007,0.03443
3110.85990,0.03405
3108.79972,0.03374
3106.73955,0.03353
3104.67938,0.03345
3102.61921,0.03342
3100.55904,0.03327
3098.49886,0.03309
3096.43869,0.03296
3094.37852,0.03285
3092.31835,0.03278
3090.25818,0.03268
3088.19800,0.03244
3086.13783,0.03231
3084.07766,0.03237
3082.01749,0.03228
3079.95731,0.03199
3077.89714,0.03167
3075.83697,0.03142
3073.77680,0.03119
3071.71663,0.03087
3069.65645,0.03058
3067.59628,0.03051
3065.53611,0.03055
3063.47594,0.03054
3061.41577,0.03045
3059.35559,0.03014
3057.29542,0.02962
3055.23525,0.02929
3053.17508,0.02924
3051.11491,0.02913
3049.05473,0.02878
3046.99456,0.02842
3044.93439,0.02817
3042.87422,0.02783
3040.81404,0.02747
3038.75387,0.02732
3036.69370,0.02734
3034.63353,0.02733
3032.57336,0.02719
3030.51318,0.02693
3028.45301,0.02661
3026.39284,0.02632
3024.33267,0.02609
3022.27250,0.02592
3020.21232,0.02591
3018.15215,0.02605
3016.09198,0.02606
3014.03181,0.02582
3011.97163,0.02551
3009.91146,0.02533
3007.85129,0.02524
3005.79112,0.02511
3003.73095,0.02500
3001.67077,0.02487
2999.61060,0.02461
2997.55043,0.02434
2995.49026,0.02415
2993.43009,0.02395
2991.36991,0.02381
2989.30974,0.02395
2987.24957,0.02433
2985.18940,0.02462
2983.12923,0.02476
2981.06905,0.02495
2979.00888,0.02524
2976.94871,0.02559
2974.88854,0.02599
2972.82836,0.02641
2970.76819,0.02704
2968.70802,0.02791
2966.64785,0.02873
2964.58768,0.02939
2962.52750,0.03003
2960.46733,0.03078
2958.40716,0.03179
2956.34699,0.03301
2954.28682,0.03414
2952.22664,0.03502
2950.16647,0.03585
2948.10630,0.03698
2946.04613,0.03842
2943.98596,0.03996
2941.92578,0.04150
2939.86561,0.04324
2937.80544,0.04539
2935.74527,0.04768
2933.68509,0.04970
2931.62492,0.05157
2929.56475,0.05353
2927.50458,0.05557
2925.44441,0.05756
2923.38423,0.05924
2921.32406,0.06056
2919.26389,0.06157
2917.20372,0.06172
2915.14355,0.06027
2913.08337,0.05738
2911.02320,0.05411
2908.96303,0.05135
2906.90286,0.04920
2904.84268,0.04751
2902.78251,0.04612
2900.72234,0.04484
2898.66217,0.04379
2896.60200,0.04298
2894.54182,0.04200
2892.48165,0.04085
2890.42148,0.03987
2888.36131,0.03906
2886.30114,0.03827
2884.24096,0.03747
2882.18079,0.03670
2880.12062,0.03615
2878.06045,0.03601
2876.00028,0.03603
2873.94010,0.03592
2871.87993,0.03595
2869.81976,0.03626
2867.75959,0.03676
2865.69941,0.03747
2863.63924,0.03845
2861.57907,0.03973
2859.51890,0.04127
2857.45873,0.04307
2855.39855,0.04525
2853.33838,0.04761
2851.27821,0.04935
2849.21804,0.04936
2847.15787,0.04705
2845.09769,0.04324
2843.03752,0.03944
2840.97735,0.03641
2838.91718,0.03413
2836.85700,0.03237
2834.79683,0.03091
2832.73666,0.02977
2830.67649,0.02893
2828.61632,0.02819
2826.55614,0.02746
2824.49597,0.02681
2822.43580,0.02636
2820.37563,0.02599
2818.31546,0.02559
2816.25528,0.02528
2814.19511,0.02493
2812.13494,0.02464
2810.07477,0.02449
2808.01460,0.02416
2805.95442,0.02369
2803.89425,0.02337
2801.83408,0.02327
2799.77391,0.02323
2797.71373,0.02315
2795.65356,0.02300
2793.59339,0.02281
2791.53322,0.02262
2789.47305,0.02244
2787.41287,0.02226
2785.35270,0.02211
2783.29253,0.02197
2781.23236,0.02177
2779.17219,0.02154
2777.11201,0.02138
2775.05184,0.02125
2772.99167,0.02105
2770.93150,0.02092
2768.87133,0.02085
2766.81115,0.02073
2764.75098,0.02060
2762.69081,0.02048
2760.63064,0.02029
2758.57046,0.02004
2756.51029,0.01990
2754.45012,0.01991
2752.38995,0.02000
2750.32978,0.02010
2748.26960,0.02014
2746.20943,0.02007
2744.14926,0.01998
2742.08909,0.01985
2740.02892,0.01971
2737.96874,0.01965
2735.90857,0.01954
2733.84840,0.01941
2731.78823,0.01937
2729.72805,0.01941
2727.66788,0.01948
2725.60771,0.01945
2723.54754,0.01934
2721.48737,0.01927
2719.42719,0.01921
2717.36702,0.01905
2715.30685,0.01886
2713.24668,0.01877
2711.18651,0.01873
2709.12633,0.01869
2707.06616,0.01862
2705.00599,0.01862
2702.94582,0.01868
2700.88565,0.01862
2698.82547,0.01844
2696.76530,0.01824
2694.70513,0.01807
2692.64496,0.01805
2690.58478,0.01814
2688.52461,0.01817
2686.46444,0.01810
2684.40427,0.01802
2682.34410,0.01795
2680.28392,0.01781
2678.22375,0.01761
2676.16358,0.01752
2674.10341,0.01753
2672.04324,0.01752
2669.98306,0.01748
2667.92289,0.01743
2665.86272,0.01738
2663.80255,0.01731
2661.74238,0.01734
2659.68220,0.01739
2657.62203,0.01725
2655.56186,0.01690
2653.50169,0.01655
2651.44151,0.01640
2649.38134,0.01636
2647.32117,0.01618
2645.26100,0.01591
2643.20083,0.01585
2641.14065,0.01603
2639.08048,0.01608
2637.02031,0.01591
2634.96014,0.01578
2632.89997,0.01572
2630.83979,0.01555
2628.77962,0.01534
2626.71945,0.01531
2624.65928,0.01533
2622.59910,0.01522
2620.53893,0.01509
2618.47876,0.01506
2616.41859,0.01501
2614.35842,0.01479
2612.29824,0.01459
2610.23807,0.01456
2608.17790,0.01457
2606.11773,0.01445
2604.05756,0.01417
2601.99738,0.01401
2599.93721,0.01424
2597.87704,0.01437
2595.81687,0.01402
2593.75670,0.01359
2591.69652,0.01346
2589.63635,0.01357
2587.57618,0.01371
2585.51601,0.01377
2583.45583,0.01372
2581.39566,0.01370
2579.33549,0.01367
2577.27532,0.01345
2575.21515,0.01325
2573.15497,0.01331
2571.09480,0.01350
2569.03463,0.01345
2566.97446,0.01309
2564.91429,0.01272
2562.85411,0.01261
2560.79394,0.01274
2558.73377,0.01293
2556.67360,0.01302
2554.61342,0.01282
2552.55325,0.01238
2550.49308,0.01214
2548.43291,0.01241
2546.37274,0.01265
2544.31256,0.01238
2542.25239,0.01211
2540.19222,0.01213
2538.13205,0.01209
2536.07188,0.01193
2534.01170,0.01188
2531.95153,0.01192
2529.89136,0.01184
2527.83119,0.01173
2525.77102,0.01180
2523.71084,0.01162
2521.65067,0.01110
2519.59050,0.01090
2517.53033,0.01101
2515.47015,0.01120
2513.40998,0.01146
2511.34981,0.01155
2509.28964,0.01139
2507.22947,0.01113
2505.16929,0.01080
2503.10912,0.01048
2501.04895,0.01021
2498.98878,0.00994
2496.92861,0.00987
2494.86843,0.01022
2492.80826,0.01075
2490.74809,0.01106
2488.68792,0.01098
2486.62775,0.01068
2484.56757,0.01048
2482.50740,0.01038
2480.44723,0.01015
2478.38706,0.00986
2476.32688,0.00979
2474.26671,0.01001
2472.20654,0.01027
2470.14637,0.01032
2468.08620,0.01022
2466.02602,0.01001
2463.96585,0.00963
2461.90568,0.00939
2459.84551,0.00955
2457.78534,0.00987
2455.72516,0.01002
2453.66499,0.01006
2451.60482,0.00997
2449.54465,0.00973
2447.48447,0.00958
2445.42430,0.00960
2443.36413,0.00948
2441.30396,0.00923
2439.24379,0.00908
2437.18361,0.00906
2435.12344,0.00923
2433.06327,0.00938
2431.00310,0.00925
2428.94293,0.00914
2426.88275,0.00924
2424.82258,0.00920
2422.76241,0.00891
2420.70224,0.00875
2418.64207,0.00887
2416.58189,0.00890
2414.52172,0.00886
2412.46155,0.00893
2410.40138,0.00896
2408.34120,0.00891
2406.28103,0.00868
2404.22086,0.00832
2402.16069,0.00823
2400.10052,0.00847
2398.04034,0.00862
2395.98017,0.00865
2393.92000,0.00874
2391.85983,0.00887
2389.79966,0.00886
2387.73948,0.00879
2385.67931,0.00895
2383.61914,0.00910
2381.55897,0.00890
2379.49880,0.00853
2377.43862,0.00828
2375.37845,0.00748
2373.31828,0.00706
2371.25811,0.00749
2369.19793,0.00697
2367.13776,0.00566
2365.07759,0.00497
2363.01742,0.00439
2360.95725,0.00766
2358.89707,0.00889
2356.83690,0.00734
2354.77673,0.00493
2352.71656,0.00509
2350.65639,0.01088
2348.59621,0.01389
2346.53604,0.00649
2344.47587,0.00452
2342.41570,0.00580
2340.35552,0.00629
2338.29535,0.00715
2336.23518,0.00789
2334.17501,0.00846
2332.11484,0.00845
2330.05466,0.00873
2327.99449,0.00854
2325.93432,0.00947
2323.87415,0.00906
2321.81398,0.00853
2319.75380,0.00759
2317.69363,0.00843
2315.63346,0.00845
2313.57329,0.00754
2311.51312,0.00716
2309.45294,0.00734
2307.39277,0.00763
2305.33260,0.00768
2303.27243,0.00760
2301.21225,0.00722
2299.15208,0.00715
2297.09191,0.00734
2295.03174,0.00741
2292.97157,0.00743
2290.91139,0.00737
2288.85122,0.00730
2286.79105,0.00738
2284.73088,0.00759
2282.67071,0.00765
2280.61053,0.00740
2278.55036,0.00707
2276.49019,0.00664
2274.43002,0.00603
2272.36984,0.00562
2270.30967,0.00574
2268.24950,0.00601
2266.18933,0.00624
2264.12916,0.00653
2262.06898,0.00679
2260.00881,0.00675
2257.94864,0.00636
2255.88847,0.00562
2253.82830,0.00513
2251.76812,0.00526
2249.70795,0.00555
2247.64778,0.00580
2245.58761,0.00583
2243.52744,0.00556
2241.46726,0.00558
2239.40709,0.00609
2237.34692,0.00640
2235.28675,0.00610
2233.22657,0.00553
2231.16640,0.00546
2229.10623,0.00581
2227.04606,0.00587
2224.98589,0.00587
2222.92571,0.00575
2220.86554,0.00530
2218.80537,0.00493
2216.74520,0.00452
2214.68503,0.00418
2212.62485,0.00446
2210.56468,0.00498
2208.50451,0.00495
2206.44434,0.00471
2204.38417,0.00492
2202.32399,0.00517
2200.26382,0.00498
2198.20365,0.00511
2196.14348,0.00604
2194.08330,0.00656
2192.02313,0.00601
2189.96296,0.00518
2187.90279,0.00463
2185.84262,0.00430
2183.78244,0.00414
2181.72227,0.00402
2179.66210,0.00346
2177.60193,0.00250
2175.54176,0.00190
2173.48158,0.00200
2171.42141,0.00233
2169.36124,0.00268
2167.30107,0.00312
2165.24089,0.00303
2163.18072,0.00238
2161.12055,0.00250
2159.06038,0.00348
2157.00021,0.00427
2154.94003,0.00412
2152.87986,0.00311
2150.81969,0.00239
2148.75952,0.00255
2146.69935,0.00301
2144.63917,0.00333
2142.57900,0.00353
2140.51883,0.00374
2138.45866,0.00423
2136.39849,0.00421
2134.33831,0.00338
2132.27814,0.00325
2130.21797,0.00392
2128.15780,0.00398
2126.09762,0.00339
2124.03745,0.00307
2121.97728,0.00349
2119.91711,0.00424
2117.85694,0.00438
2115.79676,0.00394
2113.73659,0.00370
2111.67642,0.00378
2109.61625,0.00402
2107.55608,0.00398
2105.49590,0.00347
2103.43573,0.00323
2101.37556,0.00362
2099.31539,0.00406
2097.25521,0.00397
2095.19504,0.00377
2093.13487,0.00392
2091.07470,0.00407
2089.01453,0.00400
2086.95435,0.00359
2084.89418,0.00301
2082.83401,0.00287
2080.77384,0.00321
2078.71367,0.00368
2076.65349,0.00391
2074.59332,0.00396
2072.53315,0.00410
2070.47298,0.00400
2068.41281,0.00352
2066.35263,0.00347
2064.29246,0.00420
2062.23229,0.00462
2060.17212,0.00387
2058.11194,0.00270
2056.05177,0.00209
2053.99160,0.00234
2051.93143,0.00301
2049.87126,0.00322
2047.81108,0.00306
2045.75091,0.00278
2043.69074,0.00249
2041.63057,0.00264
2039.57040,0.00277
2037.51022,0.00200
2035.45005,0.00054
2033.38988,0.00015
2031.32971,0.00132
2029.26954,0.00169
2027.20936,0.00058
2025.14919,0.00000
2023.08902,0.00071
2021.02885,0.00159
2018.96867,0.00191
2016.90850,0.00222
2014.84833,0.00261
2012.78816,0.00240
2010.72799,0.00244
2008.66781,0.00294
2006.60764,0.00249
2004.54747,0.00140
2002.48730,0.00078
2000.42713,0.00073
1998.36695,0.00091
1996.30678,0.00069
1994.24661,0.00001
1992.18644,-0.00019
1990.12626,0.00058
1988.06609,0.00155
1986.00592,0.00194
1983.94575,0.00217
1981.88558,0.00290
1979.82540,0.00325
1977.76523,0.00208
1975.70506,0.00063
1973.64489,0.00043
1971.58472,0.00090
1969.52454,0.00142
1967.46437,0.00223
1965.40420,0.00298
1963.34403,0.00328
1961.28386,0.00329
1959.22368,0.00256
1957.16351,0.00129
1955.10334,0.00059
1953.04317,0.00059
1950.98299,0.00072
1948.92282,0.00088
1946.86265,0.00124
1944.80248,0.00138
1942.74231,0.00086
1940.68213,0.00035
1938.62196,0.00060
1936.56179,0.00136
1934.50162,0.00193
1932.44145,0.00206
1930.38127,0.00202
1928.32110,0.00208
1926.26093,0.00226
1924.20076,0.00229
1922.14059,0.00214
1920.08041,0.00222
1918.02024,0.00229
1915.96007,0.00186
1913.89990,0.00136
1911.83972,0.00140
1909.77955,0.00188
1907.71938,0.00220
1905.65921,0.00198
1903.59904,0.00161
1901.53886,0.00152
1899.47869,0.00153
1897.41852,0.00156
1895.35835,0.00169
1893.29818,0.00181
1891.23800,0.00178
1889.17783,0.00148
1887.11766,0.00111
1885.05749,0.00098
1882.99731,0.00105
1880.93714,0.00106
1878.87697,0.00093
1876.81680,0.00093
1874.75663,0.00119
1872.69645,0.00134
1870.63628,0.00123
1868.57611,0.00109
1866.51594,0.00120
1864.45577,0.00144
1862.39559,0.00139
1860.33542,0.00099
1858.27525,0.00068
1856.21508,0.00080
1854.15491,0.00109
1852.09473,0.00111
1850.03456,0.00088
1847.97439,0.00066
1845.91422,0.00057
1843.85404,0.00053
1841.79387,0.00053
1839.73370,0.00058
1837.67353,0.00062
1835.61336,0.00059
1833.55318,0.00060
1831.49301,0.00071
1829.43284,0.00070
1827.37267,0.00058
1825.31250,0.00048
1823.25232,0.00030
1821.19215,0.00011
1819.13198,0.00013
1817.07181,0.00032
1815.01163,0.00038
1812.95146,0.00024
1810.89129,0.00006
1808.83112,0.00000
1806.77095,0.00008
1804.71077,0.00022
1802.65060,0.00033
1800.59043,0.00037
1798.53026,0.00038
1796.47009,0.00043
1794.40991,0.00043
1792.34974,0.00024
1790.28957,0.00001
1788.22940,-0.00004
1786.16923,0.00001
1784.10905,0.00004
1782.04888,0.00000
1779.98871,-0.00012
1777.92854,-0.00007
1775.86836,0.00014
1773.80819,0.00042
1771.74802,0.00074
1769.68785,0.00099
1767.62768,0.00108
1765.56750,0.00123
1763.50733,0.00164
1761.44716,0.00217
1759.38699,0.00260
1757.32682,0.00320
1755.26664,0.00408
1753.20647,0.00514
1751.14630,0.00662
1749.08613,0.00865
1747.02596,0.01085
1744.96578,0.01323
1742.90561,0.01620
1740.84544,0.01979
1738.78527,0.02345
1736.72509,0.02659
1734.66492,0.02951
1732.60475,0.03195
1730.54458,0.03296
1728.48441,0.03299
1726.42423,0.03275
1724.36406,0.03237
1722.30389,0.03200
1720.24372,0.03195
1718.18355,0.03192
1716.12337,0.03139
1714.06320,0.03078
1712.00303,0.03045
1709.94286,0.03022
1707.88268,0.02983
1705.82251,0.02920
1703.76234,0.02848
1701.70217,0.02770
1699.64200,0.02665
1697.58182,0.02571
1695.52165,0.02510
1693.46148,0.02467
1691.40131,0.02442
1689.34114,0.02439
1687.28096,0.02465
1685.22079,0.02509
1683.16062,0.02524
1681.10045,0.02515
1679.04028,0.02521
1676.98010,0.02549
1674.91993,0.02590
1672.85976,0.02640
1670.79959,0.02700
1668.73941,0.02766
1666.67924,0.02843
1664.61907,0.02940
1662.55890,0.03053
1660.49873,0.03177
1658.43855,0.03320
1656.37838,0.03483
1654.31821,0.03624
1652.25804,0.03685
1650.19787,0.03710
1648.13769,0.03746
1646.07752,0.03754
1644.01735,0.03736
1641.95718,0.03747
1639.89701,0.03798
1637.83683,0.03859
1635.77666,0.03889
1633.71649,0.03890
1631.65632,0.03908
1629.59614,0.03948
1627.53597,0.03989
1625.47580,0.04019
1623.41563,0.04030
1621.35546,0.04047
1619.29528,0.04096
1617.23511,0.04146
1615.17494,0.04177
1613.11477,0.04222
1611.05460,0.04286
1608.99442,0.04344
1606.93425,0.04369
1604.87408,0.04353
1602.81391,0.04302
1600.75373,0.04227
1598.69356,0.04139
1596.63339,0.04037
1594.57322,0.03923
1592.51305,0.03804
1590.45287,0.03668
1588.39270,0.03513
1586.33253,0.03359
1584.27236,0.03222
1582.21219,0.03113
1580.15201,0.03030
1578.09184,0.02932
1576.03167,0.02774
1573.97150,0.02621
1571.91133,0.02528
1569.85115,0.02436
1567.79098,0.02333
1565.73081,0.02264
1563.67064,0.02234
1561.61046,0.02239
1559.55029,0.02230
1557.49012,0.02170
1555.42995,0.02127
1553.36978,0.02124
1551.30960,0.02146
1549.24943,0.02176
1547.18926,0.02208
1545.12909,0.02249
1543.06892,0.02288
1541.00874,0.02278
1538.94857,0.02200
1536.88840,0.02127
1534.82823,0.02077
1532.76805,0.02025
1530.70788,0.01978
1528.64771,0.01941
1526.58754,0.01885
1524.52737,0.01817
1522.46719,0.01787
1520.40702,0.01813
1518.34685,0.01854
1516.28668,0.01862
1514.22651,0.01846
1512.16633,0.01836
1510.10616,0.01821
1508.04599,0.01716
1505.98582,0.01486
1503.92565,0.01301
1501.86547,0.01211
1499.80530,0.01138
1497.74513,0.01022
1495.68496,0.00873
1493.62478,0.00766
1491.56461,0.00708
1489.50444,0.00632
1487.44427,0.00525
1485.38410,0.00449
1483.32392,0.00425
1481.26375,0.00434
1479.20358,0.00482
1477.14341,0.00596
1475.08324,0.00789
1473.02306,0.01029
1470.96289,0.01255
1468.90272,0.01449
1466.84255,0.01651
1464.78238,0.01853
1462.72220,0.02005
1460.66203,0.02110
1458.60186,0.02214
1456.54169,0.02321
1454.48151,0.02404
1452.42134,0.02479
1450.36117,0.02561
1448.30100,0.02640
1446.24083,0.02705
1444.18065,0.02755
1442.12048,0.02796
1440.06031,0.02821
1438.00014,0.02793
1435.93997,0.02676
1433.87979,0.02536
1431.81962,0.02434
1429.75945,0.02352
1427.69928,0.02281
1425.63910,0.02235
1423.57893,0.02210
1421.51876,0.02204
1419.45859,0.02208
1417.39842,0.02206
1415.33824,0.02190
1413.27807,0.02163
1411.21790,0.02130
1409.15773,0.02102
1407.09756,0.02080
1405.03738,0.02050
1402.97721,0.02014
1400.91704,0.01991
1398.85687,0.01990
1396.79670,0.02005
1394.73652,0.02021
1392.67635,0.02034
1390.61618,0.02062
1388.55601,0.02108
1386.49583,0.02165
1384.43566,0.02228
1382.37549,0.02306
1380.31532,0.02400
1378.25515,0.02502
1376.19497,0.02601
1374.13480,0.02680
1372.07463,0.02731
1370.01446,0.02769
1367.95429,0.02800
1365.89411,0.02813
1363.83394,0.02804
1361.77377,0.02782
1359.71360,0.02768
1357.65343,0.02765
1355.59325,0.02763
1353.53308,0.02766
1351.47291,0.02780
1349.41274,0.02801
1347.35256,0.02826
1345.29239,0.02857
1343.23222,0.02897
1341.17205,0.02939
1339.11188,0.02977
1337.05170,0.03008
1334.99153,0.03038
1332.93136,0.03076
1330.87119,0.03120
1328.81102,0.03171
1326.75084,0.03228
1324.69067,0.03294
1322.63050,0.03362
1320.57033,0.03420
1318.51015,0.03455
1316.44998,0.03468
1314.38981,0.03455
1312.32964,0.03408
1310.26947,0.03339
1308.20929,0.03253
1306.14912,0.03149
1304.08895,0.03033
1302.02878,0.02906
1299.96861,0.02763
1297.90843,0.02615
1295.84826,0.02486
1293.78809,0.02379
1291.72792,0.02281
1289.66775,0.02195
1287.60757,0.02138
1285.54740,0.02118
1283.48723,0.02117
1281.42706,0.02119
1279.36688,0.02124
1277.30671,0.02136
1275.24654,0.02162
1273.18637,0.02195
1271.12620,0.02231
1269.06602,0.02282
1267.00585,0.02349
1264.94568,0.02424
1262.88551,0.02499
1260.82534,0.02562
1258.76516,0.02614
1256.70499,0.02677
1254.64482,0.02742
1252.58465,0.02795
1250.52447,0.02842
1248.46430,0.02889
1246.40413,0.02946
1244.34396,0.03031
1242.28379,0.03126
1240.22361,0.03199
1238.16344,0.03255
1236.10327,0.03316
1234.04310,0.03372
1231.98293,0.03414
1229.92275,0.03452
1227.86258,0.03486
1225.80241,0.03519
1223.74224,0.03560
1221.68207,0.03617
1219.62189,0.03672
1217.56172,0.03699
1215.50155,0.03700
1213.44138,0.03703
1211.38120,0.03723
1209.32103,0.03754
1207.26086,0.03784
1205.20069,0.03823
1203.14052,0.03873
1201.08034,0.03914
1199.02017,0.03941
1196.96000,0.03956
1194.89983,0.03945
1192.83966,0.03903
1190.77948,0.03850
1188.71931,0.03798
1186.65914,0.03752
1184.59897,0.03705
1182.53880,0.03653
1180.47862,0.03616
1178.41845,0.03605
1176.35828,0.03614
1174.29811,0.03644
1172.23793,0.03696
1170.17776,0.03745
1168.11759,0.03776
1166.05742,0.03786
1163.99725,0.03768
1161.93707,0.03729
1159.87690,0.03681
1157.81673,0.03618
1155.75656,0.03530
1153.69639,0.03445
1151.63621,0.03384
1149.57604,0.03322
1147.51587,0.03238
1145.45570,0.03145
1143.39552,0.03055
1141.33535,0.02959
1139.27518,0.02857
1137.21501,0.02776
1135.15484,0.02738
1133.09466,0.02727
1131.03449,0.02727
1128.97432,0.02770
1126.91415,0.02868
1124.85398,0.02992
1122.79380,0.03125
1120.73363,0.03276
1118.67346,0.03446
1116.61329,0.03641
1114.55312,0.03870
1112.49294,0.04140
1110.43277,0.04423
1108.37260,0.04682
1106.31243,0.04904
1104.25225,0.05088
1102.19208,0.05251
1100.13191,0.05409
1098.07174,0.05546
1096.01157,0.05660
1093.95139,0.05767
1091.89122,0.05881
1089.83105,0.06014
1087.77088,0.06167
1085.71071,0.06340
1083.65053,0.06537
1081.59036,0.06746
1079.53019,0.06948
1077.47002,0.07129
1075.40985,0.07285
1073.34967,0.07431
1071.28950,0.07556
1069.22933,0.07652
1067.16916,0.07747
1065.10898,0.07844
1063.04881,0.07924
1060.98864,0.07995
1058.92847,0.08091
1056.86830,0.08214
1054.80812,0.08339
1052.74795,0.08458
1050.68778,0.08584
1048.62761,0.08713
1046.56744,0.08834
1044.50726,0.08958
1042.44709,0.09107
1040.38692,0.09275
1038.32675,0.09452
1036.26657,0.09637
1034.20640,0.09810
1032.14623,0.09953
1030.08606,0.10068
1028.02589,0.10156
1025.96571,0.10218
1023.90554,0.10269
1021.84537,0.10302
1019.78520,0.10315
1017.72503,0.10316
1015.66485,0.10284
1013.60468,0.10197
1011.54451,0.10075
1009.48434,0.09927
1007.42417,0.09736
1005.36399,0.09492
1003.30382,0.09217
1001.24365,0.08937
999.18348,0.08654
997.12330,0.08391
995.06313,0.08152
993.00296,0.07918
990.94279,0.07686
988.88262,0.07456
986.82244,0.07206
984.76227,0.06941
982.70210,0.06676
980.64193,0.06396
978.58176,0.06108
976.52158,0.05847
974.46141,0.05616
972.40124,0.05404
970.34107,0.05209
968.28089,0.05037
966.22072,0.04887
964.16055,0.04733
962.10038,0.04566
960.04021,0.04394
957.98003,0.04198
955.91986,0.03991
953.85969,0.03795
951.79952,0.03590
949.73935,0.03370
947.67917,0.03157
945.61900,0.02953
943.55883,0.02766
941.49866,0.02602
939.43849,0.02447
937.37831,0.02309
935.31814,0.02195
933.25797,0.02096
931.19780,0.02020
929.13762,0.01969
927.07745,0.01923
925.01728,0.01870
922.95711,0.01800
920.89694,0.01708
918.83676,0.01611
916.77659,0.01508
914.71642,0.01387
912.65625,0.01270
910.59608,0.01181
908.53590,0.01100
906.47573,0.01007
904.41556,0.00927
902.35539,0.00894
900.29522,0.00903
898.23504,0.00918
896.17487,0.00916
894.11470,0.00893
892.05453,0.00849
889.99435,0.00800
887.93418,0.00780
885.87401,0.00777
883.81384,0.00755
881.75367,0.00730
879.69349,0.00727
877.63332,0.00740
875.57315,0.00763
873.51298,0.00796
871.45281,0.00818
869.39263,0.00809
867.33246,0.00779
865.27229,0.00722
863.21212,0.00635
861.15194,0.00517
859.09177,0.00386
857.03160,0.00283
854.97143,0.00210
852.91126,0.00151
850.85108,0.00100
848.79091,0.00043
846.73074,0.00000
844.67057,0.00020
842.61040,0.00094
840.55022,0.00158
838.49005,0.00213
836.42988,0.00266
834.36971,0.00311
832.30954,0.00350
830.24936,0.00360
828.18919,0.00338
826.12902,0.00321
824.06885,0.00334
822.00867,0.00376
819.94850,0.00422
817.88833,0.00427
815.82816,0.00409
813.76799,0.00400
811.70781,0.00368
809.64764,0.00297
807.58747,0.00229
805.52730,0.00212
803.46713,0.00216
801.40695,0.00185
799.34678,0.00128
797.28661,0.00078
795.22644,0.00037
793.16627,0.00000
791.10609,-0.00010
789.04592,0.00055
786.98575,0.00094
784.92558,0.00131
782.86540,0.00213
780.80523,0.00269
778.74506,0.00258
776.68489,0.00223
774.62472,0.00213
772.56454,0.00248
770.50437,0.00283
768.44420,0.00305
766.38403,0.00387
764.32386,0.00547
762.26368,0.00722
760.20351,0.00844
758.14334,0.00896
756.08317,0.00930
754.02299,0.00937
751.96282,0.00853
749.90265,0.00692
747.84248,0.00540
745.78231,0.00445
743.72213,0.00383
741.66196,0.00314
739.60179,0.00216
737.54162,0.00121
735.48145,0.00054
733.42127,0.00009
731.36110,0.00044
729.30093,0.00168
727.24076,0.00274
725.18059,0.00323
723.12041,0.00396
721.06024,0.00344
719.00007,0.00339
716.93990,0.00267
714.87972,0.00149
712.81955,0.00092
710.75938,0.00055
708.69921,0.00003
706.63904,-0.00022
704.57886,0.00008
702.51869,0.00045
700.45852,0.00050
698.39835,0.00032
696.33818,0.00008
694.27800,-0.00018
692.21783,-0.00074
690.15766,-0.00171
688.09749,-0.00256
686.03731,-0.00246
683.97714,-0.00140
681.91697,-0.00052
679.85680,-0.00052
677.79663,-0.00075
675.73645,-0.00035
673.67628,0.00222
671.61611,0.00649
669.55594,-0.00080
667.49577,-0.01027
665.43559,0.00499
663.37542,0.00322
661.31525,-0.00065
659.25508,-0.00080
657.19491,-0.00044
655.13473,-0.00068
653.07456,-0.00073
651.01439,-0.00027
648.95422,0.00000
646.89404,0.00001
644.83387,-0.00093
642.77370,-0.00174
640.71353,-0.00184
638.65336,-0.00157
636.59318,-0.00140
634.53301,-0.00148
632.47284,-0.00188
630.41267,-0.00289
628.35250,-0.00401
626.29232,-0.00405
624.23215,-0.00361
622.17198,-0.00271
620.11181,-0.00118
618.05164,0.00045
615.99146,0.00183
613.93129,0.00208
611.87112,0.00116
609.81095,0.00079
607.75077,0.00175
605.69060,0.00186
603.63043,0.00108
601.57026,0.00074
599.51009,0.00000
