3996.73391,-0.00105
3994.67373,-0.00070
3992.61356,-0.00023
3990.55339,0.00031
3988.49322,0.00068
3986.43305,0.00080
3984.37287,0.00074
3982.31270,0.00043
3980.25253,-0.00001
3978.19236,-0.00029
3976.13219,-0.00028
3974.07201,0.00000
3972.01184,0.00039
3969.95167,0.00052
3967.89150,0.00027
3965.83133,0.00000
3963.77115,0.00013
3961.71098,0.00072
3959.65081,0.00125
3957.59064,0.00118
3955.53046,0.00091
3953.47029,0.00106
3951.41012,0.00142
3949.34995,0.00166
3947.28978,0.00168
3945.22960,0.00128
3943.16943,0.00083
3941.10926,0.00086
3939.04909,0.00096
3936.98892,0.00076
3934.92874,0.00044
3932.86857,0.00013
3930.80840,0.00000
3928.74823,0.00043
3926.68805,0.00135
3924.62788,0.00203
3922.56771,0.00210
3920.50754,0.00183
3918.44737,0.00163
3916.38719,0.00155
3914.32702,0.00139
3912.26685,0.00109
3910.20668,0.00077
3908.14651,0.00056
3906.08633,0.00065
3904.02616,0.00145
3901.96599,0.00279
3899.90582,0.00374
3897.84565,0.00351
3895.78547,0.00238
3893.72530,0.00152
3891.66513,0.00166
3889.60496,0.00218
3887.54478,0.00198
3885.48461,0.00145
3883.42444,0.00156
3881.36427,0.00203
3879.30410,0.00228
3877.24392,0.00238
3875.18375,0.00250
3873.12358,0.00265
3871.06341,0.00285
3869.00324,0.00316
3866.94306,0.00351
3864.88289,0.00352
3862.82272,0.00317
3860.76255,0.00286
3858.70237,0.00236
3856.64220,0.00114
3854.58203,0.00000
3852.52186,0.00076
3850.46169,0.00246
3848.40151,0.00285
3846.34134,0.00204
3844.28117,0.00130
3842.22100,0.00128
3840.16083,0.00143
3838.10065,0.00143
3836.04048,0.00157
3833.98031,0.00171
3831.92014,0.00195
3829.85997,0.00223
3827.79979,0.00222
3825.73962,0.00201
3823.67945,0.00201
3821.61928,0.00242
3819.55910,0.00276
3817.49893,0.00251
3815.43876,0.00237
3813.37859,0.00260
3811.31842,0.00240
3809.25824,0.00157
3807.19807,0.00098
3805.13790,0.00117
3803.07773,0.00131
3801.01756,0.00123
3798.95738,0.00133
3796.89721,0.00127
3794.83704,0.00115
3792.77687,0.00137
3790.71670,0.00172
3788.65652,0.00204
3786.59635,0.00235
3784.53618,0.00251
3782.47601,0.00247
3780.41583,0.00244
3778.35566,0.00247
3776.29549,0.00216
3774.23532,0.00151
3772.17515,0.00092
3770.11497,0.00077
3768.05480,0.00136
3765.99463,0.00215
3763.93446,0.00227
3761.87429,0.00181
3759.81411,0.00149
3757.75394,0.00150
3755.69377,0.00148
3753.63360,0.00124
3751.57342,0.00085
3749.51325,0.00066
3747.45308,0.00079
3745.39291,0.00126
3743.33274,0.00220
3741.27256,0.00315
3739.21239,0.00351
3737.15222,0.00309
3735.09205,0.00216
3733.03188,0.00124
3730.97170,0.00055
3728.91153,0.00007
3726.85136,0.00000
3724.79119,0.00072
3722.73102,0.00189
3720.67084,0.00252
3718.61067,0.00239
3716.55050,0.00197
3714.49033,0.00140
3712.43015,0.00089
3710.36998,0.00114
3708.30981,0.00214
3706.24964,0.00276
3704.18947,0.00246
3702.12929,0.00157
3700.06912,0.00079
3698.00895,0.00061
3695.94878,0.00087
3693.88861,0.00117
3691.82843,0.00131
3689.76826,0.00133
3687.70809,0.00137
3685.64792,0.00155
3683.58775,0.00183
3681.52757,0.00197
3679.46740,0.00166
3677.40723,0.00118
3675.34706,0.00129
3673.28688,0.00166
3671.22671,0.00151
3669.16654,0.00161
3667.10637,0.00231
3665.04620,0.00270
3662.98602,0.00261
3660.92585,0.00239
3658.86568,0.00221
3656.80551,0.00216
3654.74534,0.00207
3652.68516,0.00184
3650.62499,0.00192
3648.56482,0.00271
3646.50465,0.00382
3644.44447,0.00455
3642.38430,0.00448
3640.32413,0.00409
3638.26396,0.00407
3636.20379,0.00440
3634.14361,0.00450
3632.08344,0.00370
3630.02327,0.00272
3627.96310,0.00334
3625.90293,0.00474
3623.84275,0.00506
3621.78258,0.00478
3619.72241,0.00485
3617.66224,0.00513
3615.60207,0.00536
3613.54189,0.00586
3611.48172,0.00648
3609.42155,0.00654
3607.36138,0.00654
3605.30120,0.00723
3603.24103,0.00789
3601.18086,0.00826
3599.12069,0.00863
3597.06052,0.00888
3595.00034,0.00875
3592.94017,0.00834
3590.88000,0.00814
3588.81983,0.00887
3586.75966,0.01031
3584.69948,0.01113
3582.63931,0.01121
3580.57914,0.01131
3578.51897,0.01153
3576.45879,0.01171
3574.39862,0.01205
3572.33845,0.01266
3570.27828,0.01318
3568.21811,0.01313
3566.15793,0.01260
3564.09776,0.01256
3562.03759,0.01350
3559.97742,0.01478
3557.91725,0.01573
3555.85707,0.01617
3553.79690,0.01610
3551.73673,0.01605
3549.67656,0.01651
3547.61639,0.01709
3545.55621,0.01742
3543.49604,0.01790
3541.43587,0.01855
3539.37570,0.01888
3537.31552,0.01907
3535.25535,0.01955
3533.19518,0.01996
3531.13501,0.01990
3529.07484,0.01975
3527.01466,0.02020
3524.95449,0.02138
3522.89432,0.02252
3520.83415,0.02305
3518.77398,0.02317
3516.71380,0.02326
3514.65363,0.02342
3512.59346,0.02385
3510.53329,0.02445
3508.47312,0.02474
3506.41294,0.02472
3504.35277,0.02488
3502.29260,0.02536
3500.23243,0.02596
3498.17225,0.02644
3496.11208,0.02673
3494.05191,0.02689
3491.99174,0.02721
3489.93157,0.02782
3487.87139,0.02851
3485.81122,0.02914
3483.75105,0.02956
3481.69088,0.02963
3479.63071,0.02944
3477.57053,0.02957
3475.51036,0.03041
3473.45019,0.03150
3471.39002,0.03221
3469.32984,0.03250
3467.26967,0.03284
3465.20950,0.03366
3463.14933,0.03455
3461.08916,0.03472
3459.02898,0.03443
3456.96881,0.03448
3454.90864,0.03498
3452.84847,0.03544
3450.78830,0.03583
3448.72812,0.03645
3446.66795,0.03704
3444.60778,0.03723
3442.54761,0.03747
3440.48744,0.03822
3438.42726,0.03895
3436.36709,0.03927
3434.30692,0.03950
3432.24675,0.03967
3430.18657,0.03960
3428.12640,0.03973
3426.06623,0.04032
3424.00606,0.04058
3421.94589,0.04058
3419.88571,0.04116
3417.82554,0.04168
3415.76537,0.04169
3413.70520,0.04190
3411.64503,0.04230
3409.58485,0.04265
3407.52468,0.04311
3405.46451,0.04347
3403.40434,0.04360
3401.34416,0.04374
3399.28399,0.04395
3397.22382,0.04415
3395.16365,0.04479
3393.10348,0.04564
3391.04330,0.04607
3388.98313,0.04607
3386.92296,0.04582
3384.86279,0.04569
3382.80262,0.04615
3380.74244,0.04657
3378.68227,0.04630
3376.62210,0.04615
3374.56193,0.04675
3372.50176,0.04751
3370.44158,0.04794
3368.38141,0.04828
3366.32124,0.04866
3364.26107,0.04877
3362.20089,0.04862
3360.14072,0.04856
3358.08055,0.04881
3356.02038,0.04925
3353.96021,0.04965
3351.90003,0.04987
3349.83986,0.05003
3347.77969,0.05003
3345.71952,0.04988
3343.65935,0.05017
3341.59917,0.05084
3339.53900,0.05128
3337.47883,0.05153
3335.41866,0.05180
3333.35849,0.05167
3331.29831,0.05110
3329.23814,0.05093
3327.17797,0.05153
3325.11780,0.05214
3323.05762,0.05228
3320.99745,0.05216
3318.93728,0.05191
3316.87711,0.05177
3314.81694,0.05182
3312.75676,0.05189
3310.69659,0.05190
3308.63642,0.05189
3306.57625,0.05231
3304.51608,0.05286
3302.45590,0.05264
3300.39573,0.05218
3298.33556,0.05251
3296.27539,0.05326
3294.21521,0.05369
3292.15504,0.05380
3290.09487,0.05363
3288.03470,0.05316
3285.97453,0.05277
3283.91435,0.05286
3281.85418,0.05318
3279.79401,0.05338
3277.73384,0.05342
3275.67367,0.05301
3273.61349,0.05230
3271.55332,0.05207
3269.49315,0.05238
3267.43298,0.05277
3265.37281,0.05286
3263.31263,0.05278
3261.25246,0.05308
3259.19229,0.05361
3257.13212,0.05361
3255.07194,0.05291
3253.01177,0.05241
3250.95160,0.05251
3248.89143,0.05263
3246.83126,0.05251
3244.77108,0.05226
3242.71091,0.05192
3240.65074,0.05163
3238.59057,0.05157
3236.53040,0.05160
3234.47022,0.05149
3232.41005,0.05132
3230.34988,0.05139
3228.28971,0.05160
3226.22954,0.05170
3224.16936,0.05171
3222.10919,0.05134
3220.04902,0.05069
3217.98885,0.05049
3215.92867,0.05077
3213.86850,0.05101
3211.80833,0.05103
3209.74816,0.05088
3207.68799,0.05063
3205.62781,0.05038
3203.56764,0.05016
3201.50747,0.04990
3199.44730,0.04982
3197.38713,0.04987
3195.32695,0.04958
3193.26678,0.04908
3191.20661,0.04864
3189.14644,0.04836
3187.08626,0.04851
3185.02609,0.04858
3182.96592,0.04803
3180.90575,0.04722
3178.84558,0.04680
3176.78540,0.04706
3174.72523,0.04733
3172.66506,0.04699
3170.60489,0.04642
3168.54472,0.04620
3166.48454,0.04627
3164.42437,0.04608
3162.36420,0.04572
3160.30403,0.04579
3158.24386,0.04601
3156.18368,0.04569
3154.12351,0.04488
3152.06334,0.04422
3150.00317,0.04406
3147.94299,0.04391
3145.88282,0.04367
3143.82265,0.04384
3141.76248,0.04424
3139.70231,0.04424
3137.64213,0.04374
3135.58196,0.04308
3133.52179,0.04264
3131.46162,0.04243
3129.40145,0.04223
3127.34127,0.04212
3125.28110,0.04207
3123.22093,0.04192
3121.16076,0.04163
3119.10058,0.04123
3117.04041,0.04082
3114.98024,0.04043
3112.92007,0.04011
3110.85990,0.03995
3108.79972,0.03975
3106.73955,0.03941
3104.67938,0.03919
3102.61921,0.03911
3100.55904,0.03907
3098.49886,0.03901
3096.43869,0.03875
3094.37852,0.03820
3092.31835,0.03771
3090.25818,0.03762
3088.19800,0.03764
3086.13783,0.03755
3084.07766,0.03755
3082.01749,0.03772
3079.95731,0.03778
3077.89714,0.03742
3075.83697,0.03689
3073.77680,0.03667
3071.71663,0.03655
3069.65645,0.03610
3067.59628,0.03555
3065.53611,0.03523
3063.47594,0.03514
3061.41577,0.03508
3059.35559,0.03505
3057.29542,0.03488
3055.23525,0.03449
3053.17508,0.03404
3051.11491,0.03354
3049.05473,0.03313
3046.99456,0.03315
3044.93439,0.03320
3042.87422,0.03282
3040.81404,0.03252
3038.75387,0.03254
3036.69370,0.03237
3034.63353,0.03197
3032.57336,0.03176
3030.51318,0.03164
3028.45301,0.03124
3026.39284,0.03081
3024.33267,0.03080
3022.27250,0.03082
3020.21232,0.03045
3018.15215,0.03018
3016.09198,0.03040
3014.03181,0.03084
3011.97163,0.03092
3009.91146,0.03039
3007.85129,0.02975
3005.79112,0.02948
3003.73095,0.02940
3001.67077,0.02924
2999.61060,0.02912
2997.55043,0.02913
2995.49026,0.02914
2993.43009,0.02921
2991.36991,0.02906
2989.30974,0.02859
2987.24957,0.02859
2985.18940,0.02920
2983.12923,0.02968
2981.06905,0.02959
2979.00888,0.02931
2976.94871,0.02972
2974.88854,0.03089
2972.82836,0.03180
2970.76819,0.03222
2968.70802,0.03284
2966.64785,0.03383
2964.58768,0.03496
2962.52750,0.03620
2960.46733,0.03757
2958.40716,0.03891
2956.34699,0.04006
2954.28682,0.04119
2952.22664,0.04245
2950.16647,0.04371
2948.10630,0.04500
2946.04613,0.04651
2943.98596,0.04809
2941.92578,0.04947
2939.86561,0.05101
2937.80544,0.05330
2935.74527,0.05597
2933.68509,0.05857
2931.62492,0.06117
2929.56475,0.06373
2927.50458,0.06631
2925.44441,0.06871
2923.38423,0.07075
2921.32406,0.07296
2919.26389,0.07528
2917.20372,0.07621
2915.14355,0.07444
2913.08337,0.07032
2911.02320,0.06562
2908.96303,0.06168
2906.90286,0.05863
2904.84268,0.05640
2902.78251,0.05480
2900.72234,0.05339
2898.66217,0.05210
2896.60200,0.05090
2894.54182,0.04966
2892.48165,0.04842
2890.42148,0.04715
2888.36131,0.04592
2886.30114,0.04498
2884.24096,0.04417
2882.18079,0.04341
2880.12062,0.04295
2878.06045,0.04265
2876.00028,0.04260
2873.94010,0.04286
2871.87993,0.04305
2869.81976,0.04322
2867.75959,0.04356
2865.69941,0.04429
2863.63924,0.04548
2861.57907,0.04692
2859.51890,0.04855
2857.45873,0.05059
2855.39855,0.05348
2853.33838,0.05694
2851.27821,0.05984
2849.21804,0.06040
2847.15787,0.05729
2845.09769,0.05193
2843.03752,0.04700
2840.97735,0.04341
2838.91718,0.04077
2836.85700,0.03858
2834.79683,0.03656
2832.73666,0.03499
2830.67649,0.03393
2828.61632,0.03304
2826.55614,0.03242
2824.49597,0.03201
2822.43580,0.03149
2820.37563,0.03085
2818.31546,0.03016
2816.25528,0.02972
2814.19511,0.02947
2812.13494,0.02917
2810.07477,0.02904
2808.01460,0.02895
2805.95442,0.02868
2803.89425,0.02854
2801.83408,0.02855
2799.77391,0.02815
2797.71373,0.02735
2795.65356,0.02672
2793.59339,0.02662
2791.53322,0.02683
2789.47305,0.02689
2787.41287,0.02660
2785.35270,0.02614
2783.29253,0.02579
2781.23236,0.02561
2779.17219,0.02560
2777.11201,0.02573
2775.05184,0.02598
2772.99167,0.02601
2770.93150,0.02571
2768.87133,0.02548
2766.81115,0.02526
2764.75098,0.02498
2762.69081,0.02477
2760.63064,0.02471
2758.57046,0.02467
2756.51029,0.02445
2754.45012,0.02420
2752.38995,0.02415
2750.32978,0.02423
2748.26960,0.02432
2746.20943,0.02438
2744.14926,0.02425
2742.08909,0.02410
2740.02892,0.02416
2737.96874,0.02414
2735.90857,0.02384
2733.84840,0.02346
2731.78823,0.02332
2729.72805,0.02347
2727.66788,0.02352
2725.60771,0.02337
2723.54754,0.02324
2721.48737,0.02311
2719.42719,0.02315
2717.36702,0.02344
2715.30685,0.02361
2713.24668,0.02346
2711.18651,0.02323
2709.12633,0.02303
2707.06616,0.02284
2705.00599,0.02269
2702.94582,0.02253
2700.88565,0.02254
2698.82547,0.02274
2696.76530,0.02269
2694.70513,0.02236
2692.64496,0.02197
2690.58478,0.02162
2688.52461,0.02157
2686.46444,0.02184
2684.40427,0.02202
2682.34410,0.02192
2680.28392,0.02171
2678.22375,0.02152
2676.16358,0.02125
2674.10341,0.02098
2672.04324,0.02087
2669.98306,0.02088
2667.92289,0.02089
2665.86272,0.02083
2663.80255,0.02091
2661.74238,0.02109
2659.68220,0.02119
2657.62203,0.02118
2655.56186,0.02082
2653.50169,0.02036
2651.44151,0.02025
2649.38134,0.02042
2647.32117,0.02056
2645.26100,0.02047
2643.20083,0.02018
2641.14065,0.01994
2639.08048,0.01994
2637.02031,0.02024
2634.96014,0.02047
2632.89997,0.02011
2630.83979,0.01942
2628.77962,0.01887
2626.71945,0.01853
2624.65928,0.01866
2622.59910,0.01904
2620.53893,0.01896
2618.47876,0.01840
2616.41859,0.01802
2614.35842,0.01796
2612.29824,0.01771
2610.23807,0.01745
2608.17790,0.01771
2606.11773,0.01805
2604.05756,0.01782
2601.99738,0.01730
2599.93721,0.01713
2597.87704,0.01725
2595.81687,0.01723
2593.75670,0.01717
2591.69652,0.01725
2589.63635,0.01726
2587.57618,0.01690
2585.51601,0.01634
2583.45583,0.01606
2581.39566,0.01618
2579.33549,0.01632
2577.27532,0.01610
2575.21515,0.01594
2573.15497,0.01616
2571.09480,0.01631
2569.03463,0.01613
2566.97446,0.01578
2564.91429,0.01553
2562.85411,0.01555
2560.79394,0.01548
2558.73377,0.01472
2556.67360,0.01411
2554.61342,0.01465
2552.55325,0.01539
2550.49308,0.01542
2548.43291,0.01519
2546.37274,0.01506
2544.31256,0.01496
2542.25239,0.01517
2540.19222,0.01567
2538.13205,0.01589
2536.07188,0.01572
2534.01170,0.01554
2531.95153,0.01552
2529.89136,0.01531
2527.83119,0.01499
2525.77102,0.01494
2523.71084,0.01488
2521.65067,0.01460
2519.59050,0.01439
2517.53033,0.01426
2515.47015,0.01425
2513.40998,0.01437
2511.34981,0.01416
2509.28964,0.01391
2507.22947,0.01415
2505.16929,0.01458
2503.10912,0.01451
2501.04895,0.01386
2498.98878,0.01326
2496.92861,0.01306
2494.86843,0.01329
2492.80826,0.01376
2490.74809,0.01407
2488.68792,0.01408
2486.62775,0.01408
2484.56757,0.01393
2482.50740,0.01323
2480.44723,0.01256
2478.38706,0.01258
2476.32688,0.01296
2474.26671,0.01303
2472.20654,0.01261
2470.14637,0.01247
2468.08620,0.01289
2466.02602,0.01304
2463.96585,0.01278
2461.90568,0.01250
2459.84551,0.01211
2457.78534,0.01184
2455.72516,0.01219
2453.66499,0.01294
2451.60482,0.01330
2449.54465,0.01318
2447.48447,0.01321
2445.42430,0.01321
2443.36413,0.01263
2441.30396,0.01177
2439.24379,0.01136
2437.18361,0.01160
2435.12344,0.01191
2433.06327,0.01189
2431.00310,0.01191
2428.94293,0.01203
2426.88275,0.01201
2424.82258,0.01182
2422.76241,0.01144
2420.70224,0.01114
2418.64207,0.01120
2416.58189,0.01139
2414.52172,0.01126
2412.46155,0.01073
2410.40138,0.01033
2408.34120,0.01046
2406.28103,0.01093
2404.22086,0.01138
2402.16069,0.01142
2400.10052,0.01089
2398.04034,0.01055
2395.98017,0.01068
2393.92000,0.01093
2391.85983,0.01080
2389.79966,0.01050
2387.73948,0.01034
2385.67931,0.01017
2383.61914,0.01009
2381.55897,0.01043
2379.49880,0.01125
2377.43862,0.01216
2375.37845,0.01246
2373.31828,0.01137
2371.25811,0.00949
2369.19793,0.00874
2367.13776,0.00933
2365.07759,0.00964
2363.01742,0.00921
2360.95725,0.00739
2358.89707,0.00616
2356.83690,0.00782
2354.77673,0.01164
2352.71656,0.01341
2350.65639,0.01142
2348.59621,0.00933
2346.53604,0.01009
2344.47587,0.01112
2342.41570,0.01220
2340.35552,0.01254
2338.29535,0.01191
2336.23518,0.01073
2334.17501,0.00999
2332.11484,0.01109
2330.05466,0.01287
2327.99449,0.01358
2325.93432,0.01250
2323.87415,0.01126
2321.81398,0.01044
2319.75380,0.01015
2317.69363,0.01007
2315.63346,0.01038
2313.57329,0.01057
2311.51312,0.01031
2309.45294,0.01018
2307.39277,0.01054
2305.33260,0.01106
2303.27243,0.01128
2301.21225,0.01110
2299.15208,0.01066
2297.09191,0.01031
2295.03174,0.01019
2292.97157,0.01014
2290.91139,0.00999
2288.85122,0.00980
2286.79105,0.00945
2284.73088,0.00901
2282.67071,0.00924
2280.61053,0.01012
2278.55036,0.01054
2276.49019,0.00987
2274.43002,0.00870
2272.36984,0.00826
2270.30967,0.00871
2268.24950,0.00876
2266.18933,0.00831
2264.12916,0.00855
2262.06898,0.00914
2260.00881,0.00901
2257.94864,0.00839
2255.88847,0.00793
2253.82830,0.00767
2251.76812,0.00745
2249.70795,0.00726
2247.64778,0.00727
2245.58761,0.00747
2243.52744,0.00729
2241.46726,0.00749
2239.40709,0.00829
2237.34692,0.00859
2235.28675,0.00821
2233.22657,0.00745
2231.16640,0.00636
2229.10623,0.00509
2227.04606,0.00459
2224.98589,0.00536
2222.92571,0.00624
2220.86554,0.00683
2218.80537,0.00759
2216.74520,0.00779
2214.68503,0.00681
2212.62485,0.00602
2210.56468,0.00657
2208.50451,0.00744
2206.44434,0.00715
2204.38417,0.00551
2202.32399,0.00444
2200.26382,0.00540
2198.20365,0.00708
2196.14348,0.00786
2194.08330,0.00765
2192.02313,0.00693
2189.96296,0.00602
2187.90279,0.00527
2185.84262,0.00515
2183.78244,0.00577
2181.72227,0.00626
2179.66210,0.00629
2177.60193,0.00689
2175.54176,0.00804
2173.48158,0.00809
2171.42141,0.00732
2169.36124,0.00722
2167.30107,0.00683
2165.24089,0.00544
2163.18072,0.00360
2161.12055,0.00159
2159.06038,0.00111
2157.00021,0.00343
2154.94003,0.00590
2152.87986,0.00502
2150.81969,0.00179
2148.75952,0.00052
2146.69935,0.00239
2144.63917,0.00444
2142.57900,0.00469
2140.51883,0.00428
2138.45866,0.00447
2136.39849,0.00540
2134.33831,0.00644
2132.27814,0.00660
2130.21797,0.00570
2128.15780,0.00508
2126.09762,0.00566
2124.03745,0.00596
2121.97728,0.00539
2119.91711,0.00534
2117.85694,0.00612
2115.79676,0.00687
2113.73659,0.00715
2111.67642,0.00696
2109.61625,0.00634
2107.55608,0.00557
2105.49590,0.00522
2103.43573,0.00519
2101.37556,0.00537
2099.31539,0.00603
2097.25521,0.00675
2095.19504,0.00712
2093.13487,0.00709
2091.07470,0.00676
2089.01453,0.00655
2086.95435,0.00656
2084.89418,0.00630
2082.83401,0.00576
2080.77384,0.00593
2078.71367,0.00651
2076.65349,0.00588
2074.59332,0.00481
2072.53315,0.00557
2070.47298,0.00742
2068.41281,0.00823
2066.35263,0.00759
2064.29246,0.00596
2062.23229,0.00447
2060.17212,0.00388
2058.11194,0.00386
2056.05177,0.00464
2053.99160,0.00646
2051.93143,0.00793
2049.87126,0.00786
2047.81108,0.00659
2045.75091,0.00590
2043.69074,0.00687
2041.63057,0.00851
2039.57040,0.00930
2037.51022,0.00809
2035.45005,0.00592
2033.38988,0.00470
2031.32971,0.00445
2029.26954,0.00533
2027.20936,0.00686
2025.14919,0.00709
2023.08902,0.00564
2021.02885,0.00396
2018.96867,0.00221
2016.90850,0.00026
2014.84833,0.00000
2012.78816,0.00210
2010.72799,0.00438
2008.66781,0.00492
2006.60764,0.00412
2004.54747,0.00345
2002.48730,0.00319
2000.42713,0.00280
1998.36695,0.00290
1996.30678,0.00340
1994.24661,0.00311
1992.18644,0.00241
1990.12626,0.00244
1988.06609,0.00339
1986.00592,0.00440
1983.94575,0.00431
1981.88558,0.00324
1979.82540,0.00262
1977.76523,0.00267
1975.70506,0.00286
1973.64489,0.00355
1971.58472,0.00405
1969.52454,0.00251
1967.46437,0.00000
1965.40420,0.00006
1963.34403,0.00240
1961.28386,0.00346
1959.22368,0.00204
1957.16351,0.00099
1955.10334,0.00224
1953.04317,0.00377
1950.98299,0.00425
1948.92282,0.00408
1946.86265,0.00320
1944.80248,0.00208
1942.74231,0.00176
1940.68213,0.00251
1938.62196,0.00322
1936.56179,0.00335
1934.50162,0.00358
1932.44145,0.00408
1930.38127,0.00428
1928.32110,0.00413
1926.26093,0.00383
1924.20076,0.00344
1922.14059,0.00312
1920.08041,0.00282
1918.02024,0.00262
1915.96007,0.00287
1913.89990,0.00328
1911.83972,0.00357
1909.77955,0.00376
1907.71938,0.00350
1905.65921,0.00279
1903.59904,0.00250
1901.53886,0.00316
1899.47869,0.00396
1897.41852,0.00370
1895.35835,0.00293
1893.29818,0.00301
1891.23800,0.00341
1889.17783,0.00332
1887.11766,0.00335
1885.05749,0.00368
1882.99731,0.00349
1880.93714,0.00262
1878.87697,0.00219
1876.81680,0.00265
1874.75663,0.00309
1872.69645,0.00292
1870.63628,0.00239
1868.57611,0.00191
1866.51594,0.00184
1864.45577,0.00241
1862.39559,0.00319
1860.33542,0.00340
1858.27525,0.00283
1856.21508,0.00214
1854.15491,0.00184
1852.09473,0.00174
1850.03456,0.00152
1847.97439,0.00112
1845.91422,0.00085
1843.85404,0.00091
1841.79387,0.00103
1839.73370,0.00096
1837.67353,0.00104
1835.61336,0.00131
1833.55318,0.00121
1831.49301,0.00058
1829.43284,0.00003
1827.37267,0.00000
1825.31250,0.00032
1823.25232,0.00083
1821.19215,0.00112
1819.13198,0.00082
1817.07181,0.00035
1815.01163,0.00032
1812.95146,0.00061
1810.89129,0.00080
1808.83112,0.00083
1806.77095,0.00073
1804.71077,0.00058
1802.65060,0.00067
1800.59043,0.00097
1798.53026,0.00121
1796.47009,0.00114
1794.40991,0.00065
1792.34974,0.00005
1790.28957,-0.00012
1788.22940,-0.00003
1786.16923,0.00002
1784.10905,0.00013
1782.04888,0.00032
1779.98871,0.00050
1777.92854,0.00070
1775.86836,0.00067
1773.80819,0.00029
1771.74802,0.00000
1769.68785,0.00009
1767.62768,0.00046
1765.56750,0.00102
1763.50733,0.00178
1761.44716,0.00258
1759.38699,0.00322
1757.32682,0.00379
1755.26664,0.00452
1753.20647,0.00533
1751.14630,0.00627
1749.08613,0.00789
1747.02596,0.01030
1744.96578,0.01319
1742.90561,0.01680
1740.84544,0.02131
1738.78527,0.02579
1736.72509,0.02920
1734.66492,0.03199
1732.60475,0.03444
1730.54458,0.03587
1728.48441,0.03653
1726.42423,0.03658
1724.36406,0.03596
1722.30389,0.03497
1720.24372,0.03397
1718.18355,0.03312
1716.12337,0.03271
1714.06320,0.03288
1712.00303,0.03330
1709.94286,0.03340
1707.88268,0.03273
1705.82251,0.03146
1703.76234,0.03022
1701.70217,0.02906
1699.64200,0.02793
1697.58182,0.02750
1695.52165,0.02755
1693.46148,0.02731
1691.40131,0.02676
1689.34114,0.02633
1687.28096,0.02594
1685.22079,0.02513
1683.16062,0.02461
1681.10045,0.02517
1679.04028,0.02593
1676.98010,0.02611
1674.91993,0.02571
1672.85976,0.02531
1670.79959,0.02552
1668.73941,0.02657
1666.67924,0.02787
1664.61907,0.02877
1662.55890,0.02953
1660.49873,0.03057
1658.43855,0.03179
1656.37838,0.03294
1654.31821,0.03400
1652.25804,0.03476
1650.19787,0.03481
1648.13769,0.03456
1646.07752,0.03494
1644.01735,0.03595
1641.95718,0.03676
1639.89701,0.03719
1637.83683,0.03746
1635.77666,0.03799
1633.71649,0.03880
1631.65632,0.03939
1629.59614,0.03978
1627.53597,0.04026
1625.47580,0.04084
1623.41563,0.04135
1621.35546,0.04176
1619.29528,0.04220
1617.23511,0.04293
1615.17494,0.04416
1613.11477,0.04553
1611.05460,0.04673
1608.99442,0.04761
1606.93425,0.04793
1604.87408,0.04774
1602.81391,0.04745
1600.75373,0.04708
1598.69356,0.04618
1596.63339,0.04466
1594.57322,0.04298
1592.51305,0.04139
1590.45287,0.03979
1588.39270,0.03814
1586.33253,0.03647
1584.27236,0.03480
1582.21219,0.03333
1580.15201,0.03200
1578.09184,0.03014
1576.03167,0.02784
1573.97150,0.02646
1571.91133,0.02591
1569.85115,0.02516
1567.79098,0.02404
1565.73081,0.02292
1563.67064,0.02197
1561.61046,0.02097
1559.55029,0.01987
1557.49012,0.01965
1555.42995,0.02017
1553.36978,0.02046
1551.30960,0.02051
1549.24943,0.02059
1547.18926,0.02053
1545.12909,0.01987
1543.06892,0.01868
1541.00874,0.01787
1538.94857,0.01818
1536.88840,0.01881
1534.82823,0.01891
1532.76805,0.01862
1530.70788,0.01829
1528.64771,0.01766
1526.58754,0.01659
1524.52737,0.01561
1522.46719,0.01512
1520.40702,0.01516
1518.34685,0.01540
1516.28668,0.01564
1514.22651,0.01588
1512.16633,0.01569
1510.10616,0.01461
1508.04599,0.01276
1505.98582,0.01124
1503.92565,0.01075
1501.86547,0.01030
1499.80530,0.00942
1497.74513,0.00844
1495.68496,0.00768
1493.62478,0.00683
1491.56461,0.00551
1489.50444,0.00409
1487.44427,0.00360
1485.38410,0.00396
1483.32392,0.00430
1481.26375,0.00445
1479.20358,0.00484
1477.14341,0.00569
1475.08324,0.00728
1473.02306,0.00994
1470.96289,0.01305
1468.90272,0.01559
1466.84255,0.01791
1464.78238,0.02043
1462.72220,0.02244
1460.66203,0.02337
1458.60186,0.02403
1456.54169,0.02542
1454.48151,0.02703
1452.42134,0.02799
1450.36117,0.02845
1448.30100,0.02903
1446.24083,0.03001
1444.18065,0.03090
1442.12048,0.03126
1440.06031,0.03102
1438.00014,0.03011
1435.93997,0.02870
1433.87979,0.02738
1431.81962,0.02618
1429.75945,0.02500
1427.69928,0.02408
1425.63910,0.02338
1423.57893,0.02284
1421.51876,0.02259
1419.45859,0.02260
1417.39842,0.02275
1415.33824,0.02284
1413.27807,0.02272
1411.21790,0.02243
1409.15773,0.02214
1407.09756,0.02200
1405.03738,0.02204
1402.97721,0.02223
1400.91704,0.02225
1398.85687,0.02198
1396.79670,0.02181
1394.73652,0.02221
1392.67635,0.02301
1390.61618,0.02374
1388.55601,0.02427
1386.49583,0.02487
1384.43566,0.02561
1382.37549,0.02648
1380.31532,0.02761
1378.25515,0.02890
1376.19497,0.02992
1374.13480,0.03050
1372.07463,0.03089
1370.01446,0.03120
1367.95429,0.03138
1365.89411,0.03128
1363.83394,0.03085
1361.77377,0.03052
1359.71360,0.03070
1357.65343,0.03110
1355.59325,0.03149
1353.53308,0.03194
1351.47291,0.03241
1349.41274,0.03268
1347.35256,0.03271
1345.29239,0.03271
1343.23222,0.03276
1341.17205,0.03274
1339.11188,0.03284
1337.05170,0.03330
1334.99153,0.03393
1332.93136,0.03456
1330.87119,0.03524
1328.81102,0.03596
1326.75084,0.03669
1324.69067,0.03746
1322.63050,0.03825
1320.57033,0.03877
1318.51015,0.03882
1316.44998,0.03858
1314.38981,0.03828
1312.32964,0.03794
1310.26947,0.03730
1308.20929,0.03609
1306.14912,0.03463
1304.08895,0.03316
1302.02878,0.03146
1299.96861,0.02951
1297.90843,0.02763
1295.84826,0.02608
1293.78809,0.02479
1291.72792,0.02362
1289.66775,0.02274
1287.60757,0.02230
1285.54740,0.02201
1283.48723,0.02170
1281.42706,0.02136
1279.36688,0.02095
1277.30671,0.02069
1275.24654,0.02083
1273.18637,0.02129
1271.12620,0.02181
1269.06602,0.02220
1267.00585,0.02264
1264.94568,0.02324
1262.88551,0.02379
1260.82534,0.02434
1258.76516,0.02504
1256.70499,0.02575
1254.64482,0.02636
1252.58465,0.02686
1250.52447,0.02731
1248.46430,0.02776
1246.40413,0.02813
1244.34396,0.02861
1242.28379,0.02937
1240.22361,0.03022
1238.16344,0.03090
1236.10327,0.03137
1234.04310,0.03180
1231.98293,0.03239
1229.92275,0.03319
1227.86258,0.03416
1225.80241,0.03504
1223.74224,0.03570
1221.68207,0.03628
1219.62189,0.03691
1217.56172,0.03770
1215.50155,0.03859
1213.44138,0.03924
1211.38120,0.03966
1209.32103,0.04033
1207.26086,0.04120
1205.20069,0.04219
1203.14052,0.04325
1201.08034,0.04398
1199.02017,0.04445
1196.96000,0.04497
1194.89983,0.04536
1192.83966,0.04523
1190.77948,0.04464
1188.71931,0.04392
1186.65914,0.04307
1184.59897,0.04219
1182.53880,0.04148
1180.47862,0.04085
1178.41845,0.04029
1176.35828,0.03994
1174.29811,0.03977
1172.23793,0.03975
1170.17776,0.03974
1168.11759,0.03970
1166.05742,0.03969
1163.99725,0.03931
1161.93707,0.03841
1159.87690,0.03749
1157.81673,0.03696
1155.75656,0.03682
1153.69639,0.03654
1151.63621,0.03581
1149.57604,0.03482
1147.51587,0.03375
1145.45570,0.03284
1143.39552,0.03223
1141.33535,0.03146
1139.27518,0.03039
1137.21501,0.02940
1135.15484,0.02857
1133.09466,0.02801
1131.03449,0.02781
1128.97432,0.02805
1126.91415,0.02860
1124.85398,0.02933
1122.79380,0.03064
1120.73363,0.03241
1118.67346,0.03422
1116.61329,0.03647
1114.55312,0.03940
1112.49294,0.04222
1110.43277,0.04472
1108.37260,0.04746
1106.31243,0.05050
1104.25225,0.05332
1102.19208,0.05544
1100.13191,0.05696
1098.07174,0.05808
1096.01157,0.05911
1093.95139,0.06036
1091.89122,0.06176
1089.83105,0.06321
1087.77088,0.06469
1085.71071,0.06647
1083.65053,0.06873
1081.59036,0.07083
1079.53019,0.07253
1077.47002,0.07420
1075.40985,0.07585
1073.34967,0.07739
1071.28950,0.07900
1069.22933,0.08061
1067.16916,0.08186
1065.10898,0.08270
1063.04881,0.08343
1060.98864,0.08439
1058.92847,0.08563
1056.86830,0.08731
1054.80812,0.08921
1052.74795,0.09065
1050.68778,0.09166
1048.62761,0.09288
1046.56744,0.09472
1044.50726,0.09676
1042.44709,0.09840
1040.38692,0.09988
1038.32675,0.10154
1036.26657,0.10320
1034.20640,0.10484
1032.14623,0.10640
1030.08606,0.10748
1028.02589,0.10804
1025.96571,0.10848
1023.90554,0.10877
1021.84537,0.10877
1019.78520,0.10863
1017.72503,0.10812
1015.66485,0.10729
1013.60468,0.10626
1011.54451,0.10495
1009.48434,0.10364
1007.42417,0.10225
1005.36399,0.10067
1003.30382,0.09865
1001.24365,0.09598
999.18348,0.09340
997.12330,0.09123
995.06313,0.08885
993.00296,0.08607
990.94279,0.08349
988.88262,0.08140
986.82244,0.07896
984.76227,0.07572
982.70210,0.07246
980.64193,0.06932
978.58176,0.06597
976.52158,0.06290
974.46141,0.06032
972.40124,0.05748
970.34107,0.05454
968.28089,0.05246
966.22072,0.05107
964.16055,0.04993
962.10038,0.04875
960.04021,0.04700
957.98003,0.04494
955.91986,0.04298
953.85969,0.04094
951.79952,0.03873
949.73935,0.03666
947.67917,0.03469
945.61900,0.03250
943.55883,0.03038
941.49866,0.02876
939.43849,0.02737
937.37831,0.02590
935.31814,0.02476
933.25797,0.02427
931.19780,0.02376
929.13762,0.02276
927.07745,0.02184
925.01728,0.02130
922.95711,0.02068
920.89694,0.01984
918.83676,0.01879
916.77659,0.01735
914.71642,0.01591
912.65625,0.01497
910.59608,0.01392
908.53590,0.01272
906.47573,0.01201
904.41556,0.01128
902.35539,0.01019
900.29522,0.00946
898.23504,0.00920
896.17487,0.00920
894.11470,0.00964
892.05453,0.01025
889.99435,0.01031
887.93418,0.00949
885.87401,0.00854
883.81384,0.00833
881.75367,0.00841
879.69349,0.00847
877.63332,0.00939
875.57315,0.01070
873.51298,0.01099
871.45281,0.01059
869.39263,0.01022
867.33246,0.00957
865.27229,0.00828
863.21212,0.00663
861.15194,0.00512
859.09177,0.00404
857.03160,0.00328
854.97143,0.00231
852.91126,0.00113
850.85108,0.00028
848.79091,0.00000
846.73074,-0.00006
844.67057,-0.00019
842.61040,0.00033
840.55022,0.00146
838.49005,0.00212
836.42988,0.00211
834.36971,0.00190
832.30954,0.00215
830.24936,0.00299
828.18919,0.00372
826.12902,0.00377
824.06885,0.00366
822.00867,0.00401
819.94850,0.00496
817.88833,0.00632
815.82816,0.00699
813.76799,0.00665
811.70781,0.00634
809.64764,0.00590
807.58747,0.00430
805.52730,0.00277
803.46713,0.00240
801.40695,0.00209
799.34678,0.00133
797.28661,0.00050
795.22644,0.00000
793.16627,0.00008
791.10609,0.00049
789.04592,0.00038
786.98575,0.00037
784.92558,0.00123
782.86540,0.00292
780.80523,0.00458
778.74506,0.00507
776.68489,0.00457
774.62472,0.00394
772.56454,0.00408
770.50437,0.00555
768.44420,0.00750
766.38403,0.00942
764.32386,0.01118
762.26368,0.01194
760.20351,0.01197
758.14334,0.01219
756.08317,0.01304
754.02299,0.01369
751.96282,0.01240
749.90265,0.00978
747.84248,0.00776
745.78231,0.00700
743.72213,0.00683
741.66196,0.00628
739.60179,0.00549
737.54162,0.00511
735.48145,0.00512
733.42127,0.00572
731.36110,0.00700
729.30093,0.00785
727.24076,0.00743
725.18059,0.00666
723.12041,0.00649
721.06024,0.00686
719.00007,0.00665
716.93990,0.00627
714.87972,0.00618
712.81955,0.00592
710.75938,0.00510
708.69921,0.00414
706.63904,0.00376
704.57886,0.00413
702.51869,0.00512
700.45852,0.00601
698.39835,0.00606
696.33818,0.00554
694.27800,0.00470
692.21783,0.00329
690.15766,0.00143
688.09749,0.00000
686.03731,-0.00014
683.97714,0.00107
681.91697,0.00252
679.85680,0.00277
677.79663,0.00170
675.73645,0.00180
673.67628,0.00389
671.61611,0.00605
669.55594,0.00983
667.49577,0.01216
665.43559,0.00734
663.37542,0.00456
661.31525,0.00340
659.25508,0.00316
657.19491,0.00317
655.13473,0.00244
653.07456,0.00092
651.01439,-0.00029
648.95422,0.00000
646.89404,0.00067
644.83387,0.00094
642.77370,0.00123
640.71353,0.00208
638.65336,0.00212
636.59318,0.00036
634.53301,-0.00136
632.47284,-0.00096
630.41267,0.00090
628.35250,0.00281
626.29232,0.00410
624.23215,0.00319
622.17198,0.00020
620.11181,0.00000
618.05164,0.00397
615.99146,0.00768
613.93129,0.00895
611.87112,0.00963
609.81095,0.00940
607.75077,0.00474
605.69060,-0.00308
603.63043,-0.00644
601.57026,-0.00371
599.51009,0.00000
