3996.73391,0.00055
3994.67373,0.00009
3992.61356,0.00000
3990.55339,0.00043
3988.49322,0.00096
3986.43305,0.00106
3984.37287,0.00092
3982.31270,0.00114
3980.25253,0.00155
3978.19236,0.00162
3976.13219,0.00165
3974.07201,0.00190
3972.01184,0.00211
3969.95167,0.00216
3967.89150,0.00199
3965.83133,0.00164
3963.77115,0.00129
3961.71098,0.00132
3959.65081,0.00160
3957.59064,0.00146
3955.53046,0.00116
3953.47029,0.00128
3951.41012,0.00147
3949.34995,0.00127
3947.28978,0.00119
3945.22960,0.00115
3943.16943,0.00079
3941.10926,0.00071
3939.04909,0.00084
3936.98892,0.00108
3934.92874,0.00150
3932.86857,0.00184
3930.80840,0.00215
3928.74823,0.00224
3926.68805,0.00177
3924.62788,0.00131
3922.56771,0.00127
3920.50754,0.00098
3918.44737,0.00087
3916.38719,0.00158
3914.32702,0.00224
3912.26685,0.00205
3910.20668,0.00184
3908.14651,0.00207
3906.08633,0.00210
3904.02616,0.00206
3901.96599,0.00221
3899.90582,0.00222
3897.84565,0.00262
3895.78547,0.00278
3893.72530,0.00187
3891.66513,0.00123
3889.60496,0.00200
3887.54478,0.00209
3885.48461,0.00186
3883.42444,0.00266
3881.36427,0.00240
3879.30410,0.00215
3877.24392,0.00252
3875.18375,0.00225
3873.12358,0.00197
3871.06341,0.00107
3869.00324,0.00089
3866.94306,0.00162
3864.88289,0.00138
3862.82272,0.00168
3860.76255,0.00283
3858.70237,0.00377
3856.64220,0.00305
3854.58203,0.00047
3852.52186,0.00000
3850.46169,0.00197
3848.40151,0.00298
3846.34134,0.00300
3844.28117,0.00279
3842.22100,0.00254
3840.16083,0.00147
3838.10065,0.00033
3836.04048,0.00096
3833.98031,0.00242
3831.92014,0.00341
3829.85997,0.00371
3827.79979,0.00308
3825.73962,0.00253
3823.67945,0.00165
3821.61928,0.00035
3819.55910,0.00126
3817.49893,0.00184
3815.43876,0.00190
3813.37859,0.00309
3811.31842,0.00353
3809.25824,0.00267
3807.19807,0.00180
3805.13790,0.00229
3803.07773,0.00209
3801.01756,0.00188
3798.95738,0.00247
3796.89721,0.00199
3794.83704,0.00206
3792.77687,0.00262
3790.71670,0.00268
3788.65652,0.00248
3786.59635,0.00210
3784.53618,0.00197
3782.47601,0.00198
3780.41583,0.00135
3778.35566,0.00137
3776.29549,0.00219
3774.23532,0.00239
3772.17515,0.00179
3770.11497,0.00126
3768.05480,0.00127
3765.99463,0.00097
3763.93446,0.00118
3761.87429,0.00143
3759.81411,0.00122
3757.75394,0.00156
3755.69377,0.00182
3753.63360,0.00094
3751.57342,0.00000
3749.51325,0.00117
3747.45308,0.00267
3745.39291,0.00180
3743.33274,0.00177
3741.27256,0.00322
3739.21239,0.00380
3737.15222,0.00319
3735.09205,0.00219
3733.03188,0.00197
3730.97170,0.00283
3728.91153,0.00370
3726.85136,0.00353
3724.79119,0.00284
3722.73102,0.00190
3720.67084,0.00126
3718.61067,0.00143
3716.55050,0.00230
3714.49033,0.00241
3712.43015,0.00119
3710.36998,0.00059
3708.30981,0.00134
3706.24964,0.00219
3704.18947,0.00229
3702.12929,0.00211
3700.06912,0.00256
3698.00895,0.00303
3695.94878,0.00334
3693.88861,0.00347
3691.82843,0.00241
3689.76826,0.00093
3687.70809,0.00126
3685.64792,0.00240
3683.58775,0.00255
3681.52757,0.00235
3679.46740,0.00229
3677.40723,0.00190
3675.34706,0.00269
3673.28688,0.00477
3671.22671,0.00373
3669.16654,0.00231
3667.10637,0.00311
3665.04620,0.00350
3662.98602,0.00351
3660.92585,0.00419
3658.86568,0.00463
3656.80551,0.00433
3654.74534,0.00500
3652.68516,0.00548
3650.62499,0.00470
3648.56482,0.00507
3646.50465,0.00668
3644.44447,0.00724
3642.38430,0.00649
3640.32413,0.00613
3638.26396,0.00671
3636.20379,0.00743
3634.14361,0.00765
3632.08344,0.00721
3630.02327,0.00597
3627.96310,0.00625
3625.90293,0.00790
3623.84275,0.00839
3621.78258,0.00793
3619.72241,0.00781
3617.66224,0.00882
3615.60207,0.00952
3613.54189,0.00933
3611.48172,0.00925
3609.42155,0.00916
3607.36138,0.00979
3605.30120,0.01128
3603.24103,0.01220
3601.18086,0.01257
3599.12069,0.01311
3597.06052,0.01333
3595.00034,0.01314
3592.94017,0.01332
3590.88000,0.01334
3588.81983,0.01286
3586.75966,0.01374
3584.69948,0.01567
3582.63931,0.01628
3580.57914,0.01623
3578.51897,0.01688
3576.45879,0.01799
3574.39862,0.01893
3572.33845,0.01951
3570.27828,0.01936
3568.21811,0.01880
3566.15793,0.01946
3564.09776,0.02106
3562.03759,0.02207
3559.97742,0.02259
3557.91725,0.02295
3555.85707,0.02299
3553.79690,0.02282
3551.73673,0.02326
3549.67656,0.02432
3547.61639,0.02512
3545.55621,0.02563
3543.49604,0.02611
3541.43587,0.02648
3539.37570,0.02678
3537.31552,0.02726
3535.25535,0.02817
3533.19518,0.02923
3531.13501,0.02981
3529.07484,0.03005
3527.01466,0.03070
3524.95449,0.03174
3522.89432,0.03269
3520.83415,0.03345
3518.77398,0.03380
3516.71380,0.03386
3514.65363,0.03409
3512.59346,0.03460
3510.53329,0.03503
3508.47312,0.03542
3506.41294,0.03605
3504.35277,0.03684
3502.29260,0.03780
3500.23243,0.03847
3498.17225,0.03873
3496.11208,0.03922
3494.05191,0.03995
3491.99174,0.04051
3489.93157,0.04094
3487.87139,0.04148
3485.81122,0.04214
3483.75105,0.04247
3481.69088,0.04286
3479.63071,0.04388
3477.57053,0.04478
3475.51036,0.04524
3473.45019,0.04579
3471.39002,0.04648
3469.32984,0.04699
3467.26967,0.04726
3465.20950,0.04743
3463.14933,0.04770
3461.08916,0.04830
3459.02898,0.04899
3456.96881,0.04948
3454.90864,0.04986
3452.84847,0.05060
3450.78830,0.05195
3448.72812,0.05301
3446.66795,0.05357
3444.60778,0.05440
3442.54761,0.05506
3440.48744,0.05512
3438.42726,0.05508
3436.36709,0.05560
3434.30692,0.05631
3432.24675,0.05663
3430.18657,0.05687
3428.12640,0.05747
3426.06623,0.05843
3424.00606,0.05946
3421.94589,0.05992
3419.88571,0.05989
3417.82554,0.06027
3415.76537,0.06119
3413.70520,0.06182
3411.64503,0.06190
3409.58485,0.06210
3407.52468,0.06259
3405.46451,0.06324
3403.40434,0.06369
3401.34416,0.06372
3399.28399,0.06358
3397.22382,0.06359
3395.16365,0.06406
3393.10348,0.06489
3391.04330,0.06572
3388.98313,0.06630
3386.92296,0.06645
3384.86279,0.06611
3382.80262,0.06605
3380.74244,0.06670
3378.68227,0.06733
3376.62210,0.06755
3374.56193,0.06789
3372.50176,0.06844
3370.44158,0.06885
3368.38141,0.06898
3366.32124,0.06891
3364.26107,0.06905
3362.20089,0.06957
3360.14072,0.07022
3358.08055,0.07068
3356.02038,0.07103
3353.96021,0.07145
3351.90003,0.07164
3349.83986,0.07157
3347.77969,0.07157
3345.71952,0.07166
3343.65935,0.07182
3341.59917,0.07226
3339.53900,0.07276
3337.47883,0.07301
3335.41866,0.07320
3333.35849,0.07354
3331.29831,0.07390
3329.23814,0.07415
3327.17797,0.07426
3325.11780,0.07412
3323.05762,0.07400
3320.99745,0.07445
3318.93728,0.07518
3316.87711,0.07534
3314.81694,0.07501
3312.75676,0.07493
3310.69659,0.07504
3308.63642,0.07496
3306.57625,0.07485
3304.51608,0.07475
3302.45590,0.07446
3300.39573,0.07434
3298.33556,0.07474
3296.27539,0.07547
3294.21521,0.07598
3292.15504,0.07611
3290.09487,0.07622
3288.03470,0.07654
3285.97453,0.07691
3283.91435,0.07720
3281.85418,0.07711
3279.79401,0.07643
3277.73384,0.07574
3275.67367,0.07582
3273.61349,0.07663
3271.55332,0.07718
3269.49315,0.07678
3267.43298,0.07605
3265.37281,0.07558
3263.31263,0.07549
3261.25246,0.07576
3259.19229,0.07599
3257.13212,0.07590
3255.07194,0.07557
3253.01177,0.07529
3250.95160,0.07510
3248.89143,0.07477
3246.83126,0.07442
3244.77108,0.07427
3242.71091,0.07445
3240.65074,0.07461
3238.59057,0.07428
3236.53040,0.07355
3234.47022,0.07294
3232.41005,0.07271
3230.34988,0.07267
3228.28971,0.07275
3226.22954,0.07275
3224.16936,0.07243
3222.10919,0.07186
3220.04902,0.07125
3217.98885,0.07103
3215.92867,0.07131
3213.86850,0.07150
3211.80833,0.07136
3209.74816,0.07129
3207.68799,0.07154
3205.62781,0.07164
3203.56764,0.07097
3201.50747,0.06979
3199.44730,0.06896
3197.38713,0.06896
3195.32695,0.06935
3193.26678,0.06936
3191.20661,0.06867
3189.14644,0.06766
3187.08626,0.06709
3185.02609,0.06696
3182.96592,0.06680
3180.90575,0.06656
3178.84558,0.06620
3176.78540,0.06586
3174.72523,0.06587
3172.66506,0.06592
3170.60489,0.06555
3168.54472,0.06499
3166.48454,0.06458
3164.42437,0.06419
3162.36420,0.06365
3160.30403,0.06315
3158.24386,0.06297
3156.18368,0.06284
3154.12351,0.06257
3152.06334,0.06212
3150.00317,0.06153
3147.94299,0.06116
3145.88282,0.06099
3143.82265,0.06077
3141.76248,0.06049
3139.70231,0.06000
3137.64213,0.05923
3135.58196,0.05862
3133.52179,0.05830
3131.46162,0.05809
3129.40145,0.05786
3127.34127,0.05748
3125.28110,0.05701
3123.22093,0.05681
3121.16076,0.05684
3119.10058,0.05657
3117.04041,0.05596
3114.98024,0.05540
3112.92007,0.05487
3110.85990,0.05437
3108.79972,0.05412
3106.73955,0.05396
3104.67938,0.05358
3102.61921,0.05316
3100.55904,0.05320
3098.49886,0.05331
3096.43869,0.05264
3094.37852,0.05175
3092.31835,0.05125
3090.25818,0.05101
3088.19800,0.05099
3086.13783,0.05112
3084.07766,0.05102
3082.01749,0.05058
3079.95731,0.04999
3077.89714,0.04945
3075.83697,0.04906
3073.77680,0.04888
3071.71663,0.04874
3069.65645,0.04841
3067.59628,0.04804
3065.53611,0.04767
3063.47594,0.04726
3061.41577,0.04716
3059.35559,0.04735
3057.29542,0.04731
3055.23525,0.04702
3053.17508,0.04659
3051.11491,0.04592
3049.05473,0.04536
3046.99456,0.04520
3044.93439,0.04479
3042.87422,0.04392
3040.81404,0.04352
3038.75387,0.04365
3036.69370,0.04358
3034.63353,0.04312
3032.57336,0.04246
3030.51318,0.04199
3028.45301,0.04159
3026.39284,0.04107
3024.33267,0.04072
3022.27250,0.04057
3020.21232,0.04037
3018.15215,0.04011
3016.09198,0.03999
3014.03181,0.03985
3011.97163,0.03944
3009.91146,0.03897
3007.85129,0.03881
3005.79112,0.03880
3003.73095,0.03877
3001.67077,0.03863
2999.61060,0.03839
2997.55043,0.03827
2995.49026,0.03821
2993.43009,0.03810
2991.36991,0.03793
2989.30974,0.03788
2987.24957,0.03820
2985.18940,0.03863
2983.12923,0.03865
2981.06905,0.03871
2979.00888,0.03947
2976.94871,0.04013
2974.88854,0.04038
2972.82836,0.04100
2970.76819,0.04206
2968.70802,0.04313
2966.64785,0.04407
2964.58768,0.04529
2962.52750,0.04702
2960.46733,0.04878
2958.40716,0.05033
2956.34699,0.05220
2954.28682,0.05428
2952.22664,0.05593
2950.16647,0.05743
2948.10630,0.05921
2946.04613,0.06142
2943.98596,0.06414
2941.92578,0.06729
2939.86561,0.07050
2937.80544,0.07328
2935.74527,0.07601
2933.68509,0.07951
2931.62492,0.08333
2929.56475,0.08652
2927.50458,0.08914
2925.44441,0.09172
2923.38423,0.09431
2921.32406,0.09686
2919.26389,0.09901
2917.20372,0.09925
2915.14355,0.09610
2913.08337,0.09040
2911.02320,0.08461
2908.96303,0.08019
2906.90286,0.07697
2904.84268,0.07434
2902.78251,0.07216
2900.72234,0.07024
2898.66217,0.06811
2896.60200,0.06613
2894.54182,0.06460
2892.48165,0.06307
2890.42148,0.06161
2888.36131,0.06018
2886.30114,0.05860
2884.24096,0.05722
2882.18079,0.05634
2880.12062,0.05586
2878.06045,0.05539
2876.00028,0.05495
2873.94010,0.05498
2871.87993,0.05552
2869.81976,0.05627
2867.75959,0.05715
2865.69941,0.05841
2863.63924,0.06031
2861.57907,0.06278
2859.51890,0.06538
2857.45873,0.06798
2855.39855,0.07079
2853.33838,0.07393
2851.27821,0.07699
2849.21804,0.07795
2847.15787,0.07440
2845.09769,0.06734
2843.03752,0.06010
2840.97735,0.05453
2838.91718,0.05066
2836.85700,0.04796
2834.79683,0.04598
2832.73666,0.04447
2830.67649,0.04331
2828.61632,0.04232
2826.55614,0.04148
2824.49597,0.04085
2822.43580,0.04027
2820.37563,0.03960
2818.31546,0.03887
2816.25528,0.03811
2814.19511,0.03750
2812.13494,0.03718
2810.07477,0.03682
2808.01460,0.03635
2805.95442,0.03594
2803.89425,0.03550
2801.83408,0.03515
2799.77391,0.03486
2797.71373,0.03437
2795.65356,0.03388
2793.59339,0.03393
2791.53322,0.03415
2789.47305,0.03380
2787.41287,0.03321
2785.35270,0.03292
2783.29253,0.03279
2781.23236,0.03263
2779.17219,0.03252
2777.11201,0.03248
2775.05184,0.03247
2772.99167,0.03234
2770.93150,0.03179
2768.87133,0.03121
2766.81115,0.03116
2764.75098,0.03132
2762.69081,0.03119
2760.63064,0.03094
2758.57046,0.03082
2756.51029,0.03083
2754.45012,0.03086
2752.38995,0.03092
2750.32978,0.03092
2748.26960,0.03066
2746.20943,0.03023
2744.14926,0.03005
2742.08909,0.03008
2740.02892,0.02991
2737.96874,0.02959
2735.90857,0.02942
2733.84840,0.02946
2731.78823,0.02954
2729.72805,0.02963
2727.66788,0.02973
2725.60771,0.02960
2723.54754,0.02929
2721.48737,0.02912
2719.42719,0.02902
2717.36702,0.02877
2715.30685,0.02843
2713.24668,0.02823
2711.18651,0.02831
2709.12633,0.02845
2707.06616,0.02848
2705.00599,0.02838
2702.94582,0.02817
2700.88565,0.02795
2698.82547,0.02774
2696.76530,0.02755
2694.70513,0.02745
2692.64496,0.02755
2690.58478,0.02773
2688.52461,0.02787
2686.46444,0.02783
2684.40427,0.02736
2682.34410,0.02690
2680.28392,0.02680
2678.22375,0.02677
2676.16358,0.02671
2674.10341,0.02660
2672.04324,0.02625
2669.98306,0.02576
2667.92289,0.02554
2665.86272,0.02585
2663.80255,0.02615
2661.74238,0.02607
2659.68220,0.02608
2657.62203,0.02606
2655.56186,0.02574
2653.50169,0.02536
2651.44151,0.02499
2649.38134,0.02464
2647.32117,0.02441
2645.26100,0.02435
2643.20083,0.02425
2641.14065,0.02412
2639.08048,0.02408
2637.02031,0.02371
2634.96014,0.02318
2632.89997,0.02312
2630.83979,0.02336
2628.77962,0.02349
2626.71945,0.02340
2624.65928,0.02312
2622.59910,0.02284
2620.53893,0.02279
2618.47876,0.02291
2616.41859,0.02279
2614.35842,0.02225
2612.29824,0.02176
2610.23807,0.02164
2608.17790,0.02154
2606.11773,0.02152
2604.05756,0.02161
2601.99738,0.02160
2599.93721,0.02160
2597.87704,0.02141
2595.81687,0.02112
2593.75670,0.02117
2591.69652,0.02136
2589.63635,0.02117
2587.57618,0.02079
2585.51601,0.02060
2583.45583,0.02051
2581.39566,0.02044
2579.33549,0.02022
2577.27532,0.01995
2575.21515,0.01981
2573.15497,0.01965
2571.09480,0.01977
2569.03463,0.01992
2566.97446,0.01922
2564.91429,0.01849
2562.85411,0.01885
2560.79394,0.01946
2558.73377,0.01927
2556.67360,0.01890
2554.61342,0.01899
2552.55325,0.01871
2550.49308,0.01798
2548.43291,0.01768
2546.37274,0.01785
2544.31256,0.01822
2542.25239,0.01856
2540.19222,0.01861
2538.13205,0.01860
2536.07188,0.01851
2534.01170,0.01823
2531.95153,0.01808
2529.89136,0.01833
2527.83119,0.01875
2525.77102,0.01871
2523.71084,0.01812
2521.65067,0.01747
2519.59050,0.01709
2517.53033,0.01711
2515.47015,0.01740
2513.40998,0.01739
2511.34981,0.01706
2509.28964,0.01710
2507.22947,0.01749
2505.16929,0.01766
2503.10912,0.01769
2501.04895,0.01770
2498.98878,0.01741
2496.92861,0.01690
2494.86843,0.01652
2492.80826,0.01664
2490.74809,0.01684
2488.68792,0.01650
2486.62775,0.01625
2484.56757,0.01631
2482.50740,0.01605
2480.44723,0.01562
2478.38706,0.01553
2476.32688,0.01563
2474.26671,0.01558
2472.20654,0.01541
2470.14637,0.01531
2468.08620,0.01504
2466.02602,0.01460
2463.96585,0.01477
2461.90568,0.01551
2459.84551,0.01589
2457.78534,0.01581
2455.72516,0.01550
2453.66499,0.01502
2451.60482,0.01479
2449.54465,0.01493
2447.48447,0.01533
2445.42430,0.01569
2443.36413,0.01535
2441.30396,0.01455
2439.24379,0.01408
2437.18361,0.01388
2435.12344,0.01346
2433.06327,0.01316
2431.00310,0.01348
2428.94293,0.01382
2426.88275,0.01363
2424.82258,0.01352
2422.76241,0.01375
2420.70224,0.01398
2418.64207,0.01406
2416.58189,0.01374
2414.52172,0.01312
2412.46155,0.01267
2410.40138,0.01268
2408.34120,0.01291
2406.28103,0.01282
2404.22086,0.01271
2402.16069,0.01324
2400.10052,0.01375
2398.04034,0.01353
2395.98017,0.01295
2393.92000,0.01258
2391.85983,0.01252
2389.79966,0.01253
2387.73948,0.01251
2385.67931,0.01238
2383.61914,0.01214
2381.55897,0.01198
2379.49880,0.01202
2377.43862,0.01228
2375.37845,0.01275
2373.31828,0.01362
2371.25811,0.01454
2369.19793,0.01406
2367.13776,0.01172
2365.07759,0.00860
2363.01742,0.00638
2360.95725,0.00712
2358.89707,0.00927
2356.83690,0.00984
2354.77673,0.00968
2352.71656,0.01026
2350.65639,0.01095
2348.59621,0.01090
2346.53604,0.01043
2344.47587,0.01067
2342.41570,0.01189
2340.35552,0.01234
2338.29535,0.01150
2336.23518,0.01096
2334.17501,0.01116
2332.11484,0.01127
2330.05466,0.01115
2327.99449,0.01124
2325.93432,0.01158
2323.87415,0.01214
2321.81398,0.01258
2319.75380,0.01256
2317.69363,0.01216
2315.63346,0.01125
2313.57329,0.00998
2311.51312,0.00935
2309.45294,0.00995
2307.39277,0.01123
2305.33260,0.01211
2303.27243,0.01184
2301.21225,0.01082
2299.15208,0.01020
2297.09191,0.01029
2295.03174,0.01047
2292.97157,0.01048
2290.91139,0.01044
2288.85122,0.01050
2286.79105,0.01076
2284.73088,0.01123
2282.67071,0.01163
2280.61053,0.01145
2278.55036,0.01055
2276.49019,0.00943
2274.43002,0.00904
2272.36984,0.00975
2270.30967,0.01067
2268.24950,0.01089
2266.18933,0.01044
2264.12916,0.00987
2262.06898,0.00957
2260.00881,0.00958
2257.94864,0.00982
2255.88847,0.00999
2253.82830,0.00997
2251.76812,0.00973
2249.70795,0.00897
2247.64778,0.00794
2245.58761,0.00735
2243.52744,0.00759
2241.46726,0.00839
2239.40709,0.00903
2237.34692,0.00894
2235.28675,0.00883
2233.22657,0.00937
2231.16640,0.00964
2229.10623,0.00924
2227.04606,0.00824
2224.98589,0.00661
2222.92571,0.00580
2220.86554,0.00657
2218.80537,0.00702
2216.74520,0.00734
2214.68503,0.00805
2212.62485,0.00720
2210.56468,0.00584
2208.50451,0.00651
2206.44434,0.00879
2204.38417,0.01145
2202.32399,0.01255
2200.26382,0.01065
2198.20365,0.00797
2196.14348,0.00685
2194.08330,0.00699
2192.02313,0.00703
2189.96296,0.00649
2187.90279,0.00670
2185.84262,0.00753
2183.78244,0.00780
2181.72227,0.00797
2179.66210,0.00794
2177.60193,0.00751
2175.54176,0.00714
2173.48158,0.00642
2171.42141,0.00575
2169.36124,0.00597
2167.30107,0.00682
2165.24089,0.00788
2163.18072,0.00753
2161.12055,0.00407
2159.06038,0.00054
2157.00021,0.00000
2154.94003,0.00070
2152.87986,0.00180
2150.81969,0.00369
2148.75952,0.00609
2146.69935,0.00809
2144.63917,0.00788
2142.57900,0.00583
2140.51883,0.00532
2138.45866,0.00656
2136.39849,0.00697
2134.33831,0.00689
2132.27814,0.00700
2130.21797,0.00624
2128.15780,0.00523
2126.09762,0.00518
2124.03745,0.00578
2121.97728,0.00688
2119.91711,0.00823
2117.85694,0.00921
2115.79676,0.00959
2113.73659,0.00888
2111.67642,0.00736
2109.61625,0.00631
2107.55608,0.00646
2105.49590,0.00756
2103.43573,0.00846
2101.37556,0.00850
2099.31539,0.00833
2097.25521,0.00843
2095.19504,0.00880
2093.13487,0.00892
2091.07470,0.00818
2089.01453,0.00737
2086.95435,0.00748
2084.89418,0.00807
2082.83401,0.00837
2080.77384,0.00814
2078.71367,0.00748
2076.65349,0.00720
2074.59332,0.00780
2072.53315,0.00836
2070.47298,0.00829
2068.41281,0.00817
2066.35263,0.00769
2064.29246,0.00632
2062.23229,0.00472
2060.17212,0.00469
2058.11194,0.00657
2056.05177,0.00762
2053.99160,0.00682
2051.93143,0.00613
2049.87126,0.00664
2047.81108,0.00709
2045.75091,0.00653
2043.69074,0.00635
2041.63057,0.00661
2039.57040,0.00600
2037.51022,0.00494
2035.45005,0.00412
2033.38988,0.00345
2031.32971,0.00283
2029.26954,0.00249
2027.20936,0.00336
2025.14919,0.00539
2023.08902,0.00622
2021.02885,0.00418
2018.96867,0.00158
2016.90850,0.00200
2014.84833,0.00469
2012.78816,0.00650
2010.72799,0.00616
2008.66781,0.00429
2006.60764,0.00327
2004.54747,0.00486
2002.48730,0.00742
2000.42713,0.00857
1998.36695,0.00813
1996.30678,0.00633
1994.24661,0.00306
1992.18644,0.00019
1990.12626,0.00000
1988.06609,0.00153
1986.00592,0.00312
1983.94575,0.00416
1981.88558,0.00558
1979.82540,0.00729
1977.76523,0.00720
1975.70506,0.00479
1973.64489,0.00239
1971.58472,0.00164
1969.52454,0.00135
1967.46437,0.00138
1965.40420,0.00199
1963.34403,0.00241
1961.28386,0.00317
1959.22368,0.00377
1957.16351,0.00329
1955.10334,0.00290
1953.04317,0.00357
1950.98299,0.00460
1948.92282,0.00526
1946.86265,0.00494
1944.80248,0.00338
1942.74231,0.00183
1940.68213,0.00158
1938.62196,0.00183
1936.56179,0.00275
1934.50162,0.00446
1932.44145,0.00522
1930.38127,0.00462
1928.32110,0.00418
1926.26093,0.00441
1924.20076,0.00435
1922.14059,0.00411
1920.08041,0.00382
1918.02024,0.00348
1915.96007,0.00383
1913.89990,0.00373
1911.83972,0.00276
1909.77955,0.00193
1907.71938,0.00207
1905.65921,0.00300
1903.59904,0.00366
1901.53886,0.00366
1899.47869,0.00352
1897.41852,0.00343
1895.35835,0.00318
1893.29818,0.00280
1891.23800,0.00224
1889.17783,0.00242
1887.11766,0.00340
1885.05749,0.00354
1882.99731,0.00290
1880.93714,0.00244
1878.87697,0.00250
1876.81680,0.00306
1874.75663,0.00375
1872.69645,0.00394
1870.63628,0.00308
1868.57611,0.00225
1866.51594,0.00246
1864.45577,0.00252
1862.39559,0.00194
1860.33542,0.00146
1858.27525,0.00133
1856.21508,0.00130
1854.15491,0.00132
1852.09473,0.00146
1850.03456,0.00164
1847.97439,0.00188
1845.91422,0.00171
1843.85404,0.00159
1841.79387,0.00244
1839.73370,0.00253
1837.67353,0.00158
1835.61336,0.00099
1833.55318,0.00097
1831.49301,0.00067
1829.43284,0.00059
1827.37267,0.00091
1825.31250,0.00067
1823.25232,0.00061
1821.19215,0.00056
1819.13198,0.00012
1817.07181,0.00000
1815.01163,0.00034
1812.95146,0.00042
1810.89129,0.00027
1808.83112,0.00050
1806.77095,0.00075
1804.71077,0.00064
1802.65060,0.00015
1800.59043,-0.00022
1798.53026,0.00005
1796.47009,0.00030
1794.40991,-0.00032
1792.34974,-0.00102
1790.28957,-0.00030
1788.22940,0.00036
1786.16923,-0.00001
1784.10905,-0.00019
1782.04888,0.00000
1779.98871,0.00017
1777.92854,0.00066
1775.86836,0.00076
1773.80819,0.00011
1771.74802,0.00004
1769.68785,0.00100
1767.62768,0.00169
1765.56750,0.00217
1763.50733,0.00204
1761.44716,0.00230
1759.38699,0.00350
1757.32682,0.00452
1755.26664,0.00621
1753.20647,0.00773
1751.14630,0.00883
1749.08613,0.01146
1747.02596,0.01532
1744.96578,0.01928
1742.90561,0.02346
1740.84544,0.02849
1738.78527,0.03454
1736.72509,0.03925
1734.66492,0.04220
1732.60475,0.04669
1730.54458,0.04972
1728.48441,0.04994
1726.42423,0.04928
1724.36406,0.04846
1722.30389,0.04826
1720.24372,0.04754
1718.18355,0.04554
1716.12337,0.04452
1714.06320,0.04479
1712.00303,0.04521
1709.94286,0.04509
1707.88268,0.04407
1705.82251,0.04275
1703.76234,0.04196
1701.70217,0.03986
1699.64200,0.03806
1697.58182,0.03763
1695.52165,0.03667
1693.46148,0.03681
1691.40131,0.03650
1689.34114,0.03604
1687.28096,0.03578
1685.22079,0.03411
1683.16062,0.03404
1681.10045,0.03564
1679.04028,0.03566
1676.98010,0.03422
1674.91993,0.03381
1672.85976,0.03537
1670.79959,0.03608
1668.73941,0.03704
1666.67924,0.03892
1664.61907,0.03929
1662.55890,0.03962
1660.49873,0.04222
1658.43855,0.04508
1656.37838,0.04575
1654.31821,0.04432
1652.25804,0.04611
1650.19787,0.04945
1648.13769,0.04848
1646.07752,0.04745
1644.01735,0.04899
1641.95718,0.04991
1639.89701,0.04986
1637.83683,0.04909
1635.77666,0.04888
1633.71649,0.05139
1631.65632,0.05328
1629.59614,0.05320
1627.53597,0.05340
1625.47580,0.05395
1623.41563,0.05443
1621.35546,0.05608
1619.29528,0.05683
1617.23511,0.05648
1615.17494,0.05821
1613.11477,0.06023
1611.05460,0.06062
1608.99442,0.06074
1606.93425,0.06131
1604.87408,0.06164
1602.81391,0.06131
1600.75373,0.06059
1598.69356,0.05948
1596.63339,0.05780
1594.57322,0.05579
1592.51305,0.05361
1590.45287,0.05116
1588.39270,0.04842
1586.33253,0.04560
1584.27236,0.04309
1582.21219,0.04136
1580.15201,0.03999
1578.09184,0.03730
1576.03167,0.03445
1573.97150,0.03413
1571.91133,0.03305
1569.85115,0.03037
1567.79098,0.02930
1565.73081,0.02915
1563.67064,0.02914
1561.61046,0.02754
1559.55029,0.02420
1557.49012,0.02537
1555.42995,0.02727
1553.36978,0.02704
1551.30960,0.02643
1549.24943,0.02634
1547.18926,0.02672
1545.12909,0.02662
1543.06892,0.02601
1541.00874,0.02427
1538.94857,0.02421
1536.88840,0.02604
1534.82823,0.02528
1532.76805,0.02387
1530.70788,0.02396
1528.64771,0.02322
1526.58754,0.02209
1524.52737,0.02129
1522.46719,0.02000
1520.40702,0.02039
1518.34685,0.02160
1516.28668,0.02187
1514.22651,0.02239
1512.16633,0.02239
1510.10616,0.02059
1508.04599,0.01611
1505.98582,0.01333
1503.92565,0.01435
1501.86547,0.01410
1499.80530,0.01173
1497.74513,0.00918
1495.68496,0.00835
1493.62478,0.00849
1491.56461,0.00707
1489.50444,0.00514
1487.44427,0.00466
1485.38410,0.00472
1483.32392,0.00444
1481.26375,0.00453
1479.20358,0.00566
1477.14341,0.00723
1475.08324,0.00923
1473.02306,0.01239
1470.96289,0.01731
1468.90272,0.02153
1466.84255,0.02373
1464.78238,0.02615
1462.72220,0.02941
1460.66203,0.03075
1458.60186,0.03034
1456.54169,0.03227
1454.48151,0.03596
1452.42134,0.03745
1450.36117,0.03753
1448.30100,0.03786
1446.24083,0.03906
1444.18065,0.04017
1442.12048,0.04055
1440.06031,0.04010
1438.00014,0.03807
1435.93997,0.03628
1433.87979,0.03578
1431.81962,0.03420
1429.75945,0.03222
1427.69928,0.03131
1425.63910,0.03069
1423.57893,0.03042
1421.51876,0.03014
1419.45859,0.02923
1417.39842,0.02943
1415.33824,0.02992
1413.27807,0.02947
1411.21790,0.02877
1409.15773,0.02840
1407.09756,0.02803
1405.03738,0.02782
1402.97721,0.02834
1400.91704,0.02859
1398.85687,0.02867
1396.79670,0.02907
1394.73652,0.02918
1392.67635,0.02960
1390.61618,0.03007
1388.55601,0.03031
1386.49583,0.03118
1384.43566,0.03228
1382.37549,0.03292
1380.31532,0.03369
1378.25515,0.03489
1376.19497,0.03594
1374.13480,0.03682
1372.07463,0.03802
1370.01446,0.03888
1367.95429,0.03941
1365.89411,0.03965
1363.83394,0.03926
1361.77377,0.03936
1359.71360,0.04013
1357.65343,0.04054
1355.59325,0.04059
1353.53308,0.04070
1351.47291,0.04093
1349.41274,0.04127
1347.35256,0.04177
1345.29239,0.04232
1343.23222,0.04270
1341.17205,0.04271
1339.11188,0.04280
1337.05170,0.04335
1334.99153,0.04386
1332.93136,0.04427
1330.87119,0.04489
1328.81102,0.04576
1326.75084,0.04662
1324.69067,0.04735
1322.63050,0.04790
1320.57033,0.04815
1318.51015,0.04842
1316.44998,0.04875
1314.38981,0.04860
1312.32964,0.04814
1310.26947,0.04745
1308.20929,0.04612
1306.14912,0.04427
1304.08895,0.04218
1302.02878,0.04002
1299.96861,0.03785
1297.90843,0.03570
1295.84826,0.03371
1293.78809,0.03213
1291.72792,0.03114
1289.66775,0.03053
1287.60757,0.03002
1285.54740,0.02960
1283.48723,0.02926
1281.42706,0.02892
1279.36688,0.02868
1277.30671,0.02882
1275.24654,0.02926
1273.18637,0.02973
1271.12620,0.03026
1269.06602,0.03085
1267.00585,0.03143
1264.94568,0.03206
1262.88551,0.03282
1260.82534,0.03368
1258.76516,0.03444
1256.70499,0.03495
1254.64482,0.03542
1252.58465,0.03603
1250.52447,0.03693
1248.46430,0.03809
1246.40413,0.03913
1244.34396,0.04006
1242.28379,0.04107
1240.22361,0.04193
1238.16344,0.04246
1236.10327,0.04285
1234.04310,0.04352
1231.98293,0.04462
1229.92275,0.04580
1227.86258,0.04668
1225.80241,0.04737
1223.74224,0.04808
1221.68207,0.04889
1219.62189,0.04998
1217.56172,0.05096
1215.50155,0.05148
1213.44138,0.05195
1211.38120,0.05284
1209.32103,0.05414
1207.26086,0.05553
1205.20069,0.05689
1203.14052,0.05822
1201.08034,0.05929
1199.02017,0.05991
1196.96000,0.06015
1194.89983,0.06007
1192.83966,0.06000
1190.77948,0.06000
1188.71931,0.05951
1186.65914,0.05861
1184.59897,0.05771
1182.53880,0.05690
1180.47862,0.05660
1178.41845,0.05674
1176.35828,0.05658
1174.29811,0.05619
1172.23793,0.05617
1170.17776,0.05657
1168.11759,0.05694
1166.05742,0.05689
1163.99725,0.05651
1161.93707,0.05594
1159.87690,0.05487
1157.81673,0.05340
1155.75656,0.05218
1153.69639,0.05118
1151.63621,0.05017
1149.57604,0.04938
1147.51587,0.04864
1145.45570,0.04748
1143.39552,0.04576
1141.33535,0.04397
1139.27518,0.04259
1137.21501,0.04174
1135.15484,0.04123
1133.09466,0.04100
1131.03449,0.04121
1128.97432,0.04178
1126.91415,0.04265
1124.85398,0.04391
1122.79380,0.04544
1120.73363,0.04739
1118.67346,0.05003
1116.61329,0.05327
1114.55312,0.05686
1112.49294,0.06066
1110.43277,0.06460
1108.37260,0.06842
1106.31243,0.07199
1104.25225,0.07522
1102.19208,0.07779
1100.13191,0.07962
1098.07174,0.08102
1096.01157,0.08231
1093.95139,0.08369
1091.89122,0.08551
1089.83105,0.08802
1087.77088,0.09050
1085.71071,0.09238
1083.65053,0.09426
1081.59036,0.09676
1079.53019,0.09976
1077.47002,0.10271
1075.40985,0.10524
1073.34967,0.10739
1071.28950,0.10927
1069.22933,0.11119
1067.16916,0.11328
1065.10898,0.11525
1063.04881,0.11708
1060.98864,0.11868
1058.92847,0.12010
1056.86830,0.12198
1054.80812,0.12432
1052.74795,0.12606
1050.68778,0.12706
1048.62761,0.12838
1046.56744,0.13037
1044.50726,0.13278
1042.44709,0.13539
1040.38692,0.13777
1038.32675,0.13998
1036.26657,0.14234
1034.20640,0.14471
1032.14623,0.14696
1030.08606,0.14898
1028.02589,0.15056
1025.96571,0.15168
1023.90554,0.15233
1021.84537,0.15268
1019.78520,0.15279
1017.72503,0.15229
1015.66485,0.15120
1013.60468,0.15008
1011.54451,0.14855
1009.48434,0.14616
1007.42417,0.14319
1005.36399,0.13978
1003.30382,0.13628
1001.24365,0.13298
999.18348,0.12934
997.12330,0.12522
995.06313,0.12149
993.00296,0.11820
990.94279,0.11478
988.88262,0.11131
986.82244,0.10772
984.76227,0.10375
982.70210,0.09947
980.64193,0.09528
978.58176,0.09149
976.52158,0.08790
974.46141,0.08418
972.40124,0.08058
970.34107,0.07749
968.28089,0.07508
966.22072,0.07316
964.16055,0.07111
962.10038,0.06842
960.04021,0.06532
957.98003,0.06235
955.91986,0.05959
953.85969,0.05677
951.79952,0.05361
949.73935,0.05040
947.67917,0.04762
945.61900,0.04505
943.55883,0.04223
941.49866,0.03944
939.43849,0.03741
937.37831,0.03620
935.31814,0.03529
933.25797,0.03464
931.19780,0.03404
929.13762,0.03293
927.07745,0.03190
925.01728,0.03123
922.95711,0.02999
920.89694,0.02835
918.83676,0.02690
916.77659,0.02534
914.71642,0.02371
912.65625,0.02194
910.59608,0.01994
908.53590,0.01840
906.47573,0.01740
904.41556,0.01637
902.35539,0.01541
900.29522,0.01514
898.23504,0.01534
896.17487,0.01536
894.11470,0.01501
892.05453,0.01446
889.99435,0.01379
887.93418,0.01283
885.87401,0.01238
883.81384,0.01286
881.75367,0.01278
879.69349,0.01178
877.63332,0.01136
875.57315,0.01202
873.51298,0.01299
871.45281,0.01334
869.39263,0.01291
867.33246,0.01183
865.27229,0.01048
863.21212,0.00936
861.15194,0.00812
859.09177,0.00651
857.03160,0.00504
854.97143,0.00377
852.91126,0.00269
850.85108,0.00227
848.79091,0.00186
846.73074,0.00079
844.67057,0.00000
842.61040,0.00012
840.55022,0.00096
838.49005,0.00185
836.42988,0.00252
834.36971,0.00324
832.30954,0.00383
830.24936,0.00404
828.18919,0.00420
826.12902,0.00397
824.06885,0.00353
822.00867,0.00412
819.94850,0.00556
817.88833,0.00675
815.82816,0.00708
813.76799,0.00650
811.70781,0.00505
809.64764,0.00317
807.58747,0.00243
805.52730,0.00289
803.46713,0.00256
801.40695,0.00137
799.34678,0.00052
797.28661,0.00000
795.22644,-0.00063
793.16627,-0.00114
791.10609,-0.00173
789.04592,-0.00166
786.98575,-0.00017
784.92558,0.00174
782.86540,0.00300
780.80523,0.00401
778.74506,0.00412
776.68489,0.00301
774.62472,0.00277
772.56454,0.00440
770.50437,0.00619
768.44420,0.00671
766.38403,0.00690
764.32386,0.00805
762.26368,0.00991
760.20351,0.01281
758.14334,0.01617
756.08317,0.01704
754.02299,0.01528
751.96282,0.01328
749.90265,0.01152
747.84248,0.00946
745.78231,0.00746
743.72213,0.00641
741.66196,0.00596
739.60179,0.00517
737.54162,0.00407
735.48145,0.00345
733.42127,0.00433
731.36110,0.00588
729.30093,0.00639
727.24076,0.00549
725.18059,0.00436
723.12041,0.00484
721.06024,0.00622
719.00007,0.00667
716.93990,0.00602
714.87972,0.00530
712.81955,0.00455
710.75938,0.00378
708.69921,0.00339
706.63904,0.00335
704.57886,0.00370
702.51869,0.00403
700.45852,0.00385
698.39835,0.00395
696.33818,0.00460
694.27800,0.00436
692.21783,0.00246
690.15766,0.00053
688.09749,0.00019
686.03731,0.00061
683.97714,0.00055
681.91697,0.00043
679.85680,0.00062
677.79663,0.00044
675.73645,-0.00025
673.67628,-0.00127
671.61611,-0.00236
669.55594,-0.00215
667.49577,-0.00046
665.43559,-0.00005
663.37542,-0.00004
661.31525,0.00202
659.25508,0.00461
657.19491,0.00460
655.13473,0.00184
653.07456,-0.00106
651.01439,-0.00172
648.95422,0.00000
646.89404,0.00205
644.83387,0.00280
642.77370,0.00280
640.71353,0.00391
638.65336,0.00559
636.59318,0.00581
634.53301,0.00460
632.47284,0.00378
630.41267,0.00424
628.35250,0.00471
626.29232,0.00358
624.23215,0.00251
622.17198,0.00424
620.11181,0.00624
618.05164,0.00572
615.99146,0.00565
613.93129,0.00616
611.87112,0.00558
609.81095,0.00614
607.75077,0.00721
605.69060,0.00629
603.63043,0.00406
601.57026,0.00131
599.51009,0.00000
