3996.73391,0.00030
3994.67373,0.00004
3992.61356,0.00000
3990.55339,0.00026
3988.49322,0.00051
3986.43305,0.00062
3984.37287,0.00078
3982.31270,0.00091
3980.25253,0.00100
3978.19236,0.00123
3976.13219,0.00147
3974.07201,0.00134
3972.01184,0.00100
3969.95167,0.00095
3967.89150,0.00102
3965.83133,0.00077
3963.77115,0.00044
3961.71098,0.00049
3959.65081,0.00067
3957.59064,0.00073
3955.53046,0.00091
3953.47029,0.00125
3951.41012,0.00139
3949.34995,0.00128
3947.28978,0.00116
3945.22960,0.00112
3943.16943,0.00118
3941.10926,0.00129
3939.04909,0.00131
3936.98892,0.00118
3934.92874,0.00109
3932.86857,0.00126
3930.80840,0.00140
3928.74823,0.00105
3926.68805,0.00037
3924.62788,0.00000
3922.56771,0.00031
3920.50754,0.00111
3918.44737,0.00187
3916.38719,0.00193
3914.32702,0.00133
3912.26685,0.00086
3910.20668,0.00082
3908.14651,0.00083
3906.08633,0.00076
3904.02616,0.00088
3901.96599,0.00127
3899.90582,0.00161
3897.84565,0.00157
3895.78547,0.00106
3893.72530,0.00049
3891.66513,0.00037
3889.60496,0.00073
3887.54478,0.00108
3885.48461,0.00121
3883.42444,0.00127
3881.36427,0.00148
3879.30410,0.00187
3877.24392,0.00189
3875.18375,0.00131
3873.12358,0.00077
3871.06341,0.00088
3869.00324,0.00141
3866.94306,0.00169
3864.88289,0.00175
3862.82272,0.00188
3860.76255,0.00182
3858.70237,0.00148
3856.64220,0.00126
3854.58203,0.00159
3852.52186,0.00222
3850.46169,0.00225
3848.40151,0.00175
3846.34134,0.00116
3844.28117,0.00094
3842.22100,0.00118
3840.16083,0.00141
3838.10065,0.00151
3836.04048,0.00166
3833.98031,0.00157
3831.92014,0.00126
3829.85997,0.00110
3827.79979,0.00111
3825.73962,0.00095
3823.67945,0.00043
3821.61928,0.00000
3819.55910,0.00024
3817.49893,0.00073
3815.43876,0.00113
3813.37859,0.00153
3811.31842,0.00180
3809.25824,0.00183
3807.19807,0.00185
3805.13790,0.00200
3803.07773,0.00211
3801.01756,0.00198
3798.95738,0.00161
3796.89721,0.00129
3794.83704,0.00139
3792.77687,0.00166
3790.71670,0.00167
3788.65652,0.00154
3786.59635,0.00135
3784.53618,0.00131
3782.47601,0.00157
3780.41583,0.00167
3778.35566,0.00134
3776.29549,0.00110
3774.23532,0.00120
3772.17515,0.00134
3770.11497,0.00148
3768.05480,0.00181
3765.99463,0.00213
3763.93446,0.00197
3761.87429,0.00137
3759.81411,0.00115
3757.75394,0.00164
3755.69377,0.00187
3753.63360,0.00127
3751.57342,0.00032
3749.51325,0.00000
3747.45308,0.00053
3745.39291,0.00152
3743.33274,0.00229
3741.27256,0.00235
3739.21239,0.00221
3737.15222,0.00224
3735.09205,0.00197
3733.03188,0.00130
3730.97170,0.00131
3728.91153,0.00199
3726.85136,0.00245
3724.79119,0.00235
3722.73102,0.00207
3720.67084,0.00199
3718.61067,0.00198
3716.55050,0.00176
3714.49033,0.00147
3712.43015,0.00165
3710.36998,0.00246
3708.30981,0.00301
3706.24964,0.00280
3704.18947,0.00224
3702.12929,0.00199
3700.06912,0.00204
3698.00895,0.00205
3695.94878,0.00236
3693.88861,0.00296
3691.82843,0.00324
3689.76826,0.00325
3687.70809,0.00329
3685.64792,0.00310
3683.58775,0.00280
3681.52757,0.00269
3679.46740,0.00286
3677.40723,0.00320
3675.34706,0.00334
3673.28688,0.00318
3671.22671,0.00326
3669.16654,0.00379
3667.10637,0.00434
3665.04620,0.00465
3662.98602,0.00487
3660.92585,0.00512
3658.86568,0.00554
3656.80551,0.00632
3654.74534,0.00706
3652.68516,0.00701
3650.62499,0.00674
3648.56482,0.00754
3646.50465,0.00884
3644.44447,0.00949
3642.38430,0.00980
3640.32413,0.01039
3638.26396,0.01126
3636.20379,0.01187
3634.14361,0.01210
3632.08344,0.01233
3630.02327,0.01289
3627.96310,0.01387
3625.90293,0.01485
3623.84275,0.01559
3621.78258,0.01611
3619.72241,0.01646
3617.66224,0.01684
3615.60207,0.01754
3613.54189,0.01871
3611.48172,0.02017
3609.42155,0.02137
3607.36138,0.02191
3605.30120,0.02197
3603.24103,0.02224
3601.18086,0.02294
3599.12069,0.02351
3597.06052,0.02375
3595.00034,0.02453
3592.94017,0.02606
3590.88000,0.02737
3588.81983,0.02825
3586.75966,0.02914
3584.69948,0.02997
3582.63931,0.03081
3580.57914,0.03181
3578.51897,0.03283
3576.45879,0.03376
3574.39862,0.03452
3572.33845,0.03489
3570.27828,0.03523
3568.21811,0.03621
3566.15793,0.03751
3564.09776,0.03812
3562.03759,0.03826
3559.97742,0.03866
3557.91725,0.03941
3555.85707,0.04012
3553.79690,0.04077
3551.73673,0.04171
3549.67656,0.04279
3547.61639,0.04379
3545.55621,0.04477
3543.49604,0.04557
3541.43587,0.04620
3539.37570,0.04705
3537.31552,0.04814
3535.25535,0.04906
3533.19518,0.04960
3531.13501,0.05001
3529.07484,0.05059
3527.01466,0.05154
3524.95449,0.05262
3522.89432,0.05338
3520.83415,0.05381
3518.77398,0.05420
3516.71380,0.05466
3514.65363,0.05512
3512.59346,0.05573
3510.53329,0.05649
3508.47312,0.05704
3506.41294,0.05738
3504.35277,0.05808
3502.29260,0.05924
3500.23243,0.06028
3498.17225,0.06103
3496.11208,0.06169
3494.05191,0.06238
3491.99174,0.06299
3489.93157,0.06338
3487.87139,0.06362
3485.81122,0.06407
3483.75105,0.06485
3481.69088,0.06563
3479.63071,0.06630
3477.57053,0.06691
3475.51036,0.06742
3473.45019,0.06797
3471.39002,0.06866
3469.32984,0.06917
3467.26967,0.06949
3465.20950,0.06996
3463.14933,0.07057
3461.08916,0.07139
3459.02898,0.07239
3456.96881,0.07325
3454.90864,0.07370
3452.84847,0.07374
3450.78830,0.07375
3448.72812,0.07410
3446.66795,0.07476
3444.60778,0.07551
3442.54761,0.07624
3440.48744,0.07693
3438.42726,0.07753
3436.36709,0.07828
3434.30692,0.07908
3432.24675,0.07959
3430.18657,0.07982
3428.12640,0.07987
3426.06623,0.07996
3424.00606,0.08057
3421.94589,0.08160
3419.88571,0.08217
3417.82554,0.08180
3415.76537,0.08133
3413.70520,0.08157
3411.64503,0.08204
3409.58485,0.08239
3407.52468,0.08311
3405.46451,0.08418
3403.40434,0.08486
3401.34416,0.08510
3399.28399,0.08559
3397.22382,0.08582
3395.16365,0.08548
3393.10348,0.08522
3391.04330,0.08555
3388.98313,0.08610
3386.92296,0.08667
3384.86279,0.08698
3382.80262,0.08692
3380.74244,0.08719
3378.68227,0.08787
3376.62210,0.08835
3374.56193,0.08861
3372.50176,0.08876
3370.44158,0.08886
3368.38141,0.08915
3366.32124,0.08955
3364.26107,0.08981
3362.20089,0.09005
3360.14072,0.09053
3358.08055,0.09101
3356.02038,0.09119
3353.96021,0.09097
3351.90003,0.09050
3349.83986,0.09019
3347.77969,0.09033
3345.71952,0.09069
3343.65935,0.09083
3341.59917,0.09068
3339.53900,0.09039
3337.47883,0.09008
3335.41866,0.09006
3333.35849,0.09040
3331.29831,0.09084
3329.23814,0.09133
3327.17797,0.09163
3325.11780,0.09146
3323.05762,0.09119
3320.99745,0.09121
3318.93728,0.09126
3316.87711,0.09114
3314.81694,0.09103
3312.75676,0.09107
3310.69659,0.09122
3308.63642,0.09144
3306.57625,0.09162
3304.51608,0.09165
3302.45590,0.09153
3300.39573,0.09154
3298.33556,0.09173
3296.27539,0.09156
3294.21521,0.09105
3292.15504,0.09092
3290.09487,0.09121
3288.03470,0.09143
3285.97453,0.09154
3283.91435,0.09155
3281.85418,0.09147
3279.79401,0.09135
3277.73384,0.09140
3275.67367,0.09157
3273.61349,0.09151
3271.55332,0.09140
3269.49315,0.09161
3267.43298,0.09202
3265.37281,0.09227
3263.31263,0.09222
3261.25246,0.09205
3259.19229,0.09194
3257.13212,0.09195
3255.07194,0.09194
3253.01177,0.09185
3250.95160,0.09180
3248.89143,0.09176
3246.83126,0.09180
3244.77108,0.09192
3242.71091,0.09169
3240.65074,0.09124
3238.59057,0.09129
3236.53040,0.09184
3234.47022,0.09219
3232.41005,0.09210
3230.34988,0.09161
3228.28971,0.09086
3226.22954,0.09039
3224.16936,0.09050
3222.10919,0.09070
3220.04902,0.09070
3217.98885,0.09074
3215.92867,0.09068
3213.86850,0.09029
3211.80833,0.08991
3209.74816,0.08968
3207.68799,0.08925
3205.62781,0.08886
3203.56764,0.08894
3201.50747,0.08929
3199.44730,0.08941
3197.38713,0.08899
3195.32695,0.08832
3193.26678,0.08787
3191.20661,0.08761
3189.14644,0.08728
3187.08626,0.08694
3185.02609,0.08675
3182.96592,0.08655
3180.90575,0.08628
3178.84558,0.08613
3176.78540,0.08620
3174.72523,0.08606
3172.66506,0.08534
3170.60489,0.08460
3168.54472,0.08443
3166.48454,0.08440
3164.42437,0.08401
3162.36420,0.08326
3160.30403,0.08273
3158.24386,0.08280
3156.18368,0.08289
3154.12351,0.08256
3152.06334,0.08213
3150.00317,0.08183
3147.94299,0.08154
3145.88282,0.08119
3143.82265,0.08090
3141.76248,0.08069
3139.70231,0.08044
3137.64213,0.08017
3135.58196,0.07979
3133.52179,0.07929
3131.46162,0.07882
3129.40145,0.07836
3127.34127,0.07792
3125.28110,0.07763
3123.22093,0.07735
3121.16076,0.07703
3119.10058,0.07667
3117.04041,0.07624
3114.98024,0.07589
3112.92007,0.07559
3110.85990,0.07509
3108.79972,0.07467
3106.73955,0.07449
3104.67938,0.07422
3102.61921,0.07377
3100.55904,0.07319
3098.49886,0.07257
3096.43869,0.07213
3094.37852,0.07181
3092.31835,0.07141
3090.25818,0.07096
3088.19800,0.07053
3086.13783,0.07026
3084.07766,0.07009
3082.01749,0.06974
3079.95731,0.06916
3077.89714,0.06854
3075.83697,0.06816
3073.77680,0.06807
3071.71663,0.06773
3069.65645,0.06704
3067.59628,0.06656
3065.53611,0.06623
3063.47594,0.06585
3061.41577,0.06557
3059.35559,0.06527
3057.29542,0.06484
3055.23525,0.06436
3053.17508,0.06392
3051.11491,0.06348
3049.05473,0.06300
3046.99456,0.06266
3044.93439,0.06237
3042.87422,0.06202
3040.81404,0.06160
3038.75387,0.06112
3036.69370,0.06063
3034.63353,0.06018
3032.57336,0.05966
3030.51318,0.05905
3028.45301,0.05854
3026.39284,0.05811
3024.33267,0.05761
3022.27250,0.05721
3020.21232,0.05704
3018.15215,0.05678
3016.09198,0.05638
3014.03181,0.05609
3011.97163,0.05574
3009.91146,0.05518
3007.85129,0.05466
3005.79112,0.05436
3003.73095,0.05414
3001.67077,0.05378
2999.61060,0.05315
2997.55043,0.05257
2995.49026,0.05232
2993.43009,0.05226
2991.36991,0.05201
2989.30974,0.05143
2987.24957,0.05099
2985.18940,0.05077
2983.12923,0.05041
2981.06905,0.04996
2979.00888,0.04973
2976.94871,0.04976
2974.88854,0.04985
2972.82836,0.04983
2970.76819,0.04975
2968.70802,0.04964
2966.64785,0.04946
2964.58768,0.04939
2962.52750,0.04962
2960.46733,0.04994
2958.40716,0.04992
2956.34699,0.04977
2954.28682,0.04973
2952.22664,0.04963
2950.16647,0.04952
2948.10630,0.04963
2946.04613,0.04973
2943.98596,0.04965
2941.92578,0.04983
2939.86561,0.05022
2937.80544,0.05041
2935.74527,0.05030
2933.68509,0.04985
2931.62492,0.04929
2929.56475,0.04902
2927.50458,0.04906
2925.44441,0.04899
2923.38423,0.04863
2921.32406,0.04835
2919.26389,0.04831
2917.20372,0.04821
2915.14355,0.04771
2913.08337,0.04710
2911.02320,0.04696
2908.96303,0.04722
2906.90286,0.04733
2904.84268,0.04690
2902.78251,0.04631
2900.72234,0.04610
2898.66217,0.04620
2896.60200,0.04630
2894.54182,0.04625
2892.48165,0.04610
2890.42148,0.04604
2888.36131,0.04588
2886.30114,0.04548
2884.24096,0.04517
2882.18079,0.04504
2880.12062,0.04483
2878.06045,0.04463
2876.00028,0.04455
2873.94010,0.04441
2871.87993,0.04404
2869.81976,0.04361
2867.75959,0.04331
2865.69941,0.04301
2863.63924,0.04275
2861.57907,0.04250
2859.51890,0.04215
2857.45873,0.04184
2855.39855,0.04167
2853.33838,0.04143
2851.27821,0.04104
2849.21804,0.04056
2847.15787,0.04007
2845.09769,0.03969
2843.03752,0.03943
2840.97735,0.03911
2838.91718,0.03867
2836.85700,0.03837
2834.79683,0.03830
2832.73666,0.03824
2830.67649,0.03810
2828.61632,0.03784
2826.55614,0.03749
2824.49597,0.03719
2822.43580,0.03701
2820.37563,0.03672
2818.31546,0.03633
2816.25528,0.03597
2814.19511,0.03568
2812.13494,0.03545
2810.07477,0.03525
2808.01460,0.03517
2805.95442,0.03507
2803.89425,0.03485
2801.83408,0.03476
2799.77391,0.03490
2797.71373,0.03496
2795.65356,0.03458
2793.59339,0.03399
2791.53322,0.03367
2789.47305,0.03362
2787.41287,0.03349
2785.35270,0.03325
2783.29253,0.03299
2781.23236,0.03270
2779.17219,0.03239
2777.11201,0.03219
2775.05184,0.03214
2772.99167,0.03221
2770.93150,0.03229
2768.87133,0.03208
2766.81115,0.03158
2764.75098,0.03116
2762.69081,0.03088
2760.63064,0.03075
2758.57046,0.03072
2756.51029,0.03059
2754.45012,0.03038
2752.38995,0.03024
2750.32978,0.03018
2748.26960,0.03019
2746.20943,0.03031
2744.14926,0.03035
2742.08909,0.03007
2740.02892,0.02965
2737.96874,0.02928
2735.90857,0.02909
2733.84840,0.02917
2731.78823,0.02921
2729.72805,0.02893
2727.66788,0.02853
2725.60771,0.02830
2723.54754,0.02838
2721.48737,0.02849
2719.42719,0.02834
2717.36702,0.02807
2715.30685,0.02792
2713.24668,0.02777
2711.18651,0.02754
2709.12633,0.02717
2707.06616,0.02674
2705.00599,0.02649
2702.94582,0.02624
2700.88565,0.02593
2698.82547,0.02590
2696.76530,0.02598
2694.70513,0.02583
2692.64496,0.02560
2690.58478,0.02541
2688.52461,0.02521
2686.46444,0.02511
2684.40427,0.02499
2682.34410,0.02467
2680.28392,0.02432
2678.22375,0.02403
2676.16358,0.02387
2674.10341,0.02382
2672.04324,0.02368
2669.98306,0.02337
2667.92289,0.02301
2665.86272,0.02279
2663.80255,0.02271
2661.74238,0.02243
2659.68220,0.02188
2657.62203,0.02152
2655.56186,0.02140
2653.50169,0.02127
2651.44151,0.02111
2649.38134,0.02088
2647.32117,0.02057
2645.26100,0.02025
2643.20083,0.02016
2641.14065,0.02029
2639.08048,0.02029
2637.02031,0.02006
2634.96014,0.01975
2632.89997,0.01964
2630.83979,0.01956
2628.77962,0.01917
2626.71945,0.01876
2624.65928,0.01838
2622.59910,0.01801
2620.53893,0.01794
2618.47876,0.01786
2616.41859,0.01748
2614.35842,0.01714
2612.29824,0.01723
2610.23807,0.01754
2608.17790,0.01776
2606.11773,0.01768
2604.05756,0.01715
2601.99738,0.01671
2599.93721,0.01671
2597.87704,0.01674
2595.81687,0.01670
2593.75670,0.01665
2591.69652,0.01652
2589.63635,0.01623
2587.57618,0.01586
2585.51601,0.01578
2583.45583,0.01583
2581.39566,0.01558
2579.33549,0.01527
2577.27532,0.01529
2575.21515,0.01557
2573.15497,0.01578
2571.09480,0.01561
2569.03463,0.01510
2566.97446,0.01469
2564.91429,0.01463
2562.85411,0.01485
2560.79394,0.01515
2558.73377,0.01526
2556.67360,0.01527
2554.61342,0.01527
2552.55325,0.01525
2550.49308,0.01507
2548.43291,0.01465
2546.37274,0.01427
2544.31256,0.01410
2542.25239,0.01409
2540.19222,0.01429
2538.13205,0.01449
2536.07188,0.01455
2534.01170,0.01469
2531.95153,0.01498
2529.89136,0.01528
2527.83119,0.01541
2525.77102,0.01528
2523.71084,0.01498
2521.65067,0.01471
2519.59050,0.01471
2517.53033,0.01472
2515.47015,0.01459
2513.40998,0.01476
2511.34981,0.01506
2509.28964,0.01503
2507.22947,0.01477
2505.16929,0.01448
2503.10912,0.01449
2501.04895,0.01491
2498.98878,0.01518
2496.92861,0.01522
2494.86843,0.01526
2492.80826,0.01498
2490.74809,0.01445
2488.68792,0.01438
2486.62775,0.01470
2484.56757,0.01484
2482.50740,0.01491
2480.44723,0.01494
2478.38706,0.01494
2476.32688,0.01505
2474.26671,0.01495
2472.20654,0.01470
2470.14637,0.01466
2468.08620,0.01477
2466.02602,0.01476
2463.96585,0.01485
2461.90568,0.01520
2459.84551,0.01538
2457.78534,0.01530
2455.72516,0.01505
2453.66499,0.01466
2451.60482,0.01462
2449.54465,0.01495
2447.48447,0.01502
2445.42430,0.01494
2443.36413,0.01489
2441.30396,0.01456
2439.24379,0.01442
2437.18361,0.01475
2435.12344,0.01487
2433.06327,0.01472
2431.00310,0.01486
2428.94293,0.01500
2426.88275,0.01495
2424.82258,0.01502
2422.76241,0.01493
2420.70224,0.01460
2418.64207,0.01468
2416.58189,0.01503
2414.52172,0.01515
2412.46155,0.01511
2410.40138,0.01489
2408.34120,0.01464
2406.28103,0.01450
2404.22086,0.01436
2402.16069,0.01428
2400.10052,0.01435
2398.04034,0.01440
2395.98017,0.01426
2393.92000,0.01416
2391.85983,0.01413
2389.79966,0.01413
2387.73948,0.01428
2385.67931,0.01445
2383.61914,0.01449
2381.55897,0.01448
2379.49880,0.01442
2377.43862,0.01431
2375.37845,0.01470
2373.31828,0.01604
2371.25811,0.01730
2369.19793,0.01637
2367.13776,0.01228
2365.07759,0.00757
2363.01742,0.00587
2360.95725,0.00579
2358.89707,0.00508
2356.83690,0.00561
2354.77673,0.00814
2352.71656,0.01108
2350.65639,0.01290
2348.59621,0.01377
2346.53604,0.01422
2344.47587,0.01395
2342.41570,0.01281
2340.35552,0.01155
2338.29535,0.01088
2336.23518,0.01111
2334.17501,0.01189
2332.11484,0.01253
2330.05466,0.01250
2327.99449,0.01206
2325.93432,0.01232
2323.87415,0.01340
2321.81398,0.01386
2319.75380,0.01316
2317.69363,0.01261
2315.63346,0.01297
2313.57329,0.01346
2311.51312,0.01327
2309.45294,0.01291
2307.39277,0.01299
2305.33260,0.01317
2303.27243,0.01307
2301.21225,0.01267
2299.15208,0.01212
2297.09191,0.01176
2295.03174,0.01172
2292.97157,0.01173
2290.91139,0.01181
2288.85122,0.01213
2286.79105,0.01240
2284.73088,0.01231
2282.67071,0.01197
2280.61053,0.01143
2278.55036,0.01088
2276.49019,0.01071
2274.43002,0.01062
2272.36984,0.01030
2270.30967,0.01004
2268.24950,0.00988
2266.18933,0.00957
2264.12916,0.00932
2262.06898,0.00940
2260.00881,0.00950
2257.94864,0.00937
2255.88847,0.00944
2253.82830,0.00970
2251.76812,0.00959
2249.70795,0.00933
2247.64778,0.00933
2245.58761,0.00891
2243.52744,0.00805
2241.46726,0.00770
2239.40709,0.00790
2237.34692,0.00816
2235.28675,0.00857
2233.22657,0.00918
2231.16640,0.00929
2229.10623,0.00875
2227.04606,0.00847
2224.98589,0.00873
2222.92571,0.00884
2220.86554,0.00805
2218.80537,0.00693
2216.74520,0.00646
2214.68503,0.00668
2212.62485,0.00711
2210.56468,0.00705
2208.50451,0.00634
2206.44434,0.00602
2204.38417,0.00649
2202.32399,0.00679
2200.26382,0.00697
2198.20365,0.00736
2196.14348,0.00757
2194.08330,0.00710
2192.02313,0.00624
2189.96296,0.00595
2187.90279,0.00621
2185.84262,0.00640
2183.78244,0.00557
2181.72227,0.00442
2179.66210,0.00466
2177.60193,0.00557
2175.54176,0.00605
2173.48158,0.00606
2171.42141,0.00582
2169.36124,0.00529
2167.30107,0.00467
2165.24089,0.00462
2163.18072,0.00464
2161.12055,0.00466
2159.06038,0.00492
2157.00021,0.00476
2154.94003,0.00441
2152.87986,0.00438
2150.81969,0.00448
2148.75952,0.00412
2146.69935,0.00348
2144.63917,0.00388
2142.57900,0.00510
2140.51883,0.00548
2138.45866,0.00511
2136.39849,0.00489
2134.33831,0.00524
2132.27814,0.00602
2130.21797,0.00612
2128.15780,0.00570
2126.09762,0.00559
2124.03745,0.00559
2121.97728,0.00573
2119.91711,0.00596
2117.85694,0.00572
2115.79676,0.00551
2113.73659,0.00574
2111.67642,0.00568
2109.61625,0.00552
2107.55608,0.00526
2105.49590,0.00456
2103.43573,0.00447
2101.37556,0.00501
2099.31539,0.00496
2097.25521,0.00456
2095.19504,0.00468
2093.13487,0.00528
2091.07470,0.00512
2089.01453,0.00432
2086.95435,0.00406
2084.89418,0.00409
2082.83401,0.00389
2080.77384,0.00364
2078.71367,0.00355
2076.65349,0.00337
2074.59332,0.00290
2072.53315,0.00278
2070.47298,0.00315
2068.41281,0.00324
2066.35263,0.00297
2064.29246,0.00283
2062.23229,0.00305
2060.17212,0.00344
2058.11194,0.00354
2056.05177,0.00363
2053.99160,0.00396
2051.93143,0.00360
2049.87126,0.00237
2047.81108,0.00179
2045.75091,0.00263
2043.69074,0.00361
2041.63057,0.00331
2039.57040,0.00256
2037.51022,0.00263
2035.45005,0.00294
2033.38988,0.00256
2031.32971,0.00140
2029.26954,0.00039
2027.20936,0.00038
2025.14919,0.00050
2023.08902,0.00000
2021.02885,0.00000
2018.96867,0.00136
2016.90850,0.00277
2014.84833,0.00254
2012.78816,0.00147
2010.72799,0.00140
2008.66781,0.00221
2006.60764,0.00215
2004.54747,0.00135
2002.48730,0.00131
2000.42713,0.00182
1998.36695,0.00187
1996.30678,0.00151
1994.24661,0.00121
1992.18644,0.00135
1990.12626,0.00200
1988.06609,0.00243
1986.00592,0.00205
1983.94575,0.00157
1981.88558,0.00178
1979.82540,0.00204
1977.76523,0.00127
1975.70506,0.00029
1973.64489,0.00026
1971.58472,0.00054
1969.52454,0.00045
1967.46437,0.00008
1965.40420,0.00000
1963.34403,0.00050
1961.28386,0.00099
1959.22368,0.00139
1957.16351,0.00190
1955.10334,0.00195
1953.04317,0.00149
1950.98299,0.00125
1948.92282,0.00117
1946.86265,0.00080
1944.80248,0.00050
1942.74231,0.00070
1940.68213,0.00125
1938.62196,0.00170
1936.56179,0.00193
1934.50162,0.00202
1932.44145,0.00177
1930.38127,0.00145
1928.32110,0.00132
1926.26093,0.00093
1924.20076,0.00069
1922.14059,0.00143
1920.08041,0.00231
1918.02024,0.00219
1915.96007,0.00145
1913.89990,0.00096
1911.83972,0.00073
1909.77955,0.00050
1907.71938,0.00037
1905.65921,0.00043
1903.59904,0.00060
1901.53886,0.00057
1899.47869,0.00029
1897.41852,0.00013
1895.35835,0.00055
1893.29818,0.00133
1891.23800,0.00185
1889.17783,0.00207
1887.11766,0.00209
1885.05749,0.00168
1882.99731,0.00098
1880.93714,0.00049
1878.87697,0.00042
1876.81680,0.00071
1874.75663,0.00124
1872.69645,0.00143
1870.63628,0.00081
1868.57611,0.00000
1866.51594,0.00005
1864.45577,0.00082
1862.39559,0.00146
1860.33542,0.00164
1858.27525,0.00148
1856.21508,0.00100
1854.15491,0.00051
1852.09473,0.00038
1850.03456,0.00046
1847.97439,0.00037
1845.91422,0.00032
1843.85404,0.00076
1841.79387,0.00145
1839.73370,0.00173
1837.67353,0.00152
1835.61336,0.00124
1833.55318,0.00104
1831.49301,0.00088
1829.43284,0.00096
1827.37267,0.00131
1825.31250,0.00155
1823.25232,0.00152
1821.19215,0.00143
1819.13198,0.00146
1817.07181,0.00149
1815.01163,0.00138
1812.95146,0.00134
1810.89129,0.00141
1808.83112,0.00150
1806.77095,0.00166
1804.71077,0.00184
1802.65060,0.00193
1800.59043,0.00184
1798.53026,0.00163
1796.47009,0.00137
1794.40991,0.00123
1792.34974,0.00146
1790.28957,0.00196
1788.22940,0.00225
1786.16923,0.00227
1784.10905,0.00222
1782.04888,0.00216
1779.98871,0.00203
1777.92854,0.00180
1775.86836,0.00145
1773.80819,0.00112
1771.74802,0.00122
1769.68785,0.00180
1767.62768,0.00230
1765.56750,0.00245
1763.50733,0.00244
1761.44716,0.00259
1759.38699,0.00300
1757.32682,0.00361
1755.26664,0.00410
1753.20647,0.00418
1751.14630,0.00431
1749.08613,0.00489
1747.02596,0.00548
1744.96578,0.00571
1742.90561,0.00569
1740.84544,0.00571
1738.78527,0.00591
1736.72509,0.00617
1734.66492,0.00662
1732.60475,0.00735
1730.54458,0.00787
1728.48441,0.00811
1726.42423,0.00825
1724.36406,0.00842
1722.30389,0.00862
1720.24372,0.00866
1718.18355,0.00885
1716.12337,0.00968
1714.06320,0.01061
1712.00303,0.01112
1709.94286,0.01136
1707.88268,0.01149
1705.82251,0.01158
1703.76234,0.01164
1701.70217,0.01181
1699.64200,0.01252
1697.58182,0.01369
1695.52165,0.01476
1693.46148,0.01555
1691.40131,0.01612
1689.34114,0.01644
1687.28096,0.01648
1685.22079,0.01698
1683.16062,0.01858
1681.10045,0.02002
1679.04028,0.02057
1676.98010,0.02082
1674.91993,0.02142
1672.85976,0.02226
1670.79959,0.02307
1668.73941,0.02394
1666.67924,0.02465
1664.61907,0.02518
1662.55890,0.02592
1660.49873,0.02676
1658.43855,0.02725
1656.37838,0.02733
1654.31821,0.02743
1652.25804,0.02805
1650.19787,0.02850
1648.13769,0.02876
1646.07752,0.02941
1644.01735,0.02982
1641.95718,0.02945
1639.89701,0.02876
1637.83683,0.02847
1635.77666,0.02906
1633.71649,0.02973
1631.65632,0.02952
1629.59614,0.02881
1627.53597,0.02827
1625.47580,0.02808
1623.41563,0.02810
1621.35546,0.02813
1619.29528,0.02795
1617.23511,0.02781
1615.17494,0.02814
1613.11477,0.02846
1611.05460,0.02832
1608.99442,0.02783
1606.93425,0.02724
1604.87408,0.02659
1602.81391,0.02591
1600.75373,0.02522
1598.69356,0.02453
1596.63339,0.02380
1594.57322,0.02302
1592.51305,0.02216
1590.45287,0.02105
1588.39270,0.01982
1586.33253,0.01882
1584.27236,0.01804
1582.21219,0.01713
1580.15201,0.01596
1578.09184,0.01476
1576.03167,0.01388
1573.97150,0.01333
1571.91133,0.01270
1569.85115,0.01204
1567.79098,0.01162
1565.73081,0.01122
1563.67064,0.01056
1561.61046,0.00947
1559.55029,0.00832
1557.49012,0.00823
1555.42995,0.00864
1553.36978,0.00846
1551.30960,0.00778
1549.24943,0.00724
1547.18926,0.00691
1545.12909,0.00636
1543.06892,0.00526
1541.00874,0.00411
1538.94857,0.00400
1536.88840,0.00447
1534.82823,0.00461
1532.76805,0.00451
1530.70788,0.00431
1528.64771,0.00389
1526.58754,0.00344
1524.52737,0.00315
1522.46719,0.00287
1520.40702,0.00256
1518.34685,0.00250
1516.28668,0.00289
1514.22651,0.00320
1512.16633,0.00285
1510.10616,0.00203
1508.04599,0.00142
1505.98582,0.00152
1503.92565,0.00178
1501.86547,0.00163
1499.80530,0.00102
1497.74513,0.00045
1495.68496,0.00039
1493.62478,0.00057
1491.56461,0.00074
1489.50444,0.00104
1487.44427,0.00132
1485.38410,0.00140
1483.32392,0.00138
1481.26375,0.00143
1479.20358,0.00156
1477.14341,0.00161
1475.08324,0.00169
1473.02306,0.00222
1470.96289,0.00311
1468.90272,0.00365
1466.84255,0.00389
1464.78238,0.00424
1462.72220,0.00468
1460.66203,0.00501
1458.60186,0.00545
1456.54169,0.00618
1454.48151,0.00657
1452.42134,0.00659
1450.36117,0.00651
1448.30100,0.00642
1446.24083,0.00640
1444.18065,0.00635
1442.12048,0.00621
1440.06031,0.00603
1438.00014,0.00595
1435.93997,0.00618
1433.87979,0.00645
1431.81962,0.00658
1429.75945,0.00675
1427.69928,0.00699
1425.63910,0.00724
1423.57893,0.00753
1421.51876,0.00778
1419.45859,0.00812
1417.39842,0.00857
1415.33824,0.00875
1413.27807,0.00871
1411.21790,0.00867
1409.15773,0.00862
1407.09756,0.00836
1405.03738,0.00794
1402.97721,0.00759
1400.91704,0.00736
1398.85687,0.00719
1396.79670,0.00711
1394.73652,0.00712
1392.67635,0.00714
1390.61618,0.00716
1388.55601,0.00732
1386.49583,0.00767
1384.43566,0.00807
1382.37549,0.00838
1380.31532,0.00859
1378.25515,0.00875
1376.19497,0.00889
1374.13480,0.00907
1372.07463,0.00918
1370.01446,0.00909
1367.95429,0.00888
1365.89411,0.00863
1363.83394,0.00834
1361.77377,0.00801
1359.71360,0.00761
1357.65343,0.00723
1355.59325,0.00709
1353.53308,0.00707
1351.47291,0.00689
1349.41274,0.00660
1347.35256,0.00637
1345.29239,0.00628
1343.23222,0.00632
1341.17205,0.00639
1339.11188,0.00636
1337.05170,0.00619
1334.99153,0.00593
1332.93136,0.00573
1330.87119,0.00561
1328.81102,0.00546
1326.75084,0.00525
1324.69067,0.00501
1322.63050,0.00477
1320.57033,0.00463
1318.51015,0.00452
1316.44998,0.00432
1314.38981,0.00414
1312.32964,0.00407
1310.26947,0.00411
1308.20929,0.00413
1306.14912,0.00405
1304.08895,0.00394
1302.02878,0.00393
1299.96861,0.00397
1297.90843,0.00400
1295.84826,0.00405
1293.78809,0.00411
1291.72792,0.00422
1289.66775,0.00441
1287.60757,0.00453
1285.54740,0.00441
1283.48723,0.00421
1281.42706,0.00413
1279.36688,0.00421
1277.30671,0.00439
1275.24654,0.00453
1273.18637,0.00448
1271.12620,0.00432
1269.06602,0.00422
1267.00585,0.00428
1264.94568,0.00445
1262.88551,0.00467
1260.82534,0.00480
1258.76516,0.00468
1256.70499,0.00445
1254.64482,0.00424
1252.58465,0.00402
1250.52447,0.00377
1248.46430,0.00354
1246.40413,0.00339
1244.34396,0.00329
1242.28379,0.00326
1240.22361,0.00330
1238.16344,0.00333
1236.10327,0.00323
1234.04310,0.00311
1231.98293,0.00311
1229.92275,0.00308
1227.86258,0.00295
1225.80241,0.00284
1223.74224,0.00268
1221.68207,0.00238
1219.62189,0.00208
1217.56172,0.00190
1215.50155,0.00174
1213.44138,0.00145
1211.38120,0.00106
1209.32103,0.00069
1207.26086,0.00045
1205.20069,0.00042
1203.14052,0.00039
1201.08034,0.00017
1199.02017,0.00000
1196.96000,0.00000
1194.89983,0.00006
1192.83966,0.00021
1190.77948,0.00050
1188.71931,0.00087
1186.65914,0.00137
1184.59897,0.00199
1182.53880,0.00282
1180.47862,0.00394
1178.41845,0.00524
1176.35828,0.00654
1174.29811,0.00771
1172.23793,0.00886
1170.17776,0.01018
1168.11759,0.01168
1166.05742,0.01309
1163.99725,0.01426
1161.93707,0.01537
1159.87690,0.01645
1157.81673,0.01743
1155.75656,0.01847
1153.69639,0.01970
1151.63621,0.02095
1149.57604,0.02219
1147.51587,0.02360
1145.45570,0.02518
1143.39552,0.02684
1141.33535,0.02847
1139.27518,0.02992
1137.21501,0.03127
1135.15484,0.03274
1133.09466,0.03429
1131.03449,0.03571
1128.97432,0.03699
1126.91415,0.03822
1124.85398,0.03947
1122.79380,0.04079
1120.73363,0.04217
1118.67346,0.04364
1116.61329,0.04539
1114.55312,0.04747
1112.49294,0.04956
1110.43277,0.05149
1108.37260,0.05343
1106.31243,0.05570
1104.25225,0.05833
1102.19208,0.06099
1100.13191,0.06365
1098.07174,0.06646
1096.01157,0.06921
1093.95139,0.07177
1091.89122,0.07412
1089.83105,0.07639
1087.77088,0.07889
1085.71071,0.08160
1083.65053,0.08411
1081.59036,0.08624
1079.53019,0.08839
1077.47002,0.09085
1075.40985,0.09323
1073.34967,0.09511
1071.28950,0.09659
1069.22933,0.09777
1067.16916,0.09861
1065.10898,0.09931
1063.04881,0.09998
1060.98864,0.10039
1058.92847,0.10040
1056.86830,0.10020
1054.80812,0.10001
1052.74795,0.10000
1050.68778,0.09990
1048.62761,0.09937
1046.56744,0.09829
1044.50726,0.09689
1042.44709,0.09538
1040.38692,0.09384
1038.32675,0.09245
1036.26657,0.09089
1034.20640,0.08874
1032.14623,0.08641
1030.08606,0.08443
1028.02589,0.08278
1025.96571,0.08106
1023.90554,0.07900
1021.84537,0.07702
1019.78520,0.07540
1017.72503,0.07361
1015.66485,0.07135
1013.60468,0.06898
1011.54451,0.06702
1009.48434,0.06557
1007.42417,0.06413
1005.36399,0.06258
1003.30382,0.06117
1001.24365,0.06010
999.18348,0.05967
997.12330,0.05983
995.06313,0.06040
993.00296,0.06144
990.94279,0.06259
988.88262,0.06351
986.82244,0.06431
984.76227,0.06468
982.70210,0.06419
980.64193,0.06298
978.58176,0.06123
976.52158,0.05907
974.46141,0.05674
972.40124,0.05407
970.34107,0.05094
968.28089,0.04776
966.22072,0.04469
964.16055,0.04170
962.10038,0.03897
960.04021,0.03674
957.98003,0.03491
955.91986,0.03314
953.85969,0.03140
951.79952,0.02999
949.73935,0.02917
947.67917,0.02873
945.61900,0.02836
943.55883,0.02816
941.49866,0.02807
939.43849,0.02774
937.37831,0.02728
935.31814,0.02697
933.25797,0.02665
931.19780,0.02619
929.13762,0.02572
927.07745,0.02528
925.01728,0.02481
922.95711,0.02406
920.89694,0.02299
918.83676,0.02185
916.77659,0.02080
914.71642,0.01972
912.65625,0.01857
910.59608,0.01751
908.53590,0.01667
906.47573,0.01606
904.41556,0.01587
902.35539,0.01607
900.29522,0.01604
898.23504,0.01564
896.17487,0.01534
894.11470,0.01530
892.05453,0.01550
889.99435,0.01575
887.93418,0.01594
885.87401,0.01627
883.81384,0.01687
881.75367,0.01747
879.69349,0.01808
877.63332,0.01862
875.57315,0.01885
873.51298,0.01928
871.45281,0.02016
869.39263,0.02105
867.33246,0.02132
865.27229,0.02093
863.21212,0.02028
861.15194,0.01969
859.09177,0.01944
857.03160,0.01957
854.97143,0.01981
852.91126,0.01954
850.85108,0.01846
848.79091,0.01709
846.73074,0.01620
844.67057,0.01560
842.61040,0.01464
840.55022,0.01342
838.49005,0.01246
836.42988,0.01190
834.36971,0.01153
832.30954,0.01104
830.24936,0.01049
828.18919,0.01013
826.12902,0.00959
824.06885,0.00872
822.00867,0.00800
819.94850,0.00726
817.88833,0.00620
815.82816,0.00567
813.76799,0.00586
811.70781,0.00594
809.64764,0.00574
807.58747,0.00546
805.52730,0.00495
803.46713,0.00432
801.40695,0.00411
799.34678,0.00404
797.28661,0.00359
795.22644,0.00331
793.16627,0.00341
791.10609,0.00349
789.04592,0.00344
786.98575,0.00366
784.92558,0.00440
782.86540,0.00496
780.80523,0.00479
778.74506,0.00389
776.68489,0.00283
774.62472,0.00264
772.56454,0.00309
770.50437,0.00345
768.44420,0.00379
766.38403,0.00448
764.32386,0.00532
762.26368,0.00536
760.20351,0.00439
758.14334,0.00333
756.08317,0.00281
754.02299,0.00281
751.96282,0.00295
749.90265,0.00245
747.84248,0.00157
745.78231,0.00103
743.72213,0.00063
741.66196,0.00024
739.60179,0.00000
737.54162,0.00019
735.48145,0.00093
733.42127,0.00121
731.36110,0.00100
729.30093,0.00123
727.24076,0.00115
725.18059,0.00047
723.12041,0.00009
721.06024,0.00050
719.00007,0.00147
716.93990,0.00257
714.87972,0.00352
712.81955,0.00406
710.75938,0.00412
708.69921,0.00389
706.63904,0.00382
704.57886,0.00395
702.51869,0.00368
700.45852,0.00295
698.39835,0.00222
696.33818,0.00168
694.27800,0.00117
692.21783,0.00085
690.15766,0.00114
688.09749,0.00153
686.03731,0.00113
683.97714,0.00054
681.91697,0.00066
679.85680,0.00095
677.79663,0.00110
675.73645,0.00132
673.67628,0.00150
671.61611,0.00192
669.55594,0.00254
667.49577,0.00225
665.43559,0.00120
663.37542,0.00055
661.31525,0.00091
659.25508,0.00187
657.19491,0.00207
655.13473,0.00104
653.07456,0.00018
651.01439,0.00053
648.95422,0.00170
646.89404,0.00291
644.83387,0.00312
642.77370,0.00187
640.71353,0.00039
638.65336,0.00000
636.59318,0.00089
634.53301,0.00271
632.47284,0.00407
630.41267,0.00401
628.35250,0.00354
626.29232,0.00357
624.23215,0.00318
622.17198,0.00185
620.11181,0.00102
618.05164,0.00187
615.99146,0.00381
613.93129,0.00542
611.87112,0.00464
609.81095,0.00303
607.75077,0.00317
605.69060,0.00367
603.63043,0.00305
601.57026,0.00151
599.51009,0.00000
