3996.73391,0.00111
3994.67373,0.00040
3992.61356,0.00000
3990.55339,0.00017
3988.49322,0.00043
3986.43305,0.00057
3984.37287,0.00068
3982.31270,0.00071
3980.25253,0.00088
3978.19236,0.00126
3976.13219,0.00151
3974.07201,0.00139
3972.01184,0.00111
3969.95167,0.00106
3967.89150,0.00112
3965.83133,0.00101
3963.77115,0.00100
3961.71098,0.00124
3959.65081,0.00124
3957.59064,0.00095
3955.53046,0.00087
3953.47029,0.00102
3951.41012,0.00103
3949.34995,0.00099
3947.28978,0.00100
3945.22960,0.00091
3943.16943,0.00084
3941.10926,0.00107
3939.04909,0.00145
3936.98892,0.00153
3934.92874,0.00126
3932.86857,0.00108
3930.80840,0.00098
3928.74823,0.00066
3926.68805,0.00042
3924.62788,0.00058
3922.56771,0.00091
3920.50754,0.00120
3918.44737,0.00156
3916.38719,0.00164
3914.32702,0.00113
3912.26685,0.00060
3910.20668,0.00036
3908.14651,0.00013
3906.08633,0.00000
3904.02616,0.00041
3901.96599,0.00114
3899.90582,0.00148
3897.84565,0.00130
3895.78547,0.00077
3893.72530,0.00025
3891.66513,0.00018
3889.60496,0.00056
3887.54478,0.00083
3885.48461,0.00083
3883.42444,0.00071
3881.36427,0.00078
3879.30410,0.00127
3877.24392,0.00147
3875.18375,0.00112
3873.12358,0.00077
3871.06341,0.00069
3869.00324,0.00070
3866.94306,0.00062
3864.88289,0.00081
3862.82272,0.00133
3860.76255,0.00147
3858.70237,0.00104
3856.64220,0.00058
3854.58203,0.00066
3852.52186,0.00129
3850.46169,0.00165
3848.40151,0.00143
3846.34134,0.00093
3844.28117,0.00050
3842.22100,0.00042
3840.16083,0.00066
3838.10065,0.00115
3836.04048,0.00174
3833.98031,0.00184
3831.92014,0.00141
3829.85997,0.00097
3827.79979,0.00079
3825.73962,0.00070
3823.67945,0.00052
3821.61928,0.00027
3819.55910,0.00019
3817.49893,0.00042
3815.43876,0.00097
3813.37859,0.00136
3811.31842,0.00117
3809.25824,0.00068
3807.19807,0.00059
3805.13790,0.00104
3803.07773,0.00144
3801.01756,0.00166
3798.95738,0.00163
3796.89721,0.00133
3794.83704,0.00123
3792.77687,0.00147
3790.71670,0.00158
3788.65652,0.00142
3786.59635,0.00119
3784.53618,0.00099
3782.47601,0.00086
3780.41583,0.00076
3778.35566,0.00059
3776.29549,0.00034
3774.23532,0.00013
3772.17515,0.00001
3770.11497,0.00001
3768.05480,0.00016
3765.99463,0.00031
3763.93446,0.00039
3761.87429,0.00060
3759.81411,0.00111
3757.75394,0.00156
3755.69377,0.00137
3753.63360,0.00084
3751.57342,0.00078
3749.51325,0.00139
3747.45308,0.00192
3745.39291,0.00228
3743.33274,0.00250
3741.27256,0.00206
3739.21239,0.00131
3737.15222,0.00111
3735.09205,0.00147
3733.03188,0.00153
3730.97170,0.00134
3728.91153,0.00125
3726.85136,0.00100
3724.79119,0.00055
3722.73102,0.00056
3720.67084,0.00102
3718.61067,0.00122
3716.55050,0.00071
3714.49033,0.00004
3712.43015,0.00014
3710.36998,0.00085
3708.30981,0.00137
3706.24964,0.00130
3704.18947,0.00098
3702.12929,0.00077
3700.06912,0.00073
3698.00895,0.00086
3695.94878,0.00129
3693.88861,0.00178
3691.82843,0.00177
3689.76826,0.00170
3687.70809,0.00193
3685.64792,0.00199
3683.58775,0.00173
3681.52757,0.00159
3679.46740,0.00164
3677.40723,0.00174
3675.34706,0.00190
3673.28688,0.00214
3671.22671,0.00249
3669.16654,0.00306
3667.10637,0.00348
3665.04620,0.00358
3662.98602,0.00365
3660.92585,0.00382
3658.86568,0.00401
3656.80551,0.00443
3654.74534,0.00492
3652.68516,0.00489
3650.62499,0.00512
3648.56482,0.00653
3646.50465,0.00773
3644.44447,0.00808
3642.38430,0.00822
3640.32413,0.00861
3638.26396,0.00923
3636.20379,0.00985
3634.14361,0.01045
3632.08344,0.01088
3630.02327,0.01114
3627.96310,0.01185
3625.90293,0.01312
3623.84275,0.01431
3621.78258,0.01505
3619.72241,0.01533
3617.66224,0.01551
3615.60207,0.01601
3613.54189,0.01681
3611.48172,0.01793
3609.42155,0.01909
3607.36138,0.01980
3605.30120,0.01995
3603.24103,0.02006
3601.18086,0.02059
3599.12069,0.02115
3597.06052,0.02155
3595.00034,0.02218
3592.94017,0.02329
3590.88000,0.02437
3588.81983,0.02547
3586.75966,0.02669
3584.69948,0.02757
3582.63931,0.02816
3580.57914,0.02886
3578.51897,0.02970
3576.45879,0.03056
3574.39862,0.03135
3572.33845,0.03197
3570.27828,0.03270
3568.21811,0.03397
3566.15793,0.03522
3564.09776,0.03542
3562.03759,0.03520
3559.97742,0.03539
3557.91725,0.03597
3555.85707,0.03679
3553.79690,0.03773
3551.73673,0.03866
3549.67656,0.03959
3547.61639,0.04075
3545.55621,0.04206
3543.49604,0.04301
3541.43587,0.04349
3539.37570,0.04381
3537.31552,0.04415
3535.25535,0.04453
3533.19518,0.04494
3531.13501,0.04561
3529.07484,0.04672
3527.01466,0.04799
3524.95449,0.04892
3522.89432,0.04940
3520.83415,0.04980
3518.77398,0.05038
3516.71380,0.05096
3514.65363,0.05131
3512.59346,0.05162
3510.53329,0.05222
3508.47312,0.05301
3506.41294,0.05369
3504.35277,0.05450
3502.29260,0.05564
3500.23243,0.05660
3498.17225,0.05715
3496.11208,0.05754
3494.05191,0.05801
3491.99174,0.05860
3489.93157,0.05932
3487.87139,0.05995
3485.81122,0.06030
3483.75105,0.06064
3481.69088,0.06124
3479.63071,0.06193
3477.57053,0.06249
3475.51036,0.06293
3473.45019,0.06349
3471.39002,0.06425
3469.32984,0.06491
3467.26967,0.06540
3465.20950,0.06593
3463.14933,0.06659
3461.08916,0.06748
3459.02898,0.06839
3456.96881,0.06900
3454.90864,0.06938
3452.84847,0.06968
3450.78830,0.06988
3448.72812,0.07001
3446.66795,0.07037
3444.60778,0.07110
3442.54761,0.07178
3440.48744,0.07208
3438.42726,0.07234
3436.36709,0.07296
3434.30692,0.07373
3432.24675,0.07440
3430.18657,0.07492
3428.12640,0.07529
3426.06623,0.07556
3424.00606,0.07589
3421.94589,0.07652
3419.88571,0.07720
3417.82554,0.07743
3415.76537,0.07731
3413.70520,0.07718
3411.64503,0.07740
3409.58485,0.07808
3407.52468,0.07869
3405.46451,0.07883
3403.40434,0.07882
3401.34416,0.07917
3399.28399,0.07998
3397.22382,0.08050
3395.16365,0.08072
3393.10348,0.08087
3391.04330,0.08077
3388.98313,0.08061
3386.92296,0.08110
3384.86279,0.08201
3382.80262,0.08251
3380.74244,0.08258
3378.68227,0.08253
3376.62210,0.08265
3374.56193,0.08316
3372.50176,0.08362
3370.44158,0.08365
3368.38141,0.08372
3366.32124,0.08430
3364.26107,0.08493
3362.20089,0.08533
3360.14072,0.08582
3358.08055,0.08605
3356.02038,0.08570
3353.96021,0.08527
3351.90003,0.08505
3349.83986,0.08504
3347.77969,0.08528
3345.71952,0.08545
3343.65935,0.08555
3341.59917,0.08586
3339.53900,0.08617
3337.47883,0.08633
3335.41866,0.08639
3333.35849,0.08635
3331.29831,0.08636
3329.23814,0.08672
3327.17797,0.08701
3325.11780,0.08701
3323.05762,0.08697
3320.99745,0.08680
3318.93728,0.08648
3316.87711,0.08639
3314.81694,0.08646
3312.75676,0.08636
3310.69659,0.08609
3308.63642,0.08593
3306.57625,0.08605
3304.51608,0.08632
3302.45590,0.08657
3300.39573,0.08691
3298.33556,0.08726
3296.27539,0.08732
3294.21521,0.08721
3292.15504,0.08731
3290.09487,0.08757
3288.03470,0.08761
3285.97453,0.08733
3283.91435,0.08700
3281.85418,0.08689
3279.79401,0.08708
3277.73384,0.08739
3275.67367,0.08752
3273.61349,0.08744
3271.55332,0.08742
3269.49315,0.08769
3267.43298,0.08794
3265.37281,0.08781
3263.31263,0.08753
3261.25246,0.08746
3259.19229,0.08772
3257.13212,0.08810
3255.07194,0.08822
3253.01177,0.08808
3250.95160,0.08785
3248.89143,0.08746
3246.83126,0.08724
3244.77108,0.08753
3242.71091,0.08788
3240.65074,0.08791
3238.59057,0.08780
3236.53040,0.08784
3234.47022,0.08802
3232.41005,0.08787
3230.34988,0.08736
3228.28971,0.08699
3226.22954,0.08683
3224.16936,0.08660
3222.10919,0.08641
3220.04902,0.08642
3217.98885,0.08663
3215.92867,0.08677
3213.86850,0.08654
3211.80833,0.08614
3209.74816,0.08586
3207.68799,0.08563
3205.62781,0.08535
3203.56764,0.08507
3201.50747,0.08500
3199.44730,0.08507
3197.38713,0.08493
3195.32695,0.08461
3193.26678,0.08444
3191.20661,0.08440
3189.14644,0.08428
3187.08626,0.08389
3185.02609,0.08345
3182.96592,0.08326
3180.90575,0.08303
3178.84558,0.08261
3176.78540,0.08233
3174.72523,0.08223
3172.66506,0.08197
3170.60489,0.08153
3168.54472,0.08108
3166.48454,0.08076
3164.42437,0.08050
3162.36420,0.08003
3160.30403,0.07942
3158.24386,0.07918
3156.18368,0.07924
3154.12351,0.07915
3152.06334,0.07895
3150.00317,0.07887
3147.94299,0.07878
3145.88282,0.07853
3143.82265,0.07814
3141.76248,0.07774
3139.70231,0.07745
3137.64213,0.07715
3135.58196,0.07667
3133.52179,0.07616
3131.46162,0.07578
3129.40145,0.07554
3127.34127,0.07539
3125.28110,0.07513
3123.22093,0.07475
3121.16076,0.07432
3119.10058,0.07388
3117.04041,0.07355
3114.98024,0.07322
3112.92007,0.07271
3110.85990,0.07218
3108.79972,0.07209
3106.73955,0.07228
3104.67938,0.07203
3102.61921,0.07136
3100.55904,0.07074
3098.49886,0.07012
3096.43869,0.06958
3094.37852,0.06936
3092.31835,0.06925
3090.25818,0.06895
3088.19800,0.06869
3086.13783,0.06859
3084.07766,0.06832
3082.01749,0.06777
3079.95731,0.06710
3077.89714,0.06652
3075.83697,0.06618
3073.77680,0.06606
3071.71663,0.06580
3069.65645,0.06522
3067.59628,0.06468
3065.53611,0.06424
3063.47594,0.06375
3061.41577,0.06335
3059.35559,0.06309
3057.29542,0.06280
3055.23525,0.06230
3053.17508,0.06183
3051.11491,0.06158
3049.05473,0.06126
3046.99456,0.06077
3044.93439,0.06031
3042.87422,0.06003
3040.81404,0.05977
3038.75387,0.05941
3036.69370,0.05896
3034.63353,0.05835
3032.57336,0.05764
3030.51318,0.05716
3028.45301,0.05690
3026.39284,0.05654
3024.33267,0.05604
3022.27250,0.05560
3020.21232,0.05529
3018.15215,0.05492
3016.09198,0.05452
3014.03181,0.05423
3011.97163,0.05390
3009.91146,0.05347
3007.85129,0.05301
3005.79112,0.05253
3003.73095,0.05217
3001.67077,0.05193
2999.61060,0.05160
2997.55043,0.05103
2995.49026,0.05047
2993.43009,0.05045
2991.36991,0.05064
2989.30974,0.05035
2987.24957,0.04975
2985.18940,0.04930
2983.12923,0.04908
2981.06905,0.04887
2979.00888,0.04866
2976.94871,0.04864
2974.88854,0.04876
2972.82836,0.04873
2970.76819,0.04846
2968.70802,0.04823
2966.64785,0.04833
2964.58768,0.04855
2962.52750,0.04860
2960.46733,0.04863
2958.40716,0.04868
2956.34699,0.04875
2954.28682,0.04874
2952.22664,0.04856
2950.16647,0.04843
2948.10630,0.04853
2946.04613,0.04865
2943.98596,0.04867
2941.92578,0.04879
2939.86561,0.04903
2937.80544,0.04912
2935.74527,0.04909
2933.68509,0.04895
2931.62492,0.04859
2929.56475,0.04834
2927.50458,0.04834
2925.44441,0.04821
2923.38423,0.04791
2921.32406,0.04766
2919.26389,0.04751
2917.20372,0.04733
2915.14355,0.04700
2913.08337,0.04676
2911.02320,0.04665
2908.96303,0.04662
2906.90286,0.04669
2904.84268,0.04643
2902.78251,0.04581
2900.72234,0.04552
2898.66217,0.04557
2896.60200,0.04559
2894.54182,0.04556
2892.48165,0.04546
2890.42148,0.04535
2888.36131,0.04521
2886.30114,0.04484
2884.24096,0.04435
2882.18079,0.04409
2880.12062,0.04400
2878.06045,0.04391
2876.00028,0.04385
2873.94010,0.04371
2871.87993,0.04336
2869.81976,0.04309
2867.75959,0.04295
2865.69941,0.04268
2863.63924,0.04231
2861.57907,0.04203
2859.51890,0.04183
2857.45873,0.04160
2855.39855,0.04138
2853.33838,0.04114
2851.27821,0.04080
2849.21804,0.04031
2847.15787,0.03982
2845.09769,0.03942
2843.03752,0.03909
2840.97735,0.03879
2838.91718,0.03837
2836.85700,0.03792
2834.79683,0.03780
2832.73666,0.03798
2830.67649,0.03803
2828.61632,0.03776
2826.55614,0.03737
2824.49597,0.03709
2822.43580,0.03689
2820.37563,0.03654
2818.31546,0.03606
2816.25528,0.03574
2814.19511,0.03562
2812.13494,0.03539
2810.07477,0.03499
2808.01460,0.03463
2805.95442,0.03432
2803.89425,0.03420
2801.83408,0.03428
2799.77391,0.03441
2797.71373,0.03443
2795.65356,0.03426
2793.59339,0.03398
2791.53322,0.03375
2789.47305,0.03357
2787.41287,0.03332
2785.35270,0.03301
2783.29253,0.03267
2781.23236,0.03242
2779.17219,0.03234
2777.11201,0.03230
2775.05184,0.03216
2772.99167,0.03189
2770.93150,0.03165
2768.87133,0.03147
2766.81115,0.03132
2764.75098,0.03112
2762.69081,0.03080
2760.63064,0.03066
2758.57046,0.03078
2756.51029,0.03081
2754.45012,0.03069
2752.38995,0.03044
2750.32978,0.03006
2748.26960,0.02982
2746.20943,0.02990
2744.14926,0.03002
2742.08909,0.02995
2740.02892,0.02987
2737.96874,0.02983
2735.90857,0.02966
2733.84840,0.02937
2731.78823,0.02904
2729.72805,0.02876
2727.66788,0.02848
2725.60771,0.02819
2723.54754,0.02804
2721.48737,0.02804
2719.42719,0.02803
2717.36702,0.02795
2715.30685,0.02788
2713.24668,0.02785
2711.18651,0.02765
2709.12633,0.02716
2707.06616,0.02672
2705.00599,0.02652
2702.94582,0.02631
2700.88565,0.02607
2698.82547,0.02602
2696.76530,0.02611
2694.70513,0.02609
2692.64496,0.02599
2690.58478,0.02586
2688.52461,0.02552
2686.46444,0.02510
2684.40427,0.02475
2682.34410,0.02453
2680.28392,0.02435
2678.22375,0.02409
2676.16358,0.02380
2674.10341,0.02350
2672.04324,0.02325
2669.98306,0.02316
2667.92289,0.02297
2665.86272,0.02271
2663.80255,0.02268
2661.74238,0.02252
2659.68220,0.02202
2657.62203,0.02172
2655.56186,0.02156
2653.50169,0.02138
2651.44151,0.02134
2649.38134,0.02132
2647.32117,0.02111
2645.26100,0.02076
2643.20083,0.02049
2641.14065,0.02039
2639.08048,0.02027
2637.02031,0.01999
2634.96014,0.01965
2632.89997,0.01946
2630.83979,0.01939
2628.77962,0.01929
2626.71945,0.01917
2624.65928,0.01887
2622.59910,0.01839
2620.53893,0.01815
2618.47876,0.01813
2616.41859,0.01801
2614.35842,0.01778
2612.29824,0.01771
2610.23807,0.01777
2608.17790,0.01773
2606.11773,0.01741
2604.05756,0.01681
2601.99738,0.01642
2599.93721,0.01638
2597.87704,0.01646
2595.81687,0.01663
2593.75670,0.01660
2591.69652,0.01627
2589.63635,0.01601
2587.57618,0.01583
2585.51601,0.01574
2583.45583,0.01588
2581.39566,0.01592
2579.33549,0.01569
2577.27532,0.01570
2575.21515,0.01595
2573.15497,0.01589
2571.09480,0.01553
2569.03463,0.01512
2566.97446,0.01495
2564.91429,0.01515
2562.85411,0.01532
2560.79394,0.01530
2558.73377,0.01536
2556.67360,0.01547
2554.61342,0.01543
2552.55325,0.01525
2550.49308,0.01495
2548.43291,0.01476
2546.37274,0.01478
2544.31256,0.01471
2542.25239,0.01459
2540.19222,0.01478
2538.13205,0.01513
2536.07188,0.01521
2534.01170,0.01517
2531.95153,0.01528
2529.89136,0.01542
2527.83119,0.01527
2525.77102,0.01495
2523.71084,0.01473
2521.65067,0.01446
2519.59050,0.01435
2517.53033,0.01445
2515.47015,0.01460
2513.40998,0.01494
2511.34981,0.01521
2509.28964,0.01510
2507.22947,0.01476
2505.16929,0.01440
2503.10912,0.01426
2501.04895,0.01455
2498.98878,0.01482
2496.92861,0.01491
2494.86843,0.01506
2492.80826,0.01496
2490.74809,0.01463
2488.68792,0.01459
2486.62775,0.01475
2484.56757,0.01471
2482.50740,0.01460
2480.44723,0.01457
2478.38706,0.01469
2476.32688,0.01479
2474.26671,0.01454
2472.20654,0.01423
2470.14637,0.01428
2468.08620,0.01460
2466.02602,0.01469
2463.96585,0.01478
2461.90568,0.01523
2459.84551,0.01528
2457.78534,0.01492
2455.72516,0.01462
2453.66499,0.01430
2451.60482,0.01437
2449.54465,0.01496
2447.48447,0.01519
2445.42430,0.01478
2443.36413,0.01432
2441.30396,0.01417
2439.24379,0.01447
2437.18361,0.01494
2435.12344,0.01487
2433.06327,0.01458
2431.00310,0.01476
2428.94293,0.01485
2426.88275,0.01457
2424.82258,0.01453
2422.76241,0.01461
2420.70224,0.01449
2418.64207,0.01456
2416.58189,0.01492
2414.52172,0.01503
2412.46155,0.01469
2410.40138,0.01439
2408.34120,0.01442
2406.28103,0.01458
2404.22086,0.01470
2402.16069,0.01469
2400.10052,0.01450
2398.04034,0.01415
2395.98017,0.01397
2393.92000,0.01424
2391.85983,0.01447
2389.79966,0.01434
2387.73948,0.01424
2385.67931,0.01429
2383.61914,0.01439
2381.55897,0.01449
2379.49880,0.01449
2377.43862,0.01432
2375.37845,0.01466
2373.31828,0.01481
2371.25811,0.01350
2369.19793,0.01082
2367.13776,0.00635
2365.07759,0.00226
2363.01742,0.00346
2360.95725,0.00510
2358.89707,0.00649
2356.83690,0.00747
2354.77673,0.00871
2352.71656,0.01062
2350.65639,0.00845
2348.59621,0.00717
2346.53604,0.01289
2344.47587,0.01401
2342.41570,0.01218
2340.35552,0.01108
2338.29535,0.01062
2336.23518,0.01079
2334.17501,0.01077
2332.11484,0.01105
2330.05466,0.01069
2327.99449,0.01042
2325.93432,0.00991
2323.87415,0.01093
2321.81398,0.01197
2319.75380,0.01291
2317.69363,0.01276
2315.63346,0.01300
2313.57329,0.01355
2311.51312,0.01370
2309.45294,0.01353
2307.39277,0.01338
2305.33260,0.01344
2303.27243,0.01352
2301.21225,0.01347
2299.15208,0.01274
2297.09191,0.01198
2295.03174,0.01168
2292.97157,0.01165
2290.91139,0.01179
2288.85122,0.01190
2286.79105,0.01178
2284.73088,0.01168
2282.67071,0.01177
2280.61053,0.01160
2278.55036,0.01075
2276.49019,0.00996
2274.43002,0.00983
2272.36984,0.00996
2270.30967,0.00982
2268.24950,0.00958
2266.18933,0.00953
2264.12916,0.00957
2262.06898,0.00951
2260.00881,0.00924
2257.94864,0.00890
2255.88847,0.00886
2253.82830,0.00877
2251.76812,0.00849
2249.70795,0.00874
2247.64778,0.00949
2245.58761,0.00944
2243.52744,0.00858
2241.46726,0.00809
2239.40709,0.00788
2237.34692,0.00744
2235.28675,0.00732
2233.22657,0.00799
2231.16640,0.00866
2229.10623,0.00852
2227.04606,0.00802
2224.98589,0.00785
2222.92571,0.00799
2220.86554,0.00828
2218.80537,0.00843
2216.74520,0.00761
2214.68503,0.00653
2212.62485,0.00682
2210.56468,0.00824
2208.50451,0.00876
2206.44434,0.00743
2204.38417,0.00594
2202.32399,0.00593
2200.26382,0.00709
2198.20365,0.00782
2196.14348,0.00724
2194.08330,0.00583
2192.02313,0.00507
2189.96296,0.00578
2187.90279,0.00679
2185.84262,0.00723
2183.78244,0.00638
2181.72227,0.00487
2179.66210,0.00494
2177.60193,0.00537
2175.54176,0.00442
2173.48158,0.00409
2171.42141,0.00499
2169.36124,0.00529
2167.30107,0.00479
2165.24089,0.00429
2163.18072,0.00377
2161.12055,0.00359
2159.06038,0.00438
2157.00021,0.00496
2154.94003,0.00467
2152.87986,0.00470
2150.81969,0.00545
2148.75952,0.00606
2146.69935,0.00621
2144.63917,0.00622
2142.57900,0.00590
2140.51883,0.00529
2138.45866,0.00507
2136.39849,0.00497
2134.33831,0.00499
2132.27814,0.00562
2130.21797,0.00576
2128.15780,0.00519
2126.09762,0.00512
2124.03745,0.00545
2121.97728,0.00551
2119.91711,0.00529
2117.85694,0.00503
2115.79676,0.00508
2113.73659,0.00534
2111.67642,0.00508
2109.61625,0.00487
2107.55608,0.00533
2105.49590,0.00575
2103.43573,0.00572
2101.37556,0.00520
2099.31539,0.00459
2097.25521,0.00454
2095.19504,0.00475
2093.13487,0.00506
2091.07470,0.00506
2089.01453,0.00460
2086.95435,0.00443
2084.89418,0.00457
2082.83401,0.00427
2080.77384,0.00338
2078.71367,0.00280
2076.65349,0.00301
2074.59332,0.00327
2072.53315,0.00325
2070.47298,0.00322
2068.41281,0.00326
2066.35263,0.00327
2064.29246,0.00309
2062.23229,0.00313
2060.17212,0.00368
2058.11194,0.00398
2056.05177,0.00378
2053.99160,0.00366
2051.93143,0.00322
2049.87126,0.00233
2047.81108,0.00204
2045.75091,0.00215
2043.69074,0.00194
2041.63057,0.00158
2039.57040,0.00151
2037.51022,0.00177
2035.45005,0.00221
2033.38988,0.00237
2031.32971,0.00148
2029.26954,0.00087
2027.20936,0.00172
2025.14919,0.00201
2023.08902,0.00085
2021.02885,0.00006
2018.96867,0.00046
2016.90850,0.00148
2014.84833,0.00184
2012.78816,0.00120
2010.72799,0.00142
2008.66781,0.00317
2006.60764,0.00412
2004.54747,0.00281
2002.48730,0.00113
2000.42713,0.00080
1998.36695,0.00107
1996.30678,0.00140
1994.24661,0.00218
1992.18644,0.00274
1990.12626,0.00239
1988.06609,0.00176
1986.00592,0.00108
1983.94575,0.00045
1981.88558,0.00054
1979.82540,0.00075
1977.76523,0.00028
1975.70506,0.00028
1973.64489,0.00169
1971.58472,0.00334
1969.52454,0.00366
1967.46437,0.00238
1965.40420,0.00074
1963.34403,0.00006
1961.28386,0.00003
1959.22368,0.00000
1957.16351,0.00019
1955.10334,0.00060
1953.04317,0.00070
1950.98299,0.00072
1948.92282,0.00097
1946.86265,0.00111
1944.80248,0.00107
1942.74231,0.00113
1940.68213,0.00104
1938.62196,0.00081
1936.56179,0.00115
1934.50162,0.00189
1932.44145,0.00214
1930.38127,0.00206
1928.32110,0.00185
1926.26093,0.00153
1924.20076,0.00205
1922.14059,0.00340
1920.08041,0.00392
1918.02024,0.00332
1915.96007,0.00296
1913.89990,0.00293
1911.83972,0.00257
1909.77955,0.00214
1907.71938,0.00167
1905.65921,0.00095
1903.59904,0.00058
1901.53886,0.00075
1899.47869,0.00083
1897.41852,0.00085
1895.35835,0.00129
1893.29818,0.00177
1891.23800,0.00182
1889.17783,0.00180
1887.11766,0.00192
1885.05749,0.00194
1882.99731,0.00180
1880.93714,0.00158
1878.87697,0.00141
1876.81680,0.00147
1874.75663,0.00158
1872.69645,0.00136
1870.63628,0.00078
1868.57611,0.00043
1866.51594,0.00070
1864.45577,0.00120
1862.39559,0.00147
1860.33542,0.00144
1858.27525,0.00129
1856.21508,0.00117
1854.15491,0.00118
1852.09473,0.00119
1850.03456,0.00095
1847.97439,0.00064
1845.91422,0.00071
1843.85404,0.00114
1841.79387,0.00153
1839.73370,0.00178
1837.67353,0.00188
1835.61336,0.00177
1833.55318,0.00154
1831.49301,0.00147
1829.43284,0.00181
1827.37267,0.00225
1825.31250,0.00224
1823.25232,0.00184
1821.19215,0.00158
1819.13198,0.00163
1817.07181,0.00177
1815.01163,0.00192
1812.95146,0.00208
1810.89129,0.00201
1808.83112,0.00168
1806.77095,0.00148
1804.71077,0.00161
1802.65060,0.00183
1800.59043,0.00187
1798.53026,0.00182
1796.47009,0.00181
1794.40991,0.00188
1792.34974,0.00210
1790.28957,0.00243
1788.22940,0.00257
1786.16923,0.00248
1784.10905,0.00237
1782.04888,0.00230
1779.98871,0.00229
1777.92854,0.00240
1775.86836,0.00244
1773.80819,0.00218
1771.74802,0.00203
1769.68785,0.00234
1767.62768,0.00271
1765.56750,0.00292
1763.50733,0.00301
1761.44716,0.00320
1759.38699,0.00369
1757.32682,0.00432
1755.26664,0.00469
1753.20647,0.00478
1751.14630,0.00506
1749.08613,0.00568
1747.02596,0.00617
1744.96578,0.00635
1742.90561,0.00636
1740.84544,0.00645
1738.78527,0.00671
1736.72509,0.00695
1734.66492,0.00737
1732.60475,0.00801
1730.54458,0.00827
1728.48441,0.00824
1726.42423,0.00827
1724.36406,0.00845
1722.30389,0.00863
1720.24372,0.00866
1718.18355,0.00895
1716.12337,0.00997
1714.06320,0.01096
1712.00303,0.01134
1709.94286,0.01134
1707.88268,0.01129
1705.82251,0.01138
1703.76234,0.01156
1701.70217,0.01180
1699.64200,0.01241
1697.58182,0.01333
1695.52165,0.01432
1693.46148,0.01517
1691.40131,0.01571
1689.34114,0.01612
1687.28096,0.01651
1685.22079,0.01727
1683.16062,0.01868
1681.10045,0.01970
1679.04028,0.01999
1676.98010,0.02023
1674.91993,0.02096
1672.85976,0.02175
1670.79959,0.02236
1668.73941,0.02319
1666.67924,0.02401
1664.61907,0.02450
1662.55890,0.02496
1660.49873,0.02554
1658.43855,0.02599
1656.37838,0.02611
1654.31821,0.02628
1652.25804,0.02700
1650.19787,0.02752
1648.13769,0.02777
1646.07752,0.02820
1644.01735,0.02841
1641.95718,0.02805
1639.89701,0.02750
1637.83683,0.02727
1635.77666,0.02756
1633.71649,0.02787
1631.65632,0.02777
1629.59614,0.02752
1627.53597,0.02736
1625.47580,0.02719
1623.41563,0.02707
1621.35546,0.02717
1619.29528,0.02725
1617.23511,0.02720
1615.17494,0.02736
1613.11477,0.02758
1611.05460,0.02754
1608.99442,0.02724
1606.93425,0.02676
1604.87408,0.02605
1602.81391,0.02526
1600.75373,0.02458
1598.69356,0.02392
1596.63339,0.02308
1594.57322,0.02215
1592.51305,0.02135
1590.45287,0.02054
1588.39270,0.01951
1586.33253,0.01850
1584.27236,0.01763
1582.21219,0.01664
1580.15201,0.01547
1578.09184,0.01433
1576.03167,0.01356
1573.97150,0.01317
1571.91133,0.01265
1569.85115,0.01190
1567.79098,0.01133
1565.73081,0.01095
1563.67064,0.01048
1561.61046,0.00966
1559.55029,0.00880
1557.49012,0.00872
1555.42995,0.00898
1553.36978,0.00877
1551.30960,0.00816
1549.24943,0.00755
1547.18926,0.00709
1545.12909,0.00666
1543.06892,0.00608
1541.00874,0.00538
1538.94857,0.00502
1536.88840,0.00487
1534.82823,0.00460
1532.76805,0.00435
1530.70788,0.00416
1528.64771,0.00383
1526.58754,0.00348
1524.52737,0.00325
1522.46719,0.00304
1520.40702,0.00280
1518.34685,0.00269
1516.28668,0.00289
1514.22651,0.00306
1512.16633,0.00286
1510.10616,0.00238
1508.04599,0.00190
1505.98582,0.00175
1503.92565,0.00181
1501.86547,0.00177
1499.80530,0.00159
1497.74513,0.00143
1495.68496,0.00133
1493.62478,0.00123
1491.56461,0.00122
1489.50444,0.00134
1487.44427,0.00144
1485.38410,0.00144
1483.32392,0.00139
1481.26375,0.00143
1479.20358,0.00159
1477.14341,0.00178
1475.08324,0.00216
1473.02306,0.00301
1470.96289,0.00388
1468.90272,0.00419
1466.84255,0.00425
1464.78238,0.00447
1462.72220,0.00484
1460.66203,0.00519
1458.60186,0.00568
1456.54169,0.00641
1454.48151,0.00682
1452.42134,0.00677
1450.36117,0.00656
1448.30100,0.00651
1446.24083,0.00662
1444.18065,0.00660
1442.12048,0.00643
1440.06031,0.00623
1438.00014,0.00618
1435.93997,0.00645
1433.87979,0.00674
1431.81962,0.00689
1429.75945,0.00701
1427.69928,0.00712
1425.63910,0.00726
1423.57893,0.00758
1421.51876,0.00796
1419.45859,0.00838
1417.39842,0.00877
1415.33824,0.00881
1413.27807,0.00865
1411.21790,0.00854
1409.15773,0.00845
1407.09756,0.00823
1405.03738,0.00793
1402.97721,0.00769
1400.91704,0.00759
1398.85687,0.00769
1396.79670,0.00784
1394.73652,0.00783
1392.67635,0.00768
1390.61618,0.00761
1388.55601,0.00773
1386.49583,0.00797
1384.43566,0.00818
1382.37549,0.00832
1380.31532,0.00850
1378.25515,0.00880
1376.19497,0.00915
1374.13480,0.00942
1372.07463,0.00942
1370.01446,0.00916
1367.95429,0.00879
1365.89411,0.00848
1363.83394,0.00838
1361.77377,0.00834
1359.71360,0.00800
1357.65343,0.00754
1355.59325,0.00728
1353.53308,0.00714
1351.47291,0.00701
1349.41274,0.00690
1347.35256,0.00674
1345.29239,0.00654
1343.23222,0.00649
1341.17205,0.00659
1339.11188,0.00664
1337.05170,0.00647
1334.99153,0.00615
1332.93136,0.00589
1330.87119,0.00587
1328.81102,0.00590
1326.75084,0.00573
1324.69067,0.00543
1322.63050,0.00514
1320.57033,0.00497
1318.51015,0.00485
1316.44998,0.00465
1314.38981,0.00445
1312.32964,0.00437
1310.26947,0.00434
1308.20929,0.00431
1306.14912,0.00425
1304.08895,0.00417
1302.02878,0.00421
1299.96861,0.00430
1297.90843,0.00437
1295.84826,0.00444
1293.78809,0.00452
1291.72792,0.00457
1289.66775,0.00460
1287.60757,0.00456
1285.54740,0.00449
1283.48723,0.00442
1281.42706,0.00443
1279.36688,0.00455
1277.30671,0.00472
1275.24654,0.00482
1273.18637,0.00486
1271.12620,0.00497
1269.06602,0.00502
1267.00585,0.00488
1264.94568,0.00481
1262.88551,0.00494
1260.82534,0.00503
1258.76516,0.00495
1256.70499,0.00487
1254.64482,0.00489
1252.58465,0.00479
1250.52447,0.00444
1248.46430,0.00414
1246.40413,0.00404
1244.34396,0.00395
1242.28379,0.00375
1240.22361,0.00356
1238.16344,0.00344
1236.10327,0.00330
1234.04310,0.00318
1231.98293,0.00320
1229.92275,0.00326
1227.86258,0.00324
1225.80241,0.00313
1223.74224,0.00295
1221.68207,0.00264
1219.62189,0.00231
1217.56172,0.00199
1215.50155,0.00164
1213.44138,0.00129
1211.38120,0.00102
1209.32103,0.00074
1207.26086,0.00051
1205.20069,0.00051
1203.14052,0.00049
1201.08034,0.00024
1199.02017,0.00005
1196.96000,0.00001
1194.89983,0.00000
1192.83966,0.00011
1190.77948,0.00044
1188.71931,0.00107
1186.65914,0.00189
1184.59897,0.00267
1182.53880,0.00347
1180.47862,0.00454
1178.41845,0.00592
1176.35828,0.00734
1174.29811,0.00860
1172.23793,0.00977
1170.17776,0.01096
1168.11759,0.01230
1166.05742,0.01375
1163.99725,0.01506
1161.93707,0.01631
1159.87690,0.01744
1157.81673,0.01832
1155.75656,0.01933
1153.69639,0.02061
1151.63621,0.02195
1149.57604,0.02327
1147.51587,0.02454
1145.45570,0.02589
1143.39552,0.02751
1141.33535,0.02923
1139.27518,0.03085
1137.21501,0.03240
1135.15484,0.03392
1133.09466,0.03552
1131.03449,0.03707
1128.97432,0.03848
1126.91415,0.03982
1124.85398,0.04114
1122.79380,0.04249
1120.73363,0.04376
1118.67346,0.04508
1116.61329,0.04677
1114.55312,0.04872
1112.49294,0.05060
1110.43277,0.05238
1108.37260,0.05429
1106.31243,0.05650
1104.25225,0.05897
1102.19208,0.06153
1100.13191,0.06441
1098.07174,0.06751
1096.01157,0.07028
1093.95139,0.07274
1091.89122,0.07497
1089.83105,0.07706
1087.77088,0.07942
1085.71071,0.08192
1083.65053,0.08420
1081.59036,0.08643
1079.53019,0.08880
1077.47002,0.09126
1075.40985,0.09354
1073.34967,0.09534
1071.28950,0.09683
1069.22933,0.09825
1067.16916,0.09932
1065.10898,0.09999
1063.04881,0.10041
1060.98864,0.10071
1058.92847,0.10105
1056.86830,0.10126
1054.80812,0.10121
1052.74795,0.10107
1050.68778,0.10100
1048.62761,0.10077
1046.56744,0.09984
1044.50726,0.09818
1042.44709,0.09663
1040.38692,0.09542
1038.32675,0.09397
1036.26657,0.09210
1034.20640,0.09023
1032.14623,0.08850
1030.08606,0.08681
1028.02589,0.08520
1025.96571,0.08349
1023.90554,0.08159
1021.84537,0.07976
1019.78520,0.07778
1017.72503,0.07554
1015.66485,0.07342
1013.60468,0.07158
1011.54451,0.06985
1009.48434,0.06807
1007.42417,0.06625
1005.36399,0.06448
1003.30382,0.06308
1001.24365,0.06237
999.18348,0.06215
997.12330,0.06204
995.06313,0.06226
993.00296,0.06328
990.94279,0.06471
988.88262,0.06583
986.82244,0.06663
984.76227,0.06705
982.70210,0.06671
980.64193,0.06560
978.58176,0.06397
976.52158,0.06196
974.46141,0.05964
972.40124,0.05686
970.34107,0.05363
968.28089,0.05038
966.22072,0.04730
964.16055,0.04437
962.10038,0.04187
960.04021,0.03987
957.98003,0.03807
955.91986,0.03638
953.85969,0.03494
951.79952,0.03398
949.73935,0.03331
947.67917,0.03242
945.61900,0.03150
943.55883,0.03097
941.49866,0.03088
939.43849,0.03080
937.37831,0.03044
935.31814,0.03020
933.25797,0.03010
931.19780,0.02969
929.13762,0.02917
927.07745,0.02882
925.01728,0.02843
922.95711,0.02775
920.89694,0.02676
918.83676,0.02570
916.77659,0.02478
914.71642,0.02372
912.65625,0.02244
910.59608,0.02136
908.53590,0.02049
906.47573,0.01967
904.41556,0.01926
902.35539,0.01936
900.29522,0.01967
898.23504,0.01970
896.17487,0.01927
894.11470,0.01877
892.05453,0.01857
889.99435,0.01876
887.93418,0.01907
885.87401,0.01945
883.81384,0.02009
881.75367,0.02077
879.69349,0.02132
877.63332,0.02194
875.57315,0.02268
873.51298,0.02320
871.45281,0.02341
869.39263,0.02373
867.33246,0.02433
865.27229,0.02477
863.21212,0.02458
861.15194,0.02402
859.09177,0.02358
857.03160,0.02329
854.97143,0.02302
852.91126,0.02239
850.85108,0.02135
848.79091,0.02067
846.73074,0.02044
844.67057,0.01959
842.61040,0.01805
840.55022,0.01686
838.49005,0.01630
836.42988,0.01577
834.36971,0.01506
832.30954,0.01438
830.24936,0.01371
828.18919,0.01282
826.12902,0.01185
824.06885,0.01133
822.00867,0.01104
819.94850,0.01025
817.88833,0.00937
815.82816,0.00919
813.76799,0.00924
811.70781,0.00909
809.64764,0.00909
807.58747,0.00907
805.52730,0.00875
803.46713,0.00813
801.40695,0.00743
799.34678,0.00691
797.28661,0.00648
795.22644,0.00622
793.16627,0.00621
791.10609,0.00617
789.04592,0.00602
786.98575,0.00591
784.92558,0.00597
782.86540,0.00634
780.80523,0.00665
778.74506,0.00632
776.68489,0.00586
774.62472,0.00619
772.56454,0.00660
770.50437,0.00626
768.44420,0.00611
766.38403,0.00693
764.32386,0.00780
762.26368,0.00767
760.20351,0.00672
758.14334,0.00578
756.08317,0.00519
754.02299,0.00520
751.96282,0.00586
749.90265,0.00603
747.84248,0.00541
745.78231,0.00490
743.72213,0.00450
741.66196,0.00407
739.60179,0.00402
737.54162,0.00425
735.48145,0.00426
733.42127,0.00417
731.36110,0.00438
729.30093,0.00468
727.24076,0.00475
725.18059,0.00463
723.12041,0.00414
721.06024,0.00479
719.00007,0.00525
716.93990,0.00588
714.87972,0.00668
712.81955,0.00707
710.75938,0.00708
708.69921,0.00678
706.63904,0.00657
704.57886,0.00668
702.51869,0.00667
700.45852,0.00630
698.39835,0.00577
696.33818,0.00522
694.27800,0.00453
692.21783,0.00390
690.15766,0.00382
688.09749,0.00399
686.03731,0.00360
683.97714,0.00273
681.91697,0.00207
679.85680,0.00200
677.79663,0.00252
675.73645,0.00295
673.67628,0.00171
671.61611,0.00001
669.55594,0.00609
667.49577,0.01065
665.43559,0.00073
663.37542,0.00106
661.31525,0.00343
659.25508,0.00370
657.19491,0.00272
655.13473,0.00149
653.07456,0.00116
651.01439,0.00246
648.95422,0.00450
646.89404,0.00493
644.83387,0.00396
642.77370,0.00250
640.71353,0.00179
638.65336,0.00215
636.59318,0.00290
634.53301,0.00376
632.47284,0.00445
630.41267,0.00445
628.35250,0.00435
626.29232,0.00470
624.23215,0.00486
622.17198,0.00508
620.11181,0.00614
618.05164,0.00731
615.99146,0.00741
613.93129,0.00580
611.87112,0.00298
609.81095,0.00176
607.75077,0.00281
605.69060,0.00388
603.63043,0.00319
601.57026,0.00086
599.51009,0.00000
