3996.73391,0.00080
3994.67373,0.00062
3992.61356,0.00019
3990.55339,0.00000
3988.49322,0.00021
3986.43305,0.00060
3984.37287,0.00092
3982.31270,0.00087
3980.25253,0.00060
3978.19236,0.00050
3976.13219,0.00066
3974.07201,0.00072
3972.01184,0.00059
3969.95167,0.00066
3967.89150,0.00093
3965.83133,0.00094
3963.77115,0.00077
3961.71098,0.00077
3959.65081,0.00074
3957.59064,0.00053
3955.53046,0.00044
3953.47029,0.00050
3951.41012,0.00058
3949.34995,0.00065
3947.28978,0.00067
3945.22960,0.00059
3943.16943,0.00064
3941.10926,0.00093
3939.04909,0.00126
3936.98892,0.00131
3934.92874,0.00098
3932.86857,0.00072
3930.80840,0.00071
3928.74823,0.00062
3926.68805,0.00047
3924.62788,0.00054
3922.56771,0.00090
3920.50754,0.00142
3918.44737,0.00176
3916.38719,0.00155
3914.32702,0.00098
3912.26685,0.00058
3910.20668,0.00045
3908.14651,0.00043
3906.08633,0.00033
3904.02616,0.00025
3901.96599,0.00047
3899.90582,0.00076
3897.84565,0.00078
3895.78547,0.00067
3893.72530,0.00053
3891.66513,0.00040
3889.60496,0.00048
3887.54478,0.00078
3885.48461,0.00093
3883.42444,0.00074
3881.36427,0.00049
3879.30410,0.00058
3877.24392,0.00080
3875.18375,0.00083
3873.12358,0.00086
3871.06341,0.00112
3869.00324,0.00124
3866.94306,0.00099
3864.88289,0.00091
3862.82272,0.00123
3860.76255,0.00138
3858.70237,0.00111
3856.64220,0.00079
3854.58203,0.00079
3852.52186,0.00134
3850.46169,0.00176
3848.40151,0.00152
3846.34134,0.00101
3844.28117,0.00080
3842.22100,0.00107
3840.16083,0.00141
3838.10065,0.00151
3836.04048,0.00155
3833.98031,0.00149
3831.92014,0.00117
3829.85997,0.00086
3827.79979,0.00078
3825.73962,0.00068
3823.67945,0.00055
3821.61928,0.00051
3819.55910,0.00035
3817.49893,0.00004
3815.43876,0.00015
3813.37859,0.00087
3811.31842,0.00161
3809.25824,0.00188
3807.19807,0.00186
3805.13790,0.00184
3803.07773,0.00187
3801.01756,0.00192
3798.95738,0.00179
3796.89721,0.00139
3794.83704,0.00107
3792.77687,0.00105
3790.71670,0.00115
3788.65652,0.00129
3786.59635,0.00131
3784.53618,0.00115
3782.47601,0.00116
3780.41583,0.00135
3778.35566,0.00131
3776.29549,0.00103
3774.23532,0.00078
3772.17515,0.00073
3770.11497,0.00095
3768.05480,0.00123
3765.99463,0.00121
3763.93446,0.00092
3761.87429,0.00083
3759.81411,0.00122
3757.75394,0.00160
3755.69377,0.00152
3753.63360,0.00137
3751.57342,0.00163
3749.51325,0.00215
3747.45308,0.00249
3745.39291,0.00274
3743.33274,0.00293
3741.27256,0.00287
3739.21239,0.00264
3737.15222,0.00245
3735.09205,0.00222
3733.03188,0.00182
3730.97170,0.00170
3728.91153,0.00201
3726.85136,0.00215
3724.79119,0.00167
3722.73102,0.00110
3720.67084,0.00107
3718.61067,0.00137
3716.55050,0.00142
3714.49033,0.00156
3712.43015,0.00234
3710.36998,0.00308
3708.30981,0.00298
3706.24964,0.00253
3704.18947,0.00244
3702.12929,0.00268
3700.06912,0.00275
3698.00895,0.00245
3695.94878,0.00216
3693.88861,0.00217
3691.82843,0.00228
3689.76826,0.00276
3687.70809,0.00346
3685.64792,0.00370
3683.58775,0.00352
3681.52757,0.00328
3679.46740,0.00299
3677.40723,0.00261
3675.34706,0.00207
3673.28688,0.00173
3671.22671,0.00213
3669.16654,0.00332
3667.10637,0.00447
3665.04620,0.00489
3662.98602,0.00481
3660.92585,0.00478
3658.86568,0.00510
3656.80551,0.00567
3654.74534,0.00606
3652.68516,0.00607
3650.62499,0.00656
3648.56482,0.00809
3646.50465,0.00917
3644.44447,0.00943
3642.38430,0.00976
3640.32413,0.01046
3638.26396,0.01116
3636.20379,0.01158
3634.14361,0.01190
3632.08344,0.01240
3630.02327,0.01305
3627.96310,0.01368
3625.90293,0.01434
3623.84275,0.01506
3621.78258,0.01573
3619.72241,0.01621
3617.66224,0.01644
3615.60207,0.01674
3613.54189,0.01764
3611.48172,0.01918
3609.42155,0.02043
3607.36138,0.02072
3605.30120,0.02057
3603.24103,0.02077
3601.18086,0.02148
3599.12069,0.02227
3597.06052,0.02285
3595.00034,0.02361
3592.94017,0.02471
3590.88000,0.02563
3588.81983,0.02649
3586.75966,0.02761
3584.69948,0.02864
3582.63931,0.02914
3580.57914,0.02939
3578.51897,0.02987
3576.45879,0.03065
3574.39862,0.03143
3572.33845,0.03216
3570.27828,0.03318
3568.21811,0.03450
3566.15793,0.03568
3564.09776,0.03641
3562.03759,0.03696
3559.97742,0.03742
3557.91725,0.03766
3555.85707,0.03803
3553.79690,0.03888
3551.73673,0.03987
3549.67656,0.04054
3547.61639,0.04119
3545.55621,0.04212
3543.49604,0.04302
3541.43587,0.04358
3539.37570,0.04407
3537.31552,0.04492
3535.25535,0.04585
3533.19518,0.04643
3531.13501,0.04689
3529.07484,0.04770
3527.01466,0.04887
3524.95449,0.04997
3522.89432,0.05057
3520.83415,0.05081
3518.77398,0.05103
3516.71380,0.05140
3514.65363,0.05203
3512.59346,0.05286
3510.53329,0.05379
3508.47312,0.05475
3506.41294,0.05542
3504.35277,0.05578
3502.29260,0.05624
3500.23243,0.05690
3498.17225,0.05752
3496.11208,0.05811
3494.05191,0.05883
3491.99174,0.05954
3489.93157,0.06013
3487.87139,0.06083
3485.81122,0.06167
3483.75105,0.06237
3481.69088,0.06300
3479.63071,0.06371
3477.57053,0.06424
3475.51036,0.06459
3473.45019,0.06496
3471.39002,0.06542
3469.32984,0.06601
3467.26967,0.06684
3465.20950,0.06761
3463.14933,0.06807
3461.08916,0.06868
3459.02898,0.06951
3456.96881,0.07009
3454.90864,0.07027
3452.84847,0.07027
3450.78830,0.07037
3448.72812,0.07073
3446.66795,0.07138
3444.60778,0.07217
3442.54761,0.07289
3440.48744,0.07348
3438.42726,0.07382
3436.36709,0.07403
3434.30692,0.07440
3432.24675,0.07504
3430.18657,0.07574
3428.12640,0.07618
3426.06623,0.07645
3424.00606,0.07679
3421.94589,0.07726
3419.88571,0.07772
3417.82554,0.07792
3415.76537,0.07818
3413.70520,0.07856
3411.64503,0.07875
3409.58485,0.07902
3407.52468,0.07958
3405.46451,0.08022
3403.40434,0.08075
3401.34416,0.08105
3399.28399,0.08137
3397.22382,0.08168
3395.16365,0.08205
3393.10348,0.08250
3391.04330,0.08275
3388.98313,0.08287
3386.92296,0.08317
3384.86279,0.08329
3382.80262,0.08311
3380.74244,0.08318
3378.68227,0.08354
3376.62210,0.08382
3374.56193,0.08415
3372.50176,0.08467
3370.44158,0.08506
3368.38141,0.08521
3366.32124,0.08533
3364.26107,0.08538
3362.20089,0.08543
3360.14072,0.08585
3358.08055,0.08624
3356.02038,0.08624
3353.96021,0.08617
3351.90003,0.08630
3349.83986,0.08662
3347.77969,0.08686
3345.71952,0.08685
3343.65935,0.08674
3341.59917,0.08674
3339.53900,0.08675
3337.47883,0.08666
3335.41866,0.08670
3333.35849,0.08692
3331.29831,0.08708
3329.23814,0.08730
3327.17797,0.08765
3325.11780,0.08767
3323.05762,0.08731
3320.99745,0.08711
3318.93728,0.08709
3316.87711,0.08708
3314.81694,0.08706
3312.75676,0.08701
3310.69659,0.08697
3308.63642,0.08714
3306.57625,0.08763
3304.51608,0.08806
3302.45590,0.08795
3300.39573,0.08761
3298.33556,0.08748
3296.27539,0.08750
3294.21521,0.08763
3292.15504,0.08792
3290.09487,0.08825
3288.03470,0.08839
3285.97453,0.08820
3283.91435,0.08783
3281.85418,0.08753
3279.79401,0.08761
3277.73384,0.08807
3275.67367,0.08838
3273.61349,0.08826
3271.55332,0.08809
3269.49315,0.08815
3267.43298,0.08824
3265.37281,0.08831
3263.31263,0.08848
3261.25246,0.08850
3259.19229,0.08835
3257.13212,0.08819
3255.07194,0.08805
3253.01177,0.08804
3250.95160,0.08823
3248.89143,0.08825
3246.83126,0.08805
3244.77108,0.08809
3242.71091,0.08839
3240.65074,0.08854
3238.59057,0.08844
3236.53040,0.08833
3234.47022,0.08840
3232.41005,0.08869
3230.34988,0.08880
3228.28971,0.08838
3226.22954,0.08776
3224.16936,0.08746
3222.10919,0.08762
3220.04902,0.08783
3217.98885,0.08780
3215.92867,0.08776
3213.86850,0.08758
3211.80833,0.08708
3209.74816,0.08658
3207.68799,0.08624
3205.62781,0.08591
3203.56764,0.08576
3201.50747,0.08595
3199.44730,0.08592
3197.38713,0.08539
3195.32695,0.08492
3193.26678,0.08477
3191.20661,0.08466
3189.14644,0.08424
3187.08626,0.08361
3185.02609,0.08337
3182.96592,0.08368
3180.90575,0.08383
3178.84558,0.08346
3176.78540,0.08313
3174.72523,0.08294
3172.66506,0.08258
3170.60489,0.08231
3168.54472,0.08220
3166.48454,0.08198
3164.42437,0.08160
3162.36420,0.08105
3160.30403,0.08046
3158.24386,0.08023
3156.18368,0.08020
3154.12351,0.07990
3152.06334,0.07963
3150.00317,0.07957
3147.94299,0.07926
3145.88282,0.07865
3143.82265,0.07808
3141.76248,0.07776
3139.70231,0.07770
3137.64213,0.07768
3135.58196,0.07742
3133.52179,0.07701
3131.46162,0.07659
3129.40145,0.07620
3127.34127,0.07598
3125.28110,0.07568
3123.22093,0.07515
3121.16076,0.07474
3119.10058,0.07462
3117.04041,0.07472
3114.98024,0.07475
3112.92007,0.07431
3110.85990,0.07347
3108.79972,0.07279
3106.73955,0.07252
3104.67938,0.07231
3102.61921,0.07195
3100.55904,0.07141
3098.49886,0.07083
3096.43869,0.07046
3094.37852,0.07025
3092.31835,0.07002
3090.25818,0.06966
3088.19800,0.06930
3086.13783,0.06894
3084.07766,0.06850
3082.01749,0.06816
3079.95731,0.06793
3077.89714,0.06763
3075.83697,0.06724
3073.77680,0.06688
3071.71663,0.06648
3069.65645,0.06595
3067.59628,0.06535
3065.53611,0.06484
3063.47594,0.06449
3061.41577,0.06425
3059.35559,0.06399
3057.29542,0.06376
3055.23525,0.06349
3053.17508,0.06303
3051.11491,0.06241
3049.05473,0.06187
3046.99456,0.06135
3044.93439,0.06087
3042.87422,0.06068
3040.81404,0.06063
3038.75387,0.06035
3036.69370,0.05971
3034.63353,0.05886
3032.57336,0.05825
3030.51318,0.05790
3028.45301,0.05749
3026.39284,0.05714
3024.33267,0.05690
3022.27250,0.05660
3020.21232,0.05631
3018.15215,0.05593
3016.09198,0.05553
3014.03181,0.05525
3011.97163,0.05491
3009.91146,0.05451
3007.85129,0.05412
3005.79112,0.05369
3003.73095,0.05334
3001.67077,0.05309
2999.61060,0.05264
2997.55043,0.05190
2995.49026,0.05130
2993.43009,0.05111
2991.36991,0.05100
2989.30974,0.05064
2987.24957,0.05022
2985.18940,0.05007
2983.12923,0.05003
2981.06905,0.04981
2979.00888,0.04950
2976.94871,0.04936
2974.88854,0.04948
2972.82836,0.04960
2970.76819,0.04933
2968.70802,0.04888
2966.64785,0.04878
2964.58768,0.04892
2962.52750,0.04905
2960.46733,0.04927
2958.40716,0.04934
2956.34699,0.04916
2954.28682,0.04911
2952.22664,0.04921
2950.16647,0.04915
2948.10630,0.04918
2946.04613,0.04937
2943.98596,0.04931
2941.92578,0.04917
2939.86561,0.04936
2937.80544,0.04963
2935.74527,0.04958
2933.68509,0.04933
2931.62492,0.04911
2929.56475,0.04898
2927.50458,0.04908
2925.44441,0.04910
2923.38423,0.04871
2921.32406,0.04814
2919.26389,0.04783
2917.20372,0.04772
2915.14355,0.04742
2913.08337,0.04704
2911.02320,0.04691
2908.96303,0.04697
2906.90286,0.04706
2904.84268,0.04693
2902.78251,0.04656
2900.72234,0.04623
2898.66217,0.04600
2896.60200,0.04589
2894.54182,0.04587
2892.48165,0.04569
2890.42148,0.04558
2888.36131,0.04568
2886.30114,0.04554
2884.24096,0.04512
2882.18079,0.04472
2880.12062,0.04445
2878.06045,0.04440
2876.00028,0.04448
2873.94010,0.04438
2871.87993,0.04406
2869.81976,0.04383
2867.75959,0.04362
2865.69941,0.04313
2863.63924,0.04257
2861.57907,0.04220
2859.51890,0.04192
2857.45873,0.04176
2855.39855,0.04164
2853.33838,0.04127
2851.27821,0.04079
2849.21804,0.04041
2847.15787,0.04012
2845.09769,0.03985
2843.03752,0.03957
2840.97735,0.03931
2838.91718,0.03908
2836.85700,0.03898
2834.79683,0.03884
2832.73666,0.03844
2830.67649,0.03797
2828.61632,0.03768
2826.55614,0.03755
2824.49597,0.03745
2822.43580,0.03724
2820.37563,0.03692
2818.31546,0.03680
2816.25528,0.03683
2814.19511,0.03657
2812.13494,0.03596
2810.07477,0.03536
2808.01460,0.03506
2805.95442,0.03493
2803.89425,0.03483
2801.83408,0.03486
2799.77391,0.03499
2797.71373,0.03514
2795.65356,0.03512
2793.59339,0.03481
2791.53322,0.03444
2789.47305,0.03424
2787.41287,0.03419
2785.35270,0.03416
2783.29253,0.03392
2781.23236,0.03351
2779.17219,0.03324
2777.11201,0.03314
2775.05184,0.03302
2772.99167,0.03281
2770.93150,0.03258
2768.87133,0.03225
2766.81115,0.03192
2764.75098,0.03181
2762.69081,0.03170
2760.63064,0.03150
2758.57046,0.03138
2756.51029,0.03136
2754.45012,0.03135
2752.38995,0.03123
2750.32978,0.03093
2748.26960,0.03070
2746.20943,0.03074
2744.14926,0.03086
2742.08909,0.03073
2740.02892,0.03037
2737.96874,0.02996
2735.90857,0.02965
2733.84840,0.02952
2731.78823,0.02950
2729.72805,0.02948
2727.66788,0.02932
2725.60771,0.02902
2723.54754,0.02886
2721.48737,0.02891
2719.42719,0.02892
2717.36702,0.02880
2715.30685,0.02868
2713.24668,0.02856
2711.18651,0.02828
2709.12633,0.02774
2707.06616,0.02718
2705.00599,0.02691
2702.94582,0.02676
2700.88565,0.02663
2698.82547,0.02669
2696.76530,0.02672
2694.70513,0.02651
2692.64496,0.02628
2690.58478,0.02615
2688.52461,0.02594
2686.46444,0.02573
2684.40427,0.02565
2682.34410,0.02556
2680.28392,0.02531
2678.22375,0.02487
2676.16358,0.02439
2674.10341,0.02418
2672.04324,0.02416
2669.98306,0.02403
2667.92289,0.02378
2665.86272,0.02364
2663.80255,0.02361
2661.74238,0.02339
2659.68220,0.02294
2657.62203,0.02251
2655.56186,0.02226
2653.50169,0.02218
2651.44151,0.02208
2649.38134,0.02188
2647.32117,0.02151
2645.26100,0.02107
2643.20083,0.02094
2641.14065,0.02101
2639.08048,0.02091
2637.02031,0.02071
2634.96014,0.02065
2632.89997,0.02063
2630.83979,0.02050
2628.77962,0.02022
2626.71945,0.01993
2624.65928,0.01976
2622.59910,0.01962
2620.53893,0.01937
2618.47876,0.01907
2616.41859,0.01874
2614.35842,0.01852
2612.29824,0.01854
2610.23807,0.01863
2608.17790,0.01870
2606.11773,0.01860
2604.05756,0.01831
2601.99738,0.01817
2599.93721,0.01803
2597.87704,0.01772
2595.81687,0.01748
2593.75670,0.01734
2591.69652,0.01731
2589.63635,0.01728
2587.57618,0.01701
2585.51601,0.01698
2583.45583,0.01728
2581.39566,0.01704
2579.33549,0.01643
2577.27532,0.01644
2575.21515,0.01701
2573.15497,0.01735
2571.09480,0.01714
2569.03463,0.01673
2566.97446,0.01643
2564.91429,0.01602
2562.85411,0.01565
2560.79394,0.01573
2558.73377,0.01598
2556.67360,0.01615
2554.61342,0.01626
2552.55325,0.01624
2550.49308,0.01611
2548.43291,0.01602
2546.37274,0.01599
2544.31256,0.01592
2542.25239,0.01570
2540.19222,0.01546
2538.13205,0.01546
2536.07188,0.01565
2534.01170,0.01577
2531.95153,0.01595
2529.89136,0.01642
2527.83119,0.01675
2525.77102,0.01656
2523.71084,0.01619
2521.65067,0.01594
2519.59050,0.01604
2517.53033,0.01625
2515.47015,0.01619
2513.40998,0.01616
2511.34981,0.01625
2509.28964,0.01617
2507.22947,0.01588
2505.16929,0.01543
2503.10912,0.01516
2501.04895,0.01543
2498.98878,0.01577
2496.92861,0.01593
2494.86843,0.01602
2492.80826,0.01580
2490.74809,0.01538
2488.68792,0.01535
2486.62775,0.01570
2484.56757,0.01604
2482.50740,0.01630
2480.44723,0.01648
2478.38706,0.01643
2476.32688,0.01614
2474.26671,0.01595
2472.20654,0.01607
2470.14637,0.01625
2468.08620,0.01626
2466.02602,0.01596
2463.96585,0.01564
2461.90568,0.01591
2459.84551,0.01634
2457.78534,0.01642
2455.72516,0.01630
2453.66499,0.01619
2451.60482,0.01620
2449.54465,0.01624
2447.48447,0.01608
2445.42430,0.01587
2443.36413,0.01570
2441.30396,0.01533
2439.24379,0.01516
2437.18361,0.01553
2435.12344,0.01576
2433.06327,0.01565
2431.00310,0.01570
2428.94293,0.01592
2426.88275,0.01614
2424.82258,0.01634
2422.76241,0.01642
2420.70224,0.01624
2418.64207,0.01607
2416.58189,0.01623
2414.52172,0.01625
2412.46155,0.01579
2410.40138,0.01550
2408.34120,0.01571
2406.28103,0.01595
2404.22086,0.01594
2402.16069,0.01581
2400.10052,0.01568
2398.04034,0.01576
2395.98017,0.01583
2393.92000,0.01583
2391.85983,0.01560
2389.79966,0.01532
2387.73948,0.01536
2385.67931,0.01560
2383.61914,0.01592
2381.55897,0.01629
2379.49880,0.01671
2377.43862,0.01723
2375.37845,0.01826
2373.31828,0.01975
2371.25811,0.02080
2369.19793,0.01996
2367.13776,0.01659
2365.07759,0.01367
2363.01742,0.01370
2360.95725,0.01223
2358.89707,0.01087
2356.83690,0.01230
2354.77673,0.01514
2352.71656,0.01691
2350.65639,0.01509
2348.59621,0.01400
2346.53604,0.01726
2344.47587,0.01751
2342.41570,0.01622
2340.35552,0.01592
2338.29535,0.01626
2336.23518,0.01672
2334.17501,0.01582
2332.11484,0.01384
2330.05466,0.01199
2327.99449,0.01262
2325.93432,0.01450
2323.87415,0.01635
2321.81398,0.01695
2319.75380,0.01690
2317.69363,0.01629
2315.63346,0.01624
2313.57329,0.01611
2311.51312,0.01540
2309.45294,0.01492
2307.39277,0.01509
2305.33260,0.01531
2303.27243,0.01512
2301.21225,0.01472
2299.15208,0.01390
2297.09191,0.01317
2295.03174,0.01297
2292.97157,0.01295
2290.91139,0.01307
2288.85122,0.01364
2286.79105,0.01427
2284.73088,0.01434
2282.67071,0.01386
2280.61053,0.01315
2278.55036,0.01246
2276.49019,0.01205
2274.43002,0.01176
2272.36984,0.01151
2270.30967,0.01154
2268.24950,0.01159
2266.18933,0.01131
2264.12916,0.01092
2262.06898,0.01068
2260.00881,0.01081
2257.94864,0.01124
2255.88847,0.01135
2253.82830,0.01086
2251.76812,0.01049
2249.70795,0.01085
2247.64778,0.01127
2245.58761,0.01067
2243.52744,0.00948
2241.46726,0.00913
2239.40709,0.00989
2237.34692,0.01030
2235.28675,0.01002
2233.22657,0.01029
2231.16640,0.01061
2229.10623,0.00991
2227.04606,0.00921
2224.98589,0.00916
2222.92571,0.00903
2220.86554,0.00841
2218.80537,0.00781
2216.74520,0.00785
2214.68503,0.00848
2212.62485,0.00931
2210.56468,0.00983
2208.50451,0.00983
2206.44434,0.00948
2204.38417,0.00883
2202.32399,0.00839
2200.26382,0.00880
2198.20365,0.00989
2196.14348,0.01037
2194.08330,0.00916
2192.02313,0.00768
2189.96296,0.00704
2187.90279,0.00674
2185.84262,0.00707
2183.78244,0.00747
2181.72227,0.00767
2179.66210,0.00821
2177.60193,0.00847
2175.54176,0.00852
2173.48158,0.00883
2171.42141,0.00868
2169.36124,0.00751
2167.30107,0.00628
2165.24089,0.00607
2163.18072,0.00618
2161.12055,0.00549
2159.06038,0.00543
2157.00021,0.00656
2154.94003,0.00749
2152.87986,0.00793
2150.81969,0.00807
2148.75952,0.00824
2146.69935,0.00796
2144.63917,0.00717
2142.57900,0.00654
2140.51883,0.00619
2138.45866,0.00596
2136.39849,0.00547
2134.33831,0.00523
2132.27814,0.00598
2130.21797,0.00671
2128.15780,0.00660
2126.09762,0.00638
2124.03745,0.00659
2121.97728,0.00690
2119.91711,0.00693
2117.85694,0.00680
2115.79676,0.00692
2113.73659,0.00717
2111.67642,0.00693
2109.61625,0.00681
2107.55608,0.00723
2105.49590,0.00727
2103.43573,0.00694
2101.37556,0.00665
2099.31539,0.00632
2097.25521,0.00617
2095.19504,0.00626
2093.13487,0.00653
2091.07470,0.00631
2089.01453,0.00578
2086.95435,0.00571
2084.89418,0.00566
2082.83401,0.00527
2080.77384,0.00502
2078.71367,0.00550
2076.65349,0.00612
2074.59332,0.00585
2072.53315,0.00510
2070.47298,0.00455
2068.41281,0.00440
2066.35263,0.00426
2064.29246,0.00363
2062.23229,0.00328
2060.17212,0.00364
2058.11194,0.00383
2056.05177,0.00385
2053.99160,0.00445
2051.93143,0.00480
2049.87126,0.00360
2047.81108,0.00213
2045.75091,0.00219
2043.69074,0.00277
2041.63057,0.00289
2039.57040,0.00352
2037.51022,0.00499
2035.45005,0.00625
2033.38988,0.00537
2031.32971,0.00244
2029.26954,0.00107
2027.20936,0.00211
2025.14919,0.00244
2023.08902,0.00184
2021.02885,0.00200
2018.96867,0.00255
2016.90850,0.00230
2014.84833,0.00155
2012.78816,0.00092
2010.72799,0.00043
2008.66781,0.00108
2006.60764,0.00253
2004.54747,0.00332
2002.48730,0.00381
2000.42713,0.00409
1998.36695,0.00352
1996.30678,0.00222
1994.24661,0.00147
1992.18644,0.00195
1990.12626,0.00273
1988.06609,0.00329
1986.00592,0.00373
1983.94575,0.00394
1981.88558,0.00357
1979.82540,0.00218
1977.76523,0.00087
1975.70506,0.00154
1973.64489,0.00331
1971.58472,0.00400
1969.52454,0.00319
1967.46437,0.00226
1965.40420,0.00259
1963.34403,0.00337
1961.28386,0.00314
1959.22368,0.00224
1957.16351,0.00181
1955.10334,0.00181
1953.04317,0.00181
1950.98299,0.00208
1948.92282,0.00235
1946.86265,0.00200
1944.80248,0.00144
1942.74231,0.00117
1940.68213,0.00128
1938.62196,0.00166
1936.56179,0.00210
1934.50162,0.00239
1932.44145,0.00230
1930.38127,0.00187
1928.32110,0.00122
1926.26093,0.00077
1924.20076,0.00120
1922.14059,0.00220
1920.08041,0.00245
1918.02024,0.00185
1915.96007,0.00139
1913.89990,0.00128
1911.83972,0.00126
1909.77955,0.00144
1907.71938,0.00169
1905.65921,0.00171
1903.59904,0.00165
1901.53886,0.00149
1899.47869,0.00100
1897.41852,0.00055
1895.35835,0.00081
1893.29818,0.00151
1891.23800,0.00191
1889.17783,0.00216
1887.11766,0.00245
1885.05749,0.00242
1882.99731,0.00197
1880.93714,0.00145
1878.87697,0.00113
1876.81680,0.00104
1874.75663,0.00116
1872.69645,0.00130
1870.63628,0.00113
1868.57611,0.00078
1866.51594,0.00073
1864.45577,0.00109
1862.39559,0.00156
1860.33542,0.00176
1858.27525,0.00152
1856.21508,0.00098
1854.15491,0.00053
1852.09473,0.00039
1850.03456,0.00056
1847.97439,0.00098
1845.91422,0.00139
1843.85404,0.00159
1841.79387,0.00163
1839.73370,0.00164
1837.67353,0.00158
1835.61336,0.00136
1833.55318,0.00112
1831.49301,0.00119
1829.43284,0.00164
1827.37267,0.00212
1825.31250,0.00229
1823.25232,0.00210
1821.19215,0.00191
1819.13198,0.00200
1817.07181,0.00219
1815.01163,0.00225
1812.95146,0.00224
1810.89129,0.00213
1808.83112,0.00196
1806.77095,0.00193
1804.71077,0.00198
1802.65060,0.00200
1800.59043,0.00204
1798.53026,0.00205
1796.47009,0.00192
1794.40991,0.00173
1792.34974,0.00165
1790.28957,0.00178
1788.22940,0.00205
1786.16923,0.00233
1784.10905,0.00250
1782.04888,0.00254
1779.98871,0.00255
1777.92854,0.00257
1775.86836,0.00245
1773.80819,0.00220
1771.74802,0.00210
1769.68785,0.00230
1767.62768,0.00258
1765.56750,0.00278
1763.50733,0.00292
1761.44716,0.00312
1759.38699,0.00351
1757.32682,0.00406
1755.26664,0.00441
1753.20647,0.00446
1751.14630,0.00467
1749.08613,0.00533
1747.02596,0.00613
1744.96578,0.00659
1742.90561,0.00666
1740.84544,0.00670
1738.78527,0.00690
1736.72509,0.00705
1734.66492,0.00722
1732.60475,0.00761
1730.54458,0.00801
1728.48441,0.00827
1726.42423,0.00842
1724.36406,0.00853
1722.30389,0.00859
1720.24372,0.00858
1718.18355,0.00878
1716.12337,0.00959
1714.06320,0.01045
1712.00303,0.01085
1709.94286,0.01096
1707.88268,0.01110
1705.82251,0.01145
1703.76234,0.01197
1701.70217,0.01257
1699.64200,0.01327
1697.58182,0.01392
1695.52165,0.01456
1693.46148,0.01526
1691.40131,0.01591
1689.34114,0.01647
1687.28096,0.01697
1685.22079,0.01771
1683.16062,0.01881
1681.10045,0.01963
1679.04028,0.02009
1676.98010,0.02052
1674.91993,0.02106
1672.85976,0.02167
1670.79959,0.02245
1668.73941,0.02348
1666.67924,0.02424
1664.61907,0.02473
1662.55890,0.02539
1660.49873,0.02614
1658.43855,0.02657
1656.37838,0.02669
1654.31821,0.02678
1652.25804,0.02713
1650.19787,0.02738
1648.13769,0.02766
1646.07752,0.02825
1644.01735,0.02860
1641.95718,0.02840
1639.89701,0.02797
1637.83683,0.02771
1635.77666,0.02782
1633.71649,0.02807
1631.65632,0.02804
1629.59614,0.02783
1627.53597,0.02770
1625.47580,0.02766
1623.41563,0.02757
1621.35546,0.02746
1619.29528,0.02733
1617.23511,0.02730
1615.17494,0.02754
1613.11477,0.02770
1611.05460,0.02759
1608.99442,0.02730
1606.93425,0.02681
1604.87408,0.02608
1602.81391,0.02532
1600.75373,0.02475
1598.69356,0.02420
1596.63339,0.02339
1594.57322,0.02239
1592.51305,0.02144
1590.45287,0.02050
1588.39270,0.01952
1586.33253,0.01863
1584.27236,0.01778
1582.21219,0.01682
1580.15201,0.01579
1578.09184,0.01485
1576.03167,0.01411
1573.97150,0.01364
1571.91133,0.01317
1569.85115,0.01250
1567.79098,0.01190
1565.73081,0.01140
1563.67064,0.01076
1561.61046,0.00990
1559.55029,0.00926
1557.49012,0.00941
1555.42995,0.00953
1553.36978,0.00895
1551.30960,0.00806
1549.24943,0.00749
1547.18926,0.00730
1545.12909,0.00707
1543.06892,0.00648
1541.00874,0.00561
1538.94857,0.00522
1536.88840,0.00523
1534.82823,0.00499
1532.76805,0.00468
1530.70788,0.00456
1528.64771,0.00440
1526.58754,0.00417
1524.52737,0.00394
1522.46719,0.00369
1520.40702,0.00349
1518.34685,0.00339
1516.28668,0.00345
1514.22651,0.00354
1512.16633,0.00341
1510.10616,0.00290
1508.04599,0.00221
1505.98582,0.00203
1503.92565,0.00229
1501.86547,0.00236
1499.80530,0.00207
1497.74513,0.00165
1495.68496,0.00139
1493.62478,0.00141
1491.56461,0.00168
1489.50444,0.00204
1487.44427,0.00215
1485.38410,0.00205
1483.32392,0.00199
1481.26375,0.00214
1479.20358,0.00247
1477.14341,0.00276
1475.08324,0.00293
1473.02306,0.00331
1470.96289,0.00397
1468.90272,0.00445
1466.84255,0.00481
1464.78238,0.00525
1462.72220,0.00569
1460.66203,0.00609
1458.60186,0.00662
1456.54169,0.00709
1454.48151,0.00711
1452.42134,0.00697
1450.36117,0.00694
1448.30100,0.00702
1446.24083,0.00707
1444.18065,0.00698
1442.12048,0.00683
1440.06031,0.00671
1438.00014,0.00675
1435.93997,0.00701
1433.87979,0.00716
1431.81962,0.00716
1429.75945,0.00722
1427.69928,0.00732
1425.63910,0.00751
1423.57893,0.00784
1421.51876,0.00821
1419.45859,0.00864
1417.39842,0.00902
1415.33824,0.00910
1413.27807,0.00909
1411.21790,0.00910
1409.15773,0.00903
1407.09756,0.00879
1405.03738,0.00841
1402.97721,0.00803
1400.91704,0.00779
1398.85687,0.00776
1396.79670,0.00785
1394.73652,0.00787
1392.67635,0.00781
1390.61618,0.00785
1388.55601,0.00812
1386.49583,0.00846
1384.43566,0.00863
1382.37549,0.00871
1380.31532,0.00890
1378.25515,0.00927
1376.19497,0.00969
1374.13480,0.00992
1372.07463,0.00982
1370.01446,0.00957
1367.95429,0.00930
1365.89411,0.00910
1363.83394,0.00904
1361.77377,0.00894
1359.71360,0.00855
1357.65343,0.00806
1355.59325,0.00774
1353.53308,0.00755
1351.47291,0.00734
1349.41274,0.00713
1347.35256,0.00696
1345.29239,0.00686
1343.23222,0.00692
1341.17205,0.00714
1339.11188,0.00732
1337.05170,0.00720
1334.99153,0.00681
1332.93136,0.00646
1330.87119,0.00636
1328.81102,0.00633
1326.75084,0.00614
1324.69067,0.00576
1322.63050,0.00538
1320.57033,0.00522
1318.51015,0.00512
1316.44998,0.00493
1314.38981,0.00487
1312.32964,0.00497
1310.26947,0.00502
1308.20929,0.00500
1306.14912,0.00490
1304.08895,0.00470
1302.02878,0.00457
1299.96861,0.00460
1297.90843,0.00470
1295.84826,0.00487
1293.78809,0.00510
1291.72792,0.00522
1289.66775,0.00521
1287.60757,0.00516
1285.54740,0.00510
1283.48723,0.00502
1281.42706,0.00495
1279.36688,0.00488
1277.30671,0.00495
1275.24654,0.00516
1273.18637,0.00531
1271.12620,0.00535
1269.06602,0.00525
1267.00585,0.00508
1264.94568,0.00507
1262.88551,0.00521
1260.82534,0.00528
1258.76516,0.00520
1256.70499,0.00507
1254.64482,0.00494
1252.58465,0.00478
1250.52447,0.00456
1248.46430,0.00433
1246.40413,0.00424
1244.34396,0.00427
1242.28379,0.00425
1240.22361,0.00405
1238.16344,0.00379
1236.10327,0.00358
1234.04310,0.00351
1231.98293,0.00359
1229.92275,0.00359
1227.86258,0.00347
1225.80241,0.00343
1223.74224,0.00338
1221.68207,0.00319
1219.62189,0.00290
1217.56172,0.00257
1215.50155,0.00227
1213.44138,0.00207
1211.38120,0.00193
1209.32103,0.00169
1207.26086,0.00143
1205.20069,0.00127
1203.14052,0.00107
1201.08034,0.00078
1199.02017,0.00061
1196.96000,0.00060
1194.89983,0.00068
1192.83966,0.00074
1190.77948,0.00085
1188.71931,0.00126
1186.65914,0.00195
1184.59897,0.00257
1182.53880,0.00321
1180.47862,0.00421
1178.41845,0.00559
1176.35828,0.00715
1174.29811,0.00857
1172.23793,0.00978
1170.17776,0.01106
1168.11759,0.01243
1166.05742,0.01366
1163.99725,0.01482
1161.93707,0.01606
1159.87690,0.01722
1157.81673,0.01810
1155.75656,0.01893
1153.69639,0.02008
1151.63621,0.02151
1149.57604,0.02294
1147.51587,0.02424
1145.45570,0.02559
1143.39552,0.02710
1141.33535,0.02869
1139.27518,0.03028
1137.21501,0.03179
1135.15484,0.03322
1133.09466,0.03475
1131.03449,0.03632
1128.97432,0.03762
1126.91415,0.03888
1124.85398,0.04029
1122.79380,0.04157
1120.73363,0.04267
1118.67346,0.04398
1116.61329,0.04561
1114.55312,0.04734
1112.49294,0.04917
1110.43277,0.05119
1108.37260,0.05339
1106.31243,0.05573
1104.25225,0.05811
1102.19208,0.06052
1100.13191,0.06312
1098.07174,0.06588
1096.01157,0.06859
1093.95139,0.07117
1091.89122,0.07348
1089.83105,0.07564
1087.77088,0.07800
1085.71071,0.08058
1083.65053,0.08317
1081.59036,0.08565
1079.53019,0.08790
1077.47002,0.08993
1075.40985,0.09173
1073.34967,0.09319
1071.28950,0.09455
1069.22933,0.09598
1067.16916,0.09721
1065.10898,0.09797
1063.04881,0.09836
1060.98864,0.09862
1058.92847,0.09874
1056.86830,0.09880
1054.80812,0.09889
1052.74795,0.09902
1050.68778,0.09906
1048.62761,0.09864
1046.56744,0.09752
1044.50726,0.09597
1042.44709,0.09439
1040.38692,0.09287
1038.32675,0.09128
1036.26657,0.08938
1034.20640,0.08739
1032.14623,0.08558
1030.08606,0.08383
1028.02589,0.08222
1025.96571,0.08073
1023.90554,0.07897
1021.84537,0.07693
1019.78520,0.07476
1017.72503,0.07258
1015.66485,0.07068
1013.60468,0.06918
1011.54451,0.06776
1009.48434,0.06608
1007.42417,0.06423
1005.36399,0.06245
1003.30382,0.06102
1001.24365,0.06031
999.18348,0.06025
997.12330,0.06045
995.06313,0.06090
993.00296,0.06173
990.94279,0.06282
988.88262,0.06370
986.82244,0.06418
984.76227,0.06450
982.70210,0.06442
980.64193,0.06352
978.58176,0.06202
976.52158,0.06009
974.46141,0.05760
972.40124,0.05470
970.34107,0.05175
968.28089,0.04904
966.22072,0.04632
964.16055,0.04345
962.10038,0.04087
960.04021,0.03865
957.98003,0.03672
955.91986,0.03513
953.85969,0.03373
951.79952,0.03260
949.73935,0.03180
947.67917,0.03104
945.61900,0.03035
943.55883,0.03001
941.49866,0.02969
939.43849,0.02907
937.37831,0.02868
935.31814,0.02887
933.25797,0.02910
931.19780,0.02884
929.13762,0.02829
927.07745,0.02781
925.01728,0.02729
922.95711,0.02651
920.89694,0.02546
918.83676,0.02434
916.77659,0.02331
914.71642,0.02240
912.65625,0.02139
910.59608,0.02028
908.53590,0.01916
906.47573,0.01799
904.41556,0.01740
902.35539,0.01777
900.29522,0.01822
898.23504,0.01824
896.17487,0.01813
894.11470,0.01795
892.05453,0.01779
889.99435,0.01797
887.93418,0.01845
885.87401,0.01890
883.81384,0.01913
881.75367,0.01944
879.69349,0.02005
877.63332,0.02049
875.57315,0.02089
873.51298,0.02165
871.45281,0.02232
869.39263,0.02264
867.33246,0.02288
865.27229,0.02324
863.21212,0.02350
861.15194,0.02325
859.09177,0.02262
857.03160,0.02197
854.97143,0.02146
852.91126,0.02097
850.85108,0.02010
848.79091,0.01906
846.73074,0.01854
844.67057,0.01816
842.61040,0.01731
840.55022,0.01617
838.49005,0.01522
836.42988,0.01472
834.36971,0.01426
832.30954,0.01355
830.24936,0.01301
828.18919,0.01265
826.12902,0.01179
824.06885,0.01070
822.00867,0.01018
819.94850,0.00966
817.88833,0.00878
815.82816,0.00854
813.76799,0.00878
811.70781,0.00849
809.64764,0.00799
807.58747,0.00780
805.52730,0.00738
803.46713,0.00644
801.40695,0.00575
799.34678,0.00569
797.28661,0.00560
795.22644,0.00505
793.16627,0.00471
791.10609,0.00490
789.04592,0.00511
786.98575,0.00512
784.92558,0.00528
782.86540,0.00582
780.80523,0.00610
778.74506,0.00576
776.68489,0.00551
774.62472,0.00550
772.56454,0.00510
770.50437,0.00472
768.44420,0.00529
766.38403,0.00646
764.32386,0.00693
762.26368,0.00642
760.20351,0.00587
758.14334,0.00548
756.08317,0.00484
754.02299,0.00422
751.96282,0.00403
749.90265,0.00387
747.84248,0.00354
745.78231,0.00310
743.72213,0.00222
741.66196,0.00165
739.60179,0.00216
737.54162,0.00288
735.48145,0.00307
733.42127,0.00275
731.36110,0.00231
729.30093,0.00254
727.24076,0.00334
725.18059,0.00359
723.12041,0.00337
721.06024,0.00422
719.00007,0.00473
716.93990,0.00475
714.87972,0.00494
712.81955,0.00541
710.75938,0.00571
708.69921,0.00527
706.63904,0.00463
704.57886,0.00465
702.51869,0.00524
700.45852,0.00561
698.39835,0.00530
696.33818,0.00436
694.27800,0.00326
692.21783,0.00293
690.15766,0.00388
688.09749,0.00498
686.03731,0.00455
683.97714,0.00300
681.91697,0.00227
679.85680,0.00282
677.79663,0.00320
675.73645,0.00246
673.67628,0.00102
671.61611,0.00072
669.55594,0.00591
667.49577,0.00850
665.43559,0.00119
663.37542,0.00074
661.31525,0.00224
659.25508,0.00269
657.19491,0.00229
655.13473,0.00169
653.07456,0.00192
651.01439,0.00295
648.95422,0.00331
646.89404,0.00274
644.83387,0.00307
642.77370,0.00374
640.71353,0.00404
638.65336,0.00437
636.59318,0.00475
634.53301,0.00501
632.47284,0.00463
630.41267,0.00368
628.35250,0.00387
626.29232,0.00556
624.23215,0.00541
622.17198,0.00318
620.11181,0.00203
618.05164,0.00355
615.99146,0.00620
613.93129,0.00633
611.87112,0.00303
609.81095,0.00001
607.75077,0.00000
605.69060,0.00101
603.63043,0.00094
601.57026,0.00035
599.51009,0.00000
