3996.73391,0.00064
3994.67373,0.00010
3992.61356,0.00000
3990.55339,0.00023
3988.49322,0.00029
3986.43305,0.00011
3984.37287,0.00008
3982.31270,0.00027
3980.25253,0.00038
3978.19236,0.00036
3976.13219,0.00037
3974.07201,0.00034
3972.01184,0.00043
3969.95167,0.00062
3967.89150,0.00063
3965.83133,0.00051
3963.77115,0.00053
3961.71098,0.00072
3959.65081,0.00100
3957.59064,0.00122
3955.53046,0.00117
3953.47029,0.00093
3951.41012,0.00088
3949.34995,0.00116
3947.28978,0.00146
3945.22960,0.00157
3943.16943,0.00156
3941.10926,0.00134
3939.04909,0.00085
3936.98892,0.00036
3934.92874,0.00021
3932.86857,0.00059
3930.80840,0.00125
3928.74823,0.00164
3926.68805,0.00151
3924.62788,0.00105
3922.56771,0.00065
3920.50754,0.00061
3918.44737,0.00079
3916.38719,0.00079
3914.32702,0.00058
3912.26685,0.00044
3910.20668,0.00044
3908.14651,0.00049
3906.08633,0.00067
3904.02616,0.00118
3901.96599,0.00166
3899.90582,0.00162
3897.84565,0.00137
3895.78547,0.00111
3893.72530,0.00077
3891.66513,0.00056
3889.60496,0.00048
3887.54478,0.00046
3885.48461,0.00080
3883.42444,0.00142
3881.36427,0.00178
3879.30410,0.00172
3877.24392,0.00140
3875.18375,0.00119
3873.12358,0.00114
3871.06341,0.00105
3869.00324,0.00093
3866.94306,0.00089
3864.88289,0.00096
3862.82272,0.00107
3860.76255,0.00101
3858.70237,0.00069
3856.64220,0.00038
3854.58203,0.00056
3852.52186,0.00119
3850.46169,0.00150
3848.40151,0.00147
3846.34134,0.00138
3844.28117,0.00113
3842.22100,0.00080
3840.16083,0.00069
3838.10065,0.00082
3836.04048,0.00100
3833.98031,0.00104
3831.92014,0.00092
3829.85997,0.00070
3827.79979,0.00053
3825.73962,0.00042
3823.67945,0.00027
3821.61928,0.00038
3819.55910,0.00092
3817.49893,0.00120
3815.43876,0.00111
3813.37859,0.00088
3811.31842,0.00050
3809.25824,0.00034
3807.19807,0.00069
3805.13790,0.00102
3803.07773,0.00082
3801.01756,0.00058
3798.95738,0.00073
3796.89721,0.00088
3794.83704,0.00085
3792.77687,0.00084
3790.71670,0.00098
3788.65652,0.00111
3786.59635,0.00104
3784.53618,0.00083
3782.47601,0.00061
3780.41583,0.00051
3778.35566,0.00075
3776.29549,0.00112
3774.23532,0.00117
3772.17515,0.00098
3770.11497,0.00101
3768.05480,0.00130
3765.99463,0.00144
3763.93446,0.00123
3761.87429,0.00085
3759.81411,0.00083
3757.75394,0.00131
3755.69377,0.00150
3753.63360,0.00127
3751.57342,0.00142
3749.51325,0.00195
3747.45308,0.00195
3745.39291,0.00165
3743.33274,0.00165
3741.27256,0.00142
3739.21239,0.00061
3737.15222,0.00000
3735.09205,0.00032
3733.03188,0.00087
3730.97170,0.00083
3728.91153,0.00065
3726.85136,0.00094
3724.79119,0.00173
3722.73102,0.00240
3720.67084,0.00247
3718.61067,0.00209
3716.55050,0.00151
3714.49033,0.00096
3712.43015,0.00070
3710.36998,0.00070
3708.30981,0.00075
3706.24964,0.00092
3704.18947,0.00124
3702.12929,0.00156
3700.06912,0.00166
3698.00895,0.00158
3695.94878,0.00162
3693.88861,0.00176
3691.82843,0.00176
3689.76826,0.00169
3687.70809,0.00168
3685.64792,0.00169
3683.58775,0.00171
3681.52757,0.00162
3679.46740,0.00142
3677.40723,0.00149
3675.34706,0.00179
3673.28688,0.00168
3671.22671,0.00144
3669.16654,0.00170
3667.10637,0.00214
3665.04620,0.00238
3662.98602,0.00250
3660.92585,0.00260
3658.86568,0.00267
3656.80551,0.00282
3654.74534,0.00301
3652.68516,0.00321
3650.62499,0.00392
3648.56482,0.00492
3646.50465,0.00508
3644.44447,0.00466
3642.38430,0.00444
3640.32413,0.00459
3638.26396,0.00489
3636.20379,0.00518
3634.14361,0.00539
3632.08344,0.00564
3630.02327,0.00628
3627.96310,0.00728
3625.90293,0.00765
3623.84275,0.00735
3621.78258,0.00710
3619.72241,0.00720
3617.66224,0.00754
3615.60207,0.00806
3613.54189,0.00873
3611.48172,0.00935
3609.42155,0.00979
3607.36138,0.00993
3605.30120,0.00967
3603.24103,0.00940
3601.18086,0.00953
3599.12069,0.01000
3597.06052,0.01060
3595.00034,0.01119
3592.94017,0.01157
3590.88000,0.01172
3588.81983,0.01191
3586.75966,0.01227
3584.69948,0.01261
3582.63931,0.01300
3580.57914,0.01352
3578.51897,0.01404
3576.45879,0.01440
3574.39862,0.01464
3572.33845,0.01493
3570.27828,0.01539
3568.21811,0.01612
3566.15793,0.01689
3564.09776,0.01724
3562.03759,0.01727
3559.97742,0.01732
3557.91725,0.01742
3555.85707,0.01761
3553.79690,0.01783
3551.73673,0.01786
3549.67656,0.01785
3547.61639,0.01819
3545.55621,0.01882
3543.49604,0.01952
3541.43587,0.02009
3539.37570,0.02034
3537.31552,0.02042
3535.25535,0.02064
3533.19518,0.02104
3531.13501,0.02155
3529.07484,0.02205
3527.01466,0.02241
3524.95449,0.02253
3522.89432,0.02246
3520.83415,0.02236
3518.77398,0.02245
3516.71380,0.02283
3514.65363,0.02337
3512.59346,0.02395
3510.53329,0.02446
3508.47312,0.02471
3506.41294,0.02461
3504.35277,0.02452
3502.29260,0.02498
3500.23243,0.02582
3498.17225,0.02637
3496.11208,0.02651
3494.05191,0.02667
3491.99174,0.02696
3489.93157,0.02731
3487.87139,0.02784
3485.81122,0.02830
3483.75105,0.02840
3481.69088,0.02833
3479.63071,0.02837
3477.57053,0.02860
3475.51036,0.02912
3473.45019,0.02974
3471.39002,0.03005
3469.32984,0.03009
3467.26967,0.03028
3465.20950,0.03059
3463.14933,0.03073
3461.08916,0.03071
3459.02898,0.03059
3456.96881,0.03068
3454.90864,0.03124
3452.84847,0.03187
3450.78830,0.03206
3448.72812,0.03203
3446.66795,0.03204
3444.60778,0.03207
3442.54761,0.03222
3440.48744,0.03252
3438.42726,0.03278
3436.36709,0.03293
3434.30692,0.03314
3432.24675,0.03345
3430.18657,0.03365
3428.12640,0.03368
3426.06623,0.03371
3424.00606,0.03400
3421.94589,0.03457
3419.88571,0.03512
3417.82554,0.03554
3415.76537,0.03564
3413.70520,0.03549
3411.64503,0.03536
3409.58485,0.03535
3407.52468,0.03551
3405.46451,0.03580
3403.40434,0.03618
3401.34416,0.03657
3399.28399,0.03663
3397.22382,0.03640
3395.16365,0.03652
3393.10348,0.03717
3391.04330,0.03774
3388.98313,0.03769
3386.92296,0.03745
3384.86279,0.03745
3382.80262,0.03757
3380.74244,0.03760
3378.68227,0.03752
3376.62210,0.03756
3374.56193,0.03774
3372.50176,0.03787
3370.44158,0.03798
3368.38141,0.03800
3366.32124,0.03796
3364.26107,0.03811
3362.20089,0.03835
3360.14072,0.03857
3358.08055,0.03904
3356.02038,0.03964
3353.96021,0.03964
3351.90003,0.03914
3349.83986,0.03885
3347.77969,0.03881
3345.71952,0.03896
3343.65935,0.03930
3341.59917,0.03949
3339.53900,0.03932
3337.47883,0.03899
3335.41866,0.03895
3333.35849,0.03923
3331.29831,0.03949
3329.23814,0.03962
3327.17797,0.03957
3325.11780,0.03944
3323.05762,0.03951
3320.99745,0.03971
3318.93728,0.03980
3316.87711,0.03990
3314.81694,0.04009
3312.75676,0.04014
3310.69659,0.03991
3308.63642,0.03963
3306.57625,0.03985
3304.51608,0.04031
3302.45590,0.04027
3300.39573,0.04003
3298.33556,0.04005
3296.27539,0.04006
3294.21521,0.04005
3292.15504,0.04019
3290.09487,0.04034
3288.03470,0.04046
3285.97453,0.04056
3283.91435,0.04058
3281.85418,0.04049
3279.79401,0.04039
3277.73384,0.04041
3275.67367,0.04040
3273.61349,0.04018
3271.55332,0.04017
3269.49315,0.04055
3267.43298,0.04070
3265.37281,0.04040
3263.31263,0.04006
3261.25246,0.04000
3259.19229,0.04010
3257.13212,0.04013
3255.07194,0.04027
3253.01177,0.04059
3250.95160,0.04091
3248.89143,0.04098
3246.83126,0.04076
3244.77108,0.04054
3242.71091,0.04039
3240.65074,0.04028
3238.59057,0.04030
3236.53040,0.04041
3234.47022,0.04045
3232.41005,0.04043
3230.34988,0.04043
3228.28971,0.04040
3226.22954,0.04041
3224.16936,0.04050
3222.10919,0.04043
3220.04902,0.04026
3217.98885,0.04022
3215.92867,0.04022
3213.86850,0.04004
3211.80833,0.03977
3209.74816,0.03973
3207.68799,0.03990
3205.62781,0.04000
3203.56764,0.04003
3201.50747,0.04014
3199.44730,0.04025
3197.38713,0.04018
3195.32695,0.04003
3193.26678,0.03991
3191.20661,0.03956
3189.14644,0.03909
3187.08626,0.03899
3185.02609,0.03905
3182.96592,0.03889
3180.90575,0.03865
3178.84558,0.03842
3176.78540,0.03826
3174.72523,0.03808
3172.66506,0.03786
3170.60489,0.03790
3168.54472,0.03807
3166.48454,0.03799
3164.42437,0.03786
3162.36420,0.03787
3160.30403,0.03781
3158.24386,0.03764
3156.18368,0.03754
3154.12351,0.03752
3152.06334,0.03736
3150.00317,0.03715
3147.94299,0.03725
3145.88282,0.03749
3143.82265,0.03749
3141.76248,0.03723
3139.70231,0.03679
3137.64213,0.03623
3135.58196,0.03570
3133.52179,0.03548
3131.46162,0.03571
3129.40145,0.03615
3127.34127,0.03638
3125.28110,0.03613
3123.22093,0.03564
3121.16076,0.03543
3119.10058,0.03549
3117.04041,0.03536
3114.98024,0.03510
3112.92007,0.03497
3110.85990,0.03480
3108.79972,0.03456
3106.73955,0.03450
3104.67938,0.03445
3102.61921,0.03404
3100.55904,0.03353
3098.49886,0.03330
3096.43869,0.03332
3094.37852,0.03339
3092.31835,0.03336
3090.25818,0.03313
3088.19800,0.03276
3086.13783,0.03253
3084.07766,0.03252
3082.01749,0.03262
3079.95731,0.03259
3077.89714,0.03236
3075.83697,0.03210
3073.77680,0.03184
3071.71663,0.03159
3069.65645,0.03152
3067.59628,0.03151
3065.53611,0.03134
3063.47594,0.03106
3061.41577,0.03074
3059.35559,0.03045
3057.29542,0.03025
3055.23525,0.03015
3053.17508,0.03019
3051.11491,0.03023
3049.05473,0.02997
3046.99456,0.02948
3044.93439,0.02923
3042.87422,0.02932
3040.81404,0.02927
3038.75387,0.02896
3036.69370,0.02869
3034.63353,0.02848
3032.57336,0.02824
3030.51318,0.02812
3028.45301,0.02805
3026.39284,0.02782
3024.33267,0.02760
3022.27250,0.02742
3020.21232,0.02706
3018.15215,0.02681
3016.09198,0.02696
3014.03181,0.02714
3011.97163,0.02698
3009.91146,0.02672
3007.85129,0.02669
3005.79112,0.02673
3003.73095,0.02667
3001.67077,0.02656
2999.61060,0.02639
2997.55043,0.02598
2995.49026,0.02553
2993.43009,0.02546
2991.36991,0.02544
2989.30974,0.02509
2987.24957,0.02474
2985.18940,0.02457
2983.12923,0.02443
2981.06905,0.02428
2979.00888,0.02406
2976.94871,0.02390
2974.88854,0.02390
2972.82836,0.02391
2970.76819,0.02392
2968.70802,0.02405
2966.64785,0.02409
2964.58768,0.02379
2962.52750,0.02348
2960.46733,0.02356
2958.40716,0.02385
2956.34699,0.02401
2954.28682,0.02409
2952.22664,0.02396
2950.16647,0.02361
2948.10630,0.02339
2946.04613,0.02332
2943.98596,0.02339
2941.92578,0.02369
2939.86561,0.02393
2937.80544,0.02396
2935.74527,0.02397
2933.68509,0.02389
2931.62492,0.02383
2929.56475,0.02385
2927.50458,0.02368
2925.44441,0.02328
2923.38423,0.02298
2921.32406,0.02295
2919.26389,0.02296
2917.20372,0.02282
2915.14355,0.02264
2913.08337,0.02250
2911.02320,0.02238
2908.96303,0.02212
2906.90286,0.02170
2904.84268,0.02153
2902.78251,0.02179
2900.72234,0.02201
2898.66217,0.02189
2896.60200,0.02178
2894.54182,0.02183
2892.48165,0.02181
2890.42148,0.02179
2888.36131,0.02181
2886.30114,0.02166
2884.24096,0.02146
2882.18079,0.02139
2880.12062,0.02120
2878.06045,0.02094
2876.00028,0.02080
2873.94010,0.02077
2871.87993,0.02079
2869.81976,0.02077
2867.75959,0.02073
2865.69941,0.02075
2863.63924,0.02070
2861.57907,0.02055
2859.51890,0.02040
2857.45873,0.02027
2855.39855,0.02017
2853.33838,0.02000
2851.27821,0.01979
2849.21804,0.01974
2847.15787,0.01975
2845.09769,0.01956
2843.03752,0.01924
2840.97735,0.01907
2838.91718,0.01900
2836.85700,0.01895
2834.79683,0.01895
2832.73666,0.01887
2830.67649,0.01869
2828.61632,0.01866
2826.55614,0.01865
2824.49597,0.01846
2822.43580,0.01826
2820.37563,0.01817
2818.31546,0.01810
2816.25528,0.01798
2814.19511,0.01779
2812.13494,0.01763
2810.07477,0.01755
2808.01460,0.01749
2805.95442,0.01738
2803.89425,0.01738
2801.83408,0.01745
2799.77391,0.01734
2797.71373,0.01725
2795.65356,0.01717
2793.59339,0.01700
2791.53322,0.01693
2789.47305,0.01698
2787.41287,0.01690
2785.35270,0.01667
2783.29253,0.01649
2781.23236,0.01638
2779.17219,0.01627
2777.11201,0.01626
2775.05184,0.01630
2772.99167,0.01620
2770.93150,0.01611
2768.87133,0.01612
2766.81115,0.01598
2764.75098,0.01584
2762.69081,0.01590
2760.63064,0.01584
2758.57046,0.01549
2756.51029,0.01515
2754.45012,0.01500
2752.38995,0.01500
2750.32978,0.01506
2748.26960,0.01517
2746.20943,0.01529
2744.14926,0.01517
2742.08909,0.01487
2740.02892,0.01482
2737.96874,0.01497
2735.90857,0.01495
2733.84840,0.01481
2731.78823,0.01465
2729.72805,0.01447
2727.66788,0.01437
2725.60771,0.01434
2723.54754,0.01430
2721.48737,0.01421
2719.42719,0.01401
2717.36702,0.01382
2715.30685,0.01384
2713.24668,0.01383
2711.18651,0.01364
2709.12633,0.01347
2707.06616,0.01337
2705.00599,0.01334
2702.94582,0.01342
2700.88565,0.01352
2698.82547,0.01350
2696.76530,0.01332
2694.70513,0.01306
2692.64496,0.01294
2690.58478,0.01297
2688.52461,0.01286
2686.46444,0.01259
2684.40427,0.01239
2682.34410,0.01230
2680.28392,0.01221
2678.22375,0.01212
2676.16358,0.01203
2674.10341,0.01197
2672.04324,0.01193
2669.98306,0.01181
2667.92289,0.01174
2665.86272,0.01176
2663.80255,0.01164
2661.74238,0.01143
2659.68220,0.01132
2657.62203,0.01140
2655.56186,0.01140
2653.50169,0.01112
2651.44151,0.01089
2649.38134,0.01091
2647.32117,0.01090
2645.26100,0.01074
2643.20083,0.01055
2641.14065,0.01026
2639.08048,0.00997
2637.02031,0.00995
2634.96014,0.01017
2632.89997,0.01039
2630.83979,0.01047
2628.77962,0.01034
2626.71945,0.01008
2624.65928,0.00994
2622.59910,0.00994
2620.53893,0.00980
2618.47876,0.00955
2616.41859,0.00947
2614.35842,0.00945
2612.29824,0.00936
2610.23807,0.00938
2608.17790,0.00934
2606.11773,0.00907
2604.05756,0.00885
2601.99738,0.00870
2599.93721,0.00855
2597.87704,0.00848
2595.81687,0.00858
2593.75670,0.00879
2591.69652,0.00882
2589.63635,0.00868
2587.57618,0.00866
2585.51601,0.00868
2583.45583,0.00853
2581.39566,0.00840
2579.33549,0.00837
2577.27532,0.00830
2575.21515,0.00818
2573.15497,0.00804
2571.09480,0.00793
2569.03463,0.00801
2566.97446,0.00833
2564.91429,0.00867
2562.85411,0.00859
2560.79394,0.00825
2558.73377,0.00823
2556.67360,0.00840
2554.61342,0.00831
2552.55325,0.00815
2550.49308,0.00815
2548.43291,0.00809
2546.37274,0.00802
2544.31256,0.00824
2542.25239,0.00843
2540.19222,0.00822
2538.13205,0.00783
2536.07188,0.00774
2534.01170,0.00793
2531.95153,0.00795
2529.89136,0.00789
2527.83119,0.00819
2525.77102,0.00850
2523.71084,0.00842
2521.65067,0.00826
2519.59050,0.00835
2517.53033,0.00852
2515.47015,0.00852
2513.40998,0.00854
2511.34981,0.00871
2509.28964,0.00880
2507.22947,0.00873
2505.16929,0.00855
2503.10912,0.00830
2501.04895,0.00813
2498.98878,0.00813
2496.92861,0.00815
2494.86843,0.00809
2492.80826,0.00797
2490.74809,0.00802
2488.68792,0.00832
2486.62775,0.00860
2484.56757,0.00869
2482.50740,0.00866
2480.44723,0.00878
2478.38706,0.00902
2476.32688,0.00905
2474.26671,0.00901
2472.20654,0.00908
2470.14637,0.00913
2468.08620,0.00901
2466.02602,0.00872
2463.96585,0.00869
2461.90568,0.00920
2459.84551,0.00961
2457.78534,0.00950
2455.72516,0.00914
2453.66499,0.00891
2451.60482,0.00887
2449.54465,0.00876
2447.48447,0.00868
2445.42430,0.00889
2443.36413,0.00900
2441.30396,0.00883
2439.24379,0.00889
2437.18361,0.00915
2435.12344,0.00933
2433.06327,0.00953
2431.00310,0.00964
2428.94293,0.00975
2426.88275,0.00997
2424.82258,0.00998
2422.76241,0.00959
2420.70224,0.00906
2418.64207,0.00866
2416.58189,0.00861
2414.52172,0.00887
2412.46155,0.00905
2410.40138,0.00912
2408.34120,0.00924
2406.28103,0.00942
2404.22086,0.00942
2402.16069,0.00897
2400.10052,0.00841
2398.04034,0.00798
2395.98017,0.00796
2393.92000,0.00814
2391.85983,0.00845
2389.79966,0.00886
2387.73948,0.00926
2385.67931,0.00944
2383.61914,0.00937
2381.55897,0.00928
2379.49880,0.00941
2377.43862,0.00962
2375.37845,0.00955
2373.31828,0.00882
2371.25811,0.00788
2369.19793,0.00787
2367.13776,0.00876
2365.07759,0.00967
2363.01742,0.01021
2360.95725,0.00955
2358.89707,0.00767
2356.83690,0.00706
2354.77673,0.00851
2352.71656,0.00960
2350.65639,0.00932
2348.59621,0.00875
2346.53604,0.00879
2344.47587,0.00936
2342.41570,0.00945
2340.35552,0.00850
2338.29535,0.00746
2336.23518,0.00746
2334.17501,0.00829
2332.11484,0.00904
2330.05466,0.00954
2327.99449,0.00999
2325.93432,0.01018
2323.87415,0.00993
2321.81398,0.00949
2319.75380,0.00920
2317.69363,0.00916
2315.63346,0.00923
2313.57329,0.00928
2311.51312,0.00937
2309.45294,0.00935
2307.39277,0.00907
2305.33260,0.00877
2303.27243,0.00856
2301.21225,0.00853
2299.15208,0.00864
2297.09191,0.00856
2295.03174,0.00825
2292.97157,0.00783
2290.91139,0.00737
2288.85122,0.00716
2286.79105,0.00739
2284.73088,0.00780
2282.67071,0.00807
2280.61053,0.00800
2278.55036,0.00742
2276.49019,0.00663
2274.43002,0.00633
2272.36984,0.00678
2270.30967,0.00728
2268.24950,0.00698
2266.18933,0.00626
2264.12916,0.00610
2262.06898,0.00650
2260.00881,0.00680
2257.94864,0.00674
2255.88847,0.00662
2253.82830,0.00674
2251.76812,0.00731
2249.70795,0.00792
2247.64778,0.00774
2245.58761,0.00658
2243.52744,0.00557
2241.46726,0.00527
2239.40709,0.00533
2237.34692,0.00553
2235.28675,0.00561
2233.22657,0.00552
2231.16640,0.00585
2229.10623,0.00631
2227.04606,0.00625
2224.98589,0.00600
2222.92571,0.00580
2220.86554,0.00531
2218.80537,0.00510
2216.74520,0.00569
2214.68503,0.00622
2212.62485,0.00613
2210.56468,0.00587
2208.50451,0.00580
2206.44434,0.00558
2204.38417,0.00538
2202.32399,0.00587
2200.26382,0.00635
2198.20365,0.00606
2196.14348,0.00533
2194.08330,0.00478
2192.02313,0.00501
2189.96296,0.00559
2187.90279,0.00565
2185.84262,0.00532
2183.78244,0.00494
2181.72227,0.00501
2179.66210,0.00587
2177.60193,0.00616
2175.54176,0.00522
2173.48158,0.00482
2171.42141,0.00526
2169.36124,0.00546
2167.30107,0.00552
2165.24089,0.00545
2163.18072,0.00436
2161.12055,0.00240
2159.06038,0.00111
2157.00021,0.00097
2154.94003,0.00196
2152.87986,0.00362
2150.81969,0.00469
2148.75952,0.00500
2146.69935,0.00539
2144.63917,0.00594
2142.57900,0.00615
2140.51883,0.00581
2138.45866,0.00510
2136.39849,0.00436
2134.33831,0.00400
2132.27814,0.00386
2130.21797,0.00350
2128.15780,0.00357
2126.09762,0.00405
2124.03745,0.00418
2121.97728,0.00413
2119.91711,0.00415
2117.85694,0.00435
2115.79676,0.00492
2113.73659,0.00532
2111.67642,0.00521
2109.61625,0.00455
2107.55608,0.00338
2105.49590,0.00282
2103.43573,0.00326
2101.37556,0.00375
2099.31539,0.00392
2097.25521,0.00364
2095.19504,0.00283
2093.13487,0.00227
2091.07470,0.00267
2089.01453,0.00351
2086.95435,0.00395
2084.89418,0.00403
2082.83401,0.00429
2080.77384,0.00441
2078.71367,0.00368
2076.65349,0.00259
2074.59332,0.00250
2072.53315,0.00337
2070.47298,0.00359
2068.41281,0.00302
2066.35263,0.00285
2064.29246,0.00334
2062.23229,0.00369
2060.17212,0.00344
2058.11194,0.00293
2056.05177,0.00284
2053.99160,0.00333
2051.93143,0.00348
2049.87126,0.00291
2047.81108,0.00259
2045.75091,0.00308
2043.69074,0.00357
2041.63057,0.00322
2039.57040,0.00247
2037.51022,0.00236
2035.45005,0.00285
2033.38988,0.00350
2031.32971,0.00450
2029.26954,0.00524
2027.20936,0.00519
2025.14919,0.00482
2023.08902,0.00399
2021.02885,0.00264
2018.96867,0.00181
2016.90850,0.00216
2014.84833,0.00288
2012.78816,0.00357
2010.72799,0.00408
2008.66781,0.00394
2006.60764,0.00313
2004.54747,0.00223
2002.48730,0.00190
2000.42713,0.00185
1998.36695,0.00151
1996.30678,0.00103
1994.24661,0.00120
1992.18644,0.00204
1990.12626,0.00242
1988.06609,0.00219
1986.00592,0.00236
1983.94575,0.00323
1981.88558,0.00335
1979.82540,0.00236
1977.76523,0.00214
1975.70506,0.00242
1973.64489,0.00201
1971.58472,0.00212
1969.52454,0.00303
1967.46437,0.00366
1965.40420,0.00420
1963.34403,0.00412
1961.28386,0.00255
1959.22368,0.00061
1957.16351,0.00000
1955.10334,0.00090
1953.04317,0.00228
1950.98299,0.00308
1948.92282,0.00287
1946.86265,0.00205
1944.80248,0.00168
1942.74231,0.00216
1940.68213,0.00260
1938.62196,0.00229
1936.56179,0.00174
1934.50162,0.00141
1932.44145,0.00134
1930.38127,0.00151
1928.32110,0.00170
1926.26093,0.00205
1924.20076,0.00270
1922.14059,0.00276
1920.08041,0.00178
1918.02024,0.00077
1915.96007,0.00046
1913.89990,0.00066
1911.83972,0.00112
1909.77955,0.00173
1907.71938,0.00229
1905.65921,0.00249
1903.59904,0.00207
1901.53886,0.00155
1899.47869,0.00183
1897.41852,0.00247
1895.35835,0.00226
1893.29818,0.00140
1891.23800,0.00113
1889.17783,0.00180
1887.11766,0.00248
1885.05749,0.00271
1882.99731,0.00271
1880.93714,0.00258
1878.87697,0.00244
1876.81680,0.00240
1874.75663,0.00232
1872.69645,0.00229
1870.63628,0.00254
1868.57611,0.00289
1866.51594,0.00300
1864.45577,0.00286
1862.39559,0.00272
1860.33542,0.00273
1858.27525,0.00265
1856.21508,0.00225
1854.15491,0.00193
1852.09473,0.00222
1850.03456,0.00290
1847.97439,0.00320
1845.91422,0.00302
1843.85404,0.00287
1841.79387,0.00279
1839.73370,0.00270
1837.67353,0.00275
1835.61336,0.00283
1833.55318,0.00266
1831.49301,0.00223
1829.43284,0.00188
1827.37267,0.00199
1825.31250,0.00237
1823.25232,0.00260
1821.19215,0.00255
1819.13198,0.00246
1817.07181,0.00251
1815.01163,0.00254
1812.95146,0.00231
1810.89129,0.00197
1808.83112,0.00187
1806.77095,0.00199
1804.71077,0.00212
1802.65060,0.00226
1800.59043,0.00242
1798.53026,0.00255
1796.47009,0.00266
1794.40991,0.00286
1792.34974,0.00310
1790.28957,0.00309
1788.22940,0.00283
1786.16923,0.00272
1784.10905,0.00295
1782.04888,0.00321
1779.98871,0.00329
1777.92854,0.00327
1775.86836,0.00320
1773.80819,0.00303
1771.74802,0.00296
1769.68785,0.00311
1767.62768,0.00327
1765.56750,0.00337
1763.50733,0.00345
1761.44716,0.00348
1759.38699,0.00345
1757.32682,0.00349
1755.26664,0.00370
1753.20647,0.00404
1751.14630,0.00436
1749.08613,0.00446
1747.02596,0.00451
1744.96578,0.00481
1742.90561,0.00516
1740.84544,0.00525
1738.78527,0.00511
1736.72509,0.00487
1734.66492,0.00482
1732.60475,0.00502
1730.54458,0.00513
1728.48441,0.00516
1726.42423,0.00523
1724.36406,0.00538
1722.30389,0.00556
1720.24372,0.00581
1718.18355,0.00629
1716.12337,0.00678
1714.06320,0.00683
1712.00303,0.00675
1709.94286,0.00680
1707.88268,0.00686
1705.82251,0.00694
1703.76234,0.00707
1701.70217,0.00709
1699.64200,0.00702
1697.58182,0.00710
1695.52165,0.00746
1693.46148,0.00801
1691.40131,0.00856
1689.34114,0.00901
1687.28096,0.00929
1685.22079,0.00949
1683.16062,0.00981
1681.10045,0.01021
1679.04028,0.01057
1676.98010,0.01092
1674.91993,0.01130
1672.85976,0.01152
1670.79959,0.01160
1668.73941,0.01182
1666.67924,0.01214
1664.61907,0.01238
1662.55890,0.01251
1660.49873,0.01263
1658.43855,0.01274
1656.37838,0.01275
1654.31821,0.01269
1652.25804,0.01280
1650.19787,0.01302
1648.13769,0.01313
1646.07752,0.01315
1644.01735,0.01315
1641.95718,0.01316
1639.89701,0.01321
1637.83683,0.01326
1635.77666,0.01325
1633.71649,0.01314
1631.65632,0.01305
1629.59614,0.01300
1627.53597,0.01280
1625.47580,0.01237
1623.41563,0.01203
1621.35546,0.01199
1619.29528,0.01198
1617.23511,0.01187
1615.17494,0.01183
1613.11477,0.01191
1611.05460,0.01195
1608.99442,0.01191
1606.93425,0.01172
1604.87408,0.01144
1602.81391,0.01118
1600.75373,0.01091
1598.69356,0.01054
1596.63339,0.01012
1594.57322,0.00982
1592.51305,0.00967
1590.45287,0.00953
1588.39270,0.00929
1586.33253,0.00892
1584.27236,0.00850
1582.21219,0.00811
1580.15201,0.00773
1578.09184,0.00729
1576.03167,0.00685
1573.97150,0.00652
1571.91133,0.00627
1569.85115,0.00607
1567.79098,0.00599
1565.73081,0.00598
1563.67064,0.00588
1561.61046,0.00555
1559.55029,0.00503
1557.49012,0.00479
1555.42995,0.00483
1553.36978,0.00474
1551.30960,0.00460
1549.24943,0.00463
1547.18926,0.00473
1545.12909,0.00458
1543.06892,0.00385
1541.00874,0.00298
1538.94857,0.00300
1536.88840,0.00341
1534.82823,0.00338
1532.76805,0.00304
1530.70788,0.00287
1528.64771,0.00293
1526.58754,0.00305
1524.52737,0.00321
1522.46719,0.00343
1520.40702,0.00344
1518.34685,0.00314
1516.28668,0.00291
1514.22651,0.00292
1512.16633,0.00306
1510.10616,0.00313
1508.04599,0.00289
1505.98582,0.00234
1503.92565,0.00210
1501.86547,0.00213
1499.80530,0.00218
1497.74513,0.00223
1495.68496,0.00225
1493.62478,0.00221
1491.56461,0.00226
1489.50444,0.00241
1487.44427,0.00236
1485.38410,0.00210
1483.32392,0.00197
1481.26375,0.00203
1479.20358,0.00211
1477.14341,0.00218
1475.08324,0.00225
1473.02306,0.00232
1470.96289,0.00240
1468.90272,0.00246
1466.84255,0.00251
1464.78238,0.00255
1462.72220,0.00254
1460.66203,0.00269
1458.60186,0.00316
1456.54169,0.00352
1454.48151,0.00335
1452.42134,0.00302
1450.36117,0.00286
1448.30100,0.00289
1446.24083,0.00289
1444.18065,0.00276
1442.12048,0.00265
1440.06031,0.00263
1438.00014,0.00273
1435.93997,0.00289
1433.87979,0.00289
1431.81962,0.00278
1429.75945,0.00277
1427.69928,0.00294
1425.63910,0.00313
1423.57893,0.00320
1421.51876,0.00316
1419.45859,0.00325
1417.39842,0.00357
1415.33824,0.00379
1413.27807,0.00376
1411.21790,0.00365
1409.15773,0.00360
1407.09756,0.00355
1405.03738,0.00346
1402.97721,0.00337
1400.91704,0.00334
1398.85687,0.00330
1396.79670,0.00317
1394.73652,0.00297
1392.67635,0.00288
1390.61618,0.00292
1388.55601,0.00303
1386.49583,0.00311
1384.43566,0.00308
1382.37549,0.00308
1380.31532,0.00322
1378.25515,0.00343
1376.19497,0.00356
1374.13480,0.00344
1372.07463,0.00311
1370.01446,0.00284
1367.95429,0.00277
1365.89411,0.00280
1363.83394,0.00281
1361.77377,0.00272
1359.71360,0.00251
1357.65343,0.00230
1355.59325,0.00211
1353.53308,0.00203
1351.47291,0.00204
1349.41274,0.00204
1347.35256,0.00195
1345.29239,0.00185
1343.23222,0.00188
1341.17205,0.00202
1339.11188,0.00214
1337.05170,0.00212
1334.99153,0.00201
1332.93136,0.00188
1330.87119,0.00185
1328.81102,0.00194
1326.75084,0.00198
1324.69067,0.00193
1322.63050,0.00195
1320.57033,0.00210
1318.51015,0.00224
1316.44998,0.00228
1314.38981,0.00222
1312.32964,0.00209
1310.26947,0.00207
1308.20929,0.00218
1306.14912,0.00221
1304.08895,0.00209
1302.02878,0.00194
1299.96861,0.00195
1297.90843,0.00209
1295.84826,0.00222
1293.78809,0.00230
1291.72792,0.00236
1289.66775,0.00241
1287.60757,0.00240
1285.54740,0.00236
1283.48723,0.00242
1281.42706,0.00256
1279.36688,0.00271
1277.30671,0.00277
1275.24654,0.00279
1273.18637,0.00291
1271.12620,0.00308
1269.06602,0.00315
1267.00585,0.00309
1264.94568,0.00298
1262.88551,0.00290
1260.82534,0.00287
1258.76516,0.00282
1256.70499,0.00272
1254.64482,0.00253
1252.58465,0.00246
1250.52447,0.00255
1248.46430,0.00261
1246.40413,0.00258
1244.34396,0.00253
1242.28379,0.00235
1240.22361,0.00209
1238.16344,0.00193
1236.10327,0.00187
1234.04310,0.00187
1231.98293,0.00187
1229.92275,0.00172
1227.86258,0.00155
1225.80241,0.00148
1223.74224,0.00133
1221.68207,0.00110
1219.62189,0.00089
1217.56172,0.00072
1215.50155,0.00063
1213.44138,0.00059
1211.38120,0.00049
1209.32103,0.00035
1207.26086,0.00033
1205.20069,0.00039
1203.14052,0.00032
1201.08034,0.00014
1199.02017,0.00001
1196.96000,0.00000
1194.89983,0.00025
1192.83966,0.00061
1190.77948,0.00096
1188.71931,0.00133
1186.65914,0.00168
1184.59897,0.00202
1182.53880,0.00247
1180.47862,0.00303
1178.41845,0.00362
1176.35828,0.00426
1174.29811,0.00491
1172.23793,0.00546
1170.17776,0.00613
1168.11759,0.00708
1166.05742,0.00798
1163.99725,0.00869
1161.93707,0.00945
1159.87690,0.01018
1157.81673,0.01067
1155.75656,0.01112
1153.69639,0.01179
1151.63621,0.01258
1149.57604,0.01341
1147.51587,0.01428
1145.45570,0.01505
1143.39552,0.01579
1141.33535,0.01659
1139.27518,0.01732
1137.21501,0.01799
1135.15484,0.01873
1133.09466,0.01949
1131.03449,0.02026
1128.97432,0.02125
1126.91415,0.02245
1124.85398,0.02357
1122.79380,0.02444
1120.73363,0.02519
1118.67346,0.02615
1116.61329,0.02727
1114.55312,0.02823
1112.49294,0.02899
1110.43277,0.02991
1108.37260,0.03113
1106.31243,0.03221
1104.25225,0.03302
1102.19208,0.03391
1100.13191,0.03493
1098.07174,0.03586
1096.01157,0.03662
1093.95139,0.03737
1091.89122,0.03836
1089.83105,0.03946
1087.77088,0.04036
1085.71071,0.04107
1083.65053,0.04175
1081.59036,0.04241
1079.53019,0.04298
1077.47002,0.04343
1075.40985,0.04385
1073.34967,0.04436
1071.28950,0.04485
1069.22933,0.04509
1067.16916,0.04503
1065.10898,0.04481
1063.04881,0.04451
1060.98864,0.04413
1058.92847,0.04368
1056.86830,0.04320
1054.80812,0.04260
1052.74795,0.04195
1050.68778,0.04125
1048.62761,0.04023
1046.56744,0.03904
1044.50726,0.03801
1042.44709,0.03713
1040.38692,0.03623
1038.32675,0.03525
1036.26657,0.03438
1034.20640,0.03373
1032.14623,0.03307
1030.08606,0.03230
1028.02589,0.03154
1025.96571,0.03072
1023.90554,0.02975
1021.84537,0.02888
1019.78520,0.02832
1017.72503,0.02771
1015.66485,0.02691
1013.60468,0.02629
1011.54451,0.02602
1009.48434,0.02594
1007.42417,0.02576
1005.36399,0.02562
1003.30382,0.02585
1001.24365,0.02625
999.18348,0.02654
997.12330,0.02693
995.06313,0.02763
993.00296,0.02834
990.94279,0.02883
988.88262,0.02923
986.82244,0.02969
984.76227,0.03018
982.70210,0.03041
980.64193,0.03025
978.58176,0.02981
976.52158,0.02909
974.46141,0.02824
972.40124,0.02739
970.34107,0.02638
968.28089,0.02521
966.22072,0.02390
964.16055,0.02256
962.10038,0.02140
960.04021,0.02042
957.98003,0.01960
955.91986,0.01881
953.85969,0.01815
951.79952,0.01770
949.73935,0.01710
947.67917,0.01627
945.61900,0.01558
943.55883,0.01527
941.49866,0.01508
939.43849,0.01469
937.37831,0.01424
935.31814,0.01397
933.25797,0.01390
931.19780,0.01387
929.13762,0.01365
927.07745,0.01321
925.01728,0.01286
922.95711,0.01259
920.89694,0.01235
918.83676,0.01222
916.77659,0.01195
914.71642,0.01140
912.65625,0.01076
910.59608,0.01034
908.53590,0.01009
906.47573,0.00986
904.41556,0.00976
902.35539,0.00981
900.29522,0.00980
898.23504,0.00963
896.17487,0.00950
894.11470,0.00956
892.05453,0.00977
889.99435,0.01023
887.93418,0.01068
885.87401,0.01079
883.81384,0.01081
881.75367,0.01110
879.69349,0.01161
877.63332,0.01208
875.57315,0.01247
873.51298,0.01270
871.45281,0.01265
869.39263,0.01267
867.33246,0.01303
865.27229,0.01348
863.21212,0.01379
861.15194,0.01378
859.09177,0.01332
857.03160,0.01283
854.97143,0.01272
852.91126,0.01277
850.85108,0.01287
848.79091,0.01283
846.73074,0.01212
844.67057,0.01093
842.61040,0.01012
840.55022,0.00967
838.49005,0.00909
836.42988,0.00870
834.36971,0.00850
832.30954,0.00804
830.24936,0.00757
828.18919,0.00737
826.12902,0.00720
824.06885,0.00700
822.00867,0.00682
819.94850,0.00643
817.88833,0.00572
815.82816,0.00492
813.76799,0.00426
811.70781,0.00384
809.64764,0.00371
807.58747,0.00377
805.52730,0.00381
803.46713,0.00369
801.40695,0.00362
799.34678,0.00348
797.28661,0.00281
795.22644,0.00200
793.16627,0.00188
791.10609,0.00230
789.04592,0.00279
786.98575,0.00302
784.92558,0.00306
782.86540,0.00298
780.80523,0.00266
778.74506,0.00237
776.68489,0.00231
774.62472,0.00244
772.56454,0.00245
770.50437,0.00230
768.44420,0.00229
766.38403,0.00233
764.32386,0.00223
762.26368,0.00203
760.20351,0.00190
758.14334,0.00159
756.08317,0.00116
754.02299,0.00104
751.96282,0.00117
749.90265,0.00123
747.84248,0.00119
745.78231,0.00117
743.72213,0.00136
741.66196,0.00149
739.60179,0.00120
737.54162,0.00092
735.48145,0.00079
733.42127,0.00068
731.36110,0.00070
729.30093,0.00071
727.24076,0.00066
725.18059,0.00063
723.12041,0.00060
721.06024,0.00067
719.00007,0.00116
716.93990,0.00143
714.87972,0.00149
712.81955,0.00195
710.75938,0.00242
708.69921,0.00233
706.63904,0.00191
704.57886,0.00152
702.51869,0.00121
700.45852,0.00111
698.39835,0.00147
696.33818,0.00204
694.27800,0.00207
692.21783,0.00139
690.15766,0.00082
688.09749,0.00102
686.03731,0.00150
683.97714,0.00162
681.91697,0.00150
679.85680,0.00141
677.79663,0.00127
675.73645,0.00087
673.67628,0.00078
671.61611,0.00146
669.55594,0.00232
667.49577,0.00288
665.43559,0.00335
663.37542,0.00393
661.31525,0.00376
659.25508,0.00328
657.19491,0.00353
655.13473,0.00418
653.07456,0.00454
651.01439,0.00460
648.95422,0.00424
646.89404,0.00353
644.83387,0.00284
642.77370,0.00262
640.71353,0.00281
638.65336,0.00293
636.59318,0.00338
634.53301,0.00426
632.47284,0.00422
630.41267,0.00295
628.35250,0.00177
626.29232,0.00133
624.23215,0.00086
622.17198,0.00061
620.11181,0.00221
618.05164,0.00484
615.99146,0.00480
613.93129,0.00316
611.87112,0.00370
609.81095,0.00477
607.75077,0.00369
605.69060,0.00212
603.63043,0.00092
601.57026,0.00000
599.51009,0.00000
