3996.73391,0.00055
3994.67373,0.00049
3992.61356,0.00063
3990.55339,0.00092
3988.49322,0.00100
3986.43305,0.00081
3984.37287,0.00077
3982.31270,0.00098
3980.25253,0.00098
3978.19236,0.00068
3976.13219,0.00036
3974.07201,0.00008
3972.01184,0.00000
3969.95167,0.00020
3967.89150,0.00044
3965.83133,0.00061
3963.77115,0.00072
3961.71098,0.00076
3959.65081,0.00075
3957.59064,0.00078
3955.53046,0.00085
3953.47029,0.00094
3951.41012,0.00098
3949.34995,0.00109
3947.28978,0.00123
3945.22960,0.00112
3943.16943,0.00093
3941.10926,0.00097
3939.04909,0.00098
3936.98892,0.00077
3934.92874,0.00049
3932.86857,0.00038
3930.80840,0.00056
3928.74823,0.00077
3926.68805,0.00065
3924.62788,0.00036
3922.56771,0.00035
3920.50754,0.00063
3918.44737,0.00089
3916.38719,0.00088
3914.32702,0.00063
3912.26685,0.00043
3910.20668,0.00046
3908.14651,0.00069
3906.08633,0.00111
3904.02616,0.00179
3901.96599,0.00227
3899.90582,0.00206
3897.84565,0.00159
3895.78547,0.00121
3893.72530,0.00100
3891.66513,0.00105
3889.60496,0.00105
3887.54478,0.00079
3885.48461,0.00078
3883.42444,0.00123
3881.36427,0.00177
3879.30410,0.00222
3877.24392,0.00235
3875.18375,0.00202
3873.12358,0.00136
3871.06341,0.00078
3869.00324,0.00066
3866.94306,0.00078
3864.88289,0.00074
3862.82272,0.00049
3860.76255,0.00025
3858.70237,0.00027
3856.64220,0.00067
3854.58203,0.00124
3852.52186,0.00141
3850.46169,0.00102
3848.40151,0.00086
3846.34134,0.00099
3844.28117,0.00088
3842.22100,0.00056
3840.16083,0.00059
3838.10065,0.00094
3836.04048,0.00104
3833.98031,0.00081
3831.92014,0.00061
3829.85997,0.00059
3827.79979,0.00059
3825.73962,0.00054
3823.67945,0.00046
3821.61928,0.00049
3819.55910,0.00053
3817.49893,0.00030
3815.43876,0.00019
3813.37859,0.00037
3811.31842,0.00036
3809.25824,0.00021
3807.19807,0.00035
3805.13790,0.00058
3803.07773,0.00038
3801.01756,0.00004
3798.95738,0.00000
3796.89721,0.00004
3794.83704,0.00008
3792.77687,0.00033
3790.71670,0.00076
3788.65652,0.00104
3786.59635,0.00098
3784.53618,0.00072
3782.47601,0.00055
3780.41583,0.00076
3778.35566,0.00115
3776.29549,0.00108
3774.23532,0.00066
3772.17515,0.00047
3770.11497,0.00064
3768.05480,0.00103
3765.99463,0.00146
3763.93446,0.00136
3761.87429,0.00070
3759.81411,0.00043
3757.75394,0.00089
3755.69377,0.00109
3753.63360,0.00066
3751.57342,0.00049
3749.51325,0.00109
3747.45308,0.00168
3745.39291,0.00197
3743.33274,0.00219
3741.27256,0.00217
3739.21239,0.00178
3737.15222,0.00114
3735.09205,0.00060
3733.03188,0.00041
3730.97170,0.00042
3728.91153,0.00059
3726.85136,0.00089
3724.79119,0.00123
3722.73102,0.00136
3720.67084,0.00123
3718.61067,0.00119
3716.55050,0.00133
3714.49033,0.00165
3712.43015,0.00187
3710.36998,0.00140
3708.30981,0.00074
3706.24964,0.00063
3704.18947,0.00102
3702.12929,0.00136
3700.06912,0.00119
3698.00895,0.00084
3695.94878,0.00083
3693.88861,0.00110
3691.82843,0.00127
3689.76826,0.00126
3687.70809,0.00106
3685.64792,0.00096
3683.58775,0.00109
3681.52757,0.00129
3679.46740,0.00148
3677.40723,0.00183
3675.34706,0.00214
3673.28688,0.00174
3671.22671,0.00110
3669.16654,0.00119
3667.10637,0.00178
3665.04620,0.00216
3662.98602,0.00230
3660.92585,0.00236
3658.86568,0.00239
3656.80551,0.00240
3654.74534,0.00235
3652.68516,0.00223
3650.62499,0.00257
3648.56482,0.00361
3646.50465,0.00430
3644.44447,0.00428
3642.38430,0.00429
3640.32413,0.00472
3638.26396,0.00526
3636.20379,0.00560
3634.14361,0.00579
3632.08344,0.00595
3630.02327,0.00615
3627.96310,0.00655
3625.90293,0.00690
3623.84275,0.00712
3621.78258,0.00757
3619.72241,0.00820
3617.66224,0.00852
3615.60207,0.00850
3613.54189,0.00856
3611.48172,0.00894
3609.42155,0.00922
3607.36138,0.00919
3605.30120,0.00916
3603.24103,0.00936
3601.18086,0.00971
3599.12069,0.00996
3597.06052,0.01025
3595.00034,0.01089
3592.94017,0.01164
3590.88000,0.01209
3588.81983,0.01240
3586.75966,0.01275
3584.69948,0.01294
3582.63931,0.01302
3580.57914,0.01342
3578.51897,0.01413
3576.45879,0.01461
3574.39862,0.01465
3572.33845,0.01467
3570.27828,0.01515
3568.21811,0.01610
3566.15793,0.01694
3564.09776,0.01709
3562.03759,0.01703
3559.97742,0.01730
3557.91725,0.01766
3555.85707,0.01785
3553.79690,0.01801
3551.73673,0.01820
3549.67656,0.01847
3547.61639,0.01898
3545.55621,0.01955
3543.49604,0.01972
3541.43587,0.01949
3539.37570,0.01940
3537.31552,0.01979
3535.25535,0.02042
3533.19518,0.02088
3531.13501,0.02121
3529.07484,0.02154
3527.01466,0.02174
3524.95449,0.02190
3522.89432,0.02222
3520.83415,0.02267
3518.77398,0.02317
3516.71380,0.02365
3514.65363,0.02409
3512.59346,0.02462
3510.53329,0.02504
3508.47312,0.02507
3506.41294,0.02481
3504.35277,0.02480
3502.29260,0.02540
3500.23243,0.02623
3498.17225,0.02671
3496.11208,0.02680
3494.05191,0.02685
3491.99174,0.02712
3489.93157,0.02753
3487.87139,0.02786
3485.81122,0.02802
3483.75105,0.02830
3481.69088,0.02884
3479.63071,0.02926
3477.57053,0.02944
3475.51036,0.02969
3473.45019,0.02994
3471.39002,0.02995
3469.32984,0.03004
3467.26967,0.03053
3465.20950,0.03099
3463.14933,0.03115
3461.08916,0.03127
3459.02898,0.03140
3456.96881,0.03153
3454.90864,0.03174
3452.84847,0.03214
3450.78830,0.03260
3448.72812,0.03273
3446.66795,0.03258
3444.60778,0.03270
3442.54761,0.03313
3440.48744,0.03346
3438.42726,0.03346
3436.36709,0.03343
3434.30692,0.03369
3432.24675,0.03414
3430.18657,0.03447
3428.12640,0.03472
3426.06623,0.03498
3424.00606,0.03515
3421.94589,0.03525
3419.88571,0.03550
3417.82554,0.03582
3415.76537,0.03592
3413.70520,0.03597
3411.64503,0.03613
3409.58485,0.03618
3407.52468,0.03634
3405.46451,0.03667
3403.40434,0.03684
3401.34416,0.03698
3399.28399,0.03721
3397.22382,0.03729
3395.16365,0.03738
3393.10348,0.03788
3391.04330,0.03841
3388.98313,0.03843
3386.92296,0.03825
3384.86279,0.03827
3382.80262,0.03838
3380.74244,0.03834
3378.68227,0.03826
3376.62210,0.03834
3374.56193,0.03850
3372.50176,0.03851
3370.44158,0.03842
3368.38141,0.03845
3366.32124,0.03873
3364.26107,0.03915
3362.20089,0.03934
3360.14072,0.03936
3358.08055,0.03958
3356.02038,0.03988
3353.96021,0.03997
3351.90003,0.03995
3349.83986,0.03994
3347.77969,0.03978
3345.71952,0.03951
3343.65935,0.03940
3341.59917,0.03953
3339.53900,0.03969
3337.47883,0.03973
3335.41866,0.03975
3333.35849,0.03986
3331.29831,0.04011
3329.23814,0.04027
3327.17797,0.04028
3325.11780,0.04038
3323.05762,0.04058
3320.99745,0.04062
3318.93728,0.04052
3316.87711,0.04044
3314.81694,0.04042
3312.75676,0.04037
3310.69659,0.04032
3308.63642,0.04035
3306.57625,0.04051
3304.51608,0.04062
3302.45590,0.04056
3300.39573,0.04064
3298.33556,0.04078
3296.27539,0.04065
3294.21521,0.04047
3292.15504,0.04052
3290.09487,0.04072
3288.03470,0.04098
3285.97453,0.04119
3283.91435,0.04125
3281.85418,0.04131
3279.79401,0.04140
3277.73384,0.04132
3275.67367,0.04112
3273.61349,0.04106
3271.55332,0.04122
3269.49315,0.04148
3267.43298,0.04160
3265.37281,0.04145
3263.31263,0.04123
3261.25246,0.04119
3259.19229,0.04130
3257.13212,0.04145
3255.07194,0.04161
3253.01177,0.04179
3250.95160,0.04200
3248.89143,0.04208
3246.83126,0.04191
3244.77108,0.04184
3242.71091,0.04199
3240.65074,0.04196
3238.59057,0.04180
3236.53040,0.04178
3234.47022,0.04172
3232.41005,0.04165
3230.34988,0.04181
3228.28971,0.04189
3226.22954,0.04182
3224.16936,0.04183
3222.10919,0.04181
3220.04902,0.04177
3217.98885,0.04167
3215.92867,0.04135
3213.86850,0.04107
3211.80833,0.04099
3209.74816,0.04102
3207.68799,0.04105
3205.62781,0.04105
3203.56764,0.04102
3201.50747,0.04103
3199.44730,0.04097
3197.38713,0.04092
3195.32695,0.04103
3193.26678,0.04118
3191.20661,0.04112
3189.14644,0.04081
3187.08626,0.04055
3185.02609,0.04036
3182.96592,0.04005
3180.90575,0.03979
3178.84558,0.03968
3176.78540,0.03964
3174.72523,0.03950
3172.66506,0.03937
3170.60489,0.03945
3168.54472,0.03951
3166.48454,0.03933
3164.42437,0.03908
3162.36420,0.03887
3160.30403,0.03873
3158.24386,0.03865
3156.18368,0.03855
3154.12351,0.03844
3152.06334,0.03846
3150.00317,0.03851
3147.94299,0.03850
3145.88282,0.03851
3143.82265,0.03846
3141.76248,0.03821
3139.70231,0.03797
3137.64213,0.03784
3135.58196,0.03752
3133.52179,0.03707
3131.46162,0.03684
3129.40145,0.03679
3127.34127,0.03673
3125.28110,0.03669
3123.22093,0.03663
3121.16076,0.03648
3119.10058,0.03630
3117.04041,0.03626
3114.98024,0.03638
3112.92007,0.03632
3110.85990,0.03586
3108.79972,0.03542
3106.73955,0.03549
3104.67938,0.03567
3102.61921,0.03525
3100.55904,0.03461
3098.49886,0.03433
3096.43869,0.03429
3094.37852,0.03422
3092.31835,0.03413
3090.25818,0.03404
3088.19800,0.03390
3086.13783,0.03376
3084.07766,0.03377
3082.01749,0.03382
3079.95731,0.03360
3077.89714,0.03325
3075.83697,0.03306
3073.77680,0.03287
3071.71663,0.03251
3069.65645,0.03222
3067.59628,0.03217
3065.53611,0.03222
3063.47594,0.03215
3061.41577,0.03188
3059.35559,0.03161
3057.29542,0.03135
3055.23525,0.03114
3053.17508,0.03117
3051.11491,0.03125
3049.05473,0.03097
3046.99456,0.03048
3044.93439,0.03017
3042.87422,0.03006
3040.81404,0.03001
3038.75387,0.02982
3036.69370,0.02948
3034.63353,0.02919
3032.57336,0.02906
3030.51318,0.02898
3028.45301,0.02876
3026.39284,0.02854
3024.33267,0.02850
3022.27250,0.02831
3020.21232,0.02792
3018.15215,0.02779
3016.09198,0.02803
3014.03181,0.02812
3011.97163,0.02778
3009.91146,0.02729
3007.85129,0.02702
3005.79112,0.02705
3003.73095,0.02708
3001.67077,0.02694
2999.61060,0.02680
2997.55043,0.02670
2995.49026,0.02655
2993.43009,0.02643
2991.36991,0.02615
2989.30974,0.02571
2987.24957,0.02545
2985.18940,0.02528
2983.12923,0.02505
2981.06905,0.02485
2979.00888,0.02466
2976.94871,0.02450
2974.88854,0.02454
2972.82836,0.02472
2970.76819,0.02477
2968.70802,0.02472
2966.64785,0.02469
2964.58768,0.02441
2962.52750,0.02399
2960.46733,0.02399
2958.40716,0.02423
2956.34699,0.02416
2954.28682,0.02392
2952.22664,0.02394
2950.16647,0.02416
2948.10630,0.02426
2946.04613,0.02421
2943.98596,0.02420
2941.92578,0.02431
2939.86561,0.02428
2937.80544,0.02410
2935.74527,0.02393
2933.68509,0.02378
2931.62492,0.02370
2929.56475,0.02371
2927.50458,0.02367
2925.44441,0.02346
2923.38423,0.02316
2921.32406,0.02293
2919.26389,0.02284
2917.20372,0.02268
2915.14355,0.02251
2913.08337,0.02252
2911.02320,0.02259
2908.96303,0.02241
2906.90286,0.02207
2904.84268,0.02197
2902.78251,0.02219
2900.72234,0.02238
2898.66217,0.02223
2896.60200,0.02198
2894.54182,0.02186
2892.48165,0.02160
2890.42148,0.02132
2888.36131,0.02141
2886.30114,0.02162
2884.24096,0.02167
2882.18079,0.02152
2880.12062,0.02124
2878.06045,0.02100
2876.00028,0.02087
2873.94010,0.02077
2871.87993,0.02068
2869.81976,0.02052
2867.75959,0.02031
2865.69941,0.02017
2863.63924,0.02006
2861.57907,0.02002
2859.51890,0.02011
2857.45873,0.02021
2855.39855,0.02024
2853.33838,0.02017
2851.27821,0.01999
2849.21804,0.01996
2847.15787,0.02012
2845.09769,0.01998
2843.03752,0.01946
2840.97735,0.01918
2838.91718,0.01925
2836.85700,0.01925
2834.79683,0.01899
2832.73666,0.01867
2830.67649,0.01848
2828.61632,0.01844
2826.55614,0.01845
2824.49597,0.01835
2822.43580,0.01816
2820.37563,0.01806
2818.31546,0.01804
2816.25528,0.01791
2814.19511,0.01772
2812.13494,0.01767
2810.07477,0.01764
2808.01460,0.01760
2805.95442,0.01754
2803.89425,0.01757
2801.83408,0.01768
2799.77391,0.01763
2797.71373,0.01756
2795.65356,0.01755
2793.59339,0.01742
2791.53322,0.01720
2789.47305,0.01698
2787.41287,0.01684
2785.35270,0.01673
2783.29253,0.01653
2781.23236,0.01621
2779.17219,0.01607
2777.11201,0.01631
2775.05184,0.01652
2772.99167,0.01624
2770.93150,0.01586
2768.87133,0.01580
2766.81115,0.01583
2764.75098,0.01574
2762.69081,0.01570
2760.63064,0.01564
2758.57046,0.01553
2756.51029,0.01549
2754.45012,0.01539
2752.38995,0.01522
2750.32978,0.01506
2748.26960,0.01499
2746.20943,0.01513
2744.14926,0.01519
2742.08909,0.01501
2740.02892,0.01491
2737.96874,0.01485
2735.90857,0.01463
2733.84840,0.01446
2731.78823,0.01437
2729.72805,0.01426
2727.66788,0.01419
2725.60771,0.01419
2723.54754,0.01419
2721.48737,0.01416
2719.42719,0.01407
2717.36702,0.01390
2715.30685,0.01372
2713.24668,0.01362
2711.18651,0.01357
2709.12633,0.01352
2707.06616,0.01345
2705.00599,0.01347
2702.94582,0.01358
2700.88565,0.01361
2698.82547,0.01344
2696.76530,0.01308
2694.70513,0.01275
2692.64496,0.01271
2690.58478,0.01271
2688.52461,0.01249
2686.46444,0.01236
2684.40427,0.01241
2682.34410,0.01240
2680.28392,0.01219
2678.22375,0.01194
2676.16358,0.01186
2674.10341,0.01185
2672.04324,0.01173
2669.98306,0.01153
2667.92289,0.01152
2665.86272,0.01169
2663.80255,0.01167
2661.74238,0.01149
2659.68220,0.01139
2657.62203,0.01127
2655.56186,0.01110
2653.50169,0.01095
2651.44151,0.01080
2649.38134,0.01069
2647.32117,0.01067
2645.26100,0.01064
2643.20083,0.01046
2641.14065,0.01017
2639.08048,0.00993
2637.02031,0.00985
2634.96014,0.00986
2632.89997,0.00996
2630.83979,0.01010
2628.77962,0.01014
2626.71945,0.00996
2624.65928,0.00963
2622.59910,0.00943
2620.53893,0.00941
2618.47876,0.00944
2616.41859,0.00943
2614.35842,0.00939
2612.29824,0.00936
2610.23807,0.00933
2608.17790,0.00927
2606.11773,0.00912
2604.05756,0.00902
2601.99738,0.00910
2599.93721,0.00921
2597.87704,0.00899
2595.81687,0.00851
2593.75670,0.00837
2591.69652,0.00859
2589.63635,0.00878
2587.57618,0.00905
2585.51601,0.00919
2583.45583,0.00882
2581.39566,0.00821
2579.33549,0.00785
2577.27532,0.00779
2575.21515,0.00778
2573.15497,0.00791
2571.09480,0.00819
2569.03463,0.00828
2566.97446,0.00804
2564.91429,0.00798
2562.85411,0.00832
2560.79394,0.00856
2558.73377,0.00860
2556.67360,0.00861
2554.61342,0.00840
2552.55325,0.00818
2550.49308,0.00838
2548.43291,0.00870
2546.37274,0.00866
2544.31256,0.00850
2542.25239,0.00849
2540.19222,0.00822
2538.13205,0.00786
2536.07188,0.00790
2534.01170,0.00808
2531.95153,0.00806
2529.89136,0.00800
2527.83119,0.00816
2525.77102,0.00828
2523.71084,0.00818
2521.65067,0.00804
2519.59050,0.00800
2517.53033,0.00797
2515.47015,0.00784
2513.40998,0.00780
2511.34981,0.00812
2509.28964,0.00867
2507.22947,0.00885
2505.16929,0.00847
2503.10912,0.00814
2501.04895,0.00819
2498.98878,0.00823
2496.92861,0.00801
2494.86843,0.00783
2492.80826,0.00785
2490.74809,0.00804
2488.68792,0.00827
2486.62775,0.00850
2484.56757,0.00863
2482.50740,0.00869
2480.44723,0.00897
2478.38706,0.00931
2476.32688,0.00940
2474.26671,0.00941
2472.20654,0.00940
2470.14637,0.00923
2468.08620,0.00915
2466.02602,0.00912
2463.96585,0.00907
2461.90568,0.00931
2459.84551,0.00948
2457.78534,0.00919
2455.72516,0.00897
2453.66499,0.00889
2451.60482,0.00860
2449.54465,0.00847
2447.48447,0.00879
2445.42430,0.00912
2443.36413,0.00917
2441.30396,0.00914
2439.24379,0.00934
2437.18361,0.00981
2435.12344,0.01007
2433.06327,0.00993
2431.00310,0.00959
2428.94293,0.00947
2426.88275,0.00977
2424.82258,0.00993
2422.76241,0.00972
2420.70224,0.00955
2418.64207,0.00941
2416.58189,0.00922
2414.52172,0.00926
2412.46155,0.00937
2410.40138,0.00928
2408.34120,0.00918
2406.28103,0.00920
2404.22086,0.00913
2402.16069,0.00889
2400.10052,0.00882
2398.04034,0.00859
2395.98017,0.00836
2393.92000,0.00833
2391.85983,0.00861
2389.79966,0.00897
2387.73948,0.00922
2385.67931,0.00938
2383.61914,0.00955
2381.55897,0.00980
2379.49880,0.01002
2377.43862,0.00987
2375.37845,0.00930
2373.31828,0.00826
2371.25811,0.00754
2369.19793,0.00849
2367.13776,0.01010
2365.07759,0.01043
2363.01742,0.01028
2360.95725,0.00907
2358.89707,0.00820
2356.83690,0.00838
2354.77673,0.00960
2352.71656,0.01021
2350.65639,0.00861
2348.59621,0.00759
2346.53604,0.01029
2344.47587,0.01100
2342.41570,0.00966
2340.35552,0.00818
2338.29535,0.00786
2336.23518,0.00887
2334.17501,0.00987
2332.11484,0.01016
2330.05466,0.00978
2327.99449,0.00960
2325.93432,0.00908
2323.87415,0.00909
2321.81398,0.00909
2319.75380,0.00911
2317.69363,0.00846
2315.63346,0.00829
2313.57329,0.00877
2311.51312,0.00914
2309.45294,0.00908
2307.39277,0.00891
2305.33260,0.00910
2303.27243,0.00933
2301.21225,0.00939
2299.15208,0.00926
2297.09191,0.00901
2295.03174,0.00858
2292.97157,0.00806
2290.91139,0.00781
2288.85122,0.00782
2286.79105,0.00785
2284.73088,0.00780
2282.67071,0.00768
2280.61053,0.00760
2278.55036,0.00754
2276.49019,0.00739
2274.43002,0.00731
2272.36984,0.00743
2270.30967,0.00732
2268.24950,0.00674
2266.18933,0.00631
2264.12916,0.00637
2262.06898,0.00658
2260.00881,0.00705
2257.94864,0.00769
2255.88847,0.00794
2253.82830,0.00775
2251.76812,0.00765
2249.70795,0.00773
2247.64778,0.00753
2245.58761,0.00669
2243.52744,0.00617
2241.46726,0.00644
2239.40709,0.00632
2237.34692,0.00570
2235.28675,0.00533
2233.22657,0.00528
2231.16640,0.00593
2229.10623,0.00693
2227.04606,0.00705
2224.98589,0.00648
2222.92571,0.00608
2220.86554,0.00585
2218.80537,0.00572
2216.74520,0.00572
2214.68503,0.00585
2212.62485,0.00613
2210.56468,0.00640
2208.50451,0.00651
2206.44434,0.00604
2204.38417,0.00523
2202.32399,0.00506
2200.26382,0.00499
2198.20365,0.00408
2196.14348,0.00322
2194.08330,0.00345
2192.02313,0.00403
2189.96296,0.00400
2187.90279,0.00366
2185.84262,0.00403
2183.78244,0.00561
2181.72227,0.00673
2179.66210,0.00637
2177.60193,0.00528
2175.54176,0.00374
2173.48158,0.00268
2171.42141,0.00243
2169.36124,0.00259
2167.30107,0.00358
2165.24089,0.00497
2163.18072,0.00542
2161.12055,0.00443
2159.06038,0.00306
2157.00021,0.00249
2154.94003,0.00258
2152.87986,0.00313
2150.81969,0.00413
2148.75952,0.00482
2146.69935,0.00486
2144.63917,0.00440
2142.57900,0.00419
2140.51883,0.00487
2138.45866,0.00532
2136.39849,0.00486
2134.33831,0.00415
2132.27814,0.00342
2130.21797,0.00308
2128.15780,0.00355
2126.09762,0.00440
2124.03745,0.00486
2121.97728,0.00467
2119.91711,0.00413
2117.85694,0.00379
2115.79676,0.00409
2113.73659,0.00486
2111.67642,0.00561
2109.61625,0.00550
2107.55608,0.00406
2105.49590,0.00297
2103.43573,0.00336
2101.37556,0.00402
2099.31539,0.00420
2097.25521,0.00397
2095.19504,0.00338
2093.13487,0.00282
2091.07470,0.00288
2089.01453,0.00333
2086.95435,0.00346
2084.89418,0.00358
2082.83401,0.00405
2080.77384,0.00437
2078.71367,0.00427
2076.65349,0.00371
2074.59332,0.00336
2072.53315,0.00387
2070.47298,0.00425
2068.41281,0.00428
2066.35263,0.00475
2064.29246,0.00518
2062.23229,0.00476
2060.17212,0.00353
2058.11194,0.00228
2056.05177,0.00186
2053.99160,0.00255
2051.93143,0.00366
2049.87126,0.00396
2047.81108,0.00368
2045.75091,0.00387
2043.69074,0.00399
2041.63057,0.00315
2039.57040,0.00215
2037.51022,0.00221
2035.45005,0.00340
2033.38988,0.00461
2031.32971,0.00514
2029.26954,0.00524
2027.20936,0.00535
2025.14919,0.00564
2023.08902,0.00473
2021.02885,0.00196
2018.96867,0.00000
2016.90850,0.00060
2014.84833,0.00196
2012.78816,0.00266
2010.72799,0.00298
2008.66781,0.00298
2006.60764,0.00250
2004.54747,0.00225
2002.48730,0.00278
2000.42713,0.00319
1998.36695,0.00331
1996.30678,0.00370
1994.24661,0.00361
1992.18644,0.00240
1990.12626,0.00112
1988.06609,0.00083
1986.00592,0.00122
1983.94575,0.00184
1981.88558,0.00213
1979.82540,0.00180
1977.76523,0.00163
1975.70506,0.00158
1973.64489,0.00154
1971.58472,0.00219
1969.52454,0.00268
1967.46437,0.00258
1965.40420,0.00298
1963.34403,0.00318
1961.28386,0.00207
1959.22368,0.00064
1957.16351,0.00021
1955.10334,0.00040
1953.04317,0.00051
1950.98299,0.00103
1948.92282,0.00175
1946.86265,0.00199
1944.80248,0.00220
1942.74231,0.00242
1940.68213,0.00194
1938.62196,0.00104
1936.56179,0.00051
1934.50162,0.00050
1932.44145,0.00083
1930.38127,0.00127
1928.32110,0.00164
1926.26093,0.00210
1924.20076,0.00275
1922.14059,0.00280
1920.08041,0.00196
1918.02024,0.00111
1915.96007,0.00081
1913.89990,0.00089
1911.83972,0.00125
1909.77955,0.00186
1907.71938,0.00239
1905.65921,0.00261
1903.59904,0.00247
1901.53886,0.00210
1899.47869,0.00211
1897.41852,0.00264
1895.35835,0.00287
1893.29818,0.00232
1891.23800,0.00150
1889.17783,0.00114
1887.11766,0.00127
1885.05749,0.00152
1882.99731,0.00176
1880.93714,0.00185
1878.87697,0.00187
1876.81680,0.00190
1874.75663,0.00185
1872.69645,0.00175
1870.63628,0.00180
1868.57611,0.00204
1866.51594,0.00228
1864.45577,0.00235
1862.39559,0.00232
1860.33542,0.00229
1858.27525,0.00229
1856.21508,0.00220
1854.15491,0.00201
1852.09473,0.00202
1850.03456,0.00238
1847.97439,0.00282
1845.91422,0.00313
1843.85404,0.00322
1841.79387,0.00290
1839.73370,0.00241
1837.67353,0.00231
1835.61336,0.00242
1833.55318,0.00229
1831.49301,0.00200
1829.43284,0.00196
1827.37267,0.00226
1825.31250,0.00261
1823.25232,0.00276
1821.19215,0.00284
1819.13198,0.00280
1817.07181,0.00253
1815.01163,0.00223
1812.95146,0.00207
1810.89129,0.00209
1808.83112,0.00229
1806.77095,0.00248
1804.71077,0.00250
1802.65060,0.00254
1800.59043,0.00270
1798.53026,0.00281
1796.47009,0.00283
1794.40991,0.00292
1792.34974,0.00312
1790.28957,0.00326
1788.22940,0.00328
1786.16923,0.00336
1784.10905,0.00342
1782.04888,0.00330
1779.98871,0.00313
1777.92854,0.00314
1775.86836,0.00322
1773.80819,0.00319
1771.74802,0.00323
1769.68785,0.00335
1767.62768,0.00333
1765.56750,0.00321
1763.50733,0.00320
1761.44716,0.00332
1759.38699,0.00341
1757.32682,0.00345
1755.26664,0.00358
1753.20647,0.00385
1751.14630,0.00431
1749.08613,0.00475
1747.02596,0.00495
1744.96578,0.00497
1742.90561,0.00491
1740.84544,0.00475
1738.78527,0.00461
1736.72509,0.00472
1734.66492,0.00526
1732.60475,0.00583
1730.54458,0.00580
1728.48441,0.00540
1726.42423,0.00516
1724.36406,0.00523
1722.30389,0.00539
1720.24372,0.00551
1718.18355,0.00587
1716.12337,0.00645
1714.06320,0.00667
1712.00303,0.00666
1709.94286,0.00674
1707.88268,0.00689
1705.82251,0.00700
1703.76234,0.00700
1701.70217,0.00689
1699.64200,0.00696
1697.58182,0.00747
1695.52165,0.00826
1693.46148,0.00892
1691.40131,0.00931
1689.34114,0.00959
1687.28096,0.00977
1685.22079,0.00981
1683.16062,0.00982
1681.10045,0.01001
1679.04028,0.01041
1676.98010,0.01091
1674.91993,0.01152
1672.85976,0.01198
1670.79959,0.01218
1668.73941,0.01237
1666.67924,0.01267
1664.61907,0.01295
1662.55890,0.01312
1660.49873,0.01315
1658.43855,0.01314
1656.37838,0.01331
1654.31821,0.01372
1652.25804,0.01401
1650.19787,0.01381
1648.13769,0.01349
1646.07752,0.01335
1644.01735,0.01336
1641.95718,0.01331
1639.89701,0.01325
1637.83683,0.01330
1635.77666,0.01337
1633.71649,0.01321
1631.65632,0.01289
1629.59614,0.01256
1627.53597,0.01217
1625.47580,0.01180
1623.41563,0.01167
1621.35546,0.01175
1619.29528,0.01173
1617.23511,0.01148
1615.17494,0.01118
1613.11477,0.01105
1611.05460,0.01105
1608.99442,0.01097
1606.93425,0.01072
1604.87408,0.01054
1602.81391,0.01048
1600.75373,0.01034
1598.69356,0.01002
1596.63339,0.00960
1594.57322,0.00924
1592.51305,0.00903
1590.45287,0.00889
1588.39270,0.00865
1586.33253,0.00832
1584.27236,0.00798
1582.21219,0.00767
1580.15201,0.00737
1578.09184,0.00708
1576.03167,0.00674
1573.97150,0.00641
1571.91133,0.00620
1569.85115,0.00612
1567.79098,0.00607
1565.73081,0.00587
1563.67064,0.00551
1561.61046,0.00513
1559.55029,0.00488
1557.49012,0.00497
1555.42995,0.00519
1553.36978,0.00503
1551.30960,0.00463
1549.24943,0.00443
1547.18926,0.00451
1545.12909,0.00454
1543.06892,0.00424
1541.00874,0.00384
1538.94857,0.00375
1536.88840,0.00370
1534.82823,0.00356
1532.76805,0.00339
1530.70788,0.00322
1528.64771,0.00315
1526.58754,0.00330
1524.52737,0.00355
1522.46719,0.00359
1520.40702,0.00324
1518.34685,0.00289
1516.28668,0.00282
1514.22651,0.00282
1512.16633,0.00275
1510.10616,0.00272
1508.04599,0.00272
1505.98582,0.00262
1503.92565,0.00244
1501.86547,0.00223
1499.80530,0.00205
1497.74513,0.00203
1495.68496,0.00212
1493.62478,0.00220
1491.56461,0.00236
1489.50444,0.00252
1487.44427,0.00241
1485.38410,0.00210
1483.32392,0.00189
1481.26375,0.00186
1479.20358,0.00193
1477.14341,0.00207
1475.08324,0.00223
1473.02306,0.00225
1470.96289,0.00219
1468.90272,0.00223
1466.84255,0.00236
1464.78238,0.00243
1462.72220,0.00240
1460.66203,0.00252
1458.60186,0.00296
1456.54169,0.00331
1454.48151,0.00312
1452.42134,0.00274
1450.36117,0.00257
1448.30100,0.00258
1446.24083,0.00251
1444.18065,0.00231
1442.12048,0.00214
1440.06031,0.00218
1438.00014,0.00252
1435.93997,0.00284
1433.87979,0.00270
1431.81962,0.00238
1429.75945,0.00233
1427.69928,0.00257
1425.63910,0.00278
1423.57893,0.00279
1421.51876,0.00278
1419.45859,0.00301
1417.39842,0.00337
1415.33824,0.00337
1413.27807,0.00302
1411.21790,0.00270
1409.15773,0.00255
1407.09756,0.00248
1405.03738,0.00243
1402.97721,0.00238
1400.91704,0.00234
1398.85687,0.00237
1396.79670,0.00244
1394.73652,0.00240
1392.67635,0.00224
1390.61618,0.00219
1388.55601,0.00232
1386.49583,0.00242
1384.43566,0.00228
1382.37549,0.00210
1380.31532,0.00212
1378.25515,0.00226
1376.19497,0.00240
1374.13480,0.00244
1372.07463,0.00234
1370.01446,0.00224
1367.95429,0.00218
1365.89411,0.00209
1363.83394,0.00198
1361.77377,0.00184
1359.71360,0.00166
1357.65343,0.00152
1355.59325,0.00152
1353.53308,0.00160
1351.47291,0.00159
1349.41274,0.00140
1347.35256,0.00123
1345.29239,0.00127
1343.23222,0.00149
1341.17205,0.00170
1339.11188,0.00175
1337.05170,0.00164
1334.99153,0.00154
1332.93136,0.00150
1330.87119,0.00149
1328.81102,0.00147
1326.75084,0.00146
1324.69067,0.00145
1322.63050,0.00139
1320.57033,0.00138
1318.51015,0.00155
1316.44998,0.00173
1314.38981,0.00167
1312.32964,0.00148
1310.26947,0.00145
1308.20929,0.00157
1306.14912,0.00165
1304.08895,0.00161
1302.02878,0.00160
1299.96861,0.00176
1297.90843,0.00198
1295.84826,0.00213
1293.78809,0.00225
1291.72792,0.00235
1289.66775,0.00239
1287.60757,0.00230
1285.54740,0.00216
1283.48723,0.00225
1281.42706,0.00248
1279.36688,0.00248
1277.30671,0.00233
1275.24654,0.00229
1273.18637,0.00240
1271.12620,0.00256
1269.06602,0.00272
1267.00585,0.00287
1264.94568,0.00289
1262.88551,0.00275
1260.82534,0.00259
1258.76516,0.00255
1256.70499,0.00255
1254.64482,0.00252
1252.58465,0.00249
1250.52447,0.00249
1248.46430,0.00241
1246.40413,0.00225
1244.34396,0.00222
1242.28379,0.00233
1240.22361,0.00224
1238.16344,0.00184
1236.10327,0.00149
1234.04310,0.00145
1231.98293,0.00154
1229.92275,0.00150
1227.86258,0.00134
1225.80241,0.00121
1223.74224,0.00102
1221.68207,0.00077
1219.62189,0.00060
1217.56172,0.00045
1215.50155,0.00025
1213.44138,0.00022
1211.38120,0.00033
1209.32103,0.00041
1207.26086,0.00045
1205.20069,0.00049
1203.14052,0.00050
1201.08034,0.00036
1199.02017,0.00010
1196.96000,0.00000
1194.89983,0.00016
1192.83966,0.00049
1190.77948,0.00085
1188.71931,0.00121
1186.65914,0.00152
1184.59897,0.00179
1182.53880,0.00215
1180.47862,0.00267
1178.41845,0.00323
1176.35828,0.00380
1174.29811,0.00447
1172.23793,0.00513
1170.17776,0.00570
1168.11759,0.00631
1166.05742,0.00704
1163.99725,0.00775
1161.93707,0.00835
1159.87690,0.00886
1157.81673,0.00929
1155.75656,0.00984
1153.69639,0.01064
1151.63621,0.01141
1149.57604,0.01207
1147.51587,0.01275
1145.45570,0.01337
1143.39552,0.01405
1141.33535,0.01489
1139.27518,0.01565
1137.21501,0.01654
1135.15484,0.01772
1133.09466,0.01870
1131.03449,0.01938
1128.97432,0.02030
1126.91415,0.02151
1124.85398,0.02250
1122.79380,0.02335
1120.73363,0.02433
1118.67346,0.02540
1116.61329,0.02650
1114.55312,0.02753
1112.49294,0.02840
1110.43277,0.02935
1108.37260,0.03060
1106.31243,0.03196
1104.25225,0.03305
1102.19208,0.03398
1100.13191,0.03487
1098.07174,0.03566
1096.01157,0.03657
1093.95139,0.03765
1091.89122,0.03873
1089.83105,0.03970
1087.77088,0.04045
1085.71071,0.04111
1083.65053,0.04176
1081.59036,0.04246
1079.53019,0.04312
1077.47002,0.04367
1075.40985,0.04413
1073.34967,0.04457
1071.28950,0.04492
1069.22933,0.04505
1067.16916,0.04486
1065.10898,0.04449
1063.04881,0.04421
1060.98864,0.04393
1058.92847,0.04356
1056.86830,0.04310
1054.80812,0.04230
1052.74795,0.04142
1050.68778,0.04073
1048.62761,0.03997
1046.56744,0.03899
1044.50726,0.03788
1042.44709,0.03660
1040.38692,0.03527
1038.32675,0.03420
1036.26657,0.03344
1034.20640,0.03265
1032.14623,0.03161
1030.08606,0.03054
1028.02589,0.02969
1025.96571,0.02889
1023.90554,0.02792
1021.84537,0.02705
1019.78520,0.02645
1017.72503,0.02591
1015.66485,0.02532
1013.60468,0.02476
1011.54451,0.02440
1009.48434,0.02431
1007.42417,0.02423
1005.36399,0.02403
1003.30382,0.02411
1001.24365,0.02461
999.18348,0.02526
997.12330,0.02598
995.06313,0.02674
993.00296,0.02740
990.94279,0.02816
988.88262,0.02902
986.82244,0.02953
984.76227,0.02975
982.70210,0.02999
980.64193,0.02983
978.58176,0.02912
976.52158,0.02833
974.46141,0.02765
972.40124,0.02685
970.34107,0.02577
968.28089,0.02446
966.22072,0.02305
964.16055,0.02183
962.10038,0.02083
960.04021,0.01994
957.98003,0.01933
955.91986,0.01874
953.85969,0.01794
951.79952,0.01715
949.73935,0.01651
947.67917,0.01595
945.61900,0.01553
943.55883,0.01530
941.49866,0.01501
939.43849,0.01453
937.37831,0.01418
935.31814,0.01412
933.25797,0.01405
931.19780,0.01384
929.13762,0.01357
927.07745,0.01323
925.01728,0.01288
922.95711,0.01251
920.89694,0.01227
918.83676,0.01232
916.77659,0.01218
914.71642,0.01155
912.65625,0.01092
910.59608,0.01074
908.53590,0.01054
906.47573,0.01002
904.41556,0.00972
902.35539,0.00989
900.29522,0.01012
898.23504,0.01015
896.17487,0.01011
894.11470,0.01004
892.05453,0.01003
889.99435,0.01024
887.93418,0.01047
885.87401,0.01073
883.81384,0.01115
881.75367,0.01171
879.69349,0.01245
877.63332,0.01291
875.57315,0.01294
873.51298,0.01302
871.45281,0.01309
869.39263,0.01310
867.33246,0.01333
865.27229,0.01370
863.21212,0.01405
861.15194,0.01424
859.09177,0.01407
857.03160,0.01365
854.97143,0.01334
852.91126,0.01311
850.85108,0.01275
848.79091,0.01239
846.73074,0.01181
844.67057,0.01094
842.61040,0.01026
840.55022,0.00986
838.49005,0.00942
836.42988,0.00903
834.36971,0.00869
832.30954,0.00818
830.24936,0.00770
828.18919,0.00731
826.12902,0.00674
824.06885,0.00622
822.00867,0.00607
819.94850,0.00598
817.88833,0.00546
815.82816,0.00471
813.76799,0.00417
811.70781,0.00408
809.64764,0.00435
807.58747,0.00457
805.52730,0.00451
803.46713,0.00425
801.40695,0.00398
799.34678,0.00379
797.28661,0.00351
795.22644,0.00308
793.16627,0.00300
791.10609,0.00340
789.04592,0.00369
786.98575,0.00349
784.92558,0.00300
782.86540,0.00254
780.80523,0.00224
778.74506,0.00244
776.68489,0.00287
774.62472,0.00294
772.56454,0.00273
770.50437,0.00248
768.44420,0.00223
766.38403,0.00214
764.32386,0.00222
762.26368,0.00208
760.20351,0.00161
758.14334,0.00106
756.08317,0.00088
754.02299,0.00132
751.96282,0.00179
749.90265,0.00166
747.84248,0.00140
745.78231,0.00164
743.72213,0.00207
741.66196,0.00212
739.60179,0.00168
737.54162,0.00120
735.48145,0.00091
733.42127,0.00086
731.36110,0.00114
729.30093,0.00145
727.24076,0.00174
725.18059,0.00196
723.12041,0.00170
721.06024,0.00160
719.00007,0.00142
716.93990,0.00135
714.87972,0.00151
712.81955,0.00179
710.75938,0.00179
708.69921,0.00153
706.63904,0.00151
704.57886,0.00161
702.51869,0.00144
700.45852,0.00128
698.39835,0.00134
696.33818,0.00123
694.27800,0.00083
692.21783,0.00058
690.15766,0.00064
688.09749,0.00086
686.03731,0.00111
683.97714,0.00124
681.91697,0.00112
679.85680,0.00083
677.79663,0.00075
675.73645,0.00106
673.67628,0.00090
671.61611,0.00000
669.55594,0.00260
667.49577,0.00601
665.43559,0.00066
663.37542,0.00105
661.31525,0.00249
659.25508,0.00316
657.19491,0.00333
655.13473,0.00302
653.07456,0.00272
651.01439,0.00277
648.95422,0.00286
646.89404,0.00237
644.83387,0.00167
642.77370,0.00123
640.71353,0.00127
638.65336,0.00160
636.59318,0.00214
634.53301,0.00203
632.47284,0.00078
630.41267,0.00041
628.35250,0.00183
626.29232,0.00251
624.23215,0.00119
622.17198,0.00029
620.11181,0.00139
618.05164,0.00238
615.99146,0.00154
613.93129,0.00154
611.87112,0.00400
609.81095,0.00575
607.75077,0.00471
605.69060,0.00334
603.63043,0.00228
601.57026,0.00057
599.51009,0.00000
