3996.73391,0.00136
3994.67373,0.00110
3992.61356,0.00085
3990.55339,0.00096
3988.49322,0.00131
3986.43305,0.00145
3984.37287,0.00132
3982.31270,0.00131
3980.25253,0.00135
3978.19236,0.00104
3976.13219,0.00061
3974.07201,0.00060
3972.01184,0.00075
3969.95167,0.00051
3967.89150,0.00010
3965.83133,0.00000
3963.77115,0.00033
3961.71098,0.00088
3959.65081,0.00111
3957.59064,0.00097
3955.53046,0.00077
3953.47029,0.00054
3951.41012,0.00038
3949.34995,0.00041
3947.28978,0.00044
3945.22960,0.00046
3943.16943,0.00056
3941.10926,0.00062
3939.04909,0.00061
3936.98892,0.00070
3934.92874,0.00086
3932.86857,0.00089
3930.80840,0.00075
3928.74823,0.00055
3926.68805,0.00051
3924.62788,0.00074
3922.56771,0.00102
3920.50754,0.00116
3918.44737,0.00133
3916.38719,0.00147
3914.32702,0.00139
3912.26685,0.00128
3910.20668,0.00131
3908.14651,0.00123
3906.08633,0.00085
3904.02616,0.00050
3901.96599,0.00055
3899.90582,0.00079
3897.84565,0.00080
3895.78547,0.00072
3893.72530,0.00084
3891.66513,0.00111
3889.60496,0.00135
3887.54478,0.00136
3885.48461,0.00116
3883.42444,0.00097
3881.36427,0.00088
3879.30410,0.00080
3877.24392,0.00059
3875.18375,0.00026
3873.12358,0.00000
3871.06341,0.00002
3869.00324,0.00043
3866.94306,0.00091
3864.88289,0.00115
3862.82272,0.00117
3860.76255,0.00100
3858.70237,0.00072
3856.64220,0.00075
3854.58203,0.00134
3852.52186,0.00172
3850.46169,0.00127
3848.40151,0.00065
3846.34134,0.00027
3844.28117,0.00026
3842.22100,0.00059
3840.16083,0.00095
3838.10065,0.00112
3836.04048,0.00100
3833.98031,0.00064
3831.92014,0.00032
3829.85997,0.00021
3827.79979,0.00018
3825.73962,0.00003
3823.67945,0.00001
3821.61928,0.00038
3819.55910,0.00078
3817.49893,0.00078
3815.43876,0.00055
3813.37859,0.00033
3811.31842,0.00024
3809.25824,0.00033
3807.19807,0.00058
3805.13790,0.00092
3803.07773,0.00133
3801.01756,0.00163
3798.95738,0.00138
3796.89721,0.00089
3794.83704,0.00077
3792.77687,0.00088
3790.71670,0.00082
3788.65652,0.00057
3786.59635,0.00041
3784.53618,0.00054
3782.47601,0.00089
3780.41583,0.00120
3778.35566,0.00110
3776.29549,0.00068
3774.23532,0.00039
3772.17515,0.00035
3770.11497,0.00047
3768.05480,0.00084
3765.99463,0.00134
3763.93446,0.00155
3761.87429,0.00154
3759.81411,0.00165
3757.75394,0.00156
3755.69377,0.00111
3753.63360,0.00081
3751.57342,0.00064
3749.51325,0.00033
3747.45308,0.00013
3745.39291,0.00012
3743.33274,0.00023
3741.27256,0.00028
3739.21239,0.00028
3737.15222,0.00065
3735.09205,0.00127
3733.03188,0.00144
3730.97170,0.00112
3728.91153,0.00073
3726.85136,0.00049
3724.79119,0.00076
3722.73102,0.00147
3720.67084,0.00175
3718.61067,0.00130
3716.55050,0.00058
3714.49033,0.00007
3712.43015,0.00000
3710.36998,0.00039
3708.30981,0.00107
3706.24964,0.00148
3704.18947,0.00157
3702.12929,0.00154
3700.06912,0.00160
3698.00895,0.00174
3695.94878,0.00176
3693.88861,0.00176
3691.82843,0.00180
3689.76826,0.00193
3687.70809,0.00199
3685.64792,0.00191
3683.58775,0.00187
3681.52757,0.00193
3679.46740,0.00187
3677.40723,0.00164
3675.34706,0.00138
3673.28688,0.00143
3671.22671,0.00186
3669.16654,0.00238
3667.10637,0.00271
3665.04620,0.00288
3662.98602,0.00288
3660.92585,0.00285
3658.86568,0.00309
3656.80551,0.00355
3654.74534,0.00402
3652.68516,0.00451
3650.62499,0.00499
3648.56482,0.00548
3646.50465,0.00596
3644.44447,0.00620
3642.38430,0.00614
3640.32413,0.00599
3638.26396,0.00613
3636.20379,0.00670
3634.14361,0.00754
3632.08344,0.00815
3630.02327,0.00844
3627.96310,0.00897
3625.90293,0.00965
3623.84275,0.00993
3621.78258,0.01010
3619.72241,0.01050
3617.66224,0.01091
3615.60207,0.01103
3613.54189,0.01114
3611.48172,0.01156
3609.42155,0.01221
3607.36138,0.01311
3605.30120,0.01402
3603.24103,0.01462
3601.18086,0.01486
3599.12069,0.01450
3597.06052,0.01389
3595.00034,0.01418
3592.94017,0.01561
3590.88000,0.01684
3588.81983,0.01721
3586.75966,0.01721
3584.69948,0.01731
3582.63931,0.01760
3580.57914,0.01808
3578.51897,0.01856
3576.45879,0.01900
3574.39862,0.01944
3572.33845,0.01977
3570.27828,0.01985
3568.21811,0.01984
3566.15793,0.02046
3564.09776,0.02167
3562.03759,0.02245
3559.97742,0.02247
3557.91725,0.02234
3555.85707,0.02264
3553.79690,0.02335
3551.73673,0.02418
3549.67656,0.02479
3547.61639,0.02506
3545.55621,0.02541
3543.49604,0.02598
3541.43587,0.02642
3539.37570,0.02674
3537.31552,0.02722
3535.25535,0.02769
3533.19518,0.02790
3531.13501,0.02809
3529.07484,0.02857
3527.01466,0.02911
3524.95449,0.02961
3522.89432,0.03030
3520.83415,0.03094
3518.77398,0.03128
3516.71380,0.03150
3514.65363,0.03172
3512.59346,0.03190
3510.53329,0.03220
3508.47312,0.03261
3506.41294,0.03290
3504.35277,0.03311
3502.29260,0.03343
3500.23243,0.03389
3498.17225,0.03440
3496.11208,0.03493
3494.05191,0.03546
3491.99174,0.03588
3489.93157,0.03620
3487.87139,0.03659
3485.81122,0.03695
3483.75105,0.03721
3481.69088,0.03770
3479.63071,0.03831
3477.57053,0.03842
3475.51036,0.03822
3473.45019,0.03832
3471.39002,0.03879
3469.32984,0.03934
3467.26967,0.03983
3465.20950,0.04021
3463.14933,0.04049
3461.08916,0.04095
3459.02898,0.04159
3456.96881,0.04196
3454.90864,0.04209
3452.84847,0.04249
3450.78830,0.04283
3448.72812,0.04272
3446.66795,0.04278
3444.60778,0.04304
3442.54761,0.04315
3440.48744,0.04337
3438.42726,0.04363
3436.36709,0.04393
3434.30692,0.04445
3432.24675,0.04482
3430.18657,0.04497
3428.12640,0.04538
3426.06623,0.04590
3424.00606,0.04610
3421.94589,0.04609
3419.88571,0.04618
3417.82554,0.04647
3415.76537,0.04681
3413.70520,0.04721
3411.64503,0.04762
3409.58485,0.04773
3407.52468,0.04754
3405.46451,0.04750
3403.40434,0.04772
3401.34416,0.04788
3399.28399,0.04795
3397.22382,0.04815
3395.16365,0.04837
3393.10348,0.04859
3391.04330,0.04897
3388.98313,0.04932
3386.92296,0.04935
3384.86279,0.04934
3382.80262,0.04955
3380.74244,0.04986
3378.68227,0.05019
3376.62210,0.05055
3374.56193,0.05080
3372.50176,0.05064
3370.44158,0.05031
3368.38141,0.05025
3366.32124,0.05058
3364.26107,0.05116
3362.20089,0.05152
3360.14072,0.05144
3358.08055,0.05124
3356.02038,0.05114
3353.96021,0.05118
3351.90003,0.05136
3349.83986,0.05150
3347.77969,0.05149
3345.71952,0.05140
3343.65935,0.05141
3341.59917,0.05162
3339.53900,0.05184
3337.47883,0.05191
3335.41866,0.05190
3333.35849,0.05187
3331.29831,0.05185
3329.23814,0.05191
3327.17797,0.05210
3325.11780,0.05220
3323.05762,0.05221
3320.99745,0.05234
3318.93728,0.05262
3316.87711,0.05282
3314.81694,0.05274
3312.75676,0.05255
3310.69659,0.05241
3308.63642,0.05245
3306.57625,0.05266
3304.51608,0.05267
3302.45590,0.05254
3300.39573,0.05257
3298.33556,0.05281
3296.27539,0.05299
3294.21521,0.05287
3292.15504,0.05285
3290.09487,0.05320
3288.03470,0.05340
3285.97453,0.05323
3283.91435,0.05310
3281.85418,0.05328
3279.79401,0.05371
3277.73384,0.05393
3275.67367,0.05363
3273.61349,0.05328
3271.55332,0.05330
3269.49315,0.05350
3267.43298,0.05369
3265.37281,0.05375
3263.31263,0.05367
3261.25246,0.05366
3259.19229,0.05381
3257.13212,0.05396
3255.07194,0.05407
3253.01177,0.05415
3250.95160,0.05393
3248.89143,0.05354
3246.83126,0.05334
3244.77108,0.05334
3242.71091,0.05334
3240.65074,0.05324
3238.59057,0.05316
3236.53040,0.05329
3234.47022,0.05344
3232.41005,0.05353
3230.34988,0.05373
3228.28971,0.05401
3226.22954,0.05412
3224.16936,0.05395
3222.10919,0.05362
3220.04902,0.05337
3217.98885,0.05331
3215.92867,0.05339
3213.86850,0.05344
3211.80833,0.05343
3209.74816,0.05337
3207.68799,0.05327
3205.62781,0.05316
3203.56764,0.05293
3201.50747,0.05258
3199.44730,0.05247
3197.38713,0.05258
3195.32695,0.05253
3193.26678,0.05232
3191.20661,0.05220
3189.14644,0.05227
3187.08626,0.05241
3185.02609,0.05240
3182.96592,0.05213
3180.90575,0.05188
3178.84558,0.05178
3176.78540,0.05160
3174.72523,0.05141
3172.66506,0.05145
3170.60489,0.05141
3168.54472,0.05116
3166.48454,0.05088
3164.42437,0.05064
3162.36420,0.05052
3160.30403,0.05042
3158.24386,0.05012
3156.18368,0.04975
3154.12351,0.04942
3152.06334,0.04916
3150.00317,0.04908
3147.94299,0.04911
3145.88282,0.04914
3143.82265,0.04910
3141.76248,0.04886
3139.70231,0.04870
3137.64213,0.04879
3135.58196,0.04872
3133.52179,0.04830
3131.46162,0.04792
3129.40145,0.04769
3127.34127,0.04740
3125.28110,0.04725
3123.22093,0.04733
3121.16076,0.04737
3119.10058,0.04725
3117.04041,0.04687
3114.98024,0.04636
3112.92007,0.04608
3110.85990,0.04607
3108.79972,0.04598
3106.73955,0.04574
3104.67938,0.04561
3102.61921,0.04559
3100.55904,0.04538
3098.49886,0.04506
3096.43869,0.04478
3094.37852,0.04444
3092.31835,0.04407
3090.25818,0.04394
3088.19800,0.04372
3086.13783,0.04320
3084.07766,0.04295
3082.01749,0.04310
3079.95731,0.04313
3077.89714,0.04292
3075.83697,0.04259
3073.77680,0.04215
3071.71663,0.04193
3069.65645,0.04207
3067.59628,0.04204
3065.53611,0.04157
3063.47594,0.04116
3061.41577,0.04107
3059.35559,0.04092
3057.29542,0.04058
3055.23525,0.04015
3053.17508,0.03973
3051.11491,0.03949
3049.05473,0.03946
3046.99456,0.03953
3044.93439,0.03957
3042.87422,0.03950
3040.81404,0.03917
3038.75387,0.03870
3036.69370,0.03833
3034.63353,0.03796
3032.57336,0.03755
3030.51318,0.03734
3028.45301,0.03733
3026.39284,0.03723
3024.33267,0.03697
3022.27250,0.03664
3020.21232,0.03631
3018.15215,0.03616
3016.09198,0.03618
3014.03181,0.03599
3011.97163,0.03557
3009.91146,0.03529
3007.85129,0.03516
3005.79112,0.03497
3003.73095,0.03475
3001.67077,0.03448
2999.61060,0.03418
2997.55043,0.03391
2995.49026,0.03367
2993.43009,0.03345
2991.36991,0.03325
2989.30974,0.03315
2987.24957,0.03319
2985.18940,0.03316
2983.12923,0.03283
2981.06905,0.03249
2979.00888,0.03230
2976.94871,0.03210
2974.88854,0.03198
2972.82836,0.03185
2970.76819,0.03163
2968.70802,0.03140
2966.64785,0.03132
2964.58768,0.03157
2962.52750,0.03196
2960.46733,0.03214
2958.40716,0.03217
2956.34699,0.03215
2954.28682,0.03195
2952.22664,0.03174
2950.16647,0.03161
2948.10630,0.03143
2946.04613,0.03127
2943.98596,0.03130
2941.92578,0.03137
2939.86561,0.03122
2937.80544,0.03098
2935.74527,0.03091
2933.68509,0.03091
2931.62492,0.03084
2929.56475,0.03066
2927.50458,0.03033
2925.44441,0.03004
2923.38423,0.02996
2921.32406,0.02992
2919.26389,0.02982
2917.20372,0.02975
2915.14355,0.02967
2913.08337,0.02950
2911.02320,0.02934
2908.96303,0.02920
2906.90286,0.02890
2904.84268,0.02863
2902.78251,0.02860
2900.72234,0.02861
2898.66217,0.02850
2896.60200,0.02835
2894.54182,0.02829
2892.48165,0.02829
2890.42148,0.02820
2888.36131,0.02802
2886.30114,0.02801
2884.24096,0.02824
2882.18079,0.02832
2880.12062,0.02795
2878.06045,0.02753
2876.00028,0.02739
2873.94010,0.02720
2871.87993,0.02687
2869.81976,0.02671
2867.75959,0.02675
2865.69941,0.02676
2863.63924,0.02667
2861.57907,0.02661
2859.51890,0.02653
2857.45873,0.02630
2855.39855,0.02592
2853.33838,0.02545
2851.27821,0.02527
2849.21804,0.02555
2847.15787,0.02575
2845.09769,0.02545
2843.03752,0.02507
2840.97735,0.02493
2838.91718,0.02481
2836.85700,0.02457
2834.79683,0.02434
2832.73666,0.02418
2830.67649,0.02412
2828.61632,0.02415
2826.55614,0.02418
2824.49597,0.02414
2822.43580,0.02396
2820.37563,0.02366
2818.31546,0.02349
2816.25528,0.02344
2814.19511,0.02325
2812.13494,0.02315
2810.07477,0.02319
2808.01460,0.02308
2805.95442,0.02289
2803.89425,0.02272
2801.83408,0.02249
2799.77391,0.02235
2797.71373,0.02234
2795.65356,0.02230
2793.59339,0.02223
2791.53322,0.02203
2789.47305,0.02182
2787.41287,0.02175
2785.35270,0.02167
2783.29253,0.02164
2781.23236,0.02169
2779.17219,0.02164
2777.11201,0.02160
2775.05184,0.02149
2772.99167,0.02112
2770.93150,0.02073
2768.87133,0.02052
2766.81115,0.02042
2764.75098,0.02036
2762.69081,0.02040
2760.63064,0.02045
2758.57046,0.02022
2756.51029,0.01975
2754.45012,0.01943
2752.38995,0.01952
2750.32978,0.01992
2748.26960,0.02017
2746.20943,0.01990
2744.14926,0.01935
2742.08909,0.01907
2740.02892,0.01908
2737.96874,0.01908
2735.90857,0.01903
2733.84840,0.01893
2731.78823,0.01876
2729.72805,0.01863
2727.66788,0.01857
2725.60771,0.01853
2723.54754,0.01859
2721.48737,0.01859
2719.42719,0.01848
2717.36702,0.01833
2715.30685,0.01802
2713.24668,0.01776
2711.18651,0.01772
2709.12633,0.01764
2707.06616,0.01749
2705.00599,0.01737
2702.94582,0.01725
2700.88565,0.01703
2698.82547,0.01681
2696.76530,0.01674
2694.70513,0.01674
2692.64496,0.01674
2690.58478,0.01666
2688.52461,0.01630
2686.46444,0.01595
2684.40427,0.01605
2682.34410,0.01616
2680.28392,0.01598
2678.22375,0.01585
2676.16358,0.01574
2674.10341,0.01548
2672.04324,0.01523
2669.98306,0.01501
2667.92289,0.01479
2665.86272,0.01483
2663.80255,0.01499
2661.74238,0.01492
2659.68220,0.01465
2657.62203,0.01440
2655.56186,0.01432
2653.50169,0.01434
2651.44151,0.01417
2649.38134,0.01387
2647.32117,0.01362
2645.26100,0.01357
2643.20083,0.01358
2641.14065,0.01346
2639.08048,0.01332
2637.02031,0.01316
2634.96014,0.01298
2632.89997,0.01298
2630.83979,0.01306
2628.77962,0.01293
2626.71945,0.01272
2624.65928,0.01258
2622.59910,0.01236
2620.53893,0.01207
2618.47876,0.01198
2616.41859,0.01193
2614.35842,0.01170
2612.29824,0.01154
2610.23807,0.01153
2608.17790,0.01154
2606.11773,0.01149
2604.05756,0.01139
2601.99738,0.01132
2599.93721,0.01128
2597.87704,0.01111
2595.81687,0.01084
2593.75670,0.01077
2591.69652,0.01086
2589.63635,0.01086
2587.57618,0.01080
2585.51601,0.01065
2583.45583,0.01054
2581.39566,0.01063
2579.33549,0.01071
2577.27532,0.01059
2575.21515,0.01031
2573.15497,0.01013
2571.09480,0.01022
2569.03463,0.01031
2566.97446,0.01025
2564.91429,0.01027
2562.85411,0.01040
2560.79394,0.01049
2558.73377,0.01029
2556.67360,0.00965
2554.61342,0.00924
2552.55325,0.00943
2550.49308,0.00983
2548.43291,0.01030
2546.37274,0.01052
2544.31256,0.01014
2542.25239,0.00970
2540.19222,0.00964
2538.13205,0.00973
2536.07188,0.00982
2534.01170,0.01003
2531.95153,0.01033
2529.89136,0.01055
2527.83119,0.01060
2525.77102,0.01028
2523.71084,0.00991
2521.65067,0.01022
2519.59050,0.01071
2517.53033,0.01066
2515.47015,0.01042
2513.40998,0.01022
2511.34981,0.01005
2509.28964,0.01015
2507.22947,0.01026
2505.16929,0.00996
2503.10912,0.00975
2501.04895,0.01016
2498.98878,0.01068
2496.92861,0.01084
2494.86843,0.01060
2492.80826,0.01029
2490.74809,0.01019
2488.68792,0.01040
2486.62775,0.01076
2484.56757,0.01094
2482.50740,0.01087
2480.44723,0.01062
2478.38706,0.01047
2476.32688,0.01064
2474.26671,0.01086
2472.20654,0.01088
2470.14637,0.01099
2468.08620,0.01140
2466.02602,0.01161
2463.96585,0.01132
2461.90568,0.01074
2459.84551,0.01026
2457.78534,0.01025
2455.72516,0.01062
2453.66499,0.01092
2451.60482,0.01112
2449.54465,0.01132
2447.48447,0.01145
2445.42430,0.01153
2443.36413,0.01160
2441.30396,0.01150
2439.24379,0.01140
2437.18361,0.01166
2435.12344,0.01183
2433.06327,0.01159
2431.00310,0.01146
2428.94293,0.01162
2426.88275,0.01179
2424.82258,0.01175
2422.76241,0.01150
2420.70224,0.01128
2418.64207,0.01124
2416.58189,0.01128
2414.52172,0.01137
2412.46155,0.01148
2410.40138,0.01155
2408.34120,0.01147
2406.28103,0.01123
2404.22086,0.01120
2402.16069,0.01134
2400.10052,0.01128
2398.04034,0.01092
2395.98017,0.01079
2393.92000,0.01075
2391.85983,0.01079
2389.79966,0.01099
2387.73948,0.01117
2385.67931,0.01119
2383.61914,0.01119
2381.55897,0.01135
2379.49880,0.01156
2377.43862,0.01138
2375.37845,0.01096
2373.31828,0.01031
2371.25811,0.00909
2369.19793,0.00733
2367.13776,0.00590
2365.07759,0.00587
2363.01742,0.00782
2360.95725,0.00936
2358.89707,0.01103
2356.83690,0.01129
2354.77673,0.01083
2352.71656,0.01094
2350.65639,0.00941
2348.59621,0.00830
2346.53604,0.01078
2344.47587,0.01070
2342.41570,0.00977
2340.35552,0.00915
2338.29535,0.00866
2336.23518,0.00889
2334.17501,0.00911
2332.11484,0.00967
2330.05466,0.01072
2327.99449,0.01206
2325.93432,0.01179
2323.87415,0.01106
2321.81398,0.01062
2319.75380,0.01090
2317.69363,0.01048
2315.63346,0.01042
2313.57329,0.01073
2311.51312,0.01073
2309.45294,0.01063
2307.39277,0.01068
2305.33260,0.01070
2303.27243,0.01063
2301.21225,0.01071
2299.15208,0.01065
2297.09191,0.01061
2295.03174,0.01069
2292.97157,0.01057
2290.91139,0.01032
2288.85122,0.01023
2286.79105,0.01011
2284.73088,0.00986
2282.67071,0.00978
2280.61053,0.00984
2278.55036,0.00985
2276.49019,0.00978
2274.43002,0.00955
2272.36984,0.00924
2270.30967,0.00896
2268.24950,0.00853
2266.18933,0.00795
2264.12916,0.00771
2262.06898,0.00797
2260.00881,0.00814
2257.94864,0.00805
2255.88847,0.00833
2253.82830,0.00878
2251.76812,0.00864
2249.70795,0.00817
2247.64778,0.00822
2245.58761,0.00848
2243.52744,0.00868
2241.46726,0.00867
2239.40709,0.00798
2237.34692,0.00704
2235.28675,0.00661
2233.22657,0.00688
2231.16640,0.00713
2229.10623,0.00682
2227.04606,0.00666
2224.98589,0.00657
2222.92571,0.00627
2220.86554,0.00633
2218.80537,0.00678
2216.74520,0.00699
2214.68503,0.00708
2212.62485,0.00784
2210.56468,0.00867
2208.50451,0.00849
2206.44434,0.00823
2204.38417,0.00860
2202.32399,0.00817
2200.26382,0.00676
2198.20365,0.00619
2196.14348,0.00651
2194.08330,0.00711
2192.02313,0.00777
2189.96296,0.00720
2187.90279,0.00578
2185.84262,0.00489
2183.78244,0.00463
2181.72227,0.00477
2179.66210,0.00479
2177.60193,0.00476
2175.54176,0.00544
2173.48158,0.00630
2171.42141,0.00619
2169.36124,0.00566
2167.30107,0.00516
2165.24089,0.00460
2163.18072,0.00463
2161.12055,0.00442
2159.06038,0.00272
2157.00021,0.00108
2154.94003,0.00126
2152.87986,0.00255
2150.81969,0.00391
2148.75952,0.00512
2146.69935,0.00563
2144.63917,0.00530
2142.57900,0.00443
2140.51883,0.00340
2138.45866,0.00292
2136.39849,0.00311
2134.33831,0.00338
2132.27814,0.00319
2130.21797,0.00300
2128.15780,0.00359
2126.09762,0.00453
2124.03745,0.00496
2121.97728,0.00521
2119.91711,0.00571
2117.85694,0.00602
2115.79676,0.00604
2113.73659,0.00591
2111.67642,0.00536
2109.61625,0.00481
2107.55608,0.00479
2105.49590,0.00463
2103.43573,0.00405
2101.37556,0.00377
2099.31539,0.00359
2097.25521,0.00333
2095.19504,0.00367
2093.13487,0.00449
2091.07470,0.00479
2089.01453,0.00418
2086.95435,0.00332
2084.89418,0.00306
2082.83401,0.00359
2080.77384,0.00447
2078.71367,0.00491
2076.65349,0.00456
2074.59332,0.00376
2072.53315,0.00293
2070.47298,0.00261
2068.41281,0.00316
2066.35263,0.00400
2064.29246,0.00424
2062.23229,0.00407
2060.17212,0.00419
2058.11194,0.00459
2056.05177,0.00468
2053.99160,0.00463
2051.93143,0.00464
2049.87126,0.00403
2047.81108,0.00306
2045.75091,0.00247
2043.69074,0.00231
2041.63057,0.00259
2039.57040,0.00307
2037.51022,0.00384
2035.45005,0.00430
2033.38988,0.00299
2031.32971,0.00116
2029.26954,0.00070
2027.20936,0.00116
2025.14919,0.00186
2023.08902,0.00245
2021.02885,0.00263
2018.96867,0.00225
2016.90850,0.00112
2014.84833,0.00006
2012.78816,0.00035
2010.72799,0.00124
2008.66781,0.00094
2006.60764,0.00013
2004.54747,0.00040
2002.48730,0.00172
2000.42713,0.00280
1998.36695,0.00248
1996.30678,0.00185
1994.24661,0.00245
1992.18644,0.00304
1990.12626,0.00212
1988.06609,0.00130
1986.00592,0.00218
1983.94575,0.00272
1981.88558,0.00128
1979.82540,0.00000
1977.76523,0.00062
1975.70506,0.00203
1973.64489,0.00265
1971.58472,0.00264
1969.52454,0.00252
1967.46437,0.00173
1965.40420,0.00092
1963.34403,0.00100
1961.28386,0.00108
1959.22368,0.00094
1957.16351,0.00133
1955.10334,0.00190
1953.04317,0.00191
1950.98299,0.00173
1948.92282,0.00195
1946.86265,0.00222
1944.80248,0.00230
1942.74231,0.00251
1940.68213,0.00285
1938.62196,0.00282
1936.56179,0.00243
1934.50162,0.00211
1932.44145,0.00164
1930.38127,0.00117
1928.32110,0.00135
1926.26093,0.00200
1924.20076,0.00248
1922.14059,0.00265
1920.08041,0.00261
1918.02024,0.00231
1915.96007,0.00192
1913.89990,0.00181
1911.83972,0.00214
1909.77955,0.00256
1907.71938,0.00252
1905.65921,0.00225
1903.59904,0.00214
1901.53886,0.00190
1899.47869,0.00142
1897.41852,0.00115
1895.35835,0.00134
1893.29818,0.00172
1891.23800,0.00199
1889.17783,0.00206
1887.11766,0.00202
1885.05749,0.00187
1882.99731,0.00173
1880.93714,0.00189
1878.87697,0.00229
1876.81680,0.00253
1874.75663,0.00249
1872.69645,0.00235
1870.63628,0.00214
1868.57611,0.00189
1866.51594,0.00183
1864.45577,0.00206
1862.39559,0.00251
1860.33542,0.00278
1858.27525,0.00264
1856.21508,0.00250
1854.15491,0.00275
1852.09473,0.00310
1850.03456,0.00303
1847.97439,0.00250
1845.91422,0.00199
1843.85404,0.00203
1841.79387,0.00234
1839.73370,0.00238
1837.67353,0.00232
1835.61336,0.00241
1833.55318,0.00248
1831.49301,0.00228
1829.43284,0.00195
1827.37267,0.00184
1825.31250,0.00214
1823.25232,0.00258
1821.19215,0.00270
1819.13198,0.00254
1817.07181,0.00246
1815.01163,0.00240
1812.95146,0.00220
1810.89129,0.00219
1808.83112,0.00249
1806.77095,0.00276
1804.71077,0.00286
1802.65060,0.00293
1800.59043,0.00296
1798.53026,0.00283
1796.47009,0.00269
1794.40991,0.00279
1792.34974,0.00314
1790.28957,0.00339
1788.22940,0.00345
1786.16923,0.00349
1784.10905,0.00357
1782.04888,0.00354
1779.98871,0.00346
1777.92854,0.00333
1775.86836,0.00306
1773.80819,0.00281
1771.74802,0.00292
1769.68785,0.00332
1767.62768,0.00372
1765.56750,0.00393
1763.50733,0.00399
1761.44716,0.00411
1759.38699,0.00433
1757.32682,0.00452
1755.26664,0.00455
1753.20647,0.00454
1751.14630,0.00472
1749.08613,0.00511
1747.02596,0.00544
1744.96578,0.00558
1742.90561,0.00558
1740.84544,0.00558
1738.78527,0.00562
1736.72509,0.00573
1734.66492,0.00596
1732.60475,0.00626
1730.54458,0.00657
1728.48441,0.00694
1726.42423,0.00726
1724.36406,0.00740
1722.30389,0.00742
1720.24372,0.00753
1718.18355,0.00792
1716.12337,0.00833
1714.06320,0.00843
1712.00303,0.00840
1709.94286,0.00841
1707.88268,0.00855
1705.82251,0.00894
1703.76234,0.00925
1701.70217,0.00940
1699.64200,0.00989
1697.58182,0.01072
1695.52165,0.01149
1693.46148,0.01197
1691.40131,0.01222
1689.34114,0.01249
1687.28096,0.01288
1685.22079,0.01354
1683.16062,0.01454
1681.10045,0.01537
1679.04028,0.01590
1676.98010,0.01630
1674.91993,0.01659
1672.85976,0.01676
1670.79959,0.01711
1668.73941,0.01776
1666.67924,0.01828
1664.61907,0.01854
1662.55890,0.01885
1660.49873,0.01921
1658.43855,0.01930
1656.37838,0.01918
1654.31821,0.01941
1652.25804,0.02006
1650.19787,0.02016
1648.13769,0.01990
1646.07752,0.01985
1644.01735,0.01981
1641.95718,0.01959
1639.89701,0.01930
1637.83683,0.01911
1635.77666,0.01909
1633.71649,0.01902
1631.65632,0.01873
1629.59614,0.01842
1627.53597,0.01821
1625.47580,0.01797
1623.41563,0.01769
1621.35546,0.01744
1619.29528,0.01716
1617.23511,0.01695
1615.17494,0.01689
1613.11477,0.01669
1611.05460,0.01626
1608.99442,0.01591
1606.93425,0.01570
1604.87408,0.01548
1602.81391,0.01521
1600.75373,0.01485
1598.69356,0.01437
1596.63339,0.01390
1594.57322,0.01351
1592.51305,0.01309
1590.45287,0.01252
1588.39270,0.01195
1586.33253,0.01145
1584.27236,0.01094
1582.21219,0.01042
1580.15201,0.00998
1578.09184,0.00962
1576.03167,0.00929
1573.97150,0.00897
1571.91133,0.00854
1569.85115,0.00800
1567.79098,0.00762
1565.73081,0.00741
1563.67064,0.00711
1561.61046,0.00673
1559.55029,0.00651
1557.49012,0.00652
1555.42995,0.00636
1553.36978,0.00599
1551.30960,0.00556
1549.24943,0.00521
1547.18926,0.00500
1545.12909,0.00478
1543.06892,0.00443
1541.00874,0.00420
1538.94857,0.00432
1536.88840,0.00430
1534.82823,0.00401
1532.76805,0.00371
1530.70788,0.00342
1528.64771,0.00307
1526.58754,0.00270
1524.52737,0.00234
1522.46719,0.00211
1520.40702,0.00217
1518.34685,0.00228
1516.28668,0.00220
1514.22651,0.00211
1512.16633,0.00200
1510.10616,0.00179
1508.04599,0.00161
1505.98582,0.00165
1503.92565,0.00166
1501.86547,0.00148
1499.80530,0.00126
1497.74513,0.00119
1495.68496,0.00126
1493.62478,0.00126
1491.56461,0.00120
1489.50444,0.00129
1487.44427,0.00145
1485.38410,0.00154
1483.32392,0.00159
1481.26375,0.00165
1479.20358,0.00167
1477.14341,0.00168
1475.08324,0.00181
1473.02306,0.00209
1470.96289,0.00235
1468.90272,0.00242
1466.84255,0.00256
1464.78238,0.00296
1462.72220,0.00327
1460.66203,0.00315
1458.60186,0.00286
1456.54169,0.00293
1454.48151,0.00320
1452.42134,0.00323
1450.36117,0.00310
1448.30100,0.00300
1446.24083,0.00297
1444.18065,0.00293
1442.12048,0.00279
1440.06031,0.00260
1438.00014,0.00252
1435.93997,0.00260
1433.87979,0.00276
1431.81962,0.00293
1429.75945,0.00309
1427.69928,0.00313
1425.63910,0.00309
1423.57893,0.00312
1421.51876,0.00326
1419.45859,0.00346
1417.39842,0.00363
1415.33824,0.00360
1413.27807,0.00345
1411.21790,0.00337
1409.15773,0.00335
1407.09756,0.00332
1405.03738,0.00325
1402.97721,0.00306
1400.91704,0.00280
1398.85687,0.00268
1396.79670,0.00266
1394.73652,0.00264
1392.67635,0.00263
1390.61618,0.00260
1388.55601,0.00253
1386.49583,0.00255
1384.43566,0.00272
1382.37549,0.00289
1380.31532,0.00290
1378.25515,0.00276
1376.19497,0.00268
1374.13480,0.00275
1372.07463,0.00282
1370.01446,0.00286
1367.95429,0.00293
1365.89411,0.00290
1363.83394,0.00276
1361.77377,0.00265
1359.71360,0.00256
1357.65343,0.00244
1355.59325,0.00232
1353.53308,0.00221
1351.47291,0.00204
1349.41274,0.00188
1347.35256,0.00183
1345.29239,0.00187
1343.23222,0.00192
1341.17205,0.00198
1339.11188,0.00203
1337.05170,0.00200
1334.99153,0.00194
1332.93136,0.00202
1330.87119,0.00219
1328.81102,0.00229
1326.75084,0.00231
1324.69067,0.00226
1322.63050,0.00211
1320.57033,0.00191
1318.51015,0.00177
1316.44998,0.00174
1314.38981,0.00181
1312.32964,0.00189
1310.26947,0.00187
1308.20929,0.00180
1306.14912,0.00184
1304.08895,0.00203
1302.02878,0.00222
1299.96861,0.00225
1297.90843,0.00220
1295.84826,0.00229
1293.78809,0.00250
1291.72792,0.00266
1289.66775,0.00271
1287.60757,0.00269
1285.54740,0.00276
1283.48723,0.00289
1281.42706,0.00295
1279.36688,0.00305
1277.30671,0.00328
1275.24654,0.00348
1273.18637,0.00343
1271.12620,0.00326
1269.06602,0.00317
1267.00585,0.00318
1264.94568,0.00321
1262.88551,0.00326
1260.82534,0.00342
1258.76516,0.00363
1256.70499,0.00366
1254.64482,0.00350
1252.58465,0.00331
1250.52447,0.00309
1248.46430,0.00278
1246.40413,0.00239
1244.34396,0.00198
1242.28379,0.00183
1240.22361,0.00188
1238.16344,0.00185
1236.10327,0.00187
1234.04310,0.00197
1231.98293,0.00195
1229.92275,0.00181
1227.86258,0.00162
1225.80241,0.00144
1223.74224,0.00128
1221.68207,0.00109
1219.62189,0.00089
1217.56172,0.00065
1215.50155,0.00044
1213.44138,0.00029
1211.38120,0.00011
1209.32103,0.00000
1207.26086,0.00005
1205.20069,0.00020
1203.14052,0.00041
1201.08034,0.00056
1199.02017,0.00049
1196.96000,0.00044
1194.89983,0.00065
1192.83966,0.00092
1190.77948,0.00113
1188.71931,0.00146
1186.65914,0.00201
1184.59897,0.00274
1182.53880,0.00353
1180.47862,0.00425
1178.41845,0.00499
1176.35828,0.00585
1174.29811,0.00694
1172.23793,0.00820
1170.17776,0.00937
1168.11759,0.01033
1166.05742,0.01117
1163.99725,0.01195
1161.93707,0.01270
1159.87690,0.01346
1157.81673,0.01421
1155.75656,0.01502
1153.69639,0.01588
1151.63621,0.01674
1149.57604,0.01767
1147.51587,0.01868
1145.45570,0.01967
1143.39552,0.02068
1141.33535,0.02178
1139.27518,0.02295
1137.21501,0.02417
1135.15484,0.02551
1133.09466,0.02689
1131.03449,0.02803
1128.97432,0.02903
1126.91415,0.03024
1124.85398,0.03169
1122.79380,0.03315
1120.73363,0.03445
1118.67346,0.03568
1116.61329,0.03698
1114.55312,0.03827
1112.49294,0.03948
1110.43277,0.04076
1108.37260,0.04228
1106.31243,0.04394
1104.25225,0.04547
1102.19208,0.04699
1100.13191,0.04857
1098.07174,0.04997
1096.01157,0.05128
1093.95139,0.05258
1091.89122,0.05380
1089.83105,0.05499
1087.77088,0.05622
1085.71071,0.05741
1083.65053,0.05851
1081.59036,0.05958
1079.53019,0.06074
1077.47002,0.06204
1075.40985,0.06315
1073.34967,0.06390
1071.28950,0.06450
1069.22933,0.06507
1067.16916,0.06562
1065.10898,0.06598
1063.04881,0.06601
1060.98864,0.06590
1058.92847,0.06568
1056.86830,0.06538
1054.80812,0.06508
1052.74795,0.06470
1050.68778,0.06405
1048.62761,0.06317
1046.56744,0.06202
1044.50726,0.06062
1042.44709,0.05930
1040.38692,0.05806
1038.32675,0.05681
1036.26657,0.05561
1034.20640,0.05423
1032.14623,0.05273
1030.08606,0.05147
1028.02589,0.05025
1025.96571,0.04885
1023.90554,0.04740
1021.84537,0.04617
1019.78520,0.04536
1017.72503,0.04463
1015.66485,0.04363
1013.60468,0.04270
1011.54451,0.04197
1009.48434,0.04133
1007.42417,0.04080
1005.36399,0.04038
1003.30382,0.04021
1001.24365,0.04049
999.18348,0.04106
997.12330,0.04181
995.06313,0.04270
993.00296,0.04359
990.94279,0.04450
988.88262,0.04539
986.82244,0.04615
984.76227,0.04664
982.70210,0.04668
980.64193,0.04628
978.58176,0.04561
976.52158,0.04454
974.46141,0.04308
972.40124,0.04162
970.34107,0.04018
968.28089,0.03834
966.22072,0.03629
964.16055,0.03446
962.10038,0.03294
960.04021,0.03159
957.98003,0.03032
955.91986,0.02924
953.85969,0.02837
951.79952,0.02756
949.73935,0.02677
947.67917,0.02602
945.61900,0.02557
943.55883,0.02556
941.49866,0.02560
939.43849,0.02542
937.37831,0.02520
935.31814,0.02509
933.25797,0.02508
931.19780,0.02507
929.13762,0.02480
927.07745,0.02444
925.01728,0.02426
922.95711,0.02393
920.89694,0.02322
918.83676,0.02241
916.77659,0.02154
914.71642,0.02066
912.65625,0.02007
910.59608,0.01957
908.53590,0.01898
906.47573,0.01859
904.41556,0.01842
902.35539,0.01825
900.29522,0.01827
898.23504,0.01834
896.17487,0.01813
894.11470,0.01815
892.05453,0.01857
889.99435,0.01869
887.93418,0.01860
885.87401,0.01891
883.81384,0.01966
881.75367,0.02055
879.69349,0.02128
877.63332,0.02165
875.57315,0.02178
873.51298,0.02201
871.45281,0.02241
869.39263,0.02284
867.33246,0.02320
865.27229,0.02334
863.21212,0.02339
861.15194,0.02324
859.09177,0.02284
857.03160,0.02288
854.97143,0.02302
852.91126,0.02249
850.85108,0.02169
848.79091,0.02077
846.73074,0.01987
844.67057,0.01936
842.61040,0.01876
840.55022,0.01798
838.49005,0.01752
836.42988,0.01713
834.36971,0.01646
832.30954,0.01589
830.24936,0.01551
828.18919,0.01490
826.12902,0.01404
824.06885,0.01325
822.00867,0.01244
819.94850,0.01174
817.88833,0.01152
815.82816,0.01174
813.76799,0.01171
811.70781,0.01105
809.64764,0.01025
807.58747,0.00968
805.52730,0.00943
803.46713,0.00939
801.40695,0.00903
799.34678,0.00875
797.28661,0.00873
795.22644,0.00804
793.16627,0.00676
791.10609,0.00604
789.04592,0.00646
786.98575,0.00725
784.92558,0.00735
782.86540,0.00689
780.80523,0.00666
778.74506,0.00671
776.68489,0.00687
774.62472,0.00704
772.56454,0.00720
770.50437,0.00743
768.44420,0.00731
766.38403,0.00644
764.32386,0.00563
762.26368,0.00559
760.20351,0.00584
758.14334,0.00603
756.08317,0.00615
754.02299,0.00585
751.96282,0.00518
749.90265,0.00483
747.84248,0.00503
745.78231,0.00517
743.72213,0.00506
741.66196,0.00512
739.60179,0.00511
737.54162,0.00454
735.48145,0.00400
733.42127,0.00392
731.36110,0.00387
729.30093,0.00383
727.24076,0.00415
725.18059,0.00476
723.12041,0.00522
721.06024,0.00547
719.00007,0.00495
716.93990,0.00455
714.87972,0.00444
712.81955,0.00444
710.75938,0.00465
708.69921,0.00483
706.63904,0.00468
704.57886,0.00425
702.51869,0.00389
700.45852,0.00352
698.39835,0.00328
696.33818,0.00358
694.27800,0.00378
692.21783,0.00327
690.15766,0.00288
688.09749,0.00348
686.03731,0.00458
683.97714,0.00506
681.91697,0.00472
679.85680,0.00400
677.79663,0.00318
675.73645,0.00270
673.67628,0.00190
671.61611,0.00000
669.55594,0.00220
667.49577,0.00560
665.43559,0.00108
663.37542,0.00280
661.31525,0.00476
659.25508,0.00516
657.19491,0.00490
655.13473,0.00424
653.07456,0.00382
651.01439,0.00426
648.95422,0.00494
646.89404,0.00454
644.83387,0.00395
642.77370,0.00408
640.71353,0.00470
638.65336,0.00498
636.59318,0.00471
634.53301,0.00438
632.47284,0.00421
630.41267,0.00386
628.35250,0.00294
626.29232,0.00212
624.23215,0.00286
622.17198,0.00348
620.11181,0.00358
618.05164,0.00428
615.99146,0.00444
613.93129,0.00365
611.87112,0.00315
609.81095,0.00235
607.75077,0.00085
605.69060,0.00000
603.63043,-0.00119
601.57026,-0.00100
599.51009,0.00000
