3996.73391,0.00031
3994.67373,0.00027
3992.61356,0.00024
3990.55339,0.00031
3988.49322,0.00023
3986.43305,-0.00001
3984.37287,0.00004
3982.31270,0.00046
3980.25253,0.00075
3978.19236,0.00086
3976.13219,0.00089
3974.07201,0.00072
3972.01184,0.00054
3969.95167,0.00063
3967.89150,0.00064
3965.83133,0.00033
3963.77115,0.00000
3961.71098,0.00004
3959.65081,0.00032
3957.59064,0.00047
3955.53046,0.00033
3953.47029,0.00014
3951.41012,0.00016
3949.34995,0.00035
3947.28978,0.00052
3945.22960,0.00059
3943.16943,0.00066
3941.10926,0.00068
3939.04909,0.00050
3936.98892,0.00024
3934.92874,0.00013
3932.86857,0.00028
3930.80840,0.00058
3928.74823,0.00071
3926.68805,0.00058
3924.62788,0.00031
3922.56771,0.00004
3920.50754,0.00000
3918.44737,0.00017
3916.38719,0.00025
3914.32702,0.00017
3912.26685,0.00021
3910.20668,0.00043
3908.14651,0.00064
3906.08633,0.00074
3904.02616,0.00080
3901.96599,0.00087
3899.90582,0.00088
3897.84565,0.00068
3895.78547,0.00045
3893.72530,0.00045
3891.66513,0.00065
3889.60496,0.00091
3887.54478,0.00115
3885.48461,0.00118
3883.42444,0.00112
3881.36427,0.00130
3879.30410,0.00142
3877.24392,0.00127
3875.18375,0.00118
3873.12358,0.00123
3871.06341,0.00118
3869.00324,0.00096
3866.94306,0.00093
3864.88289,0.00109
3862.82272,0.00097
3860.76255,0.00057
3858.70237,0.00034
3856.64220,0.00054
3854.58203,0.00094
3852.52186,0.00114
3850.46169,0.00113
3848.40151,0.00114
3846.34134,0.00126
3844.28117,0.00154
3842.22100,0.00201
3840.16083,0.00241
3838.10065,0.00220
3836.04048,0.00161
3833.98031,0.00121
3831.92014,0.00099
3829.85997,0.00085
3827.79979,0.00079
3825.73962,0.00075
3823.67945,0.00079
3821.61928,0.00095
3819.55910,0.00100
3817.49893,0.00088
3815.43876,0.00058
3813.37859,0.00027
3811.31842,0.00025
3809.25824,0.00043
3807.19807,0.00058
3805.13790,0.00062
3803.07773,0.00074
3801.01756,0.00091
3798.95738,0.00082
3796.89721,0.00059
3794.83704,0.00062
3792.77687,0.00080
3790.71670,0.00078
3788.65652,0.00069
3786.59635,0.00092
3784.53618,0.00120
3782.47601,0.00104
3780.41583,0.00050
3778.35566,0.00001
3776.29549,0.00000
3774.23532,0.00048
3772.17515,0.00125
3770.11497,0.00177
3768.05480,0.00140
3765.99463,0.00067
3763.93446,0.00048
3761.87429,0.00085
3759.81411,0.00118
3757.75394,0.00118
3755.69377,0.00121
3753.63360,0.00140
3751.57342,0.00127
3749.51325,0.00064
3747.45308,0.00040
3745.39291,0.00076
3743.33274,0.00112
3741.27256,0.00112
3739.21239,0.00108
3737.15222,0.00118
3735.09205,0.00110
3733.03188,0.00059
3730.97170,0.00012
3728.91153,0.00007
3726.85136,0.00025
3724.79119,0.00035
3722.73102,0.00034
3720.67084,0.00018
3718.61067,0.00000
3716.55050,0.00016
3714.49033,0.00075
3712.43015,0.00149
3710.36998,0.00184
3708.30981,0.00152
3706.24964,0.00105
3704.18947,0.00090
3702.12929,0.00108
3700.06912,0.00147
3698.00895,0.00178
3695.94878,0.00195
3693.88861,0.00220
3691.82843,0.00245
3689.76826,0.00229
3687.70809,0.00172
3685.64792,0.00144
3683.58775,0.00171
3681.52757,0.00196
3679.46740,0.00186
3677.40723,0.00206
3675.34706,0.00270
3673.28688,0.00283
3671.22671,0.00252
3669.16654,0.00247
3667.10637,0.00274
3665.04620,0.00303
3662.98602,0.00328
3660.92585,0.00352
3658.86568,0.00368
3656.80551,0.00362
3654.74534,0.00352
3652.68516,0.00383
3650.62499,0.00439
3648.56482,0.00433
3646.50465,0.00393
3644.44447,0.00393
3642.38430,0.00415
3640.32413,0.00442
3638.26396,0.00479
3636.20379,0.00518
3634.14361,0.00556
3632.08344,0.00608
3630.02327,0.00675
3627.96310,0.00714
3625.90293,0.00699
3623.84275,0.00686
3621.78258,0.00708
3619.72241,0.00746
3617.66224,0.00762
3615.60207,0.00753
3613.54189,0.00776
3611.48172,0.00863
3609.42155,0.00949
3607.36138,0.00979
3605.30120,0.00994
3603.24103,0.01039
3601.18086,0.01103
3599.12069,0.01144
3597.06052,0.01165
3595.00034,0.01204
3592.94017,0.01264
3590.88000,0.01314
3588.81983,0.01328
3586.75966,0.01309
3584.69948,0.01304
3582.63931,0.01348
3580.57914,0.01417
3578.51897,0.01461
3576.45879,0.01476
3574.39862,0.01509
3572.33845,0.01575
3570.27828,0.01650
3568.21811,0.01731
3566.15793,0.01812
3564.09776,0.01855
3562.03759,0.01873
3559.97742,0.01900
3557.91725,0.01948
3555.85707,0.02008
3553.79690,0.02051
3551.73673,0.02068
3549.67656,0.02094
3547.61639,0.02164
3545.55621,0.02255
3543.49604,0.02328
3541.43587,0.02381
3539.37570,0.02414
3537.31552,0.02438
3535.25535,0.02479
3533.19518,0.02534
3531.13501,0.02575
3529.07484,0.02617
3527.01466,0.02694
3524.95449,0.02796
3522.89432,0.02887
3520.83415,0.02945
3518.77398,0.02966
3516.71380,0.02974
3514.65363,0.03017
3512.59346,0.03086
3510.53329,0.03129
3508.47312,0.03149
3506.41294,0.03194
3504.35277,0.03265
3502.29260,0.03319
3500.23243,0.03363
3498.17225,0.03422
3496.11208,0.03465
3494.05191,0.03483
3491.99174,0.03536
3489.93157,0.03638
3487.87139,0.03733
3485.81122,0.03801
3483.75105,0.03843
3481.69088,0.03853
3479.63071,0.03875
3477.57053,0.03944
3475.51036,0.04013
3473.45019,0.04052
3471.39002,0.04087
3469.32984,0.04134
3467.26967,0.04197
3465.20950,0.04267
3463.14933,0.04320
3461.08916,0.04361
3459.02898,0.04402
3456.96881,0.04443
3454.90864,0.04499
3452.84847,0.04571
3450.78830,0.04635
3448.72812,0.04689
3446.66795,0.04733
3444.60778,0.04755
3442.54761,0.04760
3440.48744,0.04766
3438.42726,0.04814
3436.36709,0.04911
3434.30692,0.04998
3432.24675,0.05048
3430.18657,0.05081
3428.12640,0.05097
3426.06623,0.05116
3424.00606,0.05180
3421.94589,0.05264
3419.88571,0.05309
3417.82554,0.05330
3415.76537,0.05363
3413.70520,0.05406
3411.64503,0.05474
3409.58485,0.05540
3407.52468,0.05557
3405.46451,0.05562
3403.40434,0.05597
3401.34416,0.05662
3399.28399,0.05726
3397.22382,0.05757
3395.16365,0.05774
3393.10348,0.05813
3391.04330,0.05838
3388.98313,0.05834
3386.92296,0.05858
3384.86279,0.05927
3382.80262,0.05992
3380.74244,0.06016
3378.68227,0.06014
3376.62210,0.06011
3374.56193,0.06022
3372.50176,0.06045
3370.44158,0.06076
3368.38141,0.06121
3366.32124,0.06172
3364.26107,0.06219
3362.20089,0.06267
3360.14072,0.06304
3358.08055,0.06327
3356.02038,0.06355
3353.96021,0.06378
3351.90003,0.06407
3349.83986,0.06440
3347.77969,0.06442
3345.71952,0.06446
3343.65935,0.06483
3341.59917,0.06511
3339.53900,0.06513
3337.47883,0.06519
3335.41866,0.06535
3333.35849,0.06556
3331.29831,0.06584
3329.23814,0.06602
3327.17797,0.06604
3325.11780,0.06608
3323.05762,0.06613
3320.99745,0.06622
3318.93728,0.06643
3316.87711,0.06664
3314.81694,0.06669
3312.75676,0.06666
3310.69659,0.06663
3308.63642,0.06663
3306.57625,0.06685
3304.51608,0.06719
3302.45590,0.06736
3300.39573,0.06752
3298.33556,0.06777
3296.27539,0.06803
3294.21521,0.06810
3292.15504,0.06798
3290.09487,0.06797
3288.03470,0.06802
3285.97453,0.06796
3283.91435,0.06791
3281.85418,0.06804
3279.79401,0.06836
3277.73384,0.06885
3275.67367,0.06911
3273.61349,0.06876
3271.55332,0.06813
3269.49315,0.06781
3267.43298,0.06787
3265.37281,0.06813
3263.31263,0.06823
3261.25246,0.06797
3259.19229,0.06763
3257.13212,0.06741
3255.07194,0.06720
3253.01177,0.06694
3250.95160,0.06679
3248.89143,0.06686
3246.83126,0.06698
3244.77108,0.06698
3242.71091,0.06686
3240.65074,0.06665
3238.59057,0.06645
3236.53040,0.06623
3234.47022,0.06605
3232.41005,0.06586
3230.34988,0.06548
3228.28971,0.06507
3226.22954,0.06476
3224.16936,0.06455
3222.10919,0.06448
3220.04902,0.06442
3217.98885,0.06441
3215.92867,0.06443
3213.86850,0.06421
3211.80833,0.06391
3209.74816,0.06374
3207.68799,0.06354
3205.62781,0.06325
3203.56764,0.06297
3201.50747,0.06262
3199.44730,0.06221
3197.38713,0.06201
3195.32695,0.06208
3193.26678,0.06210
3191.20661,0.06173
3189.14644,0.06095
3187.08626,0.06033
3185.02609,0.06019
3182.96592,0.06029
3180.90575,0.06037
3178.84558,0.06028
3176.78540,0.05999
3174.72523,0.05956
3172.66506,0.05903
3170.60489,0.05845
3168.54472,0.05802
3166.48454,0.05785
3164.42437,0.05773
3162.36420,0.05755
3160.30403,0.05732
3158.24386,0.05697
3156.18368,0.05645
3154.12351,0.05590
3152.06334,0.05537
3150.00317,0.05487
3147.94299,0.05459
3145.88282,0.05457
3143.82265,0.05453
3141.76248,0.05426
3139.70231,0.05384
3137.64213,0.05327
3135.58196,0.05274
3133.52179,0.05256
3131.46162,0.05252
3129.40145,0.05228
3127.34127,0.05186
3125.28110,0.05141
3123.22093,0.05097
3121.16076,0.05057
3119.10058,0.05031
3117.04041,0.05021
3114.98024,0.05010
3112.92007,0.04985
3110.85990,0.04950
3108.79972,0.04911
3106.73955,0.04872
3104.67938,0.04836
3102.61921,0.04801
3100.55904,0.04762
3098.49886,0.04721
3096.43869,0.04675
3094.37852,0.04630
3092.31835,0.04598
3090.25818,0.04583
3088.19800,0.04562
3086.13783,0.04531
3084.07766,0.04508
3082.01749,0.04494
3079.95731,0.04475
3077.89714,0.04451
3075.83697,0.04416
3073.77680,0.04366
3071.71663,0.04338
3069.65645,0.04346
3067.59628,0.04349
3065.53611,0.04308
3063.47594,0.04243
3061.41577,0.04202
3059.35559,0.04189
3057.29542,0.04170
3055.23525,0.04126
3053.17508,0.04077
3051.11491,0.04038
3049.05473,0.03992
3046.99456,0.03935
3044.93439,0.03880
3042.87422,0.03839
3040.81404,0.03818
3038.75387,0.03800
3036.69370,0.03788
3034.63353,0.03782
3032.57336,0.03755
3030.51318,0.03711
3028.45301,0.03661
3026.39284,0.03613
3024.33267,0.03576
3022.27250,0.03529
3020.21232,0.03494
3018.15215,0.03498
3016.09198,0.03504
3014.03181,0.03491
3011.97163,0.03472
3009.91146,0.03455
3007.85129,0.03438
3005.79112,0.03417
3003.73095,0.03398
3001.67077,0.03384
2999.61060,0.03367
2997.55043,0.03350
2995.49026,0.03330
2993.43009,0.03314
2991.36991,0.03320
2989.30974,0.03334
2987.24957,0.03335
2985.18940,0.03320
2983.12923,0.03318
2981.06905,0.03353
2979.00888,0.03404
2976.94871,0.03464
2974.88854,0.03538
2972.82836,0.03607
2970.76819,0.03677
2968.70802,0.03780
2966.64785,0.03899
2964.58768,0.04001
2962.52750,0.04119
2960.46733,0.04275
2958.40716,0.04409
2956.34699,0.04491
2954.28682,0.04572
2952.22664,0.04689
2950.16647,0.04838
2948.10630,0.05011
2946.04613,0.05206
2943.98596,0.05407
2941.92578,0.05610
2939.86561,0.05824
2937.80544,0.06060
2935.74527,0.06332
2933.68509,0.06630
2931.62492,0.06931
2929.56475,0.07191
2927.50458,0.07408
2925.44441,0.07605
2923.38423,0.07800
2921.32406,0.08022
2919.26389,0.08228
2917.20372,0.08288
2915.14355,0.08100
2913.08337,0.07671
2911.02320,0.07157
2908.96303,0.06736
2906.90286,0.06443
2904.84268,0.06216
2902.78251,0.06029
2900.72234,0.05866
2898.66217,0.05700
2896.60200,0.05545
2894.54182,0.05412
2892.48165,0.05286
2890.42148,0.05183
2888.36131,0.05104
2886.30114,0.05012
2884.24096,0.04897
2882.18079,0.04802
2880.12062,0.04736
2878.06045,0.04685
2876.00028,0.04663
2873.94010,0.04675
2871.87993,0.04701
2869.81976,0.04737
2867.75959,0.04775
2865.69941,0.04830
2863.63924,0.04961
2861.57907,0.05174
2859.51890,0.05416
2857.45873,0.05668
2855.39855,0.05934
2853.33838,0.06231
2851.27821,0.06510
2849.21804,0.06570
2847.15787,0.06250
2845.09769,0.05660
2843.03752,0.05069
2840.97735,0.04622
2838.91718,0.04304
2836.85700,0.04064
2834.79683,0.03882
2832.73666,0.03746
2830.67649,0.03642
2828.61632,0.03567
2826.55614,0.03510
2824.49597,0.03453
2822.43580,0.03384
2820.37563,0.03315
2818.31546,0.03263
2816.25528,0.03215
2814.19511,0.03160
2812.13494,0.03112
2810.07477,0.03083
2808.01460,0.03059
2805.95442,0.03031
2803.89425,0.02997
2801.83408,0.02961
2799.77391,0.02932
2797.71373,0.02896
2795.65356,0.02866
2793.59339,0.02867
2791.53322,0.02865
2789.47305,0.02835
2787.41287,0.02797
2785.35270,0.02763
2783.29253,0.02731
2781.23236,0.02713
2779.17219,0.02693
2777.11201,0.02661
2775.05184,0.02653
2772.99167,0.02662
2770.93150,0.02652
2768.87133,0.02631
2766.81115,0.02612
2764.75098,0.02604
2762.69081,0.02602
2760.63064,0.02591
2758.57046,0.02592
2756.51029,0.02602
2754.45012,0.02582
2752.38995,0.02547
2750.32978,0.02527
2748.26960,0.02519
2746.20943,0.02512
2744.14926,0.02508
2742.08909,0.02503
2740.02892,0.02490
2737.96874,0.02488
2735.90857,0.02494
2733.84840,0.02477
2731.78823,0.02448
2729.72805,0.02436
2727.66788,0.02434
2725.60771,0.02425
2723.54754,0.02420
2721.48737,0.02430
2719.42719,0.02437
2717.36702,0.02426
2715.30685,0.02395
2713.24668,0.02364
2711.18651,0.02362
2709.12633,0.02374
2707.06616,0.02366
2705.00599,0.02340
2702.94582,0.02326
2700.88565,0.02326
2698.82547,0.02322
2696.76530,0.02315
2694.70513,0.02314
2692.64496,0.02310
2690.58478,0.02301
2688.52461,0.02299
2686.46444,0.02303
2684.40427,0.02298
2682.34410,0.02280
2680.28392,0.02252
2678.22375,0.02228
2676.16358,0.02221
2674.10341,0.02219
2672.04324,0.02208
2669.98306,0.02187
2667.92289,0.02167
2665.86272,0.02167
2663.80255,0.02174
2661.74238,0.02155
2659.68220,0.02126
2657.62203,0.02116
2655.56186,0.02118
2653.50169,0.02121
2651.44151,0.02124
2649.38134,0.02123
2647.32117,0.02116
2645.26100,0.02094
2643.20083,0.02057
2641.14065,0.02019
2639.08048,0.01981
2637.02031,0.01956
2634.96014,0.01947
2632.89997,0.01942
2630.83979,0.01939
2628.77962,0.01932
2626.71945,0.01896
2624.65928,0.01841
2622.59910,0.01806
2620.53893,0.01819
2618.47876,0.01862
2616.41859,0.01881
2614.35842,0.01858
2612.29824,0.01821
2610.23807,0.01800
2608.17790,0.01800
2606.11773,0.01785
2604.05756,0.01748
2601.99738,0.01744
2599.93721,0.01773
2597.87704,0.01769
2595.81687,0.01739
2593.75670,0.01722
2591.69652,0.01714
2589.63635,0.01701
2587.57618,0.01675
2585.51601,0.01649
2583.45583,0.01651
2581.39566,0.01672
2579.33549,0.01671
2577.27532,0.01651
2575.21515,0.01629
2573.15497,0.01608
2571.09480,0.01610
2569.03463,0.01629
2566.97446,0.01620
2564.91429,0.01582
2562.85411,0.01540
2560.79394,0.01529
2558.73377,0.01541
2556.67360,0.01543
2554.61342,0.01543
2552.55325,0.01538
2550.49308,0.01511
2548.43291,0.01481
2546.37274,0.01446
2544.31256,0.01407
2542.25239,0.01396
2540.19222,0.01409
2538.13205,0.01426
2536.07188,0.01427
2534.01170,0.01415
2531.95153,0.01418
2529.89136,0.01441
2527.83119,0.01467
2525.77102,0.01498
2523.71084,0.01505
2521.65067,0.01457
2519.59050,0.01400
2517.53033,0.01391
2515.47015,0.01411
2513.40998,0.01389
2511.34981,0.01337
2509.28964,0.01324
2507.22947,0.01334
2505.16929,0.01322
2503.10912,0.01300
2501.04895,0.01288
2498.98878,0.01271
2496.92861,0.01266
2494.86843,0.01299
2492.80826,0.01313
2490.74809,0.01294
2488.68792,0.01303
2486.62775,0.01310
2484.56757,0.01276
2482.50740,0.01238
2480.44723,0.01210
2478.38706,0.01191
2476.32688,0.01190
2474.26671,0.01208
2472.20654,0.01232
2470.14637,0.01221
2468.08620,0.01197
2466.02602,0.01218
2463.96585,0.01245
2461.90568,0.01209
2459.84551,0.01164
2457.78534,0.01177
2455.72516,0.01189
2453.66499,0.01163
2451.60482,0.01143
2449.54465,0.01143
2447.48447,0.01143
2445.42430,0.01138
2443.36413,0.01136
2441.30396,0.01121
2439.24379,0.01091
2437.18361,0.01088
2435.12344,0.01107
2433.06327,0.01103
2431.00310,0.01071
2428.94293,0.01046
2426.88275,0.01040
2424.82258,0.01029
2422.76241,0.01018
2420.70224,0.01028
2418.64207,0.01050
2416.58189,0.01073
2414.52172,0.01074
2412.46155,0.01031
2410.40138,0.00986
2408.34120,0.00993
2406.28103,0.01015
2404.22086,0.00999
2402.16069,0.00989
2400.10052,0.01015
2398.04034,0.01033
2395.98017,0.01026
2393.92000,0.01007
2391.85983,0.00978
2389.79966,0.00944
2387.73948,0.00927
2385.67931,0.00928
2383.61914,0.00941
2381.55897,0.00975
2379.49880,0.01013
2377.43862,0.01024
2375.37845,0.01029
2373.31828,0.01054
2371.25811,0.01074
2369.19793,0.01067
2367.13776,0.00961
2365.07759,0.00671
2363.01742,0.00349
2360.95725,0.00268
2358.89707,0.00433
2356.83690,0.00676
2354.77673,0.00857
2352.71656,0.00943
2350.65639,0.00982
2348.59621,0.00956
2346.53604,0.00886
2344.47587,0.00892
2342.41570,0.00984
2340.35552,0.01016
2338.29535,0.00981
2336.23518,0.00967
2334.17501,0.00997
2332.11484,0.01040
2330.05466,0.01054
2327.99449,0.01032
2325.93432,0.01021
2323.87415,0.01020
2321.81398,0.00990
2319.75380,0.00943
2317.69363,0.00901
2315.63346,0.00867
2313.57329,0.00850
2311.51312,0.00863
2309.45294,0.00894
2307.39277,0.00915
2305.33260,0.00909
2303.27243,0.00886
2301.21225,0.00853
2299.15208,0.00809
2297.09191,0.00787
2295.03174,0.00811
2292.97157,0.00844
2290.91139,0.00847
2288.85122,0.00836
2286.79105,0.00853
2284.73088,0.00901
2282.67071,0.00906
2280.61053,0.00835
2278.55036,0.00767
2276.49019,0.00749
2274.43002,0.00738
2272.36984,0.00710
2270.30967,0.00697
2268.24950,0.00716
2266.18933,0.00746
2264.12916,0.00752
2262.06898,0.00717
2260.00881,0.00662
2257.94864,0.00638
2255.88847,0.00647
2253.82830,0.00664
2251.76812,0.00694
2249.70795,0.00738
2247.64778,0.00759
2245.58761,0.00730
2243.52744,0.00693
2241.46726,0.00698
2239.40709,0.00726
2237.34692,0.00711
2235.28675,0.00623
2233.22657,0.00571
2231.16640,0.00605
2229.10623,0.00626
2227.04606,0.00608
2224.98589,0.00599
2222.92571,0.00617
2220.86554,0.00623
2218.80537,0.00600
2216.74520,0.00591
2214.68503,0.00568
2212.62485,0.00501
2210.56468,0.00462
2208.50451,0.00465
2206.44434,0.00432
2204.38417,0.00374
2202.32399,0.00330
2200.26382,0.00301
2198.20365,0.00336
2196.14348,0.00395
2194.08330,0.00392
2192.02313,0.00392
2189.96296,0.00435
2187.90279,0.00445
2185.84262,0.00464
2183.78244,0.00534
2181.72227,0.00610
2179.66210,0.00627
2177.60193,0.00590
2175.54176,0.00596
2173.48158,0.00555
2171.42141,0.00415
2169.36124,0.00424
2167.30107,0.00599
2165.24089,0.00606
2163.18072,0.00460
2161.12055,0.00434
2159.06038,0.00442
2157.00021,0.00355
2154.94003,0.00317
2152.87986,0.00333
2150.81969,0.00336
2148.75952,0.00384
2146.69935,0.00392
2144.63917,0.00315
2142.57900,0.00303
2140.51883,0.00370
2138.45866,0.00411
2136.39849,0.00376
2134.33831,0.00355
2132.27814,0.00398
2130.21797,0.00440
2128.15780,0.00450
2126.09762,0.00468
2124.03745,0.00533
2121.97728,0.00575
2119.91711,0.00565
2117.85694,0.00550
2115.79676,0.00519
2113.73659,0.00463
2111.67642,0.00423
2109.61625,0.00457
2107.55608,0.00559
2105.49590,0.00622
2103.43573,0.00560
2101.37556,0.00450
2099.31539,0.00411
2097.25521,0.00437
2095.19504,0.00471
2093.13487,0.00477
2091.07470,0.00494
2089.01453,0.00563
2086.95435,0.00606
2084.89418,0.00566
2082.83401,0.00490
2080.77384,0.00451
2078.71367,0.00488
2076.65349,0.00547
2074.59332,0.00582
2072.53315,0.00579
2070.47298,0.00536
2068.41281,0.00483
2066.35263,0.00448
2064.29246,0.00470
2062.23229,0.00529
2060.17212,0.00563
2058.11194,0.00586
2056.05177,0.00622
2053.99160,0.00660
2051.93143,0.00647
2049.87126,0.00514
2047.81108,0.00331
2045.75091,0.00276
2043.69074,0.00342
2041.63057,0.00350
2039.57040,0.00325
2037.51022,0.00379
2035.45005,0.00399
2033.38988,0.00255
2031.32971,0.00106
2029.26954,0.00089
2027.20936,0.00145
2025.14919,0.00291
2023.08902,0.00384
2021.02885,0.00270
2018.96867,0.00080
2016.90850,0.00000
2014.84833,0.00155
2012.78816,0.00391
2010.72799,0.00456
2008.66781,0.00380
2006.60764,0.00290
2004.54747,0.00222
2002.48730,0.00213
2000.42713,0.00266
1998.36695,0.00298
1996.30678,0.00253
1994.24661,0.00192
1992.18644,0.00191
1990.12626,0.00264
1988.06609,0.00361
1986.00592,0.00399
1983.94575,0.00417
1981.88558,0.00413
1979.82540,0.00325
1977.76523,0.00239
1975.70506,0.00198
1973.64489,0.00112
1971.58472,0.00000
1969.52454,0.00032
1967.46437,0.00230
1965.40420,0.00365
1963.34403,0.00302
1961.28386,0.00171
1959.22368,0.00169
1957.16351,0.00308
1955.10334,0.00401
1953.04317,0.00336
1950.98299,0.00243
1948.92282,0.00265
1946.86265,0.00351
1944.80248,0.00374
1942.74231,0.00309
1940.68213,0.00230
1938.62196,0.00195
1936.56179,0.00197
1934.50162,0.00206
1932.44145,0.00199
1930.38127,0.00189
1928.32110,0.00211
1926.26093,0.00268
1924.20076,0.00318
1922.14059,0.00315
1920.08041,0.00266
1918.02024,0.00215
1915.96007,0.00174
1913.89990,0.00140
1911.83972,0.00125
1909.77955,0.00142
1907.71938,0.00183
1905.65921,0.00212
1903.59904,0.00189
1901.53886,0.00138
1899.47869,0.00124
1897.41852,0.00155
1895.35835,0.00191
1893.29818,0.00206
1891.23800,0.00207
1889.17783,0.00182
1887.11766,0.00130
1885.05749,0.00093
1882.99731,0.00096
1880.93714,0.00116
1878.87697,0.00133
1876.81680,0.00137
1874.75663,0.00109
1872.69645,0.00077
1870.63628,0.00088
1868.57611,0.00131
1866.51594,0.00150
1864.45577,0.00118
1862.39559,0.00062
1860.33542,0.00051
1858.27525,0.00101
1856.21508,0.00140
1854.15491,0.00130
1852.09473,0.00111
1850.03456,0.00114
1847.97439,0.00124
1845.91422,0.00118
1843.85404,0.00088
1841.79387,0.00053
1839.73370,0.00035
1837.67353,0.00041
1835.61336,0.00051
1833.55318,0.00054
1831.49301,0.00066
1829.43284,0.00081
1827.37267,0.00068
1825.31250,0.00048
1823.25232,0.00038
1821.19215,0.00020
1819.13198,0.00000
1817.07181,-0.00004
1815.01163,0.00001
1812.95146,-0.00002
1810.89129,-0.00014
1808.83112,-0.00023
1806.77095,-0.00013
1804.71077,0.00010
1802.65060,0.00025
1800.59043,0.00019
1798.53026,0.00002
1796.47009,-0.00009
1794.40991,-0.00006
1792.34974,0.00002
1790.28957,-0.00007
1788.22940,-0.00022
1786.16923,-0.00018
1784.10905,0.00004
1782.04888,0.00017
1779.98871,0.00010
1777.92854,0.00000
1775.86836,-0.00002
1773.80819,0.00008
1771.74802,0.00011
1769.68785,0.00018
1767.62768,0.00036
1765.56750,0.00056
1763.50733,0.00092
1761.44716,0.00170
1759.38699,0.00267
1757.32682,0.00361
1755.26664,0.00472
1753.20647,0.00606
1751.14630,0.00771
1749.08613,0.00979
1747.02596,0.01229
1744.96578,0.01522
1742.90561,0.01883
1740.84544,0.02315
1738.78527,0.02760
1736.72509,0.03139
1734.66492,0.03481
1732.60475,0.03768
1730.54458,0.03889
1728.48441,0.03887
1726.42423,0.03841
1724.36406,0.03782
1722.30389,0.03738
1720.24372,0.03722
1718.18355,0.03694
1716.12337,0.03626
1714.06320,0.03566
1712.00303,0.03530
1709.94286,0.03492
1707.88268,0.03443
1705.82251,0.03373
1703.76234,0.03286
1701.70217,0.03202
1699.64200,0.03121
1697.58182,0.03034
1695.52165,0.02931
1693.46148,0.02851
1691.40131,0.02826
1689.34114,0.02826
1687.28096,0.02837
1685.22079,0.02842
1683.16062,0.02804
1681.10045,0.02753
1679.04028,0.02737
1676.98010,0.02751
1674.91993,0.02788
1672.85976,0.02853
1670.79959,0.02951
1668.73941,0.03061
1666.67924,0.03160
1664.61907,0.03258
1662.55890,0.03377
1660.49873,0.03521
1658.43855,0.03666
1656.37838,0.03799
1654.31821,0.03920
1652.25804,0.04024
1650.19787,0.04108
1648.13769,0.04165
1646.07752,0.04162
1644.01735,0.04137
1641.95718,0.04154
1639.89701,0.04215
1637.83683,0.04286
1635.77666,0.04338
1633.71649,0.04383
1631.65632,0.04442
1629.59614,0.04513
1627.53597,0.04595
1625.47580,0.04679
1623.41563,0.04743
1621.35546,0.04788
1619.29528,0.04855
1617.23511,0.04953
1615.17494,0.05051
1613.11477,0.05140
1611.05460,0.05226
1608.99442,0.05290
1606.93425,0.05311
1604.87408,0.05293
1602.81391,0.05242
1600.75373,0.05160
1598.69356,0.05054
1596.63339,0.04927
1594.57322,0.04777
1592.51305,0.04604
1590.45287,0.04416
1588.39270,0.04223
1586.33253,0.04025
1584.27236,0.03826
1582.21219,0.03637
1580.15201,0.03471
1578.09184,0.03301
1576.03167,0.03093
1573.97150,0.02916
1571.91133,0.02809
1569.85115,0.02696
1567.79098,0.02556
1565.73081,0.02441
1563.67064,0.02376
1561.61046,0.02363
1559.55029,0.02355
1557.49012,0.02293
1555.42995,0.02236
1553.36978,0.02220
1551.30960,0.02232
1549.24943,0.02254
1547.18926,0.02280
1545.12909,0.02298
1543.06892,0.02284
1541.00874,0.02216
1538.94857,0.02137
1536.88840,0.02116
1534.82823,0.02108
1532.76805,0.02039
1530.70788,0.01946
1528.64771,0.01876
1526.58754,0.01799
1524.52737,0.01705
1522.46719,0.01645
1520.40702,0.01655
1518.34685,0.01696
1516.28668,0.01704
1514.22651,0.01673
1512.16633,0.01638
1510.10616,0.01592
1508.04599,0.01453
1505.98582,0.01206
1503.92565,0.01029
1501.86547,0.00942
1499.80530,0.00862
1497.74513,0.00743
1495.68496,0.00601
1493.62478,0.00500
1491.56461,0.00438
1489.50444,0.00358
1487.44427,0.00261
1485.38410,0.00194
1483.32392,0.00176
1481.26375,0.00204
1479.20358,0.00280
1477.14341,0.00424
1475.08324,0.00678
1473.02306,0.01025
1470.96289,0.01354
1468.90272,0.01618
1466.84255,0.01884
1464.78238,0.02156
1462.72220,0.02352
1460.66203,0.02471
1458.60186,0.02600
1456.54169,0.02784
1454.48151,0.02954
1452.42134,0.03073
1450.36117,0.03165
1448.30100,0.03247
1446.24083,0.03318
1444.18065,0.03370
1442.12048,0.03398
1440.06031,0.03385
1438.00014,0.03302
1435.93997,0.03152
1433.87979,0.03010
1431.81962,0.02899
1429.75945,0.02778
1427.69928,0.02659
1425.63910,0.02588
1423.57893,0.02566
1421.51876,0.02572
1419.45859,0.02578
1417.39842,0.02567
1415.33824,0.02549
1413.27807,0.02526
1411.21790,0.02496
1409.15773,0.02462
1407.09756,0.02434
1405.03738,0.02424
1402.97721,0.02439
1400.91704,0.02462
1398.85687,0.02473
1396.79670,0.02471
1394.73652,0.02478
1392.67635,0.02509
1390.61618,0.02560
1388.55601,0.02614
1386.49583,0.02667
1384.43566,0.02727
1382.37549,0.02805
1380.31532,0.02900
1378.25515,0.03001
1376.19497,0.03099
1374.13480,0.03181
1372.07463,0.03242
1370.01446,0.03294
1367.95429,0.03338
1365.89411,0.03363
1363.83394,0.03373
1361.77377,0.03377
1359.71360,0.03382
1357.65343,0.03395
1355.59325,0.03420
1353.53308,0.03456
1351.47291,0.03489
1349.41274,0.03517
1347.35256,0.03546
1345.29239,0.03579
1343.23222,0.03618
1341.17205,0.03661
1339.11188,0.03696
1337.05170,0.03726
1334.99153,0.03758
1332.93136,0.03800
1330.87119,0.03852
1328.81102,0.03904
1326.75084,0.03947
1324.69067,0.03985
1322.63050,0.04026
1320.57033,0.04068
1318.51015,0.04092
1316.44998,0.04087
1314.38981,0.04057
1312.32964,0.04002
1310.26947,0.03910
1308.20929,0.03779
1306.14912,0.03621
1304.08895,0.03445
1302.02878,0.03245
1299.96861,0.03033
1297.90843,0.02825
1295.84826,0.02633
1293.78809,0.02461
1291.72792,0.02320
1289.66775,0.02221
1287.60757,0.02155
1285.54740,0.02105
1283.48723,0.02077
1281.42706,0.02077
1279.36688,0.02071
1277.30671,0.02047
1275.24654,0.02046
1273.18637,0.02091
1271.12620,0.02150
1269.06602,0.02203
1267.00585,0.02264
1264.94568,0.02331
1262.88551,0.02403
1260.82534,0.02476
1258.76516,0.02547
1256.70499,0.02624
1254.64482,0.02704
1252.58465,0.02771
1250.52447,0.02828
1248.46430,0.02887
1246.40413,0.02954
1244.34396,0.03034
1242.28379,0.03122
1240.22361,0.03205
1238.16344,0.03286
1236.10327,0.03371
1234.04310,0.03456
1231.98293,0.03532
1229.92275,0.03599
1227.86258,0.03669
1225.80241,0.03740
1223.74224,0.03812
1221.68207,0.03902
1219.62189,0.03994
1217.56172,0.04059
1215.50155,0.04114
1213.44138,0.04185
1211.38120,0.04268
1209.32103,0.04362
1207.26086,0.04453
1205.20069,0.04524
1203.14052,0.04606
1201.08034,0.04714
1199.02017,0.04788
1196.96000,0.04806
1194.89983,0.04796
1192.83966,0.04762
1190.77948,0.04707
1188.71931,0.04648
1186.65914,0.04572
1184.59897,0.04467
1182.53880,0.04365
1180.47862,0.04289
1178.41845,0.04241
1176.35828,0.04215
1174.29811,0.04196
1172.23793,0.04187
1170.17776,0.04194
1168.11759,0.04207
1166.05742,0.04204
1163.99725,0.04182
1161.93707,0.04146
1159.87690,0.04085
1157.81673,0.04011
1155.75656,0.03955
1153.69639,0.03916
1151.63621,0.03872
1149.57604,0.03825
1147.51587,0.03776
1145.45570,0.03712
1143.39552,0.03622
1141.33535,0.03505
1139.27518,0.03384
1137.21501,0.03300
1135.15484,0.03256
1133.09466,0.03239
1131.03449,0.03252
1128.97432,0.03293
1126.91415,0.03368
1124.85398,0.03499
1122.79380,0.03677
1120.73363,0.03888
1118.67346,0.04121
1116.61329,0.04370
1114.55312,0.04649
1112.49294,0.04971
1110.43277,0.05318
1108.37260,0.05661
1106.31243,0.05995
1104.25225,0.06298
1102.19208,0.06524
1100.13191,0.06684
1098.07174,0.06820
1096.01157,0.06945
1093.95139,0.07078
1091.89122,0.07249
1089.83105,0.07448
1087.77088,0.07645
1085.71071,0.07857
1083.65053,0.08107
1081.59036,0.08374
1079.53019,0.08635
1077.47002,0.08871
1075.40985,0.09068
1073.34967,0.09248
1071.28950,0.09419
1069.22933,0.09570
1067.16916,0.09703
1065.10898,0.09862
1063.04881,0.10072
1060.98864,0.10271
1058.92847,0.10433
1056.86830,0.10609
1054.80812,0.10814
1052.74795,0.11027
1050.68778,0.11252
1048.62761,0.11475
1046.56744,0.11663
1044.50726,0.11835
1042.44709,0.12023
1040.38692,0.12250
1038.32675,0.12521
1036.26657,0.12799
1034.20640,0.13068
1032.14623,0.13317
1030.08606,0.13497
1028.02589,0.13608
1025.96571,0.13697
1023.90554,0.13758
1021.84537,0.13770
1019.78520,0.13738
1017.72503,0.13673
1015.66485,0.13586
1013.60468,0.13496
1011.54451,0.13379
1009.48434,0.13198
1007.42417,0.12972
1005.36399,0.12732
1003.30382,0.12473
1001.24365,0.12186
999.18348,0.11872
997.12330,0.11539
995.06313,0.11239
993.00296,0.10997
990.94279,0.10750
988.88262,0.10443
986.82244,0.10100
984.76227,0.09748
982.70210,0.09386
980.64193,0.09013
978.58176,0.08661
976.52158,0.08360
974.46141,0.08069
972.40124,0.07759
970.34107,0.07483
968.28089,0.07258
966.22072,0.07059
964.16055,0.06872
962.10038,0.06662
960.04021,0.06395
957.98003,0.06083
955.91986,0.05772
953.85969,0.05469
951.79952,0.05169
949.73935,0.04887
947.67917,0.04626
945.61900,0.04359
943.55883,0.04086
941.49866,0.03848
939.43849,0.03675
937.37831,0.03547
935.31814,0.03420
933.25797,0.03294
931.19780,0.03206
929.13762,0.03157
927.07745,0.03118
925.01728,0.03064
922.95711,0.02978
920.89694,0.02843
918.83676,0.02678
916.77659,0.02541
914.71642,0.02421
912.65625,0.02278
910.59608,0.02139
908.53590,0.02036
906.47573,0.01956
904.41556,0.01868
902.35539,0.01790
900.29522,0.01745
898.23504,0.01716
896.17487,0.01670
894.11470,0.01586
892.05453,0.01491
889.99435,0.01408
887.93418,0.01328
885.87401,0.01251
883.81384,0.01201
881.75367,0.01191
879.69349,0.01195
877.63332,0.01207
875.57315,0.01238
873.51298,0.01272
871.45281,0.01292
869.39263,0.01276
867.33246,0.01192
865.27229,0.01073
863.21212,0.00966
861.15194,0.00845
859.09177,0.00667
857.03160,0.00471
854.97143,0.00316
852.91126,0.00194
850.85108,0.00104
848.79091,0.00061
846.73074,0.00044
844.67057,0.00041
842.61040,0.00063
840.55022,0.00116
838.49005,0.00176
836.42988,0.00208
834.36971,0.00232
832.30954,0.00290
830.24936,0.00368
828.18919,0.00411
826.12902,0.00398
824.06885,0.00407
822.00867,0.00503
819.94850,0.00619
817.88833,0.00678
815.82816,0.00705
813.76799,0.00692
811.70781,0.00604
809.64764,0.00481
807.58747,0.00387
805.52730,0.00325
803.46713,0.00271
801.40695,0.00210
799.34678,0.00102
797.28661,0.00000
795.22644,-0.00015
793.16627,0.00090
791.10609,0.00198
789.04592,0.00309
786.98575,0.00396
784.92558,0.00427
782.86540,0.00484
780.80523,0.00568
778.74506,0.00622
776.68489,0.00677
774.62472,0.00719
772.56454,0.00735
770.50437,0.00777
768.44420,0.00805
766.38403,0.00813
764.32386,0.00936
762.26368,0.01158
760.20351,0.01312
758.14334,0.01400
756.08317,0.01483
754.02299,0.01481
751.96282,0.01365
749.90265,0.01185
747.84248,0.00995
745.78231,0.00836
743.72213,0.00721
741.66196,0.00680
739.60179,0.00683
737.54162,0.00622
735.48145,0.00498
733.42127,0.00441
731.36110,0.00451
729.30093,0.00414
727.24076,0.00331
725.18059,0.00253
723.12041,0.00231
721.06024,0.00283
719.00007,0.00326
716.93990,0.00284
714.87972,0.00190
712.81955,0.00085
710.75938,0.00001
708.69921,-0.00018
706.63904,0.00029
704.57886,0.00088
702.51869,0.00130
700.45852,0.00159
698.39835,0.00160
696.33818,0.00101
694.27800,0.00008
692.21783,-0.00009
690.15766,0.00024
688.09749,-0.00022
686.03731,-0.00121
683.97714,-0.00187
681.91697,-0.00221
679.85680,-0.00247
677.79663,-0.00222
675.73645,-0.00141
673.67628,-0.00058
671.61611,0.00061
669.55594,0.00264
667.49577,0.00418
665.43559,0.00356
663.37542,0.00156
661.31525,-0.00014
659.25508,-0.00015
657.19491,0.00100
655.13473,0.00106
653.07456,-0.00067
651.01439,-0.00169
648.95422,0.00000
646.89404,0.00277
644.83387,0.00424
642.77370,0.00348
640.71353,0.00203
638.65336,0.00167
636.59318,0.00215
634.53301,0.00244
632.47284,0.00200
630.41267,0.00105
628.35250,0.00043
626.29232,0.00052
624.23215,0.00017
622.17198,-0.00128
620.11181,-0.00280
618.05164,-0.00354
615.99146,-0.00312
613.93129,-0.00180
611.87112,-0.00149
609.81095,-0.00279
607.75077,-0.00354
605.69060,-0.00254
603.63043,-0.00178
601.57026,-0.00169
599.51009,0.00000
