3996.73391,0.00038
3994.67373,0.00049
3992.61356,0.00061
3990.55339,0.00072
3988.49322,0.00075
3986.43305,0.00060
3984.37287,0.00041
3982.31270,0.00053
3980.25253,0.00087
3978.19236,0.00094
3976.13219,0.00048
3974.07201,0.00000
3972.01184,0.00014
3969.95167,0.00073
3967.89150,0.00103
3965.83133,0.00088
3963.77115,0.00072
3961.71098,0.00070
3959.65081,0.00067
3957.59064,0.00066
3955.53046,0.00068
3953.47029,0.00067
3951.41012,0.00064
3949.34995,0.00054
3947.28978,0.00035
3945.22960,0.00045
3943.16943,0.00103
3941.10926,0.00162
3939.04909,0.00174
3936.98892,0.00141
3934.92874,0.00088
3932.86857,0.00057
3930.80840,0.00073
3928.74823,0.00102
3926.68805,0.00112
3924.62788,0.00117
3922.56771,0.00123
3920.50754,0.00113
3918.44737,0.00098
3916.38719,0.00095
3914.32702,0.00086
3912.26685,0.00064
3910.20668,0.00048
3908.14651,0.00053
3906.08633,0.00058
3904.02616,0.00054
3901.96599,0.00075
3899.90582,0.00108
3897.84565,0.00093
3895.78547,0.00035
3893.72530,0.00000
3891.66513,0.00021
3889.60496,0.00062
3887.54478,0.00077
3885.48461,0.00071
3883.42444,0.00069
3881.36427,0.00076
3879.30410,0.00080
3877.24392,0.00079
3875.18375,0.00072
3873.12358,0.00051
3871.06341,0.00029
3869.00324,0.00043
3866.94306,0.00091
3864.88289,0.00118
3862.82272,0.00099
3860.76255,0.00066
3858.70237,0.00068
3856.64220,0.00105
3854.58203,0.00122
3852.52186,0.00075
3850.46169,0.00021
3848.40151,0.00019
3846.34134,0.00056
3844.28117,0.00095
3842.22100,0.00136
3840.16083,0.00176
3838.10065,0.00187
3836.04048,0.00150
3833.98031,0.00087
3831.92014,0.00049
3829.85997,0.00057
3827.79979,0.00083
3825.73962,0.00105
3823.67945,0.00110
3821.61928,0.00090
3819.55910,0.00083
3817.49893,0.00109
3815.43876,0.00133
3813.37859,0.00142
3811.31842,0.00128
3809.25824,0.00082
3807.19807,0.00028
3805.13790,0.00001
3803.07773,0.00003
3801.01756,0.00018
3798.95738,0.00046
3796.89721,0.00080
3794.83704,0.00099
3792.77687,0.00101
3790.71670,0.00095
3788.65652,0.00078
3786.59635,0.00063
3784.53618,0.00053
3782.47601,0.00030
3780.41583,0.00024
3778.35566,0.00067
3776.29549,0.00103
3774.23532,0.00097
3772.17515,0.00074
3770.11497,0.00049
3768.05480,0.00018
3765.99463,0.00000
3763.93446,0.00010
3761.87429,0.00039
3759.81411,0.00085
3757.75394,0.00122
3755.69377,0.00119
3753.63360,0.00114
3751.57342,0.00128
3749.51325,0.00110
3747.45308,0.00075
3745.39291,0.00090
3743.33274,0.00117
3741.27256,0.00091
3739.21239,0.00054
3737.15222,0.00039
3735.09205,0.00023
3733.03188,-0.00003
3730.97170,0.00005
3728.91153,0.00036
3726.85136,0.00045
3724.79119,0.00026
3722.73102,0.00011
3720.67084,0.00008
3718.61067,0.00005
3716.55050,0.00016
3714.49033,0.00032
3712.43015,0.00033
3710.36998,0.00032
3708.30981,0.00023
3706.24964,0.00000
3704.18947,0.00000
3702.12929,0.00049
3700.06912,0.00106
3698.00895,0.00113
3695.94878,0.00081
3693.88861,0.00076
3691.82843,0.00128
3689.76826,0.00172
3687.70809,0.00147
3685.64792,0.00090
3683.58775,0.00045
3681.52757,0.00028
3679.46740,0.00030
3677.40723,0.00030
3675.34706,0.00048
3673.28688,0.00087
3671.22671,0.00094
3669.16654,0.00089
3667.10637,0.00110
3665.04620,0.00141
3662.98602,0.00164
3660.92585,0.00175
3658.86568,0.00162
3656.80551,0.00146
3654.74534,0.00179
3652.68516,0.00249
3650.62499,0.00299
3648.56482,0.00312
3646.50465,0.00324
3644.44447,0.00357
3642.38430,0.00376
3640.32413,0.00360
3638.26396,0.00357
3636.20379,0.00398
3634.14361,0.00453
3632.08344,0.00492
3630.02327,0.00507
3627.96310,0.00487
3625.90293,0.00445
3623.84275,0.00427
3621.78258,0.00457
3619.72241,0.00527
3617.66224,0.00610
3615.60207,0.00677
3613.54189,0.00712
3611.48172,0.00711
3609.42155,0.00689
3607.36138,0.00682
3605.30120,0.00707
3603.24103,0.00743
3601.18086,0.00775
3599.12069,0.00811
3597.06052,0.00844
3595.00034,0.00869
3592.94017,0.00899
3590.88000,0.00949
3588.81983,0.01022
3586.75966,0.01096
3584.69948,0.01143
3582.63931,0.01164
3580.57914,0.01169
3578.51897,0.01169
3576.45879,0.01183
3574.39862,0.01224
3572.33845,0.01289
3570.27828,0.01351
3568.21811,0.01396
3566.15793,0.01425
3564.09776,0.01459
3562.03759,0.01504
3559.97742,0.01549
3557.91725,0.01579
3555.85707,0.01594
3553.79690,0.01611
3551.73673,0.01644
3549.67656,0.01693
3547.61639,0.01758
3545.55621,0.01843
3543.49604,0.01918
3541.43587,0.01963
3539.37570,0.01994
3537.31552,0.02035
3535.25535,0.02089
3533.19518,0.02143
3531.13501,0.02188
3529.07484,0.02217
3527.01466,0.02242
3524.95449,0.02285
3522.89432,0.02339
3520.83415,0.02393
3518.77398,0.02434
3516.71380,0.02457
3514.65363,0.02499
3512.59346,0.02581
3510.53329,0.02654
3508.47312,0.02674
3506.41294,0.02677
3504.35277,0.02704
3502.29260,0.02751
3500.23243,0.02807
3498.17225,0.02856
3496.11208,0.02888
3494.05191,0.02912
3491.99174,0.02933
3489.93157,0.02962
3487.87139,0.03026
3485.81122,0.03126
3483.75105,0.03218
3481.69088,0.03257
3479.63071,0.03252
3477.57053,0.03260
3475.51036,0.03290
3473.45019,0.03319
3471.39002,0.03348
3469.32984,0.03381
3467.26967,0.03424
3465.20950,0.03470
3463.14933,0.03502
3461.08916,0.03531
3459.02898,0.03595
3456.96881,0.03676
3454.90864,0.03726
3452.84847,0.03769
3450.78830,0.03837
3448.72812,0.03886
3446.66795,0.03899
3444.60778,0.03920
3442.54761,0.03978
3440.48744,0.04049
3438.42726,0.04105
3436.36709,0.04142
3434.30692,0.04164
3432.24675,0.04176
3430.18657,0.04185
3428.12640,0.04210
3426.06623,0.04248
3424.00606,0.04270
3421.94589,0.04295
3419.88571,0.04344
3417.82554,0.04409
3415.76537,0.04481
3413.70520,0.04532
3411.64503,0.04541
3409.58485,0.04540
3407.52468,0.04580
3405.46451,0.04637
3403.40434,0.04672
3401.34416,0.04699
3399.28399,0.04707
3397.22382,0.04685
3395.16365,0.04700
3393.10348,0.04770
3391.04330,0.04822
3388.98313,0.04835
3386.92296,0.04848
3384.86279,0.04885
3382.80262,0.04932
3380.74244,0.04958
3378.68227,0.04970
3376.62210,0.04994
3374.56193,0.05023
3372.50176,0.05054
3370.44158,0.05078
3368.38141,0.05081
3366.32124,0.05095
3364.26107,0.05141
3362.20089,0.05179
3360.14072,0.05208
3358.08055,0.05247
3356.02038,0.05281
3353.96021,0.05293
3351.90003,0.05291
3349.83986,0.05290
3347.77969,0.05305
3345.71952,0.05328
3343.65935,0.05355
3341.59917,0.05398
3339.53900,0.05443
3337.47883,0.05458
3335.41866,0.05443
3333.35849,0.05435
3331.29831,0.05464
3329.23814,0.05508
3327.17797,0.05529
3325.11780,0.05523
3323.05762,0.05523
3320.99745,0.05543
3318.93728,0.05556
3316.87711,0.05539
3314.81694,0.05508
3312.75676,0.05488
3310.69659,0.05482
3308.63642,0.05497
3306.57625,0.05543
3304.51608,0.05595
3302.45590,0.05617
3300.39573,0.05617
3298.33556,0.05616
3296.27539,0.05603
3294.21521,0.05587
3292.15504,0.05593
3290.09487,0.05606
3288.03470,0.05620
3285.97453,0.05641
3283.91435,0.05653
3281.85418,0.05655
3279.79401,0.05662
3277.73384,0.05679
3275.67367,0.05683
3273.61349,0.05666
3271.55332,0.05651
3269.49315,0.05617
3267.43298,0.05558
3265.37281,0.05550
3263.31263,0.05588
3261.25246,0.05604
3259.19229,0.05606
3257.13212,0.05601
3255.07194,0.05568
3253.01177,0.05532
3250.95160,0.05526
3248.89143,0.05543
3246.83126,0.05553
3244.77108,0.05515
3242.71091,0.05452
3240.65074,0.05435
3238.59057,0.05453
3236.53040,0.05446
3234.47022,0.05420
3232.41005,0.05410
3230.34988,0.05403
3228.28971,0.05378
3226.22954,0.05359
3224.16936,0.05359
3222.10919,0.05344
3220.04902,0.05315
3217.98885,0.05315
3215.92867,0.05323
3213.86850,0.05308
3211.80833,0.05280
3209.74816,0.05252
3207.68799,0.05237
3205.62781,0.05230
3203.56764,0.05212
3201.50747,0.05184
3199.44730,0.05157
3197.38713,0.05138
3195.32695,0.05136
3193.26678,0.05143
3191.20661,0.05131
3189.14644,0.05092
3187.08626,0.05040
3185.02609,0.04995
3182.96592,0.04959
3180.90575,0.04930
3178.84558,0.04916
3176.78540,0.04904
3174.72523,0.04876
3172.66506,0.04843
3170.60489,0.04824
3168.54472,0.04816
3166.48454,0.04796
3164.42437,0.04754
3162.36420,0.04715
3160.30403,0.04697
3158.24386,0.04686
3156.18368,0.04673
3154.12351,0.04666
3152.06334,0.04652
3150.00317,0.04611
3147.94299,0.04569
3145.88282,0.04551
3143.82265,0.04547
3141.76248,0.04534
3139.70231,0.04509
3137.64213,0.04487
3135.58196,0.04463
3133.52179,0.04435
3131.46162,0.04414
3129.40145,0.04385
3127.34127,0.04337
3125.28110,0.04296
3123.22093,0.04276
3121.16076,0.04264
3119.10058,0.04246
3117.04041,0.04210
3114.98024,0.04172
3112.92007,0.04154
3110.85990,0.04142
3108.79972,0.04120
3106.73955,0.04096
3104.67938,0.04065
3102.61921,0.04010
3100.55904,0.03961
3098.49886,0.03947
3096.43869,0.03947
3094.37852,0.03939
3092.31835,0.03918
3090.25818,0.03898
3088.19800,0.03889
3086.13783,0.03881
3084.07766,0.03870
3082.01749,0.03858
3079.95731,0.03852
3077.89714,0.03844
3075.83697,0.03813
3073.77680,0.03756
3071.71663,0.03701
3069.65645,0.03663
3067.59628,0.03632
3065.53611,0.03606
3063.47594,0.03582
3061.41577,0.03569
3059.35559,0.03570
3057.29542,0.03553
3055.23525,0.03507
3053.17508,0.03467
3051.11491,0.03435
3049.05473,0.03390
3046.99456,0.03343
3044.93439,0.03321
3042.87422,0.03320
3040.81404,0.03317
3038.75387,0.03293
3036.69370,0.03275
3034.63353,0.03276
3032.57336,0.03251
3030.51318,0.03190
3028.45301,0.03147
3026.39284,0.03143
3024.33267,0.03132
3022.27250,0.03098
3020.21232,0.03068
3018.15215,0.03043
3016.09198,0.03026
3014.03181,0.03025
3011.97163,0.03026
3009.91146,0.03017
3007.85129,0.03005
3005.79112,0.02990
3003.73095,0.02965
3001.67077,0.02938
2999.61060,0.02920
2997.55043,0.02905
2995.49026,0.02893
2993.43009,0.02878
2991.36991,0.02856
2989.30974,0.02869
2987.24957,0.02915
2985.18940,0.02956
2983.12923,0.02972
2981.06905,0.02992
2979.00888,0.03048
2976.94871,0.03101
2974.88854,0.03136
2972.82836,0.03193
2970.76819,0.03268
2968.70802,0.03350
2966.64785,0.03440
2964.58768,0.03542
2962.52750,0.03655
2960.46733,0.03773
2958.40716,0.03900
2956.34699,0.04044
2954.28682,0.04173
2952.22664,0.04280
2950.16647,0.04394
2948.10630,0.04541
2946.04613,0.04713
2943.98596,0.04889
2941.92578,0.05095
2939.86561,0.05352
2937.80544,0.05622
2935.74527,0.05873
2933.68509,0.06117
2931.62492,0.06367
2929.56475,0.06617
2927.50458,0.06854
2925.44441,0.07074
2923.38423,0.07282
2921.32406,0.07494
2919.26389,0.07686
2917.20372,0.07733
2915.14355,0.07539
2913.08337,0.07144
2911.02320,0.06676
2908.96303,0.06271
2906.90286,0.05971
2904.84268,0.05747
2902.78251,0.05570
2900.72234,0.05404
2898.66217,0.05244
2896.60200,0.05104
2894.54182,0.04979
2892.48165,0.04873
2890.42148,0.04769
2888.36131,0.04646
2886.30114,0.04531
2884.24096,0.04428
2882.18079,0.04322
2880.12062,0.04260
2878.06045,0.04254
2876.00028,0.04245
2873.94010,0.04220
2871.87993,0.04221
2869.81976,0.04250
2867.75959,0.04301
2865.69941,0.04411
2863.63924,0.04588
2861.57907,0.04792
2859.51890,0.05007
2857.45873,0.05250
2855.39855,0.05522
2853.33838,0.05809
2851.27821,0.06086
2849.21804,0.06178
2847.15787,0.05888
2845.09769,0.05305
2843.03752,0.04707
2840.97735,0.04259
2838.91718,0.03964
2836.85700,0.03758
2834.79683,0.03590
2832.73666,0.03433
2830.67649,0.03300
2828.61632,0.03208
2826.55614,0.03151
2824.49597,0.03110
2822.43580,0.03063
2820.37563,0.03014
2818.31546,0.02978
2816.25528,0.02939
2814.19511,0.02894
2812.13494,0.02859
2810.07477,0.02816
2808.01460,0.02753
2805.95442,0.02705
2803.89425,0.02692
2801.83408,0.02692
2799.77391,0.02676
2797.71373,0.02646
2795.65356,0.02619
2793.59339,0.02591
2791.53322,0.02572
2789.47305,0.02569
2787.41287,0.02565
2785.35270,0.02556
2783.29253,0.02540
2781.23236,0.02523
2779.17219,0.02507
2777.11201,0.02474
2775.05184,0.02428
2772.99167,0.02397
2770.93150,0.02379
2768.87133,0.02380
2766.81115,0.02383
2764.75098,0.02364
2762.69081,0.02349
2760.63064,0.02335
2758.57046,0.02307
2756.51029,0.02282
2754.45012,0.02274
2752.38995,0.02293
2750.32978,0.02319
2748.26960,0.02306
2746.20943,0.02276
2744.14926,0.02263
2742.08909,0.02253
2740.02892,0.02239
2737.96874,0.02237
2735.90857,0.02251
2733.84840,0.02256
2731.78823,0.02252
2729.72805,0.02249
2727.66788,0.02241
2725.60771,0.02234
2723.54754,0.02236
2721.48737,0.02240
2719.42719,0.02229
2717.36702,0.02205
2715.30685,0.02193
2713.24668,0.02185
2711.18651,0.02163
2709.12633,0.02140
2707.06616,0.02134
2705.00599,0.02134
2702.94582,0.02118
2700.88565,0.02092
2698.82547,0.02092
2696.76530,0.02107
2694.70513,0.02095
2692.64496,0.02067
2690.58478,0.02051
2688.52461,0.02044
2686.46444,0.02039
2684.40427,0.02043
2682.34410,0.02061
2680.28392,0.02077
2678.22375,0.02071
2676.16358,0.02053
2674.10341,0.02029
2672.04324,0.01995
2669.98306,0.01969
2667.92289,0.01958
2665.86272,0.01953
2663.80255,0.01955
2661.74238,0.01954
2659.68220,0.01938
2657.62203,0.01922
2655.56186,0.01919
2653.50169,0.01916
2651.44151,0.01890
2649.38134,0.01864
2647.32117,0.01864
2645.26100,0.01869
2643.20083,0.01862
2641.14065,0.01846
2639.08048,0.01817
2637.02031,0.01779
2634.96014,0.01759
2632.89997,0.01768
2630.83979,0.01779
2628.77962,0.01757
2626.71945,0.01710
2624.65928,0.01677
2622.59910,0.01668
2620.53893,0.01673
2618.47876,0.01686
2616.41859,0.01683
2614.35842,0.01653
2612.29824,0.01618
2610.23807,0.01592
2608.17790,0.01585
2606.11773,0.01596
2604.05756,0.01609
2601.99738,0.01605
2599.93721,0.01592
2597.87704,0.01582
2595.81687,0.01575
2593.75670,0.01579
2591.69652,0.01572
2589.63635,0.01550
2587.57618,0.01534
2585.51601,0.01523
2583.45583,0.01518
2581.39566,0.01516
2579.33549,0.01506
2577.27532,0.01505
2575.21515,0.01505
2573.15497,0.01482
2571.09480,0.01462
2569.03463,0.01459
2566.97446,0.01453
2564.91429,0.01432
2562.85411,0.01410
2560.79394,0.01417
2558.73377,0.01436
2556.67360,0.01418
2554.61342,0.01369
2552.55325,0.01344
2550.49308,0.01350
2548.43291,0.01337
2546.37274,0.01310
2544.31256,0.01299
2542.25239,0.01327
2540.19222,0.01393
2538.13205,0.01428
2536.07188,0.01391
2534.01170,0.01319
2531.95153,0.01264
2529.89136,0.01237
2527.83119,0.01226
2525.77102,0.01235
2523.71084,0.01268
2521.65067,0.01322
2519.59050,0.01355
2517.53033,0.01318
2515.47015,0.01251
2513.40998,0.01211
2511.34981,0.01189
2509.28964,0.01200
2507.22947,0.01233
2505.16929,0.01228
2503.10912,0.01183
2501.04895,0.01142
2498.98878,0.01145
2496.92861,0.01197
2494.86843,0.01234
2492.80826,0.01224
2490.74809,0.01211
2488.68792,0.01215
2486.62775,0.01192
2484.56757,0.01135
2482.50740,0.01118
2480.44723,0.01151
2478.38706,0.01177
2476.32688,0.01179
2474.26671,0.01157
2472.20654,0.01137
2470.14637,0.01130
2468.08620,0.01126
2466.02602,0.01122
2463.96585,0.01107
2461.90568,0.01086
2459.84551,0.01074
2457.78534,0.01066
2455.72516,0.01055
2453.66499,0.01035
2451.60482,0.01004
2449.54465,0.00988
2447.48447,0.01009
2445.42430,0.01044
2443.36413,0.01054
2441.30396,0.01047
2439.24379,0.01032
2437.18361,0.00991
2435.12344,0.00957
2433.06327,0.00977
2431.00310,0.00998
2428.94293,0.00979
2426.88275,0.00964
2424.82258,0.00968
2422.76241,0.00951
2420.70224,0.00918
2418.64207,0.00916
2416.58189,0.00935
2414.52172,0.00929
2412.46155,0.00922
2410.40138,0.00923
2408.34120,0.00917
2406.28103,0.00906
2404.22086,0.00892
2402.16069,0.00890
2400.10052,0.00909
2398.04034,0.00918
2395.98017,0.00906
2393.92000,0.00887
2391.85983,0.00887
2389.79966,0.00896
2387.73948,0.00890
2385.67931,0.00873
2383.61914,0.00856
2381.55897,0.00837
2379.49880,0.00828
2377.43862,0.00827
2375.37845,0.00791
2373.31828,0.00751
2371.25811,0.00777
2369.19793,0.00800
2367.13776,0.00692
2365.07759,0.00517
2363.01742,0.00447
2360.95725,0.00555
2358.89707,0.00599
2356.83690,0.00577
2354.77673,0.00564
2352.71656,0.00609
2350.65639,0.00804
2348.59621,0.00937
2346.53604,0.00786
2344.47587,0.00734
2342.41570,0.00853
2340.35552,0.00962
2338.29535,0.00942
2336.23518,0.00839
2334.17501,0.00729
2332.11484,0.00659
2330.05466,0.00708
2327.99449,0.00799
2325.93432,0.00830
2323.87415,0.00771
2321.81398,0.00780
2319.75380,0.00859
2317.69363,0.00931
2315.63346,0.00913
2313.57329,0.00853
2311.51312,0.00808
2309.45294,0.00785
2307.39277,0.00791
2305.33260,0.00811
2303.27243,0.00797
2301.21225,0.00759
2299.15208,0.00769
2297.09191,0.00804
2295.03174,0.00799
2292.97157,0.00771
2290.91139,0.00763
2288.85122,0.00772
2286.79105,0.00774
2284.73088,0.00760
2282.67071,0.00728
2280.61053,0.00690
2278.55036,0.00685
2276.49019,0.00719
2274.43002,0.00746
2272.36984,0.00724
2270.30967,0.00662
2268.24950,0.00589
2266.18933,0.00544
2264.12916,0.00555
2262.06898,0.00605
2260.00881,0.00645
2257.94864,0.00656
2255.88847,0.00660
2253.82830,0.00674
2251.76812,0.00674
2249.70795,0.00638
2247.64778,0.00573
2245.58761,0.00527
2243.52744,0.00530
2241.46726,0.00572
2239.40709,0.00606
2237.34692,0.00565
2235.28675,0.00488
2233.22657,0.00465
2231.16640,0.00503
2229.10623,0.00575
2227.04606,0.00635
2224.98589,0.00672
2222.92571,0.00694
2220.86554,0.00635
2218.80537,0.00526
2216.74520,0.00491
2214.68503,0.00536
2212.62485,0.00589
2210.56468,0.00542
2208.50451,0.00391
2206.44434,0.00344
2204.38417,0.00480
2202.32399,0.00630
2200.26382,0.00657
2198.20365,0.00580
2196.14348,0.00533
2194.08330,0.00564
2192.02313,0.00591
2189.96296,0.00564
2187.90279,0.00463
2185.84262,0.00335
2183.78244,0.00301
2181.72227,0.00374
2179.66210,0.00450
2177.60193,0.00527
2175.54176,0.00559
2173.48158,0.00457
2171.42141,0.00396
2169.36124,0.00462
2167.30107,0.00520
2165.24089,0.00488
2163.18072,0.00291
2161.12055,0.00062
2159.06038,0.00008
2157.00021,0.00068
2154.94003,0.00133
2152.87986,0.00192
2150.81969,0.00283
2148.75952,0.00364
2146.69935,0.00397
2144.63917,0.00459
2142.57900,0.00519
2140.51883,0.00500
2138.45866,0.00468
2136.39849,0.00445
2134.33831,0.00448
2132.27814,0.00503
2130.21797,0.00513
2128.15780,0.00464
2126.09762,0.00463
2124.03745,0.00523
2121.97728,0.00546
2119.91711,0.00501
2117.85694,0.00471
2115.79676,0.00481
2113.73659,0.00489
2111.67642,0.00489
2109.61625,0.00485
2107.55608,0.00467
2105.49590,0.00474
2103.43573,0.00527
2101.37556,0.00586
2099.31539,0.00618
2097.25521,0.00570
2095.19504,0.00476
2093.13487,0.00444
2091.07470,0.00460
2089.01453,0.00460
2086.95435,0.00451
2084.89418,0.00443
2082.83401,0.00437
2080.77384,0.00443
2078.71367,0.00424
2076.65349,0.00384
2074.59332,0.00377
2072.53315,0.00345
2070.47298,0.00236
2068.41281,0.00149
2066.35263,0.00165
2064.29246,0.00276
2062.23229,0.00429
2060.17212,0.00478
2058.11194,0.00364
2056.05177,0.00248
2053.99160,0.00332
2051.93143,0.00538
2049.87126,0.00585
2047.81108,0.00488
2045.75091,0.00387
2043.69074,0.00229
2041.63057,0.00147
2039.57040,0.00256
2037.51022,0.00341
2035.45005,0.00347
2033.38988,0.00350
2031.32971,0.00318
2029.26954,0.00246
2027.20936,0.00131
2025.14919,0.00059
2023.08902,0.00121
2021.02885,0.00256
2018.96867,0.00344
2016.90850,0.00329
2014.84833,0.00255
2012.78816,0.00210
2010.72799,0.00220
2008.66781,0.00233
2006.60764,0.00245
2004.54747,0.00264
2002.48730,0.00236
2000.42713,0.00177
1998.36695,0.00157
1996.30678,0.00191
1994.24661,0.00281
1992.18644,0.00372
1990.12626,0.00385
1988.06609,0.00351
1986.00592,0.00312
1983.94575,0.00278
1981.88558,0.00226
1979.82540,0.00098
1977.76523,0.00000
1975.70506,0.00105
1973.64489,0.00292
1971.58472,0.00415
1969.52454,0.00450
1967.46437,0.00336
1965.40420,0.00156
1963.34403,0.00064
1961.28386,0.00091
1959.22368,0.00123
1957.16351,0.00085
1955.10334,0.00090
1953.04317,0.00172
1950.98299,0.00235
1948.92282,0.00260
1946.86265,0.00259
1944.80248,0.00223
1942.74231,0.00210
1940.68213,0.00249
1938.62196,0.00261
1936.56179,0.00216
1934.50162,0.00156
1932.44145,0.00147
1930.38127,0.00185
1928.32110,0.00189
1926.26093,0.00150
1924.20076,0.00142
1922.14059,0.00186
1920.08041,0.00222
1918.02024,0.00210
1915.96007,0.00160
1913.89990,0.00108
1911.83972,0.00086
1909.77955,0.00112
1907.71938,0.00162
1905.65921,0.00196
1903.59904,0.00203
1901.53886,0.00190
1899.47869,0.00162
1897.41852,0.00146
1895.35835,0.00162
1893.29818,0.00195
1891.23800,0.00234
1889.17783,0.00261
1887.11766,0.00256
1885.05749,0.00237
1882.99731,0.00225
1880.93714,0.00221
1878.87697,0.00231
1876.81680,0.00252
1874.75663,0.00262
1872.69645,0.00255
1870.63628,0.00228
1868.57611,0.00171
1866.51594,0.00119
1864.45577,0.00119
1862.39559,0.00143
1860.33542,0.00141
1858.27525,0.00126
1856.21508,0.00122
1854.15491,0.00137
1852.09473,0.00161
1850.03456,0.00164
1847.97439,0.00136
1845.91422,0.00104
1843.85404,0.00078
1841.79387,0.00049
1839.73370,0.00022
1837.67353,0.00020
1835.61336,0.00054
1833.55318,0.00104
1831.49301,0.00134
1829.43284,0.00117
1827.37267,0.00091
1825.31250,0.00086
1823.25232,0.00094
1821.19215,0.00102
1819.13198,0.00083
1817.07181,0.00036
1815.01163,0.00000
1812.95146,-0.00006
1810.89129,0.00012
1808.83112,0.00028
1806.77095,0.00041
1804.71077,0.00053
1802.65060,0.00054
1800.59043,0.00043
1798.53026,0.00028
1796.47009,0.00012
1794.40991,-0.00005
1792.34974,-0.00022
1790.28957,-0.00030
1788.22940,-0.00017
1786.16923,0.00007
1784.10905,0.00015
1782.04888,0.00000
1779.98871,-0.00010
1777.92854,0.00002
1775.86836,0.00001
1773.80819,-0.00028
1771.74802,-0.00046
1769.68785,-0.00026
1767.62768,0.00024
1765.56750,0.00079
1763.50733,0.00128
1761.44716,0.00185
1759.38699,0.00266
1757.32682,0.00367
1755.26664,0.00475
1753.20647,0.00582
1751.14630,0.00720
1749.08613,0.00926
1747.02596,0.01183
1744.96578,0.01467
1742.90561,0.01809
1740.84544,0.02236
1738.78527,0.02690
1736.72509,0.03077
1734.66492,0.03426
1732.60475,0.03732
1730.54458,0.03883
1728.48441,0.03903
1726.42423,0.03862
1724.36406,0.03797
1722.30389,0.03728
1720.24372,0.03654
1718.18355,0.03561
1716.12337,0.03494
1714.06320,0.03495
1712.00303,0.03508
1709.94286,0.03488
1707.88268,0.03436
1705.82251,0.03359
1703.76234,0.03262
1701.70217,0.03143
1699.64200,0.03011
1697.58182,0.02909
1695.52165,0.02850
1693.46148,0.02837
1691.40131,0.02845
1689.34114,0.02836
1687.28096,0.02812
1685.22079,0.02791
1683.16062,0.02767
1681.10045,0.02744
1679.04028,0.02728
1676.98010,0.02723
1674.91993,0.02737
1672.85976,0.02770
1670.79959,0.02826
1668.73941,0.02914
1666.67924,0.03015
1664.61907,0.03113
1662.55890,0.03217
1660.49873,0.03325
1658.43855,0.03425
1656.37838,0.03509
1654.31821,0.03583
1652.25804,0.03680
1650.19787,0.03778
1648.13769,0.03824
1646.07752,0.03835
1644.01735,0.03867
1641.95718,0.03910
1639.89701,0.03941
1637.83683,0.03974
1635.77666,0.04036
1633.71649,0.04122
1631.65632,0.04200
1629.59614,0.04265
1627.53597,0.04320
1625.47580,0.04363
1623.41563,0.04413
1621.35546,0.04486
1619.29528,0.04565
1617.23511,0.04640
1615.17494,0.04722
1613.11477,0.04811
1611.05460,0.04893
1608.99442,0.04948
1606.93425,0.04969
1604.87408,0.04954
1602.81391,0.04898
1600.75373,0.04809
1598.69356,0.04694
1596.63339,0.04547
1594.57322,0.04378
1592.51305,0.04208
1590.45287,0.04041
1588.39270,0.03875
1586.33253,0.03703
1584.27236,0.03514
1582.21219,0.03321
1580.15201,0.03157
1578.09184,0.02996
1576.03167,0.02799
1573.97150,0.02628
1571.91133,0.02516
1569.85115,0.02391
1567.79098,0.02271
1565.73081,0.02209
1563.67064,0.02181
1561.61046,0.02159
1559.55029,0.02119
1557.49012,0.02054
1555.42995,0.02035
1553.36978,0.02050
1551.30960,0.02057
1549.24943,0.02051
1547.18926,0.02048
1545.12909,0.02050
1543.06892,0.02039
1541.00874,0.01992
1538.94857,0.01938
1536.88840,0.01941
1534.82823,0.01945
1532.76805,0.01885
1530.70788,0.01803
1528.64771,0.01737
1526.58754,0.01669
1524.52737,0.01604
1522.46719,0.01574
1520.40702,0.01597
1518.34685,0.01642
1516.28668,0.01660
1514.22651,0.01648
1512.16633,0.01596
1510.10616,0.01481
1508.04599,0.01282
1505.98582,0.01054
1503.92565,0.00941
1501.86547,0.00896
1499.80530,0.00821
1497.74513,0.00688
1495.68496,0.00542
1493.62478,0.00445
1491.56461,0.00382
1489.50444,0.00300
1487.44427,0.00216
1485.38410,0.00180
1483.32392,0.00179
1481.26375,0.00196
1479.20358,0.00248
1477.14341,0.00362
1475.08324,0.00567
1473.02306,0.00871
1470.96289,0.01197
1468.90272,0.01462
1466.84255,0.01695
1464.78238,0.01934
1462.72220,0.02142
1460.66203,0.02283
1458.60186,0.02391
1456.54169,0.02506
1454.48151,0.02622
1452.42134,0.02723
1450.36117,0.02820
1448.30100,0.02927
1446.24083,0.03027
1444.18065,0.03097
1442.12048,0.03130
1440.06031,0.03120
1438.00014,0.03039
1435.93997,0.02876
1433.87979,0.02704
1431.81962,0.02552
1429.75945,0.02410
1427.69928,0.02313
1425.63910,0.02266
1423.57893,0.02237
1421.51876,0.02211
1419.45859,0.02190
1417.39842,0.02185
1415.33824,0.02192
1413.27807,0.02176
1411.21790,0.02126
1409.15773,0.02077
1407.09756,0.02055
1405.03738,0.02057
1402.97721,0.02074
1400.91704,0.02091
1398.85687,0.02096
1396.79670,0.02100
1394.73652,0.02120
1392.67635,0.02162
1390.61618,0.02208
1388.55601,0.02253
1386.49583,0.02316
1384.43566,0.02390
1382.37549,0.02463
1380.31532,0.02544
1378.25515,0.02640
1376.19497,0.02728
1374.13480,0.02787
1372.07463,0.02832
1370.01446,0.02886
1367.95429,0.02946
1365.89411,0.02982
1363.83394,0.02984
1361.77377,0.02987
1359.71360,0.03007
1357.65343,0.03023
1355.59325,0.03035
1353.53308,0.03063
1351.47291,0.03098
1349.41274,0.03124
1347.35256,0.03143
1345.29239,0.03166
1343.23222,0.03198
1341.17205,0.03243
1339.11188,0.03294
1337.05170,0.03339
1334.99153,0.03377
1332.93136,0.03426
1330.87119,0.03490
1328.81102,0.03554
1326.75084,0.03626
1324.69067,0.03722
1322.63050,0.03809
1320.57033,0.03858
1318.51015,0.03880
1316.44998,0.03891
1314.38981,0.03879
1312.32964,0.03820
1310.26947,0.03720
1308.20929,0.03599
1306.14912,0.03452
1304.08895,0.03268
1302.02878,0.03069
1299.96861,0.02881
1297.90843,0.02696
1295.84826,0.02513
1293.78809,0.02363
1291.72792,0.02249
1289.66775,0.02149
1287.60757,0.02060
1285.54740,0.01992
1283.48723,0.01949
1281.42706,0.01929
1279.36688,0.01926
1277.30671,0.01935
1275.24654,0.01958
1273.18637,0.01999
1271.12620,0.02052
1269.06602,0.02098
1267.00585,0.02141
1264.94568,0.02199
1262.88551,0.02265
1260.82534,0.02327
1258.76516,0.02394
1256.70499,0.02471
1254.64482,0.02537
1252.58465,0.02587
1250.52447,0.02649
1248.46430,0.02731
1246.40413,0.02805
1244.34396,0.02852
1242.28379,0.02893
1240.22361,0.02948
1238.16344,0.03017
1236.10327,0.03095
1234.04310,0.03174
1231.98293,0.03250
1229.92275,0.03320
1227.86258,0.03393
1225.80241,0.03474
1223.74224,0.03561
1221.68207,0.03637
1219.62189,0.03697
1217.56172,0.03759
1215.50155,0.03819
1213.44138,0.03886
1211.38120,0.03987
1209.32103,0.04106
1207.26086,0.04223
1205.20069,0.04330
1203.14052,0.04417
1201.08034,0.04485
1199.02017,0.04541
1196.96000,0.04582
1194.89983,0.04599
1192.83966,0.04582
1190.77948,0.04542
1188.71931,0.04500
1186.65914,0.04449
1184.59897,0.04370
1182.53880,0.04275
1180.47862,0.04210
1178.41845,0.04198
1176.35828,0.04197
1174.29811,0.04177
1172.23793,0.04178
1170.17776,0.04202
1168.11759,0.04205
1166.05742,0.04177
1163.99725,0.04140
1161.93707,0.04096
1159.87690,0.04042
1157.81673,0.03969
1155.75656,0.03879
1153.69639,0.03795
1151.63621,0.03718
1149.57604,0.03637
1147.51587,0.03540
1145.45570,0.03430
1143.39552,0.03314
1141.33535,0.03209
1139.27518,0.03118
1137.21501,0.03033
1135.15484,0.02954
1133.09466,0.02916
1131.03449,0.02936
1128.97432,0.02979
1126.91415,0.03039
1124.85398,0.03153
1122.79380,0.03312
1120.73363,0.03494
1118.67346,0.03714
1116.61329,0.03964
1114.55312,0.04230
1112.49294,0.04516
1110.43277,0.04825
1108.37260,0.05137
1106.31243,0.05433
1104.25225,0.05718
1102.19208,0.05964
1100.13191,0.06136
1098.07174,0.06253
1096.01157,0.06356
1093.95139,0.06470
1091.89122,0.06599
1089.83105,0.06744
1087.77088,0.06914
1085.71071,0.07111
1083.65053,0.07324
1081.59036,0.07531
1079.53019,0.07734
1077.47002,0.07935
1075.40985,0.08108
1073.34967,0.08252
1071.28950,0.08399
1069.22933,0.08566
1067.16916,0.08745
1065.10898,0.08915
1063.04881,0.09061
1060.98864,0.09181
1058.92847,0.09304
1056.86830,0.09453
1054.80812,0.09602
1052.74795,0.09755
1050.68778,0.09922
1048.62761,0.10074
1046.56744,0.10207
1044.50726,0.10346
1042.44709,0.10520
1040.38692,0.10740
1038.32675,0.10979
1036.26657,0.11209
1034.20640,0.11406
1032.14623,0.11570
1030.08606,0.11722
1028.02589,0.11862
1025.96571,0.11964
1023.90554,0.12013
1021.84537,0.12015
1019.78520,0.11990
1017.72503,0.11947
1015.66485,0.11888
1013.60468,0.11829
1011.54451,0.11755
1009.48434,0.11612
1007.42417,0.11394
1005.36399,0.11151
1003.30382,0.10909
1001.24365,0.10640
999.18348,0.10337
997.12330,0.10038
995.06313,0.09762
993.00296,0.09490
990.94279,0.09205
988.88262,0.08906
986.82244,0.08601
984.76227,0.08290
982.70210,0.07969
980.64193,0.07644
978.58176,0.07330
976.52158,0.07029
974.46141,0.06722
972.40124,0.06441
970.34107,0.06226
968.28089,0.06050
966.22072,0.05889
964.16055,0.05719
962.10038,0.05528
960.04021,0.05313
957.98003,0.05079
955.91986,0.04850
953.85969,0.04619
951.79952,0.04380
949.73935,0.04156
947.67917,0.03938
945.61900,0.03721
943.55883,0.03522
941.49866,0.03333
939.43849,0.03161
937.37831,0.03025
935.31814,0.02930
933.25797,0.02860
931.19780,0.02788
929.13762,0.02699
927.07745,0.02616
925.01728,0.02550
922.95711,0.02470
920.89694,0.02360
918.83676,0.02242
916.77659,0.02113
914.71642,0.01957
912.65625,0.01805
910.59608,0.01688
908.53590,0.01592
906.47573,0.01495
904.41556,0.01408
902.35539,0.01343
900.29522,0.01304
898.23504,0.01290
896.17487,0.01275
894.11470,0.01252
892.05453,0.01236
889.99435,0.01210
887.93418,0.01153
885.87401,0.01101
883.81384,0.01063
881.75367,0.01021
879.69349,0.00997
877.63332,0.01004
875.57315,0.01048
873.51298,0.01112
871.45281,0.01126
869.39263,0.01099
867.33246,0.01091
865.27229,0.01045
863.21212,0.00918
861.15194,0.00748
859.09177,0.00561
857.03160,0.00423
854.97143,0.00333
852.91126,0.00220
850.85108,0.00110
848.79091,0.00040
846.73074,0.00000
844.67057,0.00003
842.61040,0.00032
840.55022,0.00014
838.49005,0.00013
836.42988,0.00120
834.36971,0.00259
832.30954,0.00337
830.24936,0.00349
828.18919,0.00326
826.12902,0.00302
824.06885,0.00300
822.00867,0.00334
819.94850,0.00378
817.88833,0.00390
815.82816,0.00401
813.76799,0.00438
811.70781,0.00429
809.64764,0.00356
807.58747,0.00281
805.52730,0.00212
803.46713,0.00156
801.40695,0.00106
799.34678,0.00044
797.28661,0.00000
795.22644,-0.00033
793.16627,-0.00029
791.10609,-0.00013
789.04592,0.00017
786.98575,0.00075
784.92558,0.00182
782.86540,0.00309
780.80523,0.00379
778.74506,0.00372
776.68489,0.00344
774.62472,0.00357
772.56454,0.00443
770.50437,0.00582
768.44420,0.00718
766.38403,0.00853
764.32386,0.01013
762.26368,0.01172
760.20351,0.01311
758.14334,0.01405
756.08317,0.01428
754.02299,0.01394
751.96282,0.01271
749.90265,0.01054
747.84248,0.00877
745.78231,0.00830
743.72213,0.00824
741.66196,0.00713
739.60179,0.00546
737.54162,0.00462
735.48145,0.00432
733.42127,0.00423
731.36110,0.00447
729.30093,0.00457
727.24076,0.00434
725.18059,0.00434
723.12041,0.00466
721.06024,0.00469
719.00007,0.00479
716.93990,0.00474
714.87972,0.00468
712.81955,0.00483
710.75938,0.00459
708.69921,0.00380
706.63904,0.00323
704.57886,0.00307
702.51869,0.00281
700.45852,0.00287
698.39835,0.00362
696.33818,0.00386
694.27800,0.00272
692.21783,0.00116
690.15766,0.00037
688.09749,0.00049
686.03731,0.00075
683.97714,0.00058
681.91697,0.00051
679.85680,0.00113
677.79663,0.00196
675.73645,0.00267
673.67628,0.00380
671.61611,0.00485
669.55594,0.00291
667.49577,0.00070
665.43559,0.00321
663.37542,0.00247
661.31525,0.00073
659.25508,-0.00001
657.19491,0.00055
655.13473,0.00165
653.07456,0.00190
651.01439,0.00091
648.95422,0.00000
646.89404,-0.00036
644.83387,0.00032
642.77370,0.00126
640.71353,0.00117
638.65336,0.00031
636.59318,0.00027
634.53301,0.00152
632.47284,0.00281
630.41267,0.00271
628.35250,0.00176
626.29232,0.00127
624.23215,-0.00061
622.17198,-0.00368
620.11181,-0.00415
618.05164,-0.00132
615.99146,0.00034
613.93129,-0.00195
611.87112,-0.00474
609.81095,-0.00342
607.75077,0.00030
605.69060,0.00152
603.63043,-0.00017
601.57026,-0.00139
599.51009,0.00000
