3996.73391,0.00001
3994.67373,0.00021
3992.61356,0.00039
3990.55339,0.00067
3988.49322,0.00084
3986.43305,0.00061
3984.37287,0.00031
3982.31270,0.00036
3980.25253,0.00054
3978.19236,0.00056
3976.13219,0.00044
3974.07201,0.00030
3972.01184,0.00036
3969.95167,0.00055
3967.89150,0.00059
3965.83133,0.00041
3963.77115,0.00023
3961.71098,0.00020
3959.65081,0.00026
3957.59064,0.00032
3955.53046,0.00032
3953.47029,0.00031
3951.41012,0.00030
3949.34995,0.00016
3947.28978,0.00000
3945.22960,0.00023
3943.16943,0.00080
3941.10926,0.00125
3939.04909,0.00153
3936.98892,0.00174
3934.92874,0.00161
3932.86857,0.00099
3930.80840,0.00030
3928.74823,0.00000
3926.68805,0.00014
3924.62788,0.00054
3922.56771,0.00088
3920.50754,0.00108
3918.44737,0.00114
3916.38719,0.00095
3914.32702,0.00076
3912.26685,0.00077
3910.20668,0.00085
3908.14651,0.00094
3906.08633,0.00104
3904.02616,0.00108
3901.96599,0.00112
3899.90582,0.00111
3897.84565,0.00084
3895.78547,0.00042
3893.72530,0.00017
3891.66513,0.00018
3889.60496,0.00012
3887.54478,0.00000
3885.48461,0.00037
3883.42444,0.00124
3881.36427,0.00182
3879.30410,0.00173
3877.24392,0.00144
3875.18375,0.00140
3873.12358,0.00149
3871.06341,0.00143
3869.00324,0.00134
3866.94306,0.00139
3864.88289,0.00138
3862.82272,0.00125
3860.76255,0.00112
3858.70237,0.00114
3856.64220,0.00137
3854.58203,0.00161
3852.52186,0.00152
3850.46169,0.00108
3848.40151,0.00055
3846.34134,0.00025
3844.28117,0.00042
3842.22100,0.00095
3840.16083,0.00150
3838.10065,0.00184
3836.04048,0.00172
3833.98031,0.00134
3831.92014,0.00124
3829.85997,0.00144
3827.79979,0.00154
3825.73962,0.00141
3823.67945,0.00112
3821.61928,0.00086
3819.55910,0.00090
3817.49893,0.00112
3815.43876,0.00108
3813.37859,0.00079
3811.31842,0.00056
3809.25824,0.00050
3807.19807,0.00069
3805.13790,0.00103
3803.07773,0.00123
3801.01756,0.00125
3798.95738,0.00123
3796.89721,0.00108
3794.83704,0.00070
3792.77687,0.00049
3790.71670,0.00070
3788.65652,0.00097
3786.59635,0.00097
3784.53618,0.00081
3782.47601,0.00071
3780.41583,0.00086
3778.35566,0.00092
3776.29549,0.00068
3774.23532,0.00054
3772.17515,0.00067
3770.11497,0.00070
3768.05480,0.00062
3765.99463,0.00080
3763.93446,0.00112
3761.87429,0.00118
3759.81411,0.00099
3757.75394,0.00081
3755.69377,0.00093
3753.63360,0.00153
3751.57342,0.00218
3749.51325,0.00196
3747.45308,0.00133
3745.39291,0.00130
3743.33274,0.00153
3741.27256,0.00126
3739.21239,0.00067
3737.15222,0.00027
3735.09205,0.00028
3733.03188,0.00048
3730.97170,0.00055
3728.91153,0.00068
3726.85136,0.00116
3724.79119,0.00171
3722.73102,0.00178
3720.67084,0.00125
3718.61067,0.00069
3716.55050,0.00034
3714.49033,0.00012
3712.43015,0.00000
3710.36998,0.00000
3708.30981,0.00019
3706.24964,0.00025
3704.18947,0.00027
3702.12929,0.00049
3700.06912,0.00094
3698.00895,0.00126
3695.94878,0.00125
3693.88861,0.00116
3691.82843,0.00108
3689.76826,0.00094
3687.70809,0.00080
3685.64792,0.00088
3683.58775,0.00106
3681.52757,0.00107
3679.46740,0.00067
3677.40723,0.00032
3675.34706,0.00084
3673.28688,0.00170
3671.22671,0.00171
3669.16654,0.00120
3667.10637,0.00121
3665.04620,0.00174
3662.98602,0.00214
3660.92585,0.00218
3658.86568,0.00210
3656.80551,0.00195
3654.74534,0.00186
3652.68516,0.00213
3650.62499,0.00289
3648.56482,0.00382
3646.50465,0.00425
3644.44447,0.00439
3642.38430,0.00447
3640.32413,0.00454
3638.26396,0.00487
3636.20379,0.00548
3634.14361,0.00603
3632.08344,0.00650
3630.02327,0.00707
3627.96310,0.00737
3625.90293,0.00722
3623.84275,0.00701
3621.78258,0.00725
3619.72241,0.00781
3617.66224,0.00818
3615.60207,0.00842
3613.54189,0.00873
3611.48172,0.00913
3609.42155,0.00943
3607.36138,0.00960
3605.30120,0.00988
3603.24103,0.01029
3601.18086,0.01078
3599.12069,0.01118
3597.06052,0.01138
3595.00034,0.01141
3592.94017,0.01176
3590.88000,0.01254
3588.81983,0.01347
3586.75966,0.01429
3584.69948,0.01508
3582.63931,0.01584
3580.57914,0.01642
3578.51897,0.01664
3576.45879,0.01668
3574.39862,0.01702
3572.33845,0.01778
3570.27828,0.01865
3568.21811,0.01948
3566.15793,0.02022
3564.09776,0.02063
3562.03759,0.02090
3559.97742,0.02120
3557.91725,0.02141
3555.85707,0.02169
3553.79690,0.02237
3551.73673,0.02331
3549.67656,0.02393
3547.61639,0.02433
3545.55621,0.02508
3543.49604,0.02610
3541.43587,0.02693
3539.37570,0.02757
3537.31552,0.02801
3535.25535,0.02842
3533.19518,0.02899
3531.13501,0.02950
3529.07484,0.02989
3527.01466,0.03044
3524.95449,0.03118
3522.89432,0.03189
3520.83415,0.03240
3518.77398,0.03275
3516.71380,0.03322
3514.65363,0.03404
3512.59346,0.03509
3510.53329,0.03610
3508.47312,0.03682
3506.41294,0.03726
3504.35277,0.03775
3502.29260,0.03847
3500.23243,0.03915
3498.17225,0.03947
3496.11208,0.03971
3494.05191,0.04020
3491.99174,0.04071
3489.93157,0.04128
3487.87139,0.04237
3485.81122,0.04375
3483.75105,0.04463
3481.69088,0.04478
3479.63071,0.04475
3477.57053,0.04504
3475.51036,0.04547
3473.45019,0.04592
3471.39002,0.04644
3469.32984,0.04696
3467.26967,0.04756
3465.20950,0.04843
3463.14933,0.04915
3461.08916,0.04946
3459.02898,0.04978
3456.96881,0.05039
3454.90864,0.05112
3452.84847,0.05183
3450.78830,0.05242
3448.72812,0.05297
3446.66795,0.05361
3444.60778,0.05430
3442.54761,0.05500
3440.48744,0.05570
3438.42726,0.05625
3436.36709,0.05676
3434.30692,0.05745
3432.24675,0.05815
3430.18657,0.05858
3428.12640,0.05876
3426.06623,0.05883
3424.00606,0.05898
3421.94589,0.05955
3419.88571,0.06025
3417.82554,0.06071
3415.76537,0.06130
3413.70520,0.06211
3411.64503,0.06266
3409.58485,0.06297
3407.52468,0.06336
3405.46451,0.06391
3403.40434,0.06444
3401.34416,0.06480
3399.28399,0.06500
3397.22382,0.06509
3395.16365,0.06532
3393.10348,0.06588
3391.04330,0.06637
3388.98313,0.06660
3386.92296,0.06692
3384.86279,0.06733
3382.80262,0.06761
3380.74244,0.06775
3378.68227,0.06806
3376.62210,0.06869
3374.56193,0.06927
3372.50176,0.06973
3370.44158,0.07015
3368.38141,0.07051
3366.32124,0.07093
3364.26107,0.07136
3362.20089,0.07162
3360.14072,0.07179
3358.08055,0.07216
3356.02038,0.07263
3353.96021,0.07288
3351.90003,0.07296
3349.83986,0.07293
3347.77969,0.07304
3345.71952,0.07354
3343.65935,0.07417
3341.59917,0.07450
3339.53900,0.07444
3337.47883,0.07420
3335.41866,0.07420
3333.35849,0.07454
3331.29831,0.07496
3329.23814,0.07524
3327.17797,0.07524
3325.11780,0.07529
3323.05762,0.07572
3320.99745,0.07622
3318.93728,0.07628
3316.87711,0.07582
3314.81694,0.07545
3312.75676,0.07560
3310.69659,0.07602
3308.63642,0.07633
3306.57625,0.07650
3304.51608,0.07680
3302.45590,0.07722
3300.39573,0.07740
3298.33556,0.07718
3296.27539,0.07678
3294.21521,0.07662
3292.15504,0.07688
3290.09487,0.07713
3288.03470,0.07723
3285.97453,0.07730
3283.91435,0.07718
3281.85418,0.07716
3279.79401,0.07743
3277.73384,0.07766
3275.67367,0.07764
3273.61349,0.07751
3271.55332,0.07757
3269.49315,0.07769
3267.43298,0.07745
3265.37281,0.07708
3263.31263,0.07685
3261.25246,0.07654
3259.19229,0.07619
3257.13212,0.07606
3255.07194,0.07613
3253.01177,0.07623
3250.95160,0.07629
3248.89143,0.07631
3246.83126,0.07619
3244.77108,0.07566
3242.71091,0.07500
3240.65074,0.07487
3238.59057,0.07500
3236.53040,0.07474
3234.47022,0.07447
3232.41005,0.07454
3230.34988,0.07452
3228.28971,0.07418
3226.22954,0.07375
3224.16936,0.07355
3222.10919,0.07341
3220.04902,0.07314
3217.98885,0.07305
3215.92867,0.07296
3213.86850,0.07263
3211.80833,0.07229
3209.74816,0.07187
3207.68799,0.07139
3205.62781,0.07108
3203.56764,0.07076
3201.50747,0.07035
3199.44730,0.06994
3197.38713,0.06961
3195.32695,0.06938
3193.26678,0.06934
3191.20661,0.06949
3189.14644,0.06941
3187.08626,0.06894
3185.02609,0.06843
3182.96592,0.06799
3180.90575,0.06757
3178.84558,0.06720
3176.78540,0.06668
3174.72523,0.06606
3172.66506,0.06582
3170.60489,0.06590
3168.54472,0.06586
3166.48454,0.06558
3164.42437,0.06524
3162.36420,0.06489
3160.30403,0.06438
3158.24386,0.06390
3156.18368,0.06369
3154.12351,0.06374
3152.06334,0.06369
3150.00317,0.06326
3147.94299,0.06253
3145.88282,0.06196
3143.82265,0.06174
3141.76248,0.06151
3139.70231,0.06114
3137.64213,0.06085
3135.58196,0.06066
3133.52179,0.06035
3131.46162,0.05983
3129.40145,0.05925
3127.34127,0.05873
3125.28110,0.05834
3123.22093,0.05803
3121.16076,0.05777
3119.10058,0.05755
3117.04041,0.05731
3114.98024,0.05700
3112.92007,0.05659
3110.85990,0.05615
3108.79972,0.05566
3106.73955,0.05525
3104.67938,0.05507
3102.61921,0.05478
3100.55904,0.05425
3098.49886,0.05385
3096.43869,0.05355
3094.37852,0.05308
3092.31835,0.05257
3090.25818,0.05228
3088.19800,0.05225
3086.13783,0.05227
3084.07766,0.05207
3082.01749,0.05168
3079.95731,0.05138
3077.89714,0.05117
3075.83697,0.05081
3073.77680,0.05035
3071.71663,0.04989
3069.65645,0.04948
3067.59628,0.04913
3065.53611,0.04890
3063.47594,0.04870
3061.41577,0.04843
3059.35559,0.04806
3057.29542,0.04767
3055.23525,0.04725
3053.17508,0.04685
3051.11491,0.04649
3049.05473,0.04601
3046.99456,0.04546
3044.93439,0.04509
3042.87422,0.04488
3040.81404,0.04458
3038.75387,0.04420
3036.69370,0.04401
3034.63353,0.04373
3032.57336,0.04310
3030.51318,0.04259
3028.45301,0.04241
3026.39284,0.04222
3024.33267,0.04179
3022.27250,0.04128
3020.21232,0.04089
3018.15215,0.04041
3016.09198,0.03991
3014.03181,0.03971
3011.97163,0.03967
3009.91146,0.03956
3007.85129,0.03950
3005.79112,0.03955
3003.73095,0.03956
3001.67077,0.03941
2999.61060,0.03914
2997.55043,0.03885
2995.49026,0.03866
2993.43009,0.03841
2991.36991,0.03819
2989.30974,0.03843
2987.24957,0.03894
2985.18940,0.03927
2983.12923,0.03941
2981.06905,0.03966
2979.00888,0.04020
2976.94871,0.04081
2974.88854,0.04142
2972.82836,0.04217
2970.76819,0.04308
2968.70802,0.04412
2966.64785,0.04531
2964.58768,0.04670
2962.52750,0.04828
2960.46733,0.04989
2958.40716,0.05146
2956.34699,0.05302
2954.28682,0.05447
2952.22664,0.05598
2950.16647,0.05771
2948.10630,0.05970
2946.04613,0.06197
2943.98596,0.06440
2941.92578,0.06709
2939.86561,0.07024
2937.80544,0.07369
2935.74527,0.07714
2933.68509,0.08056
2931.62492,0.08400
2929.56475,0.08719
2927.50458,0.09005
2925.44441,0.09282
2923.38423,0.09537
2921.32406,0.09783
2919.26389,0.10014
2917.20372,0.10069
2915.14355,0.09783
2913.08337,0.09217
2911.02320,0.08605
2908.96303,0.08111
2906.90286,0.07750
2904.84268,0.07467
2902.78251,0.07225
2900.72234,0.07023
2898.66217,0.06856
2896.60200,0.06699
2894.54182,0.06533
2892.48165,0.06362
2890.42148,0.06187
2888.36131,0.06022
2886.30114,0.05898
2884.24096,0.05796
2882.18079,0.05675
2880.12062,0.05557
2878.06045,0.05497
2876.00028,0.05505
2873.94010,0.05538
2871.87993,0.05566
2869.81976,0.05584
2867.75959,0.05625
2865.69941,0.05752
2863.63924,0.05966
2861.57907,0.06208
2859.51890,0.06478
2857.45873,0.06792
2855.39855,0.07133
2853.33838,0.07500
2851.27821,0.07838
2849.21804,0.07906
2847.15787,0.07485
2845.09769,0.06739
2843.03752,0.06013
2840.97735,0.05474
2838.91718,0.05101
2836.85700,0.04825
2834.79683,0.04611
2832.73666,0.04433
2830.67649,0.04278
2828.61632,0.04170
2826.55614,0.04095
2824.49597,0.04032
2822.43580,0.03981
2820.37563,0.03923
2818.31546,0.03856
2816.25528,0.03795
2814.19511,0.03728
2812.13494,0.03663
2810.07477,0.03623
2808.01460,0.03585
2805.95442,0.03529
2803.89425,0.03490
2801.83408,0.03475
2799.77391,0.03448
2797.71373,0.03414
2795.65356,0.03393
2793.59339,0.03382
2791.53322,0.03369
2789.47305,0.03340
2787.41287,0.03307
2785.35270,0.03274
2783.29253,0.03242
2781.23236,0.03226
2779.17219,0.03215
2777.11201,0.03193
2775.05184,0.03163
2772.99167,0.03121
2770.93150,0.03077
2768.87133,0.03062
2766.81115,0.03066
2764.75098,0.03045
2762.69081,0.02999
2760.63064,0.02971
2758.57046,0.02965
2756.51029,0.02965
2754.45012,0.02967
2752.38995,0.02972
2750.32978,0.02973
2748.26960,0.02966
2746.20943,0.02956
2744.14926,0.02937
2742.08909,0.02917
2740.02892,0.02912
2737.96874,0.02910
2735.90857,0.02902
2733.84840,0.02895
2731.78823,0.02888
2729.72805,0.02888
2727.66788,0.02900
2725.60771,0.02901
2723.54754,0.02882
2721.48737,0.02866
2719.42719,0.02852
2717.36702,0.02833
2715.30685,0.02816
2713.24668,0.02794
2711.18651,0.02768
2709.12633,0.02752
2707.06616,0.02752
2705.00599,0.02753
2702.94582,0.02742
2700.88565,0.02731
2698.82547,0.02730
2696.76530,0.02726
2694.70513,0.02708
2692.64496,0.02691
2690.58478,0.02682
2688.52461,0.02666
2686.46444,0.02658
2684.40427,0.02672
2682.34410,0.02676
2680.28392,0.02659
2678.22375,0.02645
2676.16358,0.02635
2674.10341,0.02603
2672.04324,0.02551
2669.98306,0.02519
2667.92289,0.02522
2665.86272,0.02530
2663.80255,0.02524
2661.74238,0.02505
2659.68220,0.02483
2657.62203,0.02472
2655.56186,0.02479
2653.50169,0.02478
2651.44151,0.02435
2649.38134,0.02379
2647.32117,0.02355
2645.26100,0.02362
2643.20083,0.02380
2641.14065,0.02376
2639.08048,0.02351
2637.02031,0.02323
2634.96014,0.02292
2632.89997,0.02274
2630.83979,0.02283
2628.77962,0.02291
2626.71945,0.02275
2624.65928,0.02246
2622.59910,0.02212
2620.53893,0.02190
2618.47876,0.02187
2616.41859,0.02175
2614.35842,0.02151
2612.29824,0.02113
2610.23807,0.02057
2608.17790,0.02026
2606.11773,0.02041
2604.05756,0.02069
2601.99738,0.02073
2599.93721,0.02054
2597.87704,0.02024
2595.81687,0.01993
2593.75670,0.01979
2591.69652,0.01989
2589.63635,0.01996
2587.57618,0.01986
2585.51601,0.01977
2583.45583,0.01983
2581.39566,0.01979
2579.33549,0.01966
2577.27532,0.01966
2575.21515,0.01961
2573.15497,0.01936
2571.09480,0.01900
2569.03463,0.01876
2566.97446,0.01874
2564.91429,0.01845
2562.85411,0.01778
2560.79394,0.01770
2558.73377,0.01838
2556.67360,0.01870
2554.61342,0.01828
2552.55325,0.01787
2550.49308,0.01791
2548.43291,0.01777
2546.37274,0.01715
2544.31256,0.01674
2542.25239,0.01688
2540.19222,0.01728
2538.13205,0.01745
2536.07188,0.01720
2534.01170,0.01674
2531.95153,0.01647
2529.89136,0.01651
2527.83119,0.01669
2525.77102,0.01685
2523.71084,0.01670
2521.65067,0.01636
2519.59050,0.01626
2517.53033,0.01633
2515.47015,0.01634
2513.40998,0.01623
2511.34981,0.01588
2509.28964,0.01547
2507.22947,0.01540
2505.16929,0.01552
2503.10912,0.01538
2501.04895,0.01510
2498.98878,0.01528
2496.92861,0.01566
2494.86843,0.01555
2492.80826,0.01526
2490.74809,0.01525
2488.68792,0.01516
2486.62775,0.01472
2484.56757,0.01430
2482.50740,0.01444
2480.44723,0.01481
2478.38706,0.01478
2476.32688,0.01441
2474.26671,0.01408
2472.20654,0.01392
2470.14637,0.01378
2468.08620,0.01365
2466.02602,0.01366
2463.96585,0.01355
2461.90568,0.01324
2459.84551,0.01318
2457.78534,0.01335
2455.72516,0.01349
2453.66499,0.01355
2451.60482,0.01330
2449.54465,0.01281
2447.48447,0.01258
2445.42430,0.01252
2443.36413,0.01236
2441.30396,0.01242
2439.24379,0.01273
2437.18361,0.01281
2435.12344,0.01282
2433.06327,0.01299
2431.00310,0.01299
2428.94293,0.01275
2426.88275,0.01228
2424.82258,0.01178
2422.76241,0.01154
2420.70224,0.01137
2418.64207,0.01135
2416.58189,0.01160
2414.52172,0.01174
2412.46155,0.01170
2410.40138,0.01170
2408.34120,0.01163
2406.28103,0.01157
2404.22086,0.01170
2402.16069,0.01178
2400.10052,0.01158
2398.04034,0.01138
2395.98017,0.01129
2393.92000,0.01116
2391.85983,0.01101
2389.79966,0.01101
2387.73948,0.01107
2385.67931,0.01111
2383.61914,0.01120
2381.55897,0.01118
2379.49880,0.01097
2377.43862,0.01066
2375.37845,0.01101
2373.31828,0.01158
2371.25811,0.01168
2369.19793,0.01162
2367.13776,0.01051
2365.07759,0.00904
2363.01742,0.00975
2360.95725,0.00896
2358.89707,0.00878
2356.83690,0.00980
2354.77673,0.01148
2352.71656,0.01206
2350.65639,0.00795
2348.59621,0.00570
2346.53604,0.01142
2344.47587,0.01380
2342.41570,0.01337
2340.35552,0.01239
2338.29535,0.01116
2336.23518,0.01065
2334.17501,0.00955
2332.11484,0.00910
2330.05466,0.00968
2327.99449,0.01034
2325.93432,0.00928
2323.87415,0.00880
2321.81398,0.00922
2319.75380,0.01047
2317.69363,0.01052
2315.63346,0.01051
2313.57329,0.01047
2311.51312,0.01036
2309.45294,0.01066
2307.39277,0.01072
2305.33260,0.01003
2303.27243,0.00920
2301.21225,0.00913
2299.15208,0.00939
2297.09191,0.00968
2295.03174,0.00990
2292.97157,0.00988
2290.91139,0.00969
2288.85122,0.00951
2286.79105,0.00932
2284.73088,0.00887
2282.67071,0.00827
2280.61053,0.00786
2278.55036,0.00775
2276.49019,0.00783
2274.43002,0.00795
2272.36984,0.00805
2270.30967,0.00793
2268.24950,0.00768
2266.18933,0.00766
2264.12916,0.00794
2262.06898,0.00838
2260.00881,0.00881
2257.94864,0.00860
2255.88847,0.00787
2253.82830,0.00736
2251.76812,0.00700
2249.70795,0.00656
2247.64778,0.00622
2245.58761,0.00629
2243.52744,0.00647
2241.46726,0.00622
2239.40709,0.00579
2237.34692,0.00556
2235.28675,0.00546
2233.22657,0.00542
2231.16640,0.00544
2229.10623,0.00601
2227.04606,0.00710
2224.98589,0.00745
2222.92571,0.00662
2220.86554,0.00548
2218.80537,0.00531
2216.74520,0.00666
2214.68503,0.00803
2212.62485,0.00760
2210.56468,0.00598
2208.50451,0.00508
2206.44434,0.00526
2204.38417,0.00553
2202.32399,0.00586
2200.26382,0.00653
2198.20365,0.00667
2196.14348,0.00603
2194.08330,0.00552
2192.02313,0.00596
2189.96296,0.00655
2187.90279,0.00565
2185.84262,0.00395
2183.78244,0.00332
2181.72227,0.00377
2179.66210,0.00476
2177.60193,0.00591
2175.54176,0.00636
2173.48158,0.00646
2171.42141,0.00678
2169.36124,0.00656
2167.30107,0.00569
2165.24089,0.00404
2163.18072,0.00193
2161.12055,0.00148
2159.06038,0.00231
2157.00021,0.00242
2154.94003,0.00197
2152.87986,0.00201
2150.81969,0.00312
2148.75952,0.00408
2146.69935,0.00434
2144.63917,0.00514
2142.57900,0.00600
2140.51883,0.00612
2138.45866,0.00596
2136.39849,0.00528
2134.33831,0.00486
2132.27814,0.00559
2130.21797,0.00603
2128.15780,0.00542
2126.09762,0.00473
2124.03745,0.00452
2121.97728,0.00440
2119.91711,0.00445
2117.85694,0.00504
2115.79676,0.00545
2113.73659,0.00485
2111.67642,0.00412
2109.61625,0.00441
2107.55608,0.00496
2105.49590,0.00506
2103.43573,0.00539
2101.37556,0.00602
2099.31539,0.00635
2097.25521,0.00628
2095.19504,0.00625
2093.13487,0.00647
2091.07470,0.00661
2089.01453,0.00628
2086.95435,0.00572
2084.89418,0.00537
2082.83401,0.00525
2080.77384,0.00527
2078.71367,0.00538
2076.65349,0.00540
2074.59332,0.00515
2072.53315,0.00463
2070.47298,0.00420
2068.41281,0.00441
2066.35263,0.00509
2064.29246,0.00598
2062.23229,0.00677
2060.17212,0.00617
2058.11194,0.00396
2056.05177,0.00253
2053.99160,0.00353
2051.93143,0.00503
2049.87126,0.00495
2047.81108,0.00424
2045.75091,0.00378
2043.69074,0.00262
2041.63057,0.00136
2039.57040,0.00176
2037.51022,0.00342
2035.45005,0.00480
2033.38988,0.00504
2031.32971,0.00430
2029.26954,0.00318
2027.20936,0.00186
2025.14919,0.00120
2023.08902,0.00113
2021.02885,0.00089
2018.96867,0.00121
2016.90850,0.00184
2014.84833,0.00142
2012.78816,0.00066
2010.72799,0.00058
2008.66781,0.00080
2006.60764,0.00147
2004.54747,0.00262
2002.48730,0.00290
2000.42713,0.00251
1998.36695,0.00268
1996.30678,0.00285
1994.24661,0.00280
1992.18644,0.00347
1990.12626,0.00458
1988.06609,0.00518
1986.00592,0.00538
1983.94575,0.00546
1981.88558,0.00454
1979.82540,0.00210
1977.76523,0.00000
1975.70506,0.00006
1973.64489,0.00184
1971.58472,0.00381
1969.52454,0.00456
1967.46437,0.00384
1965.40420,0.00279
1963.34403,0.00206
1961.28386,0.00166
1959.22368,0.00120
1957.16351,0.00065
1955.10334,0.00105
1953.04317,0.00218
1950.98299,0.00269
1948.92282,0.00284
1946.86265,0.00332
1944.80248,0.00353
1942.74231,0.00314
1940.68213,0.00277
1938.62196,0.00278
1936.56179,0.00281
1934.50162,0.00263
1932.44145,0.00263
1930.38127,0.00273
1928.32110,0.00222
1926.26093,0.00153
1924.20076,0.00183
1922.14059,0.00279
1920.08041,0.00295
1918.02024,0.00220
1915.96007,0.00151
1913.89990,0.00114
1911.83972,0.00086
1909.77955,0.00086
1907.71938,0.00110
1905.65921,0.00111
1903.59904,0.00108
1901.53886,0.00132
1899.47869,0.00160
1897.41852,0.00187
1895.35835,0.00220
1893.29818,0.00237
1891.23800,0.00247
1889.17783,0.00261
1887.11766,0.00250
1885.05749,0.00214
1882.99731,0.00185
1880.93714,0.00169
1878.87697,0.00167
1876.81680,0.00183
1874.75663,0.00197
1872.69645,0.00184
1870.63628,0.00155
1868.57611,0.00134
1866.51594,0.00124
1864.45577,0.00116
1862.39559,0.00108
1860.33542,0.00093
1858.27525,0.00074
1856.21508,0.00056
1854.15491,0.00053
1852.09473,0.00056
1850.03456,0.00045
1847.97439,0.00039
1845.91422,0.00054
1843.85404,0.00052
1841.79387,0.00030
1839.73370,0.00021
1837.67353,0.00017
1835.61336,0.00002
1833.55318,0.00000
1831.49301,0.00003
1829.43284,-0.00010
1827.37267,-0.00014
1825.31250,0.00017
1823.25232,0.00035
1821.19215,0.00015
1819.13198,-0.00016
1817.07181,-0.00043
1815.01163,-0.00057
1812.95146,-0.00055
1810.89129,-0.00051
1808.83112,-0.00054
1806.77095,-0.00052
1804.71077,-0.00040
1802.65060,-0.00029
1800.59043,-0.00036
1798.53026,-0.00058
1796.47009,-0.00078
1794.40991,-0.00089
1792.34974,-0.00086
1790.28957,-0.00071
1788.22940,-0.00053
1786.16923,-0.00031
1784.10905,-0.00010
1782.04888,0.00000
1779.98871,-0.00013
1777.92854,-0.00025
1775.86836,-0.00036
1773.80819,-0.00044
1771.74802,-0.00026
1769.68785,0.00022
1767.62768,0.00080
1765.56750,0.00140
1763.50733,0.00219
1761.44716,0.00326
1759.38699,0.00439
1757.32682,0.00556
1755.26664,0.00687
1753.20647,0.00825
1751.14630,0.01013
1749.08613,0.01291
1747.02596,0.01612
1744.96578,0.01955
1742.90561,0.02392
1740.84544,0.02964
1738.78527,0.03564
1736.72509,0.04060
1734.66492,0.04514
1732.60475,0.04926
1730.54458,0.05129
1728.48441,0.05146
1726.42423,0.05087
1724.36406,0.05016
1722.30389,0.04959
1720.24372,0.04911
1718.18355,0.04855
1716.12337,0.04801
1714.06320,0.04755
1712.00303,0.04712
1709.94286,0.04672
1707.88268,0.04611
1705.82251,0.04505
1703.76234,0.04388
1701.70217,0.04278
1699.64200,0.04151
1697.58182,0.04009
1695.52165,0.03871
1693.46148,0.03791
1691.40131,0.03764
1689.34114,0.03735
1687.28096,0.03685
1685.22079,0.03616
1683.16062,0.03548
1681.10045,0.03519
1679.04028,0.03522
1676.98010,0.03545
1674.91993,0.03586
1672.85976,0.03636
1670.79959,0.03714
1668.73941,0.03824
1666.67924,0.03930
1664.61907,0.04046
1662.55890,0.04210
1660.49873,0.04393
1658.43855,0.04544
1656.37838,0.04660
1654.31821,0.04776
1652.25804,0.04913
1650.19787,0.05004
1648.13769,0.05034
1646.07752,0.05056
1644.01735,0.05099
1641.95718,0.05132
1639.89701,0.05159
1637.83683,0.05228
1635.77666,0.05352
1633.71649,0.05477
1631.65632,0.05571
1629.59614,0.05654
1627.53597,0.05736
1625.47580,0.05824
1623.41563,0.05937
1621.35546,0.06051
1619.29528,0.06138
1617.23511,0.06237
1615.17494,0.06376
1613.11477,0.06516
1611.05460,0.06635
1608.99442,0.06728
1606.93425,0.06777
1604.87408,0.06769
1602.81391,0.06717
1600.75373,0.06634
1598.69356,0.06515
1596.63339,0.06349
1594.57322,0.06139
1592.51305,0.05907
1590.45287,0.05671
1588.39270,0.05428
1586.33253,0.05164
1584.27236,0.04882
1582.21219,0.04619
1580.15201,0.04403
1578.09184,0.04194
1576.03167,0.03941
1573.97150,0.03710
1571.91133,0.03550
1569.85115,0.03395
1567.79098,0.03243
1565.73081,0.03138
1563.67064,0.03086
1561.61046,0.03070
1559.55029,0.03031
1557.49012,0.02937
1555.42995,0.02894
1553.36978,0.02908
1551.30960,0.02924
1549.24943,0.02930
1547.18926,0.02932
1545.12909,0.02923
1543.06892,0.02904
1541.00874,0.02890
1538.94857,0.02875
1536.88840,0.02856
1534.82823,0.02829
1532.76805,0.02773
1530.70788,0.02677
1528.64771,0.02567
1526.58754,0.02475
1524.52737,0.02423
1522.46719,0.02404
1520.40702,0.02412
1518.34685,0.02446
1516.28668,0.02479
1514.22651,0.02470
1512.16633,0.02402
1510.10616,0.02273
1508.04599,0.02060
1505.98582,0.01789
1503.92565,0.01620
1501.86547,0.01534
1499.80530,0.01433
1497.74513,0.01264
1495.68496,0.01062
1493.62478,0.00914
1491.56461,0.00821
1489.50444,0.00713
1487.44427,0.00585
1485.38410,0.00501
1483.32392,0.00475
1481.26375,0.00491
1479.20358,0.00553
1477.14341,0.00690
1475.08324,0.00958
1473.02306,0.01377
1470.96289,0.01816
1468.90272,0.02146
1466.84255,0.02432
1464.78238,0.02741
1462.72220,0.02988
1460.66203,0.03125
1458.60186,0.03272
1456.54169,0.03519
1454.48151,0.03743
1452.42134,0.03887
1450.36117,0.04026
1448.30100,0.04188
1446.24083,0.04325
1444.18065,0.04401
1442.12048,0.04415
1440.06031,0.04370
1438.00014,0.04248
1435.93997,0.04050
1433.87979,0.03833
1431.81962,0.03627
1429.75945,0.03437
1427.69928,0.03295
1425.63910,0.03211
1423.57893,0.03161
1421.51876,0.03119
1419.45859,0.03075
1417.39842,0.03055
1415.33824,0.03058
1413.27807,0.03041
1411.21790,0.02997
1409.15773,0.02957
1407.09756,0.02946
1405.03738,0.02959
1402.97721,0.02984
1400.91704,0.03004
1398.85687,0.03019
1396.79670,0.03045
1394.73652,0.03097
1392.67635,0.03162
1390.61618,0.03229
1388.55601,0.03315
1386.49583,0.03423
1384.43566,0.03532
1382.37549,0.03645
1380.31532,0.03777
1378.25515,0.03913
1376.19497,0.04029
1374.13480,0.04126
1372.07463,0.04217
1370.01446,0.04307
1367.95429,0.04395
1365.89411,0.04461
1363.83394,0.04495
1361.77377,0.04522
1359.71360,0.04555
1357.65343,0.04582
1355.59325,0.04617
1353.53308,0.04683
1351.47291,0.04768
1349.41274,0.04840
1347.35256,0.04892
1345.29239,0.04939
1343.23222,0.04989
1341.17205,0.05039
1339.11188,0.05085
1337.05170,0.05134
1334.99153,0.05196
1332.93136,0.05278
1330.87119,0.05375
1328.81102,0.05480
1326.75084,0.05595
1324.69067,0.05714
1322.63050,0.05807
1320.57033,0.05850
1318.51015,0.05864
1316.44998,0.05881
1314.38981,0.05880
1312.32964,0.05823
1310.26947,0.05710
1308.20929,0.05556
1306.14912,0.05359
1304.08895,0.05118
1302.02878,0.04848
1299.96861,0.04574
1297.90843,0.04307
1295.84826,0.04053
1293.78809,0.03831
1291.72792,0.03656
1289.66775,0.03519
1287.60757,0.03411
1285.54740,0.03322
1283.48723,0.03243
1281.42706,0.03194
1279.36688,0.03189
1277.30671,0.03209
1275.24654,0.03244
1273.18637,0.03301
1271.12620,0.03378
1269.06602,0.03454
1267.00585,0.03519
1264.94568,0.03591
1262.88551,0.03680
1260.82534,0.03770
1258.76516,0.03854
1256.70499,0.03931
1254.64482,0.04008
1252.58465,0.04091
1250.52447,0.04181
1248.46430,0.04278
1246.40413,0.04380
1244.34396,0.04476
1242.28379,0.04578
1240.22361,0.04692
1238.16344,0.04799
1236.10327,0.04895
1234.04310,0.05004
1231.98293,0.05130
1229.92275,0.05259
1227.86258,0.05368
1225.80241,0.05470
1223.74224,0.05607
1221.68207,0.05750
1219.62189,0.05854
1217.56172,0.05932
1215.50155,0.06014
1213.44138,0.06129
1211.38120,0.06288
1209.32103,0.06455
1207.26086,0.06613
1205.20069,0.06760
1203.14052,0.06887
1201.08034,0.07007
1199.02017,0.07119
1196.96000,0.07192
1194.89983,0.07196
1192.83966,0.07152
1190.77948,0.07104
1188.71931,0.07049
1186.65914,0.06952
1184.59897,0.06811
1182.53880,0.06665
1180.47862,0.06539
1178.41845,0.06444
1176.35828,0.06393
1174.29811,0.06378
1172.23793,0.06387
1170.17776,0.06397
1168.11759,0.06364
1166.05742,0.06292
1163.99725,0.06218
1161.93707,0.06133
1159.87690,0.06017
1157.81673,0.05880
1155.75656,0.05740
1153.69639,0.05606
1151.63621,0.05471
1149.57604,0.05339
1147.51587,0.05210
1145.45570,0.05076
1143.39552,0.04940
1141.33535,0.04805
1139.27518,0.04669
1137.21501,0.04531
1135.15484,0.04413
1133.09466,0.04352
1131.03449,0.04346
1128.97432,0.04375
1126.91415,0.04445
1124.85398,0.04584
1122.79380,0.04778
1120.73363,0.04994
1118.67346,0.05254
1116.61329,0.05589
1114.55312,0.05976
1112.49294,0.06362
1110.43277,0.06732
1108.37260,0.07123
1106.31243,0.07511
1104.25225,0.07848
1102.19208,0.08142
1100.13191,0.08384
1098.07174,0.08559
1096.01157,0.08702
1093.95139,0.08842
1091.89122,0.09011
1089.83105,0.09221
1087.77088,0.09449
1085.71071,0.09697
1083.65053,0.09982
1081.59036,0.10292
1079.53019,0.10594
1077.47002,0.10871
1075.40985,0.11132
1073.34967,0.11379
1071.28950,0.11611
1069.22933,0.11816
1067.16916,0.11980
1065.10898,0.12115
1063.04881,0.12244
1060.98864,0.12385
1058.92847,0.12534
1056.86830,0.12679
1054.80812,0.12844
1052.74795,0.13043
1050.68778,0.13255
1048.62761,0.13465
1046.56744,0.13664
1044.50726,0.13861
1042.44709,0.14094
1040.38692,0.14369
1038.32675,0.14682
1036.26657,0.15019
1034.20640,0.15315
1032.14623,0.15542
1030.08606,0.15724
1028.02589,0.15869
1025.96571,0.15965
1023.90554,0.16018
1021.84537,0.16059
1019.78520,0.16073
1017.72503,0.16029
1015.66485,0.15957
1013.60468,0.15874
1011.54451,0.15735
1009.48434,0.15497
1007.42417,0.15162
1005.36399,0.14774
1003.30382,0.14376
1001.24365,0.13957
999.18348,0.13513
997.12330,0.13074
995.06313,0.12663
993.00296,0.12271
990.94279,0.11882
988.88262,0.11478
986.82244,0.11031
984.76227,0.10555
982.70210,0.10085
980.64193,0.09624
978.58176,0.09204
976.52158,0.08838
974.46141,0.08475
972.40124,0.08125
970.34107,0.07822
968.28089,0.07561
966.22072,0.07318
964.16055,0.07081
962.10038,0.06850
960.04021,0.06600
957.98003,0.06312
955.91986,0.06007
953.85969,0.05686
951.79952,0.05345
949.73935,0.05015
947.67917,0.04717
945.61900,0.04460
943.55883,0.04212
941.49866,0.03952
939.43849,0.03719
937.37831,0.03542
935.31814,0.03410
933.25797,0.03317
931.19780,0.03261
929.13762,0.03170
927.07745,0.03020
925.01728,0.02880
922.95711,0.02776
920.89694,0.02671
918.83676,0.02530
916.77659,0.02333
914.71642,0.02097
912.65625,0.01900
910.59608,0.01758
908.53590,0.01622
906.47573,0.01492
904.41556,0.01394
902.35539,0.01333
900.29522,0.01300
898.23504,0.01285
896.17487,0.01268
894.11470,0.01250
892.05453,0.01249
889.99435,0.01230
887.93418,0.01173
885.87401,0.01119
883.81384,0.01095
881.75367,0.01093
879.69349,0.01085
877.63332,0.01092
875.57315,0.01118
873.51298,0.01146
871.45281,0.01194
869.39263,0.01240
867.33246,0.01244
865.27229,0.01158
863.21212,0.00982
861.15194,0.00774
859.09177,0.00549
857.03160,0.00356
854.97143,0.00231
852.91126,0.00139
850.85108,0.00081
848.79091,0.00037
846.73074,0.00000
844.67057,0.00031
842.61040,0.00097
840.55022,0.00104
838.49005,0.00145
836.42988,0.00293
834.36971,0.00445
832.30954,0.00528
830.24936,0.00558
828.18919,0.00539
826.12902,0.00504
824.06885,0.00506
822.00867,0.00547
819.94850,0.00596
817.88833,0.00631
815.82816,0.00624
813.76799,0.00563
811.70781,0.00468
809.64764,0.00381
807.58747,0.00317
805.52730,0.00256
803.46713,0.00190
801.40695,0.00113
799.34678,0.00037
797.28661,0.00000
795.22644,-0.00017
793.16627,-0.00002
791.10609,-0.00005
789.04592,0.00025
786.98575,0.00119
784.92558,0.00218
782.86540,0.00296
780.80523,0.00359
778.74506,0.00392
776.68489,0.00407
774.62472,0.00448
772.56454,0.00569
770.50437,0.00742
768.44420,0.00874
766.38403,0.01045
764.32386,0.01305
762.26368,0.01561
760.20351,0.01818
758.14334,0.02038
756.08317,0.02092
754.02299,0.01954
751.96282,0.01713
749.90265,0.01468
747.84248,0.01317
745.78231,0.01270
743.72213,0.01154
741.66196,0.00945
739.60179,0.00802
737.54162,0.00741
735.48145,0.00707
733.42127,0.00699
731.36110,0.00701
729.30093,0.00696
727.24076,0.00679
725.18059,0.00610
723.12041,0.00516
721.06024,0.00604
719.00007,0.00648
716.93990,0.00576
714.87972,0.00495
712.81955,0.00470
710.75938,0.00471
708.69921,0.00427
706.63904,0.00362
704.57886,0.00336
702.51869,0.00358
700.45852,0.00420
698.39835,0.00484
696.33818,0.00437
694.27800,0.00269
692.21783,0.00099
690.15766,0.00000
688.09749,-0.00021
686.03731,-0.00015
683.97714,-0.00083
681.91697,-0.00197
679.85680,-0.00218
677.79663,-0.00109
675.73645,0.00040
673.67628,0.00021
671.61611,-0.00150
669.55594,0.00500
667.49577,0.01000
665.43559,-0.00097
663.37542,-0.00061
661.31525,0.00222
659.25508,0.00325
657.19491,0.00332
655.13473,0.00279
653.07456,0.00174
651.01439,0.00050
648.95422,0.00000
646.89404,0.00015
644.83387,0.00165
642.77370,0.00318
640.71353,0.00368
638.65336,0.00370
636.59318,0.00425
634.53301,0.00483
632.47284,0.00416
630.41267,0.00223
628.35250,0.00044
626.29232,0.00028
624.23215,0.00084
622.17198,-0.00081
620.11181,-0.00214
618.05164,0.00019
615.99146,0.00234
613.93129,0.00189
611.87112,0.00226
609.81095,0.00321
607.75077,0.00190
605.69060,-0.00031
603.63043,-0.00147
601.57026,-0.00121
599.51009,0.00000
