3996.73391,0.00100
3994.67373,0.00115
3992.61356,0.00099
3990.55339,0.00078
3988.49322,0.00074
3986.43305,0.00071
3984.37287,0.00041
3982.31270,0.00000
3980.25253,0.00005
3978.19236,0.00041
3976.13219,0.00064
3974.07201,0.00080
3972.01184,0.00080
3969.95167,0.00053
3967.89150,0.00035
3965.83133,0.00043
3963.77115,0.00044
3961.71098,0.00027
3959.65081,0.00026
3957.59064,0.00056
3955.53046,0.00092
3953.47029,0.00105
3951.41012,0.00091
3949.34995,0.00067
3947.28978,0.00057
3945.22960,0.00054
3943.16943,0.00050
3941.10926,0.00049
3939.04909,0.00044
3936.98892,0.00036
3934.92874,0.00043
3932.86857,0.00067
3930.80840,0.00086
3928.74823,0.00073
3926.68805,0.00035
3924.62788,0.00007
3922.56771,0.00014
3920.50754,0.00034
3918.44737,0.00026
3916.38719,0.00000
3914.32702,0.00006
3912.26685,0.00035
3910.20668,0.00039
3908.14651,0.00030
3906.08633,0.00049
3904.02616,0.00075
3901.96599,0.00047
3899.90582,0.00012
3897.84565,0.00038
3895.78547,0.00073
3893.72530,0.00069
3891.66513,0.00060
3889.60496,0.00075
3887.54478,0.00087
3885.48461,0.00085
3883.42444,0.00089
3881.36427,0.00099
3879.30410,0.00095
3877.24392,0.00075
3875.18375,0.00052
3873.12358,0.00043
3871.06341,0.00063
3869.00324,0.00095
3866.94306,0.00115
3864.88289,0.00133
3862.82272,0.00160
3860.76255,0.00171
3858.70237,0.00143
3856.64220,0.00084
3854.58203,0.00028
3852.52186,0.00044
3850.46169,0.00105
3848.40151,0.00126
3846.34134,0.00105
3844.28117,0.00075
3842.22100,0.00053
3840.16083,0.00030
3838.10065,0.00003
3836.04048,0.00000
3833.98031,0.00041
3831.92014,0.00097
3829.85997,0.00114
3827.79979,0.00092
3825.73962,0.00065
3823.67945,0.00042
3821.61928,0.00020
3819.55910,0.00017
3817.49893,0.00022
3815.43876,0.00019
3813.37859,0.00019
3811.31842,0.00014
3809.25824,0.00004
3807.19807,0.00030
3805.13790,0.00083
3803.07773,0.00098
3801.01756,0.00081
3798.95738,0.00063
3796.89721,0.00043
3794.83704,0.00039
3792.77687,0.00054
3790.71670,0.00055
3788.65652,0.00022
3786.59635,0.00000
3784.53618,0.00016
3782.47601,0.00022
3780.41583,0.00005
3778.35566,0.00006
3776.29549,0.00036
3774.23532,0.00071
3772.17515,0.00100
3770.11497,0.00120
3768.05480,0.00110
3765.99463,0.00064
3763.93446,0.00041
3761.87429,0.00077
3759.81411,0.00123
3757.75394,0.00128
3755.69377,0.00099
3753.63360,0.00046
3751.57342,-0.00002
3749.51325,0.00020
3747.45308,0.00080
3745.39291,0.00141
3743.33274,0.00211
3741.27256,0.00222
3739.21239,0.00170
3737.15222,0.00141
3735.09205,0.00162
3733.03188,0.00165
3730.97170,0.00132
3728.91153,0.00109
3726.85136,0.00104
3724.79119,0.00099
3722.73102,0.00095
3720.67084,0.00096
3718.61067,0.00092
3716.55050,0.00068
3714.49033,0.00054
3712.43015,0.00109
3710.36998,0.00212
3708.30981,0.00240
3706.24964,0.00180
3704.18947,0.00102
3702.12929,0.00044
3700.06912,0.00012
3698.00895,0.00017
3695.94878,0.00046
3693.88861,0.00053
3691.82843,0.00050
3689.76826,0.00098
3687.70809,0.00164
3685.64792,0.00145
3683.58775,0.00083
3681.52757,0.00066
3679.46740,0.00102
3677.40723,0.00173
3675.34706,0.00264
3673.28688,0.00305
3671.22671,0.00278
3669.16654,0.00247
3667.10637,0.00233
3665.04620,0.00230
3662.98602,0.00253
3660.92585,0.00292
3658.86568,0.00302
3656.80551,0.00294
3654.74534,0.00326
3652.68516,0.00398
3650.62499,0.00460
3648.56482,0.00484
3646.50465,0.00464
3644.44447,0.00431
3642.38430,0.00449
3640.32413,0.00520
3638.26396,0.00561
3636.20379,0.00546
3634.14361,0.00536
3632.08344,0.00559
3630.02327,0.00630
3627.96310,0.00749
3625.90293,0.00822
3623.84275,0.00840
3621.78258,0.00870
3619.72241,0.00921
3617.66224,0.00954
3615.60207,0.00964
3613.54189,0.00986
3611.48172,0.01040
3609.42155,0.01112
3607.36138,0.01175
3605.30120,0.01203
3603.24103,0.01207
3601.18086,0.01210
3599.12069,0.01225
3597.06052,0.01251
3595.00034,0.01286
3592.94017,0.01340
3590.88000,0.01404
3588.81983,0.01451
3586.75966,0.01458
3584.69948,0.01446
3582.63931,0.01468
3580.57914,0.01538
3578.51897,0.01630
3576.45879,0.01711
3574.39862,0.01753
3572.33845,0.01765
3570.27828,0.01773
3568.21811,0.01786
3566.15793,0.01802
3564.09776,0.01820
3562.03759,0.01845
3559.97742,0.01896
3557.91725,0.01963
3555.85707,0.02023
3553.79690,0.02074
3551.73673,0.02119
3549.67656,0.02155
3547.61639,0.02201
3545.55621,0.02277
3543.49604,0.02355
3541.43587,0.02397
3539.37570,0.02405
3537.31552,0.02408
3535.25535,0.02438
3533.19518,0.02484
3531.13501,0.02510
3529.07484,0.02514
3527.01466,0.02500
3524.95449,0.02478
3522.89432,0.02494
3520.83415,0.02571
3518.77398,0.02655
3516.71380,0.02717
3514.65363,0.02767
3512.59346,0.02796
3510.53329,0.02817
3508.47312,0.02881
3506.41294,0.02966
3504.35277,0.03008
3502.29260,0.03008
3500.23243,0.03018
3498.17225,0.03057
3496.11208,0.03113
3494.05191,0.03160
3491.99174,0.03189
3489.93157,0.03224
3487.87139,0.03256
3485.81122,0.03266
3483.75105,0.03279
3481.69088,0.03311
3479.63071,0.03319
3477.57053,0.03305
3475.51036,0.03332
3473.45019,0.03398
3471.39002,0.03444
3469.32984,0.03468
3467.26967,0.03488
3465.20950,0.03515
3463.14933,0.03555
3461.08916,0.03588
3459.02898,0.03595
3456.96881,0.03599
3454.90864,0.03643
3452.84847,0.03718
3450.78830,0.03772
3448.72812,0.03783
3446.66795,0.03776
3444.60778,0.03789
3442.54761,0.03818
3440.48744,0.03843
3438.42726,0.03855
3436.36709,0.03860
3434.30692,0.03885
3432.24675,0.03927
3430.18657,0.03959
3428.12640,0.03994
3426.06623,0.04031
3424.00606,0.04048
3421.94589,0.04057
3419.88571,0.04073
3417.82554,0.04093
3415.76537,0.04131
3413.70520,0.04175
3411.64503,0.04182
3409.58485,0.04163
3407.52468,0.04162
3405.46451,0.04203
3403.40434,0.04261
3401.34416,0.04275
3399.28399,0.04254
3397.22382,0.04259
3395.16365,0.04291
3393.10348,0.04314
3391.04330,0.04348
3388.98313,0.04412
3386.92296,0.04433
3384.86279,0.04383
3382.80262,0.04372
3380.74244,0.04436
3378.68227,0.04482
3376.62210,0.04465
3374.56193,0.04438
3372.50176,0.04473
3370.44158,0.04552
3368.38141,0.04579
3366.32124,0.04542
3364.26107,0.04508
3362.20089,0.04511
3360.14072,0.04517
3358.08055,0.04524
3356.02038,0.04559
3353.96021,0.04592
3351.90003,0.04593
3349.83986,0.04590
3347.77969,0.04580
3345.71952,0.04554
3343.65935,0.04553
3341.59917,0.04588
3339.53900,0.04638
3337.47883,0.04678
3335.41866,0.04666
3333.35849,0.04629
3331.29831,0.04632
3329.23814,0.04647
3327.17797,0.04619
3325.11780,0.04590
3323.05762,0.04621
3320.99745,0.04687
3318.93728,0.04722
3316.87711,0.04700
3314.81694,0.04669
3312.75676,0.04677
3310.69659,0.04710
3308.63642,0.04732
3306.57625,0.04723
3304.51608,0.04693
3302.45590,0.04696
3300.39573,0.04735
3298.33556,0.04748
3296.27539,0.04730
3294.21521,0.04710
3292.15504,0.04689
3290.09487,0.04683
3288.03470,0.04701
3285.97453,0.04720
3283.91435,0.04730
3281.85418,0.04723
3279.79401,0.04709
3277.73384,0.04716
3275.67367,0.04737
3273.61349,0.04753
3271.55332,0.04784
3269.49315,0.04828
3267.43298,0.04841
3265.37281,0.04834
3263.31263,0.04837
3261.25246,0.04855
3259.19229,0.04869
3257.13212,0.04849
3255.07194,0.04814
3253.01177,0.04799
3250.95160,0.04815
3248.89143,0.04832
3246.83126,0.04815
3244.77108,0.04780
3242.71091,0.04754
3240.65074,0.04745
3238.59057,0.04760
3236.53040,0.04779
3234.47022,0.04784
3232.41005,0.04784
3230.34988,0.04789
3228.28971,0.04791
3226.22954,0.04760
3224.16936,0.04709
3222.10919,0.04696
3220.04902,0.04728
3217.98885,0.04764
3215.92867,0.04776
3213.86850,0.04774
3211.80833,0.04777
3209.74816,0.04780
3207.68799,0.04777
3205.62781,0.04780
3203.56764,0.04783
3201.50747,0.04778
3199.44730,0.04764
3197.38713,0.04740
3195.32695,0.04726
3193.26678,0.04728
3191.20661,0.04719
3189.14644,0.04693
3187.08626,0.04672
3185.02609,0.04661
3182.96592,0.04648
3180.90575,0.04645
3178.84558,0.04653
3176.78540,0.04638
3174.72523,0.04602
3172.66506,0.04593
3170.60489,0.04610
3168.54472,0.04601
3166.48454,0.04574
3164.42437,0.04550
3162.36420,0.04511
3160.30403,0.04476
3158.24386,0.04485
3156.18368,0.04501
3154.12351,0.04481
3152.06334,0.04463
3150.00317,0.04462
3147.94299,0.04445
3145.88282,0.04426
3143.82265,0.04431
3141.76248,0.04430
3139.70231,0.04409
3137.64213,0.04377
3135.58196,0.04342
3133.52179,0.04315
3131.46162,0.04304
3129.40145,0.04292
3127.34127,0.04256
3125.28110,0.04224
3123.22093,0.04221
3121.16076,0.04234
3119.10058,0.04238
3117.04041,0.04210
3114.98024,0.04168
3112.92007,0.04136
3110.85990,0.04119
3108.79972,0.04104
3106.73955,0.04069
3104.67938,0.04021
3102.61921,0.03989
3100.55904,0.03991
3098.49886,0.04008
3096.43869,0.04019
3094.37852,0.04002
3092.31835,0.03953
3090.25818,0.03909
3088.19800,0.03891
3086.13783,0.03888
3084.07766,0.03884
3082.01749,0.03873
3079.95731,0.03855
3077.89714,0.03825
3075.83697,0.03787
3073.77680,0.03760
3071.71663,0.03743
3069.65645,0.03716
3067.59628,0.03690
3065.53611,0.03689
3063.47594,0.03689
3061.41577,0.03679
3059.35559,0.03669
3057.29542,0.03642
3055.23525,0.03596
3053.17508,0.03561
3051.11491,0.03540
3049.05473,0.03520
3046.99456,0.03498
3044.93439,0.03478
3042.87422,0.03472
3040.81404,0.03481
3038.75387,0.03474
3036.69370,0.03432
3034.63353,0.03394
3032.57336,0.03369
3030.51318,0.03337
3028.45301,0.03312
3026.39284,0.03304
3024.33267,0.03296
3022.27250,0.03263
3020.21232,0.03217
3018.15215,0.03200
3016.09198,0.03211
3014.03181,0.03210
3011.97163,0.03190
3009.91146,0.03170
3007.85129,0.03153
3005.79112,0.03120
3003.73095,0.03072
3001.67077,0.03044
2999.61060,0.03041
2997.55043,0.03035
2995.49026,0.03014
2993.43009,0.02982
2991.36991,0.02969
2989.30974,0.02978
2987.24957,0.02965
2985.18940,0.02938
2983.12923,0.02926
2981.06905,0.02909
2979.00888,0.02896
2976.94871,0.02889
2974.88854,0.02862
2972.82836,0.02847
2970.76819,0.02858
2968.70802,0.02851
2966.64785,0.02835
2964.58768,0.02826
2962.52750,0.02825
2960.46733,0.02838
2958.40716,0.02838
2956.34699,0.02814
2954.28682,0.02795
2952.22664,0.02796
2950.16647,0.02801
2948.10630,0.02792
2946.04613,0.02782
2943.98596,0.02795
2941.92578,0.02806
2939.86561,0.02790
2937.80544,0.02767
2935.74527,0.02756
2933.68509,0.02746
2931.62492,0.02726
2929.56475,0.02706
2927.50458,0.02690
2925.44441,0.02666
2923.38423,0.02645
2921.32406,0.02639
2919.26389,0.02641
2917.20372,0.02653
2915.14355,0.02655
2913.08337,0.02624
2911.02320,0.02584
2908.96303,0.02560
2906.90286,0.02555
2904.84268,0.02555
2902.78251,0.02541
2900.72234,0.02507
2898.66217,0.02485
2896.60200,0.02499
2894.54182,0.02513
2892.48165,0.02495
2890.42148,0.02472
2888.36131,0.02465
2886.30114,0.02462
2884.24096,0.02455
2882.18079,0.02450
2880.12062,0.02444
2878.06045,0.02428
2876.00028,0.02410
2873.94010,0.02407
2871.87993,0.02410
2869.81976,0.02393
2867.75959,0.02359
2865.69941,0.02342
2863.63924,0.02355
2861.57907,0.02359
2859.51890,0.02329
2857.45873,0.02307
2855.39855,0.02308
2853.33838,0.02298
2851.27821,0.02271
2849.21804,0.02257
2847.15787,0.02256
2845.09769,0.02260
2843.03752,0.02237
2840.97735,0.02189
2838.91718,0.02181
2836.85700,0.02211
2834.79683,0.02208
2832.73666,0.02171
2830.67649,0.02154
2828.61632,0.02161
2826.55614,0.02152
2824.49597,0.02120
2822.43580,0.02107
2820.37563,0.02120
2818.31546,0.02114
2816.25528,0.02078
2814.19511,0.02048
2812.13494,0.02044
2810.07477,0.02045
2808.01460,0.02038
2805.95442,0.02030
2803.89425,0.02018
2801.83408,0.02013
2799.77391,0.02024
2797.71373,0.02015
2795.65356,0.01995
2793.59339,0.01989
2791.53322,0.01978
2789.47305,0.01954
2787.41287,0.01929
2785.35270,0.01899
2783.29253,0.01882
2781.23236,0.01889
2779.17219,0.01893
2777.11201,0.01877
2775.05184,0.01869
2772.99167,0.01878
2770.93150,0.01880
2768.87133,0.01865
2766.81115,0.01839
2764.75098,0.01818
2762.69081,0.01811
2760.63064,0.01805
2758.57046,0.01790
2756.51029,0.01775
2754.45012,0.01774
2752.38995,0.01785
2750.32978,0.01781
2748.26960,0.01766
2746.20943,0.01754
2744.14926,0.01738
2742.08909,0.01732
2740.02892,0.01742
2737.96874,0.01744
2735.90857,0.01717
2733.84840,0.01673
2731.78823,0.01660
2729.72805,0.01685
2727.66788,0.01693
2725.60771,0.01649
2723.54754,0.01593
2721.48737,0.01573
2719.42719,0.01595
2717.36702,0.01617
2715.30685,0.01610
2713.24668,0.01596
2711.18651,0.01586
2709.12633,0.01574
2707.06616,0.01555
2705.00599,0.01541
2702.94582,0.01541
2700.88565,0.01548
2698.82547,0.01534
2696.76530,0.01506
2694.70513,0.01494
2692.64496,0.01492
2690.58478,0.01475
2688.52461,0.01451
2686.46444,0.01438
2684.40427,0.01426
2682.34410,0.01410
2680.28392,0.01400
2678.22375,0.01395
2676.16358,0.01393
2674.10341,0.01378
2672.04324,0.01350
2669.98306,0.01351
2667.92289,0.01363
2665.86272,0.01353
2663.80255,0.01332
2661.74238,0.01309
2659.68220,0.01288
2657.62203,0.01283
2655.56186,0.01294
2653.50169,0.01298
2651.44151,0.01280
2649.38134,0.01250
2647.32117,0.01221
2645.26100,0.01201
2643.20083,0.01195
2641.14065,0.01196
2639.08048,0.01203
2637.02031,0.01206
2634.96014,0.01185
2632.89997,0.01153
2630.83979,0.01128
2628.77962,0.01117
2626.71945,0.01116
2624.65928,0.01108
2622.59910,0.01089
2620.53893,0.01065
2618.47876,0.01044
2616.41859,0.01032
2614.35842,0.01023
2612.29824,0.01016
2610.23807,0.01002
2608.17790,0.00972
2606.11773,0.00971
2604.05756,0.01007
2601.99738,0.01027
2599.93721,0.01016
2597.87704,0.00985
2595.81687,0.00967
2593.75670,0.00979
2591.69652,0.00983
2589.63635,0.00952
2587.57618,0.00905
2585.51601,0.00858
2583.45583,0.00844
2581.39566,0.00870
2579.33549,0.00890
2577.27532,0.00904
2575.21515,0.00953
2573.15497,0.00992
2571.09480,0.00982
2569.03463,0.00965
2566.97446,0.00966
2564.91429,0.00972
2562.85411,0.00988
2560.79394,0.00976
2558.73377,0.00920
2556.67360,0.00891
2554.61342,0.00887
2552.55325,0.00876
2550.49308,0.00901
2548.43291,0.00933
2546.37274,0.00933
2544.31256,0.00933
2542.25239,0.00933
2540.19222,0.00904
2538.13205,0.00892
2536.07188,0.00943
2534.01170,0.00976
2531.95153,0.00946
2529.89136,0.00929
2527.83119,0.00924
2525.77102,0.00893
2523.71084,0.00871
2521.65067,0.00883
2519.59050,0.00905
2517.53033,0.00903
2515.47015,0.00886
2513.40998,0.00865
2511.34981,0.00853
2509.28964,0.00892
2507.22947,0.00958
2505.16929,0.00973
2503.10912,0.00940
2501.04895,0.00937
2498.98878,0.00976
2496.92861,0.00997
2494.86843,0.00968
2492.80826,0.00940
2490.74809,0.00964
2488.68792,0.01000
2486.62775,0.01017
2484.56757,0.01040
2482.50740,0.01066
2480.44723,0.01074
2478.38706,0.01036
2476.32688,0.00984
2474.26671,0.00980
2472.20654,0.00997
2470.14637,0.01006
2468.08620,0.01037
2466.02602,0.01069
2463.96585,0.01068
2461.90568,0.01057
2459.84551,0.01056
2457.78534,0.01072
2455.72516,0.01092
2453.66499,0.01103
2451.60482,0.01116
2449.54465,0.01117
2447.48447,0.01112
2445.42430,0.01117
2443.36413,0.01102
2441.30396,0.01081
2439.24379,0.01068
2437.18361,0.01055
2435.12344,0.01088
2433.06327,0.01145
2431.00310,0.01143
2428.94293,0.01106
2426.88275,0.01097
2424.82258,0.01093
2422.76241,0.01052
2420.70224,0.01010
2418.64207,0.00992
2416.58189,0.00991
2414.52172,0.01026
2412.46155,0.01069
2410.40138,0.01059
2408.34120,0.01027
2406.28103,0.01023
2404.22086,0.01039
2402.16069,0.01039
2400.10052,0.01008
2398.04034,0.00974
2395.98017,0.00977
2393.92000,0.00995
2391.85983,0.01010
2389.79966,0.01032
2387.73948,0.01052
2385.67931,0.01060
2383.61914,0.01075
2381.55897,0.01101
2379.49880,0.01117
2377.43862,0.01130
2375.37845,0.01186
2373.31828,0.01249
2371.25811,0.01194
2369.19793,0.01050
2367.13776,0.01032
2365.07759,0.01259
2363.01742,0.01603
2360.95725,0.01763
2358.89707,0.01656
2356.83690,0.01485
2354.77673,0.01346
2352.71656,0.01211
2350.65639,0.01125
2348.59621,0.01110
2346.53604,0.01131
2344.47587,0.01161
2342.41570,0.01207
2340.35552,0.01270
2338.29535,0.01329
2336.23518,0.01368
2334.17501,0.01360
2332.11484,0.01304
2330.05466,0.01258
2327.99449,0.01217
2325.93432,0.01140
2323.87415,0.01102
2321.81398,0.01146
2319.75380,0.01217
2317.69363,0.01289
2315.63346,0.01296
2313.57329,0.01202
2311.51312,0.01106
2309.45294,0.01064
2307.39277,0.01030
2305.33260,0.00981
2303.27243,0.00919
2301.21225,0.00887
2299.15208,0.00937
2297.09191,0.01023
2295.03174,0.01050
2292.97157,0.01019
2290.91139,0.01019
2288.85122,0.01043
2286.79105,0.01005
2284.73088,0.00948
2282.67071,0.00952
2280.61053,0.00949
2278.55036,0.00889
2276.49019,0.00845
2274.43002,0.00851
2272.36984,0.00879
2270.30967,0.00913
2268.24950,0.00914
2266.18933,0.00875
2264.12916,0.00835
2262.06898,0.00806
2260.00881,0.00775
2257.94864,0.00771
2255.88847,0.00785
2253.82830,0.00758
2251.76812,0.00718
2249.70795,0.00698
2247.64778,0.00675
2245.58761,0.00658
2243.52744,0.00636
2241.46726,0.00591
2239.40709,0.00563
2237.34692,0.00587
2235.28675,0.00622
2233.22657,0.00639
2231.16640,0.00629
2229.10623,0.00603
2227.04606,0.00599
2224.98589,0.00595
2222.92571,0.00591
2220.86554,0.00596
2218.80537,0.00578
2216.74520,0.00593
2214.68503,0.00692
2212.62485,0.00767
2210.56468,0.00712
2208.50451,0.00648
2206.44434,0.00682
2204.38417,0.00722
2202.32399,0.00742
2200.26382,0.00755
2198.20365,0.00725
2196.14348,0.00666
2194.08330,0.00573
2192.02313,0.00447
2189.96296,0.00409
2187.90279,0.00485
2185.84262,0.00536
2183.78244,0.00542
2181.72227,0.00525
2179.66210,0.00450
2177.60193,0.00335
2175.54176,0.00275
2173.48158,0.00299
2171.42141,0.00313
2169.36124,0.00326
2167.30107,0.00393
2165.24089,0.00469
2163.18072,0.00465
2161.12055,0.00350
2159.06038,0.00221
2157.00021,0.00195
2154.94003,0.00266
2152.87986,0.00295
2150.81969,0.00290
2148.75952,0.00331
2146.69935,0.00313
2144.63917,0.00261
2142.57900,0.00299
2140.51883,0.00375
2138.45866,0.00353
2136.39849,0.00250
2134.33831,0.00227
2132.27814,0.00254
2130.21797,0.00216
2128.15780,0.00192
2126.09762,0.00289
2124.03745,0.00423
2121.97728,0.00461
2119.91711,0.00399
2117.85694,0.00340
2115.79676,0.00395
2113.73659,0.00500
2111.67642,0.00523
2109.61625,0.00473
2107.55608,0.00421
2105.49590,0.00415
2103.43573,0.00431
2101.37556,0.00387
2099.31539,0.00346
2097.25521,0.00439
2095.19504,0.00560
2093.13487,0.00516
2091.07470,0.00394
2089.01453,0.00386
2086.95435,0.00451
2084.89418,0.00436
2082.83401,0.00353
2080.77384,0.00322
2078.71367,0.00333
2076.65349,0.00294
2074.59332,0.00264
2072.53315,0.00309
2070.47298,0.00336
2068.41281,0.00278
2066.35263,0.00196
2064.29246,0.00184
2062.23229,0.00227
2060.17212,0.00248
2058.11194,0.00264
2056.05177,0.00291
2053.99160,0.00299
2051.93143,0.00267
2049.87126,0.00221
2047.81108,0.00239
2045.75091,0.00304
2043.69074,0.00345
2041.63057,0.00306
2039.57040,0.00215
2037.51022,0.00212
2035.45005,0.00238
2033.38988,0.00213
2031.32971,0.00242
2029.26954,0.00251
2027.20936,0.00180
2025.14919,0.00156
2023.08902,0.00179
2021.02885,0.00187
2018.96867,0.00181
2016.90850,0.00182
2014.84833,0.00194
2012.78816,0.00184
2010.72799,0.00168
2008.66781,0.00132
2006.60764,0.00091
2004.54747,0.00135
2002.48730,0.00216
2000.42713,0.00256
1998.36695,0.00256
1996.30678,0.00209
1994.24661,0.00199
1992.18644,0.00319
1990.12626,0.00433
1988.06609,0.00408
1986.00592,0.00327
1983.94575,0.00257
1981.88558,0.00191
1979.82540,0.00140
1977.76523,0.00086
1975.70506,0.00045
1973.64489,0.00095
1971.58472,0.00169
1969.52454,0.00163
1967.46437,0.00140
1965.40420,0.00151
1963.34403,0.00105
1961.28386,0.00014
1959.22368,0.00000
1957.16351,0.00067
1955.10334,0.00130
1953.04317,0.00150
1950.98299,0.00161
1948.92282,0.00162
1946.86265,0.00122
1944.80248,0.00076
1942.74231,0.00077
1940.68213,0.00120
1938.62196,0.00153
1936.56179,0.00165
1934.50162,0.00172
1932.44145,0.00163
1930.38127,0.00151
1928.32110,0.00173
1926.26093,0.00205
1924.20076,0.00220
1922.14059,0.00230
1920.08041,0.00240
1918.02024,0.00241
1915.96007,0.00233
1913.89990,0.00225
1911.83972,0.00229
1909.77955,0.00229
1907.71938,0.00195
1905.65921,0.00163
1903.59904,0.00159
1901.53886,0.00172
1899.47869,0.00195
1897.41852,0.00219
1895.35835,0.00223
1893.29818,0.00204
1891.23800,0.00171
1889.17783,0.00151
1887.11766,0.00159
1885.05749,0.00175
1882.99731,0.00182
1880.93714,0.00196
1878.87697,0.00231
1876.81680,0.00286
1874.75663,0.00336
1872.69645,0.00356
1870.63628,0.00337
1868.57611,0.00293
1866.51594,0.00264
1864.45577,0.00268
1862.39559,0.00277
1860.33542,0.00284
1858.27525,0.00298
1856.21508,0.00284
1854.15491,0.00223
1852.09473,0.00183
1850.03456,0.00210
1847.97439,0.00268
1845.91422,0.00304
1843.85404,0.00299
1841.79387,0.00272
1839.73370,0.00252
1837.67353,0.00260
1835.61336,0.00291
1833.55318,0.00304
1831.49301,0.00281
1829.43284,0.00259
1827.37267,0.00283
1825.31250,0.00333
1823.25232,0.00353
1821.19215,0.00327
1819.13198,0.00299
1817.07181,0.00304
1815.01163,0.00328
1812.95146,0.00336
1810.89129,0.00332
1808.83112,0.00345
1806.77095,0.00358
1804.71077,0.00352
1802.65060,0.00344
1800.59043,0.00340
1798.53026,0.00331
1796.47009,0.00313
1794.40991,0.00291
1792.34974,0.00290
1790.28957,0.00318
1788.22940,0.00347
1786.16923,0.00359
1784.10905,0.00362
1782.04888,0.00371
1779.98871,0.00380
1777.92854,0.00370
1775.86836,0.00349
1773.80819,0.00345
1771.74802,0.00361
1769.68785,0.00366
1767.62768,0.00358
1765.56750,0.00360
1763.50733,0.00373
1761.44716,0.00396
1759.38699,0.00434
1757.32682,0.00482
1755.26664,0.00511
1753.20647,0.00510
1751.14630,0.00497
1749.08613,0.00487
1747.02596,0.00487
1744.96578,0.00509
1742.90561,0.00557
1740.84544,0.00603
1738.78527,0.00611
1736.72509,0.00588
1734.66492,0.00581
1732.60475,0.00602
1730.54458,0.00613
1728.48441,0.00627
1726.42423,0.00666
1724.36406,0.00693
1722.30389,0.00682
1720.24372,0.00667
1718.18355,0.00685
1716.12337,0.00723
1714.06320,0.00762
1712.00303,0.00811
1709.94286,0.00848
1707.88268,0.00857
1705.82251,0.00870
1703.76234,0.00911
1701.70217,0.00950
1699.64200,0.00963
1697.58182,0.00979
1695.52165,0.01030
1693.46148,0.01091
1691.40131,0.01119
1689.34114,0.01128
1687.28096,0.01144
1685.22079,0.01174
1683.16062,0.01233
1681.10045,0.01303
1679.04028,0.01355
1676.98010,0.01383
1674.91993,0.01387
1672.85976,0.01381
1670.79959,0.01414
1668.73941,0.01507
1666.67924,0.01575
1664.61907,0.01586
1662.55890,0.01582
1660.49873,0.01583
1658.43855,0.01588
1656.37838,0.01592
1654.31821,0.01581
1652.25804,0.01564
1650.19787,0.01563
1648.13769,0.01569
1646.07752,0.01586
1644.01735,0.01615
1641.95718,0.01629
1639.89701,0.01617
1637.83683,0.01578
1635.77666,0.01524
1633.71649,0.01489
1631.65632,0.01477
1629.59614,0.01463
1627.53597,0.01445
1625.47580,0.01427
1623.41563,0.01408
1621.35546,0.01401
1619.29528,0.01401
1617.23511,0.01389
1615.17494,0.01360
1613.11477,0.01320
1611.05460,0.01291
1608.99442,0.01284
1606.93425,0.01283
1604.87408,0.01260
1602.81391,0.01210
1600.75373,0.01164
1598.69356,0.01129
1596.63339,0.01094
1594.57322,0.01051
1592.51305,0.01003
1590.45287,0.00962
1588.39270,0.00933
1586.33253,0.00902
1584.27236,0.00863
1582.21219,0.00822
1580.15201,0.00780
1578.09184,0.00732
1576.03167,0.00682
1573.97150,0.00661
1571.91133,0.00655
1569.85115,0.00634
1567.79098,0.00611
1565.73081,0.00593
1563.67064,0.00565
1561.61046,0.00519
1559.55029,0.00466
1557.49012,0.00448
1555.42995,0.00474
1553.36978,0.00493
1551.30960,0.00482
1549.24943,0.00453
1547.18926,0.00421
1545.12909,0.00378
1543.06892,0.00329
1541.00874,0.00320
1538.94857,0.00356
1536.88840,0.00368
1534.82823,0.00351
1532.76805,0.00338
1530.70788,0.00334
1528.64771,0.00322
1526.58754,0.00293
1524.52737,0.00248
1522.46719,0.00206
1520.40702,0.00190
1518.34685,0.00184
1516.28668,0.00171
1514.22651,0.00160
1512.16633,0.00146
1510.10616,0.00129
1508.04599,0.00126
1505.98582,0.00145
1503.92565,0.00158
1501.86547,0.00149
1499.80530,0.00128
1497.74513,0.00117
1495.68496,0.00129
1493.62478,0.00140
1491.56461,0.00133
1489.50444,0.00134
1487.44427,0.00153
1485.38410,0.00163
1483.32392,0.00154
1481.26375,0.00147
1479.20358,0.00157
1477.14341,0.00173
1475.08324,0.00176
1473.02306,0.00163
1470.96289,0.00164
1468.90272,0.00178
1466.84255,0.00178
1464.78238,0.00181
1462.72220,0.00206
1460.66203,0.00221
1458.60186,0.00196
1456.54169,0.00177
1454.48151,0.00205
1452.42134,0.00231
1450.36117,0.00223
1448.30100,0.00202
1446.24083,0.00195
1444.18065,0.00194
1442.12048,0.00188
1440.06031,0.00186
1438.00014,0.00188
1435.93997,0.00186
1433.87979,0.00188
1431.81962,0.00197
1429.75945,0.00202
1427.69928,0.00190
1425.63910,0.00182
1423.57893,0.00203
1421.51876,0.00233
1419.45859,0.00228
1417.39842,0.00205
1415.33824,0.00214
1413.27807,0.00242
1411.21790,0.00254
1409.15773,0.00246
1407.09756,0.00226
1405.03738,0.00204
1402.97721,0.00189
1400.91704,0.00186
1398.85687,0.00192
1396.79670,0.00187
1394.73652,0.00170
1392.67635,0.00167
1390.61618,0.00174
1388.55601,0.00174
1386.49583,0.00183
1384.43566,0.00204
1382.37549,0.00210
1380.31532,0.00200
1378.25515,0.00201
1376.19497,0.00216
1374.13480,0.00229
1372.07463,0.00225
1370.01446,0.00212
1367.95429,0.00203
1365.89411,0.00190
1363.83394,0.00163
1361.77377,0.00134
1359.71360,0.00121
1357.65343,0.00120
1355.59325,0.00118
1353.53308,0.00113
1351.47291,0.00115
1349.41274,0.00130
1347.35256,0.00135
1345.29239,0.00116
1343.23222,0.00094
1341.17205,0.00093
1339.11188,0.00113
1337.05170,0.00129
1334.99153,0.00132
1332.93136,0.00124
1330.87119,0.00110
1328.81102,0.00106
1326.75084,0.00118
1324.69067,0.00130
1322.63050,0.00134
1320.57033,0.00127
1318.51015,0.00110
1316.44998,0.00100
1314.38981,0.00109
1312.32964,0.00129
1310.26947,0.00145
1308.20929,0.00146
1306.14912,0.00145
1304.08895,0.00158
1302.02878,0.00177
1299.96861,0.00182
1297.90843,0.00173
1295.84826,0.00167
1293.78809,0.00178
1291.72792,0.00200
1289.66775,0.00221
1287.60757,0.00238
1285.54740,0.00249
1283.48723,0.00248
1281.42706,0.00244
1279.36688,0.00252
1277.30671,0.00272
1275.24654,0.00281
1273.18637,0.00276
1271.12620,0.00268
1269.06602,0.00267
1267.00585,0.00271
1264.94568,0.00277
1262.88551,0.00284
1260.82534,0.00283
1258.76516,0.00273
1256.70499,0.00267
1254.64482,0.00269
1252.58465,0.00273
1250.52447,0.00261
1248.46430,0.00235
1246.40413,0.00217
1244.34396,0.00212
1242.28379,0.00206
1240.22361,0.00194
1238.16344,0.00185
1236.10327,0.00178
1234.04310,0.00162
1231.98293,0.00143
1229.92275,0.00124
1227.86258,0.00107
1225.80241,0.00095
1223.74224,0.00084
1221.68207,0.00070
1219.62189,0.00050
1217.56172,0.00017
1215.50155,0.00000
1213.44138,0.00012
1211.38120,0.00020
1209.32103,0.00014
1207.26086,0.00015
1205.20069,0.00017
1203.14052,0.00019
1201.08034,0.00040
1199.02017,0.00067
1196.96000,0.00079
1194.89983,0.00083
1192.83966,0.00098
1190.77948,0.00133
1188.71931,0.00175
1186.65914,0.00223
1184.59897,0.00288
1182.53880,0.00357
1180.47862,0.00422
1178.41845,0.00506
1176.35828,0.00601
1174.29811,0.00684
1172.23793,0.00762
1170.17776,0.00844
1168.11759,0.00933
1166.05742,0.01032
1163.99725,0.01123
1161.93707,0.01193
1159.87690,0.01256
1157.81673,0.01333
1155.75656,0.01425
1153.69639,0.01522
1151.63621,0.01622
1149.57604,0.01718
1147.51587,0.01817
1145.45570,0.01939
1143.39552,0.02068
1141.33535,0.02184
1139.27518,0.02297
1137.21501,0.02418
1135.15484,0.02537
1133.09466,0.02668
1131.03449,0.02799
1128.97432,0.02905
1126.91415,0.03026
1124.85398,0.03184
1122.79380,0.03341
1120.73363,0.03470
1118.67346,0.03588
1116.61329,0.03716
1114.55312,0.03852
1112.49294,0.03988
1110.43277,0.04112
1108.37260,0.04224
1106.31243,0.04337
1104.25225,0.04466
1102.19208,0.04588
1100.13191,0.04683
1098.07174,0.04774
1096.01157,0.04891
1093.95139,0.05026
1091.89122,0.05155
1089.83105,0.05258
1087.77088,0.05339
1085.71071,0.05414
1083.65053,0.05494
1081.59036,0.05577
1079.53019,0.05658
1077.47002,0.05723
1075.40985,0.05771
1073.34967,0.05813
1071.28950,0.05861
1069.22933,0.05907
1067.16916,0.05906
1065.10898,0.05856
1063.04881,0.05810
1060.98864,0.05776
1058.92847,0.05724
1056.86830,0.05647
1054.80812,0.05569
1052.74795,0.05504
1050.68778,0.05419
1048.62761,0.05294
1046.56744,0.05147
1044.50726,0.04994
1042.44709,0.04831
1040.38692,0.04659
1038.32675,0.04505
1036.26657,0.04378
1034.20640,0.04245
1032.14623,0.04099
1030.08606,0.03968
1028.02589,0.03841
1025.96571,0.03730
1023.90554,0.03644
1021.84537,0.03543
1019.78520,0.03435
1017.72503,0.03344
1015.66485,0.03267
1013.60468,0.03206
1011.54451,0.03173
1009.48434,0.03174
1007.42417,0.03177
1005.36399,0.03166
1003.30382,0.03191
1001.24365,0.03272
999.18348,0.03367
997.12330,0.03453
995.06313,0.03556
993.00296,0.03680
990.94279,0.03797
988.88262,0.03875
986.82244,0.03919
984.76227,0.03953
982.70210,0.03969
980.64193,0.03956
978.58176,0.03916
976.52158,0.03843
974.46141,0.03743
972.40124,0.03629
970.34107,0.03490
968.28089,0.03330
966.22072,0.03171
964.16055,0.03021
962.10038,0.02872
960.04021,0.02728
957.98003,0.02603
955.91986,0.02495
953.85969,0.02405
951.79952,0.02321
949.73935,0.02228
947.67917,0.02161
945.61900,0.02136
943.55883,0.02118
941.49866,0.02104
939.43849,0.02100
937.37831,0.02085
935.31814,0.02064
933.25797,0.02045
931.19780,0.02007
929.13762,0.01957
927.07745,0.01927
925.01728,0.01906
922.95711,0.01871
920.89694,0.01823
918.83676,0.01771
916.77659,0.01718
914.71642,0.01663
912.65625,0.01622
910.59608,0.01597
908.53590,0.01564
906.47573,0.01525
904.41556,0.01502
902.35539,0.01482
900.29522,0.01457
898.23504,0.01466
896.17487,0.01500
894.11470,0.01526
892.05453,0.01563
889.99435,0.01591
887.93418,0.01603
885.87401,0.01651
883.81384,0.01735
881.75367,0.01772
879.69349,0.01767
877.63332,0.01810
875.57315,0.01886
873.51298,0.01925
871.45281,0.01962
869.39263,0.02042
867.33246,0.02086
865.27229,0.02046
863.21212,0.02005
861.15194,0.02036
859.09177,0.02057
857.03160,0.02005
854.97143,0.01970
852.91126,0.01967
850.85108,0.01923
848.79091,0.01865
846.73074,0.01834
844.67057,0.01774
842.61040,0.01661
840.55022,0.01559
838.49005,0.01486
836.42988,0.01421
834.36971,0.01372
832.30954,0.01303
830.24936,0.01192
828.18919,0.01105
826.12902,0.01067
824.06885,0.01026
822.00867,0.00958
819.94850,0.00908
817.88833,0.00880
815.82816,0.00835
813.76799,0.00769
811.70781,0.00726
809.64764,0.00730
807.58747,0.00730
805.52730,0.00696
803.46713,0.00656
801.40695,0.00617
799.34678,0.00597
797.28661,0.00613
795.22644,0.00603
793.16627,0.00562
791.10609,0.00546
789.04592,0.00533
786.98575,0.00485
784.92558,0.00425
782.86540,0.00381
780.80523,0.00378
778.74506,0.00438
776.68489,0.00535
774.62472,0.00589
772.56454,0.00547
770.50437,0.00471
768.44420,0.00410
766.38403,0.00363
764.32386,0.00326
762.26368,0.00294
760.20351,0.00291
758.14334,0.00310
756.08317,0.00359
754.02299,0.00419
751.96282,0.00396
749.90265,0.00292
747.84248,0.00217
745.78231,0.00227
743.72213,0.00299
741.66196,0.00358
739.60179,0.00353
737.54162,0.00305
735.48145,0.00232
733.42127,0.00186
731.36110,0.00211
729.30093,0.00243
727.24076,0.00264
725.18059,0.00313
723.12041,0.00353
721.06024,0.00353
719.00007,0.00303
716.93990,0.00232
714.87972,0.00219
712.81955,0.00257
710.75938,0.00274
708.69921,0.00271
706.63904,0.00314
704.57886,0.00387
702.51869,0.00386
700.45852,0.00292
698.39835,0.00191
696.33818,0.00150
694.27800,0.00147
692.21783,0.00112
690.15766,0.00037
688.09749,0.00000
686.03731,0.00020
683.97714,0.00056
681.91697,0.00074
679.85680,0.00097
677.79663,0.00155
675.73645,0.00230
673.67628,0.00294
671.61611,0.00337
669.55594,0.00332
667.49577,0.00262
665.43559,0.00194
663.37542,0.00156
661.31525,0.00177
659.25508,0.00277
657.19491,0.00345
655.13473,0.00320
653.07456,0.00256
651.01439,0.00210
648.95422,0.00224
646.89404,0.00286
644.83387,0.00325
642.77370,0.00325
640.71353,0.00254
638.65336,0.00130
636.59318,0.00068
634.53301,0.00056
632.47284,0.00069
630.41267,0.00127
628.35250,0.00112
626.29232,-0.00001
624.23215,0.00040
622.17198,0.00171
620.11181,0.00258
618.05164,0.00443
615.99146,0.00568
613.93129,0.00375
611.87112,0.00164
609.81095,0.00114
607.75077,0.00120
605.69060,0.00035
603.63043,-0.00123
601.57026,-0.00086
599.51009,0.00000
