3996.73391,0.00052
3994.67373,0.00036
3992.61356,0.00041
3990.55339,0.00044
3988.49322,0.00039
3986.43305,0.00049
3984.37287,0.00049
3982.31270,0.00017
3980.25253,0.00001
3978.19236,0.00024
3976.13219,0.00062
3974.07201,0.00088
3972.01184,0.00071
3969.95167,0.00027
3967.89150,0.00010
3965.83133,0.00015
3963.77115,0.00009
3961.71098,0.00000
3959.65081,0.00013
3957.59064,0.00041
3955.53046,0.00063
3953.47029,0.00065
3951.41012,0.00052
3949.34995,0.00042
3947.28978,0.00047
3945.22960,0.00073
3943.16943,0.00107
3941.10926,0.00124
3939.04909,0.00096
3936.98892,0.00045
3934.92874,0.00018
3932.86857,0.00037
3930.80840,0.00084
3928.74823,0.00117
3926.68805,0.00117
3924.62788,0.00092
3922.56771,0.00050
3920.50754,0.00011
3918.44737,0.00000
3916.38719,0.00023
3914.32702,0.00063
3912.26685,0.00088
3910.20668,0.00074
3908.14651,0.00035
3906.08633,0.00026
3904.02616,0.00062
3901.96599,0.00079
3899.90582,0.00066
3897.84565,0.00085
3895.78547,0.00118
3893.72530,0.00114
3891.66513,0.00095
3889.60496,0.00119
3887.54478,0.00173
3885.48461,0.00193
3883.42444,0.00171
3881.36427,0.00141
3879.30410,0.00111
3877.24392,0.00077
3875.18375,0.00054
3873.12358,0.00058
3871.06341,0.00086
3869.00324,0.00108
3866.94306,0.00115
3864.88289,0.00128
3862.82272,0.00155
3860.76255,0.00167
3858.70237,0.00138
3856.64220,0.00077
3854.58203,0.00034
3852.52186,0.00061
3850.46169,0.00098
3848.40151,0.00091
3846.34134,0.00068
3844.28117,0.00047
3842.22100,0.00027
3840.16083,0.00027
3838.10065,0.00060
3836.04048,0.00098
3833.98031,0.00127
3831.92014,0.00167
3829.85997,0.00206
3827.79979,0.00196
3825.73962,0.00127
3823.67945,0.00041
3821.61928,0.00000
3819.55910,0.00036
3817.49893,0.00091
3815.43876,0.00099
3813.37859,0.00086
3811.31842,0.00102
3809.25824,0.00151
3807.19807,0.00205
3805.13790,0.00210
3803.07773,0.00162
3801.01756,0.00119
3798.95738,0.00107
3796.89721,0.00113
3794.83704,0.00120
3792.77687,0.00116
3790.71670,0.00098
3788.65652,0.00075
3786.59635,0.00065
3784.53618,0.00060
3782.47601,0.00031
3780.41583,0.00007
3778.35566,0.00040
3776.29549,0.00092
3774.23532,0.00116
3772.17515,0.00139
3770.11497,0.00176
3768.05480,0.00179
3765.99463,0.00137
3763.93446,0.00106
3761.87429,0.00106
3759.81411,0.00111
3757.75394,0.00130
3755.69377,0.00182
3753.63360,0.00216
3751.57342,0.00206
3749.51325,0.00229
3747.45308,0.00287
3745.39291,0.00306
3743.33274,0.00258
3741.27256,0.00172
3739.21239,0.00097
3737.15222,0.00048
3735.09205,0.00038
3733.03188,0.00071
3730.97170,0.00117
3728.91153,0.00145
3726.85136,0.00145
3724.79119,0.00124
3722.73102,0.00118
3720.67084,0.00133
3718.61067,0.00150
3716.55050,0.00154
3714.49033,0.00165
3712.43015,0.00197
3710.36998,0.00213
3708.30981,0.00194
3706.24964,0.00164
3704.18947,0.00147
3702.12929,0.00146
3700.06912,0.00129
3698.00895,0.00107
3695.94878,0.00118
3693.88861,0.00157
3691.82843,0.00194
3689.76826,0.00227
3687.70809,0.00225
3685.64792,0.00164
3683.58775,0.00117
3681.52757,0.00122
3679.46740,0.00117
3677.40723,0.00086
3675.34706,0.00122
3673.28688,0.00220
3671.22671,0.00281
3669.16654,0.00301
3667.10637,0.00313
3665.04620,0.00325
3662.98602,0.00340
3660.92585,0.00363
3658.86568,0.00375
3656.80551,0.00370
3654.74534,0.00379
3652.68516,0.00424
3650.62499,0.00498
3648.56482,0.00570
3646.50465,0.00593
3644.44447,0.00580
3642.38430,0.00573
3640.32413,0.00582
3638.26396,0.00593
3636.20379,0.00600
3634.14361,0.00619
3632.08344,0.00659
3630.02327,0.00721
3627.96310,0.00782
3625.90293,0.00805
3623.84275,0.00821
3621.78258,0.00873
3619.72241,0.00945
3617.66224,0.00983
3615.60207,0.01004
3613.54189,0.01055
3611.48172,0.01107
3609.42155,0.01141
3607.36138,0.01195
3605.30120,0.01241
3603.24103,0.01245
3601.18086,0.01237
3599.12069,0.01253
3597.06052,0.01283
3595.00034,0.01308
3592.94017,0.01332
3590.88000,0.01376
3588.81983,0.01456
3586.75966,0.01529
3584.69948,0.01543
3582.63931,0.01554
3580.57914,0.01609
3578.51897,0.01670
3576.45879,0.01692
3574.39862,0.01701
3572.33845,0.01738
3570.27828,0.01788
3568.21811,0.01848
3566.15793,0.01904
3564.09776,0.01900
3562.03759,0.01873
3559.97742,0.01902
3557.91725,0.01970
3555.85707,0.02019
3553.79690,0.02071
3551.73673,0.02156
3549.67656,0.02229
3547.61639,0.02256
3545.55621,0.02278
3543.49604,0.02317
3541.43587,0.02340
3539.37570,0.02333
3537.31552,0.02335
3535.25535,0.02383
3533.19518,0.02446
3531.13501,0.02478
3529.07484,0.02491
3527.01466,0.02511
3524.95449,0.02539
3522.89432,0.02572
3520.83415,0.02604
3518.77398,0.02637
3516.71380,0.02681
3514.65363,0.02740
3512.59346,0.02801
3510.53329,0.02848
3508.47312,0.02880
3506.41294,0.02910
3504.35277,0.02962
3502.29260,0.03028
3500.23243,0.03064
3498.17225,0.03071
3496.11208,0.03092
3494.05191,0.03128
3491.99174,0.03152
3489.93157,0.03159
3487.87139,0.03154
3485.81122,0.03166
3483.75105,0.03221
3481.69088,0.03285
3479.63071,0.03306
3477.57053,0.03295
3475.51036,0.03314
3473.45019,0.03367
3471.39002,0.03410
3469.32984,0.03431
3467.26967,0.03461
3465.20950,0.03504
3463.14933,0.03533
3461.08916,0.03553
3459.02898,0.03585
3456.96881,0.03606
3454.90864,0.03603
3452.84847,0.03626
3450.78830,0.03695
3448.72812,0.03744
3446.66795,0.03730
3444.60778,0.03719
3442.54761,0.03750
3440.48744,0.03784
3438.42726,0.03818
3436.36709,0.03861
3434.30692,0.03897
3432.24675,0.03923
3430.18657,0.03946
3428.12640,0.03959
3426.06623,0.03964
3424.00606,0.03976
3421.94589,0.04007
3419.88571,0.04051
3417.82554,0.04087
3415.76537,0.04113
3413.70520,0.04129
3411.64503,0.04127
3409.58485,0.04126
3407.52468,0.04144
3405.46451,0.04152
3403.40434,0.04168
3401.34416,0.04207
3399.28399,0.04219
3397.22382,0.04210
3395.16365,0.04224
3393.10348,0.04249
3391.04330,0.04269
3388.98313,0.04311
3386.92296,0.04362
3384.86279,0.04364
3382.80262,0.04337
3380.74244,0.04344
3378.68227,0.04383
3376.62210,0.04407
3374.56193,0.04401
3372.50176,0.04397
3370.44158,0.04406
3368.38141,0.04418
3366.32124,0.04438
3364.26107,0.04483
3362.20089,0.04521
3360.14072,0.04514
3358.08055,0.04507
3356.02038,0.04536
3353.96021,0.04551
3351.90003,0.04524
3349.83986,0.04508
3347.77969,0.04511
3345.71952,0.04504
3343.65935,0.04504
3341.59917,0.04532
3339.53900,0.04569
3337.47883,0.04606
3335.41866,0.04626
3333.35849,0.04600
3331.29831,0.04558
3329.23814,0.04554
3327.17797,0.04591
3325.11780,0.04628
3323.05762,0.04643
3320.99745,0.04651
3318.93728,0.04653
3316.87711,0.04639
3314.81694,0.04631
3312.75676,0.04641
3310.69659,0.04651
3308.63642,0.04667
3306.57625,0.04680
3304.51608,0.04667
3302.45590,0.04649
3300.39573,0.04641
3298.33556,0.04629
3296.27539,0.04621
3294.21521,0.04638
3292.15504,0.04660
3290.09487,0.04676
3288.03470,0.04704
3285.97453,0.04738
3283.91435,0.04749
3281.85418,0.04714
3279.79401,0.04667
3277.73384,0.04658
3275.67367,0.04684
3273.61349,0.04712
3271.55332,0.04734
3269.49315,0.04746
3267.43298,0.04743
3265.37281,0.04740
3263.31263,0.04751
3261.25246,0.04762
3259.19229,0.04746
3257.13212,0.04721
3255.07194,0.04713
3253.01177,0.04705
3250.95160,0.04685
3248.89143,0.04670
3246.83126,0.04663
3244.77108,0.04674
3242.71091,0.04695
3240.65074,0.04695
3238.59057,0.04684
3236.53040,0.04682
3234.47022,0.04683
3232.41005,0.04695
3230.34988,0.04713
3228.28971,0.04713
3226.22954,0.04706
3224.16936,0.04701
3222.10919,0.04689
3220.04902,0.04690
3217.98885,0.04690
3215.92867,0.04674
3213.86850,0.04687
3211.80833,0.04736
3209.74816,0.04761
3207.68799,0.04733
3205.62781,0.04697
3203.56764,0.04688
3201.50747,0.04692
3199.44730,0.04687
3197.38713,0.04680
3195.32695,0.04668
3193.26678,0.04641
3191.20661,0.04616
3189.14644,0.04609
3187.08626,0.04602
3185.02609,0.04582
3182.96592,0.04564
3180.90575,0.04563
3178.84558,0.04569
3176.78540,0.04554
3174.72523,0.04529
3172.66506,0.04515
3170.60489,0.04499
3168.54472,0.04474
3166.48454,0.04456
3164.42437,0.04457
3162.36420,0.04469
3160.30403,0.04482
3158.24386,0.04490
3156.18368,0.04470
3154.12351,0.04427
3152.06334,0.04410
3150.00317,0.04437
3147.94299,0.04445
3145.88282,0.04408
3143.82265,0.04374
3141.76248,0.04373
3139.70231,0.04379
3137.64213,0.04344
3135.58196,0.04279
3133.52179,0.04244
3131.46162,0.04237
3129.40145,0.04218
3127.34127,0.04189
3125.28110,0.04176
3123.22093,0.04198
3121.16076,0.04233
3119.10058,0.04223
3117.04041,0.04182
3114.98024,0.04142
3112.92007,0.04102
3110.85990,0.04073
3108.79972,0.04052
3106.73955,0.04022
3104.67938,0.04001
3102.61921,0.03995
3100.55904,0.03996
3098.49886,0.04009
3096.43869,0.04007
3094.37852,0.03962
3092.31835,0.03915
3090.25818,0.03911
3088.19800,0.03927
3086.13783,0.03916
3084.07766,0.03885
3082.01749,0.03864
3079.95731,0.03850
3077.89714,0.03823
3075.83697,0.03778
3073.77680,0.03731
3071.71663,0.03695
3069.65645,0.03669
3067.59628,0.03659
3065.53611,0.03660
3063.47594,0.03653
3061.41577,0.03648
3059.35559,0.03643
3057.29542,0.03622
3055.23525,0.03601
3053.17508,0.03593
3051.11491,0.03578
3049.05473,0.03541
3046.99456,0.03511
3044.93439,0.03502
3042.87422,0.03491
3040.81404,0.03469
3038.75387,0.03433
3036.69370,0.03394
3034.63353,0.03389
3032.57336,0.03392
3030.51318,0.03355
3028.45301,0.03315
3026.39284,0.03306
3024.33267,0.03308
3022.27250,0.03285
3020.21232,0.03228
3018.15215,0.03180
3016.09198,0.03180
3014.03181,0.03192
3011.97163,0.03179
3009.91146,0.03159
3007.85129,0.03141
3005.79112,0.03111
3003.73095,0.03069
3001.67077,0.03044
2999.61060,0.03035
2997.55043,0.03024
2995.49026,0.03010
2993.43009,0.03002
2991.36991,0.03007
2989.30974,0.03018
2987.24957,0.03010
2985.18940,0.02982
2983.12923,0.02964
2981.06905,0.02951
2979.00888,0.02923
2976.94871,0.02897
2974.88854,0.02886
2972.82836,0.02886
2970.76819,0.02882
2968.70802,0.02868
2966.64785,0.02854
2964.58768,0.02847
2962.52750,0.02842
2960.46733,0.02826
2958.40716,0.02799
2956.34699,0.02774
2954.28682,0.02750
2952.22664,0.02740
2950.16647,0.02750
2948.10630,0.02764
2946.04613,0.02778
2943.98596,0.02797
2941.92578,0.02804
2939.86561,0.02783
2937.80544,0.02754
2935.74527,0.02735
2933.68509,0.02725
2931.62492,0.02718
2929.56475,0.02709
2927.50458,0.02696
2925.44441,0.02681
2923.38423,0.02668
2921.32406,0.02663
2919.26389,0.02661
2917.20372,0.02659
2915.14355,0.02647
2913.08337,0.02614
2911.02320,0.02572
2908.96303,0.02534
2906.90286,0.02518
2904.84268,0.02534
2902.78251,0.02548
2900.72234,0.02535
2898.66217,0.02525
2896.60200,0.02522
2894.54182,0.02501
2892.48165,0.02470
2890.42148,0.02451
2888.36131,0.02451
2886.30114,0.02457
2884.24096,0.02453
2882.18079,0.02453
2880.12062,0.02455
2878.06045,0.02442
2876.00028,0.02431
2873.94010,0.02443
2871.87993,0.02449
2869.81976,0.02427
2867.75959,0.02399
2865.69941,0.02381
2863.63924,0.02366
2861.57907,0.02346
2859.51890,0.02326
2857.45873,0.02340
2855.39855,0.02368
2853.33838,0.02358
2851.27821,0.02316
2849.21804,0.02285
2847.15787,0.02286
2845.09769,0.02293
2843.03752,0.02260
2840.97735,0.02211
2838.91718,0.02212
2836.85700,0.02238
2834.79683,0.02222
2832.73666,0.02185
2830.67649,0.02164
2828.61632,0.02156
2826.55614,0.02154
2824.49597,0.02148
2822.43580,0.02135
2820.37563,0.02144
2818.31546,0.02157
2816.25528,0.02122
2814.19511,0.02075
2812.13494,0.02059
2810.07477,0.02055
2808.01460,0.02058
2805.95442,0.02083
2803.89425,0.02097
2801.83408,0.02066
2799.77391,0.02025
2797.71373,0.02005
2795.65356,0.02005
2793.59339,0.02011
2791.53322,0.02004
2789.47305,0.01993
2787.41287,0.01993
2785.35270,0.01989
2783.29253,0.01964
2781.23236,0.01936
2779.17219,0.01917
2777.11201,0.01907
2775.05184,0.01904
2772.99167,0.01894
2770.93150,0.01882
2768.87133,0.01878
2766.81115,0.01868
2764.75098,0.01858
2762.69081,0.01849
2760.63064,0.01828
2758.57046,0.01802
2756.51029,0.01786
2754.45012,0.01801
2752.38995,0.01833
2750.32978,0.01832
2748.26960,0.01801
2746.20943,0.01771
2744.14926,0.01746
2742.08909,0.01728
2740.02892,0.01735
2737.96874,0.01747
2735.90857,0.01727
2733.84840,0.01691
2731.78823,0.01687
2729.72805,0.01708
2727.66788,0.01712
2725.60771,0.01690
2723.54754,0.01668
2721.48737,0.01647
2719.42719,0.01633
2717.36702,0.01637
2715.30685,0.01644
2713.24668,0.01645
2711.18651,0.01642
2709.12633,0.01630
2707.06616,0.01613
2705.00599,0.01609
2702.94582,0.01616
2700.88565,0.01606
2698.82547,0.01574
2696.76530,0.01544
2694.70513,0.01522
2692.64496,0.01508
2690.58478,0.01506
2688.52461,0.01506
2686.46444,0.01507
2684.40427,0.01495
2682.34410,0.01463
2680.28392,0.01439
2678.22375,0.01433
2676.16358,0.01442
2674.10341,0.01444
2672.04324,0.01415
2669.98306,0.01397
2667.92289,0.01408
2665.86272,0.01413
2663.80255,0.01399
2661.74238,0.01377
2659.68220,0.01359
2657.62203,0.01342
2655.56186,0.01335
2653.50169,0.01341
2651.44151,0.01333
2649.38134,0.01312
2647.32117,0.01283
2645.26100,0.01238
2643.20083,0.01200
2641.14065,0.01204
2639.08048,0.01246
2637.02031,0.01284
2634.96014,0.01268
2632.89997,0.01206
2630.83979,0.01163
2628.77962,0.01163
2626.71945,0.01160
2624.65928,0.01142
2622.59910,0.01132
2620.53893,0.01132
2618.47876,0.01123
2616.41859,0.01094
2614.35842,0.01087
2612.29824,0.01105
2610.23807,0.01096
2608.17790,0.01066
2606.11773,0.01067
2604.05756,0.01087
2601.99738,0.01086
2599.93721,0.01068
2597.87704,0.01052
2595.81687,0.01055
2593.75670,0.01078
2591.69652,0.01094
2589.63635,0.01086
2587.57618,0.01054
2585.51601,0.00993
2583.45583,0.00943
2581.39566,0.00947
2579.33549,0.00962
2577.27532,0.00956
2575.21515,0.00971
2573.15497,0.01005
2571.09480,0.01009
2569.03463,0.00997
2566.97446,0.01003
2564.91429,0.01008
2562.85411,0.01017
2560.79394,0.01002
2558.73377,0.00950
2556.67360,0.00938
2554.61342,0.00971
2552.55325,0.00981
2550.49308,0.00965
2548.43291,0.00926
2546.37274,0.00890
2544.31256,0.00901
2542.25239,0.00934
2540.19222,0.00942
2538.13205,0.00957
2536.07188,0.00991
2534.01170,0.00982
2531.95153,0.00958
2529.89136,0.00975
2527.83119,0.00972
2525.77102,0.00920
2523.71084,0.00888
2521.65067,0.00921
2519.59050,0.00967
2517.53033,0.00973
2515.47015,0.00949
2513.40998,0.00926
2511.34981,0.00931
2509.28964,0.00966
2507.22947,0.00998
2505.16929,0.01006
2503.10912,0.01003
2501.04895,0.01018
2498.98878,0.01051
2496.92861,0.01062
2494.86843,0.01035
2492.80826,0.01013
2490.74809,0.01024
2488.68792,0.01040
2486.62775,0.01041
2484.56757,0.01039
2482.50740,0.01063
2480.44723,0.01102
2478.38706,0.01101
2476.32688,0.01067
2474.26671,0.01051
2472.20654,0.01052
2470.14637,0.01052
2468.08620,0.01057
2466.02602,0.01069
2463.96585,0.01083
2461.90568,0.01093
2459.84551,0.01075
2457.78534,0.01061
2455.72516,0.01094
2453.66499,0.01142
2451.60482,0.01171
2449.54465,0.01188
2447.48447,0.01215
2445.42430,0.01228
2443.36413,0.01188
2441.30396,0.01130
2439.24379,0.01095
2437.18361,0.01074
2435.12344,0.01080
2433.06327,0.01114
2431.00310,0.01117
2428.94293,0.01085
2426.88275,0.01073
2424.82258,0.01080
2422.76241,0.01078
2420.70224,0.01059
2418.64207,0.01037
2416.58189,0.01045
2414.52172,0.01095
2412.46155,0.01134
2410.40138,0.01117
2408.34120,0.01090
2406.28103,0.01104
2404.22086,0.01125
2402.16069,0.01117
2400.10052,0.01076
2398.04034,0.01036
2395.98017,0.01042
2393.92000,0.01057
2391.85983,0.01073
2389.79966,0.01103
2387.73948,0.01120
2385.67931,0.01100
2383.61914,0.01076
2381.55897,0.01068
2379.49880,0.01073
2377.43862,0.01073
2375.37845,0.01060
2373.31828,0.01047
2371.25811,0.01042
2369.19793,0.00992
2367.13776,0.00899
2365.07759,0.00977
2363.01742,0.01231
2360.95725,0.01238
2358.89707,0.01076
2356.83690,0.01029
2354.77673,0.01103
2352.71656,0.01122
2350.65639,0.01010
2348.59621,0.00999
2346.53604,0.01232
2344.47587,0.01309
2342.41570,0.01216
2340.35552,0.01101
2338.29535,0.01003
2336.23518,0.00966
2334.17501,0.00982
2332.11484,0.01000
2330.05466,0.01014
2327.99449,0.01060
2325.93432,0.01026
2323.87415,0.00977
2321.81398,0.01006
2319.75380,0.01069
2317.69363,0.01068
2315.63346,0.01050
2313.57329,0.01029
2311.51312,0.01040
2309.45294,0.01072
2307.39277,0.01062
2305.33260,0.01021
2303.27243,0.00988
2301.21225,0.00983
2299.15208,0.00991
2297.09191,0.01006
2295.03174,0.01012
2292.97157,0.00994
2290.91139,0.00989
2288.85122,0.01019
2286.79105,0.01045
2284.73088,0.01031
2282.67071,0.00996
2280.61053,0.00961
2278.55036,0.00923
2276.49019,0.00878
2274.43002,0.00838
2272.36984,0.00855
2270.30967,0.00924
2268.24950,0.00932
2266.18933,0.00846
2264.12916,0.00784
2262.06898,0.00804
2260.00881,0.00846
2257.94864,0.00863
2255.88847,0.00857
2253.82830,0.00849
2251.76812,0.00877
2249.70795,0.00910
2247.64778,0.00871
2245.58761,0.00811
2243.52744,0.00811
2241.46726,0.00806
2239.40709,0.00728
2237.34692,0.00683
2235.28675,0.00754
2233.22657,0.00864
2231.16640,0.00910
2229.10623,0.00869
2227.04606,0.00801
2224.98589,0.00802
2222.92571,0.00840
2220.86554,0.00806
2218.80537,0.00723
2216.74520,0.00697
2214.68503,0.00736
2212.62485,0.00753
2210.56468,0.00700
2208.50451,0.00673
2206.44434,0.00700
2204.38417,0.00686
2202.32399,0.00680
2200.26382,0.00686
2198.20365,0.00608
2196.14348,0.00530
2194.08330,0.00520
2192.02313,0.00487
2189.96296,0.00454
2187.90279,0.00504
2185.84262,0.00524
2183.78244,0.00460
2181.72227,0.00416
2179.66210,0.00446
2177.60193,0.00495
2175.54176,0.00481
2173.48158,0.00480
2171.42141,0.00571
2169.36124,0.00617
2167.30107,0.00476
2165.24089,0.00296
2163.18072,0.00281
2161.12055,0.00306
2159.06038,0.00224
2157.00021,0.00171
2154.94003,0.00223
2152.87986,0.00252
2150.81969,0.00261
2148.75952,0.00328
2146.69935,0.00388
2144.63917,0.00413
2142.57900,0.00433
2140.51883,0.00424
2138.45866,0.00387
2136.39849,0.00364
2134.33831,0.00349
2132.27814,0.00318
2130.21797,0.00252
2128.15780,0.00207
2126.09762,0.00312
2124.03745,0.00487
2121.97728,0.00530
2119.91711,0.00469
2117.85694,0.00432
2115.79676,0.00463
2113.73659,0.00518
2111.67642,0.00527
2109.61625,0.00515
2107.55608,0.00503
2105.49590,0.00482
2103.43573,0.00491
2101.37556,0.00484
2099.31539,0.00434
2097.25521,0.00432
2095.19504,0.00435
2093.13487,0.00394
2091.07470,0.00421
2089.01453,0.00508
2086.95435,0.00534
2084.89418,0.00468
2082.83401,0.00396
2080.77384,0.00432
2078.71367,0.00518
2076.65349,0.00495
2074.59332,0.00401
2072.53315,0.00384
2070.47298,0.00385
2068.41281,0.00306
2066.35263,0.00252
2064.29246,0.00310
2062.23229,0.00366
2060.17212,0.00360
2058.11194,0.00346
2056.05177,0.00358
2053.99160,0.00404
2051.93143,0.00406
2049.87126,0.00335
2047.81108,0.00275
2045.75091,0.00229
2043.69074,0.00162
2041.63057,0.00100
2039.57040,0.00107
2037.51022,0.00171
2035.45005,0.00162
2033.38988,0.00116
2031.32971,0.00189
2029.26954,0.00289
2027.20936,0.00277
2025.14919,0.00226
2023.08902,0.00198
2021.02885,0.00197
2018.96867,0.00211
2016.90850,0.00170
2014.84833,0.00120
2012.78816,0.00187
2010.72799,0.00303
2008.66781,0.00294
2006.60764,0.00189
2004.54747,0.00139
2002.48730,0.00181
2000.42713,0.00272
1998.36695,0.00320
1996.30678,0.00256
1994.24661,0.00157
1992.18644,0.00238
1990.12626,0.00503
1988.06609,0.00663
1986.00592,0.00603
1983.94575,0.00458
1981.88558,0.00330
1979.82540,0.00237
1977.76523,0.00144
1975.70506,0.00038
1973.64489,0.00053
1971.58472,0.00145
1969.52454,0.00086
1967.46437,0.00000
1965.40420,0.00081
1963.34403,0.00145
1961.28386,0.00069
1959.22368,0.00000
1957.16351,0.00030
1955.10334,0.00104
1953.04317,0.00127
1950.98299,0.00080
1948.92282,0.00053
1946.86265,0.00070
1944.80248,0.00079
1942.74231,0.00093
1940.68213,0.00120
1938.62196,0.00119
1936.56179,0.00107
1934.50162,0.00114
1932.44145,0.00095
1930.38127,0.00059
1928.32110,0.00077
1926.26093,0.00120
1924.20076,0.00146
1922.14059,0.00179
1920.08041,0.00230
1918.02024,0.00290
1915.96007,0.00341
1913.89990,0.00367
1911.83972,0.00352
1909.77955,0.00285
1907.71938,0.00218
1905.65921,0.00203
1903.59904,0.00217
1901.53886,0.00242
1899.47869,0.00282
1897.41852,0.00284
1895.35835,0.00236
1893.29818,0.00217
1891.23800,0.00249
1889.17783,0.00275
1887.11766,0.00260
1885.05749,0.00227
1882.99731,0.00210
1880.93714,0.00222
1878.87697,0.00253
1876.81680,0.00265
1874.75663,0.00243
1872.69645,0.00224
1870.63628,0.00222
1868.57611,0.00228
1866.51594,0.00250
1864.45577,0.00278
1862.39559,0.00304
1860.33542,0.00331
1858.27525,0.00344
1856.21508,0.00324
1854.15491,0.00293
1852.09473,0.00287
1850.03456,0.00298
1847.97439,0.00294
1845.91422,0.00279
1843.85404,0.00271
1841.79387,0.00279
1839.73370,0.00299
1837.67353,0.00318
1835.61336,0.00335
1833.55318,0.00350
1831.49301,0.00344
1829.43284,0.00322
1827.37267,0.00314
1825.31250,0.00322
1823.25232,0.00333
1821.19215,0.00335
1819.13198,0.00319
1817.07181,0.00306
1815.01163,0.00325
1812.95146,0.00351
1810.89129,0.00361
1808.83112,0.00367
1806.77095,0.00376
1804.71077,0.00385
1802.65060,0.00392
1800.59043,0.00397
1798.53026,0.00395
1796.47009,0.00378
1794.40991,0.00357
1792.34974,0.00351
1790.28957,0.00362
1788.22940,0.00383
1786.16923,0.00412
1784.10905,0.00439
1782.04888,0.00454
1779.98871,0.00444
1777.92854,0.00410
1775.86836,0.00381
1773.80819,0.00376
1771.74802,0.00387
1769.68785,0.00400
1767.62768,0.00413
1765.56750,0.00426
1763.50733,0.00442
1761.44716,0.00466
1759.38699,0.00492
1757.32682,0.00517
1755.26664,0.00538
1753.20647,0.00541
1751.14630,0.00532
1749.08613,0.00529
1747.02596,0.00538
1744.96578,0.00561
1742.90561,0.00591
1740.84544,0.00612
1738.78527,0.00617
1736.72509,0.00622
1734.66492,0.00646
1732.60475,0.00669
1730.54458,0.00671
1728.48441,0.00688
1726.42423,0.00726
1724.36406,0.00744
1722.30389,0.00732
1720.24372,0.00737
1718.18355,0.00775
1716.12337,0.00819
1714.06320,0.00855
1712.00303,0.00888
1709.94286,0.00906
1707.88268,0.00907
1705.82251,0.00912
1703.76234,0.00936
1701.70217,0.00967
1699.64200,0.00997
1697.58182,0.01029
1695.52165,0.01071
1693.46148,0.01113
1691.40131,0.01137
1689.34114,0.01165
1687.28096,0.01210
1685.22079,0.01246
1683.16062,0.01265
1681.10045,0.01299
1679.04028,0.01349
1676.98010,0.01384
1674.91993,0.01385
1672.85976,0.01375
1670.79959,0.01411
1668.73941,0.01492
1666.67924,0.01544
1664.61907,0.01552
1662.55890,0.01565
1660.49873,0.01596
1658.43855,0.01624
1656.37838,0.01636
1654.31821,0.01622
1652.25804,0.01600
1650.19787,0.01593
1648.13769,0.01578
1646.07752,0.01578
1644.01735,0.01617
1641.95718,0.01646
1639.89701,0.01635
1637.83683,0.01591
1635.77666,0.01542
1633.71649,0.01522
1631.65632,0.01522
1629.59614,0.01522
1627.53597,0.01513
1625.47580,0.01495
1623.41563,0.01467
1621.35546,0.01431
1619.29528,0.01391
1617.23511,0.01348
1615.17494,0.01314
1613.11477,0.01295
1611.05460,0.01289
1608.99442,0.01291
1606.93425,0.01287
1604.87408,0.01268
1602.81391,0.01232
1600.75373,0.01191
1598.69356,0.01145
1596.63339,0.01092
1594.57322,0.01050
1592.51305,0.01022
1590.45287,0.00995
1588.39270,0.00960
1586.33253,0.00923
1584.27236,0.00887
1582.21219,0.00857
1580.15201,0.00836
1578.09184,0.00809
1576.03167,0.00757
1573.97150,0.00709
1571.91133,0.00679
1569.85115,0.00635
1567.79098,0.00595
1565.73081,0.00588
1563.67064,0.00592
1561.61046,0.00575
1559.55029,0.00537
1557.49012,0.00514
1555.42995,0.00511
1553.36978,0.00506
1551.30960,0.00494
1549.24943,0.00474
1547.18926,0.00449
1545.12909,0.00440
1543.06892,0.00446
1541.00874,0.00443
1538.94857,0.00417
1536.88840,0.00388
1534.82823,0.00369
1532.76805,0.00358
1530.70788,0.00353
1528.64771,0.00348
1526.58754,0.00336
1524.52737,0.00322
1522.46719,0.00303
1520.40702,0.00269
1518.34685,0.00229
1516.28668,0.00204
1514.22651,0.00200
1512.16633,0.00214
1510.10616,0.00241
1508.04599,0.00255
1505.98582,0.00225
1503.92565,0.00188
1501.86547,0.00169
1499.80530,0.00150
1497.74513,0.00139
1495.68496,0.00153
1493.62478,0.00172
1491.56461,0.00175
1489.50444,0.00183
1487.44427,0.00199
1485.38410,0.00192
1483.32392,0.00165
1481.26375,0.00148
1479.20358,0.00158
1477.14341,0.00176
1475.08324,0.00179
1473.02306,0.00175
1470.96289,0.00191
1468.90272,0.00211
1466.84255,0.00216
1464.78238,0.00215
1462.72220,0.00227
1460.66203,0.00226
1458.60186,0.00193
1456.54169,0.00179
1454.48151,0.00220
1452.42134,0.00254
1450.36117,0.00248
1448.30100,0.00223
1446.24083,0.00211
1444.18065,0.00215
1442.12048,0.00222
1440.06031,0.00226
1438.00014,0.00224
1435.93997,0.00224
1433.87979,0.00230
1431.81962,0.00230
1429.75945,0.00219
1427.69928,0.00214
1425.63910,0.00227
1423.57893,0.00261
1421.51876,0.00303
1419.45859,0.00312
1417.39842,0.00282
1415.33824,0.00262
1413.27807,0.00264
1411.21790,0.00263
1409.15773,0.00256
1407.09756,0.00250
1405.03738,0.00238
1402.97721,0.00222
1400.91704,0.00220
1398.85687,0.00232
1396.79670,0.00233
1394.73652,0.00217
1392.67635,0.00198
1390.61618,0.00191
1388.55601,0.00199
1386.49583,0.00214
1384.43566,0.00223
1382.37549,0.00221
1380.31532,0.00215
1378.25515,0.00215
1376.19497,0.00217
1374.13480,0.00220
1372.07463,0.00217
1370.01446,0.00205
1367.95429,0.00193
1365.89411,0.00193
1363.83394,0.00192
1361.77377,0.00175
1359.71360,0.00146
1357.65343,0.00123
1355.59325,0.00113
1353.53308,0.00116
1351.47291,0.00131
1349.41274,0.00142
1347.35256,0.00137
1345.29239,0.00122
1343.23222,0.00124
1341.17205,0.00139
1339.11188,0.00144
1337.05170,0.00133
1334.99153,0.00124
1332.93136,0.00121
1330.87119,0.00118
1328.81102,0.00117
1326.75084,0.00128
1324.69067,0.00140
1322.63050,0.00143
1320.57033,0.00139
1318.51015,0.00129
1316.44998,0.00117
1314.38981,0.00115
1312.32964,0.00134
1310.26947,0.00158
1308.20929,0.00159
1306.14912,0.00148
1304.08895,0.00152
1302.02878,0.00170
1299.96861,0.00176
1297.90843,0.00163
1295.84826,0.00159
1293.78809,0.00178
1291.72792,0.00204
1289.66775,0.00223
1287.60757,0.00242
1285.54740,0.00255
1283.48723,0.00250
1281.42706,0.00239
1279.36688,0.00247
1277.30671,0.00270
1275.24654,0.00289
1273.18637,0.00292
1271.12620,0.00280
1269.06602,0.00273
1267.00585,0.00278
1264.94568,0.00278
1262.88551,0.00272
1260.82534,0.00270
1258.76516,0.00273
1256.70499,0.00279
1254.64482,0.00282
1252.58465,0.00268
1250.52447,0.00241
1248.46430,0.00225
1246.40413,0.00240
1244.34396,0.00257
1242.28379,0.00232
1240.22361,0.00185
1238.16344,0.00162
1236.10327,0.00160
1234.04310,0.00153
1231.98293,0.00139
1229.92275,0.00121
1227.86258,0.00108
1225.80241,0.00097
1223.74224,0.00077
1221.68207,0.00058
1219.62189,0.00042
1217.56172,0.00023
1215.50155,0.00014
1213.44138,0.00017
1211.38120,0.00012
1209.32103,0.00000
1207.26086,0.00003
1205.20069,0.00020
1203.14052,0.00035
1201.08034,0.00049
1199.02017,0.00053
1196.96000,0.00053
1194.89983,0.00066
1192.83966,0.00093
1190.77948,0.00134
1188.71931,0.00176
1186.65914,0.00211
1184.59897,0.00262
1182.53880,0.00329
1180.47862,0.00395
1178.41845,0.00467
1176.35828,0.00553
1174.29811,0.00647
1172.23793,0.00742
1170.17776,0.00826
1168.11759,0.00910
1166.05742,0.01012
1163.99725,0.01115
1161.93707,0.01193
1159.87690,0.01251
1157.81673,0.01317
1155.75656,0.01413
1153.69639,0.01521
1151.63621,0.01603
1149.57604,0.01675
1147.51587,0.01761
1145.45570,0.01863
1143.39552,0.01990
1141.33535,0.02124
1139.27518,0.02235
1137.21501,0.02322
1135.15484,0.02414
1133.09466,0.02536
1131.03449,0.02685
1128.97432,0.02837
1126.91415,0.02978
1124.85398,0.03118
1122.79380,0.03255
1120.73363,0.03368
1118.67346,0.03475
1116.61329,0.03609
1114.55312,0.03755
1112.49294,0.03874
1110.43277,0.03961
1108.37260,0.04044
1106.31243,0.04160
1104.25225,0.04321
1102.19208,0.04477
1100.13191,0.04583
1098.07174,0.04672
1096.01157,0.04783
1093.95139,0.04904
1091.89122,0.05002
1089.83105,0.05085
1087.77088,0.05168
1085.71071,0.05261
1083.65053,0.05354
1081.59036,0.05424
1079.53019,0.05489
1077.47002,0.05566
1075.40985,0.05638
1073.34967,0.05700
1071.28950,0.05753
1069.22933,0.05787
1067.16916,0.05777
1065.10898,0.05732
1063.04881,0.05684
1060.98864,0.05642
1058.92847,0.05601
1056.86830,0.05536
1054.80812,0.05447
1052.74795,0.05366
1050.68778,0.05283
1048.62761,0.05160
1046.56744,0.05001
1044.50726,0.04847
1042.44709,0.04707
1040.38692,0.04562
1038.32675,0.04417
1036.26657,0.04287
1034.20640,0.04150
1032.14623,0.03991
1030.08606,0.03850
1028.02589,0.03750
1025.96571,0.03671
1023.90554,0.03586
1021.84537,0.03473
1019.78520,0.03363
1017.72503,0.03289
1015.66485,0.03231
1013.60468,0.03181
1011.54451,0.03160
1009.48434,0.03167
1007.42417,0.03168
1005.36399,0.03152
1003.30382,0.03154
1001.24365,0.03200
999.18348,0.03276
997.12330,0.03374
995.06313,0.03492
993.00296,0.03605
990.94279,0.03683
988.88262,0.03738
986.82244,0.03799
984.76227,0.03856
982.70210,0.03877
980.64193,0.03869
978.58176,0.03832
976.52158,0.03756
974.46141,0.03647
972.40124,0.03520
970.34107,0.03380
968.28089,0.03231
966.22072,0.03082
964.16055,0.02929
962.10038,0.02786
960.04021,0.02678
957.98003,0.02577
955.91986,0.02448
953.85969,0.02329
951.79952,0.02255
949.73935,0.02195
947.67917,0.02135
945.61900,0.02090
943.55883,0.02033
941.49866,0.01973
939.43849,0.01959
937.37831,0.01976
935.31814,0.01984
933.25797,0.01985
931.19780,0.01967
929.13762,0.01934
927.07745,0.01935
925.01728,0.01954
922.95711,0.01913
920.89694,0.01818
918.83676,0.01743
916.77659,0.01702
914.71642,0.01654
912.65625,0.01587
910.59608,0.01535
908.53590,0.01521
906.47573,0.01529
904.41556,0.01535
902.35539,0.01521
900.29522,0.01481
898.23504,0.01451
896.17487,0.01456
894.11470,0.01486
892.05453,0.01515
889.99435,0.01525
887.93418,0.01548
885.87401,0.01621
883.81384,0.01710
881.75367,0.01750
879.69349,0.01747
877.63332,0.01776
875.57315,0.01845
873.51298,0.01896
871.45281,0.01942
869.39263,0.01989
867.33246,0.02005
865.27229,0.01989
863.21212,0.01968
861.15194,0.01988
859.09177,0.02022
857.03160,0.02041
854.97143,0.02050
852.91126,0.01986
850.85108,0.01849
848.79091,0.01769
846.73074,0.01769
844.67057,0.01726
842.61040,0.01597
840.55022,0.01468
838.49005,0.01425
836.42988,0.01418
834.36971,0.01355
832.30954,0.01249
830.24936,0.01169
828.18919,0.01122
826.12902,0.01076
824.06885,0.01014
822.00867,0.00953
819.94850,0.00907
817.88833,0.00842
815.82816,0.00743
813.76799,0.00666
811.70781,0.00664
809.64764,0.00727
807.58747,0.00778
805.52730,0.00748
803.46713,0.00674
801.40695,0.00616
799.34678,0.00578
797.28661,0.00575
795.22644,0.00585
793.16627,0.00576
791.10609,0.00591
789.04592,0.00616
786.98575,0.00572
784.92558,0.00488
782.86540,0.00436
780.80523,0.00424
778.74506,0.00428
776.68489,0.00437
774.62472,0.00442
772.56454,0.00405
770.50437,0.00372
768.44420,0.00369
766.38403,0.00343
764.32386,0.00301
762.26368,0.00262
760.20351,0.00207
758.14334,0.00190
756.08317,0.00254
754.02299,0.00336
751.96282,0.00359
749.90265,0.00325
747.84248,0.00288
745.78231,0.00285
743.72213,0.00291
741.66196,0.00268
739.60179,0.00231
737.54162,0.00198
735.48145,0.00187
733.42127,0.00210
731.36110,0.00237
729.30093,0.00240
727.24076,0.00222
725.18059,0.00222
723.12041,0.00272
721.06024,0.00368
719.00007,0.00393
716.93990,0.00321
714.87972,0.00255
712.81955,0.00229
710.75938,0.00212
708.69921,0.00245
706.63904,0.00343
704.57886,0.00399
702.51869,0.00343
700.45852,0.00255
698.39835,0.00222
696.33818,0.00229
694.27800,0.00226
692.21783,0.00217
690.15766,0.00208
688.09749,0.00161
686.03731,0.00099
683.97714,0.00072
681.91697,0.00043
679.85680,0.00000
677.79663,0.00023
675.73645,0.00113
673.67628,0.00145
671.61611,0.00085
669.55594,0.00212
667.49577,0.00353
665.43559,0.00092
663.37542,0.00143
661.31525,0.00249
659.25508,0.00267
657.19491,0.00219
655.13473,0.00210
653.07456,0.00286
651.01439,0.00357
648.95422,0.00390
646.89404,0.00409
644.83387,0.00417
642.77370,0.00371
640.71353,0.00262
638.65336,0.00135
636.59318,0.00036
634.53301,0.00000
632.47284,0.00043
630.41267,0.00152
628.35250,0.00222
626.29232,0.00258
624.23215,0.00370
622.17198,0.00457
620.11181,0.00390
618.05164,0.00257
615.99146,0.00170
613.93129,0.00045
611.87112,-0.00093
609.81095,-0.00176
607.75077,-0.00198
605.69060,-0.00231
603.63043,-0.00278
601.57026,-0.00136
599.51009,0.00000
