3996.73391,0.00000
3994.67373,0.00026
3992.61356,0.00046
3990.55339,0.00048
3988.49322,0.00043
3986.43305,0.00057
3984.37287,0.00094
3982.31270,0.00124
3980.25253,0.00127
3978.19236,0.00119
3976.13219,0.00117
3974.07201,0.00122
3972.01184,0.00133
3969.95167,0.00154
3967.89150,0.00185
3965.83133,0.00211
3963.77115,0.00232
3961.71098,0.00249
3959.65081,0.00253
3957.59064,0.00242
3955.53046,0.00233
3953.47029,0.00241
3951.41012,0.00247
3949.34995,0.00226
3947.28978,0.00194
3945.22960,0.00194
3943.16943,0.00228
3941.10926,0.00277
3939.04909,0.00309
3936.98892,0.00313
3934.92874,0.00298
3932.86857,0.00273
3930.80840,0.00256
3928.74823,0.00257
3926.68805,0.00266
3924.62788,0.00280
3922.56771,0.00299
3920.50754,0.00312
3918.44737,0.00312
3916.38719,0.00302
3914.32702,0.00301
3912.26685,0.00305
3910.20668,0.00294
3908.14651,0.00287
3906.08633,0.00303
3904.02616,0.00318
3901.96599,0.00305
3899.90582,0.00294
3897.84565,0.00306
3895.78547,0.00328
3893.72530,0.00339
3891.66513,0.00331
3889.60496,0.00308
3887.54478,0.00296
3885.48461,0.00306
3883.42444,0.00321
3881.36427,0.00316
3879.30410,0.00290
3877.24392,0.00266
3875.18375,0.00255
3873.12358,0.00261
3871.06341,0.00277
3869.00324,0.00285
3866.94306,0.00281
3864.88289,0.00266
3862.82272,0.00248
3860.76255,0.00254
3858.70237,0.00281
3856.64220,0.00295
3854.58203,0.00282
3852.52186,0.00281
3850.46169,0.00308
3848.40151,0.00320
3846.34134,0.00303
3844.28117,0.00269
3842.22100,0.00247
3840.16083,0.00262
3838.10065,0.00291
3836.04048,0.00293
3833.98031,0.00274
3831.92014,0.00265
3829.85997,0.00285
3827.79979,0.00323
3825.73962,0.00355
3823.67945,0.00359
3821.61928,0.00315
3819.55910,0.00251
3817.49893,0.00243
3815.43876,0.00284
3813.37859,0.00304
3811.31842,0.00288
3809.25824,0.00277
3807.19807,0.00283
3805.13790,0.00281
3803.07773,0.00260
3801.01756,0.00233
3798.95738,0.00215
3796.89721,0.00225
3794.83704,0.00263
3792.77687,0.00295
3790.71670,0.00318
3788.65652,0.00338
3786.59635,0.00341
3784.53618,0.00332
3782.47601,0.00339
3780.41583,0.00357
3778.35566,0.00363
3776.29549,0.00347
3774.23532,0.00305
3772.17515,0.00274
3770.11497,0.00294
3768.05480,0.00322
3765.99463,0.00320
3763.93446,0.00316
3761.87429,0.00312
3759.81411,0.00296
3757.75394,0.00301
3755.69377,0.00338
3753.63360,0.00366
3751.57342,0.00333
3749.51325,0.00256
3747.45308,0.00221
3745.39291,0.00235
3743.33274,0.00266
3741.27256,0.00294
3739.21239,0.00303
3737.15222,0.00308
3735.09205,0.00324
3733.03188,0.00333
3730.97170,0.00330
3728.91153,0.00342
3726.85136,0.00342
3724.79119,0.00306
3722.73102,0.00279
3720.67084,0.00265
3718.61067,0.00253
3716.55050,0.00248
3714.49033,0.00274
3712.43015,0.00326
3710.36998,0.00348
3708.30981,0.00333
3706.24964,0.00296
3704.18947,0.00273
3702.12929,0.00274
3700.06912,0.00297
3698.00895,0.00339
3695.94878,0.00370
3693.88861,0.00385
3691.82843,0.00388
3689.76826,0.00367
3687.70809,0.00315
3685.64792,0.00288
3683.58775,0.00307
3681.52757,0.00362
3679.46740,0.00416
3677.40723,0.00436
3675.34706,0.00424
3673.28688,0.00407
3671.22671,0.00383
3669.16654,0.00377
3667.10637,0.00400
3665.04620,0.00422
3662.98602,0.00439
3660.92585,0.00462
3658.86568,0.00481
3656.80551,0.00492
3654.74534,0.00506
3652.68516,0.00523
3650.62499,0.00539
3648.56482,0.00556
3646.50465,0.00577
3644.44447,0.00598
3642.38430,0.00611
3640.32413,0.00617
3638.26396,0.00626
3636.20379,0.00657
3634.14361,0.00704
3632.08344,0.00726
3630.02327,0.00720
3627.96310,0.00735
3625.90293,0.00795
3623.84275,0.00841
3621.78258,0.00853
3619.72241,0.00856
3617.66224,0.00859
3615.60207,0.00867
3613.54189,0.00897
3611.48172,0.00975
3609.42155,0.01048
3607.36138,0.01056
3605.30120,0.01043
3603.24103,0.01058
3601.18086,0.01102
3599.12069,0.01146
3597.06052,0.01194
3595.00034,0.01235
3592.94017,0.01260
3590.88000,0.01271
3588.81983,0.01296
3586.75966,0.01329
3584.69948,0.01359
3582.63931,0.01390
3580.57914,0.01422
3578.51897,0.01459
3576.45879,0.01505
3574.39862,0.01552
3572.33845,0.01590
3570.27828,0.01627
3568.21811,0.01670
3566.15793,0.01724
3564.09776,0.01782
3562.03759,0.01823
3559.97742,0.01853
3557.91725,0.01884
3555.85707,0.01912
3553.79690,0.01940
3551.73673,0.01979
3549.67656,0.02025
3547.61639,0.02073
3545.55621,0.02122
3543.49604,0.02180
3541.43587,0.02238
3539.37570,0.02289
3537.31552,0.02346
3535.25535,0.02401
3533.19518,0.02430
3531.13501,0.02439
3529.07484,0.02459
3527.01466,0.02516
3524.95449,0.02599
3522.89432,0.02669
3520.83415,0.02705
3518.77398,0.02714
3516.71380,0.02722
3514.65363,0.02753
3512.59346,0.02803
3510.53329,0.02852
3508.47312,0.02896
3506.41294,0.02947
3504.35277,0.03015
3502.29260,0.03089
3500.23243,0.03146
3498.17225,0.03187
3496.11208,0.03228
3494.05191,0.03274
3491.99174,0.03320
3489.93157,0.03362
3487.87139,0.03391
3485.81122,0.03411
3483.75105,0.03458
3481.69088,0.03539
3479.63071,0.03607
3477.57053,0.03641
3475.51036,0.03654
3473.45019,0.03672
3471.39002,0.03724
3469.32984,0.03818
3467.26967,0.03901
3465.20950,0.03920
3463.14933,0.03909
3461.08916,0.03917
3459.02898,0.03949
3456.96881,0.03994
3454.90864,0.04041
3452.84847,0.04098
3450.78830,0.04171
3448.72812,0.04216
3446.66795,0.04218
3444.60778,0.04234
3442.54761,0.04283
3440.48744,0.04336
3438.42726,0.04373
3436.36709,0.04407
3434.30692,0.04458
3432.24675,0.04506
3430.18657,0.04536
3428.12640,0.04558
3426.06623,0.04589
3424.00606,0.04635
3421.94589,0.04687
3419.88571,0.04726
3417.82554,0.04754
3415.76537,0.04776
3413.70520,0.04800
3411.64503,0.04829
3409.58485,0.04858
3407.52468,0.04891
3405.46451,0.04937
3403.40434,0.04993
3401.34416,0.05040
3399.28399,0.05068
3397.22382,0.05085
3395.16365,0.05100
3393.10348,0.05124
3391.04330,0.05167
3388.98313,0.05209
3386.92296,0.05238
3384.86279,0.05270
3382.80262,0.05295
3380.74244,0.05291
3378.68227,0.05293
3376.62210,0.05331
3374.56193,0.05384
3372.50176,0.05413
3370.44158,0.05416
3368.38141,0.05439
3366.32124,0.05492
3364.26107,0.05535
3362.20089,0.05550
3360.14072,0.05544
3358.08055,0.05540
3356.02038,0.05562
3353.96021,0.05607
3351.90003,0.05652
3349.83986,0.05682
3347.77969,0.05707
3345.71952,0.05732
3343.65935,0.05739
3341.59917,0.05728
3339.53900,0.05731
3337.47883,0.05744
3335.41866,0.05750
3333.35849,0.05757
3331.29831,0.05778
3329.23814,0.05800
3327.17797,0.05816
3325.11780,0.05825
3323.05762,0.05835
3320.99745,0.05844
3318.93728,0.05846
3316.87711,0.05861
3314.81694,0.05898
3312.75676,0.05923
3310.69659,0.05904
3308.63642,0.05874
3306.57625,0.05879
3304.51608,0.05908
3302.45590,0.05932
3300.39573,0.05941
3298.33556,0.05956
3296.27539,0.05984
3294.21521,0.06002
3292.15504,0.06000
3290.09487,0.05992
3288.03470,0.05986
3285.97453,0.05980
3283.91435,0.05968
3281.85418,0.05962
3279.79401,0.05972
3277.73384,0.05983
3275.67367,0.05991
3273.61349,0.06007
3271.55332,0.06014
3269.49315,0.05997
3267.43298,0.05991
3265.37281,0.06010
3263.31263,0.06016
3261.25246,0.05994
3259.19229,0.05970
3257.13212,0.05962
3255.07194,0.05957
3253.01177,0.05960
3250.95160,0.05978
3248.89143,0.05978
3246.83126,0.05942
3244.77108,0.05901
3242.71091,0.05881
3240.65074,0.05853
3238.59057,0.05820
3236.53040,0.05821
3234.47022,0.05824
3232.41005,0.05794
3230.34988,0.05773
3228.28971,0.05772
3226.22954,0.05767
3224.16936,0.05765
3222.10919,0.05752
3220.04902,0.05730
3217.98885,0.05722
3215.92867,0.05715
3213.86850,0.05699
3211.80833,0.05680
3209.74816,0.05665
3207.68799,0.05660
3205.62781,0.05652
3203.56764,0.05641
3201.50747,0.05631
3199.44730,0.05615
3197.38713,0.05595
3195.32695,0.05582
3193.26678,0.05546
3191.20661,0.05493
3189.14644,0.05468
3187.08626,0.05462
3185.02609,0.05445
3182.96592,0.05419
3180.90575,0.05402
3178.84558,0.05394
3176.78540,0.05373
3174.72523,0.05336
3172.66506,0.05316
3170.60489,0.05315
3168.54472,0.05297
3166.48454,0.05257
3164.42437,0.05222
3162.36420,0.05194
3160.30403,0.05167
3158.24386,0.05148
3156.18368,0.05134
3154.12351,0.05108
3152.06334,0.05064
3150.00317,0.05019
3147.94299,0.04993
3145.88282,0.04976
3143.82265,0.04958
3141.76248,0.04937
3139.70231,0.04901
3137.64213,0.04858
3135.58196,0.04828
3133.52179,0.04808
3131.46162,0.04795
3129.40145,0.04799
3127.34127,0.04801
3125.28110,0.04780
3123.22093,0.04754
3121.16076,0.04728
3119.10058,0.04694
3117.04041,0.04655
3114.98024,0.04627
3112.92007,0.04603
3110.85990,0.04573
3108.79972,0.04541
3106.73955,0.04515
3104.67938,0.04488
3102.61921,0.04453
3100.55904,0.04431
3098.49886,0.04435
3096.43869,0.04416
3094.37852,0.04373
3092.31835,0.04347
3090.25818,0.04331
3088.19800,0.04318
3086.13783,0.04320
3084.07766,0.04318
3082.01749,0.04293
3079.95731,0.04265
3077.89714,0.04254
3075.83697,0.04229
3073.77680,0.04175
3071.71663,0.04124
3069.65645,0.04096
3067.59628,0.04086
3065.53611,0.04084
3063.47594,0.04079
3061.41577,0.04051
3059.35559,0.04010
3057.29542,0.03987
3055.23525,0.03976
3053.17508,0.03949
3051.11491,0.03902
3049.05473,0.03859
3046.99456,0.03838
3044.93439,0.03827
3042.87422,0.03806
3040.81404,0.03768
3038.75387,0.03729
3036.69370,0.03698
3034.63353,0.03684
3032.57336,0.03679
3030.51318,0.03655
3028.45301,0.03607
3026.39284,0.03561
3024.33267,0.03534
3022.27250,0.03509
3020.21232,0.03483
3018.15215,0.03464
3016.09198,0.03453
3014.03181,0.03447
3011.97163,0.03432
3009.91146,0.03414
3007.85129,0.03408
3005.79112,0.03388
3003.73095,0.03343
3001.67077,0.03310
2999.61060,0.03295
2997.55043,0.03287
2995.49026,0.03295
2993.43009,0.03314
2991.36991,0.03312
2989.30974,0.03295
2987.24957,0.03298
2985.18940,0.03324
2983.12923,0.03349
2981.06905,0.03375
2979.00888,0.03414
2976.94871,0.03451
2974.88854,0.03474
2972.82836,0.03514
2970.76819,0.03595
2968.70802,0.03688
2966.64785,0.03771
2964.58768,0.03863
2962.52750,0.03964
2960.46733,0.04068
2958.40716,0.04183
2956.34699,0.04292
2954.28682,0.04400
2952.22664,0.04525
2950.16647,0.04654
2948.10630,0.04784
2946.04613,0.04934
2943.98596,0.05114
2941.92578,0.05309
2939.86561,0.05509
2937.80544,0.05733
2935.74527,0.05985
2933.68509,0.06249
2931.62492,0.06515
2929.56475,0.06766
2927.50458,0.06990
2925.44441,0.07201
2923.38423,0.07428
2921.32406,0.07672
2919.26389,0.07882
2917.20372,0.07943
2915.14355,0.07753
2913.08337,0.07349
2911.02320,0.06897
2908.96303,0.06527
2906.90286,0.06226
2904.84268,0.05980
2902.78251,0.05809
2900.72234,0.05665
2898.66217,0.05525
2896.60200,0.05419
2894.54182,0.05322
2892.48165,0.05210
2890.42148,0.05100
2888.36131,0.04979
2886.30114,0.04844
2884.24096,0.04729
2882.18079,0.04649
2880.12062,0.04606
2878.06045,0.04583
2876.00028,0.04560
2873.94010,0.04556
2871.87993,0.04572
2869.81976,0.04595
2867.75959,0.04647
2865.69941,0.04731
2863.63924,0.04842
2861.57907,0.05001
2859.51890,0.05203
2857.45873,0.05438
2855.39855,0.05719
2853.33838,0.06038
2851.27821,0.06326
2849.21804,0.06419
2847.15787,0.06150
2845.09769,0.05602
2843.03752,0.05041
2840.97735,0.04611
2838.91718,0.04304
2836.85700,0.04081
2834.79683,0.03920
2832.73666,0.03798
2830.67649,0.03696
2828.61632,0.03619
2826.55614,0.03567
2824.49597,0.03524
2822.43580,0.03479
2820.37563,0.03428
2818.31546,0.03358
2816.25528,0.03285
2814.19511,0.03240
2812.13494,0.03217
2810.07477,0.03197
2808.01460,0.03162
2805.95442,0.03114
2803.89425,0.03076
2801.83408,0.03056
2799.77391,0.03047
2797.71373,0.03038
2795.65356,0.03015
2793.59339,0.02981
2791.53322,0.02956
2789.47305,0.02943
2787.41287,0.02924
2785.35270,0.02896
2783.29253,0.02880
2781.23236,0.02878
2779.17219,0.02872
2777.11201,0.02858
2775.05184,0.02835
2772.99167,0.02816
2770.93150,0.02815
2768.87133,0.02812
2766.81115,0.02786
2764.75098,0.02762
2762.69081,0.02765
2760.63064,0.02771
2758.57046,0.02754
2756.51029,0.02731
2754.45012,0.02721
2752.38995,0.02720
2750.32978,0.02717
2748.26960,0.02720
2746.20943,0.02723
2744.14926,0.02706
2742.08909,0.02685
2740.02892,0.02677
2737.96874,0.02679
2735.90857,0.02682
2733.84840,0.02679
2731.78823,0.02666
2729.72805,0.02647
2727.66788,0.02638
2725.60771,0.02639
2723.54754,0.02637
2721.48737,0.02621
2719.42719,0.02601
2717.36702,0.02596
2715.30685,0.02594
2713.24668,0.02573
2711.18651,0.02551
2709.12633,0.02553
2707.06616,0.02558
2705.00599,0.02547
2702.94582,0.02525
2700.88565,0.02503
2698.82547,0.02492
2696.76530,0.02493
2694.70513,0.02491
2692.64496,0.02488
2690.58478,0.02489
2688.52461,0.02481
2686.46444,0.02461
2684.40427,0.02445
2682.34410,0.02434
2680.28392,0.02427
2678.22375,0.02425
2676.16358,0.02416
2674.10341,0.02402
2672.04324,0.02400
2669.98306,0.02391
2667.92289,0.02378
2665.86272,0.02382
2663.80255,0.02378
2661.74238,0.02365
2659.68220,0.02361
2657.62203,0.02364
2655.56186,0.02360
2653.50169,0.02333
2651.44151,0.02297
2649.38134,0.02277
2647.32117,0.02270
2645.26100,0.02263
2643.20083,0.02266
2641.14065,0.02282
2639.08048,0.02285
2637.02031,0.02263
2634.96014,0.02243
2632.89997,0.02235
2630.83979,0.02208
2628.77962,0.02155
2626.71945,0.02124
2624.65928,0.02134
2622.59910,0.02146
2620.53893,0.02133
2618.47876,0.02103
2616.41859,0.02080
2614.35842,0.02075
2612.29824,0.02066
2610.23807,0.02051
2608.17790,0.02055
2606.11773,0.02066
2604.05756,0.02067
2601.99738,0.02057
2599.93721,0.02029
2597.87704,0.02002
2595.81687,0.01996
2593.75670,0.01995
2591.69652,0.01976
2589.63635,0.01943
2587.57618,0.01928
2585.51601,0.01953
2583.45583,0.01984
2581.39566,0.01972
2579.33549,0.01940
2577.27532,0.01914
2575.21515,0.01896
2573.15497,0.01902
2571.09480,0.01922
2569.03463,0.01925
2566.97446,0.01901
2564.91429,0.01878
2562.85411,0.01870
2560.79394,0.01854
2558.73377,0.01834
2556.67360,0.01826
2554.61342,0.01804
2552.55325,0.01773
2550.49308,0.01771
2548.43291,0.01794
2546.37274,0.01815
2544.31256,0.01807
2542.25239,0.01750
2540.19222,0.01674
2538.13205,0.01638
2536.07188,0.01658
2534.01170,0.01690
2531.95153,0.01703
2529.89136,0.01708
2527.83119,0.01706
2525.77102,0.01694
2523.71084,0.01683
2521.65067,0.01668
2519.59050,0.01659
2517.53033,0.01662
2515.47015,0.01648
2513.40998,0.01617
2511.34981,0.01589
2509.28964,0.01570
2507.22947,0.01571
2505.16929,0.01603
2503.10912,0.01637
2501.04895,0.01641
2498.98878,0.01602
2496.92861,0.01556
2494.86843,0.01565
2492.80826,0.01592
2490.74809,0.01592
2488.68792,0.01592
2486.62775,0.01577
2484.56757,0.01537
2482.50740,0.01512
2480.44723,0.01521
2478.38706,0.01543
2476.32688,0.01565
2474.26671,0.01565
2472.20654,0.01533
2470.14637,0.01502
2468.08620,0.01492
2466.02602,0.01489
2463.96585,0.01489
2461.90568,0.01493
2459.84551,0.01502
2457.78534,0.01511
2455.72516,0.01514
2453.66499,0.01529
2451.60482,0.01534
2449.54465,0.01480
2447.48447,0.01416
2445.42430,0.01393
2443.36413,0.01404
2441.30396,0.01416
2439.24379,0.01397
2437.18361,0.01369
2435.12344,0.01369
2433.06327,0.01364
2431.00310,0.01336
2428.94293,0.01315
2426.88275,0.01310
2424.82258,0.01310
2422.76241,0.01303
2420.70224,0.01309
2418.64207,0.01354
2416.58189,0.01389
2414.52172,0.01374
2412.46155,0.01335
2410.40138,0.01306
2408.34120,0.01303
2406.28103,0.01314
2404.22086,0.01311
2402.16069,0.01286
2400.10052,0.01263
2398.04034,0.01260
2395.98017,0.01273
2393.92000,0.01279
2391.85983,0.01271
2389.79966,0.01256
2387.73948,0.01236
2385.67931,0.01210
2383.61914,0.01204
2381.55897,0.01225
2379.49880,0.01249
2377.43862,0.01265
2375.37845,0.01320
2373.31828,0.01319
2371.25811,0.01241
2369.19793,0.01231
2367.13776,0.01262
2365.07759,0.01221
2363.01742,0.01143
2360.95725,0.00794
2358.89707,0.00842
2356.83690,0.01241
2354.77673,0.01532
2352.71656,0.01526
2350.65639,0.01068
2348.59621,0.00819
2346.53604,0.01377
2344.47587,0.01463
2342.41570,0.01310
2340.35552,0.01238
2338.29535,0.01233
2336.23518,0.01297
2334.17501,0.01269
2332.11484,0.01240
2330.05466,0.01211
2327.99449,0.01235
2325.93432,0.01204
2323.87415,0.01311
2321.81398,0.01382
2319.75380,0.01419
2317.69363,0.01318
2315.63346,0.01267
2313.57329,0.01230
2311.51312,0.01160
2309.45294,0.01136
2307.39277,0.01143
2305.33260,0.01132
2303.27243,0.01127
2301.21225,0.01177
2299.15208,0.01194
2297.09191,0.01169
2295.03174,0.01138
2292.97157,0.01112
2290.91139,0.01130
2288.85122,0.01173
2286.79105,0.01171
2284.73088,0.01121
2282.67071,0.01107
2280.61053,0.01158
2278.55036,0.01187
2276.49019,0.01158
2274.43002,0.01121
2272.36984,0.01112
2270.30967,0.01087
2268.24950,0.01042
2266.18933,0.01023
2264.12916,0.01025
2262.06898,0.01014
2260.00881,0.00988
2257.94864,0.00942
2255.88847,0.00909
2253.82830,0.00898
2251.76812,0.00889
2249.70795,0.00899
2247.64778,0.00947
2245.58761,0.00990
2243.52744,0.00996
2241.46726,0.01002
2239.40709,0.01035
2237.34692,0.01068
2235.28675,0.01050
2233.22657,0.00954
2231.16640,0.00869
2229.10623,0.00885
2227.04606,0.00920
2224.98589,0.00905
2222.92571,0.00882
2220.86554,0.00865
2218.80537,0.00873
2216.74520,0.00916
2214.68503,0.00968
2212.62485,0.01024
2210.56468,0.01030
2208.50451,0.00953
2206.44434,0.00886
2204.38417,0.00896
2202.32399,0.00920
2200.26382,0.00894
2198.20365,0.00852
2196.14348,0.00834
2194.08330,0.00853
2192.02313,0.00898
2189.96296,0.00882
2187.90279,0.00788
2185.84262,0.00739
2183.78244,0.00752
2181.72227,0.00728
2179.66210,0.00697
2177.60193,0.00706
2175.54176,0.00701
2173.48158,0.00714
2171.42141,0.00814
2169.36124,0.00909
2167.30107,0.00895
2165.24089,0.00890
2163.18072,0.00995
2161.12055,0.00990
2159.06038,0.00709
2157.00021,0.00476
2154.94003,0.00530
2152.87986,0.00694
2150.81969,0.00789
2148.75952,0.00815
2146.69935,0.00821
2144.63917,0.00774
2142.57900,0.00672
2140.51883,0.00640
2138.45866,0.00711
2136.39849,0.00751
2134.33831,0.00749
2132.27814,0.00763
2130.21797,0.00764
2128.15780,0.00794
2126.09762,0.00868
2124.03745,0.00891
2121.97728,0.00875
2119.91711,0.00871
2117.85694,0.00841
2115.79676,0.00815
2113.73659,0.00845
2111.67642,0.00870
2109.61625,0.00843
2107.55608,0.00823
2105.49590,0.00840
2103.43573,0.00867
2101.37556,0.00889
2099.31539,0.00884
2097.25521,0.00851
2095.19504,0.00845
2093.13487,0.00860
2091.07470,0.00833
2089.01453,0.00787
2086.95435,0.00770
2084.89418,0.00781
2082.83401,0.00820
2080.77384,0.00867
2078.71367,0.00851
2076.65349,0.00778
2074.59332,0.00780
2072.53315,0.00883
2070.47298,0.00961
2068.41281,0.00983
2066.35263,0.01013
2064.29246,0.01023
2062.23229,0.00946
2060.17212,0.00853
2058.11194,0.00847
2056.05177,0.00871
2053.99160,0.00833
2051.93143,0.00750
2049.87126,0.00650
2047.81108,0.00588
2045.75091,0.00633
2043.69074,0.00733
2041.63057,0.00760
2039.57040,0.00692
2037.51022,0.00637
2035.45005,0.00606
2033.38988,0.00529
2031.32971,0.00476
2029.26954,0.00577
2027.20936,0.00737
2025.14919,0.00801
2023.08902,0.00741
2021.02885,0.00621
2018.96867,0.00550
2016.90850,0.00530
2014.84833,0.00516
2012.78816,0.00523
2010.72799,0.00538
2008.66781,0.00523
2006.60764,0.00522
2004.54747,0.00582
2002.48730,0.00625
2000.42713,0.00618
1998.36695,0.00628
1996.30678,0.00676
1994.24661,0.00730
1992.18644,0.00752
1990.12626,0.00732
1988.06609,0.00723
1986.00592,0.00718
1983.94575,0.00687
1981.88558,0.00686
1979.82540,0.00698
1977.76523,0.00647
1975.70506,0.00597
1973.64489,0.00617
1971.58472,0.00632
1969.52454,0.00609
1967.46437,0.00599
1965.40420,0.00570
1963.34403,0.00494
1961.28386,0.00462
1959.22368,0.00539
1957.16351,0.00641
1955.10334,0.00663
1953.04317,0.00640
1950.98299,0.00650
1948.92282,0.00665
1946.86265,0.00631
1944.80248,0.00586
1942.74231,0.00587
1940.68213,0.00638
1938.62196,0.00689
1936.56179,0.00688
1934.50162,0.00651
1932.44145,0.00624
1930.38127,0.00610
1928.32110,0.00604
1926.26093,0.00634
1924.20076,0.00681
1922.14059,0.00687
1920.08041,0.00658
1918.02024,0.00635
1915.96007,0.00643
1913.89990,0.00685
1911.83972,0.00730
1909.77955,0.00714
1907.71938,0.00645
1905.65921,0.00602
1903.59904,0.00600
1901.53886,0.00618
1899.47869,0.00652
1897.41852,0.00673
1895.35835,0.00677
1893.29818,0.00684
1891.23800,0.00687
1889.17783,0.00681
1887.11766,0.00671
1885.05749,0.00651
1882.99731,0.00634
1880.93714,0.00644
1878.87697,0.00655
1876.81680,0.00633
1874.75663,0.00597
1872.69645,0.00576
1870.63628,0.00572
1868.57611,0.00590
1866.51594,0.00627
1864.45577,0.00644
1862.39559,0.00626
1860.33542,0.00601
1858.27525,0.00591
1856.21508,0.00585
1854.15491,0.00571
1852.09473,0.00563
1850.03456,0.00569
1847.97439,0.00566
1845.91422,0.00539
1843.85404,0.00518
1841.79387,0.00530
1839.73370,0.00561
1837.67353,0.00581
1835.61336,0.00579
1833.55318,0.00559
1831.49301,0.00534
1829.43284,0.00522
1827.37267,0.00518
1825.31250,0.00507
1823.25232,0.00491
1821.19215,0.00481
1819.13198,0.00483
1817.07181,0.00507
1815.01163,0.00530
1812.95146,0.00540
1810.89129,0.00540
1808.83112,0.00539
1806.77095,0.00538
1804.71077,0.00530
1802.65060,0.00509
1800.59043,0.00492
1798.53026,0.00484
1796.47009,0.00469
1794.40991,0.00452
1792.34974,0.00449
1790.28957,0.00457
1788.22940,0.00469
1786.16923,0.00476
1784.10905,0.00478
1782.04888,0.00486
1779.98871,0.00486
1777.92854,0.00478
1775.86836,0.00466
1773.80819,0.00462
1771.74802,0.00474
1769.68785,0.00496
1767.62768,0.00521
1765.56750,0.00545
1763.50733,0.00581
1761.44716,0.00644
1759.38699,0.00723
1757.32682,0.00812
1755.26664,0.00918
1753.20647,0.01033
1751.14630,0.01164
1749.08613,0.01338
1747.02596,0.01569
1744.96578,0.01856
1742.90561,0.02211
1740.84544,0.02646
1738.78527,0.03116
1736.72509,0.03523
1734.66492,0.03870
1732.60475,0.04171
1730.54458,0.04356
1728.48441,0.04433
1726.42423,0.04454
1724.36406,0.04443
1722.30389,0.04408
1720.24372,0.04357
1718.18355,0.04290
1716.12337,0.04236
1714.06320,0.04218
1712.00303,0.04207
1709.94286,0.04177
1707.88268,0.04122
1705.82251,0.04037
1703.76234,0.03930
1701.70217,0.03803
1699.64200,0.03660
1697.58182,0.03540
1695.52165,0.03460
1693.46148,0.03425
1691.40131,0.03410
1689.34114,0.03375
1687.28096,0.03321
1685.22079,0.03268
1683.16062,0.03238
1681.10045,0.03233
1679.04028,0.03228
1676.98010,0.03216
1674.91993,0.03210
1672.85976,0.03236
1670.79959,0.03284
1668.73941,0.03336
1666.67924,0.03400
1664.61907,0.03480
1662.55890,0.03583
1660.49873,0.03707
1658.43855,0.03820
1656.37838,0.03903
1654.31821,0.03976
1652.25804,0.04065
1650.19787,0.04138
1648.13769,0.04176
1646.07752,0.04195
1644.01735,0.04220
1641.95718,0.04262
1639.89701,0.04314
1637.83683,0.04360
1635.77666,0.04404
1633.71649,0.04466
1631.65632,0.04545
1629.59614,0.04629
1627.53597,0.04707
1625.47580,0.04771
1623.41563,0.04832
1621.35546,0.04910
1619.29528,0.04992
1617.23511,0.05064
1615.17494,0.05143
1613.11477,0.05246
1611.05460,0.05350
1608.99442,0.05430
1606.93425,0.05474
1604.87408,0.05485
1602.81391,0.05457
1600.75373,0.05388
1598.69356,0.05281
1596.63339,0.05142
1594.57322,0.04983
1592.51305,0.04809
1590.45287,0.04623
1588.39270,0.04430
1586.33253,0.04241
1584.27236,0.04054
1582.21219,0.03872
1580.15201,0.03709
1578.09184,0.03543
1576.03167,0.03345
1573.97150,0.03179
1571.91133,0.03063
1569.85115,0.02933
1567.79098,0.02807
1565.73081,0.02728
1563.67064,0.02680
1561.61046,0.02640
1559.55029,0.02578
1557.49012,0.02521
1555.42995,0.02523
1553.36978,0.02550
1551.30960,0.02580
1549.24943,0.02605
1547.18926,0.02602
1545.12909,0.02562
1543.06892,0.02504
1541.00874,0.02456
1538.94857,0.02456
1536.88840,0.02496
1534.82823,0.02517
1532.76805,0.02490
1530.70788,0.02434
1528.64771,0.02365
1526.58754,0.02282
1524.52737,0.02195
1522.46719,0.02129
1520.40702,0.02115
1518.34685,0.02143
1516.28668,0.02166
1514.22651,0.02162
1512.16633,0.02126
1510.10616,0.02034
1508.04599,0.01856
1505.98582,0.01656
1503.92565,0.01556
1501.86547,0.01499
1499.80530,0.01407
1497.74513,0.01275
1495.68496,0.01145
1493.62478,0.01048
1491.56461,0.00959
1489.50444,0.00851
1487.44427,0.00759
1485.38410,0.00716
1483.32392,0.00713
1481.26375,0.00741
1479.20358,0.00800
1477.14341,0.00908
1475.08324,0.01112
1473.02306,0.01416
1470.96289,0.01730
1468.90272,0.01983
1466.84255,0.02213
1464.78238,0.02457
1462.72220,0.02658
1460.66203,0.02772
1458.60186,0.02870
1456.54169,0.03026
1454.48151,0.03199
1452.42134,0.03334
1450.36117,0.03443
1448.30100,0.03546
1446.24083,0.03647
1444.18065,0.03726
1442.12048,0.03754
1440.06031,0.03712
1438.00014,0.03589
1435.93997,0.03408
1433.87979,0.03248
1431.81962,0.03118
1429.75945,0.02985
1427.69928,0.02868
1425.63910,0.02787
1423.57893,0.02737
1421.51876,0.02718
1419.45859,0.02723
1417.39842,0.02730
1415.33824,0.02724
1413.27807,0.02700
1411.21790,0.02670
1409.15773,0.02641
1407.09756,0.02612
1405.03738,0.02575
1402.97721,0.02551
1400.91704,0.02559
1398.85687,0.02582
1396.79670,0.02608
1394.73652,0.02648
1392.67635,0.02702
1390.61618,0.02758
1388.55601,0.02805
1386.49583,0.02862
1384.43566,0.02947
1382.37549,0.03051
1380.31532,0.03156
1378.25515,0.03255
1376.19497,0.03338
1374.13480,0.03408
1372.07463,0.03478
1370.01446,0.03541
1367.95429,0.03589
1365.89411,0.03628
1363.83394,0.03661
1361.77377,0.03682
1359.71360,0.03699
1357.65343,0.03723
1355.59325,0.03756
1353.53308,0.03797
1351.47291,0.03845
1349.41274,0.03888
1347.35256,0.03929
1345.29239,0.03970
1343.23222,0.04013
1341.17205,0.04053
1339.11188,0.04086
1337.05170,0.04122
1334.99153,0.04177
1332.93136,0.04247
1330.87119,0.04313
1328.81102,0.04367
1326.75084,0.04425
1324.69067,0.04495
1322.63050,0.04569
1320.57033,0.04624
1318.51015,0.04648
1316.44998,0.04648
1314.38981,0.04627
1312.32964,0.04581
1310.26947,0.04505
1308.20929,0.04390
1306.14912,0.04235
1304.08895,0.04059
1302.02878,0.03872
1299.96861,0.03677
1297.90843,0.03480
1295.84826,0.03288
1293.78809,0.03122
1291.72792,0.02995
1289.66775,0.02895
1287.60757,0.02807
1285.54740,0.02742
1283.48723,0.02706
1281.42706,0.02680
1279.36688,0.02651
1277.30671,0.02637
1275.24654,0.02657
1273.18637,0.02689
1271.12620,0.02723
1269.06602,0.02764
1267.00585,0.02813
1264.94568,0.02867
1262.88551,0.02930
1260.82534,0.03001
1258.76516,0.03066
1256.70499,0.03117
1254.64482,0.03166
1252.58465,0.03224
1250.52447,0.03291
1248.46430,0.03366
1246.40413,0.03442
1244.34396,0.03515
1242.28379,0.03588
1240.22361,0.03666
1238.16344,0.03759
1236.10327,0.03858
1234.04310,0.03950
1231.98293,0.04040
1229.92275,0.04133
1227.86258,0.04223
1225.80241,0.04311
1223.74224,0.04400
1221.68207,0.04495
1219.62189,0.04590
1217.56172,0.04683
1215.50155,0.04779
1213.44138,0.04872
1211.38120,0.04960
1209.32103,0.05056
1207.26086,0.05169
1205.20069,0.05291
1203.14052,0.05409
1201.08034,0.05516
1199.02017,0.05600
1196.96000,0.05648
1194.89983,0.05663
1192.83966,0.05657
1190.77948,0.05632
1188.71931,0.05573
1186.65914,0.05481
1184.59897,0.05392
1182.53880,0.05333
1180.47862,0.05287
1178.41845,0.05224
1176.35828,0.05168
1174.29811,0.05138
1172.23793,0.05132
1170.17776,0.05134
1168.11759,0.05119
1166.05742,0.05082
1163.99725,0.05017
1161.93707,0.04922
1159.87690,0.04817
1157.81673,0.04715
1155.75656,0.04611
1153.69639,0.04501
1151.63621,0.04396
1149.57604,0.04308
1147.51587,0.04232
1145.45570,0.04138
1143.39552,0.04014
1141.33535,0.03891
1139.27518,0.03787
1137.21501,0.03697
1135.15484,0.03633
1133.09466,0.03608
1131.03449,0.03602
1128.97432,0.03612
1126.91415,0.03667
1124.85398,0.03784
1122.79380,0.03941
1120.73363,0.04115
1118.67346,0.04304
1116.61329,0.04517
1114.55312,0.04763
1112.49294,0.05031
1110.43277,0.05311
1108.37260,0.05608
1106.31243,0.05915
1104.25225,0.06197
1102.19208,0.06422
1100.13191,0.06590
1098.07174,0.06738
1096.01157,0.06886
1093.95139,0.07034
1091.89122,0.07183
1089.83105,0.07336
1087.77088,0.07499
1085.71071,0.07685
1083.65053,0.07885
1081.59036,0.08095
1079.53019,0.08319
1077.47002,0.08536
1075.40985,0.08725
1073.34967,0.08888
1071.28950,0.09020
1069.22933,0.09137
1067.16916,0.09275
1065.10898,0.09429
1063.04881,0.09574
1060.98864,0.09715
1058.92847,0.09861
1056.86830,0.10000
1054.80812,0.10148
1052.74795,0.10328
1050.68778,0.10515
1048.62761,0.10695
1046.56744,0.10879
1044.50726,0.11066
1042.44709,0.11266
1040.38692,0.11493
1038.32675,0.11731
1036.26657,0.11957
1034.20640,0.12161
1032.14623,0.12339
1030.08606,0.12502
1028.02589,0.12638
1025.96571,0.12721
1023.90554,0.12755
1021.84537,0.12780
1019.78520,0.12806
1017.72503,0.12799
1015.66485,0.12745
1013.60468,0.12671
1011.54451,0.12587
1009.48434,0.12460
1007.42417,0.12264
1005.36399,0.12030
1003.30382,0.11790
1001.24365,0.11534
999.18348,0.11247
997.12330,0.10954
995.06313,0.10685
993.00296,0.10420
990.94279,0.10147
988.88262,0.09864
986.82244,0.09565
984.76227,0.09264
982.70210,0.08972
980.64193,0.08678
978.58176,0.08367
976.52158,0.08031
974.46141,0.07695
972.40124,0.07406
970.34107,0.07178
968.28089,0.06995
966.22072,0.06817
964.16055,0.06625
962.10038,0.06439
960.04021,0.06249
957.98003,0.06038
955.91986,0.05809
953.85969,0.05571
951.79952,0.05334
949.73935,0.05099
947.67917,0.04855
945.61900,0.04612
943.55883,0.04406
941.49866,0.04222
939.43849,0.04036
937.37831,0.03899
935.31814,0.03818
933.25797,0.03743
931.19780,0.03663
929.13762,0.03580
927.07745,0.03484
925.01728,0.03384
922.95711,0.03295
920.89694,0.03205
918.83676,0.03085
916.77659,0.02930
914.71642,0.02776
912.65625,0.02628
910.59608,0.02484
908.53590,0.02362
906.47573,0.02247
904.41556,0.02134
902.35539,0.02047
900.29522,0.01986
898.23504,0.01964
896.17487,0.01970
894.11470,0.01966
892.05453,0.01926
889.99435,0.01847
887.93418,0.01779
885.87401,0.01735
883.81384,0.01675
881.75367,0.01622
879.69349,0.01639
877.63332,0.01722
875.57315,0.01792
873.51298,0.01835
871.45281,0.01876
869.39263,0.01874
867.33246,0.01791
865.27229,0.01659
863.21212,0.01495
861.15194,0.01295
859.09177,0.01086
857.03160,0.00922
854.97143,0.00829
852.91126,0.00769
850.85108,0.00683
848.79091,0.00612
846.73074,0.00604
844.67057,0.00603
842.61040,0.00583
840.55022,0.00620
838.49005,0.00724
836.42988,0.00835
834.36971,0.00909
832.30954,0.00938
830.24936,0.00924
828.18919,0.00878
826.12902,0.00867
824.06885,0.00912
822.00867,0.00983
819.94850,0.01055
817.88833,0.01054
815.82816,0.00969
813.76799,0.00914
811.70781,0.00929
809.64764,0.00909
807.58747,0.00830
805.52730,0.00776
803.46713,0.00742
801.40695,0.00679
799.34678,0.00618
797.28661,0.00559
795.22644,0.00521
793.16627,0.00491
791.10609,0.00482
789.04592,0.00517
786.98575,0.00609
784.92558,0.00726
782.86540,0.00821
780.80523,0.00870
778.74506,0.00894
776.68489,0.00926
774.62472,0.00970
772.56454,0.01019
770.50437,0.01083
768.44420,0.01190
766.38403,0.01341
764.32386,0.01514
762.26368,0.01708
760.20351,0.01911
758.14334,0.02064
756.08317,0.02127
754.02299,0.02073
751.96282,0.01933
749.90265,0.01775
747.84248,0.01616
745.78231,0.01469
743.72213,0.01322
741.66196,0.01216
739.60179,0.01195
737.54162,0.01149
735.48145,0.01063
733.42127,0.01060
731.36110,0.01127
729.30093,0.01147
727.24076,0.01100
725.18059,0.01056
723.12041,0.01046
721.06024,0.01138
719.00007,0.01076
716.93990,0.00934
714.87972,0.00843
712.81955,0.00811
710.75938,0.00820
708.69921,0.00833
706.63904,0.00815
704.57886,0.00763
702.51869,0.00719
700.45852,0.00686
698.39835,0.00656
696.33818,0.00676
694.27800,0.00719
692.21783,0.00692
690.15766,0.00582
688.09749,0.00432
686.03731,0.00314
683.97714,0.00274
681.91697,0.00298
679.85680,0.00404
677.79663,0.00557
675.73645,0.00610
673.67628,0.00387
671.61611,0.00000
669.55594,0.00525
667.49577,0.01225
665.43559,0.00233
663.37542,0.00404
661.31525,0.00625
659.25508,0.00518
657.19491,0.00370
655.13473,0.00309
653.07456,0.00318
651.01439,0.00370
648.95422,0.00436
646.89404,0.00462
644.83387,0.00566
642.77370,0.00581
640.71353,0.00378
638.65336,0.00145
636.59318,0.00124
634.53301,0.00258
632.47284,0.00365
630.41267,0.00419
628.35250,0.00475
626.29232,0.00465
624.23215,0.00295
622.17198,0.00118
620.11181,0.00167
618.05164,0.00461
615.99146,0.00652
613.93129,0.00680
611.87112,0.00698
609.81095,0.00522
607.75077,0.00270
605.69060,0.00208
603.63043,0.00229
601.57026,0.00147
599.51009,0.00000
