3996.73391,-0.00009
3994.67373,-0.00029
3992.61356,-0.00043
3990.55339,-0.00054
3988.49322,-0.00050
3986.43305,-0.00034
3984.37287,-0.00028
3982.31270,-0.00031
3980.25253,-0.00010
3978.19236,0.00027
3976.13219,0.00037
3974.07201,0.00027
3972.01184,0.00012
3969.95167,0.00004
3967.89150,0.00019
3965.83133,0.00038
3963.77115,0.00034
3961.71098,0.00028
3959.65081,0.00040
3957.59064,0.00047
3955.53046,0.00034
3953.47029,0.00012
3951.41012,0.00000
3949.34995,0.00013
3947.28978,0.00043
3945.22960,0.00053
3943.16943,0.00048
3941.10926,0.00056
3939.04909,0.00066
3936.98892,0.00056
3934.92874,0.00038
3932.86857,0.00048
3930.80840,0.00093
3928.74823,0.00122
3926.68805,0.00124
3924.62788,0.00123
3922.56771,0.00108
3920.50754,0.00067
3918.44737,0.00019
3916.38719,0.00000
3914.32702,0.00020
3912.26685,0.00052
3910.20668,0.00054
3908.14651,0.00028
3906.08633,0.00014
3904.02616,0.00021
3901.96599,0.00033
3899.90582,0.00079
3897.84565,0.00154
3895.78547,0.00173
3893.72530,0.00122
3891.66513,0.00078
3889.60496,0.00090
3887.54478,0.00124
3885.48461,0.00131
3883.42444,0.00120
3881.36427,0.00117
3879.30410,0.00117
3877.24392,0.00095
3875.18375,0.00070
3873.12358,0.00068
3871.06341,0.00084
3869.00324,0.00112
3866.94306,0.00145
3864.88289,0.00155
3862.82272,0.00131
3860.76255,0.00103
3858.70237,0.00077
3856.64220,0.00048
3854.58203,0.00037
3852.52186,0.00076
3850.46169,0.00135
3848.40151,0.00155
3846.34134,0.00119
3844.28117,0.00059
3842.22100,0.00027
3840.16083,0.00076
3838.10065,0.00175
3836.04048,0.00205
3833.98031,0.00165
3831.92014,0.00144
3829.85997,0.00137
3827.79979,0.00107
3825.73962,0.00061
3823.67945,0.00019
3821.61928,0.00000
3819.55910,0.00027
3817.49893,0.00072
3815.43876,0.00088
3813.37859,0.00078
3811.31842,0.00076
3809.25824,0.00096
3807.19807,0.00131
3805.13790,0.00138
3803.07773,0.00106
3801.01756,0.00096
3798.95738,0.00114
3796.89721,0.00105
3794.83704,0.00074
3792.77687,0.00057
3790.71670,0.00066
3788.65652,0.00072
3786.59635,0.00069
3784.53618,0.00079
3782.47601,0.00084
3780.41583,0.00076
3778.35566,0.00079
3776.29549,0.00089
3774.23532,0.00092
3772.17515,0.00098
3770.11497,0.00114
3768.05480,0.00116
3765.99463,0.00100
3763.93446,0.00100
3761.87429,0.00124
3759.81411,0.00158
3757.75394,0.00183
3755.69377,0.00188
3753.63360,0.00161
3751.57342,0.00110
3749.51325,0.00084
3747.45308,0.00112
3745.39291,0.00196
3743.33274,0.00277
3741.27256,0.00249
3739.21239,0.00157
3737.15222,0.00126
3735.09205,0.00201
3733.03188,0.00284
3730.97170,0.00288
3728.91153,0.00231
3726.85136,0.00149
3724.79119,0.00076
3722.73102,0.00052
3720.67084,0.00086
3718.61067,0.00133
3716.55050,0.00148
3714.49033,0.00110
3712.43015,0.00054
3710.36998,0.00062
3708.30981,0.00119
3706.24964,0.00161
3704.18947,0.00180
3702.12929,0.00172
3700.06912,0.00129
3698.00895,0.00090
3695.94878,0.00082
3693.88861,0.00102
3691.82843,0.00152
3689.76826,0.00208
3687.70809,0.00208
3685.64792,0.00128
3683.58775,0.00057
3681.52757,0.00063
3679.46740,0.00125
3677.40723,0.00208
3675.34706,0.00288
3673.28688,0.00290
3671.22671,0.00247
3669.16654,0.00256
3667.10637,0.00302
3665.04620,0.00317
3662.98602,0.00301
3660.92585,0.00296
3658.86568,0.00309
3656.80551,0.00317
3654.74534,0.00330
3652.68516,0.00367
3650.62499,0.00441
3648.56482,0.00523
3646.50465,0.00535
3644.44447,0.00505
3642.38430,0.00512
3640.32413,0.00546
3638.26396,0.00562
3636.20379,0.00562
3634.14361,0.00567
3632.08344,0.00570
3630.02327,0.00579
3627.96310,0.00622
3625.90293,0.00659
3623.84275,0.00671
3621.78258,0.00705
3619.72241,0.00779
3617.66224,0.00853
3615.60207,0.00888
3613.54189,0.00910
3611.48172,0.00936
3609.42155,0.00979
3607.36138,0.01058
3605.30120,0.01133
3603.24103,0.01157
3601.18086,0.01133
3599.12069,0.01115
3597.06052,0.01152
3595.00034,0.01218
3592.94017,0.01250
3590.88000,0.01266
3588.81983,0.01328
3586.75966,0.01408
3584.69948,0.01432
3582.63931,0.01425
3580.57914,0.01440
3578.51897,0.01485
3576.45879,0.01537
3574.39862,0.01582
3572.33845,0.01620
3570.27828,0.01649
3568.21811,0.01697
3566.15793,0.01764
3564.09776,0.01768
3562.03759,0.01730
3559.97742,0.01741
3557.91725,0.01796
3555.85707,0.01846
3553.79690,0.01890
3551.73673,0.01931
3549.67656,0.01956
3547.61639,0.01976
3545.55621,0.01997
3543.49604,0.02008
3541.43587,0.02018
3539.37570,0.02030
3537.31552,0.02058
3535.25535,0.02131
3533.19518,0.02226
3531.13501,0.02294
3529.07484,0.02326
3527.01466,0.02325
3524.95449,0.02306
3522.89432,0.02288
3520.83415,0.02275
3518.77398,0.02293
3516.71380,0.02371
3514.65363,0.02461
3512.59346,0.02493
3510.53329,0.02496
3508.47312,0.02533
3506.41294,0.02584
3504.35277,0.02622
3502.29260,0.02656
3500.23243,0.02673
3498.17225,0.02673
3496.11208,0.02698
3494.05191,0.02757
3491.99174,0.02811
3489.93157,0.02841
3487.87139,0.02870
3485.81122,0.02905
3483.75105,0.02926
3481.69088,0.02924
3479.63071,0.02927
3477.57053,0.02960
3475.51036,0.03012
3473.45019,0.03051
3471.39002,0.03062
3469.32984,0.03064
3467.26967,0.03078
3465.20950,0.03105
3463.14933,0.03123
3461.08916,0.03137
3459.02898,0.03163
3456.96881,0.03186
3454.90864,0.03200
3452.84847,0.03232
3450.78830,0.03274
3448.72812,0.03296
3446.66795,0.03293
3444.60778,0.03292
3442.54761,0.03320
3440.48744,0.03371
3438.42726,0.03417
3436.36709,0.03448
3434.30692,0.03479
3432.24675,0.03498
3430.18657,0.03495
3428.12640,0.03500
3426.06623,0.03526
3424.00606,0.03544
3421.94589,0.03554
3419.88571,0.03568
3417.82554,0.03583
3415.76537,0.03608
3413.70520,0.03649
3411.64503,0.03693
3409.58485,0.03717
3407.52468,0.03708
3405.46451,0.03696
3403.40434,0.03714
3401.34416,0.03723
3399.28399,0.03718
3397.22382,0.03741
3395.16365,0.03770
3393.10348,0.03759
3391.04330,0.03743
3388.98313,0.03777
3386.92296,0.03829
3384.86279,0.03846
3382.80262,0.03849
3380.74244,0.03870
3378.68227,0.03898
3376.62210,0.03905
3374.56193,0.03882
3372.50176,0.03870
3370.44158,0.03900
3368.38141,0.03940
3366.32124,0.03954
3364.26107,0.03949
3362.20089,0.03948
3360.14072,0.03955
3358.08055,0.03954
3356.02038,0.03955
3353.96021,0.03971
3351.90003,0.03997
3349.83986,0.04021
3347.77969,0.04024
3345.71952,0.04004
3343.65935,0.03984
3341.59917,0.03978
3339.53900,0.04006
3337.47883,0.04050
3335.41866,0.04051
3333.35849,0.04002
3331.29831,0.03970
3329.23814,0.03986
3327.17797,0.03995
3325.11780,0.03983
3323.05762,0.03984
3320.99745,0.03985
3318.93728,0.03982
3316.87711,0.03984
3314.81694,0.04003
3312.75676,0.04046
3310.69659,0.04077
3308.63642,0.04083
3306.57625,0.04090
3304.51608,0.04096
3302.45590,0.04089
3300.39573,0.04078
3298.33556,0.04065
3296.27539,0.04055
3294.21521,0.04045
3292.15504,0.04043
3290.09487,0.04073
3288.03470,0.04092
3285.97453,0.04081
3283.91435,0.04087
3281.85418,0.04094
3279.79401,0.04068
3277.73384,0.04046
3275.67367,0.04053
3273.61349,0.04082
3271.55332,0.04106
3269.49315,0.04108
3267.43298,0.04099
3265.37281,0.04086
3263.31263,0.04087
3261.25246,0.04105
3259.19229,0.04119
3257.13212,0.04133
3255.07194,0.04138
3253.01177,0.04109
3250.95160,0.04076
3248.89143,0.04069
3246.83126,0.04060
3244.77108,0.04048
3242.71091,0.04062
3240.65074,0.04088
3238.59057,0.04103
3236.53040,0.04096
3234.47022,0.04077
3232.41005,0.04085
3230.34988,0.04123
3228.28971,0.04129
3226.22954,0.04082
3224.16936,0.04021
3222.10919,0.04000
3220.04902,0.04031
3217.98885,0.04066
3215.92867,0.04070
3213.86850,0.04067
3211.80833,0.04067
3209.74816,0.04054
3207.68799,0.04040
3205.62781,0.04044
3203.56764,0.04051
3201.50747,0.04050
3199.44730,0.04048
3197.38713,0.04037
3195.32695,0.04013
3193.26678,0.03986
3191.20661,0.03964
3189.14644,0.03946
3187.08626,0.03938
3185.02609,0.03952
3182.96592,0.03974
3180.90575,0.03981
3178.84558,0.03988
3176.78540,0.03980
3174.72523,0.03938
3172.66506,0.03902
3170.60489,0.03891
3168.54472,0.03883
3166.48454,0.03858
3164.42437,0.03824
3162.36420,0.03796
3160.30403,0.03790
3158.24386,0.03799
3156.18368,0.03794
3154.12351,0.03787
3152.06334,0.03802
3150.00317,0.03816
3147.94299,0.03807
3145.88282,0.03784
3143.82265,0.03763
3141.76248,0.03752
3139.70231,0.03746
3137.64213,0.03726
3135.58196,0.03674
3133.52179,0.03637
3131.46162,0.03660
3129.40145,0.03692
3127.34127,0.03674
3125.28110,0.03642
3123.22093,0.03637
3121.16076,0.03625
3119.10058,0.03582
3117.04041,0.03542
3114.98024,0.03512
3112.92007,0.03474
3110.85990,0.03457
3108.79972,0.03461
3106.73955,0.03448
3104.67938,0.03423
3102.61921,0.03410
3100.55904,0.03405
3098.49886,0.03408
3096.43869,0.03422
3094.37852,0.03414
3092.31835,0.03368
3090.25818,0.03327
3088.19800,0.03315
3086.13783,0.03302
3084.07766,0.03266
3082.01749,0.03239
3079.95731,0.03230
3077.89714,0.03223
3075.83697,0.03211
3073.77680,0.03187
3071.71663,0.03162
3069.65645,0.03137
3067.59628,0.03110
3065.53611,0.03094
3063.47594,0.03090
3061.41577,0.03101
3059.35559,0.03117
3057.29542,0.03108
3055.23525,0.03077
3053.17508,0.03056
3051.11491,0.03051
3049.05473,0.03030
3046.99456,0.03005
3044.93439,0.02997
3042.87422,0.02982
3040.81404,0.02943
3038.75387,0.02895
3036.69370,0.02854
3034.63353,0.02835
3032.57336,0.02826
3030.51318,0.02815
3028.45301,0.02806
3026.39284,0.02790
3024.33267,0.02752
3022.27250,0.02716
3020.21232,0.02703
3018.15215,0.02702
3016.09198,0.02696
3014.03181,0.02669
3011.97163,0.02646
3009.91146,0.02651
3007.85129,0.02650
3005.79112,0.02624
3003.73095,0.02595
3001.67077,0.02587
2999.61060,0.02590
2997.55043,0.02574
2995.49026,0.02540
2993.43009,0.02503
2991.36991,0.02486
2989.30974,0.02498
2987.24957,0.02499
2985.18940,0.02479
2983.12923,0.02478
2981.06905,0.02487
2979.00888,0.02485
2976.94871,0.02472
2974.88854,0.02432
2972.82836,0.02392
2970.76819,0.02400
2968.70802,0.02431
2966.64785,0.02433
2964.58768,0.02403
2962.52750,0.02376
2960.46733,0.02373
2958.40716,0.02377
2956.34699,0.02370
2954.28682,0.02365
2952.22664,0.02378
2950.16647,0.02393
2948.10630,0.02386
2946.04613,0.02364
2943.98596,0.02357
2941.92578,0.02356
2939.86561,0.02342
2937.80544,0.02325
2935.74527,0.02306
2933.68509,0.02278
2931.62492,0.02254
2929.56475,0.02234
2927.50458,0.02223
2925.44441,0.02230
2923.38423,0.02240
2921.32406,0.02231
2919.26389,0.02205
2917.20372,0.02182
2915.14355,0.02165
2913.08337,0.02146
2911.02320,0.02124
2908.96303,0.02105
2906.90286,0.02109
2904.84268,0.02136
2902.78251,0.02145
2900.72234,0.02118
2898.66217,0.02091
2896.60200,0.02087
2894.54182,0.02084
2892.48165,0.02061
2890.42148,0.02037
2888.36131,0.02040
2886.30114,0.02051
2884.24096,0.02051
2882.18079,0.02042
2880.12062,0.02023
2878.06045,0.01996
2876.00028,0.01985
2873.94010,0.02001
2871.87993,0.02012
2869.81976,0.02010
2867.75959,0.02013
2865.69941,0.01998
2863.63924,0.01965
2861.57907,0.01941
2859.51890,0.01929
2857.45873,0.01937
2855.39855,0.01962
2853.33838,0.01957
2851.27821,0.01907
2849.21804,0.01857
2847.15787,0.01849
2845.09769,0.01866
2843.03752,0.01860
2840.97735,0.01830
2838.91718,0.01824
2836.85700,0.01847
2834.79683,0.01854
2832.73666,0.01828
2830.67649,0.01798
2828.61632,0.01787
2826.55614,0.01789
2824.49597,0.01777
2822.43580,0.01749
2820.37563,0.01743
2818.31546,0.01760
2816.25528,0.01748
2814.19511,0.01711
2812.13494,0.01695
2810.07477,0.01692
2808.01460,0.01689
2805.95442,0.01704
2803.89425,0.01715
2801.83408,0.01693
2799.77391,0.01663
2797.71373,0.01654
2795.65356,0.01653
2793.59339,0.01657
2791.53322,0.01660
2789.47305,0.01642
2787.41287,0.01614
2785.35270,0.01591
2783.29253,0.01577
2781.23236,0.01578
2779.17219,0.01587
2777.11201,0.01598
2775.05184,0.01611
2772.99167,0.01609
2770.93150,0.01574
2768.87133,0.01537
2766.81115,0.01520
2764.75098,0.01513
2762.69081,0.01498
2760.63064,0.01477
2758.57046,0.01458
2756.51029,0.01450
2754.45012,0.01465
2752.38995,0.01481
2750.32978,0.01470
2748.26960,0.01458
2746.20943,0.01469
2744.14926,0.01467
2742.08909,0.01442
2740.02892,0.01434
2737.96874,0.01445
2735.90857,0.01440
2733.84840,0.01410
2731.78823,0.01389
2729.72805,0.01398
2727.66788,0.01404
2725.60771,0.01379
2723.54754,0.01343
2721.48737,0.01326
2719.42719,0.01339
2717.36702,0.01348
2715.30685,0.01333
2713.24668,0.01332
2711.18651,0.01336
2709.12633,0.01318
2707.06616,0.01288
2705.00599,0.01270
2702.94582,0.01267
2700.88565,0.01266
2698.82547,0.01250
2696.76530,0.01225
2694.70513,0.01219
2692.64496,0.01236
2690.58478,0.01244
2688.52461,0.01221
2686.46444,0.01185
2684.40427,0.01164
2682.34410,0.01165
2680.28392,0.01174
2678.22375,0.01179
2676.16358,0.01186
2674.10341,0.01180
2672.04324,0.01155
2669.98306,0.01141
2667.92289,0.01139
2665.86272,0.01136
2663.80255,0.01136
2661.74238,0.01133
2659.68220,0.01118
2657.62203,0.01102
2655.56186,0.01101
2653.50169,0.01112
2651.44151,0.01105
2649.38134,0.01074
2647.32117,0.01047
2645.26100,0.01036
2643.20083,0.01019
2641.14065,0.00999
2639.08048,0.01004
2637.02031,0.01021
2634.96014,0.01028
2632.89997,0.01019
2630.83979,0.00994
2628.77962,0.00965
2626.71945,0.00942
2624.65928,0.00926
2622.59910,0.00918
2620.53893,0.00915
2618.47876,0.00909
2616.41859,0.00902
2614.35842,0.00910
2612.29824,0.00931
2610.23807,0.00931
2608.17790,0.00909
2606.11773,0.00903
2604.05756,0.00904
2601.99738,0.00893
2599.93721,0.00887
2597.87704,0.00881
2595.81687,0.00877
2593.75670,0.00893
2591.69652,0.00906
2589.63635,0.00895
2587.57618,0.00861
2585.51601,0.00794
2583.45583,0.00732
2581.39566,0.00758
2579.33549,0.00829
2577.27532,0.00862
2575.21515,0.00876
2573.15497,0.00882
2571.09480,0.00869
2569.03463,0.00856
2566.97446,0.00837
2564.91429,0.00813
2562.85411,0.00833
2560.79394,0.00868
2558.73377,0.00857
2556.67360,0.00846
2554.61342,0.00841
2552.55325,0.00804
2550.49308,0.00772
2548.43291,0.00771
2546.37274,0.00774
2544.31256,0.00784
2542.25239,0.00802
2540.19222,0.00806
2538.13205,0.00814
2536.07188,0.00848
2534.01170,0.00849
2531.95153,0.00789
2529.89136,0.00757
2527.83119,0.00785
2525.77102,0.00791
2523.71084,0.00776
2521.65067,0.00808
2519.59050,0.00865
2517.53033,0.00877
2515.47015,0.00837
2513.40998,0.00781
2511.34981,0.00753
2509.28964,0.00784
2507.22947,0.00850
2505.16929,0.00865
2503.10912,0.00822
2501.04895,0.00793
2498.98878,0.00797
2496.92861,0.00799
2494.86843,0.00796
2492.80826,0.00820
2490.74809,0.00862
2488.68792,0.00876
2486.62775,0.00875
2484.56757,0.00887
2482.50740,0.00895
2480.44723,0.00895
2478.38706,0.00898
2476.32688,0.00889
2474.26671,0.00867
2472.20654,0.00849
2470.14637,0.00851
2468.08620,0.00877
2466.02602,0.00905
2463.96585,0.00909
2461.90568,0.00894
2459.84551,0.00874
2457.78534,0.00868
2455.72516,0.00891
2453.66499,0.00936
2451.60482,0.00971
2449.54465,0.00977
2447.48447,0.00991
2445.42430,0.01003
2443.36413,0.00957
2441.30396,0.00886
2439.24379,0.00857
2437.18361,0.00869
2435.12344,0.00914
2433.06327,0.00964
2431.00310,0.00963
2428.94293,0.00922
2426.88275,0.00905
2424.82258,0.00930
2422.76241,0.00948
2420.70224,0.00921
2418.64207,0.00887
2416.58189,0.00888
2414.52172,0.00910
2412.46155,0.00931
2410.40138,0.00937
2408.34120,0.00945
2406.28103,0.00950
2404.22086,0.00911
2402.16069,0.00856
2400.10052,0.00831
2398.04034,0.00838
2395.98017,0.00869
2393.92000,0.00888
2391.85983,0.00893
2389.79966,0.00910
2387.73948,0.00934
2385.67931,0.00953
2383.61914,0.00949
2381.55897,0.00905
2379.49880,0.00853
2377.43862,0.00851
2375.37845,0.00873
2373.31828,0.00851
2371.25811,0.00733
2369.19793,0.00542
2367.13776,0.00437
2365.07759,0.00568
2363.01742,0.00824
2360.95725,0.01031
2358.89707,0.01052
2356.83690,0.01015
2354.77673,0.00953
2352.71656,0.00877
2350.65639,0.00938
2348.59621,0.01042
2346.53604,0.01000
2344.47587,0.01017
2342.41570,0.01004
2340.35552,0.00964
2338.29535,0.00952
2336.23518,0.00966
2334.17501,0.01020
2332.11484,0.01053
2330.05466,0.01055
2327.99449,0.01015
2325.93432,0.00991
2323.87415,0.01012
2321.81398,0.01074
2319.75380,0.01064
2317.69363,0.01032
2315.63346,0.00984
2313.57329,0.00927
2311.51312,0.00896
2309.45294,0.00871
2307.39277,0.00848
2305.33260,0.00857
2303.27243,0.00869
2301.21225,0.00857
2299.15208,0.00865
2297.09191,0.00899
2295.03174,0.00926
2292.97157,0.00918
2290.91139,0.00912
2288.85122,0.00938
2286.79105,0.00942
2284.73088,0.00905
2282.67071,0.00883
2280.61053,0.00858
2278.55036,0.00799
2276.49019,0.00753
2274.43002,0.00739
2272.36984,0.00716
2270.30967,0.00686
2268.24950,0.00674
2266.18933,0.00687
2264.12916,0.00713
2262.06898,0.00747
2260.00881,0.00782
2257.94864,0.00802
2255.88847,0.00795
2253.82830,0.00754
2251.76812,0.00708
2249.70795,0.00692
2247.64778,0.00673
2245.58761,0.00601
2243.52744,0.00568
2241.46726,0.00636
2239.40709,0.00708
2237.34692,0.00730
2235.28675,0.00736
2233.22657,0.00699
2231.16640,0.00629
2229.10623,0.00598
2227.04606,0.00601
2224.98589,0.00599
2222.92571,0.00622
2220.86554,0.00657
2218.80537,0.00582
2216.74520,0.00493
2214.68503,0.00570
2212.62485,0.00701
2210.56468,0.00718
2208.50451,0.00701
2206.44434,0.00713
2204.38417,0.00640
2202.32399,0.00550
2200.26382,0.00556
2198.20365,0.00578
2196.14348,0.00534
2194.08330,0.00440
2192.02313,0.00378
2189.96296,0.00410
2187.90279,0.00494
2185.84262,0.00496
2183.78244,0.00420
2181.72227,0.00354
2179.66210,0.00296
2177.60193,0.00281
2175.54176,0.00357
2173.48158,0.00439
2171.42141,0.00462
2169.36124,0.00522
2167.30107,0.00623
2165.24089,0.00610
2163.18072,0.00478
2161.12055,0.00315
2159.06038,0.00128
2157.00021,0.00068
2154.94003,0.00214
2152.87986,0.00348
2150.81969,0.00381
2148.75952,0.00428
2146.69935,0.00436
2144.63917,0.00312
2142.57900,0.00219
2140.51883,0.00269
2138.45866,0.00368
2136.39849,0.00398
2134.33831,0.00340
2132.27814,0.00244
2130.21797,0.00154
2128.15780,0.00154
2126.09762,0.00257
2124.03745,0.00331
2121.97728,0.00314
2119.91711,0.00271
2117.85694,0.00296
2115.79676,0.00409
2113.73659,0.00507
2111.67642,0.00521
2109.61625,0.00522
2107.55608,0.00539
2105.49590,0.00533
2103.43573,0.00538
2101.37556,0.00537
2099.31539,0.00482
2097.25521,0.00452
2095.19504,0.00466
2093.13487,0.00427
2091.07470,0.00352
2089.01453,0.00368
2086.95435,0.00446
2084.89418,0.00470
2082.83401,0.00422
2080.77384,0.00362
2078.71367,0.00307
2076.65349,0.00225
2074.59332,0.00199
2072.53315,0.00283
2070.47298,0.00302
2068.41281,0.00201
2066.35263,0.00180
2064.29246,0.00284
2062.23229,0.00355
2060.17212,0.00342
2058.11194,0.00331
2056.05177,0.00364
2053.99160,0.00405
2051.93143,0.00398
2049.87126,0.00352
2047.81108,0.00296
2045.75091,0.00201
2043.69074,0.00144
2041.63057,0.00173
2039.57040,0.00232
2037.51022,0.00258
2035.45005,0.00205
2033.38988,0.00169
2031.32971,0.00243
2029.26954,0.00289
2027.20936,0.00184
2025.14919,0.00042
2023.08902,0.00033
2021.02885,0.00121
2018.96867,0.00169
2016.90850,0.00241
2014.84833,0.00398
2012.78816,0.00481
2010.72799,0.00408
2008.66781,0.00249
2006.60764,0.00174
2004.54747,0.00304
2002.48730,0.00427
2000.42713,0.00381
1998.36695,0.00310
1996.30678,0.00259
1994.24661,0.00221
1992.18644,0.00315
1990.12626,0.00504
1988.06609,0.00588
1986.00592,0.00525
1983.94575,0.00435
1981.88558,0.00378
1979.82540,0.00305
1977.76523,0.00152
1975.70506,0.00000
1973.64489,0.00022
1971.58472,0.00116
1969.52454,0.00100
1967.46437,0.00122
1965.40420,0.00280
1963.34403,0.00347
1961.28386,0.00250
1959.22368,0.00191
1957.16351,0.00247
1955.10334,0.00304
1953.04317,0.00262
1950.98299,0.00141
1948.92282,0.00075
1946.86265,0.00111
1944.80248,0.00146
1942.74231,0.00144
1940.68213,0.00139
1938.62196,0.00121
1936.56179,0.00126
1934.50162,0.00192
1932.44145,0.00221
1930.38127,0.00173
1928.32110,0.00128
1926.26093,0.00134
1924.20076,0.00202
1922.14059,0.00275
1920.08041,0.00278
1918.02024,0.00246
1915.96007,0.00238
1913.89990,0.00259
1911.83972,0.00278
1909.77955,0.00277
1907.71938,0.00250
1905.65921,0.00200
1903.59904,0.00162
1901.53886,0.00174
1899.47869,0.00219
1897.41852,0.00244
1895.35835,0.00253
1893.29818,0.00280
1891.23800,0.00292
1889.17783,0.00271
1887.11766,0.00255
1885.05749,0.00260
1882.99731,0.00271
1880.93714,0.00281
1878.87697,0.00285
1876.81680,0.00283
1874.75663,0.00285
1872.69645,0.00286
1870.63628,0.00278
1868.57611,0.00295
1866.51594,0.00338
1864.45577,0.00345
1862.39559,0.00318
1860.33542,0.00305
1858.27525,0.00318
1856.21508,0.00328
1854.15491,0.00319
1852.09473,0.00310
1850.03456,0.00322
1847.97439,0.00339
1845.91422,0.00336
1843.85404,0.00318
1841.79387,0.00308
1839.73370,0.00305
1837.67353,0.00323
1835.61336,0.00373
1833.55318,0.00417
1831.49301,0.00413
1829.43284,0.00374
1827.37267,0.00340
1825.31250,0.00330
1823.25232,0.00333
1821.19215,0.00317
1819.13198,0.00291
1817.07181,0.00286
1815.01163,0.00311
1812.95146,0.00350
1810.89129,0.00386
1808.83112,0.00389
1806.77095,0.00352
1804.71077,0.00328
1802.65060,0.00349
1800.59043,0.00385
1798.53026,0.00394
1796.47009,0.00367
1794.40991,0.00329
1792.34974,0.00322
1790.28957,0.00351
1788.22940,0.00378
1786.16923,0.00388
1784.10905,0.00398
1782.04888,0.00411
1779.98871,0.00414
1777.92854,0.00402
1775.86836,0.00379
1773.80819,0.00347
1771.74802,0.00337
1769.68785,0.00362
1767.62768,0.00388
1765.56750,0.00396
1763.50733,0.00394
1761.44716,0.00400
1759.38699,0.00426
1757.32682,0.00462
1755.26664,0.00473
1753.20647,0.00457
1751.14630,0.00455
1749.08613,0.00481
1747.02596,0.00501
1744.96578,0.00517
1742.90561,0.00548
1740.84544,0.00584
1738.78527,0.00599
1736.72509,0.00582
1734.66492,0.00546
1732.60475,0.00521
1730.54458,0.00525
1728.48441,0.00561
1726.42423,0.00613
1724.36406,0.00645
1722.30389,0.00643
1720.24372,0.00638
1718.18355,0.00674
1716.12337,0.00729
1714.06320,0.00762
1712.00303,0.00775
1709.94286,0.00776
1707.88268,0.00775
1705.82251,0.00792
1703.76234,0.00814
1701.70217,0.00823
1699.64200,0.00836
1697.58182,0.00870
1695.52165,0.00921
1693.46148,0.00969
1691.40131,0.01003
1689.34114,0.01040
1687.28096,0.01081
1685.22079,0.01113
1683.16062,0.01138
1681.10045,0.01157
1679.04028,0.01168
1676.98010,0.01173
1674.91993,0.01178
1672.85976,0.01199
1670.79959,0.01261
1668.73941,0.01347
1666.67924,0.01382
1664.61907,0.01369
1662.55890,0.01370
1660.49873,0.01391
1658.43855,0.01404
1656.37838,0.01414
1654.31821,0.01451
1652.25804,0.01495
1650.19787,0.01491
1648.13769,0.01467
1646.07752,0.01475
1644.01735,0.01498
1641.95718,0.01500
1639.89701,0.01483
1637.83683,0.01451
1635.77666,0.01409
1633.71649,0.01374
1631.65632,0.01353
1629.59614,0.01334
1627.53597,0.01314
1625.47580,0.01300
1623.41563,0.01290
1621.35546,0.01269
1619.29528,0.01240
1617.23511,0.01211
1615.17494,0.01176
1613.11477,0.01134
1611.05460,0.01111
1608.99442,0.01110
1606.93425,0.01107
1604.87408,0.01090
1602.81391,0.01054
1600.75373,0.01004
1598.69356,0.00953
1596.63339,0.00912
1594.57322,0.00889
1592.51305,0.00876
1590.45287,0.00860
1588.39270,0.00839
1586.33253,0.00812
1584.27236,0.00775
1582.21219,0.00736
1580.15201,0.00707
1578.09184,0.00692
1576.03167,0.00674
1573.97150,0.00637
1571.91133,0.00600
1569.85115,0.00580
1567.79098,0.00569
1565.73081,0.00550
1563.67064,0.00518
1561.61046,0.00473
1559.55029,0.00442
1557.49012,0.00452
1555.42995,0.00464
1553.36978,0.00450
1551.30960,0.00433
1549.24943,0.00422
1547.18926,0.00406
1545.12909,0.00379
1543.06892,0.00360
1541.00874,0.00363
1538.94857,0.00365
1536.88840,0.00345
1534.82823,0.00333
1532.76805,0.00340
1530.70788,0.00338
1528.64771,0.00321
1526.58754,0.00310
1524.52737,0.00301
1522.46719,0.00278
1520.40702,0.00246
1518.34685,0.00218
1516.28668,0.00205
1514.22651,0.00202
1512.16633,0.00189
1510.10616,0.00167
1508.04599,0.00161
1505.98582,0.00185
1503.92565,0.00201
1501.86547,0.00197
1499.80530,0.00183
1497.74513,0.00174
1495.68496,0.00173
1493.62478,0.00166
1491.56461,0.00159
1489.50444,0.00170
1487.44427,0.00189
1485.38410,0.00184
1483.32392,0.00161
1481.26375,0.00149
1479.20358,0.00168
1477.14341,0.00202
1475.08324,0.00225
1473.02306,0.00233
1470.96289,0.00230
1468.90272,0.00214
1466.84255,0.00194
1464.78238,0.00189
1462.72220,0.00208
1460.66203,0.00227
1458.60186,0.00225
1456.54169,0.00226
1454.48151,0.00241
1452.42134,0.00242
1450.36117,0.00220
1448.30100,0.00196
1446.24083,0.00187
1444.18065,0.00185
1442.12048,0.00183
1440.06031,0.00178
1438.00014,0.00166
1435.93997,0.00156
1433.87979,0.00155
1431.81962,0.00167
1429.75945,0.00180
1427.69928,0.00178
1425.63910,0.00167
1423.57893,0.00171
1421.51876,0.00192
1419.45859,0.00209
1417.39842,0.00208
1415.33824,0.00204
1413.27807,0.00211
1411.21790,0.00219
1409.15773,0.00219
1407.09756,0.00214
1405.03738,0.00207
1402.97721,0.00202
1400.91704,0.00199
1398.85687,0.00193
1396.79670,0.00179
1394.73652,0.00164
1392.67635,0.00163
1390.61618,0.00167
1388.55601,0.00167
1386.49583,0.00165
1384.43566,0.00161
1382.37549,0.00156
1380.31532,0.00155
1378.25515,0.00159
1376.19497,0.00164
1374.13480,0.00171
1372.07463,0.00172
1370.01446,0.00166
1367.95429,0.00161
1365.89411,0.00159
1363.83394,0.00154
1361.77377,0.00140
1359.71360,0.00115
1357.65343,0.00095
1355.59325,0.00086
1353.53308,0.00086
1351.47291,0.00095
1349.41274,0.00108
1347.35256,0.00101
1345.29239,0.00077
1343.23222,0.00068
1341.17205,0.00088
1339.11188,0.00114
1337.05170,0.00114
1334.99153,0.00103
1332.93136,0.00100
1330.87119,0.00102
1328.81102,0.00098
1326.75084,0.00088
1324.69067,0.00082
1322.63050,0.00081
1320.57033,0.00077
1318.51015,0.00065
1316.44998,0.00064
1314.38981,0.00086
1312.32964,0.00115
1310.26947,0.00124
1308.20929,0.00105
1306.14912,0.00084
1304.08895,0.00092
1302.02878,0.00115
1299.96861,0.00125
1297.90843,0.00124
1295.84826,0.00130
1293.78809,0.00137
1291.72792,0.00139
1289.66775,0.00149
1287.60757,0.00169
1285.54740,0.00184
1283.48723,0.00185
1281.42706,0.00188
1279.36688,0.00205
1277.30671,0.00224
1275.24654,0.00238
1273.18637,0.00241
1271.12620,0.00230
1269.06602,0.00217
1267.00585,0.00210
1264.94568,0.00214
1262.88551,0.00232
1260.82534,0.00242
1258.76516,0.00241
1256.70499,0.00240
1254.64482,0.00242
1252.58465,0.00244
1250.52447,0.00234
1248.46430,0.00208
1246.40413,0.00193
1244.34396,0.00194
1242.28379,0.00184
1240.22361,0.00162
1238.16344,0.00153
1236.10327,0.00157
1234.04310,0.00152
1231.98293,0.00130
1229.92275,0.00106
1227.86258,0.00095
1225.80241,0.00101
1223.74224,0.00105
1221.68207,0.00097
1219.62189,0.00089
1217.56172,0.00071
1215.50155,0.00037
1213.44138,0.00008
1211.38120,0.00000
1209.32103,-0.00001
1207.26086,0.00004
1205.20069,0.00012
1203.14052,0.00021
1201.08034,0.00037
1199.02017,0.00051
1196.96000,0.00056
1194.89983,0.00058
1192.83966,0.00060
1190.77948,0.00071
1188.71931,0.00103
1186.65914,0.00152
1184.59897,0.00212
1182.53880,0.00270
1180.47862,0.00325
1178.41845,0.00388
1176.35828,0.00457
1174.29811,0.00529
1172.23793,0.00601
1170.17776,0.00662
1168.11759,0.00714
1166.05742,0.00784
1163.99725,0.00882
1161.93707,0.00976
1159.87690,0.01038
1157.81673,0.01074
1155.75656,0.01115
1153.69639,0.01176
1151.63621,0.01254
1149.57604,0.01334
1147.51587,0.01419
1145.45570,0.01522
1143.39552,0.01623
1141.33535,0.01707
1139.27518,0.01792
1137.21501,0.01883
1135.15484,0.01983
1133.09466,0.02106
1131.03449,0.02228
1128.97432,0.02324
1126.91415,0.02407
1124.85398,0.02507
1122.79380,0.02636
1120.73363,0.02759
1118.67346,0.02857
1116.61329,0.02969
1114.55312,0.03109
1112.49294,0.03242
1110.43277,0.03344
1108.37260,0.03427
1106.31243,0.03523
1104.25225,0.03643
1102.19208,0.03763
1100.13191,0.03861
1098.07174,0.03947
1096.01157,0.04042
1093.95139,0.04144
1091.89122,0.04247
1089.83105,0.04342
1087.77088,0.04418
1085.71071,0.04492
1083.65053,0.04576
1081.59036,0.04642
1079.53019,0.04691
1077.47002,0.04741
1075.40985,0.04789
1073.34967,0.04841
1071.28950,0.04898
1069.22933,0.04928
1067.16916,0.04911
1065.10898,0.04876
1063.04881,0.04849
1060.98864,0.04810
1058.92847,0.04744
1056.86830,0.04663
1054.80812,0.04595
1052.74795,0.04549
1050.68778,0.04493
1048.62761,0.04401
1046.56744,0.04276
1044.50726,0.04131
1042.44709,0.03974
1040.38692,0.03820
1038.32675,0.03687
1036.26657,0.03568
1034.20640,0.03440
1032.14623,0.03312
1030.08606,0.03203
1028.02589,0.03094
1025.96571,0.03000
1023.90554,0.02941
1021.84537,0.02865
1019.78520,0.02774
1017.72503,0.02707
1015.66485,0.02646
1013.60468,0.02583
1011.54451,0.02548
1009.48434,0.02544
1007.42417,0.02552
1005.36399,0.02561
1003.30382,0.02576
1001.24365,0.02624
999.18348,0.02708
997.12330,0.02789
995.06313,0.02877
993.00296,0.02992
990.94279,0.03079
988.88262,0.03106
986.82244,0.03129
984.76227,0.03177
982.70210,0.03206
980.64193,0.03189
978.58176,0.03156
976.52158,0.03109
974.46141,0.03024
972.40124,0.02915
970.34107,0.02799
968.28089,0.02671
966.22072,0.02518
964.16055,0.02360
962.10038,0.02242
960.04021,0.02159
957.98003,0.02074
955.91986,0.01969
953.85969,0.01864
951.79952,0.01792
949.73935,0.01763
947.67917,0.01756
945.61900,0.01734
943.55883,0.01682
941.49866,0.01633
939.43849,0.01633
937.37831,0.01662
935.31814,0.01665
933.25797,0.01639
931.19780,0.01602
929.13762,0.01570
927.07745,0.01554
925.01728,0.01542
922.95711,0.01515
920.89694,0.01469
918.83676,0.01413
916.77659,0.01343
914.71642,0.01280
912.65625,0.01255
910.59608,0.01241
908.53590,0.01219
906.47573,0.01218
904.41556,0.01227
902.35539,0.01232
900.29522,0.01236
898.23504,0.01234
896.17487,0.01211
894.11470,0.01185
892.05453,0.01200
889.99435,0.01241
887.93418,0.01262
885.87401,0.01282
883.81384,0.01344
881.75367,0.01419
879.69349,0.01453
877.63332,0.01450
875.57315,0.01453
873.51298,0.01504
871.45281,0.01590
869.39263,0.01641
867.33246,0.01639
865.27229,0.01614
863.21212,0.01576
861.15194,0.01582
859.09177,0.01627
857.03160,0.01616
854.97143,0.01570
852.91126,0.01539
850.85108,0.01487
848.79091,0.01429
846.73074,0.01408
844.67057,0.01382
842.61040,0.01322
840.55022,0.01249
838.49005,0.01174
836.42988,0.01100
834.36971,0.01034
832.30954,0.00967
830.24936,0.00910
828.18919,0.00882
826.12902,0.00878
824.06885,0.00866
822.00867,0.00823
819.94850,0.00771
817.88833,0.00732
815.82816,0.00690
813.76799,0.00625
811.70781,0.00565
809.64764,0.00546
807.58747,0.00549
805.52730,0.00555
803.46713,0.00542
801.40695,0.00485
799.34678,0.00416
797.28661,0.00392
795.22644,0.00414
793.16627,0.00459
791.10609,0.00512
789.04592,0.00517
786.98575,0.00466
784.92558,0.00415
782.86540,0.00385
780.80523,0.00393
778.74506,0.00442
776.68489,0.00498
774.62472,0.00512
772.56454,0.00437
770.50437,0.00330
768.44420,0.00306
766.38403,0.00355
764.32386,0.00397
762.26368,0.00376
760.20351,0.00320
758.14334,0.00301
756.08317,0.00320
754.02299,0.00353
751.96282,0.00387
749.90265,0.00387
747.84248,0.00322
745.78231,0.00248
743.72213,0.00275
741.66196,0.00363
739.60179,0.00346
737.54162,0.00250
735.48145,0.00220
733.42127,0.00239
731.36110,0.00263
729.30093,0.00307
727.24076,0.00307
725.18059,0.00262
723.12041,0.00307
721.06024,0.00381
719.00007,0.00414
716.93990,0.00364
714.87972,0.00292
712.81955,0.00250
710.75938,0.00260
708.69921,0.00310
706.63904,0.00347
704.57886,0.00359
702.51869,0.00338
700.45852,0.00264
698.39835,0.00224
696.33818,0.00282
694.27800,0.00320
692.21783,0.00257
690.15766,0.00179
688.09749,0.00170
686.03731,0.00218
683.97714,0.00234
681.91697,0.00172
679.85680,0.00108
677.79663,0.00116
675.73645,0.00164
673.67628,0.00213
671.61611,0.00232
669.55594,0.00050
667.49577,0.00000
665.43559,0.00387
663.37542,0.00363
661.31525,0.00312
659.25508,0.00393
657.19491,0.00449
655.13473,0.00465
653.07456,0.00504
651.01439,0.00497
648.95422,0.00420
646.89404,0.00383
644.83387,0.00391
642.77370,0.00381
640.71353,0.00281
638.65336,0.00105
636.59318,0.00000
634.53301,0.00030
632.47284,0.00134
630.41267,0.00191
628.35250,0.00162
626.29232,0.00123
624.23215,0.00055
622.17198,-0.00026
620.11181,0.00059
618.05164,0.00213
615.99146,0.00198
613.93129,0.00007
611.87112,-0.00111
609.81095,-0.00054
607.75077,0.00006
605.69060,-0.00016
603.63043,-0.00016
601.57026,0.00035
599.51009,0.00000
