3996.73391,0.00077
3994.67373,0.00076
3992.61356,0.00069
3990.55339,0.00048
3988.49322,0.00027
3986.43305,0.00024
3984.37287,0.00032
3982.31270,0.00028
3980.25253,0.00035
3978.19236,0.00062
3976.13219,0.00080
3974.07201,0.00089
3972.01184,0.00080
3969.95167,0.00044
3967.89150,0.00009
3965.83133,0.00000
3963.77115,0.00014
3961.71098,0.00044
3959.65081,0.00078
3957.59064,0.00095
3955.53046,0.00076
3953.47029,0.00051
3951.41012,0.00063
3949.34995,0.00101
3947.28978,0.00115
3945.22960,0.00099
3943.16943,0.00091
3941.10926,0.00104
3939.04909,0.00118
3936.98892,0.00102
3934.92874,0.00057
3932.86857,0.00031
3930.80840,0.00070
3928.74823,0.00136
3926.68805,0.00156
3924.62788,0.00127
3922.56771,0.00101
3920.50754,0.00107
3918.44737,0.00115
3916.38719,0.00096
3914.32702,0.00071
3912.26685,0.00062
3910.20668,0.00051
3908.14651,0.00044
3906.08633,0.00060
3904.02616,0.00064
3901.96599,0.00032
3899.90582,0.00039
3897.84565,0.00099
3895.78547,0.00111
3893.72530,0.00051
3891.66513,0.00000
3889.60496,0.00021
3887.54478,0.00092
3885.48461,0.00167
3883.42444,0.00206
3881.36427,0.00189
3879.30410,0.00137
3877.24392,0.00085
3875.18375,0.00054
3873.12358,0.00053
3871.06341,0.00077
3869.00324,0.00103
3866.94306,0.00102
3864.88289,0.00086
3862.82272,0.00092
3860.76255,0.00125
3858.70237,0.00146
3856.64220,0.00137
3854.58203,0.00137
3852.52186,0.00158
3850.46169,0.00156
3848.40151,0.00123
3846.34134,0.00074
3844.28117,0.00036
3842.22100,0.00046
3840.16083,0.00102
3838.10065,0.00166
3836.04048,0.00200
3833.98031,0.00191
3831.92014,0.00172
3829.85997,0.00157
3827.79979,0.00136
3825.73962,0.00108
3823.67945,0.00092
3821.61928,0.00101
3819.55910,0.00117
3817.49893,0.00099
3815.43876,0.00062
3813.37859,0.00041
3811.31842,0.00036
3809.25824,0.00037
3807.19807,0.00063
3805.13790,0.00110
3803.07773,0.00143
3801.01756,0.00131
3798.95738,0.00062
3796.89721,0.00010
3794.83704,0.00038
3792.77687,0.00101
3790.71670,0.00133
3788.65652,0.00111
3786.59635,0.00065
3784.53618,0.00039
3782.47601,0.00038
3780.41583,0.00056
3778.35566,0.00090
3776.29549,0.00116
3774.23532,0.00119
3772.17515,0.00113
3770.11497,0.00108
3768.05480,0.00104
3765.99463,0.00108
3763.93446,0.00120
3761.87429,0.00115
3759.81411,0.00083
3757.75394,0.00061
3755.69377,0.00072
3753.63360,0.00090
3751.57342,0.00095
3749.51325,0.00126
3747.45308,0.00178
3745.39291,0.00212
3743.33274,0.00204
3741.27256,0.00139
3739.21239,0.00065
3737.15222,0.00056
3735.09205,0.00126
3733.03188,0.00177
3730.97170,0.00164
3728.91153,0.00130
3726.85136,0.00098
3724.79119,0.00056
3722.73102,0.00030
3720.67084,0.00061
3718.61067,0.00111
3716.55050,0.00144
3714.49033,0.00141
3712.43015,0.00119
3710.36998,0.00146
3708.30981,0.00191
3706.24964,0.00186
3704.18947,0.00135
3702.12929,0.00078
3700.06912,0.00044
3698.00895,0.00041
3695.94878,0.00070
3693.88861,0.00121
3691.82843,0.00181
3689.76826,0.00212
3687.70809,0.00196
3685.64792,0.00140
3683.58775,0.00090
3681.52757,0.00075
3679.46740,0.00087
3677.40723,0.00117
3675.34706,0.00183
3673.28688,0.00241
3671.22671,0.00259
3669.16654,0.00288
3667.10637,0.00317
3665.04620,0.00311
3662.98602,0.00302
3660.92585,0.00318
3658.86568,0.00340
3656.80551,0.00346
3654.74534,0.00355
3652.68516,0.00388
3650.62499,0.00443
3648.56482,0.00484
3646.50465,0.00491
3644.44447,0.00492
3642.38430,0.00518
3640.32413,0.00550
3638.26396,0.00531
3636.20379,0.00481
3634.14361,0.00492
3632.08344,0.00557
3630.02327,0.00617
3627.96310,0.00686
3625.90293,0.00729
3623.84275,0.00733
3621.78258,0.00748
3619.72241,0.00799
3617.66224,0.00836
3615.60207,0.00823
3613.54189,0.00849
3611.48172,0.00931
3609.42155,0.01000
3607.36138,0.01040
3605.30120,0.01071
3603.24103,0.01093
3601.18086,0.01083
3599.12069,0.01072
3597.06052,0.01103
3595.00034,0.01188
3592.94017,0.01260
3590.88000,0.01300
3588.81983,0.01343
3586.75966,0.01393
3584.69948,0.01412
3582.63931,0.01412
3580.57914,0.01417
3578.51897,0.01450
3576.45879,0.01513
3574.39862,0.01568
3572.33845,0.01586
3570.27828,0.01600
3568.21811,0.01668
3566.15793,0.01751
3564.09776,0.01755
3562.03759,0.01717
3559.97742,0.01720
3557.91725,0.01762
3555.85707,0.01792
3553.79690,0.01815
3551.73673,0.01846
3549.67656,0.01867
3547.61639,0.01882
3545.55621,0.01906
3543.49604,0.01943
3541.43587,0.01988
3539.37570,0.02030
3537.31552,0.02072
3535.25535,0.02132
3533.19518,0.02193
3531.13501,0.02225
3529.07484,0.02234
3527.01466,0.02224
3524.95449,0.02197
3522.89432,0.02188
3520.83415,0.02206
3518.77398,0.02245
3516.71380,0.02312
3514.65363,0.02397
3512.59346,0.02472
3510.53329,0.02528
3508.47312,0.02575
3506.41294,0.02612
3504.35277,0.02642
3502.29260,0.02661
3500.23243,0.02661
3498.17225,0.02660
3496.11208,0.02690
3494.05191,0.02740
3491.99174,0.02781
3489.93157,0.02803
3487.87139,0.02813
3485.81122,0.02825
3483.75105,0.02851
3481.69088,0.02875
3479.63071,0.02891
3477.57053,0.02922
3475.51036,0.02970
3473.45019,0.03006
3471.39002,0.03031
3469.32984,0.03058
3467.26967,0.03088
3465.20950,0.03120
3463.14933,0.03133
3461.08916,0.03119
3459.02898,0.03114
3456.96881,0.03142
3454.90864,0.03191
3452.84847,0.03251
3450.78830,0.03306
3448.72812,0.03324
3446.66795,0.03302
3444.60778,0.03284
3442.54761,0.03303
3440.48744,0.03341
3438.42726,0.03378
3436.36709,0.03408
3434.30692,0.03427
3432.24675,0.03447
3430.18657,0.03463
3428.12640,0.03473
3426.06623,0.03493
3424.00606,0.03514
3421.94589,0.03543
3419.88571,0.03574
3417.82554,0.03569
3415.76537,0.03561
3413.70520,0.03589
3411.64503,0.03614
3409.58485,0.03616
3407.52468,0.03628
3405.46451,0.03645
3403.40434,0.03661
3401.34416,0.03687
3399.28399,0.03718
3397.22382,0.03753
3395.16365,0.03791
3393.10348,0.03807
3391.04330,0.03788
3388.98313,0.03772
3386.92296,0.03773
3384.86279,0.03775
3382.80262,0.03795
3380.74244,0.03837
3378.68227,0.03861
3376.62210,0.03854
3374.56193,0.03866
3372.50176,0.03909
3370.44158,0.03943
3368.38141,0.03951
3366.32124,0.03942
3364.26107,0.03936
3362.20089,0.03952
3360.14072,0.03968
3358.08055,0.03965
3356.02038,0.03958
3353.96021,0.03945
3351.90003,0.03928
3349.83986,0.03934
3347.77969,0.03955
3345.71952,0.03978
3343.65935,0.04005
3341.59917,0.04020
3339.53900,0.04014
3337.47883,0.04011
3335.41866,0.04024
3333.35849,0.04034
3331.29831,0.04051
3329.23814,0.04066
3327.17797,0.04059
3325.11780,0.04046
3323.05762,0.04036
3320.99745,0.04024
3318.93728,0.04028
3316.87711,0.04042
3314.81694,0.04076
3312.75676,0.04133
3310.69659,0.04167
3308.63642,0.04175
3306.57625,0.04175
3304.51608,0.04151
3302.45590,0.04115
3300.39573,0.04101
3298.33556,0.04096
3296.27539,0.04095
3294.21521,0.04108
3292.15504,0.04119
3290.09487,0.04125
3288.03470,0.04124
3285.97453,0.04094
3283.91435,0.04067
3281.85418,0.04075
3279.79401,0.04095
3277.73384,0.04109
3275.67367,0.04127
3273.61349,0.04144
3271.55332,0.04149
3269.49315,0.04144
3267.43298,0.04138
3265.37281,0.04137
3263.31263,0.04140
3261.25246,0.04149
3259.19229,0.04156
3257.13212,0.04164
3255.07194,0.04174
3253.01177,0.04160
3250.95160,0.04128
3248.89143,0.04118
3246.83126,0.04128
3244.77108,0.04136
3242.71091,0.04128
3240.65074,0.04110
3238.59057,0.04119
3236.53040,0.04150
3234.47022,0.04157
3232.41005,0.04150
3230.34988,0.04144
3228.28971,0.04134
3226.22954,0.04139
3224.16936,0.04141
3222.10919,0.04114
3220.04902,0.04078
3217.98885,0.04064
3215.92867,0.04082
3213.86850,0.04117
3211.80833,0.04140
3209.74816,0.04143
3207.68799,0.04141
3205.62781,0.04134
3203.56764,0.04122
3201.50747,0.04128
3199.44730,0.04139
3197.38713,0.04127
3195.32695,0.04100
3193.26678,0.04084
3191.20661,0.04077
3189.14644,0.04059
3187.08626,0.04033
3185.02609,0.04011
3182.96592,0.04004
3180.90575,0.04007
3178.84558,0.04032
3176.78540,0.04062
3174.72523,0.04049
3172.66506,0.04006
3170.60489,0.03967
3168.54472,0.03932
3166.48454,0.03925
3164.42437,0.03960
3162.36420,0.03977
3160.30403,0.03954
3158.24386,0.03934
3156.18368,0.03918
3154.12351,0.03898
3152.06334,0.03898
3150.00317,0.03911
3147.94299,0.03903
3145.88282,0.03890
3143.82265,0.03888
3141.76248,0.03875
3139.70231,0.03846
3137.64213,0.03811
3135.58196,0.03773
3133.52179,0.03755
3131.46162,0.03777
3129.40145,0.03793
3127.34127,0.03751
3125.28110,0.03683
3123.22093,0.03663
3121.16076,0.03697
3119.10058,0.03713
3117.04041,0.03697
3114.98024,0.03672
3112.92007,0.03639
3110.85990,0.03617
3108.79972,0.03603
3106.73955,0.03579
3104.67938,0.03558
3102.61921,0.03542
3100.55904,0.03523
3098.49886,0.03514
3096.43869,0.03514
3094.37852,0.03503
3092.31835,0.03479
3090.25818,0.03469
3088.19800,0.03475
3086.13783,0.03467
3084.07766,0.03440
3082.01749,0.03417
3079.95731,0.03407
3077.89714,0.03399
3075.83697,0.03374
3073.77680,0.03348
3071.71663,0.03339
3069.65645,0.03323
3067.59628,0.03286
3065.53611,0.03259
3063.47594,0.03256
3061.41577,0.03258
3059.35559,0.03251
3057.29542,0.03235
3055.23525,0.03220
3053.17508,0.03217
3051.11491,0.03198
3049.05473,0.03142
3046.99456,0.03084
3044.93439,0.03070
3042.87422,0.03084
3040.81404,0.03089
3038.75387,0.03065
3036.69370,0.03027
3034.63353,0.03012
3032.57336,0.03004
3030.51318,0.02968
3028.45301,0.02937
3026.39284,0.02939
3024.33267,0.02935
3022.27250,0.02895
3020.21232,0.02855
3018.15215,0.02853
3016.09198,0.02871
3014.03181,0.02855
3011.97163,0.02812
3009.91146,0.02793
3007.85129,0.02803
3005.79112,0.02794
3003.73095,0.02750
3001.67077,0.02723
2999.61060,0.02729
2997.55043,0.02718
2995.49026,0.02672
2993.43009,0.02645
2991.36991,0.02657
2989.30974,0.02659
2987.24957,0.02633
2985.18940,0.02618
2983.12923,0.02621
2981.06905,0.02614
2979.00888,0.02607
2976.94871,0.02599
2974.88854,0.02568
2972.82836,0.02545
2970.76819,0.02564
2968.70802,0.02589
2966.64785,0.02583
2964.58768,0.02557
2962.52750,0.02532
2960.46733,0.02519
2958.40716,0.02518
2956.34699,0.02514
2954.28682,0.02501
2952.22664,0.02489
2950.16647,0.02489
2948.10630,0.02492
2946.04613,0.02497
2943.98596,0.02511
2941.92578,0.02508
2939.86561,0.02484
2937.80544,0.02463
2935.74527,0.02432
2933.68509,0.02409
2931.62492,0.02413
2929.56475,0.02413
2927.50458,0.02397
2925.44441,0.02367
2923.38423,0.02342
2921.32406,0.02341
2919.26389,0.02352
2917.20372,0.02366
2915.14355,0.02361
2913.08337,0.02329
2911.02320,0.02298
2908.96303,0.02277
2906.90286,0.02262
2904.84268,0.02266
2902.78251,0.02278
2900.72234,0.02267
2898.66217,0.02242
2896.60200,0.02232
2894.54182,0.02241
2892.48165,0.02251
2890.42148,0.02250
2888.36131,0.02235
2886.30114,0.02216
2884.24096,0.02207
2882.18079,0.02203
2880.12062,0.02192
2878.06045,0.02183
2876.00028,0.02183
2873.94010,0.02192
2871.87993,0.02195
2869.81976,0.02184
2867.75959,0.02163
2865.69941,0.02133
2863.63924,0.02117
2861.57907,0.02110
2859.51890,0.02095
2857.45873,0.02097
2855.39855,0.02120
2853.33838,0.02124
2851.27821,0.02094
2849.21804,0.02073
2847.15787,0.02080
2845.09769,0.02076
2843.03752,0.02041
2840.97735,0.02009
2838.91718,0.02014
2836.85700,0.02043
2834.79683,0.02045
2832.73666,0.02015
2830.67649,0.01988
2828.61632,0.01975
2826.55614,0.01957
2824.49597,0.01922
2822.43580,0.01891
2820.37563,0.01898
2818.31546,0.01913
2816.25528,0.01888
2814.19511,0.01866
2812.13494,0.01881
2810.07477,0.01901
2808.01460,0.01905
2805.95442,0.01904
2803.89425,0.01886
2801.83408,0.01841
2799.77391,0.01796
2797.71373,0.01786
2795.65356,0.01814
2793.59339,0.01837
2791.53322,0.01832
2789.47305,0.01822
2787.41287,0.01808
2785.35270,0.01783
2783.29253,0.01752
2781.23236,0.01730
2779.17219,0.01724
2777.11201,0.01735
2775.05184,0.01753
2772.99167,0.01755
2770.93150,0.01746
2768.87133,0.01739
2766.81115,0.01737
2764.75098,0.01735
2762.69081,0.01718
2760.63064,0.01692
2758.57046,0.01671
2756.51029,0.01653
2754.45012,0.01645
2752.38995,0.01651
2750.32978,0.01647
2748.26960,0.01630
2746.20943,0.01617
2744.14926,0.01608
2742.08909,0.01601
2740.02892,0.01609
2737.96874,0.01627
2735.90857,0.01620
2733.84840,0.01588
2731.78823,0.01570
2729.72805,0.01567
2727.66788,0.01556
2725.60771,0.01530
2723.54754,0.01509
2721.48737,0.01507
2719.42719,0.01506
2717.36702,0.01485
2715.30685,0.01464
2713.24668,0.01474
2711.18651,0.01502
2709.12633,0.01521
2707.06616,0.01504
2705.00599,0.01472
2702.94582,0.01468
2700.88565,0.01483
2698.82547,0.01474
2696.76530,0.01440
2694.70513,0.01418
2692.64496,0.01414
2690.58478,0.01410
2688.52461,0.01400
2686.46444,0.01393
2684.40427,0.01381
2682.34410,0.01355
2680.28392,0.01335
2678.22375,0.01339
2676.16358,0.01350
2674.10341,0.01337
2672.04324,0.01308
2669.98306,0.01300
2667.92289,0.01304
2665.86272,0.01294
2663.80255,0.01281
2661.74238,0.01278
2659.68220,0.01277
2657.62203,0.01265
2655.56186,0.01253
2653.50169,0.01255
2651.44151,0.01246
2649.38134,0.01232
2647.32117,0.01232
2645.26100,0.01221
2643.20083,0.01192
2641.14065,0.01169
2639.08048,0.01171
2637.02031,0.01178
2634.96014,0.01168
2632.89997,0.01142
2630.83979,0.01120
2628.77962,0.01110
2626.71945,0.01091
2624.65928,0.01062
2622.59910,0.01047
2620.53893,0.01045
2618.47876,0.01029
2616.41859,0.01016
2614.35842,0.01039
2612.29824,0.01073
2610.23807,0.01070
2608.17790,0.01037
2606.11773,0.01009
2604.05756,0.00987
2601.99738,0.00969
2599.93721,0.00973
2597.87704,0.00990
2595.81687,0.01001
2593.75670,0.00994
2591.69652,0.00975
2589.63635,0.00958
2587.57618,0.00952
2585.51601,0.00957
2583.45583,0.00942
2581.39566,0.00923
2579.33549,0.00938
2577.27532,0.00971
2575.21515,0.01012
2573.15497,0.01024
2571.09480,0.00989
2569.03463,0.00957
2566.97446,0.00956
2564.91429,0.00971
2562.85411,0.00973
2560.79394,0.00933
2558.73377,0.00887
2556.67360,0.00902
2554.61342,0.00936
2552.55325,0.00949
2550.49308,0.00970
2548.43291,0.00948
2546.37274,0.00896
2544.31256,0.00921
2542.25239,0.00973
2540.19222,0.00941
2538.13205,0.00899
2536.07188,0.00928
2534.01170,0.00949
2531.95153,0.00927
2529.89136,0.00916
2527.83119,0.00923
2525.77102,0.00939
2523.71084,0.00960
2521.65067,0.00980
2519.59050,0.00993
2517.53033,0.00976
2515.47015,0.00933
2513.40998,0.00887
2511.34981,0.00873
2509.28964,0.00917
2507.22947,0.00968
2505.16929,0.00967
2503.10912,0.00945
2501.04895,0.00954
2498.98878,0.00964
2496.92861,0.00930
2494.86843,0.00901
2492.80826,0.00928
2490.74809,0.00965
2488.68792,0.00957
2486.62775,0.00948
2484.56757,0.01002
2482.50740,0.01081
2480.44723,0.01098
2478.38706,0.01041
2476.32688,0.00983
2474.26671,0.00975
2472.20654,0.01005
2470.14637,0.01031
2468.08620,0.01048
2466.02602,0.01061
2463.96585,0.01059
2461.90568,0.01043
2459.84551,0.01027
2457.78534,0.01041
2455.72516,0.01083
2453.66499,0.01093
2451.60482,0.01067
2449.54465,0.01051
2447.48447,0.01067
2445.42430,0.01098
2443.36413,0.01098
2441.30396,0.01061
2439.24379,0.01031
2437.18361,0.01044
2435.12344,0.01097
2433.06327,0.01131
2431.00310,0.01118
2428.94293,0.01084
2426.88275,0.01060
2424.82258,0.01063
2422.76241,0.01064
2420.70224,0.01044
2418.64207,0.01039
2416.58189,0.01063
2414.52172,0.01088
2412.46155,0.01077
2410.40138,0.01032
2408.34120,0.01011
2406.28103,0.01036
2404.22086,0.01065
2402.16069,0.01076
2400.10052,0.01057
2398.04034,0.01019
2395.98017,0.01023
2393.92000,0.01047
2391.85983,0.01044
2389.79966,0.01017
2387.73948,0.01002
2385.67931,0.01021
2383.61914,0.01049
2381.55897,0.01048
2379.49880,0.01022
2377.43862,0.01005
2375.37845,0.00969
2373.31828,0.00923
2371.25811,0.00841
2369.19793,0.00706
2367.13776,0.00715
2365.07759,0.00973
2363.01742,0.01133
2360.95725,0.01236
2358.89707,0.01168
2356.83690,0.01086
2354.77673,0.01015
2352.71656,0.00959
2350.65639,0.01206
2348.59621,0.01375
2346.53604,0.00938
2344.47587,0.00807
2342.41570,0.00913
2340.35552,0.01059
2338.29535,0.01140
2336.23518,0.01085
2334.17501,0.01029
2332.11484,0.00972
2330.05466,0.00977
2327.99449,0.01007
2325.93432,0.01120
2323.87415,0.01124
2321.81398,0.01090
2319.75380,0.01023
2317.69363,0.01095
2315.63346,0.01143
2313.57329,0.01108
2311.51312,0.01078
2309.45294,0.01058
2307.39277,0.01028
2305.33260,0.01000
2303.27243,0.00982
2301.21225,0.00953
2299.15208,0.00972
2297.09191,0.01028
2295.03174,0.01057
2292.97157,0.01033
2290.91139,0.00987
2288.85122,0.00959
2286.79105,0.00948
2284.73088,0.00969
2282.67071,0.01009
2280.61053,0.01015
2278.55036,0.00975
2276.49019,0.00924
2274.43002,0.00887
2272.36984,0.00885
2270.30967,0.00921
2268.24950,0.00930
2266.18933,0.00898
2264.12916,0.00911
2262.06898,0.00973
2260.00881,0.00999
2257.94864,0.00987
2255.88847,0.00931
2253.82830,0.00849
2251.76812,0.00823
2249.70795,0.00818
2247.64778,0.00758
2245.58761,0.00687
2243.52744,0.00679
2241.46726,0.00743
2239.40709,0.00790
2237.34692,0.00763
2235.28675,0.00716
2233.22657,0.00686
2231.16640,0.00721
2229.10623,0.00779
2227.04606,0.00732
2224.98589,0.00635
2222.92571,0.00599
2220.86554,0.00625
2218.80537,0.00689
2216.74520,0.00768
2214.68503,0.00802
2212.62485,0.00764
2210.56468,0.00718
2208.50451,0.00708
2206.44434,0.00716
2204.38417,0.00693
2202.32399,0.00659
2200.26382,0.00673
2198.20365,0.00721
2196.14348,0.00751
2194.08330,0.00716
2192.02313,0.00609
2189.96296,0.00543
2187.90279,0.00651
2185.84262,0.00762
2183.78244,0.00658
2181.72227,0.00425
2179.66210,0.00287
2177.60193,0.00270
2175.54176,0.00266
2173.48158,0.00317
2171.42141,0.00450
2169.36124,0.00588
2167.30107,0.00613
2165.24089,0.00477
2163.18072,0.00350
2161.12055,0.00296
2159.06038,0.00186
2157.00021,0.00156
2154.94003,0.00350
2152.87986,0.00551
2150.81969,0.00603
2148.75952,0.00555
2146.69935,0.00460
2144.63917,0.00392
2142.57900,0.00362
2140.51883,0.00320
2138.45866,0.00289
2136.39849,0.00309
2134.33831,0.00354
2132.27814,0.00351
2130.21797,0.00303
2128.15780,0.00324
2126.09762,0.00449
2124.03745,0.00566
2121.97728,0.00581
2119.91711,0.00501
2117.85694,0.00445
2115.79676,0.00502
2113.73659,0.00568
2111.67642,0.00551
2109.61625,0.00513
2107.55608,0.00477
2105.49590,0.00444
2103.43573,0.00469
2101.37556,0.00512
2099.31539,0.00514
2097.25521,0.00517
2095.19504,0.00507
2093.13487,0.00459
2091.07470,0.00458
2089.01453,0.00555
2086.95435,0.00635
2084.89418,0.00590
2082.83401,0.00481
2080.77384,0.00427
2078.71367,0.00418
2076.65349,0.00372
2074.59332,0.00339
2072.53315,0.00388
2070.47298,0.00441
2068.41281,0.00415
2066.35263,0.00350
2064.29246,0.00333
2062.23229,0.00402
2060.17212,0.00503
2058.11194,0.00544
2056.05177,0.00536
2053.99160,0.00554
2051.93143,0.00518
2049.87126,0.00402
2047.81108,0.00358
2045.75091,0.00364
2043.69074,0.00348
2041.63057,0.00349
2039.57040,0.00377
2037.51022,0.00440
2035.45005,0.00478
2033.38988,0.00443
2031.32971,0.00394
2029.26954,0.00282
2027.20936,0.00130
2025.14919,0.00115
2023.08902,0.00127
2021.02885,0.00061
2018.96867,0.00057
2016.90850,0.00114
2014.84833,0.00139
2012.78816,0.00164
2010.72799,0.00203
2008.66781,0.00187
2006.60764,0.00179
2004.54747,0.00260
2002.48730,0.00362
2000.42713,0.00418
1998.36695,0.00398
1996.30678,0.00305
1994.24661,0.00246
1992.18644,0.00298
1990.12626,0.00342
1988.06609,0.00300
1986.00592,0.00292
1983.94575,0.00351
1981.88558,0.00377
1979.82540,0.00330
1977.76523,0.00224
1975.70506,0.00140
1973.64489,0.00173
1971.58472,0.00184
1969.52454,0.00061
1967.46437,0.00000
1965.40420,0.00122
1963.34403,0.00207
1961.28386,0.00138
1959.22368,0.00089
1957.16351,0.00157
1955.10334,0.00286
1953.04317,0.00351
1950.98299,0.00283
1948.92282,0.00204
1946.86265,0.00208
1944.80248,0.00208
1942.74231,0.00163
1940.68213,0.00160
1938.62196,0.00200
1936.56179,0.00243
1934.50162,0.00283
1932.44145,0.00278
1930.38127,0.00230
1928.32110,0.00221
1926.26093,0.00277
1924.20076,0.00349
1922.14059,0.00410
1920.08041,0.00452
1918.02024,0.00470
1915.96007,0.00475
1913.89990,0.00478
1911.83972,0.00470
1909.77955,0.00454
1907.71938,0.00414
1905.65921,0.00331
1903.59904,0.00251
1901.53886,0.00250
1899.47869,0.00326
1897.41852,0.00385
1895.35835,0.00376
1893.29818,0.00360
1891.23800,0.00381
1889.17783,0.00401
1887.11766,0.00401
1885.05749,0.00405
1882.99731,0.00422
1880.93714,0.00448
1878.87697,0.00474
1876.81680,0.00456
1874.75663,0.00400
1872.69645,0.00363
1870.63628,0.00367
1868.57611,0.00381
1866.51594,0.00379
1864.45577,0.00372
1862.39559,0.00393
1860.33542,0.00441
1858.27525,0.00474
1856.21508,0.00453
1854.15491,0.00407
1852.09473,0.00404
1850.03456,0.00448
1847.97439,0.00474
1845.91422,0.00440
1843.85404,0.00396
1841.79387,0.00394
1839.73370,0.00412
1837.67353,0.00427
1835.61336,0.00440
1833.55318,0.00440
1831.49301,0.00422
1829.43284,0.00413
1827.37267,0.00435
1825.31250,0.00475
1823.25232,0.00497
1821.19215,0.00475
1819.13198,0.00430
1817.07181,0.00412
1815.01163,0.00439
1812.95146,0.00483
1810.89129,0.00509
1808.83112,0.00504
1806.77095,0.00484
1804.71077,0.00479
1802.65060,0.00494
1800.59043,0.00501
1798.53026,0.00477
1796.47009,0.00434
1794.40991,0.00410
1792.34974,0.00441
1790.28957,0.00492
1788.22940,0.00511
1786.16923,0.00512
1784.10905,0.00520
1782.04888,0.00538
1779.98871,0.00551
1777.92854,0.00539
1775.86836,0.00512
1773.80819,0.00495
1771.74802,0.00499
1769.68785,0.00515
1767.62768,0.00531
1765.56750,0.00539
1763.50733,0.00539
1761.44716,0.00542
1759.38699,0.00562
1757.32682,0.00594
1755.26664,0.00609
1753.20647,0.00593
1751.14630,0.00580
1749.08613,0.00602
1747.02596,0.00631
1744.96578,0.00655
1742.90561,0.00683
1740.84544,0.00699
1738.78527,0.00693
1736.72509,0.00697
1734.66492,0.00721
1732.60475,0.00722
1730.54458,0.00693
1728.48441,0.00699
1726.42423,0.00750
1724.36406,0.00796
1722.30389,0.00805
1720.24372,0.00798
1718.18355,0.00809
1716.12337,0.00835
1714.06320,0.00865
1712.00303,0.00897
1709.94286,0.00916
1707.88268,0.00922
1705.82251,0.00934
1703.76234,0.00963
1701.70217,0.01003
1699.64200,0.01043
1697.58182,0.01072
1695.52165,0.01100
1693.46148,0.01129
1691.40131,0.01144
1689.34114,0.01152
1687.28096,0.01161
1685.22079,0.01174
1683.16062,0.01217
1681.10045,0.01276
1679.04028,0.01315
1676.98010,0.01328
1674.91993,0.01325
1672.85976,0.01324
1670.79959,0.01359
1668.73941,0.01438
1666.67924,0.01495
1664.61907,0.01506
1662.55890,0.01503
1660.49873,0.01499
1658.43855,0.01491
1656.37838,0.01481
1654.31821,0.01481
1652.25804,0.01511
1650.19787,0.01542
1648.13769,0.01560
1646.07752,0.01579
1644.01735,0.01583
1641.95718,0.01557
1639.89701,0.01519
1637.83683,0.01484
1635.77666,0.01459
1633.71649,0.01456
1631.65632,0.01462
1629.59614,0.01460
1627.53597,0.01446
1625.47580,0.01423
1623.41563,0.01407
1621.35546,0.01398
1619.29528,0.01382
1617.23511,0.01361
1615.17494,0.01339
1613.11477,0.01311
1611.05460,0.01285
1608.99442,0.01269
1606.93425,0.01256
1604.87408,0.01231
1602.81391,0.01191
1600.75373,0.01148
1598.69356,0.01118
1596.63339,0.01096
1594.57322,0.01067
1592.51305,0.01031
1590.45287,0.01001
1588.39270,0.00980
1586.33253,0.00960
1584.27236,0.00931
1582.21219,0.00893
1580.15201,0.00856
1578.09184,0.00830
1576.03167,0.00810
1573.97150,0.00789
1571.91133,0.00774
1569.85115,0.00760
1567.79098,0.00737
1565.73081,0.00700
1563.67064,0.00661
1561.61046,0.00631
1559.55029,0.00611
1557.49012,0.00600
1555.42995,0.00592
1553.36978,0.00589
1551.30960,0.00601
1549.24943,0.00604
1547.18926,0.00577
1545.12909,0.00542
1543.06892,0.00535
1541.00874,0.00553
1538.94857,0.00551
1536.88840,0.00523
1534.82823,0.00502
1532.76805,0.00500
1530.70788,0.00513
1528.64771,0.00523
1526.58754,0.00509
1524.52737,0.00475
1522.46719,0.00444
1520.40702,0.00416
1518.34685,0.00388
1516.28668,0.00370
1514.22651,0.00366
1512.16633,0.00367
1510.10616,0.00354
1508.04599,0.00317
1505.98582,0.00292
1503.92565,0.00310
1501.86547,0.00330
1499.80530,0.00336
1497.74513,0.00340
1495.68496,0.00345
1493.62478,0.00350
1491.56461,0.00359
1489.50444,0.00366
1487.44427,0.00364
1485.38410,0.00352
1483.32392,0.00337
1481.26375,0.00336
1479.20358,0.00357
1477.14341,0.00383
1475.08324,0.00395
1473.02306,0.00388
1470.96289,0.00375
1468.90272,0.00370
1466.84255,0.00369
1464.78238,0.00372
1462.72220,0.00380
1460.66203,0.00382
1458.60186,0.00371
1456.54169,0.00368
1454.48151,0.00384
1452.42134,0.00398
1450.36117,0.00392
1448.30100,0.00375
1446.24083,0.00370
1444.18065,0.00371
1442.12048,0.00368
1440.06031,0.00358
1438.00014,0.00344
1435.93997,0.00342
1433.87979,0.00355
1431.81962,0.00366
1429.75945,0.00369
1427.69928,0.00371
1425.63910,0.00378
1423.57893,0.00391
1421.51876,0.00405
1419.45859,0.00401
1417.39842,0.00377
1415.33824,0.00364
1413.27807,0.00368
1411.21790,0.00376
1409.15773,0.00383
1407.09756,0.00391
1405.03738,0.00389
1402.97721,0.00380
1400.91704,0.00374
1398.85687,0.00365
1396.79670,0.00351
1394.73652,0.00349
1392.67635,0.00354
1390.61618,0.00347
1388.55601,0.00329
1386.49583,0.00324
1384.43566,0.00332
1382.37549,0.00342
1380.31532,0.00353
1378.25515,0.00360
1376.19497,0.00359
1374.13480,0.00353
1372.07463,0.00345
1370.01446,0.00336
1367.95429,0.00332
1365.89411,0.00328
1363.83394,0.00321
1361.77377,0.00313
1359.71360,0.00300
1357.65343,0.00294
1355.59325,0.00299
1353.53308,0.00296
1351.47291,0.00287
1349.41274,0.00288
1347.35256,0.00292
1345.29239,0.00291
1343.23222,0.00298
1341.17205,0.00320
1339.11188,0.00333
1337.05170,0.00324
1334.99153,0.00308
1332.93136,0.00299
1330.87119,0.00297
1328.81102,0.00298
1326.75084,0.00301
1324.69067,0.00301
1322.63050,0.00298
1320.57033,0.00298
1318.51015,0.00302
1316.44998,0.00306
1314.38981,0.00305
1312.32964,0.00295
1310.26947,0.00281
1308.20929,0.00281
1306.14912,0.00300
1304.08895,0.00324
1302.02878,0.00333
1299.96861,0.00325
1297.90843,0.00309
1295.84826,0.00305
1293.78809,0.00327
1291.72792,0.00360
1289.66775,0.00387
1287.60757,0.00403
1285.54740,0.00400
1283.48723,0.00383
1281.42706,0.00372
1279.36688,0.00377
1277.30671,0.00394
1275.24654,0.00416
1273.18637,0.00423
1271.12620,0.00409
1269.06602,0.00396
1267.00585,0.00395
1264.94568,0.00398
1262.88551,0.00400
1260.82534,0.00406
1258.76516,0.00410
1256.70499,0.00407
1254.64482,0.00400
1252.58465,0.00396
1250.52447,0.00387
1248.46430,0.00360
1246.40413,0.00336
1244.34396,0.00336
1242.28379,0.00338
1240.22361,0.00326
1238.16344,0.00312
1236.10327,0.00307
1234.04310,0.00303
1231.98293,0.00296
1229.92275,0.00291
1227.86258,0.00287
1225.80241,0.00270
1223.74224,0.00239
1221.68207,0.00215
1219.62189,0.00208
1217.56172,0.00201
1215.50155,0.00192
1213.44138,0.00191
1211.38120,0.00190
1209.32103,0.00174
1207.26086,0.00168
1205.20069,0.00188
1203.14052,0.00215
1201.08034,0.00233
1199.02017,0.00241
1196.96000,0.00243
1194.89983,0.00250
1192.83966,0.00267
1190.77948,0.00293
1188.71931,0.00331
1186.65914,0.00383
1184.59897,0.00445
1182.53880,0.00507
1180.47862,0.00560
1178.41845,0.00610
1176.35828,0.00672
1174.29811,0.00749
1172.23793,0.00822
1170.17776,0.00878
1168.11759,0.00942
1166.05742,0.01023
1163.99725,0.01102
1161.93707,0.01166
1159.87690,0.01221
1157.81673,0.01280
1155.75656,0.01351
1153.69639,0.01434
1151.63621,0.01517
1149.57604,0.01586
1147.51587,0.01654
1145.45570,0.01751
1143.39552,0.01876
1141.33535,0.02004
1139.27518,0.02111
1137.21501,0.02191
1135.15484,0.02272
1133.09466,0.02369
1131.03449,0.02465
1128.97432,0.02563
1126.91415,0.02675
1124.85398,0.02804
1122.79380,0.02937
1120.73363,0.03041
1118.67346,0.03121
1116.61329,0.03221
1114.55312,0.03341
1112.49294,0.03459
1110.43277,0.03567
1108.37260,0.03668
1106.31243,0.03769
1104.25225,0.03864
1102.19208,0.03952
1100.13191,0.04037
1098.07174,0.04122
1096.01157,0.04213
1093.95139,0.04303
1091.89122,0.04390
1089.83105,0.04484
1087.77088,0.04584
1085.71071,0.04675
1083.65053,0.04737
1081.59036,0.04776
1079.53019,0.04816
1077.47002,0.04862
1075.40985,0.04927
1073.34967,0.04998
1071.28950,0.05046
1069.22933,0.05066
1067.16916,0.05035
1065.10898,0.04967
1063.04881,0.04923
1060.98864,0.04903
1058.92847,0.04866
1056.86830,0.04798
1054.80812,0.04735
1052.74795,0.04691
1050.68778,0.04634
1048.62761,0.04538
1046.56744,0.04394
1044.50726,0.04229
1042.44709,0.04087
1040.38692,0.03964
1038.32675,0.03837
1036.26657,0.03716
1034.20640,0.03606
1032.14623,0.03493
1030.08606,0.03384
1028.02589,0.03281
1025.96571,0.03196
1023.90554,0.03130
1021.84537,0.03061
1019.78520,0.02988
1017.72503,0.02920
1015.66485,0.02852
1013.60468,0.02807
1011.54451,0.02789
1009.48434,0.02774
1007.42417,0.02764
1005.36399,0.02769
1003.30382,0.02794
1001.24365,0.02853
999.18348,0.02927
997.12330,0.02997
995.06313,0.03093
993.00296,0.03214
990.94279,0.03288
988.88262,0.03299
986.82244,0.03325
984.76227,0.03388
982.70210,0.03428
980.64193,0.03419
978.58176,0.03380
976.52158,0.03317
974.46141,0.03236
972.40124,0.03158
970.34107,0.03070
968.28089,0.02944
966.22072,0.02794
964.16055,0.02650
962.10038,0.02522
960.04021,0.02421
957.98003,0.02352
955.91986,0.02275
953.85969,0.02167
951.79952,0.02072
949.73935,0.02021
947.67917,0.02000
945.61900,0.01974
943.55883,0.01936
941.49866,0.01927
939.43849,0.01945
937.37831,0.01947
935.31814,0.01942
933.25797,0.01950
931.19780,0.01923
929.13762,0.01861
927.07745,0.01829
925.01728,0.01819
922.95711,0.01784
920.89694,0.01733
918.83676,0.01670
916.77659,0.01602
914.71642,0.01551
912.65625,0.01502
910.59608,0.01470
908.53590,0.01468
906.47573,0.01472
904.41556,0.01490
902.35539,0.01522
900.29522,0.01528
898.23504,0.01519
896.17487,0.01519
894.11470,0.01522
892.05453,0.01522
889.99435,0.01504
887.93418,0.01482
885.87401,0.01532
883.81384,0.01657
881.75367,0.01736
879.69349,0.01736
877.63332,0.01754
875.57315,0.01808
873.51298,0.01861
871.45281,0.01913
869.39263,0.01947
867.33246,0.01944
865.27229,0.01936
863.21212,0.01939
861.15194,0.01942
859.09177,0.01952
857.03160,0.01966
854.97143,0.01956
852.91126,0.01903
850.85108,0.01818
848.79091,0.01744
846.73074,0.01705
844.67057,0.01682
842.61040,0.01634
840.55022,0.01540
838.49005,0.01456
836.42988,0.01416
834.36971,0.01388
832.30954,0.01324
830.24936,0.01216
828.18919,0.01136
826.12902,0.01117
824.06885,0.01099
822.00867,0.01042
819.94850,0.00976
817.88833,0.00944
815.82816,0.00940
813.76799,0.00903
811.70781,0.00860
809.64764,0.00888
807.58747,0.00928
805.52730,0.00915
803.46713,0.00871
801.40695,0.00811
799.34678,0.00778
797.28661,0.00794
795.22644,0.00789
793.16627,0.00747
791.10609,0.00721
789.04592,0.00697
786.98575,0.00660
784.92558,0.00624
782.86540,0.00582
780.80523,0.00563
778.74506,0.00619
776.68489,0.00707
774.62472,0.00722
772.56454,0.00642
770.50437,0.00566
768.44420,0.00571
766.38403,0.00596
764.32386,0.00582
762.26368,0.00544
760.20351,0.00493
758.14334,0.00459
756.08317,0.00480
754.02299,0.00522
751.96282,0.00538
749.90265,0.00533
747.84248,0.00522
745.78231,0.00513
743.72213,0.00542
741.66196,0.00596
739.60179,0.00561
737.54162,0.00452
735.48145,0.00420
733.42127,0.00468
731.36110,0.00481
729.30093,0.00455
727.24076,0.00457
725.18059,0.00466
723.12041,0.00537
721.06024,0.00576
719.00007,0.00627
716.93990,0.00578
714.87972,0.00484
712.81955,0.00454
710.75938,0.00458
708.69921,0.00462
706.63904,0.00506
704.57886,0.00599
702.51869,0.00650
700.45852,0.00588
698.39835,0.00492
696.33818,0.00486
694.27800,0.00547
692.21783,0.00562
690.15766,0.00517
688.09749,0.00499
686.03731,0.00544
683.97714,0.00578
681.91697,0.00578
679.85680,0.00569
677.79663,0.00530
675.73645,0.00485
673.67628,0.00605
671.61611,0.00876
669.55594,0.00481
667.49577,0.00000
665.43559,0.00818
663.37542,0.00683
661.31525,0.00450
659.25508,0.00457
657.19491,0.00539
655.13473,0.00616
653.07456,0.00633
651.01439,0.00568
648.95422,0.00502
646.89404,0.00521
644.83387,0.00507
642.77370,0.00411
640.71353,0.00199
638.65336,0.00000
636.59318,-0.00000
634.53301,0.00105
632.47284,0.00134
630.41267,0.00086
628.35250,-0.00003
626.29232,-0.00055
624.23215,-0.00033
622.17198,-0.00061
620.11181,-0.00127
618.05164,-0.00125
615.99146,-0.00035
613.93129,-0.00014
611.87112,-0.00075
609.81095,-0.00115
607.75077,-0.00067
605.69060,0.00127
603.63043,0.00307
601.57026,0.00260
599.51009,0.00000
