3996.73391,0.00112
3994.67373,0.00082
3992.61356,0.00051
3990.55339,0.00039
3988.49322,0.00034
3986.43305,0.00017
3984.37287,0.00006
3982.31270,0.00019
3980.25253,0.00051
3978.19236,0.00075
3976.13219,0.00083
3974.07201,0.00091
3972.01184,0.00086
3969.95167,0.00061
3967.89150,0.00036
3965.83133,0.00018
3963.77115,0.00003
3961.71098,0.00000
3959.65081,0.00012
3957.59064,0.00028
3955.53046,0.00052
3953.47029,0.00092
3951.41012,0.00120
3949.34995,0.00112
3947.28978,0.00096
3945.22960,0.00104
3943.16943,0.00118
3941.10926,0.00108
3939.04909,0.00072
3936.98892,0.00026
3934.92874,0.00000
3932.86857,0.00026
3930.80840,0.00093
3928.74823,0.00147
3926.68805,0.00155
3924.62788,0.00117
3922.56771,0.00054
3920.50754,0.00028
3918.44737,0.00063
3916.38719,0.00100
3914.32702,0.00098
3912.26685,0.00092
3910.20668,0.00092
3908.14651,0.00079
3906.08633,0.00071
3904.02616,0.00090
3901.96599,0.00115
3899.90582,0.00118
3897.84565,0.00102
3895.78547,0.00080
3893.72530,0.00059
3891.66513,0.00034
3889.60496,0.00027
3887.54478,0.00057
3885.48461,0.00101
3883.42444,0.00133
3881.36427,0.00156
3879.30410,0.00160
3877.24392,0.00138
3875.18375,0.00112
3873.12358,0.00087
3871.06341,0.00063
3869.00324,0.00056
3866.94306,0.00081
3864.88289,0.00114
3862.82272,0.00113
3860.76255,0.00093
3858.70237,0.00078
3856.64220,0.00068
3854.58203,0.00080
3852.52186,0.00130
3850.46169,0.00155
3848.40151,0.00121
3846.34134,0.00061
3844.28117,0.00024
3842.22100,0.00037
3840.16083,0.00079
3838.10065,0.00093
3836.04048,0.00055
3833.98031,0.00035
3831.92014,0.00079
3829.85997,0.00134
3827.79979,0.00130
3825.73962,0.00080
3823.67945,0.00047
3821.61928,0.00056
3819.55910,0.00073
3817.49893,0.00083
3815.43876,0.00082
3813.37859,0.00071
3811.31842,0.00078
3809.25824,0.00115
3807.19807,0.00165
3805.13790,0.00175
3803.07773,0.00143
3801.01756,0.00133
3798.95738,0.00129
3796.89721,0.00090
3794.83704,0.00047
3792.77687,0.00039
3790.71670,0.00056
3788.65652,0.00065
3786.59635,0.00053
3784.53618,0.00037
3782.47601,0.00039
3780.41583,0.00061
3778.35566,0.00075
3776.29549,0.00067
3774.23532,0.00064
3772.17515,0.00074
3770.11497,0.00081
3768.05480,0.00092
3765.99463,0.00115
3763.93446,0.00126
3761.87429,0.00107
3759.81411,0.00089
3757.75394,0.00121
3755.69377,0.00193
3753.63360,0.00251
3751.57342,0.00261
3749.51325,0.00225
3747.45308,0.00182
3745.39291,0.00191
3743.33274,0.00251
3741.27256,0.00259
3739.21239,0.00209
3737.15222,0.00206
3735.09205,0.00267
3733.03188,0.00282
3730.97170,0.00242
3728.91153,0.00225
3726.85136,0.00220
3724.79119,0.00168
3722.73102,0.00108
3720.67084,0.00103
3718.61067,0.00134
3716.55050,0.00150
3714.49033,0.00167
3712.43015,0.00248
3710.36998,0.00335
3708.30981,0.00300
3706.24964,0.00205
3704.18947,0.00169
3702.12929,0.00163
3700.06912,0.00115
3698.00895,0.00077
3695.94878,0.00098
3693.88861,0.00155
3691.82843,0.00208
3689.76826,0.00253
3687.70809,0.00287
3685.64792,0.00272
3683.58775,0.00225
3681.52757,0.00206
3679.46740,0.00228
3677.40723,0.00298
3675.34706,0.00411
3673.28688,0.00470
3671.22671,0.00441
3669.16654,0.00378
3667.10637,0.00326
3665.04620,0.00314
3662.98602,0.00344
3660.92585,0.00398
3658.86568,0.00428
3656.80551,0.00393
3654.74534,0.00358
3652.68516,0.00429
3650.62499,0.00575
3648.56482,0.00644
3646.50465,0.00598
3644.44447,0.00571
3642.38430,0.00614
3640.32413,0.00686
3638.26396,0.00724
3636.20379,0.00722
3634.14361,0.00699
3632.08344,0.00675
3630.02327,0.00706
3627.96310,0.00820
3625.90293,0.00926
3623.84275,0.00979
3621.78258,0.01002
3619.72241,0.01017
3617.66224,0.01047
3615.60207,0.01096
3613.54189,0.01160
3611.48172,0.01236
3609.42155,0.01321
3607.36138,0.01400
3605.30120,0.01432
3603.24103,0.01408
3601.18086,0.01374
3599.12069,0.01366
3597.06052,0.01387
3595.00034,0.01420
3592.94017,0.01465
3590.88000,0.01547
3588.81983,0.01671
3586.75966,0.01756
3584.69948,0.01734
3582.63931,0.01683
3580.57914,0.01701
3578.51897,0.01788
3576.45879,0.01862
3574.39862,0.01898
3572.33845,0.01943
3570.27828,0.02012
3568.21811,0.02104
3566.15793,0.02190
3564.09776,0.02200
3562.03759,0.02162
3559.97742,0.02170
3557.91725,0.02229
3555.85707,0.02273
3553.79690,0.02289
3551.73673,0.02316
3549.67656,0.02364
3547.61639,0.02414
3545.55621,0.02454
3543.49604,0.02475
3541.43587,0.02491
3539.37570,0.02528
3537.31552,0.02588
3535.25535,0.02652
3533.19518,0.02702
3531.13501,0.02757
3529.07484,0.02824
3527.01466,0.02851
3524.95449,0.02829
3522.89432,0.02815
3520.83415,0.02834
3518.77398,0.02882
3516.71380,0.02962
3514.65363,0.03042
3512.59346,0.03088
3510.53329,0.03103
3508.47312,0.03120
3506.41294,0.03174
3504.35277,0.03256
3502.29260,0.03309
3500.23243,0.03313
3498.17225,0.03319
3496.11208,0.03358
3494.05191,0.03402
3491.99174,0.03421
3489.93157,0.03429
3487.87139,0.03449
3485.81122,0.03499
3483.75105,0.03574
3481.69088,0.03623
3479.63071,0.03610
3477.57053,0.03590
3475.51036,0.03631
3473.45019,0.03701
3471.39002,0.03745
3469.32984,0.03761
3467.26967,0.03772
3465.20950,0.03798
3463.14933,0.03831
3461.08916,0.03857
3459.02898,0.03878
3456.96881,0.03893
3454.90864,0.03929
3452.84847,0.04001
3450.78830,0.04064
3448.72812,0.04079
3446.66795,0.04059
3444.60778,0.04064
3442.54761,0.04120
3440.48744,0.04162
3438.42726,0.04182
3436.36709,0.04227
3434.30692,0.04273
3432.24675,0.04292
3430.18657,0.04300
3428.12640,0.04305
3426.06623,0.04302
3424.00606,0.04309
3421.94589,0.04345
3419.88571,0.04372
3417.82554,0.04367
3415.76537,0.04390
3413.70520,0.04453
3411.64503,0.04485
3409.58485,0.04470
3407.52468,0.04462
3405.46451,0.04491
3403.40434,0.04549
3401.34416,0.04594
3399.28399,0.04591
3397.22382,0.04586
3395.16365,0.04605
3393.10348,0.04631
3391.04330,0.04643
3388.98313,0.04662
3386.92296,0.04698
3384.86279,0.04711
3382.80262,0.04718
3380.74244,0.04743
3378.68227,0.04750
3376.62210,0.04722
3374.56193,0.04709
3372.50176,0.04738
3370.44158,0.04770
3368.38141,0.04785
3366.32124,0.04789
3364.26107,0.04804
3362.20089,0.04850
3360.14072,0.04880
3358.08055,0.04865
3356.02038,0.04845
3353.96021,0.04844
3351.90003,0.04854
3349.83986,0.04861
3347.77969,0.04839
3345.71952,0.04816
3343.65935,0.04842
3341.59917,0.04888
3339.53900,0.04916
3337.47883,0.04937
3335.41866,0.04941
3333.35849,0.04922
3331.29831,0.04925
3329.23814,0.04941
3327.17797,0.04929
3325.11780,0.04912
3323.05762,0.04923
3320.99745,0.04959
3318.93728,0.05002
3316.87711,0.05007
3314.81694,0.04976
3312.75676,0.04967
3310.69659,0.04984
3308.63642,0.05008
3306.57625,0.05016
3304.51608,0.05003
3302.45590,0.04988
3300.39573,0.04961
3298.33556,0.04922
3296.27539,0.04921
3294.21521,0.04967
3292.15504,0.05004
3290.09487,0.05003
3288.03470,0.05002
3285.97453,0.05018
3283.91435,0.05010
3281.85418,0.04967
3279.79401,0.04937
3277.73384,0.04938
3275.67367,0.04952
3273.61349,0.04995
3271.55332,0.05045
3269.49315,0.05048
3267.43298,0.05018
3265.37281,0.05016
3263.31263,0.05048
3261.25246,0.05076
3259.19229,0.05081
3257.13212,0.05065
3255.07194,0.05045
3253.01177,0.05029
3250.95160,0.05009
3248.89143,0.04999
3246.83126,0.04999
3244.77108,0.04993
3242.71091,0.04996
3240.65074,0.05014
3238.59057,0.05018
3236.53040,0.04993
3234.47022,0.04961
3232.41005,0.04951
3230.34988,0.04961
3228.28971,0.04977
3226.22954,0.04987
3224.16936,0.04978
3222.10919,0.04967
3220.04902,0.04977
3217.98885,0.04976
3215.92867,0.04941
3213.86850,0.04937
3211.80833,0.04987
3209.74816,0.05032
3207.68799,0.05045
3205.62781,0.05024
3203.56764,0.04983
3201.50747,0.04964
3199.44730,0.04979
3197.38713,0.04986
3195.32695,0.04960
3193.26678,0.04912
3191.20661,0.04868
3189.14644,0.04852
3187.08626,0.04841
3185.02609,0.04824
3182.96592,0.04824
3180.90575,0.04836
3178.84558,0.04846
3176.78540,0.04849
3174.72523,0.04825
3172.66506,0.04788
3170.60489,0.04761
3168.54472,0.04732
3166.48454,0.04717
3164.42437,0.04737
3162.36420,0.04747
3160.30403,0.04712
3158.24386,0.04671
3156.18368,0.04649
3154.12351,0.04621
3152.06334,0.04585
3150.00317,0.04573
3147.94299,0.04592
3145.88282,0.04617
3143.82265,0.04631
3141.76248,0.04621
3139.70231,0.04589
3137.64213,0.04540
3135.58196,0.04495
3133.52179,0.04477
3131.46162,0.04477
3129.40145,0.04473
3127.34127,0.04437
3125.28110,0.04373
3123.22093,0.04352
3121.16076,0.04379
3119.10058,0.04380
3117.04041,0.04348
3114.98024,0.04321
3112.92007,0.04305
3110.85990,0.04287
3108.79972,0.04249
3106.73955,0.04198
3104.67938,0.04175
3102.61921,0.04187
3100.55904,0.04193
3098.49886,0.04180
3096.43869,0.04162
3094.37852,0.04137
3092.31835,0.04101
3090.25818,0.04063
3088.19800,0.04031
3086.13783,0.04003
3084.07766,0.03985
3082.01749,0.03980
3079.95731,0.03969
3077.89714,0.03953
3075.83697,0.03941
3073.77680,0.03910
3071.71663,0.03875
3069.65645,0.03859
3067.59628,0.03834
3065.53611,0.03793
3063.47594,0.03771
3061.41577,0.03779
3059.35559,0.03785
3057.29542,0.03760
3055.23525,0.03726
3053.17508,0.03721
3051.11491,0.03730
3049.05473,0.03704
3046.99456,0.03644
3044.93439,0.03592
3042.87422,0.03566
3040.81404,0.03558
3038.75387,0.03547
3036.69370,0.03508
3034.63353,0.03465
3032.57336,0.03447
3030.51318,0.03440
3028.45301,0.03438
3026.39284,0.03432
3024.33267,0.03407
3022.27250,0.03368
3020.21232,0.03334
3018.15215,0.03325
3016.09198,0.03329
3014.03181,0.03311
3011.97163,0.03274
3009.91146,0.03238
3007.85129,0.03201
3005.79112,0.03169
3003.73095,0.03145
3001.67077,0.03132
2999.61060,0.03133
2997.55043,0.03124
2995.49026,0.03088
2993.43009,0.03056
2991.36991,0.03065
2989.30974,0.03080
2987.24957,0.03054
2985.18940,0.03007
2983.12923,0.02979
2981.06905,0.02970
2979.00888,0.02977
2976.94871,0.02989
2974.88854,0.02982
2972.82836,0.02965
2970.76819,0.02953
2968.70802,0.02942
2966.64785,0.02930
2964.58768,0.02916
2962.52750,0.02895
2960.46733,0.02886
2958.40716,0.02896
2956.34699,0.02904
2954.28682,0.02894
2952.22664,0.02884
2950.16647,0.02897
2948.10630,0.02913
2946.04613,0.02912
2943.98596,0.02899
2941.92578,0.02881
2939.86561,0.02869
2937.80544,0.02860
2935.74527,0.02838
2933.68509,0.02814
2931.62492,0.02803
2929.56475,0.02786
2927.50458,0.02768
2925.44441,0.02759
2923.38423,0.02761
2921.32406,0.02766
2919.26389,0.02761
2917.20372,0.02750
2915.14355,0.02734
2913.08337,0.02701
2911.02320,0.02664
2908.96303,0.02631
2906.90286,0.02608
2904.84268,0.02603
2902.78251,0.02605
2900.72234,0.02594
2898.66217,0.02575
2896.60200,0.02564
2894.54182,0.02552
2892.48165,0.02531
2890.42148,0.02520
2888.36131,0.02535
2886.30114,0.02549
2884.24096,0.02543
2882.18079,0.02530
2880.12062,0.02512
2878.06045,0.02491
2876.00028,0.02484
2873.94010,0.02482
2871.87993,0.02466
2869.81976,0.02441
2867.75959,0.02425
2865.69941,0.02416
2863.63924,0.02411
2861.57907,0.02404
2859.51890,0.02389
2857.45873,0.02378
2855.39855,0.02378
2853.33838,0.02370
2851.27821,0.02340
2849.21804,0.02309
2847.15787,0.02296
2845.09769,0.02289
2843.03752,0.02278
2840.97735,0.02266
2838.91718,0.02265
2836.85700,0.02280
2834.79683,0.02278
2832.73666,0.02247
2830.67649,0.02221
2828.61632,0.02212
2826.55614,0.02198
2824.49597,0.02156
2822.43580,0.02122
2820.37563,0.02132
2818.31546,0.02149
2816.25528,0.02130
2814.19511,0.02098
2812.13494,0.02088
2810.07477,0.02095
2808.01460,0.02105
2805.95442,0.02115
2803.89425,0.02099
2801.83408,0.02051
2799.77391,0.02008
2797.71373,0.01992
2795.65356,0.01999
2793.59339,0.02008
2791.53322,0.02019
2789.47305,0.02026
2787.41287,0.02003
2785.35270,0.01968
2783.29253,0.01957
2781.23236,0.01959
2779.17219,0.01936
2777.11201,0.01900
2775.05184,0.01883
2772.99167,0.01870
2770.93150,0.01858
2768.87133,0.01858
2766.81115,0.01862
2764.75098,0.01863
2762.69081,0.01852
2760.63064,0.01818
2758.57046,0.01778
2756.51029,0.01755
2754.45012,0.01755
2752.38995,0.01764
2750.32978,0.01765
2748.26960,0.01765
2746.20943,0.01778
2744.14926,0.01784
2742.08909,0.01772
2740.02892,0.01763
2737.96874,0.01762
2735.90857,0.01741
2733.84840,0.01684
2731.78823,0.01657
2729.72805,0.01696
2727.66788,0.01724
2725.60771,0.01693
2723.54754,0.01649
2721.48737,0.01623
2719.42719,0.01605
2717.36702,0.01590
2715.30685,0.01594
2713.24668,0.01621
2711.18651,0.01633
2709.12633,0.01622
2707.06616,0.01603
2705.00599,0.01582
2702.94582,0.01573
2700.88565,0.01579
2698.82547,0.01576
2696.76530,0.01555
2694.70513,0.01525
2692.64496,0.01499
2690.58478,0.01482
2688.52461,0.01475
2686.46444,0.01477
2684.40427,0.01468
2682.34410,0.01443
2680.28392,0.01430
2678.22375,0.01423
2676.16358,0.01419
2674.10341,0.01411
2672.04324,0.01377
2669.98306,0.01355
2667.92289,0.01363
2665.86272,0.01369
2663.80255,0.01366
2661.74238,0.01357
2659.68220,0.01337
2657.62203,0.01321
2655.56186,0.01318
2653.50169,0.01317
2651.44151,0.01303
2649.38134,0.01286
2647.32117,0.01270
2645.26100,0.01246
2643.20083,0.01221
2641.14065,0.01220
2639.08048,0.01248
2637.02031,0.01257
2634.96014,0.01214
2632.89997,0.01165
2630.83979,0.01151
2628.77962,0.01150
2626.71945,0.01143
2624.65928,0.01131
2622.59910,0.01121
2620.53893,0.01101
2618.47876,0.01068
2616.41859,0.01049
2614.35842,0.01054
2612.29824,0.01064
2610.23807,0.01066
2608.17790,0.01057
2606.11773,0.01048
2604.05756,0.01031
2601.99738,0.01004
2599.93721,0.00984
2597.87704,0.00979
2595.81687,0.01002
2593.75670,0.01033
2591.69652,0.01031
2589.63635,0.01001
2587.57618,0.00978
2585.51601,0.00955
2583.45583,0.00918
2581.39566,0.00915
2579.33549,0.00937
2577.27532,0.00925
2575.21515,0.00922
2573.15497,0.00954
2571.09480,0.00965
2569.03463,0.00961
2566.97446,0.00966
2564.91429,0.00957
2562.85411,0.00937
2560.79394,0.00917
2558.73377,0.00888
2556.67360,0.00896
2554.61342,0.00941
2552.55325,0.00973
2550.49308,0.00993
2548.43291,0.00977
2546.37274,0.00931
2544.31256,0.00932
2542.25239,0.00962
2540.19222,0.00944
2538.13205,0.00924
2536.07188,0.00942
2534.01170,0.00929
2531.95153,0.00888
2529.89136,0.00892
2527.83119,0.00931
2525.77102,0.00963
2523.71084,0.00970
2521.65067,0.00967
2519.59050,0.00982
2517.53033,0.00987
2515.47015,0.00960
2513.40998,0.00925
2511.34981,0.00900
2509.28964,0.00918
2507.22947,0.00974
2505.16929,0.00997
2503.10912,0.00969
2501.04895,0.00954
2498.98878,0.00959
2496.92861,0.00938
2494.86843,0.00901
2492.80826,0.00905
2490.74809,0.00958
2488.68792,0.01008
2486.62775,0.01028
2484.56757,0.01025
2482.50740,0.01028
2480.44723,0.01042
2478.38706,0.01041
2476.32688,0.01022
2474.26671,0.00999
2472.20654,0.00968
2470.14637,0.00932
2468.08620,0.00940
2466.02602,0.00991
2463.96585,0.01019
2461.90568,0.01029
2459.84551,0.01050
2457.78534,0.01076
2455.72516,0.01096
2453.66499,0.01105
2451.60482,0.01110
2449.54465,0.01121
2447.48447,0.01131
2445.42430,0.01132
2443.36413,0.01120
2441.30396,0.01096
2439.24379,0.01061
2437.18361,0.01052
2435.12344,0.01091
2433.06327,0.01122
2431.00310,0.01100
2428.94293,0.01058
2426.88275,0.01043
2424.82258,0.01050
2422.76241,0.01052
2420.70224,0.01062
2418.64207,0.01079
2416.58189,0.01073
2414.52172,0.01059
2412.46155,0.01051
2410.40138,0.01030
2408.34120,0.01010
2406.28103,0.01017
2404.22086,0.01014
2402.16069,0.00991
2400.10052,0.00966
2398.04034,0.00939
2395.98017,0.00954
2393.92000,0.00994
2391.85983,0.01018
2389.79966,0.01025
2387.73948,0.01026
2385.67931,0.01036
2383.61914,0.01061
2381.55897,0.01072
2379.49880,0.01055
2377.43862,0.01034
2375.37845,0.01048
2373.31828,0.01055
2371.25811,0.00959
2369.19793,0.00828
2367.13776,0.00841
2365.07759,0.01007
2363.01742,0.01159
2360.95725,0.01089
2358.89707,0.01036
2356.83690,0.01148
2354.77673,0.01285
2352.71656,0.01280
2350.65639,0.01108
2348.59621,0.00996
2346.53604,0.01096
2344.47587,0.01096
2342.41570,0.01109
2340.35552,0.01177
2338.29535,0.01124
2336.23518,0.01002
2334.17501,0.00952
2332.11484,0.01006
2330.05466,0.01115
2327.99449,0.01211
2325.93432,0.01179
2323.87415,0.01152
2321.81398,0.01197
2319.75380,0.01240
2317.69363,0.01200
2315.63346,0.01147
2313.57329,0.01096
2311.51312,0.01077
2309.45294,0.01090
2307.39277,0.01075
2305.33260,0.01036
2303.27243,0.01003
2301.21225,0.00985
2299.15208,0.00972
2297.09191,0.00967
2295.03174,0.00965
2292.97157,0.00969
2290.91139,0.01003
2288.85122,0.01041
2286.79105,0.01023
2284.73088,0.00985
2282.67071,0.00979
2280.61053,0.00945
2278.55036,0.00868
2276.49019,0.00827
2274.43002,0.00838
2272.36984,0.00870
2270.30967,0.00896
2268.24950,0.00870
2266.18933,0.00813
2264.12916,0.00812
2262.06898,0.00863
2260.00881,0.00900
2257.94864,0.00899
2255.88847,0.00849
2253.82830,0.00763
2251.76812,0.00721
2249.70795,0.00735
2247.64778,0.00748
2245.58761,0.00775
2243.52744,0.00805
2241.46726,0.00778
2239.40709,0.00736
2237.34692,0.00757
2235.28675,0.00820
2233.22657,0.00851
2231.16640,0.00827
2229.10623,0.00790
2227.04606,0.00759
2224.98589,0.00738
2222.92571,0.00717
2220.86554,0.00666
2218.80537,0.00655
2216.74520,0.00760
2214.68503,0.00893
2212.62485,0.00946
2210.56468,0.00898
2208.50451,0.00802
2206.44434,0.00736
2204.38417,0.00703
2202.32399,0.00675
2200.26382,0.00650
2198.20365,0.00655
2196.14348,0.00708
2194.08330,0.00746
2192.02313,0.00666
2189.96296,0.00574
2187.90279,0.00609
2185.84262,0.00657
2183.78244,0.00607
2181.72227,0.00511
2179.66210,0.00481
2177.60193,0.00493
2175.54176,0.00507
2173.48158,0.00555
2171.42141,0.00544
2169.36124,0.00432
2167.30107,0.00315
2165.24089,0.00289
2163.18072,0.00289
2161.12055,0.00187
2159.06038,0.00041
2157.00021,0.00023
2154.94003,0.00156
2152.87986,0.00284
2150.81969,0.00334
2148.75952,0.00407
2146.69935,0.00441
2144.63917,0.00367
2142.57900,0.00349
2140.51883,0.00396
2138.45866,0.00396
2136.39849,0.00380
2134.33831,0.00379
2132.27814,0.00333
2130.21797,0.00241
2128.15780,0.00194
2126.09762,0.00248
2124.03745,0.00350
2121.97728,0.00417
2119.91711,0.00400
2117.85694,0.00382
2115.79676,0.00458
2113.73659,0.00514
2111.67642,0.00464
2109.61625,0.00416
2107.55608,0.00432
2105.49590,0.00480
2103.43573,0.00499
2101.37556,0.00443
2099.31539,0.00375
2097.25521,0.00374
2095.19504,0.00372
2093.13487,0.00333
2091.07470,0.00379
2089.01453,0.00481
2086.95435,0.00480
2084.89418,0.00410
2082.83401,0.00368
2080.77384,0.00378
2078.71367,0.00426
2076.65349,0.00440
2074.59332,0.00414
2072.53315,0.00423
2070.47298,0.00454
2068.41281,0.00418
2066.35263,0.00327
2064.29246,0.00292
2062.23229,0.00333
2060.17212,0.00400
2058.11194,0.00455
2056.05177,0.00487
2053.99160,0.00502
2051.93143,0.00425
2049.87126,0.00282
2047.81108,0.00257
2045.75091,0.00323
2043.69074,0.00368
2041.63057,0.00395
2039.57040,0.00425
2037.51022,0.00407
2035.45005,0.00232
2033.38988,0.00095
2031.32971,0.00245
2029.26954,0.00401
2027.20936,0.00324
2025.14919,0.00210
2023.08902,0.00188
2021.02885,0.00206
2018.96867,0.00192
2016.90850,0.00189
2014.84833,0.00307
2012.78816,0.00417
2010.72799,0.00406
2008.66781,0.00320
2006.60764,0.00209
2004.54747,0.00155
2002.48730,0.00197
2000.42713,0.00287
1998.36695,0.00311
1996.30678,0.00249
1994.24661,0.00238
1992.18644,0.00323
1990.12626,0.00420
1988.06609,0.00454
1986.00592,0.00426
1983.94575,0.00350
1981.88558,0.00238
1979.82540,0.00179
1977.76523,0.00183
1975.70506,0.00162
1973.64489,0.00193
1971.58472,0.00273
1969.52454,0.00260
1967.46437,0.00201
1965.40420,0.00212
1963.34403,0.00210
1961.28386,0.00111
1959.22368,0.00044
1957.16351,0.00090
1955.10334,0.00139
1953.04317,0.00101
1950.98299,0.00016
1948.92282,0.00000
1946.86265,0.00088
1944.80248,0.00169
1942.74231,0.00146
1940.68213,0.00091
1938.62196,0.00103
1936.56179,0.00159
1934.50162,0.00188
1932.44145,0.00175
1930.38127,0.00154
1928.32110,0.00171
1926.26093,0.00232
1924.20076,0.00287
1922.14059,0.00293
1920.08041,0.00288
1918.02024,0.00312
1915.96007,0.00334
1913.89990,0.00323
1911.83972,0.00297
1909.77955,0.00284
1907.71938,0.00277
1905.65921,0.00260
1903.59904,0.00251
1901.53886,0.00275
1899.47869,0.00313
1897.41852,0.00328
1895.35835,0.00329
1893.29818,0.00350
1891.23800,0.00373
1889.17783,0.00355
1887.11766,0.00306
1885.05749,0.00269
1882.99731,0.00256
1880.93714,0.00264
1878.87697,0.00294
1876.81680,0.00330
1874.75663,0.00343
1872.69645,0.00332
1870.63628,0.00316
1868.57611,0.00309
1866.51594,0.00305
1864.45577,0.00299
1862.39559,0.00301
1860.33542,0.00309
1858.27525,0.00319
1856.21508,0.00318
1854.15491,0.00296
1852.09473,0.00276
1850.03456,0.00285
1847.97439,0.00320
1845.91422,0.00346
1843.85404,0.00331
1841.79387,0.00291
1839.73370,0.00268
1837.67353,0.00278
1835.61336,0.00312
1833.55318,0.00343
1831.49301,0.00346
1829.43284,0.00329
1827.37267,0.00318
1825.31250,0.00319
1823.25232,0.00324
1821.19215,0.00327
1819.13198,0.00327
1817.07181,0.00328
1815.01163,0.00345
1812.95146,0.00376
1810.89129,0.00404
1808.83112,0.00411
1806.77095,0.00392
1804.71077,0.00370
1802.65060,0.00367
1800.59043,0.00380
1798.53026,0.00400
1796.47009,0.00420
1794.40991,0.00426
1792.34974,0.00423
1790.28957,0.00412
1788.22940,0.00402
1786.16923,0.00417
1784.10905,0.00449
1782.04888,0.00468
1779.98871,0.00454
1777.92854,0.00417
1775.86836,0.00387
1773.80819,0.00391
1771.74802,0.00424
1769.68785,0.00452
1767.62768,0.00455
1765.56750,0.00448
1763.50733,0.00453
1761.44716,0.00469
1759.38699,0.00484
1757.32682,0.00504
1755.26664,0.00526
1753.20647,0.00550
1751.14630,0.00578
1749.08613,0.00594
1747.02596,0.00594
1744.96578,0.00611
1742.90561,0.00647
1740.84544,0.00667
1738.78527,0.00670
1736.72509,0.00698
1734.66492,0.00752
1732.60475,0.00758
1730.54458,0.00706
1728.48441,0.00685
1726.42423,0.00722
1724.36406,0.00761
1722.30389,0.00770
1720.24372,0.00781
1718.18355,0.00829
1716.12337,0.00880
1714.06320,0.00910
1712.00303,0.00935
1709.94286,0.00959
1707.88268,0.00981
1705.82251,0.01001
1703.76234,0.01029
1701.70217,0.01079
1699.64200,0.01152
1697.58182,0.01207
1695.52165,0.01216
1693.46148,0.01205
1691.40131,0.01212
1689.34114,0.01245
1687.28096,0.01296
1685.22079,0.01357
1683.16062,0.01416
1681.10045,0.01448
1679.04028,0.01466
1676.98010,0.01489
1674.91993,0.01522
1672.85976,0.01554
1670.79959,0.01603
1668.73941,0.01665
1666.67924,0.01691
1664.61907,0.01693
1662.55890,0.01697
1660.49873,0.01693
1658.43855,0.01697
1656.37838,0.01733
1654.31821,0.01786
1652.25804,0.01810
1650.19787,0.01821
1648.13769,0.01852
1646.07752,0.01871
1644.01735,0.01848
1641.95718,0.01817
1639.89701,0.01802
1637.83683,0.01788
1635.77666,0.01746
1633.71649,0.01702
1631.65632,0.01682
1629.59614,0.01671
1627.53597,0.01662
1625.47580,0.01655
1623.41563,0.01634
1621.35546,0.01591
1619.29528,0.01560
1617.23511,0.01542
1615.17494,0.01495
1613.11477,0.01438
1611.05460,0.01403
1608.99442,0.01382
1606.93425,0.01357
1604.87408,0.01335
1602.81391,0.01314
1600.75373,0.01281
1598.69356,0.01237
1596.63339,0.01194
1594.57322,0.01155
1592.51305,0.01112
1590.45287,0.01072
1588.39270,0.01047
1586.33253,0.01028
1584.27236,0.00987
1582.21219,0.00927
1580.15201,0.00885
1578.09184,0.00877
1576.03167,0.00861
1573.97150,0.00817
1571.91133,0.00789
1569.85115,0.00781
1567.79098,0.00760
1565.73081,0.00724
1563.67064,0.00694
1561.61046,0.00686
1559.55029,0.00700
1557.49012,0.00684
1555.42995,0.00623
1553.36978,0.00570
1551.30960,0.00551
1549.24943,0.00539
1547.18926,0.00517
1545.12909,0.00513
1543.06892,0.00549
1541.00874,0.00591
1538.94857,0.00566
1536.88840,0.00492
1534.82823,0.00441
1532.76805,0.00428
1530.70788,0.00426
1528.64771,0.00414
1526.58754,0.00396
1524.52737,0.00387
1522.46719,0.00387
1520.40702,0.00368
1518.34685,0.00326
1516.28668,0.00286
1514.22651,0.00263
1512.16633,0.00262
1510.10616,0.00292
1508.04599,0.00336
1505.98582,0.00325
1503.92565,0.00273
1501.86547,0.00239
1499.80530,0.00228
1497.74513,0.00228
1495.68496,0.00232
1493.62478,0.00237
1491.56461,0.00254
1489.50444,0.00274
1487.44427,0.00263
1485.38410,0.00228
1483.32392,0.00203
1481.26375,0.00206
1479.20358,0.00235
1477.14341,0.00273
1475.08324,0.00292
1473.02306,0.00289
1470.96289,0.00293
1468.90272,0.00300
1466.84255,0.00301
1464.78238,0.00303
1462.72220,0.00311
1460.66203,0.00323
1458.60186,0.00342
1456.54169,0.00354
1454.48151,0.00341
1452.42134,0.00315
1450.36117,0.00293
1448.30100,0.00283
1446.24083,0.00286
1444.18065,0.00294
1442.12048,0.00295
1440.06031,0.00285
1438.00014,0.00271
1435.93997,0.00270
1433.87979,0.00275
1431.81962,0.00281
1429.75945,0.00292
1427.69928,0.00305
1425.63910,0.00321
1423.57893,0.00342
1421.51876,0.00363
1419.45859,0.00370
1417.39842,0.00352
1415.33824,0.00333
1413.27807,0.00329
1411.21790,0.00331
1409.15773,0.00327
1407.09756,0.00316
1405.03738,0.00298
1402.97721,0.00276
1400.91704,0.00271
1398.85687,0.00291
1396.79670,0.00312
1394.73652,0.00302
1392.67635,0.00268
1390.61618,0.00253
1388.55601,0.00264
1386.49583,0.00281
1384.43566,0.00285
1382.37549,0.00282
1380.31532,0.00277
1378.25515,0.00276
1376.19497,0.00284
1374.13480,0.00296
1372.07463,0.00292
1370.01446,0.00272
1367.95429,0.00255
1365.89411,0.00244
1363.83394,0.00232
1361.77377,0.00214
1359.71360,0.00197
1357.65343,0.00186
1355.59325,0.00182
1353.53308,0.00182
1351.47291,0.00183
1349.41274,0.00180
1347.35256,0.00164
1345.29239,0.00148
1343.23222,0.00157
1341.17205,0.00180
1339.11188,0.00186
1337.05170,0.00172
1334.99153,0.00169
1332.93136,0.00175
1330.87119,0.00175
1328.81102,0.00171
1326.75084,0.00177
1324.69067,0.00186
1322.63050,0.00187
1320.57033,0.00175
1318.51015,0.00159
1316.44998,0.00154
1314.38981,0.00160
1312.32964,0.00163
1310.26947,0.00162
1308.20929,0.00161
1306.14912,0.00165
1304.08895,0.00182
1302.02878,0.00196
1299.96861,0.00197
1297.90843,0.00193
1295.84826,0.00195
1293.78809,0.00203
1291.72792,0.00215
1289.66775,0.00236
1287.60757,0.00258
1285.54740,0.00268
1283.48723,0.00264
1281.42706,0.00259
1279.36688,0.00265
1277.30671,0.00277
1275.24654,0.00289
1273.18637,0.00300
1271.12620,0.00301
1269.06602,0.00292
1267.00585,0.00285
1264.94568,0.00292
1262.88551,0.00303
1260.82534,0.00302
1258.76516,0.00293
1256.70499,0.00293
1254.64482,0.00300
1252.58465,0.00301
1250.52447,0.00284
1248.46430,0.00257
1246.40413,0.00252
1244.34396,0.00260
1242.28379,0.00248
1240.22361,0.00221
1238.16344,0.00206
1236.10327,0.00196
1234.04310,0.00184
1231.98293,0.00182
1229.92275,0.00181
1227.86258,0.00169
1225.80241,0.00144
1223.74224,0.00113
1221.68207,0.00091
1219.62189,0.00079
1217.56172,0.00058
1215.50155,0.00031
1213.44138,0.00009
1211.38120,0.00000
1209.32103,0.00010
1207.26086,0.00030
1205.20069,0.00047
1203.14052,0.00063
1201.08034,0.00069
1199.02017,0.00059
1196.96000,0.00060
1194.89983,0.00085
1192.83966,0.00117
1190.77948,0.00156
1188.71931,0.00204
1186.65914,0.00253
1184.59897,0.00303
1182.53880,0.00351
1180.47862,0.00408
1178.41845,0.00488
1176.35828,0.00574
1174.29811,0.00651
1172.23793,0.00734
1170.17776,0.00829
1168.11759,0.00923
1166.05742,0.01020
1163.99725,0.01110
1161.93707,0.01177
1159.87690,0.01239
1157.81673,0.01312
1155.75656,0.01396
1153.69639,0.01487
1151.63621,0.01589
1149.57604,0.01687
1147.51587,0.01777
1145.45570,0.01881
1143.39552,0.01989
1141.33535,0.02084
1139.27518,0.02186
1137.21501,0.02293
1135.15484,0.02398
1133.09466,0.02528
1131.03449,0.02673
1128.97432,0.02805
1126.91415,0.02926
1124.85398,0.03048
1122.79380,0.03168
1120.73363,0.03270
1118.67346,0.03378
1116.61329,0.03525
1114.55312,0.03682
1112.49294,0.03813
1110.43277,0.03917
1108.37260,0.04016
1106.31243,0.04152
1104.25225,0.04325
1102.19208,0.04478
1100.13191,0.04581
1098.07174,0.04663
1096.01157,0.04760
1093.95139,0.04871
1091.89122,0.04988
1089.83105,0.05092
1087.77088,0.05174
1085.71071,0.05251
1083.65053,0.05319
1081.59036,0.05380
1079.53019,0.05446
1077.47002,0.05513
1075.40985,0.05595
1073.34967,0.05678
1071.28950,0.05729
1069.22933,0.05754
1067.16916,0.05752
1065.10898,0.05721
1063.04881,0.05687
1060.98864,0.05661
1058.92847,0.05607
1056.86830,0.05511
1054.80812,0.05414
1052.74795,0.05342
1050.68778,0.05271
1048.62761,0.05187
1046.56744,0.05075
1044.50726,0.04917
1042.44709,0.04742
1040.38692,0.04593
1038.32675,0.04455
1036.26657,0.04305
1034.20640,0.04153
1032.14623,0.04017
1030.08606,0.03892
1028.02589,0.03757
1025.96571,0.03645
1023.90554,0.03583
1021.84537,0.03508
1019.78520,0.03399
1017.72503,0.03304
1015.66485,0.03222
1013.60468,0.03136
1011.54451,0.03081
1009.48434,0.03077
1007.42417,0.03092
1005.36399,0.03108
1003.30382,0.03127
1001.24365,0.03153
999.18348,0.03213
997.12330,0.03309
995.06313,0.03425
993.00296,0.03546
990.94279,0.03633
988.88262,0.03691
986.82244,0.03752
984.76227,0.03793
982.70210,0.03784
980.64193,0.03741
978.58176,0.03680
976.52158,0.03602
974.46141,0.03513
972.40124,0.03402
970.34107,0.03261
968.28089,0.03109
966.22072,0.02975
964.16055,0.02840
962.10038,0.02678
960.04021,0.02514
957.98003,0.02390
955.91986,0.02289
953.85969,0.02190
951.79952,0.02115
949.73935,0.02059
947.67917,0.02010
945.61900,0.01961
943.55883,0.01917
941.49866,0.01901
939.43849,0.01902
937.37831,0.01888
935.31814,0.01874
933.25797,0.01885
931.19780,0.01892
929.13762,0.01858
927.07745,0.01802
925.01728,0.01760
922.95711,0.01735
920.89694,0.01692
918.83676,0.01608
916.77659,0.01517
914.71642,0.01449
912.65625,0.01404
910.59608,0.01368
908.53590,0.01338
906.47573,0.01324
904.41556,0.01326
902.35539,0.01331
900.29522,0.01342
898.23504,0.01356
896.17487,0.01339
894.11470,0.01316
892.05453,0.01352
889.99435,0.01410
887.93418,0.01435
885.87401,0.01459
883.81384,0.01521
881.75367,0.01595
879.69349,0.01629
877.63332,0.01639
875.57315,0.01680
873.51298,0.01731
871.45281,0.01771
869.39263,0.01819
867.33246,0.01863
865.27229,0.01869
863.21212,0.01843
861.15194,0.01840
859.09177,0.01864
857.03160,0.01867
854.97143,0.01850
852.91126,0.01815
850.85108,0.01748
848.79091,0.01677
846.73074,0.01626
844.67057,0.01580
842.61040,0.01518
840.55022,0.01449
838.49005,0.01377
836.42988,0.01292
834.36971,0.01209
832.30954,0.01131
830.24936,0.01070
828.18919,0.01044
826.12902,0.01016
824.06885,0.00958
822.00867,0.00904
819.94850,0.00889
817.88833,0.00872
815.82816,0.00786
813.76799,0.00674
811.70781,0.00639
809.64764,0.00669
807.58747,0.00672
805.52730,0.00609
803.46713,0.00540
801.40695,0.00516
799.34678,0.00524
797.28661,0.00567
795.22644,0.00601
793.16627,0.00569
791.10609,0.00527
789.04592,0.00518
786.98575,0.00486
784.92558,0.00423
782.86540,0.00393
780.80523,0.00422
778.74506,0.00475
776.68489,0.00507
774.62472,0.00505
772.56454,0.00464
770.50437,0.00407
768.44420,0.00386
766.38403,0.00403
764.32386,0.00388
762.26368,0.00311
760.20351,0.00246
758.14334,0.00234
756.08317,0.00282
754.02299,0.00360
751.96282,0.00376
749.90265,0.00342
747.84248,0.00300
745.78231,0.00237
743.72213,0.00234
741.66196,0.00305
739.60179,0.00310
737.54162,0.00218
735.48145,0.00150
733.42127,0.00169
731.36110,0.00227
729.30093,0.00267
727.24076,0.00267
725.18059,0.00253
723.12041,0.00297
721.06024,0.00388
719.00007,0.00387
716.93990,0.00296
714.87972,0.00225
712.81955,0.00221
710.75938,0.00239
708.69921,0.00258
706.63904,0.00295
704.57886,0.00326
702.51869,0.00293
700.45852,0.00203
698.39835,0.00148
696.33818,0.00172
694.27800,0.00196
692.21783,0.00171
690.15766,0.00130
688.09749,0.00105
686.03731,0.00090
683.97714,0.00068
681.91697,0.00060
679.85680,0.00111
677.79663,0.00226
675.73645,0.00334
673.67628,0.00320
671.61611,0.00199
669.55594,0.00269
667.49577,0.00333
665.43559,0.00000
663.37542,0.00055
661.31525,0.00217
659.25508,0.00305
657.19491,0.00301
655.13473,0.00269
653.07456,0.00254
651.01439,0.00211
648.95422,0.00200
646.89404,0.00275
644.83387,0.00344
642.77370,0.00291
640.71353,0.00145
638.65336,0.00022
636.59318,0.00000
634.53301,0.00049
632.47284,0.00173
630.41267,0.00355
628.35250,0.00490
626.29232,0.00488
624.23215,0.00380
622.17198,0.00202
620.11181,0.00136
618.05164,0.00220
615.99146,0.00234
613.93129,0.00159
611.87112,0.00193
609.81095,0.00205
607.75077,0.00055
605.69060,-0.00035
603.63043,0.00031
601.57026,0.00065
599.51009,0.00000
