3996.73391,0.00076
3994.67373,0.00075
3992.61356,0.00067
3990.55339,0.00054
3988.49322,0.00054
3986.43305,0.00066
3984.37287,0.00060
3982.31270,0.00041
3980.25253,0.00040
3978.19236,0.00056
3976.13219,0.00068
3974.07201,0.00066
3972.01184,0.00058
3969.95167,0.00046
3967.89150,0.00034
3965.83133,0.00035
3963.77115,0.00044
3961.71098,0.00039
3959.65081,0.00016
3957.59064,0.00000
3955.53046,0.00006
3953.47029,0.00022
3951.41012,0.00031
3949.34995,0.00036
3947.28978,0.00051
3945.22960,0.00062
3943.16943,0.00048
3941.10926,0.00034
3939.04909,0.00050
3936.98892,0.00082
3934.92874,0.00086
3932.86857,0.00055
3930.80840,0.00033
3928.74823,0.00039
3926.68805,0.00057
3924.62788,0.00073
3922.56771,0.00081
3920.50754,0.00079
3918.44737,0.00065
3916.38719,0.00051
3914.32702,0.00049
3912.26685,0.00057
3910.20668,0.00058
3908.14651,0.00053
3906.08633,0.00057
3904.02616,0.00054
3901.96599,0.00037
3899.90582,0.00032
3897.84565,0.00034
3895.78547,0.00029
3893.72530,0.00023
3891.66513,0.00031
3889.60496,0.00060
3887.54478,0.00096
3885.48461,0.00120
3883.42444,0.00138
3881.36427,0.00144
3879.30410,0.00119
3877.24392,0.00098
3875.18375,0.00109
3873.12358,0.00123
3871.06341,0.00127
3869.00324,0.00115
3866.94306,0.00088
3864.88289,0.00076
3862.82272,0.00086
3860.76255,0.00096
3858.70237,0.00114
3856.64220,0.00168
3854.58203,0.00233
3852.52186,0.00226
3850.46169,0.00143
3848.40151,0.00077
3846.34134,0.00061
3844.28117,0.00077
3842.22100,0.00101
3840.16083,0.00106
3838.10065,0.00089
3836.04048,0.00081
3833.98031,0.00096
3831.92014,0.00109
3829.85997,0.00107
3827.79979,0.00097
3825.73962,0.00082
3823.67945,0.00069
3821.61928,0.00058
3819.55910,0.00063
3817.49893,0.00092
3815.43876,0.00107
3813.37859,0.00097
3811.31842,0.00094
3809.25824,0.00100
3807.19807,0.00088
3805.13790,0.00054
3803.07773,0.00022
3801.01756,0.00015
3798.95738,0.00038
3796.89721,0.00054
3794.83704,0.00045
3792.77687,0.00034
3790.71670,0.00024
3788.65652,0.00021
3786.59635,0.00049
3784.53618,0.00101
3782.47601,0.00133
3780.41583,0.00133
3778.35566,0.00122
3776.29549,0.00124
3774.23532,0.00131
3772.17515,0.00127
3770.11497,0.00120
3768.05480,0.00136
3765.99463,0.00158
3763.93446,0.00160
3761.87429,0.00154
3759.81411,0.00151
3757.75394,0.00157
3755.69377,0.00167
3753.63360,0.00166
3751.57342,0.00141
3749.51325,0.00099
3747.45308,0.00085
3745.39291,0.00081
3743.33274,0.00052
3741.27256,0.00043
3739.21239,0.00053
3737.15222,0.00039
3735.09205,0.00020
3733.03188,0.00040
3730.97170,0.00076
3728.91153,0.00101
3726.85136,0.00121
3724.79119,0.00134
3722.73102,0.00131
3720.67084,0.00114
3718.61067,0.00112
3716.55050,0.00122
3714.49033,0.00100
3712.43015,0.00048
3710.36998,0.00039
3708.30981,0.00088
3706.24964,0.00127
3704.18947,0.00134
3702.12929,0.00125
3700.06912,0.00122
3698.00895,0.00128
3695.94878,0.00118
3693.88861,0.00089
3691.82843,0.00065
3689.76826,0.00065
3687.70809,0.00085
3685.64792,0.00111
3683.58775,0.00152
3681.52757,0.00190
3679.46740,0.00199
3677.40723,0.00187
3675.34706,0.00176
3673.28688,0.00189
3671.22671,0.00222
3669.16654,0.00266
3667.10637,0.00300
3665.04620,0.00314
3662.98602,0.00321
3660.92585,0.00312
3658.86568,0.00281
3656.80551,0.00270
3654.74534,0.00300
3652.68516,0.00320
3650.62499,0.00309
3648.56482,0.00317
3646.50465,0.00361
3644.44447,0.00414
3642.38430,0.00476
3640.32413,0.00533
3638.26396,0.00561
3636.20379,0.00571
3634.14361,0.00586
3632.08344,0.00616
3630.02327,0.00655
3627.96310,0.00669
3625.90293,0.00660
3623.84275,0.00679
3621.78258,0.00724
3619.72241,0.00741
3617.66224,0.00721
3615.60207,0.00724
3613.54189,0.00783
3611.48172,0.00864
3609.42155,0.00919
3607.36138,0.00959
3605.30120,0.01009
3603.24103,0.01048
3601.18086,0.01054
3599.12069,0.01051
3597.06052,0.01081
3595.00034,0.01126
3592.94017,0.01156
3590.88000,0.01193
3588.81983,0.01231
3586.75966,0.01260
3584.69948,0.01310
3582.63931,0.01367
3580.57914,0.01404
3578.51897,0.01426
3576.45879,0.01440
3574.39862,0.01445
3572.33845,0.01458
3570.27828,0.01502
3568.21811,0.01545
3566.15793,0.01552
3564.09776,0.01575
3562.03759,0.01635
3559.97742,0.01688
3557.91725,0.01718
3555.85707,0.01743
3553.79690,0.01773
3551.73673,0.01818
3549.67656,0.01865
3547.61639,0.01887
3545.55621,0.01879
3543.49604,0.01891
3541.43587,0.01946
3539.37570,0.01993
3537.31552,0.02010
3535.25535,0.02031
3533.19518,0.02068
3531.13501,0.02096
3529.07484,0.02118
3527.01466,0.02155
3524.95449,0.02201
3522.89432,0.02232
3520.83415,0.02252
3518.77398,0.02285
3516.71380,0.02338
3514.65363,0.02390
3512.59346,0.02415
3510.53329,0.02417
3508.47312,0.02433
3506.41294,0.02472
3504.35277,0.02502
3502.29260,0.02513
3500.23243,0.02541
3498.17225,0.02587
3496.11208,0.02630
3494.05191,0.02670
3491.99174,0.02704
3489.93157,0.02725
3487.87139,0.02740
3485.81122,0.02760
3483.75105,0.02775
3481.69088,0.02772
3479.63071,0.02781
3477.57053,0.02821
3475.51036,0.02856
3473.45019,0.02880
3471.39002,0.02906
3469.32984,0.02938
3467.26967,0.02970
3465.20950,0.02994
3463.14933,0.03005
3461.08916,0.03010
3459.02898,0.03021
3456.96881,0.03044
3454.90864,0.03078
3452.84847,0.03113
3450.78830,0.03141
3448.72812,0.03168
3446.66795,0.03197
3444.60778,0.03219
3442.54761,0.03241
3440.48744,0.03263
3438.42726,0.03268
3436.36709,0.03258
3434.30692,0.03261
3432.24675,0.03282
3430.18657,0.03304
3428.12640,0.03325
3426.06623,0.03358
3424.00606,0.03393
3421.94589,0.03401
3419.88571,0.03388
3417.82554,0.03392
3415.76537,0.03430
3413.70520,0.03472
3411.64503,0.03494
3409.58485,0.03503
3407.52468,0.03513
3405.46451,0.03534
3403.40434,0.03545
3401.34416,0.03536
3399.28399,0.03549
3397.22382,0.03581
3395.16365,0.03590
3393.10348,0.03572
3391.04330,0.03559
3388.98313,0.03575
3386.92296,0.03618
3384.86279,0.03652
3382.80262,0.03649
3380.74244,0.03646
3378.68227,0.03667
3376.62210,0.03688
3374.56193,0.03705
3372.50176,0.03736
3370.44158,0.03764
3368.38141,0.03768
3366.32124,0.03760
3364.26107,0.03759
3362.20089,0.03761
3360.14072,0.03749
3358.08055,0.03743
3356.02038,0.03764
3353.96021,0.03791
3351.90003,0.03801
3349.83986,0.03800
3347.77969,0.03793
3345.71952,0.03789
3343.65935,0.03803
3341.59917,0.03834
3339.53900,0.03867
3337.47883,0.03880
3335.41866,0.03870
3333.35849,0.03863
3331.29831,0.03881
3329.23814,0.03902
3327.17797,0.03888
3325.11780,0.03848
3323.05762,0.03818
3320.99745,0.03829
3318.93728,0.03877
3316.87711,0.03915
3314.81694,0.03922
3312.75676,0.03915
3310.69659,0.03909
3308.63642,0.03904
3306.57625,0.03902
3304.51608,0.03902
3302.45590,0.03905
3300.39573,0.03909
3298.33556,0.03907
3296.27539,0.03906
3294.21521,0.03915
3292.15504,0.03922
3290.09487,0.03924
3288.03470,0.03924
3285.97453,0.03919
3283.91435,0.03919
3281.85418,0.03931
3279.79401,0.03941
3277.73384,0.03959
3275.67367,0.03999
3273.61349,0.04018
3271.55332,0.03982
3269.49315,0.03933
3267.43298,0.03908
3265.37281,0.03891
3263.31263,0.03880
3261.25246,0.03893
3259.19229,0.03915
3257.13212,0.03934
3255.07194,0.03945
3253.01177,0.03934
3250.95160,0.03922
3248.89143,0.03931
3246.83126,0.03941
3244.77108,0.03930
3242.71091,0.03920
3240.65074,0.03920
3238.59057,0.03921
3236.53040,0.03915
3234.47022,0.03907
3232.41005,0.03895
3230.34988,0.03879
3228.28971,0.03880
3226.22954,0.03904
3224.16936,0.03920
3222.10919,0.03903
3220.04902,0.03854
3217.98885,0.03826
3215.92867,0.03837
3213.86850,0.03853
3211.80833,0.03864
3209.74816,0.03872
3207.68799,0.03864
3205.62781,0.03842
3203.56764,0.03813
3201.50747,0.03787
3199.44730,0.03777
3197.38713,0.03777
3195.32695,0.03770
3193.26678,0.03770
3191.20661,0.03779
3189.14644,0.03773
3187.08626,0.03767
3185.02609,0.03769
3182.96592,0.03749
3180.90575,0.03709
3178.84558,0.03683
3176.78540,0.03684
3174.72523,0.03696
3172.66506,0.03695
3170.60489,0.03677
3168.54472,0.03661
3166.48454,0.03645
3164.42437,0.03634
3162.36420,0.03641
3160.30403,0.03638
3158.24386,0.03604
3156.18368,0.03576
3154.12351,0.03570
3152.06334,0.03563
3150.00317,0.03546
3147.94299,0.03527
3145.88282,0.03508
3143.82265,0.03495
3141.76248,0.03487
3139.70231,0.03473
3137.64213,0.03444
3135.58196,0.03412
3133.52179,0.03390
3131.46162,0.03371
3129.40145,0.03362
3127.34127,0.03372
3125.28110,0.03381
3123.22093,0.03370
3121.16076,0.03345
3119.10058,0.03322
3117.04041,0.03311
3114.98024,0.03313
3112.92007,0.03315
3110.85990,0.03301
3108.79972,0.03276
3106.73955,0.03248
3104.67938,0.03222
3102.61921,0.03201
3100.55904,0.03190
3098.49886,0.03177
3096.43869,0.03154
3094.37852,0.03135
3092.31835,0.03126
3090.25818,0.03128
3088.19800,0.03130
3086.13783,0.03110
3084.07766,0.03082
3082.01749,0.03066
3079.95731,0.03057
3077.89714,0.03052
3075.83697,0.03040
3073.77680,0.03015
3071.71663,0.02995
3069.65645,0.02988
3067.59628,0.02983
3065.53611,0.02964
3063.47594,0.02924
3061.41577,0.02893
3059.35559,0.02881
3057.29542,0.02872
3055.23525,0.02859
3053.17508,0.02837
3051.11491,0.02806
3049.05473,0.02784
3046.99456,0.02771
3044.93439,0.02759
3042.87422,0.02742
3040.81404,0.02713
3038.75387,0.02691
3036.69370,0.02685
3034.63353,0.02672
3032.57336,0.02658
3030.51318,0.02654
3028.45301,0.02645
3026.39284,0.02634
3024.33267,0.02631
3022.27250,0.02618
3020.21232,0.02595
3018.15215,0.02567
3016.09198,0.02541
3014.03181,0.02533
3011.97163,0.02534
3009.91146,0.02515
3007.85129,0.02490
3005.79112,0.02476
3003.73095,0.02464
3001.67077,0.02442
2999.61060,0.02406
2997.55043,0.02384
2995.49026,0.02395
2993.43009,0.02407
2991.36991,0.02409
2989.30974,0.02402
2987.24957,0.02389
2985.18940,0.02377
2983.12923,0.02364
2981.06905,0.02359
2979.00888,0.02359
2976.94871,0.02365
2974.88854,0.02367
2972.82836,0.02355
2970.76819,0.02338
2968.70802,0.02327
2966.64785,0.02329
2964.58768,0.02330
2962.52750,0.02322
2960.46733,0.02322
2958.40716,0.02330
2956.34699,0.02345
2954.28682,0.02354
2952.22664,0.02331
2950.16647,0.02306
2948.10630,0.02313
2946.04613,0.02332
2943.98596,0.02344
2941.92578,0.02353
2939.86561,0.02360
2937.80544,0.02358
2935.74527,0.02349
2933.68509,0.02342
2931.62492,0.02344
2929.56475,0.02352
2927.50458,0.02352
2925.44441,0.02342
2923.38423,0.02329
2921.32406,0.02322
2919.26389,0.02320
2917.20372,0.02308
2915.14355,0.02285
2913.08337,0.02269
2911.02320,0.02252
2908.96303,0.02226
2906.90286,0.02205
2904.84268,0.02192
2902.78251,0.02183
2900.72234,0.02174
2898.66217,0.02160
2896.60200,0.02160
2894.54182,0.02173
2892.48165,0.02176
2890.42148,0.02168
2888.36131,0.02157
2886.30114,0.02149
2884.24096,0.02146
2882.18079,0.02141
2880.12062,0.02123
2878.06045,0.02105
2876.00028,0.02108
2873.94010,0.02115
2871.87993,0.02092
2869.81976,0.02058
2867.75959,0.02039
2865.69941,0.02035
2863.63924,0.02038
2861.57907,0.02032
2859.51890,0.02010
2857.45873,0.01991
2855.39855,0.01990
2853.33838,0.01995
2851.27821,0.01989
2849.21804,0.01978
2847.15787,0.01965
2845.09769,0.01938
2843.03752,0.01912
2840.97735,0.01905
2838.91718,0.01898
2836.85700,0.01878
2834.79683,0.01853
2832.73666,0.01841
2830.67649,0.01844
2828.61632,0.01840
2826.55614,0.01819
2824.49597,0.01796
2822.43580,0.01786
2820.37563,0.01790
2818.31546,0.01795
2816.25528,0.01789
2814.19511,0.01785
2812.13494,0.01783
2810.07477,0.01767
2808.01460,0.01745
2805.95442,0.01733
2803.89425,0.01723
2801.83408,0.01715
2799.77391,0.01722
2797.71373,0.01741
2795.65356,0.01749
2793.59339,0.01729
2791.53322,0.01703
2789.47305,0.01691
2787.41287,0.01672
2785.35270,0.01646
2783.29253,0.01644
2781.23236,0.01663
2779.17219,0.01664
2777.11201,0.01640
2775.05184,0.01614
2772.99167,0.01600
2770.93150,0.01603
2768.87133,0.01606
2766.81115,0.01594
2764.75098,0.01583
2762.69081,0.01586
2760.63064,0.01586
2758.57046,0.01572
2756.51029,0.01556
2754.45012,0.01551
2752.38995,0.01556
2750.32978,0.01569
2748.26960,0.01578
2746.20943,0.01567
2744.14926,0.01540
2742.08909,0.01514
2740.02892,0.01509
2737.96874,0.01520
2735.90857,0.01522
2733.84840,0.01509
2731.78823,0.01487
2729.72805,0.01473
2727.66788,0.01472
2725.60771,0.01473
2723.54754,0.01478
2721.48737,0.01483
2719.42719,0.01472
2717.36702,0.01448
2715.30685,0.01429
2713.24668,0.01426
2711.18651,0.01431
2709.12633,0.01430
2707.06616,0.01422
2705.00599,0.01418
2702.94582,0.01415
2700.88565,0.01404
2698.82547,0.01393
2696.76530,0.01382
2694.70513,0.01371
2692.64496,0.01371
2690.58478,0.01371
2688.52461,0.01353
2686.46444,0.01325
2684.40427,0.01307
2682.34410,0.01303
2680.28392,0.01305
2678.22375,0.01300
2676.16358,0.01294
2674.10341,0.01294
2672.04324,0.01286
2669.98306,0.01263
2667.92289,0.01236
2665.86272,0.01225
2663.80255,0.01237
2661.74238,0.01250
2659.68220,0.01240
2657.62203,0.01228
2655.56186,0.01234
2653.50169,0.01238
2651.44151,0.01228
2649.38134,0.01209
2647.32117,0.01197
2645.26100,0.01193
2643.20083,0.01191
2641.14065,0.01187
2639.08048,0.01168
2637.02031,0.01140
2634.96014,0.01117
2632.89997,0.01115
2630.83979,0.01136
2628.77962,0.01150
2626.71945,0.01133
2624.65928,0.01104
2622.59910,0.01079
2620.53893,0.01059
2618.47876,0.01064
2616.41859,0.01087
2614.35842,0.01080
2612.29824,0.01050
2610.23807,0.01042
2608.17790,0.01033
2606.11773,0.01007
2604.05756,0.01008
2601.99738,0.01039
2599.93721,0.01051
2597.87704,0.01032
2595.81687,0.01004
2593.75670,0.00982
2591.69652,0.00981
2589.63635,0.00986
2587.57618,0.00988
2585.51601,0.01003
2583.45583,0.01012
2581.39566,0.00984
2579.33549,0.00945
2577.27532,0.00926
2575.21515,0.00922
2573.15497,0.00929
2571.09480,0.00960
2569.03463,0.01000
2566.97446,0.01021
2564.91429,0.01009
2562.85411,0.00976
2560.79394,0.00968
2558.73377,0.00984
2556.67360,0.00977
2554.61342,0.00946
2552.55325,0.00919
2550.49308,0.00914
2548.43291,0.00937
2546.37274,0.00967
2544.31256,0.00984
2542.25239,0.00965
2540.19222,0.00918
2538.13205,0.00903
2536.07188,0.00934
2534.01170,0.00969
2531.95153,0.00984
2529.89136,0.00977
2527.83119,0.00954
2525.77102,0.00925
2523.71084,0.00906
2521.65067,0.00912
2519.59050,0.00923
2517.53033,0.00902
2515.47015,0.00865
2513.40998,0.00858
2511.34981,0.00886
2509.28964,0.00911
2507.22947,0.00914
2505.16929,0.00919
2503.10912,0.00938
2501.04895,0.00943
2498.98878,0.00907
2496.92861,0.00875
2494.86843,0.00883
2492.80826,0.00915
2490.74809,0.00940
2488.68792,0.00955
2486.62775,0.00955
2484.56757,0.00937
2482.50740,0.00930
2480.44723,0.00948
2478.38706,0.00980
2476.32688,0.01008
2474.26671,0.00998
2472.20654,0.00953
2470.14637,0.00934
2468.08620,0.00956
2466.02602,0.00986
2463.96585,0.01004
2461.90568,0.01003
2459.84551,0.00991
2457.78534,0.00992
2455.72516,0.01020
2453.66499,0.01034
2451.60482,0.01014
2449.54465,0.00984
2447.48447,0.00983
2445.42430,0.01006
2443.36413,0.01003
2441.30396,0.00968
2439.24379,0.00938
2437.18361,0.00941
2435.12344,0.00967
2433.06327,0.00977
2431.00310,0.00965
2428.94293,0.00961
2426.88275,0.00963
2424.82258,0.00965
2422.76241,0.00968
2420.70224,0.00963
2418.64207,0.00961
2416.58189,0.00969
2414.52172,0.00962
2412.46155,0.00923
2410.40138,0.00898
2408.34120,0.00921
2406.28103,0.00953
2404.22086,0.00958
2402.16069,0.00952
2400.10052,0.00955
2398.04034,0.00955
2395.98017,0.00939
2393.92000,0.00921
2391.85983,0.00914
2389.79966,0.00920
2387.73948,0.00930
2385.67931,0.00940
2383.61914,0.00950
2381.55897,0.00960
2379.49880,0.00961
2377.43862,0.00955
2375.37845,0.00955
2373.31828,0.00959
2371.25811,0.00948
2369.19793,0.00877
2367.13776,0.00737
2365.07759,0.00655
2363.01742,0.00694
2360.95725,0.00655
2358.89707,0.00504
2356.83690,0.00478
2354.77673,0.00627
2352.71656,0.00800
2350.65639,0.00879
2348.59621,0.00877
2346.53604,0.00864
2344.47587,0.00887
2342.41570,0.00945
2340.35552,0.00998
2338.29535,0.01038
2336.23518,0.01071
2334.17501,0.01053
2332.11484,0.00975
2330.05466,0.00928
2327.99449,0.00975
2325.93432,0.01045
2323.87415,0.01042
2321.81398,0.00968
2319.75380,0.00915
2317.69363,0.00938
2315.63346,0.00976
2313.57329,0.00969
2311.51312,0.00929
2309.45294,0.00888
2307.39277,0.00877
2305.33260,0.00898
2303.27243,0.00937
2301.21225,0.00974
2299.15208,0.00978
2297.09191,0.00951
2295.03174,0.00933
2292.97157,0.00916
2290.91139,0.00883
2288.85122,0.00864
2286.79105,0.00879
2284.73088,0.00911
2282.67071,0.00925
2280.61053,0.00895
2278.55036,0.00844
2276.49019,0.00819
2274.43002,0.00813
2272.36984,0.00812
2270.30967,0.00824
2268.24950,0.00817
2266.18933,0.00767
2264.12916,0.00718
2262.06898,0.00714
2260.00881,0.00727
2257.94864,0.00724
2255.88847,0.00712
2253.82830,0.00712
2251.76812,0.00732
2249.70795,0.00744
2247.64778,0.00731
2245.58761,0.00699
2243.52744,0.00654
2241.46726,0.00662
2239.40709,0.00715
2237.34692,0.00732
2235.28675,0.00732
2233.22657,0.00742
2231.16640,0.00705
2229.10623,0.00643
2227.04606,0.00639
2224.98589,0.00695
2222.92571,0.00721
2220.86554,0.00683
2218.80537,0.00649
2216.74520,0.00664
2214.68503,0.00708
2212.62485,0.00720
2210.56468,0.00681
2208.50451,0.00633
2206.44434,0.00598
2204.38417,0.00619
2202.32399,0.00652
2200.26382,0.00592
2198.20365,0.00515
2196.14348,0.00525
2194.08330,0.00579
2192.02313,0.00628
2189.96296,0.00630
2187.90279,0.00582
2185.84262,0.00600
2183.78244,0.00635
2181.72227,0.00582
2179.66210,0.00500
2177.60193,0.00450
2175.54176,0.00472
2173.48158,0.00585
2171.42141,0.00662
2169.36124,0.00580
2167.30107,0.00485
2165.24089,0.00521
2163.18072,0.00535
2161.12055,0.00434
2159.06038,0.00404
2157.00021,0.00468
2154.94003,0.00441
2152.87986,0.00330
2150.81969,0.00314
2148.75952,0.00424
2146.69935,0.00512
2144.63917,0.00564
2142.57900,0.00626
2140.51883,0.00650
2138.45866,0.00555
2136.39849,0.00383
2134.33831,0.00340
2132.27814,0.00434
2130.21797,0.00480
2128.15780,0.00472
2126.09762,0.00489
2124.03745,0.00502
2121.97728,0.00500
2119.91711,0.00539
2117.85694,0.00605
2115.79676,0.00627
2113.73659,0.00595
2111.67642,0.00586
2109.61625,0.00615
2107.55608,0.00633
2105.49590,0.00631
2103.43573,0.00598
2101.37556,0.00552
2099.31539,0.00515
2097.25521,0.00488
2095.19504,0.00508
2093.13487,0.00556
2091.07470,0.00565
2089.01453,0.00560
2086.95435,0.00566
2084.89418,0.00555
2082.83401,0.00534
2080.77384,0.00517
2078.71367,0.00479
2076.65349,0.00431
2074.59332,0.00425
2072.53315,0.00468
2070.47298,0.00515
2068.41281,0.00520
2066.35263,0.00451
2064.29246,0.00369
2062.23229,0.00371
2060.17212,0.00432
2058.11194,0.00474
2056.05177,0.00481
2053.99160,0.00475
2051.93143,0.00453
2049.87126,0.00432
2047.81108,0.00409
2045.75091,0.00378
2043.69074,0.00360
2041.63057,0.00302
2039.57040,0.00234
2037.51022,0.00266
2035.45005,0.00340
2033.38988,0.00324
2031.32971,0.00274
2029.26954,0.00346
2027.20936,0.00462
2025.14919,0.00438
2023.08902,0.00362
2021.02885,0.00402
2018.96867,0.00466
2016.90850,0.00439
2014.84833,0.00437
2012.78816,0.00529
2010.72799,0.00589
2008.66781,0.00534
2006.60764,0.00420
2004.54747,0.00324
2002.48730,0.00291
2000.42713,0.00300
1998.36695,0.00312
1996.30678,0.00361
1994.24661,0.00461
1992.18644,0.00547
1990.12626,0.00585
1988.06609,0.00552
1986.00592,0.00478
1983.94575,0.00446
1981.88558,0.00436
1979.82540,0.00381
1977.76523,0.00290
1975.70506,0.00257
1973.64489,0.00317
1971.58472,0.00371
1969.52454,0.00359
1967.46437,0.00276
1965.40420,0.00179
1963.34403,0.00175
1961.28386,0.00242
1959.22368,0.00320
1957.16351,0.00405
1955.10334,0.00458
1953.04317,0.00473
1950.98299,0.00498
1948.92282,0.00502
1946.86265,0.00467
1944.80248,0.00452
1942.74231,0.00464
1940.68213,0.00451
1938.62196,0.00391
1936.56179,0.00321
1934.50162,0.00323
1932.44145,0.00409
1930.38127,0.00474
1928.32110,0.00458
1926.26093,0.00420
1924.20076,0.00401
1922.14059,0.00380
1920.08041,0.00349
1918.02024,0.00329
1915.96007,0.00325
1913.89990,0.00339
1911.83972,0.00383
1909.77955,0.00433
1907.71938,0.00443
1905.65921,0.00422
1903.59904,0.00424
1901.53886,0.00463
1899.47869,0.00485
1897.41852,0.00453
1895.35835,0.00404
1893.29818,0.00391
1891.23800,0.00412
1889.17783,0.00424
1887.11766,0.00418
1885.05749,0.00418
1882.99731,0.00415
1880.93714,0.00409
1878.87697,0.00410
1876.81680,0.00408
1874.75663,0.00398
1872.69645,0.00395
1870.63628,0.00396
1868.57611,0.00385
1866.51594,0.00374
1864.45577,0.00387
1862.39559,0.00412
1860.33542,0.00426
1858.27525,0.00425
1856.21508,0.00422
1854.15491,0.00430
1852.09473,0.00442
1850.03456,0.00451
1847.97439,0.00450
1845.91422,0.00423
1843.85404,0.00373
1841.79387,0.00339
1839.73370,0.00346
1837.67353,0.00381
1835.61336,0.00423
1833.55318,0.00450
1831.49301,0.00439
1829.43284,0.00409
1827.37267,0.00407
1825.31250,0.00423
1823.25232,0.00430
1821.19215,0.00432
1819.13198,0.00434
1817.07181,0.00441
1815.01163,0.00447
1812.95146,0.00435
1810.89129,0.00415
1808.83112,0.00416
1806.77095,0.00442
1804.71077,0.00466
1802.65060,0.00463
1800.59043,0.00437
1798.53026,0.00418
1796.47009,0.00422
1794.40991,0.00433
1792.34974,0.00438
1790.28957,0.00446
1788.22940,0.00455
1786.16923,0.00454
1784.10905,0.00447
1782.04888,0.00442
1779.98871,0.00442
1777.92854,0.00445
1775.86836,0.00445
1773.80819,0.00442
1771.74802,0.00449
1769.68785,0.00471
1767.62768,0.00494
1765.56750,0.00513
1763.50733,0.00527
1761.44716,0.00530
1759.38699,0.00533
1757.32682,0.00549
1755.26664,0.00577
1753.20647,0.00610
1751.14630,0.00627
1749.08613,0.00610
1747.02596,0.00595
1744.96578,0.00613
1742.90561,0.00647
1740.84544,0.00671
1738.78527,0.00684
1736.72509,0.00696
1734.66492,0.00688
1732.60475,0.00664
1730.54458,0.00673
1728.48441,0.00703
1726.42423,0.00722
1724.36406,0.00728
1722.30389,0.00744
1720.24372,0.00773
1718.18355,0.00780
1716.12337,0.00762
1714.06320,0.00765
1712.00303,0.00792
1709.94286,0.00811
1707.88268,0.00807
1705.82251,0.00799
1703.76234,0.00817
1701.70217,0.00848
1699.64200,0.00860
1697.58182,0.00870
1695.52165,0.00907
1693.46148,0.00968
1691.40131,0.01021
1689.34114,0.01044
1687.28096,0.01046
1685.22079,0.01042
1683.16062,0.01060
1681.10045,0.01121
1679.04028,0.01200
1676.98010,0.01261
1674.91993,0.01280
1672.85976,0.01276
1670.79959,0.01278
1668.73941,0.01300
1666.67924,0.01350
1664.61907,0.01404
1662.55890,0.01443
1660.49873,0.01482
1658.43855,0.01526
1656.37838,0.01553
1654.31821,0.01538
1652.25804,0.01519
1650.19787,0.01548
1648.13769,0.01575
1646.07752,0.01573
1644.01735,0.01581
1641.95718,0.01608
1639.89701,0.01627
1637.83683,0.01606
1635.77666,0.01554
1633.71649,0.01544
1631.65632,0.01576
1629.59614,0.01599
1627.53597,0.01598
1625.47580,0.01588
1623.41563,0.01577
1621.35546,0.01582
1619.29528,0.01594
1617.23511,0.01572
1615.17494,0.01536
1613.11477,0.01541
1611.05460,0.01556
1608.99442,0.01547
1606.93425,0.01527
1604.87408,0.01512
1602.81391,0.01496
1600.75373,0.01474
1598.69356,0.01443
1596.63339,0.01408
1594.57322,0.01373
1592.51305,0.01343
1590.45287,0.01307
1588.39270,0.01254
1586.33253,0.01195
1584.27236,0.01143
1582.21219,0.01110
1580.15201,0.01098
1578.09184,0.01077
1576.03167,0.01014
1573.97150,0.00962
1571.91133,0.00946
1569.85115,0.00916
1567.79098,0.00868
1565.73081,0.00846
1563.67064,0.00853
1561.61046,0.00864
1559.55029,0.00824
1557.49012,0.00742
1555.42995,0.00710
1553.36978,0.00711
1551.30960,0.00710
1549.24943,0.00704
1547.18926,0.00698
1545.12909,0.00688
1543.06892,0.00664
1541.00874,0.00624
1538.94857,0.00584
1536.88840,0.00580
1534.82823,0.00585
1532.76805,0.00570
1530.70788,0.00561
1528.64771,0.00559
1526.58754,0.00543
1524.52737,0.00520
1522.46719,0.00493
1520.40702,0.00462
1518.34685,0.00445
1516.28668,0.00452
1514.22651,0.00474
1512.16633,0.00484
1510.10616,0.00458
1508.04599,0.00403
1505.98582,0.00367
1503.92565,0.00382
1501.86547,0.00414
1499.80530,0.00436
1497.74513,0.00440
1495.68496,0.00435
1493.62478,0.00429
1491.56461,0.00407
1489.50444,0.00370
1487.44427,0.00359
1485.38410,0.00384
1483.32392,0.00421
1481.26375,0.00451
1479.20358,0.00465
1477.14341,0.00467
1475.08324,0.00468
1473.02306,0.00484
1470.96289,0.00516
1468.90272,0.00548
1466.84255,0.00566
1464.78238,0.00568
1462.72220,0.00574
1460.66203,0.00593
1458.60186,0.00600
1456.54169,0.00597
1454.48151,0.00619
1452.42134,0.00650
1450.36117,0.00661
1448.30100,0.00651
1446.24083,0.00641
1444.18065,0.00646
1442.12048,0.00659
1440.06031,0.00668
1438.00014,0.00668
1435.93997,0.00665
1433.87979,0.00675
1431.81962,0.00698
1429.75945,0.00718
1427.69928,0.00732
1425.63910,0.00748
1423.57893,0.00765
1421.51876,0.00780
1419.45859,0.00789
1417.39842,0.00798
1415.33824,0.00807
1413.27807,0.00803
1411.21790,0.00790
1409.15773,0.00786
1407.09756,0.00785
1405.03738,0.00773
1402.97721,0.00755
1400.91704,0.00739
1398.85687,0.00715
1396.79670,0.00691
1394.73652,0.00687
1392.67635,0.00700
1390.61618,0.00709
1388.55601,0.00698
1386.49583,0.00686
1384.43566,0.00688
1382.37549,0.00695
1380.31532,0.00700
1378.25515,0.00703
1376.19497,0.00703
1374.13480,0.00693
1372.07463,0.00680
1370.01446,0.00680
1367.95429,0.00693
1365.89411,0.00695
1363.83394,0.00672
1361.77377,0.00637
1359.71360,0.00620
1357.65343,0.00620
1355.59325,0.00621
1353.53308,0.00610
1351.47291,0.00585
1349.41274,0.00565
1347.35256,0.00563
1345.29239,0.00573
1343.23222,0.00578
1341.17205,0.00567
1339.11188,0.00544
1337.05170,0.00529
1334.99153,0.00525
1332.93136,0.00527
1330.87119,0.00528
1328.81102,0.00527
1326.75084,0.00529
1324.69067,0.00532
1322.63050,0.00541
1320.57033,0.00552
1318.51015,0.00552
1316.44998,0.00543
1314.38981,0.00530
1312.32964,0.00515
1310.26947,0.00513
1308.20929,0.00526
1306.14912,0.00539
1304.08895,0.00540
1302.02878,0.00535
1299.96861,0.00535
1297.90843,0.00541
1295.84826,0.00549
1293.78809,0.00553
1291.72792,0.00547
1289.66775,0.00541
1287.60757,0.00536
1285.54740,0.00531
1283.48723,0.00537
1281.42706,0.00555
1279.36688,0.00564
1277.30671,0.00569
1275.24654,0.00577
1273.18637,0.00581
1271.12620,0.00576
1269.06602,0.00570
1267.00585,0.00575
1264.94568,0.00588
1262.88551,0.00593
1260.82534,0.00591
1258.76516,0.00598
1256.70499,0.00610
1254.64482,0.00616
1252.58465,0.00615
1250.52447,0.00609
1248.46430,0.00594
1246.40413,0.00574
1244.34396,0.00556
1242.28379,0.00545
1240.22361,0.00538
1238.16344,0.00527
1236.10327,0.00505
1234.04310,0.00482
1231.98293,0.00471
1229.92275,0.00465
1227.86258,0.00454
1225.80241,0.00437
1223.74224,0.00413
1221.68207,0.00384
1219.62189,0.00362
1217.56172,0.00349
1215.50155,0.00332
1213.44138,0.00307
1211.38120,0.00290
1209.32103,0.00285
1207.26086,0.00276
1205.20069,0.00257
1203.14052,0.00242
1201.08034,0.00242
1199.02017,0.00248
1196.96000,0.00258
1194.89983,0.00283
1192.83966,0.00303
1190.77948,0.00313
1188.71931,0.00328
1186.65914,0.00352
1184.59897,0.00384
1182.53880,0.00418
1180.47862,0.00457
1178.41845,0.00512
1176.35828,0.00573
1174.29811,0.00644
1172.23793,0.00722
1170.17776,0.00790
1168.11759,0.00856
1166.05742,0.00922
1163.99725,0.00982
1161.93707,0.01041
1159.87690,0.01105
1157.81673,0.01165
1155.75656,0.01220
1153.69639,0.01271
1151.63621,0.01319
1149.57604,0.01385
1147.51587,0.01474
1145.45570,0.01563
1143.39552,0.01636
1141.33535,0.01699
1139.27518,0.01763
1137.21501,0.01827
1135.15484,0.01893
1133.09466,0.01976
1131.03449,0.02066
1128.97432,0.02136
1126.91415,0.02196
1124.85398,0.02267
1122.79380,0.02348
1120.73363,0.02424
1118.67346,0.02495
1116.61329,0.02573
1114.55312,0.02655
1112.49294,0.02727
1110.43277,0.02810
1108.37260,0.02914
1106.31243,0.03014
1104.25225,0.03105
1102.19208,0.03195
1100.13191,0.03288
1098.07174,0.03375
1096.01157,0.03441
1093.95139,0.03497
1091.89122,0.03578
1089.83105,0.03675
1087.77088,0.03761
1085.71071,0.03844
1083.65053,0.03926
1081.59036,0.03997
1079.53019,0.04066
1077.47002,0.04135
1075.40985,0.04194
1073.34967,0.04228
1071.28950,0.04243
1069.22933,0.04248
1067.16916,0.04250
1065.10898,0.04260
1063.04881,0.04276
1060.98864,0.04282
1058.92847,0.04264
1056.86830,0.04219
1054.80812,0.04172
1052.74795,0.04138
1050.68778,0.04099
1048.62761,0.04045
1046.56744,0.03985
1044.50726,0.03927
1042.44709,0.03872
1040.38692,0.03814
1038.32675,0.03747
1036.26657,0.03675
1034.20640,0.03594
1032.14623,0.03516
1030.08606,0.03450
1028.02589,0.03397
1025.96571,0.03352
1023.90554,0.03296
1021.84537,0.03219
1019.78520,0.03138
1017.72503,0.03081
1015.66485,0.03028
1013.60468,0.02964
1011.54451,0.02903
1009.48434,0.02844
1007.42417,0.02780
1005.36399,0.02719
1003.30382,0.02670
1001.24365,0.02668
999.18348,0.02713
997.12330,0.02753
995.06313,0.02774
993.00296,0.02799
990.94279,0.02835
988.88262,0.02875
986.82244,0.02900
984.76227,0.02895
982.70210,0.02879
980.64193,0.02858
978.58176,0.02794
976.52158,0.02689
974.46141,0.02585
972.40124,0.02497
970.34107,0.02407
968.28089,0.02297
966.22072,0.02173
964.16055,0.02064
962.10038,0.01981
960.04021,0.01893
957.98003,0.01803
955.91986,0.01736
953.85969,0.01670
951.79952,0.01589
949.73935,0.01520
947.67917,0.01471
945.61900,0.01430
943.55883,0.01393
941.49866,0.01360
939.43849,0.01326
937.37831,0.01281
935.31814,0.01232
933.25797,0.01218
931.19780,0.01221
929.13762,0.01202
927.07745,0.01181
925.01728,0.01169
922.95711,0.01162
920.89694,0.01151
918.83676,0.01113
916.77659,0.01050
914.71642,0.00993
912.65625,0.00952
910.59608,0.00931
908.53590,0.00921
906.47573,0.00905
904.41556,0.00898
902.35539,0.00907
900.29522,0.00911
898.23504,0.00906
896.17487,0.00901
894.11470,0.00918
892.05453,0.00957
889.99435,0.00969
887.93418,0.00958
885.87401,0.00970
883.81384,0.00989
881.75367,0.00995
879.69349,0.01018
877.63332,0.01062
875.57315,0.01092
873.51298,0.01115
871.45281,0.01142
869.39263,0.01136
867.33246,0.01113
865.27229,0.01107
863.21212,0.01103
861.15194,0.01102
859.09177,0.01106
857.03160,0.01107
854.97143,0.01116
852.91126,0.01114
850.85108,0.01081
848.79091,0.01033
846.73074,0.00977
844.67057,0.00928
842.61040,0.00919
840.55022,0.00928
838.49005,0.00896
836.42988,0.00860
834.36971,0.00855
832.30954,0.00838
830.24936,0.00804
828.18919,0.00766
826.12902,0.00730
824.06885,0.00696
822.00867,0.00662
819.94850,0.00642
817.88833,0.00645
815.82816,0.00648
813.76799,0.00629
811.70781,0.00607
809.64764,0.00595
807.58747,0.00582
805.52730,0.00556
803.46713,0.00521
801.40695,0.00493
799.34678,0.00492
797.28661,0.00513
795.22644,0.00511
793.16627,0.00482
791.10609,0.00453
789.04592,0.00434
786.98575,0.00434
784.92558,0.00449
782.86540,0.00461
780.80523,0.00469
778.74506,0.00465
776.68489,0.00427
774.62472,0.00379
772.56454,0.00375
770.50437,0.00406
768.44420,0.00421
766.38403,0.00424
764.32386,0.00441
762.26368,0.00444
760.20351,0.00435
758.14334,0.00434
756.08317,0.00379
754.02299,0.00295
751.96282,0.00281
749.90265,0.00311
747.84248,0.00311
745.78231,0.00281
743.72213,0.00281
741.66196,0.00327
739.60179,0.00362
737.54162,0.00352
735.48145,0.00331
733.42127,0.00332
731.36110,0.00346
729.30093,0.00349
727.24076,0.00324
725.18059,0.00318
723.12041,0.00364
721.06024,0.00411
719.00007,0.00411
716.93990,0.00359
714.87972,0.00307
712.81955,0.00302
710.75938,0.00326
708.69921,0.00340
706.63904,0.00354
704.57886,0.00393
702.51869,0.00437
700.45852,0.00436
698.39835,0.00379
696.33818,0.00319
694.27800,0.00297
692.21783,0.00286
690.15766,0.00277
688.09749,0.00294
686.03731,0.00299
683.97714,0.00274
681.91697,0.00251
679.85680,0.00228
677.79663,0.00217
675.73645,0.00282
673.67628,0.00402
671.61611,0.00458
669.55594,0.00420
667.49577,0.00366
665.43559,0.00350
663.37542,0.00361
661.31525,0.00346
659.25508,0.00292
657.19491,0.00219
655.13473,0.00137
653.07456,0.00108
651.01439,0.00177
648.95422,0.00290
646.89404,0.00359
644.83387,0.00355
642.77370,0.00320
640.71353,0.00296
638.65336,0.00296
636.59318,0.00296
634.53301,0.00276
632.47284,0.00302
630.41267,0.00423
628.35250,0.00507
626.29232,0.00403
624.23215,0.00268
622.17198,0.00254
620.11181,0.00272
618.05164,0.00330
615.99146,0.00370
613.93129,0.00259
611.87112,0.00152
609.81095,0.00209
607.75077,0.00305
605.69060,0.00238
603.63043,0.00093
601.57026,0.00000
599.51009,0.00000
