3996.73391,0.00055
3994.67373,0.00061
3992.61356,0.00058
3990.55339,0.00058
3988.49322,0.00069
3986.43305,0.00078
3984.37287,0.00066
3982.31270,0.00040
3980.25253,0.00027
3978.19236,0.00033
3976.13219,0.00026
3974.07201,0.00003
3972.01184,0.00000
3969.95167,0.00028
3967.89150,0.00060
3965.83133,0.00068
3963.77115,0.00054
3961.71098,0.00042
3959.65081,0.00042
3957.59064,0.00052
3955.53046,0.00066
3953.47029,0.00064
3951.41012,0.00046
3949.34995,0.00037
3947.28978,0.00049
3945.22960,0.00057
3943.16943,0.00059
3941.10926,0.00065
3939.04909,0.00059
3936.98892,0.00051
3934.92874,0.00062
3932.86857,0.00089
3930.80840,0.00110
3928.74823,0.00105
3926.68805,0.00088
3924.62788,0.00081
3922.56771,0.00077
3920.50754,0.00073
3918.44737,0.00066
3916.38719,0.00058
3914.32702,0.00070
3912.26685,0.00095
3910.20668,0.00114
3908.14651,0.00127
3906.08633,0.00142
3904.02616,0.00156
3901.96599,0.00135
3899.90582,0.00084
3897.84565,0.00069
3895.78547,0.00104
3893.72530,0.00138
3891.66513,0.00130
3889.60496,0.00097
3887.54478,0.00074
3885.48461,0.00056
3883.42444,0.00059
3881.36427,0.00090
3879.30410,0.00112
3877.24392,0.00114
3875.18375,0.00108
3873.12358,0.00091
3871.06341,0.00071
3869.00324,0.00059
3866.94306,0.00051
3864.88289,0.00041
3862.82272,0.00032
3860.76255,0.00038
3858.70237,0.00082
3856.64220,0.00150
3854.58203,0.00178
3852.52186,0.00138
3850.46169,0.00108
3848.40151,0.00116
3846.34134,0.00133
3844.28117,0.00132
3842.22100,0.00100
3840.16083,0.00070
3838.10065,0.00067
3836.04048,0.00065
3833.98031,0.00049
3831.92014,0.00051
3829.85997,0.00091
3827.79979,0.00130
3825.73962,0.00137
3823.67945,0.00124
3821.61928,0.00102
3819.55910,0.00089
3817.49893,0.00089
3815.43876,0.00086
3813.37859,0.00088
3811.31842,0.00104
3809.25824,0.00124
3807.19807,0.00127
3805.13790,0.00100
3803.07773,0.00054
3801.01756,0.00035
3798.95738,0.00075
3796.89721,0.00116
3794.83704,0.00103
3792.77687,0.00063
3790.71670,0.00047
3788.65652,0.00062
3786.59635,0.00085
3784.53618,0.00103
3782.47601,0.00127
3780.41583,0.00153
3778.35566,0.00158
3776.29549,0.00135
3774.23532,0.00102
3772.17515,0.00069
3770.11497,0.00055
3768.05480,0.00073
3765.99463,0.00088
3763.93446,0.00089
3761.87429,0.00097
3759.81411,0.00089
3757.75394,0.00058
3755.69377,0.00041
3753.63360,0.00056
3751.57342,0.00093
3749.51325,0.00131
3747.45308,0.00113
3745.39291,0.00036
3743.33274,0.00000
3741.27256,0.00056
3739.21239,0.00111
3737.15222,0.00112
3735.09205,0.00093
3733.03188,0.00099
3730.97170,0.00097
3728.91153,0.00077
3726.85136,0.00053
3724.79119,0.00040
3722.73102,0.00061
3720.67084,0.00089
3718.61067,0.00104
3716.55050,0.00102
3714.49033,0.00101
3712.43015,0.00093
3710.36998,0.00067
3708.30981,0.00092
3706.24964,0.00142
3704.18947,0.00159
3702.12929,0.00127
3700.06912,0.00101
3698.00895,0.00130
3695.94878,0.00172
3693.88861,0.00192
3691.82843,0.00173
3689.76826,0.00152
3687.70809,0.00167
3685.64792,0.00200
3683.58775,0.00230
3681.52757,0.00263
3679.46740,0.00284
3677.40723,0.00271
3675.34706,0.00214
3673.28688,0.00174
3671.22671,0.00186
3669.16654,0.00226
3667.10637,0.00268
3665.04620,0.00303
3662.98602,0.00320
3660.92585,0.00313
3658.86568,0.00302
3656.80551,0.00322
3654.74534,0.00375
3652.68516,0.00428
3650.62499,0.00473
3648.56482,0.00509
3646.50465,0.00534
3644.44447,0.00577
3642.38430,0.00629
3640.32413,0.00659
3638.26396,0.00669
3636.20379,0.00691
3634.14361,0.00751
3632.08344,0.00799
3630.02327,0.00785
3627.96310,0.00761
3625.90293,0.00797
3623.84275,0.00852
3621.78258,0.00901
3619.72241,0.00940
3617.66224,0.00955
3615.60207,0.00965
3613.54189,0.00999
3611.48172,0.01105
3609.42155,0.01229
3607.36138,0.01286
3605.30120,0.01288
3603.24103,0.01282
3601.18086,0.01299
3599.12069,0.01327
3597.06052,0.01368
3595.00034,0.01415
3592.94017,0.01453
3590.88000,0.01467
3588.81983,0.01499
3586.75966,0.01556
3584.69948,0.01603
3582.63931,0.01630
3580.57914,0.01660
3578.51897,0.01701
3576.45879,0.01741
3574.39862,0.01777
3572.33845,0.01808
3570.27828,0.01835
3568.21811,0.01860
3566.15793,0.01902
3564.09776,0.01966
3562.03759,0.02036
3559.97742,0.02094
3557.91725,0.02125
3555.85707,0.02147
3553.79690,0.02193
3551.73673,0.02261
3549.67656,0.02315
3547.61639,0.02336
3545.55621,0.02349
3543.49604,0.02382
3541.43587,0.02435
3539.37570,0.02482
3537.31552,0.02504
3535.25535,0.02522
3533.19518,0.02557
3531.13501,0.02597
3529.07484,0.02642
3527.01466,0.02704
3524.95449,0.02775
3522.89432,0.02846
3520.83415,0.02900
3518.77398,0.02928
3516.71380,0.02940
3514.65363,0.02938
3512.59346,0.02936
3510.53329,0.02960
3508.47312,0.03004
3506.41294,0.03038
3504.35277,0.03056
3502.29260,0.03088
3500.23243,0.03143
3498.17225,0.03188
3496.11208,0.03203
3494.05191,0.03211
3491.99174,0.03238
3489.93157,0.03275
3487.87139,0.03314
3485.81122,0.03359
3483.75105,0.03407
3481.69088,0.03431
3479.63071,0.03418
3477.57053,0.03421
3475.51036,0.03468
3473.45019,0.03511
3471.39002,0.03533
3469.32984,0.03560
3467.26967,0.03595
3465.20950,0.03630
3463.14933,0.03663
3461.08916,0.03688
3459.02898,0.03714
3456.96881,0.03757
3454.90864,0.03808
3452.84847,0.03841
3450.78830,0.03847
3448.72812,0.03839
3446.66795,0.03856
3444.60778,0.03898
3442.54761,0.03924
3440.48744,0.03942
3438.42726,0.03986
3436.36709,0.04041
3434.30692,0.04062
3432.24675,0.04054
3430.18657,0.04048
3428.12640,0.04065
3426.06623,0.04096
3424.00606,0.04124
3421.94589,0.04143
3419.88571,0.04153
3417.82554,0.04170
3415.76537,0.04213
3413.70520,0.04255
3411.64503,0.04261
3409.58485,0.04253
3407.52468,0.04253
3405.46451,0.04268
3403.40434,0.04311
3401.34416,0.04356
3399.28399,0.04375
3397.22382,0.04375
3395.16365,0.04384
3393.10348,0.04422
3391.04330,0.04456
3388.98313,0.04446
3386.92296,0.04416
3384.86279,0.04417
3382.80262,0.04449
3380.74244,0.04473
3378.68227,0.04477
3376.62210,0.04463
3374.56193,0.04442
3372.50176,0.04449
3370.44158,0.04482
3368.38141,0.04511
3366.32124,0.04519
3364.26107,0.04513
3362.20089,0.04502
3360.14072,0.04493
3358.08055,0.04507
3356.02038,0.04536
3353.96021,0.04553
3351.90003,0.04551
3349.83986,0.04541
3347.77969,0.04548
3345.71952,0.04572
3343.65935,0.04573
3341.59917,0.04542
3339.53900,0.04520
3337.47883,0.04538
3335.41866,0.04586
3333.35849,0.04619
3331.29831,0.04609
3329.23814,0.04575
3327.17797,0.04556
3325.11780,0.04574
3323.05762,0.04600
3320.99745,0.04608
3318.93728,0.04603
3316.87711,0.04586
3314.81694,0.04563
3312.75676,0.04553
3310.69659,0.04561
3308.63642,0.04575
3306.57625,0.04593
3304.51608,0.04608
3302.45590,0.04606
3300.39573,0.04598
3298.33556,0.04598
3296.27539,0.04589
3294.21521,0.04571
3292.15504,0.04567
3290.09487,0.04577
3288.03470,0.04593
3285.97453,0.04602
3283.91435,0.04599
3281.85418,0.04591
3279.79401,0.04581
3277.73384,0.04576
3275.67367,0.04584
3273.61349,0.04599
3271.55332,0.04603
3269.49315,0.04598
3267.43298,0.04589
3265.37281,0.04573
3263.31263,0.04563
3261.25246,0.04565
3259.19229,0.04559
3257.13212,0.04547
3255.07194,0.04561
3253.01177,0.04596
3250.95160,0.04608
3248.89143,0.04601
3246.83126,0.04601
3244.77108,0.04603
3242.71091,0.04582
3240.65074,0.04554
3238.59057,0.04549
3236.53040,0.04539
3234.47022,0.04503
3232.41005,0.04472
3230.34988,0.04465
3228.28971,0.04476
3226.22954,0.04501
3224.16936,0.04520
3222.10919,0.04518
3220.04902,0.04509
3217.98885,0.04493
3215.92867,0.04475
3213.86850,0.04469
3211.80833,0.04465
3209.74816,0.04453
3207.68799,0.04423
3205.62781,0.04377
3203.56764,0.04346
3201.50747,0.04348
3199.44730,0.04347
3197.38713,0.04325
3195.32695,0.04331
3193.26678,0.04349
3191.20661,0.04323
3189.14644,0.04287
3187.08626,0.04283
3185.02609,0.04286
3182.96592,0.04278
3180.90575,0.04265
3178.84558,0.04252
3176.78540,0.04231
3174.72523,0.04199
3172.66506,0.04180
3170.60489,0.04183
3168.54472,0.04171
3166.48454,0.04135
3164.42437,0.04109
3162.36420,0.04108
3160.30403,0.04105
3158.24386,0.04081
3156.18368,0.04053
3154.12351,0.04032
3152.06334,0.04009
3150.00317,0.03982
3147.94299,0.03972
3145.88282,0.03972
3143.82265,0.03958
3141.76248,0.03934
3139.70231,0.03920
3137.64213,0.03915
3135.58196,0.03892
3133.52179,0.03857
3131.46162,0.03844
3129.40145,0.03846
3127.34127,0.03838
3125.28110,0.03821
3123.22093,0.03811
3121.16076,0.03794
3119.10058,0.03750
3117.04041,0.03701
3114.98024,0.03678
3112.92007,0.03680
3110.85990,0.03686
3108.79972,0.03664
3106.73955,0.03606
3104.67938,0.03555
3102.61921,0.03530
3100.55904,0.03520
3098.49886,0.03517
3096.43869,0.03520
3094.37852,0.03519
3092.31835,0.03505
3090.25818,0.03473
3088.19800,0.03430
3086.13783,0.03408
3084.07766,0.03418
3082.01749,0.03406
3079.95731,0.03355
3077.89714,0.03326
3075.83697,0.03339
3073.77680,0.03356
3071.71663,0.03353
3069.65645,0.03328
3067.59628,0.03289
3065.53611,0.03256
3063.47594,0.03227
3061.41577,0.03196
3059.35559,0.03185
3057.29542,0.03186
3055.23525,0.03155
3053.17508,0.03098
3051.11491,0.03060
3049.05473,0.03065
3046.99456,0.03069
3044.93439,0.03035
3042.87422,0.03000
3040.81404,0.02992
3038.75387,0.02989
3036.69370,0.02970
3034.63353,0.02944
3032.57336,0.02919
3030.51318,0.02897
3028.45301,0.02883
3026.39284,0.02875
3024.33267,0.02860
3022.27250,0.02836
3020.21232,0.02812
3018.15215,0.02793
3016.09198,0.02766
3014.03181,0.02735
3011.97163,0.02711
3009.91146,0.02681
3007.85129,0.02660
3005.79112,0.02664
3003.73095,0.02671
3001.67077,0.02663
2999.61060,0.02642
2997.55043,0.02615
2995.49026,0.02601
2993.43009,0.02599
2991.36991,0.02586
2989.30974,0.02575
2987.24957,0.02569
2985.18940,0.02551
2983.12923,0.02522
2981.06905,0.02504
2979.00888,0.02509
2976.94871,0.02516
2974.88854,0.02496
2972.82836,0.02468
2970.76819,0.02462
2968.70802,0.02464
2966.64785,0.02471
2964.58768,0.02489
2962.52750,0.02503
2960.46733,0.02510
2958.40716,0.02512
2956.34699,0.02506
2954.28682,0.02505
2952.22664,0.02506
2950.16647,0.02512
2948.10630,0.02531
2946.04613,0.02534
2943.98596,0.02525
2941.92578,0.02518
2939.86561,0.02511
2937.80544,0.02505
2935.74527,0.02492
2933.68509,0.02476
2931.62492,0.02488
2929.56475,0.02514
2927.50458,0.02515
2925.44441,0.02508
2923.38423,0.02502
2921.32406,0.02479
2919.26389,0.02448
2917.20372,0.02430
2915.14355,0.02429
2913.08337,0.02429
2911.02320,0.02402
2908.96303,0.02361
2906.90286,0.02344
2904.84268,0.02340
2902.78251,0.02325
2900.72234,0.02318
2898.66217,0.02325
2896.60200,0.02317
2894.54182,0.02310
2892.48165,0.02317
2890.42148,0.02310
2888.36131,0.02289
2886.30114,0.02279
2884.24096,0.02274
2882.18079,0.02261
2880.12062,0.02252
2878.06045,0.02247
2876.00028,0.02245
2873.94010,0.02235
2871.87993,0.02218
2869.81976,0.02209
2867.75959,0.02196
2865.69941,0.02148
2863.63924,0.02099
2861.57907,0.02096
2859.51890,0.02119
2857.45873,0.02121
2855.39855,0.02101
2853.33838,0.02091
2851.27821,0.02092
2849.21804,0.02081
2847.15787,0.02056
2845.09769,0.02034
2843.03752,0.02020
2840.97735,0.02013
2838.91718,0.02000
2836.85700,0.01973
2834.79683,0.01945
2832.73666,0.01939
2830.67649,0.01948
2828.61632,0.01941
2826.55614,0.01925
2824.49597,0.01908
2822.43580,0.01898
2820.37563,0.01899
2818.31546,0.01897
2816.25528,0.01876
2814.19511,0.01835
2812.13494,0.01798
2810.07477,0.01783
2808.01460,0.01772
2805.95442,0.01760
2803.89425,0.01752
2801.83408,0.01755
2799.77391,0.01770
2797.71373,0.01771
2795.65356,0.01754
2793.59339,0.01733
2791.53322,0.01715
2789.47305,0.01696
2787.41287,0.01680
2785.35270,0.01683
2783.29253,0.01694
2781.23236,0.01691
2779.17219,0.01690
2777.11201,0.01698
2775.05184,0.01692
2772.99167,0.01671
2770.93150,0.01661
2768.87133,0.01653
2766.81115,0.01639
2764.75098,0.01638
2762.69081,0.01638
2760.63064,0.01624
2758.57046,0.01617
2756.51029,0.01613
2754.45012,0.01596
2752.38995,0.01587
2750.32978,0.01588
2748.26960,0.01581
2746.20943,0.01562
2744.14926,0.01547
2742.08909,0.01542
2740.02892,0.01536
2737.96874,0.01524
2735.90857,0.01509
2733.84840,0.01498
2731.78823,0.01496
2729.72805,0.01498
2727.66788,0.01493
2725.60771,0.01487
2723.54754,0.01485
2721.48737,0.01471
2719.42719,0.01454
2717.36702,0.01455
2715.30685,0.01451
2713.24668,0.01432
2711.18651,0.01415
2709.12633,0.01406
2707.06616,0.01404
2705.00599,0.01400
2702.94582,0.01380
2700.88565,0.01354
2698.82547,0.01346
2696.76530,0.01356
2694.70513,0.01351
2692.64496,0.01324
2690.58478,0.01308
2688.52461,0.01310
2686.46444,0.01306
2684.40427,0.01299
2682.34410,0.01305
2680.28392,0.01312
2678.22375,0.01299
2676.16358,0.01274
2674.10341,0.01255
2672.04324,0.01249
2669.98306,0.01246
2667.92289,0.01237
2665.86272,0.01234
2663.80255,0.01242
2661.74238,0.01240
2659.68220,0.01223
2657.62203,0.01212
2655.56186,0.01210
2653.50169,0.01212
2651.44151,0.01206
2649.38134,0.01191
2647.32117,0.01175
2645.26100,0.01156
2643.20083,0.01137
2641.14065,0.01128
2639.08048,0.01115
2637.02031,0.01092
2634.96014,0.01074
2632.89997,0.01072
2630.83979,0.01076
2628.77962,0.01071
2626.71945,0.01055
2624.65928,0.01044
2622.59910,0.01032
2620.53893,0.01013
2618.47876,0.00989
2616.41859,0.00973
2614.35842,0.00971
2612.29824,0.00980
2610.23807,0.00998
2608.17790,0.01008
2606.11773,0.00996
2604.05756,0.00975
2601.99738,0.00961
2599.93721,0.00958
2597.87704,0.00958
2595.81687,0.00960
2593.75670,0.00967
2591.69652,0.00964
2589.63635,0.00946
2587.57618,0.00930
2585.51601,0.00915
2583.45583,0.00896
2581.39566,0.00881
2579.33549,0.00867
2577.27532,0.00856
2575.21515,0.00857
2573.15497,0.00847
2571.09480,0.00825
2569.03463,0.00821
2566.97446,0.00838
2564.91429,0.00858
2562.85411,0.00860
2560.79394,0.00850
2558.73377,0.00845
2556.67360,0.00851
2554.61342,0.00854
2552.55325,0.00854
2550.49308,0.00878
2548.43291,0.00911
2546.37274,0.00912
2544.31256,0.00884
2542.25239,0.00853
2540.19222,0.00828
2538.13205,0.00822
2536.07188,0.00840
2534.01170,0.00875
2531.95153,0.00906
2529.89136,0.00901
2527.83119,0.00883
2525.77102,0.00886
2523.71084,0.00886
2521.65067,0.00878
2519.59050,0.00880
2517.53033,0.00886
2515.47015,0.00890
2513.40998,0.00882
2511.34981,0.00887
2509.28964,0.00898
2507.22947,0.00887
2505.16929,0.00879
2503.10912,0.00869
2501.04895,0.00847
2498.98878,0.00836
2496.92861,0.00834
2494.86843,0.00833
2492.80826,0.00842
2490.74809,0.00870
2488.68792,0.00896
2486.62775,0.00900
2484.56757,0.00897
2482.50740,0.00909
2480.44723,0.00919
2478.38706,0.00909
2476.32688,0.00887
2474.26671,0.00870
2472.20654,0.00871
2470.14637,0.00887
2468.08620,0.00897
2466.02602,0.00898
2463.96585,0.00919
2461.90568,0.00951
2459.84551,0.00955
2457.78534,0.00932
2455.72516,0.00920
2453.66499,0.00916
2451.60482,0.00894
2449.54465,0.00881
2447.48447,0.00913
2445.42430,0.00952
2443.36413,0.00970
2441.30396,0.00966
2439.24379,0.00932
2437.18361,0.00901
2435.12344,0.00905
2433.06327,0.00916
2431.00310,0.00918
2428.94293,0.00938
2426.88275,0.00970
2424.82258,0.00971
2422.76241,0.00947
2420.70224,0.00945
2418.64207,0.00973
2416.58189,0.00987
2414.52172,0.00966
2412.46155,0.00948
2410.40138,0.00954
2408.34120,0.00946
2406.28103,0.00911
2404.22086,0.00873
2402.16069,0.00841
2400.10052,0.00829
2398.04034,0.00858
2395.98017,0.00891
2393.92000,0.00906
2391.85983,0.00903
2389.79966,0.00890
2387.73948,0.00877
2385.67931,0.00862
2383.61914,0.00857
2381.55897,0.00870
2379.49880,0.00892
2377.43862,0.00903
2375.37845,0.00958
2373.31828,0.00983
2371.25811,0.00961
2369.19793,0.01053
2367.13776,0.01071
2365.07759,0.00838
2363.01742,0.00714
2360.95725,0.00582
2358.89707,0.00770
2356.83690,0.00956
2354.77673,0.01045
2352.71656,0.01062
2350.65639,0.00556
2348.59621,0.00266
2346.53604,0.00948
2344.47587,0.01055
2342.41570,0.00882
2340.35552,0.00797
2338.29535,0.00691
2336.23518,0.00709
2334.17501,0.00772
2332.11484,0.00851
2330.05466,0.00831
2327.99449,0.00847
2325.93432,0.00828
2323.87415,0.00939
2321.81398,0.00976
2319.75380,0.00955
2317.69363,0.00782
2315.63346,0.00753
2313.57329,0.00865
2311.51312,0.00939
2309.45294,0.00924
2307.39277,0.00875
2305.33260,0.00864
2303.27243,0.00899
2301.21225,0.00966
2299.15208,0.00966
2297.09191,0.00916
2295.03174,0.00861
2292.97157,0.00817
2290.91139,0.00806
2288.85122,0.00811
2286.79105,0.00810
2284.73088,0.00805
2282.67071,0.00797
2280.61053,0.00789
2278.55036,0.00781
2276.49019,0.00778
2274.43002,0.00774
2272.36984,0.00743
2270.30967,0.00672
2268.24950,0.00608
2266.18933,0.00597
2264.12916,0.00638
2262.06898,0.00685
2260.00881,0.00703
2257.94864,0.00706
2255.88847,0.00716
2253.82830,0.00709
2251.76812,0.00677
2249.70795,0.00623
2247.64778,0.00576
2245.58761,0.00563
2243.52744,0.00547
2241.46726,0.00549
2239.40709,0.00592
2237.34692,0.00638
2235.28675,0.00611
2233.22657,0.00534
2231.16640,0.00559
2229.10623,0.00662
2227.04606,0.00669
2224.98589,0.00622
2222.92571,0.00618
2220.86554,0.00631
2218.80537,0.00638
2216.74520,0.00610
2214.68503,0.00544
2212.62485,0.00511
2210.56468,0.00521
2208.50451,0.00514
2206.44434,0.00477
2204.38417,0.00507
2202.32399,0.00584
2200.26382,0.00577
2198.20365,0.00552
2196.14348,0.00578
2194.08330,0.00605
2192.02313,0.00607
2189.96296,0.00533
2187.90279,0.00432
2185.84262,0.00385
2183.78244,0.00380
2181.72227,0.00433
2179.66210,0.00510
2177.60193,0.00522
2175.54176,0.00452
2173.48158,0.00336
2171.42141,0.00312
2169.36124,0.00484
2167.30107,0.00677
2165.24089,0.00658
2163.18072,0.00501
2161.12055,0.00388
2159.06038,0.00299
2157.00021,0.00176
2154.94003,0.00078
2152.87986,0.00035
2150.81969,0.00000
2148.75952,0.00016
2146.69935,0.00125
2144.63917,0.00252
2142.57900,0.00347
2140.51883,0.00406
2138.45866,0.00418
2136.39849,0.00384
2134.33831,0.00329
2132.27814,0.00292
2130.21797,0.00297
2128.15780,0.00315
2126.09762,0.00344
2124.03745,0.00403
2121.97728,0.00452
2119.91711,0.00446
2117.85694,0.00444
2115.79676,0.00499
2113.73659,0.00538
2111.67642,0.00534
2109.61625,0.00525
2107.55608,0.00506
2105.49590,0.00481
2103.43573,0.00469
2101.37556,0.00451
2099.31539,0.00424
2097.25521,0.00386
2095.19504,0.00337
2093.13487,0.00336
2091.07470,0.00368
2089.01453,0.00390
2086.95435,0.00413
2084.89418,0.00412
2082.83401,0.00356
2080.77384,0.00295
2078.71367,0.00300
2076.65349,0.00366
2074.59332,0.00450
2072.53315,0.00482
2070.47298,0.00432
2068.41281,0.00379
2066.35263,0.00400
2064.29246,0.00450
2062.23229,0.00447
2060.17212,0.00417
2058.11194,0.00421
2056.05177,0.00430
2053.99160,0.00449
2051.93143,0.00481
2049.87126,0.00453
2047.81108,0.00351
2045.75091,0.00237
2043.69074,0.00169
2041.63057,0.00190
2039.57040,0.00313
2037.51022,0.00423
2035.45005,0.00370
2033.38988,0.00249
2031.32971,0.00235
2029.26954,0.00225
2027.20936,0.00161
2025.14919,0.00191
2023.08902,0.00248
2021.02885,0.00205
2018.96867,0.00162
2016.90850,0.00192
2014.84833,0.00218
2012.78816,0.00194
2010.72799,0.00121
2008.66781,0.00029
2006.60764,0.00000
2004.54747,0.00082
2002.48730,0.00214
2000.42713,0.00297
1998.36695,0.00293
1996.30678,0.00197
1994.24661,0.00105
1992.18644,0.00128
1990.12626,0.00211
1988.06609,0.00286
1986.00592,0.00353
1983.94575,0.00412
1981.88558,0.00433
1979.82540,0.00315
1977.76523,0.00112
1975.70506,0.00043
1973.64489,0.00079
1971.58472,0.00079
1969.52454,0.00039
1967.46437,0.00039
1965.40420,0.00102
1963.34403,0.00116
1961.28386,0.00039
1959.22368,0.00000
1957.16351,0.00076
1955.10334,0.00173
1953.04317,0.00212
1950.98299,0.00216
1948.92282,0.00232
1946.86265,0.00273
1944.80248,0.00299
1942.74231,0.00314
1940.68213,0.00349
1938.62196,0.00375
1936.56179,0.00364
1934.50162,0.00321
1932.44145,0.00275
1930.38127,0.00259
1928.32110,0.00250
1926.26093,0.00240
1924.20076,0.00242
1922.14059,0.00255
1920.08041,0.00289
1918.02024,0.00330
1915.96007,0.00336
1913.89990,0.00344
1911.83972,0.00378
1909.77955,0.00383
1907.71938,0.00349
1905.65921,0.00319
1903.59904,0.00306
1901.53886,0.00291
1899.47869,0.00261
1897.41852,0.00242
1895.35835,0.00255
1893.29818,0.00278
1891.23800,0.00289
1889.17783,0.00292
1887.11766,0.00292
1885.05749,0.00281
1882.99731,0.00267
1880.93714,0.00262
1878.87697,0.00268
1876.81680,0.00269
1874.75663,0.00260
1872.69645,0.00245
1870.63628,0.00225
1868.57611,0.00219
1866.51594,0.00255
1864.45577,0.00309
1862.39559,0.00341
1860.33542,0.00339
1858.27525,0.00319
1856.21508,0.00306
1854.15491,0.00302
1852.09473,0.00290
1850.03456,0.00271
1847.97439,0.00276
1845.91422,0.00315
1843.85404,0.00338
1841.79387,0.00309
1839.73370,0.00282
1837.67353,0.00301
1835.61336,0.00334
1833.55318,0.00328
1831.49301,0.00288
1829.43284,0.00264
1827.37267,0.00283
1825.31250,0.00324
1823.25232,0.00349
1821.19215,0.00338
1819.13198,0.00305
1817.07181,0.00288
1815.01163,0.00299
1812.95146,0.00312
1810.89129,0.00313
1808.83112,0.00319
1806.77095,0.00343
1804.71077,0.00365
1802.65060,0.00370
1800.59043,0.00367
1798.53026,0.00365
1796.47009,0.00361
1794.40991,0.00359
1792.34974,0.00365
1790.28957,0.00372
1788.22940,0.00369
1786.16923,0.00374
1784.10905,0.00394
1782.04888,0.00410
1779.98871,0.00411
1777.92854,0.00397
1775.86836,0.00372
1773.80819,0.00350
1771.74802,0.00366
1769.68785,0.00417
1767.62768,0.00458
1765.56750,0.00466
1763.50733,0.00460
1761.44716,0.00462
1759.38699,0.00476
1757.32682,0.00493
1755.26664,0.00506
1753.20647,0.00510
1751.14630,0.00526
1749.08613,0.00563
1747.02596,0.00592
1744.96578,0.00611
1742.90561,0.00632
1740.84544,0.00650
1738.78527,0.00657
1736.72509,0.00656
1734.66492,0.00668
1732.60475,0.00707
1730.54458,0.00744
1728.48441,0.00764
1726.42423,0.00777
1724.36406,0.00785
1722.30389,0.00777
1720.24372,0.00755
1718.18355,0.00762
1716.12337,0.00831
1714.06320,0.00892
1712.00303,0.00906
1709.94286,0.00908
1707.88268,0.00927
1705.82251,0.00967
1703.76234,0.01002
1701.70217,0.01027
1699.64200,0.01062
1697.58182,0.01098
1695.52165,0.01118
1693.46148,0.01129
1691.40131,0.01143
1689.34114,0.01166
1687.28096,0.01184
1685.22079,0.01224
1683.16062,0.01333
1681.10045,0.01437
1679.04028,0.01474
1676.98010,0.01488
1674.91993,0.01525
1672.85976,0.01570
1670.79959,0.01615
1668.73941,0.01677
1666.67924,0.01723
1664.61907,0.01744
1662.55890,0.01780
1660.49873,0.01834
1658.43855,0.01865
1656.37838,0.01858
1654.31821,0.01847
1652.25804,0.01876
1650.19787,0.01894
1648.13769,0.01897
1646.07752,0.01932
1644.01735,0.01963
1641.95718,0.01953
1639.89701,0.01916
1637.83683,0.01889
1635.77666,0.01911
1633.71649,0.01958
1631.65632,0.01968
1629.59614,0.01950
1627.53597,0.01925
1625.47580,0.01905
1623.41563,0.01906
1621.35546,0.01923
1619.29528,0.01927
1617.23511,0.01929
1615.17494,0.01935
1613.11477,0.01920
1611.05460,0.01892
1608.99442,0.01871
1606.93425,0.01859
1604.87408,0.01848
1602.81391,0.01820
1600.75373,0.01767
1598.69356,0.01710
1596.63339,0.01659
1594.57322,0.01607
1592.51305,0.01553
1590.45287,0.01505
1588.39270,0.01457
1586.33253,0.01402
1584.27236,0.01349
1582.21219,0.01305
1580.15201,0.01261
1578.09184,0.01209
1576.03167,0.01159
1573.97150,0.01113
1571.91133,0.01062
1569.85115,0.01020
1567.79098,0.00992
1565.73081,0.00958
1563.67064,0.00917
1561.61046,0.00885
1559.55029,0.00873
1557.49012,0.00877
1555.42995,0.00860
1553.36978,0.00827
1551.30960,0.00793
1549.24943,0.00765
1547.18926,0.00739
1545.12909,0.00704
1543.06892,0.00660
1541.00874,0.00632
1538.94857,0.00633
1536.88840,0.00619
1534.82823,0.00588
1532.76805,0.00568
1530.70788,0.00554
1528.64771,0.00529
1526.58754,0.00498
1524.52737,0.00483
1522.46719,0.00491
1520.40702,0.00508
1518.34685,0.00508
1516.28668,0.00495
1514.22651,0.00479
1512.16633,0.00451
1510.10616,0.00400
1508.04599,0.00355
1505.98582,0.00367
1503.92565,0.00394
1501.86547,0.00388
1499.80530,0.00372
1497.74513,0.00379
1495.68496,0.00403
1493.62478,0.00404
1491.56461,0.00385
1489.50444,0.00379
1487.44427,0.00397
1485.38410,0.00415
1483.32392,0.00422
1481.26375,0.00420
1479.20358,0.00421
1477.14341,0.00434
1475.08324,0.00455
1473.02306,0.00489
1470.96289,0.00537
1468.90272,0.00571
1466.84255,0.00586
1464.78238,0.00595
1462.72220,0.00601
1460.66203,0.00601
1458.60186,0.00627
1456.54169,0.00693
1454.48151,0.00727
1452.42134,0.00710
1450.36117,0.00679
1448.30100,0.00652
1446.24083,0.00641
1444.18065,0.00648
1442.12048,0.00665
1440.06031,0.00677
1438.00014,0.00687
1435.93997,0.00715
1433.87979,0.00745
1431.81962,0.00756
1429.75945,0.00754
1427.69928,0.00755
1425.63910,0.00770
1423.57893,0.00796
1421.51876,0.00826
1419.45859,0.00862
1417.39842,0.00895
1415.33824,0.00900
1413.27807,0.00889
1411.21790,0.00888
1409.15773,0.00895
1407.09756,0.00889
1405.03738,0.00873
1402.97721,0.00852
1400.91704,0.00826
1398.85687,0.00812
1396.79670,0.00808
1394.73652,0.00798
1392.67635,0.00790
1390.61618,0.00792
1388.55601,0.00798
1386.49583,0.00797
1384.43566,0.00787
1382.37549,0.00778
1380.31532,0.00778
1378.25515,0.00783
1376.19497,0.00791
1374.13480,0.00808
1372.07463,0.00814
1370.01446,0.00800
1367.95429,0.00782
1365.89411,0.00765
1363.83394,0.00746
1361.77377,0.00729
1359.71360,0.00712
1357.65343,0.00694
1355.59325,0.00678
1353.53308,0.00655
1351.47291,0.00630
1349.41274,0.00616
1347.35256,0.00613
1345.29239,0.00608
1343.23222,0.00603
1341.17205,0.00606
1339.11188,0.00613
1337.05170,0.00605
1334.99153,0.00583
1332.93136,0.00567
1330.87119,0.00569
1328.81102,0.00576
1326.75084,0.00579
1324.69067,0.00575
1322.63050,0.00559
1320.57033,0.00546
1318.51015,0.00555
1316.44998,0.00577
1314.38981,0.00591
1312.32964,0.00597
1310.26947,0.00596
1308.20929,0.00586
1306.14912,0.00580
1304.08895,0.00591
1302.02878,0.00605
1299.96861,0.00605
1297.90843,0.00593
1295.84826,0.00585
1293.78809,0.00586
1291.72792,0.00591
1289.66775,0.00603
1287.60757,0.00619
1285.54740,0.00634
1283.48723,0.00643
1281.42706,0.00649
1279.36688,0.00647
1277.30671,0.00640
1275.24654,0.00643
1273.18637,0.00654
1271.12620,0.00659
1269.06602,0.00662
1267.00585,0.00671
1264.94568,0.00689
1262.88551,0.00706
1260.82534,0.00706
1258.76516,0.00699
1256.70499,0.00694
1254.64482,0.00691
1252.58465,0.00691
1250.52447,0.00698
1248.46430,0.00703
1246.40413,0.00696
1244.34396,0.00680
1242.28379,0.00671
1240.22361,0.00661
1238.16344,0.00638
1236.10327,0.00618
1234.04310,0.00599
1231.98293,0.00576
1229.92275,0.00565
1227.86258,0.00559
1225.80241,0.00533
1223.74224,0.00494
1221.68207,0.00464
1219.62189,0.00445
1217.56172,0.00434
1215.50155,0.00426
1213.44138,0.00413
1211.38120,0.00387
1209.32103,0.00363
1207.26086,0.00358
1205.20069,0.00366
1203.14052,0.00374
1201.08034,0.00379
1199.02017,0.00377
1196.96000,0.00379
1194.89983,0.00385
1192.83966,0.00404
1190.77948,0.00446
1188.71931,0.00490
1186.65914,0.00534
1184.59897,0.00591
1182.53880,0.00650
1180.47862,0.00716
1178.41845,0.00803
1176.35828,0.00894
1174.29811,0.00974
1172.23793,0.01061
1170.17776,0.01165
1168.11759,0.01259
1166.05742,0.01350
1163.99725,0.01462
1161.93707,0.01566
1159.87690,0.01639
1157.81673,0.01705
1155.75656,0.01777
1153.69639,0.01845
1151.63621,0.01916
1149.57604,0.02010
1147.51587,0.02111
1145.45570,0.02193
1143.39552,0.02272
1141.33535,0.02367
1139.27518,0.02468
1137.21501,0.02563
1135.15484,0.02663
1133.09466,0.02773
1131.03449,0.02885
1128.97432,0.02993
1126.91415,0.03100
1124.85398,0.03214
1122.79380,0.03323
1120.73363,0.03419
1118.67346,0.03516
1116.61329,0.03626
1114.55312,0.03742
1112.49294,0.03856
1110.43277,0.03972
1108.37260,0.04096
1106.31243,0.04227
1104.25225,0.04343
1102.19208,0.04435
1100.13191,0.04520
1098.07174,0.04620
1096.01157,0.04743
1093.95139,0.04859
1091.89122,0.04962
1089.83105,0.05068
1087.77088,0.05170
1085.71071,0.05266
1083.65053,0.05358
1081.59036,0.05435
1079.53019,0.05506
1077.47002,0.05582
1075.40985,0.05660
1073.34967,0.05722
1071.28950,0.05751
1069.22933,0.05749
1067.16916,0.05751
1065.10898,0.05765
1063.04881,0.05757
1060.98864,0.05717
1058.92847,0.05658
1056.86830,0.05593
1054.80812,0.05546
1052.74795,0.05509
1050.68778,0.05465
1048.62761,0.05418
1046.56744,0.05362
1044.50726,0.05287
1042.44709,0.05193
1040.38692,0.05082
1038.32675,0.04959
1036.26657,0.04862
1034.20640,0.04800
1032.14623,0.04725
1030.08606,0.04620
1028.02589,0.04513
1025.96571,0.04421
1023.90554,0.04330
1021.84537,0.04217
1019.78520,0.04107
1017.72503,0.04027
1015.66485,0.03935
1013.60468,0.03814
1011.54451,0.03714
1009.48434,0.03648
1007.42417,0.03593
1005.36399,0.03556
1003.30382,0.03542
1001.24365,0.03532
999.18348,0.03542
997.12330,0.03588
995.06313,0.03640
993.00296,0.03688
990.94279,0.03736
988.88262,0.03784
986.82244,0.03821
984.76227,0.03826
982.70210,0.03798
980.64193,0.03745
978.58176,0.03682
976.52158,0.03602
974.46141,0.03486
972.40124,0.03335
970.34107,0.03172
968.28089,0.03019
966.22072,0.02887
964.16055,0.02767
962.10038,0.02651
960.04021,0.02542
957.98003,0.02440
955.91986,0.02342
953.85969,0.02243
951.79952,0.02144
949.73935,0.02051
947.67917,0.01987
945.61900,0.01960
943.55883,0.01940
941.49866,0.01922
939.43849,0.01907
937.37831,0.01875
935.31814,0.01820
933.25797,0.01783
931.19780,0.01773
929.13762,0.01733
927.07745,0.01679
925.01728,0.01650
922.95711,0.01625
920.89694,0.01581
918.83676,0.01534
916.77659,0.01492
914.71642,0.01460
912.65625,0.01424
910.59608,0.01364
908.53590,0.01310
906.47573,0.01300
904.41556,0.01329
902.35539,0.01357
900.29522,0.01367
898.23504,0.01378
896.17487,0.01390
894.11470,0.01399
892.05453,0.01416
889.99435,0.01451
887.93418,0.01475
885.87401,0.01475
883.81384,0.01481
881.75367,0.01502
879.69349,0.01554
877.63332,0.01627
875.57315,0.01679
873.51298,0.01698
871.45281,0.01694
869.39263,0.01690
867.33246,0.01727
865.27229,0.01784
863.21212,0.01799
861.15194,0.01761
859.09177,0.01721
857.03160,0.01715
854.97143,0.01719
852.91126,0.01700
850.85108,0.01659
848.79091,0.01601
846.73074,0.01547
844.67057,0.01523
842.61040,0.01492
840.55022,0.01419
838.49005,0.01335
836.42988,0.01275
834.36971,0.01244
832.30954,0.01227
830.24936,0.01209
828.18919,0.01181
826.12902,0.01151
824.06885,0.01122
822.00867,0.01086
819.94850,0.01053
817.88833,0.01036
815.82816,0.01041
813.76799,0.01061
811.70781,0.01064
809.64764,0.01036
807.58747,0.01000
805.52730,0.00989
803.46713,0.00988
801.40695,0.00963
799.34678,0.00929
797.28661,0.00913
795.22644,0.00901
793.16627,0.00874
791.10609,0.00847
789.04592,0.00858
786.98575,0.00902
784.92558,0.00907
782.86540,0.00857
780.80523,0.00791
778.74506,0.00777
776.68489,0.00805
774.62472,0.00806
772.56454,0.00794
770.50437,0.00803
768.44420,0.00818
766.38403,0.00810
764.32386,0.00807
762.26368,0.00841
760.20351,0.00876
758.14334,0.00843
756.08317,0.00748
754.02299,0.00679
751.96282,0.00659
749.90265,0.00685
747.84248,0.00739
745.78231,0.00751
743.72213,0.00710
741.66196,0.00673
739.60179,0.00668
737.54162,0.00677
735.48145,0.00703
733.42127,0.00750
731.36110,0.00796
729.30093,0.00828
727.24076,0.00829
725.18059,0.00794
723.12041,0.00765
721.06024,0.00908
719.00007,0.00933
716.93990,0.00884
714.87972,0.00855
712.81955,0.00830
710.75938,0.00808
708.69921,0.00770
706.63904,0.00737
704.57886,0.00742
702.51869,0.00775
700.45852,0.00790
698.39835,0.00769
696.33818,0.00717
694.27800,0.00667
692.21783,0.00653
690.15766,0.00662
688.09749,0.00681
686.03731,0.00720
683.97714,0.00738
681.91697,0.00694
679.85680,0.00630
677.79663,0.00623
675.73645,0.00647
673.67628,0.00446
671.61611,0.00051
669.55594,0.00705
667.49577,0.01312
665.43559,0.00000
663.37542,0.00229
661.31525,0.00678
659.25508,0.00728
657.19491,0.00598
655.13473,0.00497
653.07456,0.00467
651.01439,0.00485
648.95422,0.00533
646.89404,0.00506
644.83387,0.00494
642.77370,0.00499
640.71353,0.00510
638.65336,0.00468
636.59318,0.00362
634.53301,0.00315
632.47284,0.00350
630.41267,0.00371
628.35250,0.00367
626.29232,0.00355
624.23215,0.00336
622.17198,0.00245
620.11181,0.00117
618.05164,0.00206
615.99146,0.00463
613.93129,0.00511
611.87112,0.00347
609.81095,0.00212
607.75077,0.00244
605.69060,0.00352
603.63043,0.00285
601.57026,0.00088
599.51009,0.00000
