3996.73391,0.00060
3994.67373,0.00083
3992.61356,0.00094
3990.55339,0.00079
3988.49322,0.00056
3986.43305,0.00046
3984.37287,0.00056
3982.31270,0.00061
3980.25253,0.00050
3978.19236,0.00045
3976.13219,0.00042
3974.07201,0.00034
3972.01184,0.00049
3969.95167,0.00096
3967.89150,0.00138
3965.83133,0.00141
3963.77115,0.00114
3961.71098,0.00089
3959.65081,0.00079
3957.59064,0.00069
3955.53046,0.00062
3953.47029,0.00060
3951.41012,0.00038
3949.34995,0.00005
3947.28978,0.00000
3945.22960,0.00019
3943.16943,0.00039
3941.10926,0.00053
3939.04909,0.00057
3936.98892,0.00058
3934.92874,0.00063
3932.86857,0.00067
3930.80840,0.00080
3928.74823,0.00099
3926.68805,0.00119
3924.62788,0.00143
3922.56771,0.00159
3920.50754,0.00155
3918.44737,0.00133
3916.38719,0.00105
3914.32702,0.00087
3912.26685,0.00088
3910.20668,0.00098
3908.14651,0.00098
3906.08633,0.00093
3904.02616,0.00098
3901.96599,0.00100
3899.90582,0.00085
3897.84565,0.00095
3895.78547,0.00124
3893.72530,0.00129
3891.66513,0.00104
3889.60496,0.00075
3887.54478,0.00067
3885.48461,0.00076
3883.42444,0.00091
3881.36427,0.00110
3879.30410,0.00124
3877.24392,0.00116
3875.18375,0.00096
3873.12358,0.00083
3871.06341,0.00072
3869.00324,0.00069
3866.94306,0.00082
3864.88289,0.00085
3862.82272,0.00065
3860.76255,0.00063
3858.70237,0.00102
3856.64220,0.00154
3854.58203,0.00176
3852.52186,0.00155
3850.46169,0.00124
3848.40151,0.00109
3846.34134,0.00122
3844.28117,0.00142
3842.22100,0.00139
3840.16083,0.00124
3838.10065,0.00119
3836.04048,0.00112
3833.98031,0.00095
3831.92014,0.00093
3829.85997,0.00124
3827.79979,0.00158
3825.73962,0.00157
3823.67945,0.00129
3821.61928,0.00115
3819.55910,0.00141
3817.49893,0.00171
3815.43876,0.00166
3813.37859,0.00139
3811.31842,0.00131
3809.25824,0.00152
3807.19807,0.00174
3805.13790,0.00159
3803.07773,0.00121
3801.01756,0.00111
3798.95738,0.00132
3796.89721,0.00143
3794.83704,0.00135
3792.77687,0.00115
3790.71670,0.00092
3788.65652,0.00084
3786.59635,0.00092
3784.53618,0.00108
3782.47601,0.00136
3780.41583,0.00164
3778.35566,0.00166
3776.29549,0.00153
3774.23532,0.00139
3772.17515,0.00115
3770.11497,0.00092
3768.05480,0.00102
3765.99463,0.00135
3763.93446,0.00157
3761.87429,0.00169
3759.81411,0.00180
3757.75394,0.00178
3755.69377,0.00156
3753.63360,0.00126
3751.57342,0.00097
3749.51325,0.00078
3747.45308,0.00043
3745.39291,0.00008
3743.33274,0.00055
3741.27256,0.00137
3739.21239,0.00146
3737.15222,0.00105
3735.09205,0.00092
3733.03188,0.00124
3730.97170,0.00145
3728.91153,0.00136
3726.85136,0.00133
3724.79119,0.00164
3722.73102,0.00207
3720.67084,0.00226
3718.61067,0.00217
3716.55050,0.00199
3714.49033,0.00192
3712.43015,0.00182
3710.36998,0.00161
3708.30981,0.00161
3706.24964,0.00169
3704.18947,0.00160
3702.12929,0.00147
3700.06912,0.00170
3698.00895,0.00219
3695.94878,0.00255
3693.88861,0.00257
3691.82843,0.00240
3689.76826,0.00254
3687.70809,0.00299
3685.64792,0.00290
3683.58775,0.00244
3681.52757,0.00246
3679.46740,0.00307
3677.40723,0.00369
3675.34706,0.00364
3673.28688,0.00286
3671.22671,0.00236
3669.16654,0.00271
3667.10637,0.00321
3665.04620,0.00345
3662.98602,0.00360
3660.92585,0.00356
3658.86568,0.00342
3656.80551,0.00364
3654.74534,0.00415
3652.68516,0.00456
3650.62499,0.00520
3648.56482,0.00610
3646.50465,0.00634
3644.44447,0.00608
3642.38430,0.00604
3640.32413,0.00633
3638.26396,0.00669
3636.20379,0.00699
3634.14361,0.00726
3632.08344,0.00745
3630.02327,0.00752
3627.96310,0.00778
3625.90293,0.00818
3623.84275,0.00854
3621.78258,0.00908
3619.72241,0.00969
3617.66224,0.00985
3615.60207,0.00981
3613.54189,0.01022
3611.48172,0.01117
3609.42155,0.01210
3607.36138,0.01238
3605.30120,0.01220
3603.24103,0.01215
3601.18086,0.01250
3599.12069,0.01316
3597.06052,0.01381
3595.00034,0.01406
3592.94017,0.01396
3590.88000,0.01387
3588.81983,0.01426
3586.75966,0.01505
3584.69948,0.01564
3582.63931,0.01599
3580.57914,0.01639
3578.51897,0.01666
3576.45879,0.01668
3574.39862,0.01676
3572.33845,0.01711
3570.27828,0.01759
3568.21811,0.01811
3566.15793,0.01888
3564.09776,0.01979
3562.03759,0.02032
3559.97742,0.02033
3557.91725,0.02019
3555.85707,0.02021
3553.79690,0.02048
3551.73673,0.02105
3549.67656,0.02171
3547.61639,0.02213
3545.55621,0.02245
3543.49604,0.02294
3541.43587,0.02336
3539.37570,0.02348
3537.31552,0.02354
3535.25535,0.02388
3533.19518,0.02435
3531.13501,0.02465
3529.07484,0.02496
3527.01466,0.02550
3524.95449,0.02607
3522.89432,0.02654
3520.83415,0.02683
3518.77398,0.02702
3516.71380,0.02731
3514.65363,0.02757
3512.59346,0.02770
3510.53329,0.02799
3508.47312,0.02844
3506.41294,0.02867
3504.35277,0.02881
3502.29260,0.02923
3500.23243,0.02977
3498.17225,0.02998
3496.11208,0.02984
3494.05191,0.02974
3491.99174,0.03004
3489.93157,0.03053
3487.87139,0.03097
3485.81122,0.03140
3483.75105,0.03187
3481.69088,0.03203
3479.63071,0.03173
3477.57053,0.03174
3475.51036,0.03239
3473.45019,0.03293
3471.39002,0.03306
3469.32984,0.03328
3467.26967,0.03361
3465.20950,0.03372
3463.14933,0.03377
3461.08916,0.03400
3459.02898,0.03439
3456.96881,0.03484
3454.90864,0.03528
3452.84847,0.03574
3450.78830,0.03591
3448.72812,0.03563
3446.66795,0.03542
3444.60778,0.03571
3442.54761,0.03614
3440.48744,0.03627
3438.42726,0.03636
3436.36709,0.03676
3434.30692,0.03710
3432.24675,0.03714
3430.18657,0.03707
3428.12640,0.03709
3426.06623,0.03729
3424.00606,0.03761
3421.94589,0.03790
3419.88571,0.03805
3417.82554,0.03816
3415.76537,0.03843
3413.70520,0.03878
3411.64503,0.03896
3409.58485,0.03909
3407.52468,0.03918
3405.46451,0.03910
3403.40434,0.03920
3401.34416,0.03955
3399.28399,0.03975
3397.22382,0.03980
3395.16365,0.04008
3393.10348,0.04074
3391.04330,0.04126
3388.98313,0.04098
3386.92296,0.04042
3384.86279,0.04043
3382.80262,0.04078
3380.74244,0.04102
3378.68227,0.04125
3376.62210,0.04138
3374.56193,0.04130
3372.50176,0.04135
3370.44158,0.04163
3368.38141,0.04177
3366.32124,0.04163
3364.26107,0.04137
3362.20089,0.04120
3360.14072,0.04117
3358.08055,0.04130
3356.02038,0.04154
3353.96021,0.04173
3351.90003,0.04168
3349.83986,0.04142
3347.77969,0.04124
3345.71952,0.04147
3343.65935,0.04186
3341.59917,0.04186
3339.53900,0.04170
3337.47883,0.04181
3335.41866,0.04202
3333.35849,0.04200
3331.29831,0.04186
3329.23814,0.04180
3327.17797,0.04187
3325.11780,0.04210
3323.05762,0.04232
3320.99745,0.04228
3318.93728,0.04210
3316.87711,0.04190
3314.81694,0.04164
3312.75676,0.04139
3310.69659,0.04132
3308.63642,0.04135
3306.57625,0.04142
3304.51608,0.04162
3302.45590,0.04198
3300.39573,0.04222
3298.33556,0.04211
3296.27539,0.04192
3294.21521,0.04197
3292.15504,0.04218
3290.09487,0.04235
3288.03470,0.04244
3285.97453,0.04245
3283.91435,0.04231
3281.85418,0.04200
3279.79401,0.04173
3277.73384,0.04175
3275.67367,0.04207
3273.61349,0.04227
3271.55332,0.04216
3269.49315,0.04195
3267.43298,0.04178
3265.37281,0.04178
3263.31263,0.04188
3261.25246,0.04182
3259.19229,0.04158
3257.13212,0.04128
3255.07194,0.04129
3253.01177,0.04173
3250.95160,0.04203
3248.89143,0.04189
3246.83126,0.04172
3244.77108,0.04183
3242.71091,0.04194
3240.65074,0.04179
3238.59057,0.04159
3236.53040,0.04132
3234.47022,0.04086
3232.41005,0.04055
3230.34988,0.04064
3228.28971,0.04091
3226.22954,0.04119
3224.16936,0.04130
3222.10919,0.04108
3220.04902,0.04067
3217.98885,0.04033
3215.92867,0.04033
3213.86850,0.04052
3211.80833,0.04058
3209.74816,0.04046
3207.68799,0.04021
3205.62781,0.03996
3203.56764,0.03984
3201.50747,0.03978
3199.44730,0.03966
3197.38713,0.03952
3195.32695,0.03953
3193.26678,0.03957
3191.20661,0.03949
3189.14644,0.03949
3187.08626,0.03943
3185.02609,0.03909
3182.96592,0.03875
3180.90575,0.03863
3178.84558,0.03865
3176.78540,0.03863
3174.72523,0.03840
3172.66506,0.03821
3170.60489,0.03821
3168.54472,0.03806
3166.48454,0.03764
3164.42437,0.03729
3162.36420,0.03716
3160.30403,0.03710
3158.24386,0.03701
3156.18368,0.03690
3154.12351,0.03677
3152.06334,0.03664
3150.00317,0.03664
3147.94299,0.03669
3145.88282,0.03654
3143.82265,0.03629
3141.76248,0.03616
3139.70231,0.03603
3137.64213,0.03578
3135.58196,0.03539
3133.52179,0.03510
3131.46162,0.03512
3129.40145,0.03509
3127.34127,0.03481
3125.28110,0.03462
3123.22093,0.03474
3121.16076,0.03486
3119.10058,0.03473
3117.04041,0.03447
3114.98024,0.03426
3112.92007,0.03424
3110.85990,0.03430
3108.79972,0.03399
3106.73955,0.03337
3104.67938,0.03294
3102.61921,0.03269
3100.55904,0.03241
3098.49886,0.03217
3096.43869,0.03203
3094.37852,0.03197
3092.31835,0.03201
3090.25818,0.03198
3088.19800,0.03169
3086.13783,0.03142
3084.07766,0.03135
3082.01749,0.03112
3079.95731,0.03071
3077.89714,0.03056
3075.83697,0.03061
3073.77680,0.03069
3071.71663,0.03084
3069.65645,0.03082
3067.59628,0.03054
3065.53611,0.03022
3063.47594,0.02982
3061.41577,0.02937
3059.35559,0.02917
3057.29542,0.02907
3055.23525,0.02877
3053.17508,0.02847
3051.11491,0.02839
3049.05473,0.02848
3046.99456,0.02847
3044.93439,0.02815
3042.87422,0.02777
3040.81404,0.02761
3038.75387,0.02757
3036.69370,0.02753
3034.63353,0.02745
3032.57336,0.02729
3030.51318,0.02705
3028.45301,0.02670
3026.39284,0.02637
3024.33267,0.02620
3022.27250,0.02613
3020.21232,0.02603
3018.15215,0.02597
3016.09198,0.02585
3014.03181,0.02549
3011.97163,0.02514
3009.91146,0.02493
3007.85129,0.02490
3005.79112,0.02506
3003.73095,0.02508
3001.67077,0.02476
2999.61060,0.02429
2997.55043,0.02400
2995.49026,0.02405
2993.43009,0.02419
2991.36991,0.02406
2989.30974,0.02373
2987.24957,0.02352
2985.18940,0.02343
2983.12923,0.02330
2981.06905,0.02314
2979.00888,0.02311
2976.94871,0.02313
2974.88854,0.02313
2972.82836,0.02297
2970.76819,0.02256
2968.70802,0.02233
2966.64785,0.02259
2964.58768,0.02299
2962.52750,0.02306
2960.46733,0.02291
2958.40716,0.02294
2956.34699,0.02319
2954.28682,0.02329
2952.22664,0.02316
2950.16647,0.02303
2948.10630,0.02298
2946.04613,0.02297
2943.98596,0.02309
2941.92578,0.02321
2939.86561,0.02316
2937.80544,0.02299
2935.74527,0.02280
2933.68509,0.02268
2931.62492,0.02272
2929.56475,0.02283
2927.50458,0.02280
2925.44441,0.02265
2923.38423,0.02248
2921.32406,0.02229
2919.26389,0.02210
2917.20372,0.02200
2915.14355,0.02197
2913.08337,0.02191
2911.02320,0.02183
2908.96303,0.02167
2906.90286,0.02140
2904.84268,0.02115
2902.78251,0.02107
2900.72234,0.02108
2898.66217,0.02107
2896.60200,0.02101
2894.54182,0.02091
2892.48165,0.02083
2890.42148,0.02079
2888.36131,0.02078
2886.30114,0.02083
2884.24096,0.02079
2882.18079,0.02059
2880.12062,0.02050
2878.06045,0.02055
2876.00028,0.02046
2873.94010,0.02023
2871.87993,0.02010
2869.81976,0.02014
2867.75959,0.02009
2865.69941,0.01971
2863.63924,0.01925
2861.57907,0.01909
2859.51890,0.01917
2857.45873,0.01923
2855.39855,0.01923
2853.33838,0.01918
2851.27821,0.01900
2849.21804,0.01884
2847.15787,0.01879
2845.09769,0.01865
2843.03752,0.01840
2840.97735,0.01828
2838.91718,0.01826
2836.85700,0.01806
2834.79683,0.01776
2832.73666,0.01766
2830.67649,0.01768
2828.61632,0.01761
2826.55614,0.01744
2824.49597,0.01728
2822.43580,0.01720
2820.37563,0.01717
2818.31546,0.01709
2816.25528,0.01684
2814.19511,0.01650
2812.13494,0.01630
2810.07477,0.01625
2808.01460,0.01625
2805.95442,0.01630
2803.89425,0.01623
2801.83408,0.01606
2799.77391,0.01603
2797.71373,0.01615
2795.65356,0.01615
2793.59339,0.01599
2791.53322,0.01572
2789.47305,0.01544
2787.41287,0.01545
2785.35270,0.01566
2783.29253,0.01568
2781.23236,0.01555
2779.17219,0.01556
2777.11201,0.01568
2775.05184,0.01567
2772.99167,0.01548
2770.93150,0.01525
2768.87133,0.01505
2766.81115,0.01491
2764.75098,0.01490
2762.69081,0.01485
2760.63064,0.01476
2758.57046,0.01473
2756.51029,0.01459
2754.45012,0.01438
2752.38995,0.01444
2750.32978,0.01469
2748.26960,0.01481
2746.20943,0.01468
2744.14926,0.01439
2742.08909,0.01418
2740.02892,0.01416
2737.96874,0.01418
2735.90857,0.01408
2733.84840,0.01394
2731.78823,0.01390
2729.72805,0.01383
2727.66788,0.01369
2725.60771,0.01359
2723.54754,0.01349
2721.48737,0.01333
2719.42719,0.01328
2717.36702,0.01338
2715.30685,0.01339
2713.24668,0.01316
2711.18651,0.01301
2709.12633,0.01314
2707.06616,0.01332
2705.00599,0.01330
2702.94582,0.01304
2700.88565,0.01266
2698.82547,0.01242
2696.76530,0.01241
2694.70513,0.01243
2692.64496,0.01236
2690.58478,0.01233
2688.52461,0.01231
2686.46444,0.01213
2684.40427,0.01195
2682.34410,0.01198
2680.28392,0.01204
2678.22375,0.01198
2676.16358,0.01188
2674.10341,0.01175
2672.04324,0.01165
2669.98306,0.01161
2667.92289,0.01156
2665.86272,0.01154
2663.80255,0.01152
2661.74238,0.01139
2659.68220,0.01126
2657.62203,0.01120
2655.56186,0.01126
2653.50169,0.01130
2651.44151,0.01113
2649.38134,0.01095
2647.32117,0.01092
2645.26100,0.01087
2643.20083,0.01082
2641.14065,0.01080
2639.08048,0.01062
2637.02031,0.01044
2634.96014,0.01051
2632.89997,0.01046
2630.83979,0.01019
2628.77962,0.00988
2626.71945,0.00956
2624.65928,0.00933
2622.59910,0.00928
2620.53893,0.00931
2618.47876,0.00931
2616.41859,0.00930
2614.35842,0.00934
2612.29824,0.00941
2610.23807,0.00950
2608.17790,0.00948
2606.11773,0.00932
2604.05756,0.00919
2601.99738,0.00908
2599.93721,0.00900
2597.87704,0.00892
2595.81687,0.00879
2593.75670,0.00872
2591.69652,0.00878
2589.63635,0.00877
2587.57618,0.00857
2585.51601,0.00833
2583.45583,0.00828
2581.39566,0.00832
2579.33549,0.00806
2577.27532,0.00765
2575.21515,0.00755
2573.15497,0.00755
2571.09480,0.00755
2569.03463,0.00779
2566.97446,0.00815
2564.91429,0.00850
2562.85411,0.00863
2560.79394,0.00838
2558.73377,0.00819
2556.67360,0.00837
2554.61342,0.00847
2552.55325,0.00816
2550.49308,0.00791
2548.43291,0.00799
2546.37274,0.00789
2544.31256,0.00742
2542.25239,0.00710
2540.19222,0.00727
2538.13205,0.00771
2536.07188,0.00808
2534.01170,0.00840
2531.95153,0.00860
2529.89136,0.00846
2527.83119,0.00824
2525.77102,0.00814
2523.71084,0.00789
2521.65067,0.00781
2519.59050,0.00801
2517.53033,0.00807
2515.47015,0.00790
2513.40998,0.00758
2511.34981,0.00752
2509.28964,0.00785
2507.22947,0.00804
2505.16929,0.00807
2503.10912,0.00804
2501.04895,0.00777
2498.98878,0.00749
2496.92861,0.00749
2494.86843,0.00761
2492.80826,0.00767
2490.74809,0.00795
2488.68792,0.00827
2486.62775,0.00836
2484.56757,0.00846
2482.50740,0.00869
2480.44723,0.00878
2478.38706,0.00841
2476.32688,0.00783
2474.26671,0.00770
2472.20654,0.00810
2470.14637,0.00854
2468.08620,0.00857
2466.02602,0.00818
2463.96585,0.00807
2461.90568,0.00849
2459.84551,0.00878
2457.78534,0.00872
2455.72516,0.00856
2453.66499,0.00836
2451.60482,0.00816
2449.54465,0.00809
2447.48447,0.00825
2445.42430,0.00852
2443.36413,0.00863
2441.30396,0.00868
2439.24379,0.00863
2437.18361,0.00836
2435.12344,0.00809
2433.06327,0.00794
2431.00310,0.00785
2428.94293,0.00809
2426.88275,0.00863
2424.82258,0.00883
2422.76241,0.00860
2420.70224,0.00855
2418.64207,0.00873
2416.58189,0.00881
2414.52172,0.00886
2412.46155,0.00894
2410.40138,0.00878
2408.34120,0.00826
2406.28103,0.00790
2404.22086,0.00801
2402.16069,0.00812
2400.10052,0.00807
2398.04034,0.00828
2395.98017,0.00860
2393.92000,0.00867
2391.85983,0.00844
2389.79966,0.00818
2387.73948,0.00812
2385.67931,0.00825
2383.61914,0.00833
2381.55897,0.00805
2379.49880,0.00758
2377.43862,0.00748
2375.37845,0.00791
2373.31828,0.00811
2371.25811,0.00790
2369.19793,0.00855
2367.13776,0.00958
2365.07759,0.00844
2363.01742,0.00625
2360.95725,0.00564
2358.89707,0.00671
2356.83690,0.00725
2354.77673,0.00744
2352.71656,0.00782
2350.65639,0.00708
2348.59621,0.00613
2346.53604,0.00673
2344.47587,0.00684
2342.41570,0.00699
2340.35552,0.00695
2338.29535,0.00647
2336.23518,0.00690
2334.17501,0.00821
2332.11484,0.00903
2330.05466,0.00872
2327.99449,0.00851
2325.93432,0.00891
2323.87415,0.00951
2321.81398,0.00912
2319.75380,0.00831
2317.69363,0.00763
2315.63346,0.00746
2313.57329,0.00769
2311.51312,0.00821
2309.45294,0.00848
2307.39277,0.00823
2305.33260,0.00791
2303.27243,0.00795
2301.21225,0.00836
2299.15208,0.00872
2297.09191,0.00878
2295.03174,0.00862
2292.97157,0.00847
2290.91139,0.00837
2288.85122,0.00832
2286.79105,0.00835
2284.73088,0.00829
2282.67071,0.00803
2280.61053,0.00758
2278.55036,0.00706
2276.49019,0.00689
2274.43002,0.00712
2272.36984,0.00723
2270.30967,0.00685
2268.24950,0.00622
2266.18933,0.00577
2264.12916,0.00584
2262.06898,0.00630
2260.00881,0.00663
2257.94864,0.00671
2255.88847,0.00664
2253.82830,0.00658
2251.76812,0.00645
2249.70795,0.00586
2247.64778,0.00513
2245.58761,0.00485
2243.52744,0.00488
2241.46726,0.00538
2239.40709,0.00606
2237.34692,0.00623
2235.28675,0.00593
2233.22657,0.00587
2231.16640,0.00640
2229.10623,0.00696
2227.04606,0.00715
2224.98589,0.00714
2222.92571,0.00667
2220.86554,0.00600
2218.80537,0.00613
2216.74520,0.00660
2214.68503,0.00665
2212.62485,0.00632
2210.56468,0.00579
2208.50451,0.00480
2206.44434,0.00412
2204.38417,0.00501
2202.32399,0.00587
2200.26382,0.00542
2198.20365,0.00530
2196.14348,0.00584
2194.08330,0.00642
2192.02313,0.00678
2189.96296,0.00623
2187.90279,0.00496
2185.84262,0.00403
2183.78244,0.00402
2181.72227,0.00445
2179.66210,0.00453
2177.60193,0.00438
2175.54176,0.00440
2173.48158,0.00427
2171.42141,0.00424
2169.36124,0.00497
2167.30107,0.00615
2165.24089,0.00693
2163.18072,0.00590
2161.12055,0.00339
2159.06038,0.00167
2157.00021,0.00132
2154.94003,0.00148
2152.87986,0.00141
2150.81969,0.00071
2148.75952,0.00020
2146.69935,0.00100
2144.63917,0.00254
2142.57900,0.00383
2140.51883,0.00464
2138.45866,0.00454
2136.39849,0.00327
2134.33831,0.00199
2132.27814,0.00202
2130.21797,0.00276
2128.15780,0.00278
2126.09762,0.00257
2124.03745,0.00316
2121.97728,0.00397
2119.91711,0.00428
2117.85694,0.00434
2115.79676,0.00460
2113.73659,0.00489
2111.67642,0.00513
2109.61625,0.00530
2107.55608,0.00522
2105.49590,0.00482
2103.43573,0.00441
2101.37556,0.00429
2099.31539,0.00386
2097.25521,0.00323
2095.19504,0.00320
2093.13487,0.00373
2091.07470,0.00407
2089.01453,0.00400
2086.95435,0.00388
2084.89418,0.00383
2082.83401,0.00387
2080.77384,0.00393
2078.71367,0.00391
2076.65349,0.00436
2074.59332,0.00529
2072.53315,0.00551
2070.47298,0.00512
2068.41281,0.00522
2066.35263,0.00572
2064.29246,0.00590
2062.23229,0.00551
2060.17212,0.00487
2058.11194,0.00457
2056.05177,0.00457
2053.99160,0.00447
2051.93143,0.00424
2049.87126,0.00391
2047.81108,0.00310
2045.75091,0.00232
2043.69074,0.00277
2041.63057,0.00383
2039.57040,0.00467
2037.51022,0.00555
2035.45005,0.00552
2033.38988,0.00384
2031.32971,0.00212
2029.26954,0.00147
2027.20936,0.00173
2025.14919,0.00314
2023.08902,0.00391
2021.02885,0.00259
2018.96867,0.00152
2016.90850,0.00170
2014.84833,0.00145
2012.78816,0.00064
2010.72799,0.00009
2008.66781,0.00000
2006.60764,0.00050
2004.54747,0.00128
2002.48730,0.00172
2000.42713,0.00192
1998.36695,0.00233
1996.30678,0.00249
1994.24661,0.00183
1992.18644,0.00128
1990.12626,0.00172
1988.06609,0.00238
1986.00592,0.00269
1983.94575,0.00334
1981.88558,0.00388
1979.82540,0.00291
1977.76523,0.00102
1975.70506,0.00000
1973.64489,0.00030
1971.58472,0.00130
1969.52454,0.00184
1967.46437,0.00186
1965.40420,0.00212
1963.34403,0.00187
1961.28386,0.00079
1959.22368,0.00040
1957.16351,0.00100
1955.10334,0.00101
1953.04317,0.00031
1950.98299,0.00055
1948.92282,0.00178
1946.86265,0.00241
1944.80248,0.00219
1942.74231,0.00216
1940.68213,0.00252
1938.62196,0.00282
1936.56179,0.00289
1934.50162,0.00293
1932.44145,0.00320
1930.38127,0.00319
1928.32110,0.00270
1926.26093,0.00240
1924.20076,0.00256
1922.14059,0.00279
1920.08041,0.00280
1918.02024,0.00271
1915.96007,0.00275
1913.89990,0.00316
1911.83972,0.00368
1909.77955,0.00377
1907.71938,0.00341
1905.65921,0.00300
1903.59904,0.00284
1901.53886,0.00273
1899.47869,0.00239
1897.41852,0.00218
1895.35835,0.00232
1893.29818,0.00244
1891.23800,0.00248
1889.17783,0.00268
1887.11766,0.00280
1885.05749,0.00265
1882.99731,0.00254
1880.93714,0.00269
1878.87697,0.00305
1876.81680,0.00326
1874.75663,0.00305
1872.69645,0.00260
1870.63628,0.00233
1868.57611,0.00245
1866.51594,0.00283
1864.45577,0.00316
1862.39559,0.00319
1860.33542,0.00308
1858.27525,0.00322
1856.21508,0.00350
1854.15491,0.00343
1852.09473,0.00289
1850.03456,0.00236
1847.97439,0.00235
1845.91422,0.00281
1843.85404,0.00318
1841.79387,0.00312
1839.73370,0.00293
1837.67353,0.00295
1835.61336,0.00315
1833.55318,0.00321
1831.49301,0.00311
1829.43284,0.00319
1827.37267,0.00345
1825.31250,0.00357
1823.25232,0.00343
1821.19215,0.00323
1819.13198,0.00319
1817.07181,0.00335
1815.01163,0.00359
1812.95146,0.00371
1810.89129,0.00355
1808.83112,0.00323
1806.77095,0.00306
1804.71077,0.00306
1802.65060,0.00315
1800.59043,0.00326
1798.53026,0.00331
1796.47009,0.00332
1794.40991,0.00338
1792.34974,0.00361
1790.28957,0.00380
1788.22940,0.00369
1786.16923,0.00354
1784.10905,0.00357
1782.04888,0.00365
1779.98871,0.00373
1777.92854,0.00379
1775.86836,0.00369
1773.80819,0.00357
1771.74802,0.00375
1769.68785,0.00405
1767.62768,0.00413
1765.56750,0.00409
1763.50733,0.00413
1761.44716,0.00425
1759.38699,0.00439
1757.32682,0.00450
1755.26664,0.00458
1753.20647,0.00463
1751.14630,0.00491
1749.08613,0.00545
1747.02596,0.00586
1744.96578,0.00602
1742.90561,0.00611
1740.84544,0.00621
1738.78527,0.00636
1736.72509,0.00656
1734.66492,0.00677
1732.60475,0.00680
1730.54458,0.00659
1728.48441,0.00646
1726.42423,0.00655
1724.36406,0.00673
1722.30389,0.00681
1720.24372,0.00682
1718.18355,0.00706
1716.12337,0.00748
1714.06320,0.00766
1712.00303,0.00761
1709.94286,0.00763
1707.88268,0.00798
1705.82251,0.00856
1703.76234,0.00901
1701.70217,0.00932
1699.64200,0.00981
1697.58182,0.01016
1695.52165,0.01017
1693.46148,0.01005
1691.40131,0.00997
1689.34114,0.01007
1687.28096,0.01036
1685.22079,0.01094
1683.16062,0.01184
1681.10045,0.01246
1679.04028,0.01259
1676.98010,0.01269
1674.91993,0.01322
1672.85976,0.01409
1670.79959,0.01499
1668.73941,0.01555
1666.67924,0.01559
1664.61907,0.01559
1662.55890,0.01597
1660.49873,0.01646
1658.43855,0.01661
1656.37838,0.01650
1654.31821,0.01665
1652.25804,0.01723
1650.19787,0.01735
1648.13769,0.01720
1646.07752,0.01740
1644.01735,0.01757
1641.95718,0.01733
1639.89701,0.01693
1637.83683,0.01672
1635.77666,0.01701
1633.71649,0.01737
1631.65632,0.01729
1629.59614,0.01700
1627.53597,0.01677
1625.47580,0.01666
1623.41563,0.01665
1621.35546,0.01653
1619.29528,0.01632
1617.23511,0.01627
1615.17494,0.01625
1613.11477,0.01597
1611.05460,0.01561
1608.99442,0.01542
1606.93425,0.01540
1604.87408,0.01540
1602.81391,0.01521
1600.75373,0.01479
1598.69356,0.01434
1596.63339,0.01392
1594.57322,0.01344
1592.51305,0.01290
1590.45287,0.01240
1588.39270,0.01202
1586.33253,0.01174
1584.27236,0.01146
1582.21219,0.01109
1580.15201,0.01061
1578.09184,0.01016
1576.03167,0.00984
1573.97150,0.00954
1571.91133,0.00920
1569.85115,0.00904
1567.79098,0.00896
1565.73081,0.00871
1563.67064,0.00828
1561.61046,0.00795
1559.55029,0.00801
1557.49012,0.00810
1555.42995,0.00770
1553.36978,0.00712
1551.30960,0.00665
1549.24943,0.00636
1547.18926,0.00621
1545.12909,0.00609
1543.06892,0.00601
1541.00874,0.00610
1538.94857,0.00623
1536.88840,0.00600
1534.82823,0.00563
1532.76805,0.00536
1530.70788,0.00509
1528.64771,0.00477
1526.58754,0.00455
1524.52737,0.00455
1522.46719,0.00476
1520.40702,0.00493
1518.34685,0.00478
1516.28668,0.00448
1514.22651,0.00425
1512.16633,0.00403
1510.10616,0.00380
1508.04599,0.00372
1505.98582,0.00390
1503.92565,0.00388
1501.86547,0.00364
1499.80530,0.00355
1497.74513,0.00376
1495.68496,0.00403
1493.62478,0.00393
1491.56461,0.00364
1489.50444,0.00359
1487.44427,0.00379
1485.38410,0.00392
1483.32392,0.00390
1481.26375,0.00380
1479.20358,0.00366
1477.14341,0.00362
1475.08324,0.00379
1473.02306,0.00419
1470.96289,0.00461
1468.90272,0.00484
1466.84255,0.00510
1464.78238,0.00540
1462.72220,0.00544
1460.66203,0.00528
1458.60186,0.00533
1456.54169,0.00570
1454.48151,0.00580
1452.42134,0.00551
1450.36117,0.00520
1448.30100,0.00504
1446.24083,0.00504
1444.18065,0.00510
1442.12048,0.00516
1440.06031,0.00524
1438.00014,0.00541
1435.93997,0.00573
1433.87979,0.00596
1431.81962,0.00597
1429.75945,0.00585
1427.69928,0.00579
1425.63910,0.00595
1423.57893,0.00624
1421.51876,0.00649
1419.45859,0.00674
1417.39842,0.00698
1415.33824,0.00702
1413.27807,0.00688
1411.21790,0.00676
1409.15773,0.00673
1407.09756,0.00670
1405.03738,0.00667
1402.97721,0.00655
1400.91704,0.00631
1398.85687,0.00612
1396.79670,0.00601
1394.73652,0.00593
1392.67635,0.00585
1390.61618,0.00580
1388.55601,0.00578
1386.49583,0.00574
1384.43566,0.00568
1382.37549,0.00565
1380.31532,0.00569
1378.25515,0.00578
1376.19497,0.00589
1374.13480,0.00601
1372.07463,0.00599
1370.01446,0.00579
1367.95429,0.00556
1365.89411,0.00545
1363.83394,0.00547
1361.77377,0.00543
1359.71360,0.00515
1357.65343,0.00483
1355.59325,0.00468
1353.53308,0.00461
1351.47291,0.00447
1349.41274,0.00427
1347.35256,0.00405
1345.29239,0.00390
1343.23222,0.00388
1341.17205,0.00405
1339.11188,0.00421
1337.05170,0.00405
1334.99153,0.00367
1332.93136,0.00341
1330.87119,0.00343
1328.81102,0.00359
1326.75084,0.00373
1324.69067,0.00377
1322.63050,0.00370
1320.57033,0.00359
1318.51015,0.00358
1316.44998,0.00369
1314.38981,0.00381
1312.32964,0.00389
1310.26947,0.00385
1308.20929,0.00366
1306.14912,0.00353
1304.08895,0.00359
1302.02878,0.00373
1299.96861,0.00380
1297.90843,0.00377
1295.84826,0.00371
1293.78809,0.00366
1291.72792,0.00360
1289.66775,0.00360
1287.60757,0.00372
1285.54740,0.00389
1283.48723,0.00403
1281.42706,0.00413
1279.36688,0.00413
1277.30671,0.00399
1275.24654,0.00392
1273.18637,0.00407
1271.12620,0.00428
1269.06602,0.00431
1267.00585,0.00421
1264.94568,0.00423
1262.88551,0.00436
1260.82534,0.00439
1258.76516,0.00432
1256.70499,0.00425
1254.64482,0.00423
1252.58465,0.00429
1250.52447,0.00437
1248.46430,0.00440
1246.40413,0.00430
1244.34396,0.00405
1242.28379,0.00380
1240.22361,0.00367
1238.16344,0.00367
1236.10327,0.00375
1234.04310,0.00371
1231.98293,0.00342
1229.92275,0.00314
1227.86258,0.00299
1225.80241,0.00280
1223.74224,0.00257
1221.68207,0.00245
1219.62189,0.00233
1217.56172,0.00210
1215.50155,0.00191
1213.44138,0.00178
1211.38120,0.00164
1209.32103,0.00155
1207.26086,0.00153
1205.20069,0.00148
1203.14052,0.00150
1201.08034,0.00161
1199.02017,0.00167
1196.96000,0.00169
1194.89983,0.00159
1192.83966,0.00146
1190.77948,0.00164
1188.71931,0.00203
1186.65914,0.00241
1184.59897,0.00285
1182.53880,0.00334
1180.47862,0.00379
1178.41845,0.00431
1176.35828,0.00488
1174.29811,0.00539
1172.23793,0.00592
1170.17776,0.00653
1168.11759,0.00718
1166.05742,0.00786
1163.99725,0.00864
1161.93707,0.00936
1159.87690,0.00983
1157.81673,0.01020
1155.75656,0.01074
1153.69639,0.01134
1151.63621,0.01184
1149.57604,0.01242
1147.51587,0.01310
1145.45570,0.01368
1143.39552,0.01408
1141.33535,0.01456
1139.27518,0.01528
1137.21501,0.01605
1135.15484,0.01678
1133.09466,0.01760
1131.03449,0.01843
1128.97432,0.01920
1126.91415,0.02001
1124.85398,0.02095
1122.79380,0.02191
1120.73363,0.02269
1118.67346,0.02332
1116.61329,0.02402
1114.55312,0.02482
1112.49294,0.02574
1110.43277,0.02679
1108.37260,0.02789
1106.31243,0.02892
1104.25225,0.02980
1102.19208,0.03054
1100.13191,0.03118
1098.07174,0.03190
1096.01157,0.03285
1093.95139,0.03392
1091.89122,0.03512
1089.83105,0.03625
1087.77088,0.03705
1085.71071,0.03768
1083.65053,0.03823
1081.59036,0.03871
1079.53019,0.03927
1077.47002,0.03984
1075.40985,0.04035
1073.34967,0.04084
1071.28950,0.04111
1069.22933,0.04115
1067.16916,0.04126
1065.10898,0.04137
1063.04881,0.04130
1060.98864,0.04114
1058.92847,0.04094
1056.86830,0.04065
1054.80812,0.04026
1052.74795,0.03980
1050.68778,0.03945
1048.62761,0.03917
1046.56744,0.03866
1044.50726,0.03795
1042.44709,0.03721
1040.38692,0.03644
1038.32675,0.03558
1036.26657,0.03479
1034.20640,0.03399
1032.14623,0.03299
1030.08606,0.03190
1028.02589,0.03090
1025.96571,0.03008
1023.90554,0.02941
1021.84537,0.02868
1019.78520,0.02792
1017.72503,0.02734
1015.66485,0.02681
1013.60468,0.02612
1011.54451,0.02539
1009.48434,0.02472
1007.42417,0.02416
1005.36399,0.02379
1003.30382,0.02350
1001.24365,0.02321
999.18348,0.02330
997.12330,0.02387
995.06313,0.02446
993.00296,0.02483
990.94279,0.02513
988.88262,0.02542
986.82244,0.02565
984.76227,0.02565
982.70210,0.02525
980.64193,0.02467
978.58176,0.02423
976.52158,0.02372
974.46141,0.02278
972.40124,0.02148
970.34107,0.02020
968.28089,0.01915
966.22072,0.01826
964.16055,0.01736
962.10038,0.01654
960.04021,0.01577
957.98003,0.01490
955.91986,0.01403
953.85969,0.01324
951.79952,0.01255
949.73935,0.01195
947.67917,0.01152
945.61900,0.01135
943.55883,0.01120
941.49866,0.01095
939.43849,0.01067
937.37831,0.01036
935.31814,0.01016
933.25797,0.01020
931.19780,0.01026
929.13762,0.01006
927.07745,0.00958
925.01728,0.00910
922.95711,0.00883
920.89694,0.00865
918.83676,0.00844
916.77659,0.00830
914.71642,0.00808
912.65625,0.00744
910.59608,0.00666
908.53590,0.00630
906.47573,0.00639
904.41556,0.00665
902.35539,0.00680
900.29522,0.00678
898.23504,0.00680
896.17487,0.00704
894.11470,0.00728
892.05453,0.00724
889.99435,0.00715
887.93418,0.00725
885.87401,0.00743
883.81384,0.00761
881.75367,0.00783
879.69349,0.00822
877.63332,0.00868
875.57315,0.00888
873.51298,0.00902
871.45281,0.00921
869.39263,0.00925
867.33246,0.00955
865.27229,0.00993
863.21212,0.00984
861.15194,0.00960
859.09177,0.00952
857.03160,0.00952
854.97143,0.00959
852.91126,0.00948
850.85108,0.00902
848.79091,0.00863
846.73074,0.00850
844.67057,0.00844
842.61040,0.00832
840.55022,0.00784
838.49005,0.00683
836.42988,0.00576
834.36971,0.00539
832.30954,0.00564
830.24936,0.00584
828.18919,0.00592
826.12902,0.00597
824.06885,0.00591
822.00867,0.00555
819.94850,0.00495
817.88833,0.00471
815.82816,0.00473
813.76799,0.00446
811.70781,0.00410
809.64764,0.00387
807.58747,0.00394
805.52730,0.00420
803.46713,0.00415
801.40695,0.00383
799.34678,0.00356
797.28661,0.00336
795.22644,0.00331
793.16627,0.00334
791.10609,0.00324
789.04592,0.00344
786.98575,0.00406
784.92558,0.00428
782.86540,0.00379
780.80523,0.00303
778.74506,0.00269
776.68489,0.00295
774.62472,0.00306
772.56454,0.00304
770.50437,0.00336
768.44420,0.00373
766.38403,0.00360
764.32386,0.00304
762.26368,0.00254
760.20351,0.00244
758.14334,0.00256
756.08317,0.00239
754.02299,0.00202
751.96282,0.00159
749.90265,0.00144
747.84248,0.00199
745.78231,0.00251
743.72213,0.00225
741.66196,0.00190
739.60179,0.00213
737.54162,0.00251
735.48145,0.00256
733.42127,0.00253
731.36110,0.00280
729.30093,0.00318
727.24076,0.00321
725.18059,0.00282
723.12041,0.00283
721.06024,0.00350
719.00007,0.00348
716.93990,0.00307
714.87972,0.00319
712.81955,0.00355
710.75938,0.00360
708.69921,0.00322
706.63904,0.00255
704.57886,0.00212
702.51869,0.00250
700.45852,0.00349
698.39835,0.00392
696.33818,0.00313
694.27800,0.00199
692.21783,0.00152
690.15766,0.00153
688.09749,0.00177
686.03731,0.00245
683.97714,0.00305
681.91697,0.00299
679.85680,0.00283
677.79663,0.00297
675.73645,0.00261
673.67628,0.00124
671.61611,0.00000
669.55594,0.00143
667.49577,0.00269
665.43559,0.00066
663.37542,0.00236
661.31525,0.00449
659.25508,0.00483
657.19491,0.00400
655.13473,0.00309
653.07456,0.00247
651.01439,0.00280
648.95422,0.00375
646.89404,0.00358
644.83387,0.00263
642.77370,0.00263
640.71353,0.00389
638.65336,0.00451
636.59318,0.00350
634.53301,0.00239
632.47284,0.00224
630.41267,0.00270
628.35250,0.00308
626.29232,0.00305
624.23215,0.00345
622.17198,0.00276
620.11181,0.00079
618.05164,0.00133
615.99146,0.00428
613.93129,0.00555
611.87112,0.00492
609.81095,0.00437
607.75077,0.00376
605.69060,0.00230
603.63043,0.00055
601.57026,0.00000
599.51009,0.00000
