3996.73391,0.00095
3994.67373,0.00094
3992.61356,0.00048
3990.55339,0.00000
3988.49322,0.00003
3986.43305,0.00043
3984.37287,0.00076
3982.31270,0.00085
3980.25253,0.00071
3978.19236,0.00046
3976.13219,0.00023
3974.07201,0.00005
3972.01184,0.00008
3969.95167,0.00050
3967.89150,0.00101
3965.83133,0.00117
3963.77115,0.00101
3961.71098,0.00077
3959.65081,0.00051
3957.59064,0.00019
3955.53046,0.00005
3953.47029,0.00013
3951.41012,0.00024
3949.34995,0.00047
3947.28978,0.00084
3945.22960,0.00098
3943.16943,0.00073
3941.10926,0.00037
3939.04909,0.00019
3936.98892,0.00034
3934.92874,0.00060
3932.86857,0.00064
3930.80840,0.00063
3928.74823,0.00075
3926.68805,0.00088
3924.62788,0.00090
3922.56771,0.00087
3920.50754,0.00097
3918.44737,0.00117
3916.38719,0.00128
3914.32702,0.00119
3912.26685,0.00096
3910.20668,0.00083
3908.14651,0.00091
3906.08633,0.00099
3904.02616,0.00107
3901.96599,0.00104
3899.90582,0.00091
3897.84565,0.00110
3895.78547,0.00151
3893.72530,0.00166
3891.66513,0.00138
3889.60496,0.00092
3887.54478,0.00079
3885.48461,0.00098
3883.42444,0.00106
3881.36427,0.00105
3879.30410,0.00111
3877.24392,0.00100
3875.18375,0.00058
3873.12358,0.00016
3871.06341,0.00005
3869.00324,0.00029
3866.94306,0.00055
3864.88289,0.00059
3862.82272,0.00056
3860.76255,0.00085
3858.70237,0.00140
3856.64220,0.00169
3854.58203,0.00144
3852.52186,0.00123
3850.46169,0.00145
3848.40151,0.00161
3846.34134,0.00158
3844.28117,0.00143
3842.22100,0.00104
3840.16083,0.00046
3838.10065,0.00016
3836.04048,0.00025
3833.98031,0.00034
3831.92014,0.00042
3829.85997,0.00071
3827.79979,0.00096
3825.73962,0.00107
3823.67945,0.00120
3821.61928,0.00133
3819.55910,0.00142
3817.49893,0.00150
3815.43876,0.00161
3813.37859,0.00168
3811.31842,0.00169
3809.25824,0.00178
3807.19807,0.00193
3805.13790,0.00179
3803.07773,0.00136
3801.01756,0.00128
3798.95738,0.00168
3796.89721,0.00191
3794.83704,0.00153
3792.77687,0.00088
3790.71670,0.00061
3788.65652,0.00083
3786.59635,0.00117
3784.53618,0.00132
3782.47601,0.00137
3780.41583,0.00156
3778.35566,0.00187
3776.29549,0.00201
3774.23532,0.00179
3772.17515,0.00135
3770.11497,0.00117
3768.05480,0.00138
3765.99463,0.00148
3763.93446,0.00140
3761.87429,0.00139
3759.81411,0.00136
3757.75394,0.00117
3755.69377,0.00084
3753.63360,0.00040
3751.57342,0.00005
3749.51325,0.00007
3747.45308,0.00024
3745.39291,0.00043
3743.33274,0.00082
3741.27256,0.00118
3739.21239,0.00119
3737.15222,0.00092
3735.09205,0.00096
3733.03188,0.00157
3730.97170,0.00191
3728.91153,0.00161
3726.85136,0.00123
3724.79119,0.00116
3722.73102,0.00123
3720.67084,0.00141
3718.61067,0.00162
3716.55050,0.00174
3714.49033,0.00167
3712.43015,0.00149
3710.36998,0.00145
3708.30981,0.00156
3706.24964,0.00177
3704.18947,0.00197
3702.12929,0.00186
3700.06912,0.00169
3698.00895,0.00190
3695.94878,0.00223
3693.88861,0.00211
3691.82843,0.00172
3689.76826,0.00171
3687.70809,0.00207
3685.64792,0.00218
3683.58775,0.00239
3681.52757,0.00285
3679.46740,0.00296
3677.40723,0.00246
3675.34706,0.00190
3673.28688,0.00165
3671.22671,0.00148
3669.16654,0.00194
3667.10637,0.00306
3665.04620,0.00377
3662.98602,0.00388
3660.92585,0.00384
3658.86568,0.00385
3656.80551,0.00400
3654.74534,0.00417
3652.68516,0.00420
3650.62499,0.00441
3648.56482,0.00493
3646.50465,0.00548
3644.44447,0.00620
3642.38430,0.00718
3640.32413,0.00792
3638.26396,0.00801
3636.20379,0.00790
3634.14361,0.00821
3632.08344,0.00868
3630.02327,0.00896
3627.96310,0.00935
3625.90293,0.00989
3623.84275,0.01045
3621.78258,0.01096
3619.72241,0.01110
3617.66224,0.01098
3615.60207,0.01112
3613.54189,0.01180
3611.48172,0.01286
3609.42155,0.01391
3607.36138,0.01459
3605.30120,0.01495
3603.24103,0.01518
3601.18086,0.01541
3599.12069,0.01578
3597.06052,0.01627
3595.00034,0.01689
3592.94017,0.01743
3590.88000,0.01764
3588.81983,0.01782
3586.75966,0.01850
3584.69948,0.01947
3582.63931,0.02035
3580.57914,0.02102
3578.51897,0.02127
3576.45879,0.02120
3574.39862,0.02128
3572.33845,0.02174
3570.27828,0.02232
3568.21811,0.02281
3566.15793,0.02339
3564.09776,0.02427
3562.03759,0.02511
3559.97742,0.02557
3557.91725,0.02576
3555.85707,0.02595
3553.79690,0.02630
3551.73673,0.02690
3549.67656,0.02753
3547.61639,0.02799
3545.55621,0.02844
3543.49604,0.02901
3541.43587,0.02953
3539.37570,0.02989
3537.31552,0.03005
3535.25535,0.03018
3533.19518,0.03054
3531.13501,0.03112
3529.07484,0.03187
3527.01466,0.03273
3524.95449,0.03347
3522.89432,0.03403
3520.83415,0.03443
3518.77398,0.03475
3516.71380,0.03506
3514.65363,0.03525
3512.59346,0.03538
3510.53329,0.03582
3508.47312,0.03651
3506.41294,0.03696
3504.35277,0.03707
3502.29260,0.03727
3500.23243,0.03767
3498.17225,0.03799
3496.11208,0.03821
3494.05191,0.03855
3491.99174,0.03911
3489.93157,0.03976
3487.87139,0.04030
3485.81122,0.04077
3483.75105,0.04120
3481.69088,0.04134
3479.63071,0.04136
3477.57053,0.04177
3475.51036,0.04236
3473.45019,0.04271
3471.39002,0.04306
3469.32984,0.04368
3467.26967,0.04420
3465.20950,0.04436
3463.14933,0.04449
3461.08916,0.04479
3459.02898,0.04515
3456.96881,0.04551
3454.90864,0.04598
3452.84847,0.04651
3450.78830,0.04667
3448.72812,0.04655
3446.66795,0.04681
3444.60778,0.04745
3442.54761,0.04785
3440.48744,0.04790
3438.42726,0.04810
3436.36709,0.04863
3434.30692,0.04901
3432.24675,0.04896
3430.18657,0.04884
3428.12640,0.04896
3426.06623,0.04930
3424.00606,0.04979
3421.94589,0.05016
3419.88571,0.05018
3417.82554,0.05022
3415.76537,0.05073
3413.70520,0.05137
3411.64503,0.05146
3409.58485,0.05127
3407.52468,0.05151
3405.46451,0.05188
3403.40434,0.05210
3401.34416,0.05252
3399.28399,0.05298
3397.22382,0.05312
3395.16365,0.05311
3393.10348,0.05327
3391.04330,0.05369
3388.98313,0.05397
3386.92296,0.05379
3384.86279,0.05359
3382.80262,0.05370
3380.74244,0.05404
3378.68227,0.05452
3376.62210,0.05479
3374.56193,0.05467
3372.50176,0.05462
3370.44158,0.05486
3368.38141,0.05499
3366.32124,0.05484
3364.26107,0.05471
3362.20089,0.05473
3360.14072,0.05501
3358.08055,0.05546
3356.02038,0.05561
3353.96021,0.05552
3351.90003,0.05545
3349.83986,0.05543
3347.77969,0.05550
3345.71952,0.05586
3343.65935,0.05631
3341.59917,0.05632
3339.53900,0.05610
3337.47883,0.05624
3335.41866,0.05647
3333.35849,0.05629
3331.29831,0.05598
3329.23814,0.05592
3327.17797,0.05600
3325.11780,0.05628
3323.05762,0.05669
3320.99745,0.05682
3318.93728,0.05653
3316.87711,0.05625
3314.81694,0.05629
3312.75676,0.05638
3310.69659,0.05623
3308.63642,0.05609
3306.57625,0.05625
3304.51608,0.05655
3302.45590,0.05652
3300.39573,0.05626
3298.33556,0.05628
3296.27539,0.05641
3294.21521,0.05655
3292.15504,0.05683
3290.09487,0.05699
3288.03470,0.05692
3285.97453,0.05691
3283.91435,0.05713
3281.85418,0.05728
3279.79401,0.05707
3277.73384,0.05681
3275.67367,0.05692
3273.61349,0.05711
3271.55332,0.05697
3269.49315,0.05661
3267.43298,0.05634
3265.37281,0.05634
3263.31263,0.05647
3261.25246,0.05644
3259.19229,0.05635
3257.13212,0.05644
3255.07194,0.05668
3253.01177,0.05694
3250.95160,0.05695
3248.89143,0.05672
3246.83126,0.05670
3244.77108,0.05685
3242.71091,0.05671
3240.65074,0.05642
3238.59057,0.05630
3236.53040,0.05618
3234.47022,0.05596
3232.41005,0.05576
3230.34988,0.05560
3228.28971,0.05547
3226.22954,0.05557
3224.16936,0.05583
3222.10919,0.05594
3220.04902,0.05585
3217.98885,0.05579
3215.92867,0.05581
3213.86850,0.05568
3211.80833,0.05537
3209.74816,0.05514
3207.68799,0.05511
3205.62781,0.05514
3203.56764,0.05505
3201.50747,0.05488
3199.44730,0.05465
3197.38713,0.05436
3195.32695,0.05424
3193.26678,0.05427
3191.20661,0.05411
3189.14644,0.05391
3187.08626,0.05383
3185.02609,0.05370
3182.96592,0.05348
3180.90575,0.05338
3178.84558,0.05342
3176.78540,0.05331
3174.72523,0.05299
3172.66506,0.05280
3170.60489,0.05266
3168.54472,0.05238
3166.48454,0.05217
3164.42437,0.05205
3162.36420,0.05193
3160.30403,0.05184
3158.24386,0.05162
3156.18368,0.05131
3154.12351,0.05108
3152.06334,0.05086
3150.00317,0.05072
3147.94299,0.05073
3145.88282,0.05052
3143.82265,0.05002
3141.76248,0.04975
3139.70231,0.04977
3137.64213,0.04959
3135.58196,0.04910
3133.52179,0.04879
3131.46162,0.04883
3129.40145,0.04884
3127.34127,0.04865
3125.28110,0.04842
3123.22093,0.04822
3121.16076,0.04790
3119.10058,0.04762
3117.04041,0.04749
3114.98024,0.04735
3112.92007,0.04717
3110.85990,0.04689
3108.79972,0.04639
3106.73955,0.04588
3104.67938,0.04563
3102.61921,0.04555
3100.55904,0.04548
3098.49886,0.04536
3096.43869,0.04508
3094.37852,0.04479
3092.31835,0.04472
3090.25818,0.04472
3088.19800,0.04456
3086.13783,0.04428
3084.07766,0.04407
3082.01749,0.04393
3079.95731,0.04364
3077.89714,0.04325
3075.83697,0.04298
3073.77680,0.04282
3071.71663,0.04273
3069.65645,0.04267
3067.59628,0.04245
3065.53611,0.04197
3063.47594,0.04149
3061.41577,0.04126
3059.35559,0.04120
3057.29542,0.04104
3055.23525,0.04080
3053.17508,0.04057
3051.11491,0.04021
3049.05473,0.03991
3046.99456,0.03975
3044.93439,0.03942
3042.87422,0.03901
3040.81404,0.03879
3038.75387,0.03860
3036.69370,0.03843
3034.63353,0.03832
3032.57336,0.03806
3030.51318,0.03768
3028.45301,0.03752
3026.39284,0.03739
3024.33267,0.03702
3022.27250,0.03667
3020.21232,0.03651
3018.15215,0.03643
3016.09198,0.03616
3014.03181,0.03577
3011.97163,0.03546
3009.91146,0.03511
3007.85129,0.03479
3005.79112,0.03469
3003.73095,0.03468
3001.67077,0.03450
2999.61060,0.03426
2997.55043,0.03407
2995.49026,0.03394
2993.43009,0.03390
2991.36991,0.03383
2989.30974,0.03374
2987.24957,0.03363
2985.18940,0.03341
2983.12923,0.03292
2981.06905,0.03247
2979.00888,0.03242
2976.94871,0.03247
2974.88854,0.03228
2972.82836,0.03203
2970.76819,0.03202
2968.70802,0.03212
2966.64785,0.03218
2964.58768,0.03228
2962.52750,0.03239
2960.46733,0.03240
2958.40716,0.03235
2956.34699,0.03231
2954.28682,0.03220
2952.22664,0.03211
2950.16647,0.03219
2948.10630,0.03234
2946.04613,0.03241
2943.98596,0.03234
2941.92578,0.03224
2939.86561,0.03225
2937.80544,0.03225
2935.74527,0.03214
2933.68509,0.03212
2931.62492,0.03230
2929.56475,0.03242
2927.50458,0.03218
2925.44441,0.03186
2923.38423,0.03170
2921.32406,0.03150
2919.26389,0.03122
2917.20372,0.03103
2915.14355,0.03090
2913.08337,0.03067
2911.02320,0.03043
2908.96303,0.03022
2906.90286,0.03007
2904.84268,0.03001
2902.78251,0.02988
2900.72234,0.02974
2898.66217,0.02970
2896.60200,0.02956
2894.54182,0.02946
2892.48165,0.02948
2890.42148,0.02942
2888.36131,0.02931
2886.30114,0.02933
2884.24096,0.02936
2882.18079,0.02915
2880.12062,0.02884
2878.06045,0.02864
2876.00028,0.02852
2873.94010,0.02839
2871.87993,0.02830
2869.81976,0.02838
2867.75959,0.02836
2865.69941,0.02798
2863.63924,0.02752
2861.57907,0.02733
2859.51890,0.02738
2857.45873,0.02737
2855.39855,0.02718
2853.33838,0.02691
2851.27821,0.02673
2849.21804,0.02667
2847.15787,0.02663
2845.09769,0.02642
2843.03752,0.02608
2840.97735,0.02584
2838.91718,0.02572
2836.85700,0.02554
2834.79683,0.02534
2832.73666,0.02520
2830.67649,0.02511
2828.61632,0.02503
2826.55614,0.02492
2824.49597,0.02478
2822.43580,0.02466
2820.37563,0.02454
2818.31546,0.02433
2816.25528,0.02401
2814.19511,0.02360
2812.13494,0.02330
2810.07477,0.02321
2808.01460,0.02322
2805.95442,0.02318
2803.89425,0.02308
2801.83408,0.02303
2799.77391,0.02295
2797.71373,0.02275
2795.65356,0.02261
2793.59339,0.02257
2791.53322,0.02251
2789.47305,0.02240
2787.41287,0.02229
2785.35270,0.02222
2783.29253,0.02211
2781.23236,0.02203
2779.17219,0.02210
2777.11201,0.02217
2775.05184,0.02208
2772.99167,0.02188
2770.93150,0.02170
2768.87133,0.02161
2766.81115,0.02158
2764.75098,0.02153
2762.69081,0.02129
2760.63064,0.02085
2758.57046,0.02065
2756.51029,0.02073
2754.45012,0.02072
2752.38995,0.02067
2750.32978,0.02073
2748.26960,0.02076
2746.20943,0.02058
2744.14926,0.02033
2742.08909,0.02025
2740.02892,0.02024
2737.96874,0.02018
2735.90857,0.02009
2733.84840,0.02000
2731.78823,0.01986
2729.72805,0.01965
2727.66788,0.01948
2725.60771,0.01950
2723.54754,0.01950
2721.48737,0.01931
2719.42719,0.01921
2717.36702,0.01929
2715.30685,0.01925
2713.24668,0.01891
2711.18651,0.01849
2709.12633,0.01834
2707.06616,0.01851
2705.00599,0.01862
2702.94582,0.01830
2700.88565,0.01782
2698.82547,0.01764
2696.76530,0.01773
2694.70513,0.01770
2692.64496,0.01747
2690.58478,0.01732
2688.52461,0.01727
2686.46444,0.01712
2684.40427,0.01702
2682.34410,0.01714
2680.28392,0.01735
2678.22375,0.01735
2676.16358,0.01712
2674.10341,0.01687
2672.04324,0.01667
2669.98306,0.01647
2667.92289,0.01627
2665.86272,0.01626
2663.80255,0.01636
2661.74238,0.01622
2659.68220,0.01590
2657.62203,0.01565
2655.56186,0.01562
2653.50169,0.01572
2651.44151,0.01575
2649.38134,0.01566
2647.32117,0.01551
2645.26100,0.01524
2643.20083,0.01501
2641.14065,0.01482
2639.08048,0.01457
2637.02031,0.01447
2634.96014,0.01461
2632.89997,0.01467
2630.83979,0.01446
2628.77962,0.01406
2626.71945,0.01372
2624.65928,0.01358
2622.59910,0.01335
2620.53893,0.01305
2618.47876,0.01298
2616.41859,0.01315
2614.35842,0.01317
2612.29824,0.01283
2610.23807,0.01266
2608.17790,0.01284
2606.11773,0.01307
2604.05756,0.01311
2601.99738,0.01283
2599.93721,0.01241
2597.87704,0.01205
2595.81687,0.01187
2593.75670,0.01212
2591.69652,0.01249
2589.63635,0.01234
2587.57618,0.01184
2585.51601,0.01144
2583.45583,0.01116
2581.39566,0.01112
2579.33549,0.01126
2577.27532,0.01124
2575.21515,0.01116
2573.15497,0.01110
2571.09480,0.01103
2569.03463,0.01107
2566.97446,0.01121
2564.91429,0.01143
2562.85411,0.01164
2560.79394,0.01162
2558.73377,0.01135
2556.67360,0.01101
2554.61342,0.01085
2552.55325,0.01096
2550.49308,0.01124
2548.43291,0.01136
2546.37274,0.01119
2544.31256,0.01107
2542.25239,0.01115
2540.19222,0.01132
2538.13205,0.01149
2536.07188,0.01165
2534.01170,0.01173
2531.95153,0.01155
2529.89136,0.01125
2527.83119,0.01105
2525.77102,0.01096
2523.71084,0.01094
2521.65067,0.01114
2519.59050,0.01138
2517.53033,0.01154
2515.47015,0.01159
2513.40998,0.01137
2511.34981,0.01117
2509.28964,0.01123
2507.22947,0.01127
2505.16929,0.01116
2503.10912,0.01099
2501.04895,0.01087
2498.98878,0.01090
2496.92861,0.01097
2494.86843,0.01100
2492.80826,0.01118
2490.74809,0.01156
2488.68792,0.01181
2486.62775,0.01166
2484.56757,0.01155
2482.50740,0.01185
2480.44723,0.01203
2478.38706,0.01176
2476.32688,0.01144
2474.26671,0.01147
2472.20654,0.01185
2470.14637,0.01227
2468.08620,0.01239
2466.02602,0.01227
2463.96585,0.01231
2461.90568,0.01250
2459.84551,0.01259
2457.78534,0.01251
2455.72516,0.01245
2453.66499,0.01242
2451.60482,0.01224
2449.54465,0.01207
2447.48447,0.01212
2445.42430,0.01237
2443.36413,0.01272
2441.30396,0.01293
2439.24379,0.01279
2437.18361,0.01243
2435.12344,0.01211
2433.06327,0.01196
2431.00310,0.01196
2428.94293,0.01220
2426.88275,0.01250
2424.82258,0.01239
2422.76241,0.01210
2420.70224,0.01217
2418.64207,0.01237
2416.58189,0.01241
2414.52172,0.01229
2412.46155,0.01210
2410.40138,0.01205
2408.34120,0.01201
2406.28103,0.01189
2404.22086,0.01188
2402.16069,0.01192
2400.10052,0.01184
2398.04034,0.01192
2395.98017,0.01205
2393.92000,0.01198
2391.85983,0.01171
2389.79966,0.01148
2387.73948,0.01155
2385.67931,0.01195
2383.61914,0.01231
2381.55897,0.01227
2379.49880,0.01208
2377.43862,0.01232
2375.37845,0.01285
2373.31828,0.01329
2371.25811,0.01327
2369.19793,0.01259
2367.13776,0.01173
2365.07759,0.01072
2363.01742,0.00952
2360.95725,0.00995
2358.89707,0.01038
2356.83690,0.01017
2354.77673,0.00995
2352.71656,0.01026
2350.65639,0.01191
2348.59621,0.01284
2346.53604,0.01099
2344.47587,0.00978
2342.41570,0.00946
2340.35552,0.00970
2338.29535,0.01046
2336.23518,0.01116
2334.17501,0.01144
2332.11484,0.01116
2330.05466,0.01091
2327.99449,0.01080
2325.93432,0.01131
2323.87415,0.01148
2321.81398,0.01091
2319.75380,0.01042
2317.69363,0.01100
2315.63346,0.01144
2313.57329,0.01147
2311.51312,0.01152
2309.45294,0.01145
2307.39277,0.01126
2305.33260,0.01110
2303.27243,0.01110
2301.21225,0.01126
2299.15208,0.01150
2297.09191,0.01142
2295.03174,0.01114
2292.97157,0.01115
2290.91139,0.01129
2288.85122,0.01122
2286.79105,0.01112
2284.73088,0.01105
2282.67071,0.01056
2280.61053,0.00966
2278.55036,0.00908
2276.49019,0.00920
2274.43002,0.00954
2272.36984,0.00958
2270.30967,0.00933
2268.24950,0.00921
2266.18933,0.00942
2264.12916,0.00975
2262.06898,0.00977
2260.00881,0.00930
2257.94864,0.00884
2255.88847,0.00881
2253.82830,0.00898
2251.76812,0.00891
2249.70795,0.00843
2247.64778,0.00787
2245.58761,0.00756
2243.52744,0.00772
2241.46726,0.00839
2239.40709,0.00876
2237.34692,0.00879
2235.28675,0.00861
2233.22657,0.00781
2231.16640,0.00739
2229.10623,0.00781
2227.04606,0.00833
2224.98589,0.00903
2222.92571,0.00953
2220.86554,0.00902
2218.80537,0.00814
2216.74520,0.00773
2214.68503,0.00736
2212.62485,0.00688
2210.56468,0.00669
2208.50451,0.00670
2206.44434,0.00685
2204.38417,0.00715
2202.32399,0.00725
2200.26382,0.00707
2198.20365,0.00708
2196.14348,0.00739
2194.08330,0.00766
2192.02313,0.00792
2189.96296,0.00723
2187.90279,0.00550
2185.84262,0.00473
2183.78244,0.00540
2181.72227,0.00650
2179.66210,0.00688
2177.60193,0.00588
2175.54176,0.00449
2173.48158,0.00364
2171.42141,0.00357
2169.36124,0.00456
2167.30107,0.00581
2165.24089,0.00594
2163.18072,0.00506
2161.12055,0.00407
2159.06038,0.00314
2157.00021,0.00201
2154.94003,0.00158
2152.87986,0.00277
2150.81969,0.00374
2148.75952,0.00337
2146.69935,0.00331
2144.63917,0.00430
2142.57900,0.00532
2140.51883,0.00567
2138.45866,0.00585
2136.39849,0.00556
2134.33831,0.00457
2132.27814,0.00434
2130.21797,0.00492
2128.15780,0.00509
2126.09762,0.00522
2124.03745,0.00571
2121.97728,0.00590
2119.91711,0.00573
2117.85694,0.00607
2115.79676,0.00689
2113.73659,0.00693
2111.67642,0.00631
2109.61625,0.00609
2107.55608,0.00613
2105.49590,0.00599
2103.43573,0.00602
2101.37556,0.00647
2099.31539,0.00651
2097.25521,0.00583
2095.19504,0.00516
2093.13487,0.00502
2091.07470,0.00507
2089.01453,0.00513
2086.95435,0.00535
2084.89418,0.00552
2082.83401,0.00540
2080.77384,0.00519
2078.71367,0.00519
2076.65349,0.00539
2074.59332,0.00561
2072.53315,0.00570
2070.47298,0.00576
2068.41281,0.00580
2066.35263,0.00596
2064.29246,0.00631
2062.23229,0.00600
2060.17212,0.00511
2058.11194,0.00470
2056.05177,0.00477
2053.99160,0.00506
2051.93143,0.00527
2049.87126,0.00486
2047.81108,0.00398
2045.75091,0.00333
2043.69074,0.00315
2041.63057,0.00300
2039.57040,0.00350
2037.51022,0.00564
2035.45005,0.00734
2033.38988,0.00594
2031.32971,0.00295
2029.26954,0.00132
2027.20936,0.00163
2025.14919,0.00280
2023.08902,0.00339
2021.02885,0.00320
2018.96867,0.00318
2016.90850,0.00309
2014.84833,0.00279
2012.78816,0.00262
2010.72799,0.00216
2008.66781,0.00214
2006.60764,0.00282
2004.54747,0.00292
2002.48730,0.00247
2000.42713,0.00246
1998.36695,0.00293
1996.30678,0.00303
1994.24661,0.00286
1992.18644,0.00305
1990.12626,0.00305
1988.06609,0.00247
1986.00592,0.00226
1983.94575,0.00293
1981.88558,0.00334
1979.82540,0.00234
1977.76523,0.00073
1975.70506,0.00002
1973.64489,0.00047
1971.58472,0.00161
1969.52454,0.00264
1967.46437,0.00323
1965.40420,0.00324
1963.34403,0.00237
1961.28386,0.00143
1959.22368,0.00131
1957.16351,0.00184
1955.10334,0.00235
1953.04317,0.00234
1950.98299,0.00214
1948.92282,0.00238
1946.86265,0.00300
1944.80248,0.00339
1942.74231,0.00349
1940.68213,0.00373
1938.62196,0.00408
1936.56179,0.00433
1934.50162,0.00442
1932.44145,0.00424
1930.38127,0.00381
1928.32110,0.00340
1926.26093,0.00357
1924.20076,0.00397
1922.14059,0.00374
1920.08041,0.00313
1918.02024,0.00268
1915.96007,0.00251
1913.89990,0.00278
1911.83972,0.00321
1909.77955,0.00339
1907.71938,0.00336
1905.65921,0.00330
1903.59904,0.00337
1901.53886,0.00343
1899.47869,0.00341
1897.41852,0.00355
1895.35835,0.00375
1893.29818,0.00364
1891.23800,0.00334
1889.17783,0.00323
1887.11766,0.00333
1885.05749,0.00349
1882.99731,0.00355
1880.93714,0.00345
1878.87697,0.00336
1876.81680,0.00323
1874.75663,0.00291
1872.69645,0.00253
1870.63628,0.00228
1868.57611,0.00235
1866.51594,0.00300
1864.45577,0.00379
1862.39559,0.00402
1860.33542,0.00378
1858.27525,0.00373
1856.21508,0.00383
1854.15491,0.00364
1852.09473,0.00335
1850.03456,0.00336
1847.97439,0.00354
1845.91422,0.00365
1843.85404,0.00370
1841.79387,0.00368
1839.73370,0.00367
1837.67353,0.00390
1835.61336,0.00426
1833.55318,0.00419
1831.49301,0.00359
1829.43284,0.00310
1827.37267,0.00325
1825.31250,0.00378
1823.25232,0.00417
1821.19215,0.00417
1819.13198,0.00393
1817.07181,0.00375
1815.01163,0.00373
1812.95146,0.00374
1810.89129,0.00368
1808.83112,0.00371
1806.77095,0.00391
1804.71077,0.00403
1802.65060,0.00403
1800.59043,0.00410
1798.53026,0.00424
1796.47009,0.00417
1794.40991,0.00393
1792.34974,0.00385
1790.28957,0.00402
1788.22940,0.00416
1786.16923,0.00424
1784.10905,0.00432
1782.04888,0.00433
1779.98871,0.00437
1777.92854,0.00443
1775.86836,0.00421
1773.80819,0.00376
1771.74802,0.00371
1769.68785,0.00421
1767.62768,0.00480
1765.56750,0.00511
1763.50733,0.00515
1761.44716,0.00515
1759.38699,0.00532
1757.32682,0.00553
1755.26664,0.00574
1753.20647,0.00586
1751.14630,0.00579
1749.08613,0.00573
1747.02596,0.00595
1744.96578,0.00637
1742.90561,0.00678
1740.84544,0.00710
1738.78527,0.00733
1736.72509,0.00741
1734.66492,0.00736
1732.60475,0.00741
1730.54458,0.00767
1728.48441,0.00803
1726.42423,0.00837
1724.36406,0.00863
1722.30389,0.00872
1720.24372,0.00861
1718.18355,0.00840
1716.12337,0.00850
1714.06320,0.00903
1712.00303,0.00955
1709.94286,0.00979
1707.88268,0.00992
1705.82251,0.01021
1703.76234,0.01062
1701.70217,0.01091
1699.64200,0.01114
1697.58182,0.01146
1695.52165,0.01191
1693.46148,0.01240
1691.40131,0.01280
1689.34114,0.01312
1687.28096,0.01315
1685.22079,0.01310
1683.16062,0.01383
1681.10045,0.01508
1679.04028,0.01588
1676.98010,0.01624
1674.91993,0.01661
1672.85976,0.01715
1670.79959,0.01774
1668.73941,0.01842
1666.67924,0.01888
1664.61907,0.01905
1662.55890,0.01935
1660.49873,0.01996
1658.43855,0.02052
1656.37838,0.02071
1654.31821,0.02059
1652.25804,0.02064
1650.19787,0.02074
1648.13769,0.02070
1646.07752,0.02080
1644.01735,0.02101
1641.95718,0.02113
1639.89701,0.02111
1637.83683,0.02092
1635.77666,0.02084
1633.71649,0.02108
1631.65632,0.02132
1629.59614,0.02134
1627.53597,0.02109
1625.47580,0.02076
1623.41563,0.02062
1621.35546,0.02067
1619.29528,0.02062
1617.23511,0.02038
1615.17494,0.02021
1613.11477,0.02008
1611.05460,0.01984
1608.99442,0.01954
1606.93425,0.01936
1604.87408,0.01921
1602.81391,0.01884
1600.75373,0.01826
1598.69356,0.01766
1596.63339,0.01709
1594.57322,0.01653
1592.51305,0.01598
1590.45287,0.01543
1588.39270,0.01489
1586.33253,0.01439
1584.27236,0.01392
1582.21219,0.01342
1580.15201,0.01283
1578.09184,0.01221
1576.03167,0.01178
1573.97150,0.01150
1571.91133,0.01102
1569.85115,0.01045
1567.79098,0.01008
1565.73081,0.00981
1563.67064,0.00951
1561.61046,0.00900
1559.55029,0.00814
1557.49012,0.00766
1555.42995,0.00786
1553.36978,0.00803
1551.30960,0.00793
1549.24943,0.00774
1547.18926,0.00745
1545.12909,0.00678
1543.06892,0.00580
1541.00874,0.00519
1538.94857,0.00539
1536.88840,0.00561
1534.82823,0.00551
1532.76805,0.00538
1530.70788,0.00523
1528.64771,0.00483
1526.58754,0.00434
1524.52737,0.00404
1522.46719,0.00393
1520.40702,0.00393
1518.34685,0.00389
1516.28668,0.00386
1514.22651,0.00388
1512.16633,0.00369
1510.10616,0.00316
1508.04599,0.00261
1505.98582,0.00269
1503.92565,0.00315
1501.86547,0.00335
1499.80530,0.00331
1497.74513,0.00329
1495.68496,0.00338
1493.62478,0.00339
1491.56461,0.00313
1489.50444,0.00281
1487.44427,0.00289
1485.38410,0.00323
1483.32392,0.00349
1481.26375,0.00355
1479.20358,0.00346
1477.14341,0.00330
1475.08324,0.00322
1473.02306,0.00353
1470.96289,0.00426
1468.90272,0.00483
1466.84255,0.00504
1464.78238,0.00515
1462.72220,0.00523
1460.66203,0.00516
1458.60186,0.00501
1456.54169,0.00510
1454.48151,0.00537
1452.42134,0.00548
1450.36117,0.00541
1448.30100,0.00534
1446.24083,0.00542
1444.18065,0.00554
1442.12048,0.00554
1440.06031,0.00546
1438.00014,0.00546
1435.93997,0.00567
1433.87979,0.00594
1431.81962,0.00607
1429.75945,0.00608
1427.69928,0.00613
1425.63910,0.00622
1423.57893,0.00638
1421.51876,0.00665
1419.45859,0.00694
1417.39842,0.00720
1415.33824,0.00736
1413.27807,0.00739
1411.21790,0.00739
1409.15773,0.00741
1407.09756,0.00727
1405.03738,0.00703
1402.97721,0.00685
1400.91704,0.00667
1398.85687,0.00644
1396.79670,0.00620
1394.73652,0.00605
1392.67635,0.00600
1390.61618,0.00596
1388.55601,0.00592
1386.49583,0.00594
1384.43566,0.00600
1382.37549,0.00605
1380.31532,0.00603
1378.25515,0.00602
1376.19497,0.00605
1374.13480,0.00612
1372.07463,0.00619
1370.01446,0.00615
1367.95429,0.00598
1365.89411,0.00576
1363.83394,0.00552
1361.77377,0.00536
1359.71360,0.00526
1357.65343,0.00508
1355.59325,0.00483
1353.53308,0.00462
1351.47291,0.00440
1349.41274,0.00420
1347.35256,0.00415
1345.29239,0.00420
1343.23222,0.00420
1341.17205,0.00408
1339.11188,0.00399
1337.05170,0.00396
1334.99153,0.00387
1332.93136,0.00373
1330.87119,0.00370
1328.81102,0.00378
1326.75084,0.00382
1324.69067,0.00374
1322.63050,0.00362
1320.57033,0.00355
1318.51015,0.00356
1316.44998,0.00364
1314.38981,0.00370
1312.32964,0.00374
1310.26947,0.00377
1308.20929,0.00375
1306.14912,0.00376
1304.08895,0.00382
1302.02878,0.00389
1299.96861,0.00398
1297.90843,0.00403
1295.84826,0.00405
1293.78809,0.00416
1291.72792,0.00427
1289.66775,0.00437
1287.60757,0.00449
1285.54740,0.00450
1283.48723,0.00435
1281.42706,0.00427
1279.36688,0.00430
1277.30671,0.00436
1275.24654,0.00447
1273.18637,0.00456
1271.12620,0.00462
1269.06602,0.00472
1267.00585,0.00479
1264.94568,0.00481
1262.88551,0.00490
1260.82534,0.00507
1258.76516,0.00519
1256.70499,0.00511
1254.64482,0.00488
1252.58465,0.00476
1250.52447,0.00478
1248.46430,0.00478
1246.40413,0.00466
1244.34396,0.00447
1242.28379,0.00433
1240.22361,0.00422
1238.16344,0.00407
1236.10327,0.00390
1234.04310,0.00366
1231.98293,0.00332
1229.92275,0.00307
1227.86258,0.00297
1225.80241,0.00280
1223.74224,0.00245
1221.68207,0.00219
1219.62189,0.00213
1217.56172,0.00195
1215.50155,0.00155
1213.44138,0.00122
1211.38120,0.00102
1209.32103,0.00096
1207.26086,0.00104
1205.20069,0.00103
1203.14052,0.00098
1201.08034,0.00104
1199.02017,0.00108
1196.96000,0.00101
1194.89983,0.00092
1192.83966,0.00102
1190.77948,0.00152
1188.71931,0.00215
1186.65914,0.00268
1184.59897,0.00316
1182.53880,0.00367
1180.47862,0.00438
1178.41845,0.00532
1176.35828,0.00626
1174.29811,0.00712
1172.23793,0.00794
1170.17776,0.00884
1168.11759,0.00990
1166.05742,0.01097
1163.99725,0.01205
1161.93707,0.01306
1159.87690,0.01385
1157.81673,0.01463
1155.75656,0.01550
1153.69639,0.01630
1151.63621,0.01707
1149.57604,0.01804
1147.51587,0.01912
1145.45570,0.02007
1143.39552,0.02094
1141.33535,0.02186
1139.27518,0.02290
1137.21501,0.02410
1135.15484,0.02532
1133.09466,0.02650
1131.03449,0.02781
1128.97432,0.02922
1126.91415,0.03043
1124.85398,0.03153
1122.79380,0.03272
1120.73363,0.03398
1118.67346,0.03525
1116.61329,0.03644
1114.55312,0.03768
1112.49294,0.03913
1110.43277,0.04057
1108.37260,0.04197
1106.31243,0.04347
1104.25225,0.04492
1102.19208,0.04627
1100.13191,0.04761
1098.07174,0.04889
1096.01157,0.05005
1093.95139,0.05118
1091.89122,0.05248
1089.83105,0.05379
1087.77088,0.05492
1085.71071,0.05604
1083.65053,0.05713
1081.59036,0.05803
1079.53019,0.05883
1077.47002,0.05957
1075.40985,0.06027
1073.34967,0.06089
1071.28950,0.06120
1069.22933,0.06128
1067.16916,0.06148
1065.10898,0.06164
1063.04881,0.06159
1060.98864,0.06144
1058.92847,0.06096
1056.86830,0.06015
1054.80812,0.05947
1052.74795,0.05898
1050.68778,0.05854
1048.62761,0.05787
1046.56744,0.05674
1044.50726,0.05548
1042.44709,0.05433
1040.38692,0.05323
1038.32675,0.05201
1036.26657,0.05078
1034.20640,0.04974
1032.14623,0.04867
1030.08606,0.04738
1028.02589,0.04607
1025.96571,0.04488
1023.90554,0.04365
1021.84537,0.04232
1019.78520,0.04112
1017.72503,0.04011
1015.66485,0.03901
1013.60468,0.03779
1011.54451,0.03675
1009.48434,0.03603
1007.42417,0.03561
1005.36399,0.03540
1003.30382,0.03525
1001.24365,0.03505
999.18348,0.03514
997.12330,0.03583
995.06313,0.03687
993.00296,0.03782
990.94279,0.03844
988.88262,0.03893
986.82244,0.03934
984.76227,0.03940
982.70210,0.03922
980.64193,0.03894
978.58176,0.03842
976.52158,0.03747
974.46141,0.03612
972.40124,0.03457
970.34107,0.03299
968.28089,0.03142
966.22072,0.02994
964.16055,0.02848
962.10038,0.02690
960.04021,0.02542
957.98003,0.02430
955.91986,0.02341
953.85969,0.02233
951.79952,0.02109
949.73935,0.02012
947.67917,0.01957
945.61900,0.01919
943.55883,0.01881
941.49866,0.01843
939.43849,0.01806
937.37831,0.01787
935.31814,0.01782
933.25797,0.01766
931.19780,0.01742
929.13762,0.01704
927.07745,0.01655
925.01728,0.01617
922.95711,0.01602
920.89694,0.01578
918.83676,0.01518
916.77659,0.01446
914.71642,0.01393
912.65625,0.01346
910.59608,0.01294
908.53590,0.01251
906.47573,0.01219
904.41556,0.01209
902.35539,0.01222
900.29522,0.01237
898.23504,0.01248
896.17487,0.01253
894.11470,0.01242
892.05453,0.01243
889.99435,0.01277
887.93418,0.01323
885.87401,0.01362
883.81384,0.01396
881.75367,0.01430
879.69349,0.01494
877.63332,0.01585
875.57315,0.01651
873.51298,0.01661
871.45281,0.01627
869.39263,0.01608
867.33246,0.01652
865.27229,0.01728
863.21212,0.01765
861.15194,0.01731
859.09177,0.01679
857.03160,0.01649
854.97143,0.01630
852.91126,0.01610
850.85108,0.01561
848.79091,0.01488
846.73074,0.01451
844.67057,0.01471
842.61040,0.01485
840.55022,0.01432
838.49005,0.01340
836.42988,0.01262
834.36971,0.01211
832.30954,0.01156
830.24936,0.01102
828.18919,0.01067
826.12902,0.01023
824.06885,0.00960
822.00867,0.00897
819.94850,0.00864
817.88833,0.00855
815.82816,0.00836
813.76799,0.00822
811.70781,0.00813
809.64764,0.00788
807.58747,0.00758
805.52730,0.00736
803.46713,0.00711
801.40695,0.00698
799.34678,0.00683
797.28661,0.00648
795.22644,0.00620
793.16627,0.00616
791.10609,0.00620
789.04592,0.00612
786.98575,0.00611
784.92558,0.00632
782.86540,0.00639
780.80523,0.00598
778.74506,0.00564
776.68489,0.00556
774.62472,0.00549
772.56454,0.00563
770.50437,0.00602
768.44420,0.00603
766.38403,0.00532
764.32386,0.00474
762.26368,0.00470
760.20351,0.00492
758.14334,0.00523
756.08317,0.00507
754.02299,0.00430
751.96282,0.00370
749.90265,0.00381
747.84248,0.00413
745.78231,0.00377
743.72213,0.00302
741.66196,0.00294
739.60179,0.00359
737.54162,0.00401
735.48145,0.00404
733.42127,0.00426
731.36110,0.00473
729.30093,0.00513
727.24076,0.00510
725.18059,0.00449
723.12041,0.00420
721.06024,0.00437
719.00007,0.00496
716.93990,0.00532
714.87972,0.00540
712.81955,0.00546
710.75938,0.00550
708.69921,0.00540
706.63904,0.00519
704.57886,0.00502
702.51869,0.00482
700.45852,0.00441
698.39835,0.00369
696.33818,0.00314
694.27800,0.00346
692.21783,0.00423
690.15766,0.00452
688.09749,0.00452
686.03731,0.00490
683.97714,0.00523
681.91697,0.00496
679.85680,0.00480
677.79663,0.00536
675.73645,0.00566
673.67628,0.00542
671.61611,0.00522
669.55594,0.00253
667.49577,0.00000
665.43559,0.00324
663.37542,0.00456
661.31525,0.00581
659.25508,0.00655
657.19491,0.00560
655.13473,0.00420
653.07456,0.00354
651.01439,0.00349
648.95422,0.00367
646.89404,0.00364
644.83387,0.00286
642.77370,0.00218
640.71353,0.00267
638.65336,0.00327
636.59318,0.00242
634.53301,0.00118
632.47284,0.00106
630.41267,0.00188
628.35250,0.00311
626.29232,0.00434
624.23215,0.00492
622.17198,0.00420
620.11181,0.00300
618.05164,0.00376
615.99146,0.00609
613.93129,0.00667
611.87112,0.00471
609.81095,0.00231
607.75077,0.00164
605.69060,0.00237
603.63043,0.00241
601.57026,0.00146
599.51009,0.00000
