3996.73391,0.00076
3994.67373,0.00068
3992.61356,0.00059
3990.55339,0.00051
3988.49322,0.00049
3986.43305,0.00053
3984.37287,0.00070
3982.31270,0.00105
3980.25253,0.00142
3978.19236,0.00163
3976.13219,0.00158
3974.07201,0.00136
3972.01184,0.00105
3969.95167,0.00084
3967.89150,0.00085
3965.83133,0.00080
3963.77115,0.00044
3961.71098,0.00002
3959.65081,0.00000
3957.59064,0.00036
3955.53046,0.00063
3953.47029,0.00070
3951.41012,0.00080
3949.34995,0.00087
3947.28978,0.00085
3945.22960,0.00073
3943.16943,0.00053
3941.10926,0.00044
3939.04909,0.00051
3936.98892,0.00069
3934.92874,0.00095
3932.86857,0.00097
3930.80840,0.00060
3928.74823,0.00030
3926.68805,0.00036
3924.62788,0.00055
3922.56771,0.00050
3920.50754,0.00017
3918.44737,0.00004
3916.38719,0.00043
3914.32702,0.00092
3912.26685,0.00108
3910.20668,0.00095
3908.14651,0.00072
3906.08633,0.00050
3904.02616,0.00037
3901.96599,0.00050
3899.90582,0.00100
3897.84565,0.00141
3895.78547,0.00148
3893.72530,0.00133
3891.66513,0.00103
3889.60496,0.00069
3887.54478,0.00044
3885.48461,0.00021
3883.42444,0.00003
3881.36427,0.00010
3879.30410,0.00047
3877.24392,0.00075
3875.18375,0.00056
3873.12358,0.00018
3871.06341,0.00038
3869.00324,0.00099
3866.94306,0.00115
3864.88289,0.00104
3862.82272,0.00095
3860.76255,0.00072
3858.70237,0.00050
3856.64220,0.00033
3854.58203,0.00018
3852.52186,0.00033
3850.46169,0.00071
3848.40151,0.00085
3846.34134,0.00074
3844.28117,0.00075
3842.22100,0.00094
3840.16083,0.00106
3838.10065,0.00095
3836.04048,0.00075
3833.98031,0.00077
3831.92014,0.00089
3829.85997,0.00075
3827.79979,0.00056
3825.73962,0.00079
3823.67945,0.00119
3821.61928,0.00127
3819.55910,0.00106
3817.49893,0.00093
3815.43876,0.00106
3813.37859,0.00123
3811.31842,0.00119
3809.25824,0.00103
3807.19807,0.00098
3805.13790,0.00109
3803.07773,0.00108
3801.01756,0.00092
3798.95738,0.00093
3796.89721,0.00121
3794.83704,0.00160
3792.77687,0.00185
3790.71670,0.00176
3788.65652,0.00140
3786.59635,0.00110
3784.53618,0.00101
3782.47601,0.00096
3780.41583,0.00089
3778.35566,0.00089
3776.29549,0.00089
3774.23532,0.00089
3772.17515,0.00098
3770.11497,0.00100
3768.05480,0.00088
3765.99463,0.00080
3763.93446,0.00068
3761.87429,0.00039
3759.81411,0.00021
3757.75394,0.00048
3755.69377,0.00094
3753.63360,0.00098
3751.57342,0.00073
3749.51325,0.00062
3747.45308,0.00070
3745.39291,0.00104
3743.33274,0.00133
3741.27256,0.00110
3739.21239,0.00093
3737.15222,0.00123
3735.09205,0.00147
3733.03188,0.00139
3730.97170,0.00129
3728.91153,0.00122
3726.85136,0.00101
3724.79119,0.00089
3722.73102,0.00118
3720.67084,0.00144
3718.61067,0.00125
3716.55050,0.00105
3714.49033,0.00119
3712.43015,0.00140
3710.36998,0.00144
3708.30981,0.00144
3706.24964,0.00130
3704.18947,0.00111
3702.12929,0.00119
3700.06912,0.00146
3698.00895,0.00148
3695.94878,0.00138
3693.88861,0.00159
3691.82843,0.00200
3689.76826,0.00208
3687.70809,0.00161
3685.64792,0.00121
3683.58775,0.00121
3681.52757,0.00153
3679.46740,0.00185
3677.40723,0.00205
3675.34706,0.00229
3673.28688,0.00264
3671.22671,0.00304
3669.16654,0.00343
3667.10637,0.00352
3665.04620,0.00329
3662.98602,0.00306
3660.92585,0.00320
3658.86568,0.00380
3656.80551,0.00471
3654.74534,0.00550
3652.68516,0.00576
3650.62499,0.00576
3648.56482,0.00590
3646.50465,0.00600
3644.44447,0.00611
3642.38430,0.00644
3640.32413,0.00699
3638.26396,0.00764
3636.20379,0.00831
3634.14361,0.00889
3632.08344,0.00936
3630.02327,0.00981
3627.96310,0.01027
3625.90293,0.01063
3623.84275,0.01097
3621.78258,0.01145
3619.72241,0.01220
3617.66224,0.01318
3615.60207,0.01409
3613.54189,0.01477
3611.48172,0.01521
3609.42155,0.01545
3607.36138,0.01570
3605.30120,0.01614
3603.24103,0.01670
3601.18086,0.01723
3599.12069,0.01771
3597.06052,0.01831
3595.00034,0.01904
3592.94017,0.01958
3590.88000,0.01978
3588.81983,0.02008
3586.75966,0.02088
3584.69948,0.02191
3582.63931,0.02260
3580.57914,0.02282
3578.51897,0.02293
3576.45879,0.02343
3574.39862,0.02438
3572.33845,0.02523
3570.27828,0.02586
3568.21811,0.02668
3566.15793,0.02751
3564.09776,0.02782
3562.03759,0.02773
3559.97742,0.02778
3557.91725,0.02832
3555.85707,0.02924
3553.79690,0.03014
3551.73673,0.03074
3549.67656,0.03119
3547.61639,0.03178
3545.55621,0.03254
3543.49604,0.03324
3541.43587,0.03371
3539.37570,0.03420
3537.31552,0.03471
3535.25535,0.03508
3533.19518,0.03560
3531.13501,0.03644
3529.07484,0.03722
3527.01466,0.03757
3524.95449,0.03784
3522.89432,0.03855
3520.83415,0.03938
3518.77398,0.03980
3516.71380,0.03997
3514.65363,0.04031
3512.59346,0.04087
3510.53329,0.04146
3508.47312,0.04202
3506.41294,0.04252
3504.35277,0.04297
3502.29260,0.04353
3500.23243,0.04408
3498.17225,0.04442
3496.11208,0.04479
3494.05191,0.04530
3491.99174,0.04583
3489.93157,0.04647
3487.87139,0.04726
3485.81122,0.04781
3483.75105,0.04783
3481.69088,0.04772
3479.63071,0.04801
3477.57053,0.04874
3475.51036,0.04964
3473.45019,0.05050
3471.39002,0.05108
3469.32984,0.05136
3467.26967,0.05156
3465.20950,0.05192
3463.14933,0.05239
3461.08916,0.05272
3459.02898,0.05295
3456.96881,0.05321
3454.90864,0.05352
3452.84847,0.05391
3450.78830,0.05444
3448.72812,0.05509
3446.66795,0.05552
3444.60778,0.05564
3442.54761,0.05575
3440.48744,0.05599
3438.42726,0.05660
3436.36709,0.05740
3434.30692,0.05787
3432.24675,0.05801
3430.18657,0.05807
3428.12640,0.05816
3426.06623,0.05837
3424.00606,0.05879
3421.94589,0.05942
3419.88571,0.05983
3417.82554,0.05992
3415.76537,0.06015
3413.70520,0.06062
3411.64503,0.06099
3409.58485,0.06105
3407.52468,0.06089
3405.46451,0.06087
3403.40434,0.06128
3401.34416,0.06180
3399.28399,0.06207
3397.22382,0.06239
3395.16365,0.06276
3393.10348,0.06302
3391.04330,0.06318
3388.98313,0.06340
3386.92296,0.06375
3384.86279,0.06408
3382.80262,0.06434
3380.74244,0.06448
3378.68227,0.06453
3376.62210,0.06465
3374.56193,0.06495
3372.50176,0.06526
3370.44158,0.06534
3368.38141,0.06526
3366.32124,0.06530
3364.26107,0.06544
3362.20089,0.06549
3360.14072,0.06547
3358.08055,0.06556
3356.02038,0.06584
3353.96021,0.06621
3351.90003,0.06639
3349.83986,0.06645
3347.77969,0.06668
3345.71952,0.06697
3343.65935,0.06712
3341.59917,0.06723
3339.53900,0.06726
3337.47883,0.06717
3335.41866,0.06706
3333.35849,0.06702
3331.29831,0.06721
3329.23814,0.06752
3327.17797,0.06763
3325.11780,0.06745
3323.05762,0.06738
3320.99745,0.06771
3318.93728,0.06791
3316.87711,0.06778
3314.81694,0.06772
3312.75676,0.06788
3310.69659,0.06805
3308.63642,0.06804
3306.57625,0.06809
3304.51608,0.06833
3302.45590,0.06860
3300.39573,0.06893
3298.33556,0.06907
3296.27539,0.06883
3294.21521,0.06866
3292.15504,0.06874
3290.09487,0.06874
3288.03470,0.06852
3285.97453,0.06832
3283.91435,0.06817
3281.85418,0.06809
3279.79401,0.06832
3277.73384,0.06883
3275.67367,0.06938
3273.61349,0.06973
3271.55332,0.06961
3269.49315,0.06933
3267.43298,0.06925
3265.37281,0.06911
3263.31263,0.06874
3261.25246,0.06847
3259.19229,0.06870
3257.13212,0.06906
3255.07194,0.06906
3253.01177,0.06908
3250.95160,0.06940
3248.89143,0.06956
3246.83126,0.06934
3244.77108,0.06904
3242.71091,0.06887
3240.65074,0.06887
3238.59057,0.06901
3236.53040,0.06915
3234.47022,0.06912
3232.41005,0.06908
3230.34988,0.06914
3228.28971,0.06894
3226.22954,0.06854
3224.16936,0.06835
3222.10919,0.06840
3220.04902,0.06858
3217.98885,0.06867
3215.92867,0.06861
3213.86850,0.06867
3211.80833,0.06886
3209.74816,0.06883
3207.68799,0.06843
3205.62781,0.06794
3203.56764,0.06782
3201.50747,0.06793
3199.44730,0.06777
3197.38713,0.06742
3195.32695,0.06705
3193.26678,0.06660
3191.20661,0.06632
3189.14644,0.06637
3187.08626,0.06640
3185.02609,0.06618
3182.96592,0.06597
3180.90575,0.06600
3178.84558,0.06608
3176.78540,0.06603
3174.72523,0.06581
3172.66506,0.06560
3170.60489,0.06554
3168.54472,0.06538
3166.48454,0.06505
3164.42437,0.06474
3162.36420,0.06446
3160.30403,0.06411
3158.24386,0.06396
3156.18368,0.06412
3154.12351,0.06418
3152.06334,0.06380
3150.00317,0.06324
3147.94299,0.06297
3145.88282,0.06286
3143.82265,0.06263
3141.76248,0.06253
3139.70231,0.06266
3137.64213,0.06252
3135.58196,0.06210
3133.52179,0.06172
3131.46162,0.06133
3129.40145,0.06093
3127.34127,0.06066
3125.28110,0.06048
3123.22093,0.06034
3121.16076,0.06014
3119.10058,0.05983
3117.04041,0.05943
3114.98024,0.05906
3112.92007,0.05887
3110.85990,0.05870
3108.79972,0.05839
3106.73955,0.05801
3104.67938,0.05776
3102.61921,0.05779
3100.55904,0.05792
3098.49886,0.05772
3096.43869,0.05722
3094.37852,0.05671
3092.31835,0.05613
3090.25818,0.05571
3088.19800,0.05577
3086.13783,0.05583
3084.07766,0.05563
3082.01749,0.05537
3079.95731,0.05503
3077.89714,0.05475
3075.83697,0.05449
3073.77680,0.05400
3071.71663,0.05344
3069.65645,0.05304
3067.59628,0.05274
3065.53611,0.05256
3063.47594,0.05255
3061.41577,0.05263
3059.35559,0.05243
3057.29542,0.05189
3055.23525,0.05138
3053.17508,0.05111
3051.11491,0.05096
3049.05473,0.05079
3046.99456,0.05052
3044.93439,0.05011
3042.87422,0.04960
3040.81404,0.04916
3038.75387,0.04886
3036.69370,0.04863
3034.63353,0.04841
3032.57336,0.04815
3030.51318,0.04780
3028.45301,0.04742
3026.39284,0.04713
3024.33267,0.04698
3022.27250,0.04687
3020.21232,0.04658
3018.15215,0.04613
3016.09198,0.04578
3014.03181,0.04539
3011.97163,0.04486
3009.91146,0.04452
3007.85129,0.04454
3005.79112,0.04461
3003.73095,0.04438
3001.67077,0.04402
2999.61060,0.04381
2997.55043,0.04356
2995.49026,0.04307
2993.43009,0.04260
2991.36991,0.04234
2989.30974,0.04226
2987.24957,0.04209
2985.18940,0.04171
2983.12923,0.04134
2981.06905,0.04125
2979.00888,0.04135
2976.94871,0.04142
2974.88854,0.04134
2972.82836,0.04120
2970.76819,0.04127
2968.70802,0.04122
2966.64785,0.04085
2964.58768,0.04057
2962.52750,0.04053
2960.46733,0.04060
2958.40716,0.04076
2956.34699,0.04078
2954.28682,0.04058
2952.22664,0.04041
2950.16647,0.04031
2948.10630,0.04020
2946.04613,0.04021
2943.98596,0.04042
2941.92578,0.04055
2939.86561,0.04043
2937.80544,0.04023
2935.74527,0.04010
2933.68509,0.04007
2931.62492,0.04000
2929.56475,0.03983
2927.50458,0.03962
2925.44441,0.03948
2923.38423,0.03929
2921.32406,0.03890
2919.26389,0.03860
2917.20372,0.03864
2915.14355,0.03862
2913.08337,0.03829
2911.02320,0.03795
2908.96303,0.03773
2906.90286,0.03739
2904.84268,0.03697
2902.78251,0.03689
2900.72234,0.03712
2898.66217,0.03728
2896.60200,0.03716
2894.54182,0.03691
2892.48165,0.03686
2890.42148,0.03704
2888.36131,0.03710
2886.30114,0.03692
2884.24096,0.03673
2882.18079,0.03653
2880.12062,0.03623
2878.06045,0.03593
2876.00028,0.03582
2873.94010,0.03579
2871.87993,0.03558
2869.81976,0.03542
2867.75959,0.03536
2865.69941,0.03503
2863.63924,0.03458
2861.57907,0.03427
2859.51890,0.03406
2857.45873,0.03393
2855.39855,0.03378
2853.33838,0.03362
2851.27821,0.03349
2849.21804,0.03343
2847.15787,0.03339
2845.09769,0.03318
2843.03752,0.03282
2840.97735,0.03265
2838.91718,0.03270
2836.85700,0.03264
2834.79683,0.03240
2832.73666,0.03215
2830.67649,0.03186
2828.61632,0.03153
2826.55614,0.03123
2824.49597,0.03099
2822.43580,0.03083
2820.37563,0.03067
2818.31546,0.03052
2816.25528,0.03038
2814.19511,0.03021
2812.13494,0.03013
2810.07477,0.03014
2808.01460,0.03011
2805.95442,0.02995
2803.89425,0.02978
2801.83408,0.02965
2799.77391,0.02941
2797.71373,0.02913
2795.65356,0.02904
2793.59339,0.02912
2791.53322,0.02914
2789.47305,0.02890
2787.41287,0.02852
2785.35270,0.02835
2783.29253,0.02837
2781.23236,0.02834
2779.17219,0.02815
2777.11201,0.02796
2775.05184,0.02789
2772.99167,0.02780
2770.93150,0.02761
2768.87133,0.02725
2766.81115,0.02680
2764.75098,0.02662
2762.69081,0.02671
2760.63064,0.02683
2758.57046,0.02685
2756.51029,0.02671
2754.45012,0.02644
2752.38995,0.02624
2750.32978,0.02629
2748.26960,0.02643
2746.20943,0.02637
2744.14926,0.02611
2742.08909,0.02585
2740.02892,0.02567
2737.96874,0.02548
2735.90857,0.02522
2733.84840,0.02503
2731.78823,0.02503
2729.72805,0.02498
2727.66788,0.02485
2725.60771,0.02484
2723.54754,0.02485
2721.48737,0.02463
2719.42719,0.02417
2717.36702,0.02381
2715.30685,0.02362
2713.24668,0.02353
2711.18651,0.02357
2709.12633,0.02353
2707.06616,0.02325
2705.00599,0.02300
2702.94582,0.02292
2700.88565,0.02286
2698.82547,0.02282
2696.76530,0.02265
2694.70513,0.02230
2692.64496,0.02199
2690.58478,0.02184
2688.52461,0.02185
2686.46444,0.02192
2684.40427,0.02185
2682.34410,0.02165
2680.28392,0.02143
2678.22375,0.02113
2676.16358,0.02093
2674.10341,0.02093
2672.04324,0.02080
2669.98306,0.02059
2667.92289,0.02052
2665.86272,0.02041
2663.80255,0.02014
2661.74238,0.01979
2659.68220,0.01945
2657.62203,0.01926
2655.56186,0.01926
2653.50169,0.01925
2651.44151,0.01909
2649.38134,0.01885
2647.32117,0.01860
2645.26100,0.01841
2643.20083,0.01835
2641.14065,0.01840
2639.08048,0.01835
2637.02031,0.01809
2634.96014,0.01779
2632.89997,0.01755
2630.83979,0.01740
2628.77962,0.01735
2626.71945,0.01734
2624.65928,0.01727
2622.59910,0.01696
2620.53893,0.01644
2618.47876,0.01608
2616.41859,0.01611
2614.35842,0.01623
2612.29824,0.01606
2610.23807,0.01572
2608.17790,0.01541
2606.11773,0.01529
2604.05756,0.01549
2601.99738,0.01555
2599.93721,0.01527
2597.87704,0.01503
2595.81687,0.01489
2593.75670,0.01479
2591.69652,0.01491
2589.63635,0.01500
2587.57618,0.01473
2585.51601,0.01458
2583.45583,0.01471
2581.39566,0.01458
2579.33549,0.01422
2577.27532,0.01422
2575.21515,0.01435
2573.15497,0.01417
2571.09480,0.01398
2569.03463,0.01398
2566.97446,0.01401
2564.91429,0.01420
2562.85411,0.01436
2560.79394,0.01419
2558.73377,0.01396
2556.67360,0.01422
2554.61342,0.01475
2552.55325,0.01479
2550.49308,0.01447
2548.43291,0.01432
2546.37274,0.01412
2544.31256,0.01371
2542.25239,0.01355
2540.19222,0.01370
2538.13205,0.01383
2536.07188,0.01386
2534.01170,0.01387
2531.95153,0.01396
2529.89136,0.01417
2527.83119,0.01442
2525.77102,0.01454
2523.71084,0.01462
2521.65067,0.01470
2519.59050,0.01455
2517.53033,0.01432
2515.47015,0.01429
2513.40998,0.01442
2511.34981,0.01456
2509.28964,0.01471
2507.22947,0.01493
2505.16929,0.01513
2503.10912,0.01508
2501.04895,0.01492
2498.98878,0.01504
2496.92861,0.01515
2494.86843,0.01486
2492.80826,0.01440
2490.74809,0.01425
2488.68792,0.01451
2486.62775,0.01492
2484.56757,0.01522
2482.50740,0.01512
2480.44723,0.01466
2478.38706,0.01444
2476.32688,0.01463
2474.26671,0.01485
2472.20654,0.01499
2470.14637,0.01518
2468.08620,0.01552
2466.02602,0.01591
2463.96585,0.01614
2461.90568,0.01606
2459.84551,0.01584
2457.78534,0.01597
2455.72516,0.01623
2453.66499,0.01620
2451.60482,0.01624
2449.54465,0.01633
2447.48447,0.01594
2445.42430,0.01542
2443.36413,0.01537
2441.30396,0.01565
2439.24379,0.01589
2437.18361,0.01594
2435.12344,0.01599
2433.06327,0.01597
2431.00310,0.01592
2428.94293,0.01594
2426.88275,0.01590
2424.82258,0.01599
2422.76241,0.01628
2420.70224,0.01642
2418.64207,0.01623
2416.58189,0.01582
2414.52172,0.01563
2412.46155,0.01588
2410.40138,0.01605
2408.34120,0.01587
2406.28103,0.01562
2404.22086,0.01552
2402.16069,0.01549
2400.10052,0.01538
2398.04034,0.01533
2395.98017,0.01563
2393.92000,0.01591
2391.85983,0.01577
2389.79966,0.01544
2387.73948,0.01536
2385.67931,0.01545
2383.61914,0.01536
2381.55897,0.01512
2379.49880,0.01503
2377.43862,0.01524
2375.37845,0.01565
2373.31828,0.01584
2371.25811,0.01583
2369.19793,0.01588
2367.13776,0.01550
2365.07759,0.01447
2363.01742,0.01410
2360.95725,0.01466
2358.89707,0.01601
2356.83690,0.01648
2354.77673,0.01616
2352.71656,0.01612
2350.65639,0.01578
2348.59621,0.01567
2346.53604,0.01676
2344.47587,0.01618
2342.41570,0.01478
2340.35552,0.01385
2338.29535,0.01384
2336.23518,0.01448
2334.17501,0.01447
2332.11484,0.01385
2330.05466,0.01385
2327.99449,0.01505
2325.93432,0.01615
2323.87415,0.01665
2321.81398,0.01626
2319.75380,0.01559
2317.69363,0.01485
2315.63346,0.01464
2313.57329,0.01480
2311.51312,0.01495
2309.45294,0.01481
2307.39277,0.01449
2305.33260,0.01442
2303.27243,0.01451
2301.21225,0.01446
2299.15208,0.01423
2297.09191,0.01409
2295.03174,0.01413
2292.97157,0.01409
2290.91139,0.01399
2288.85122,0.01396
2286.79105,0.01398
2284.73088,0.01383
2282.67071,0.01351
2280.61053,0.01343
2278.55036,0.01364
2276.49019,0.01349
2274.43002,0.01279
2272.36984,0.01221
2270.30967,0.01231
2268.24950,0.01298
2266.18933,0.01354
2264.12916,0.01332
2262.06898,0.01265
2260.00881,0.01242
2257.94864,0.01250
2255.88847,0.01238
2253.82830,0.01192
2251.76812,0.01131
2249.70795,0.01097
2247.64778,0.01111
2245.58761,0.01126
2243.52744,0.01096
2241.46726,0.01035
2239.40709,0.01006
2237.34692,0.01007
2235.28675,0.00994
2233.22657,0.00990
2231.16640,0.01036
2229.10623,0.01071
2227.04606,0.01036
2224.98589,0.00995
2222.92571,0.00966
2220.86554,0.00908
2218.80537,0.00908
2216.74520,0.00988
2214.68503,0.00985
2212.62485,0.00893
2210.56468,0.00864
2208.50451,0.00927
2206.44434,0.00982
2204.38417,0.00972
2202.32399,0.00950
2200.26382,0.00971
2198.20365,0.00956
2196.14348,0.00857
2194.08330,0.00755
2192.02313,0.00733
2189.96296,0.00822
2187.90279,0.00956
2185.84262,0.00981
2183.78244,0.00887
2181.72227,0.00837
2179.66210,0.00896
2177.60193,0.01011
2175.54176,0.01065
2173.48158,0.00960
2171.42141,0.00789
2169.36124,0.00741
2167.30107,0.00768
2165.24089,0.00721
2163.18072,0.00616
2161.12055,0.00444
2159.06038,0.00351
2157.00021,0.00436
2154.94003,0.00510
2152.87986,0.00547
2150.81969,0.00616
2148.75952,0.00700
2146.69935,0.00735
2144.63917,0.00683
2142.57900,0.00640
2140.51883,0.00668
2138.45866,0.00662
2136.39849,0.00613
2134.33831,0.00624
2132.27814,0.00684
2130.21797,0.00709
2128.15780,0.00703
2126.09762,0.00695
2124.03745,0.00679
2121.97728,0.00694
2119.91711,0.00754
2117.85694,0.00802
2115.79676,0.00801
2113.73659,0.00774
2111.67642,0.00747
2109.61625,0.00675
2107.55608,0.00592
2105.49590,0.00588
2103.43573,0.00628
2101.37556,0.00650
2099.31539,0.00665
2097.25521,0.00645
2095.19504,0.00589
2093.13487,0.00570
2091.07470,0.00610
2089.01453,0.00667
2086.95435,0.00697
2084.89418,0.00719
2082.83401,0.00733
2080.77384,0.00693
2078.71367,0.00637
2076.65349,0.00632
2074.59332,0.00662
2072.53315,0.00667
2070.47298,0.00609
2068.41281,0.00538
2066.35263,0.00545
2064.29246,0.00618
2062.23229,0.00632
2060.17212,0.00588
2058.11194,0.00603
2056.05177,0.00653
2053.99160,0.00647
2051.93143,0.00559
2049.87126,0.00429
2047.81108,0.00365
2045.75091,0.00334
2043.69074,0.00276
2041.63057,0.00315
2039.57040,0.00415
2037.51022,0.00391
2035.45005,0.00296
2033.38988,0.00277
2031.32971,0.00290
2029.26954,0.00250
2027.20936,0.00198
2025.14919,0.00137
2023.08902,0.00106
2021.02885,0.00204
2018.96867,0.00331
2016.90850,0.00366
2014.84833,0.00336
2012.78816,0.00275
2010.72799,0.00173
2008.66781,0.00074
2006.60764,0.00088
2004.54747,0.00182
2002.48730,0.00264
2000.42713,0.00334
1998.36695,0.00354
1996.30678,0.00284
1994.24661,0.00151
1992.18644,0.00066
1990.12626,0.00137
1988.06609,0.00316
1986.00592,0.00445
1983.94575,0.00451
1981.88558,0.00442
1979.82540,0.00481
1977.76523,0.00470
1975.70506,0.00403
1973.64489,0.00369
1971.58472,0.00345
1969.52454,0.00250
1967.46437,0.00186
1965.40420,0.00294
1963.34403,0.00445
1961.28386,0.00450
1959.22368,0.00363
1957.16351,0.00324
1955.10334,0.00323
1953.04317,0.00339
1950.98299,0.00381
1948.92282,0.00431
1946.86265,0.00492
1944.80248,0.00533
1942.74231,0.00510
1940.68213,0.00435
1938.62196,0.00338
1936.56179,0.00266
1934.50162,0.00264
1932.44145,0.00304
1930.38127,0.00316
1928.32110,0.00279
1926.26093,0.00240
1924.20076,0.00262
1922.14059,0.00317
1920.08041,0.00341
1918.02024,0.00354
1915.96007,0.00398
1913.89990,0.00435
1911.83972,0.00408
1909.77955,0.00369
1907.71938,0.00396
1905.65921,0.00445
1903.59904,0.00458
1901.53886,0.00451
1899.47869,0.00433
1897.41852,0.00418
1895.35835,0.00426
1893.29818,0.00422
1891.23800,0.00388
1889.17783,0.00367
1887.11766,0.00391
1885.05749,0.00436
1882.99731,0.00457
1880.93714,0.00435
1878.87697,0.00396
1876.81680,0.00398
1874.75663,0.00439
1872.69645,0.00468
1870.63628,0.00465
1868.57611,0.00447
1866.51594,0.00432
1864.45577,0.00444
1862.39559,0.00473
1860.33542,0.00487
1858.27525,0.00457
1856.21508,0.00408
1854.15491,0.00391
1852.09473,0.00408
1850.03456,0.00432
1847.97439,0.00458
1845.91422,0.00478
1843.85404,0.00474
1841.79387,0.00465
1839.73370,0.00465
1837.67353,0.00463
1835.61336,0.00457
1833.55318,0.00457
1831.49301,0.00464
1829.43284,0.00474
1827.37267,0.00482
1825.31250,0.00486
1823.25232,0.00480
1821.19215,0.00462
1819.13198,0.00447
1817.07181,0.00441
1815.01163,0.00450
1812.95146,0.00483
1810.89129,0.00527
1808.83112,0.00544
1806.77095,0.00526
1804.71077,0.00507
1802.65060,0.00505
1800.59043,0.00512
1798.53026,0.00515
1796.47009,0.00507
1794.40991,0.00496
1792.34974,0.00496
1790.28957,0.00506
1788.22940,0.00514
1786.16923,0.00512
1784.10905,0.00501
1782.04888,0.00503
1779.98871,0.00519
1777.92854,0.00536
1775.86836,0.00564
1773.80819,0.00597
1771.74802,0.00616
1769.68785,0.00627
1767.62768,0.00643
1765.56750,0.00658
1763.50733,0.00668
1761.44716,0.00686
1759.38699,0.00704
1757.32682,0.00706
1755.26664,0.00701
1753.20647,0.00708
1751.14630,0.00729
1749.08613,0.00758
1747.02596,0.00791
1744.96578,0.00824
1742.90561,0.00859
1740.84544,0.00898
1738.78527,0.00926
1736.72509,0.00938
1734.66492,0.00965
1732.60475,0.01012
1730.54458,0.01030
1728.48441,0.01017
1726.42423,0.01012
1724.36406,0.01039
1722.30389,0.01074
1720.24372,0.01088
1718.18355,0.01095
1716.12337,0.01128
1714.06320,0.01172
1712.00303,0.01199
1709.94286,0.01221
1707.88268,0.01261
1705.82251,0.01315
1703.76234,0.01370
1701.70217,0.01422
1699.64200,0.01476
1697.58182,0.01505
1695.52165,0.01512
1693.46148,0.01531
1691.40131,0.01580
1689.34114,0.01653
1687.28096,0.01727
1685.22079,0.01790
1683.16062,0.01848
1681.10045,0.01894
1679.04028,0.01927
1676.98010,0.01966
1674.91993,0.02041
1672.85976,0.02129
1670.79959,0.02215
1668.73941,0.02298
1666.67924,0.02343
1664.61907,0.02354
1662.55890,0.02369
1660.49873,0.02393
1658.43855,0.02409
1656.37838,0.02421
1654.31821,0.02453
1652.25804,0.02505
1650.19787,0.02529
1648.13769,0.02522
1646.07752,0.02504
1644.01735,0.02490
1641.95718,0.02480
1639.89701,0.02476
1637.83683,0.02485
1635.77666,0.02494
1633.71649,0.02479
1631.65632,0.02443
1629.59614,0.02402
1627.53597,0.02376
1625.47580,0.02369
1623.41563,0.02367
1621.35546,0.02364
1619.29528,0.02359
1617.23511,0.02339
1615.17494,0.02293
1613.11477,0.02241
1611.05460,0.02206
1608.99442,0.02185
1606.93425,0.02169
1604.87408,0.02140
1602.81391,0.02093
1600.75373,0.02039
1598.69356,0.01989
1596.63339,0.01944
1594.57322,0.01893
1592.51305,0.01822
1590.45287,0.01739
1588.39270,0.01662
1586.33253,0.01598
1584.27236,0.01545
1582.21219,0.01497
1580.15201,0.01451
1578.09184,0.01411
1576.03167,0.01370
1573.97150,0.01325
1571.91133,0.01286
1569.85115,0.01245
1567.79098,0.01189
1565.73081,0.01127
1563.67064,0.01068
1561.61046,0.01007
1559.55029,0.00946
1557.49012,0.00908
1555.42995,0.00891
1553.36978,0.00860
1551.30960,0.00819
1549.24943,0.00782
1547.18926,0.00748
1545.12909,0.00720
1543.06892,0.00710
1541.00874,0.00717
1538.94857,0.00710
1536.88840,0.00683
1534.82823,0.00661
1532.76805,0.00641
1530.70788,0.00616
1528.64771,0.00587
1526.58754,0.00557
1524.52737,0.00534
1522.46719,0.00519
1520.40702,0.00497
1518.34685,0.00475
1516.28668,0.00463
1514.22651,0.00451
1512.16633,0.00436
1510.10616,0.00437
1508.04599,0.00470
1505.98582,0.00484
1503.92565,0.00435
1501.86547,0.00384
1499.80530,0.00370
1497.74513,0.00381
1495.68496,0.00382
1493.62478,0.00357
1491.56461,0.00328
1489.50444,0.00323
1487.44427,0.00344
1485.38410,0.00371
1483.32392,0.00388
1481.26375,0.00396
1479.20358,0.00406
1477.14341,0.00422
1475.08324,0.00443
1473.02306,0.00466
1470.96289,0.00489
1468.90272,0.00503
1466.84255,0.00516
1464.78238,0.00531
1462.72220,0.00534
1460.66203,0.00520
1458.60186,0.00508
1456.54169,0.00519
1454.48151,0.00543
1452.42134,0.00561
1450.36117,0.00566
1448.30100,0.00561
1446.24083,0.00554
1444.18065,0.00552
1442.12048,0.00550
1440.06031,0.00540
1438.00014,0.00534
1435.93997,0.00549
1433.87979,0.00575
1431.81962,0.00600
1429.75945,0.00630
1427.69928,0.00652
1425.63910,0.00662
1423.57893,0.00673
1421.51876,0.00684
1419.45859,0.00691
1417.39842,0.00704
1415.33824,0.00721
1413.27807,0.00728
1411.21790,0.00725
1409.15773,0.00714
1407.09756,0.00704
1405.03738,0.00697
1402.97721,0.00686
1400.91704,0.00662
1398.85687,0.00628
1396.79670,0.00602
1394.73652,0.00592
1392.67635,0.00587
1390.61618,0.00574
1388.55601,0.00551
1386.49583,0.00539
1384.43566,0.00549
1382.37549,0.00563
1380.31532,0.00571
1378.25515,0.00589
1376.19497,0.00621
1374.13480,0.00647
1372.07463,0.00645
1370.01446,0.00621
1367.95429,0.00591
1365.89411,0.00567
1363.83394,0.00551
1361.77377,0.00536
1359.71360,0.00524
1357.65343,0.00513
1355.59325,0.00496
1353.53308,0.00472
1351.47291,0.00453
1349.41274,0.00441
1347.35256,0.00433
1345.29239,0.00430
1343.23222,0.00428
1341.17205,0.00426
1339.11188,0.00428
1337.05170,0.00427
1334.99153,0.00423
1332.93136,0.00421
1330.87119,0.00413
1328.81102,0.00400
1326.75084,0.00396
1324.69067,0.00404
1322.63050,0.00411
1320.57033,0.00414
1318.51015,0.00420
1316.44998,0.00430
1314.38981,0.00432
1312.32964,0.00422
1310.26947,0.00420
1308.20929,0.00436
1306.14912,0.00456
1304.08895,0.00469
1302.02878,0.00472
1299.96861,0.00470
1297.90843,0.00472
1295.84826,0.00482
1293.78809,0.00491
1291.72792,0.00494
1289.66775,0.00493
1287.60757,0.00504
1285.54740,0.00523
1283.48723,0.00529
1281.42706,0.00525
1279.36688,0.00522
1277.30671,0.00520
1275.24654,0.00522
1273.18637,0.00539
1271.12620,0.00568
1269.06602,0.00587
1267.00585,0.00586
1264.94568,0.00577
1262.88551,0.00567
1260.82534,0.00558
1258.76516,0.00548
1256.70499,0.00550
1254.64482,0.00570
1252.58465,0.00580
1250.52447,0.00572
1248.46430,0.00564
1246.40413,0.00551
1244.34396,0.00531
1242.28379,0.00506
1240.22361,0.00476
1238.16344,0.00445
1236.10327,0.00419
1234.04310,0.00397
1231.98293,0.00384
1229.92275,0.00373
1227.86258,0.00347
1225.80241,0.00306
1223.74224,0.00269
1221.68207,0.00242
1219.62189,0.00227
1217.56172,0.00213
1215.50155,0.00190
1213.44138,0.00166
1211.38120,0.00155
1209.32103,0.00150
1207.26086,0.00131
1205.20069,0.00103
1203.14052,0.00093
1201.08034,0.00099
1199.02017,0.00122
1196.96000,0.00165
1194.89983,0.00210
1192.83966,0.00241
1190.77948,0.00272
1188.71931,0.00321
1186.65914,0.00387
1184.59897,0.00455
1182.53880,0.00541
1180.47862,0.00659
1178.41845,0.00781
1176.35828,0.00892
1174.29811,0.01012
1172.23793,0.01133
1170.17776,0.01242
1168.11759,0.01363
1166.05742,0.01502
1163.99725,0.01633
1161.93707,0.01743
1159.87690,0.01848
1157.81673,0.01955
1155.75656,0.02066
1153.69639,0.02186
1151.63621,0.02316
1149.57604,0.02456
1147.51587,0.02593
1145.45570,0.02716
1143.39552,0.02842
1141.33535,0.02983
1139.27518,0.03120
1137.21501,0.03251
1135.15484,0.03413
1133.09466,0.03604
1131.03449,0.03785
1128.97432,0.03950
1126.91415,0.04120
1124.85398,0.04284
1122.79380,0.04431
1120.73363,0.04581
1118.67346,0.04737
1116.61329,0.04888
1114.55312,0.05056
1112.49294,0.05250
1110.43277,0.05438
1108.37260,0.05611
1106.31243,0.05775
1104.25225,0.05939
1102.19208,0.06107
1100.13191,0.06270
1098.07174,0.06412
1096.01157,0.06545
1093.95139,0.06691
1091.89122,0.06832
1089.83105,0.06958
1087.77088,0.07091
1085.71071,0.07252
1083.65053,0.07409
1081.59036,0.07522
1079.53019,0.07612
1077.47002,0.07701
1075.40985,0.07783
1073.34967,0.07852
1071.28950,0.07914
1069.22933,0.07965
1067.16916,0.07981
1065.10898,0.07961
1063.04881,0.07933
1060.98864,0.07903
1058.92847,0.07848
1056.86830,0.07765
1054.80812,0.07660
1052.74795,0.07537
1050.68778,0.07409
1048.62761,0.07277
1046.56744,0.07138
1044.50726,0.07004
1042.44709,0.06859
1040.38692,0.06678
1038.32675,0.06497
1036.26657,0.06365
1034.20640,0.06241
1032.14623,0.06078
1030.08606,0.05898
1028.02589,0.05735
1025.96571,0.05581
1023.90554,0.05434
1021.84537,0.05297
1019.78520,0.05157
1017.72503,0.05032
1015.66485,0.04938
1013.60468,0.04853
1011.54451,0.04752
1009.48434,0.04652
1007.42417,0.04591
1005.36399,0.04571
1003.30382,0.04576
1001.24365,0.04615
999.18348,0.04695
997.12330,0.04790
995.06313,0.04875
993.00296,0.04969
990.94279,0.05069
988.88262,0.05152
986.82244,0.05231
984.76227,0.05302
982.70210,0.05326
980.64193,0.05284
978.58176,0.05193
976.52158,0.05075
974.46141,0.04922
972.40124,0.04739
970.34107,0.04558
968.28089,0.04386
966.22072,0.04202
964.16055,0.04006
962.10038,0.03820
960.04021,0.03642
957.98003,0.03464
955.91986,0.03311
953.85969,0.03176
951.79952,0.03040
949.73935,0.02936
947.67917,0.02877
945.61900,0.02824
943.55883,0.02768
941.49866,0.02718
939.43849,0.02672
937.37831,0.02627
935.31814,0.02584
933.25797,0.02544
931.19780,0.02518
929.13762,0.02508
927.07745,0.02466
925.01728,0.02399
922.95711,0.02352
920.89694,0.02300
918.83676,0.02231
916.77659,0.02175
914.71642,0.02130
912.65625,0.02084
910.59608,0.02050
908.53590,0.02019
906.47573,0.01957
904.41556,0.01898
902.35539,0.01889
900.29522,0.01896
898.23504,0.01879
896.17487,0.01881
894.11470,0.01934
892.05453,0.01986
889.99435,0.02005
887.93418,0.02026
885.87401,0.02055
883.81384,0.02078
881.75367,0.02123
879.69349,0.02191
877.63332,0.02251
875.57315,0.02316
873.51298,0.02371
871.45281,0.02383
869.39263,0.02387
867.33246,0.02429
865.27229,0.02481
863.21212,0.02507
861.15194,0.02524
859.09177,0.02515
857.03160,0.02451
854.97143,0.02353
852.91126,0.02270
850.85108,0.02212
848.79091,0.02148
846.73074,0.02077
844.67057,0.02015
842.61040,0.01959
840.55022,0.01884
838.49005,0.01781
836.42988,0.01674
834.36971,0.01613
832.30954,0.01598
830.24936,0.01547
828.18919,0.01454
826.12902,0.01394
824.06885,0.01379
822.00867,0.01336
819.94850,0.01243
817.88833,0.01147
815.82816,0.01081
813.76799,0.01032
811.70781,0.00979
809.64764,0.00943
807.58747,0.00936
805.52730,0.00929
803.46713,0.00880
801.40695,0.00799
799.34678,0.00758
797.28661,0.00766
795.22644,0.00780
793.16627,0.00766
791.10609,0.00726
789.04592,0.00688
786.98575,0.00668
784.92558,0.00665
782.86540,0.00656
780.80523,0.00640
778.74506,0.00639
776.68489,0.00646
774.62472,0.00624
772.56454,0.00577
770.50437,0.00548
768.44420,0.00550
766.38403,0.00549
764.32386,0.00534
762.26368,0.00498
760.20351,0.00427
758.14334,0.00370
756.08317,0.00367
754.02299,0.00376
751.96282,0.00351
749.90265,0.00314
747.84248,0.00323
745.78231,0.00397
743.72213,0.00428
741.66196,0.00366
739.60179,0.00322
737.54162,0.00327
735.48145,0.00335
733.42127,0.00351
731.36110,0.00381
729.30093,0.00358
727.24076,0.00263
725.18059,0.00190
723.12041,0.00168
721.06024,0.00203
719.00007,0.00281
716.93990,0.00364
714.87972,0.00370
712.81955,0.00326
710.75938,0.00310
708.69921,0.00296
706.63904,0.00240
704.57886,0.00171
702.51869,0.00140
700.45852,0.00161
698.39835,0.00229
696.33818,0.00293
694.27800,0.00291
692.21783,0.00224
690.15766,0.00175
688.09749,0.00233
686.03731,0.00367
683.97714,0.00480
681.91697,0.00537
679.85680,0.00560
677.79663,0.00556
675.73645,0.00494
673.67628,0.00340
671.61611,0.00145
669.55594,0.00187
667.49577,0.00345
665.43559,0.00131
663.37542,0.00211
661.31525,0.00241
659.25508,0.00132
657.19491,0.00108
655.13473,0.00245
653.07456,0.00357
651.01439,0.00379
648.95422,0.00379
646.89404,0.00345
644.83387,0.00257
642.77370,0.00137
640.71353,0.00112
638.65336,0.00226
636.59318,0.00323
634.53301,0.00297
632.47284,0.00230
630.41267,0.00191
628.35250,0.00166
626.29232,0.00146
624.23215,0.00162
622.17198,0.00160
620.11181,0.00123
618.05164,0.00015
615.99146,0.00014
613.93129,0.00283
611.87112,0.00463
609.81095,0.00319
607.75077,0.00067
605.69060,0.00000
603.63043,0.00085
601.57026,0.00103
599.51009,0.00000
