3996.73391,0.00071
3994.67373,0.00051
3992.61356,0.00046
3990.55339,0.00031
3988.49322,0.00008
3986.43305,0.00000
3984.37287,0.00006
3982.31270,0.00019
3980.25253,0.00044
3978.19236,0.00072
3976.13219,0.00087
3974.07201,0.00087
3972.01184,0.00074
3969.95167,0.00059
3967.89150,0.00066
3965.83133,0.00076
3963.77115,0.00056
3961.71098,0.00037
3959.65081,0.00055
3957.59064,0.00090
3955.53046,0.00101
3953.47029,0.00078
3951.41012,0.00043
3949.34995,0.00022
3947.28978,0.00019
3945.22960,0.00021
3943.16943,0.00031
3941.10926,0.00051
3939.04909,0.00066
3936.98892,0.00074
3934.92874,0.00080
3932.86857,0.00075
3930.80840,0.00058
3928.74823,0.00053
3926.68805,0.00077
3924.62788,0.00113
3922.56771,0.00121
3920.50754,0.00096
3918.44737,0.00067
3916.38719,0.00065
3914.32702,0.00084
3912.26685,0.00094
3910.20668,0.00078
3908.14651,0.00045
3906.08633,0.00023
3904.02616,0.00025
3901.96599,0.00047
3899.90582,0.00078
3897.84565,0.00087
3895.78547,0.00072
3893.72530,0.00062
3891.66513,0.00056
3889.60496,0.00043
3887.54478,0.00028
3885.48461,0.00025
3883.42444,0.00025
3881.36427,0.00036
3879.30410,0.00085
3877.24392,0.00144
3875.18375,0.00164
3873.12358,0.00140
3871.06341,0.00111
3869.00324,0.00104
3866.94306,0.00106
3864.88289,0.00132
3862.82272,0.00163
3860.76255,0.00139
3858.70237,0.00084
3856.64220,0.00051
3854.58203,0.00072
3852.52186,0.00144
3850.46169,0.00193
3848.40151,0.00180
3846.34134,0.00131
3844.28117,0.00085
3842.22100,0.00067
3840.16083,0.00085
3838.10065,0.00108
3836.04048,0.00103
3833.98031,0.00096
3831.92014,0.00120
3829.85997,0.00146
3827.79979,0.00149
3825.73962,0.00140
3823.67945,0.00130
3821.61928,0.00127
3819.55910,0.00127
3817.49893,0.00134
3815.43876,0.00172
3813.37859,0.00201
3811.31842,0.00162
3809.25824,0.00107
3807.19807,0.00115
3805.13790,0.00149
3803.07773,0.00131
3801.01756,0.00106
3798.95738,0.00118
3796.89721,0.00125
3794.83704,0.00136
3792.77687,0.00170
3790.71670,0.00187
3788.65652,0.00173
3786.59635,0.00149
3784.53618,0.00116
3782.47601,0.00074
3780.41583,0.00062
3778.35566,0.00105
3776.29549,0.00156
3774.23532,0.00162
3772.17515,0.00133
3770.11497,0.00110
3768.05480,0.00106
3765.99463,0.00105
3763.93446,0.00090
3761.87429,0.00059
3759.81411,0.00036
3757.75394,0.00055
3755.69377,0.00098
3753.63360,0.00117
3751.57342,0.00105
3749.51325,0.00078
3747.45308,0.00052
3745.39291,0.00078
3743.33274,0.00144
3741.27256,0.00142
3739.21239,0.00089
3737.15222,0.00080
3735.09205,0.00139
3733.03188,0.00196
3730.97170,0.00198
3728.91153,0.00159
3726.85136,0.00099
3724.79119,0.00073
3722.73102,0.00121
3720.67084,0.00181
3718.61067,0.00170
3716.55050,0.00116
3714.49033,0.00095
3712.43015,0.00121
3710.36998,0.00152
3708.30981,0.00168
3706.24964,0.00166
3704.18947,0.00133
3702.12929,0.00103
3700.06912,0.00120
3698.00895,0.00163
3695.94878,0.00189
3693.88861,0.00202
3691.82843,0.00236
3689.76826,0.00255
3687.70809,0.00203
3685.64792,0.00142
3683.58775,0.00133
3681.52757,0.00169
3679.46740,0.00224
3677.40723,0.00286
3675.34706,0.00348
3673.28688,0.00373
3671.22671,0.00362
3669.16654,0.00346
3667.10637,0.00333
3665.04620,0.00331
3662.98602,0.00345
3660.92585,0.00368
3658.86568,0.00406
3656.80551,0.00474
3654.74534,0.00545
3652.68516,0.00557
3650.62499,0.00551
3648.56482,0.00609
3646.50465,0.00670
3644.44447,0.00660
3642.38430,0.00619
3640.32413,0.00616
3638.26396,0.00680
3636.20379,0.00782
3634.14361,0.00866
3632.08344,0.00905
3630.02327,0.00928
3627.96310,0.00964
3625.90293,0.00989
3623.84275,0.01006
3621.78258,0.01054
3619.72241,0.01150
3617.66224,0.01260
3615.60207,0.01334
3613.54189,0.01389
3611.48172,0.01453
3609.42155,0.01524
3607.36138,0.01580
3605.30120,0.01610
3603.24103,0.01627
3601.18086,0.01659
3599.12069,0.01711
3597.06052,0.01743
3595.00034,0.01770
3592.94017,0.01833
3590.88000,0.01905
3588.81983,0.01969
3586.75966,0.02052
3584.69948,0.02136
3582.63931,0.02182
3580.57914,0.02203
3578.51897,0.02234
3576.45879,0.02290
3574.39862,0.02369
3572.33845,0.02443
3570.27828,0.02484
3568.21811,0.02535
3566.15793,0.02633
3564.09776,0.02712
3562.03759,0.02724
3559.97742,0.02738
3557.91725,0.02801
3555.85707,0.02855
3553.79690,0.02868
3551.73673,0.02893
3549.67656,0.02957
3547.61639,0.03033
3545.55621,0.03099
3543.49604,0.03163
3541.43587,0.03235
3539.37570,0.03298
3537.31552,0.03339
3535.25535,0.03384
3533.19518,0.03450
3531.13501,0.03527
3529.07484,0.03599
3527.01466,0.03638
3524.95449,0.03663
3522.89432,0.03725
3520.83415,0.03795
3518.77398,0.03818
3516.71380,0.03826
3514.65363,0.03863
3512.59346,0.03929
3510.53329,0.03998
3508.47312,0.04046
3506.41294,0.04066
3504.35277,0.04102
3502.29260,0.04180
3500.23243,0.04245
3498.17225,0.04267
3496.11208,0.04292
3494.05191,0.04336
3491.99174,0.04370
3489.93157,0.04401
3487.87139,0.04464
3485.81122,0.04534
3483.75105,0.04564
3481.69088,0.04583
3479.63071,0.04635
3477.57053,0.04701
3475.51036,0.04767
3473.45019,0.04837
3471.39002,0.04907
3469.32984,0.04971
3467.26967,0.05013
3465.20950,0.05030
3463.14933,0.05046
3461.08916,0.05076
3459.02898,0.05102
3456.96881,0.05115
3454.90864,0.05141
3452.84847,0.05186
3450.78830,0.05241
3448.72812,0.05311
3446.66795,0.05356
3444.60778,0.05362
3442.54761,0.05371
3440.48744,0.05378
3438.42726,0.05399
3436.36709,0.05469
3434.30692,0.05546
3432.24675,0.05577
3430.18657,0.05568
3428.12640,0.05569
3426.06623,0.05597
3424.00606,0.05636
3421.94589,0.05689
3419.88571,0.05741
3417.82554,0.05776
3415.76537,0.05809
3413.70520,0.05854
3411.64503,0.05888
3409.58485,0.05898
3407.52468,0.05895
3405.46451,0.05901
3403.40434,0.05934
3401.34416,0.05979
3399.28399,0.06014
3397.22382,0.06040
3395.16365,0.06060
3393.10348,0.06103
3391.04330,0.06160
3388.98313,0.06171
3386.92296,0.06139
3384.86279,0.06121
3382.80262,0.06136
3380.74244,0.06163
3378.68227,0.06196
3376.62210,0.06219
3374.56193,0.06218
3372.50176,0.06229
3370.44158,0.06281
3368.38141,0.06322
3366.32124,0.06304
3364.26107,0.06283
3362.20089,0.06311
3360.14072,0.06358
3358.08055,0.06389
3356.02038,0.06409
3353.96021,0.06425
3351.90003,0.06429
3349.83986,0.06425
3347.77969,0.06427
3345.71952,0.06430
3343.65935,0.06429
3341.59917,0.06450
3339.53900,0.06501
3337.47883,0.06520
3335.41866,0.06503
3333.35849,0.06501
3331.29831,0.06507
3329.23814,0.06500
3327.17797,0.06504
3325.11780,0.06520
3323.05762,0.06530
3320.99745,0.06545
3318.93728,0.06569
3316.87711,0.06591
3314.81694,0.06603
3312.75676,0.06609
3310.69659,0.06611
3308.63642,0.06599
3306.57625,0.06581
3304.51608,0.06583
3302.45590,0.06613
3300.39573,0.06661
3298.33556,0.06686
3296.27539,0.06660
3294.21521,0.06620
3292.15504,0.06595
3290.09487,0.06592
3288.03470,0.06602
3285.97453,0.06595
3283.91435,0.06580
3281.85418,0.06593
3279.79401,0.06633
3277.73384,0.06677
3275.67367,0.06722
3273.61349,0.06745
3271.55332,0.06719
3269.49315,0.06682
3267.43298,0.06670
3265.37281,0.06661
3263.31263,0.06633
3261.25246,0.06596
3259.19229,0.06587
3257.13212,0.06619
3255.07194,0.06657
3253.01177,0.06680
3250.95160,0.06690
3248.89143,0.06684
3246.83126,0.06657
3244.77108,0.06626
3242.71091,0.06635
3240.65074,0.06668
3238.59057,0.06674
3236.53040,0.06660
3234.47022,0.06656
3232.41005,0.06673
3230.34988,0.06695
3228.28971,0.06671
3226.22954,0.06621
3224.16936,0.06612
3222.10919,0.06630
3220.04902,0.06626
3217.98885,0.06600
3215.92867,0.06570
3213.86850,0.06547
3211.80833,0.06548
3209.74816,0.06569
3207.68799,0.06584
3205.62781,0.06563
3203.56764,0.06525
3201.50747,0.06507
3199.44730,0.06477
3197.38713,0.06421
3195.32695,0.06394
3193.26678,0.06407
3191.20661,0.06406
3189.14644,0.06382
3187.08626,0.06365
3185.02609,0.06364
3182.96592,0.06384
3180.90575,0.06402
3178.84558,0.06378
3176.78540,0.06352
3174.72523,0.06354
3172.66506,0.06354
3170.60489,0.06340
3168.54472,0.06321
3166.48454,0.06291
3164.42437,0.06253
3162.36420,0.06209
3160.30403,0.06162
3158.24386,0.06135
3156.18368,0.06139
3154.12351,0.06154
3152.06334,0.06149
3150.00317,0.06116
3147.94299,0.06085
3145.88282,0.06084
3143.82265,0.06082
3141.76248,0.06049
3139.70231,0.05993
3137.64213,0.05941
3135.58196,0.05920
3133.52179,0.05922
3131.46162,0.05913
3129.40145,0.05871
3127.34127,0.05815
3125.28110,0.05792
3123.22093,0.05810
3121.16076,0.05805
3119.10058,0.05748
3117.04041,0.05683
3114.98024,0.05647
3112.92007,0.05647
3110.85990,0.05659
3108.79972,0.05630
3106.73955,0.05572
3104.67938,0.05530
3102.61921,0.05508
3100.55904,0.05503
3098.49886,0.05500
3096.43869,0.05467
3094.37852,0.05423
3092.31835,0.05386
3090.25818,0.05352
3088.19800,0.05330
3086.13783,0.05317
3084.07766,0.05305
3082.01749,0.05287
3079.95731,0.05249
3077.89714,0.05207
3075.83697,0.05173
3073.77680,0.05145
3071.71663,0.05125
3069.65645,0.05107
3067.59628,0.05075
3065.53611,0.05036
3063.47594,0.05013
3061.41577,0.05006
3059.35559,0.04994
3057.29542,0.04965
3055.23525,0.04926
3053.17508,0.04894
3051.11491,0.04871
3049.05473,0.04851
3046.99456,0.04834
3044.93439,0.04799
3042.87422,0.04739
3040.81404,0.04692
3038.75387,0.04688
3036.69370,0.04699
3034.63353,0.04675
3032.57336,0.04623
3030.51318,0.04584
3028.45301,0.04566
3026.39284,0.04552
3024.33267,0.04533
3022.27250,0.04499
3020.21232,0.04452
3018.15215,0.04411
3016.09198,0.04383
3014.03181,0.04351
3011.97163,0.04307
3009.91146,0.04271
3007.85129,0.04255
3005.79112,0.04255
3003.73095,0.04249
3001.67077,0.04222
2999.61060,0.04185
2997.55043,0.04134
2995.49026,0.04078
2993.43009,0.04054
2991.36991,0.04065
2989.30974,0.04068
2987.24957,0.04037
2985.18940,0.03987
2983.12923,0.03959
2981.06905,0.03968
2979.00888,0.03975
2976.94871,0.03958
2974.88854,0.03941
2972.82836,0.03934
2970.76819,0.03928
2968.70802,0.03923
2966.64785,0.03908
2964.58768,0.03881
2962.52750,0.03870
2960.46733,0.03886
2958.40716,0.03912
2956.34699,0.03921
2954.28682,0.03911
2952.22664,0.03905
2950.16647,0.03895
2948.10630,0.03865
2946.04613,0.03840
2943.98596,0.03834
2941.92578,0.03830
2939.86561,0.03825
2937.80544,0.03833
2935.74527,0.03850
2933.68509,0.03844
2931.62492,0.03816
2929.56475,0.03794
2927.50458,0.03774
2925.44441,0.03747
2923.38423,0.03740
2921.32406,0.03741
2919.26389,0.03717
2917.20372,0.03690
2915.14355,0.03684
2913.08337,0.03687
2911.02320,0.03678
2908.96303,0.03654
2906.90286,0.03621
2904.84268,0.03582
2902.78251,0.03560
2900.72234,0.03572
2898.66217,0.03590
2896.60200,0.03579
2894.54182,0.03553
2892.48165,0.03535
2890.42148,0.03526
2888.36131,0.03521
2886.30114,0.03533
2884.24096,0.03554
2882.18079,0.03541
2880.12062,0.03506
2878.06045,0.03484
2876.00028,0.03479
2873.94010,0.03475
2871.87993,0.03447
2869.81976,0.03420
2867.75959,0.03418
2865.69941,0.03410
2863.63924,0.03378
2861.57907,0.03335
2859.51890,0.03302
2857.45873,0.03283
2855.39855,0.03265
2853.33838,0.03250
2851.27821,0.03250
2849.21804,0.03253
2847.15787,0.03235
2845.09769,0.03194
2843.03752,0.03155
2840.97735,0.03135
2838.91718,0.03138
2836.85700,0.03144
2834.79683,0.03131
2832.73666,0.03106
2830.67649,0.03084
2828.61632,0.03059
2826.55614,0.03029
2824.49597,0.03013
2822.43580,0.03008
2820.37563,0.02988
2818.31546,0.02964
2816.25528,0.02955
2814.19511,0.02948
2812.13494,0.02926
2810.07477,0.02902
2808.01460,0.02896
2805.95442,0.02903
2803.89425,0.02912
2801.83408,0.02903
2799.77391,0.02870
2797.71373,0.02832
2795.65356,0.02800
2793.59339,0.02800
2791.53322,0.02818
2789.47305,0.02802
2787.41287,0.02765
2785.35270,0.02742
2783.29253,0.02743
2781.23236,0.02741
2779.17219,0.02720
2777.11201,0.02708
2775.05184,0.02704
2772.99167,0.02684
2770.93150,0.02657
2768.87133,0.02637
2766.81115,0.02618
2764.75098,0.02603
2762.69081,0.02590
2760.63064,0.02575
2758.57046,0.02576
2756.51029,0.02584
2754.45012,0.02572
2752.38995,0.02554
2750.32978,0.02547
2748.26960,0.02540
2746.20943,0.02518
2744.14926,0.02495
2742.08909,0.02486
2740.02892,0.02478
2737.96874,0.02471
2735.90857,0.02456
2733.84840,0.02435
2731.78823,0.02415
2729.72805,0.02394
2727.66788,0.02386
2725.60771,0.02394
2723.54754,0.02400
2721.48737,0.02386
2719.42719,0.02344
2717.36702,0.02304
2715.30685,0.02286
2713.24668,0.02277
2711.18651,0.02282
2709.12633,0.02287
2707.06616,0.02268
2705.00599,0.02240
2702.94582,0.02217
2700.88565,0.02188
2698.82547,0.02170
2696.76530,0.02163
2694.70513,0.02135
2692.64496,0.02100
2690.58478,0.02092
2688.52461,0.02111
2686.46444,0.02126
2684.40427,0.02122
2682.34410,0.02103
2680.28392,0.02072
2678.22375,0.02032
2676.16358,0.01998
2674.10341,0.01983
2672.04324,0.01989
2669.98306,0.02004
2667.92289,0.02007
2665.86272,0.01982
2663.80255,0.01946
2661.74238,0.01922
2659.68220,0.01904
2657.62203,0.01886
2655.56186,0.01861
2653.50169,0.01838
2651.44151,0.01831
2649.38134,0.01822
2647.32117,0.01793
2645.26100,0.01764
2643.20083,0.01764
2641.14065,0.01779
2639.08048,0.01780
2637.02031,0.01765
2634.96014,0.01742
2632.89997,0.01717
2630.83979,0.01701
2628.77962,0.01688
2626.71945,0.01661
2624.65928,0.01639
2622.59910,0.01631
2620.53893,0.01598
2618.47876,0.01566
2616.41859,0.01568
2614.35842,0.01569
2612.29824,0.01546
2610.23807,0.01511
2608.17790,0.01473
2606.11773,0.01457
2604.05756,0.01475
2601.99738,0.01484
2599.93721,0.01463
2597.87704,0.01437
2595.81687,0.01419
2593.75670,0.01416
2591.69652,0.01436
2589.63635,0.01448
2587.57618,0.01426
2585.51601,0.01412
2583.45583,0.01427
2581.39566,0.01431
2579.33549,0.01407
2577.27532,0.01386
2575.21515,0.01375
2573.15497,0.01366
2571.09480,0.01368
2569.03463,0.01372
2566.97446,0.01377
2564.91429,0.01397
2562.85411,0.01413
2560.79394,0.01393
2558.73377,0.01366
2556.67360,0.01380
2554.61342,0.01407
2552.55325,0.01419
2550.49308,0.01419
2548.43291,0.01392
2546.37274,0.01348
2544.31256,0.01324
2542.25239,0.01326
2540.19222,0.01321
2538.13205,0.01303
2536.07188,0.01293
2534.01170,0.01300
2531.95153,0.01320
2529.89136,0.01361
2527.83119,0.01428
2525.77102,0.01459
2523.71084,0.01414
2521.65067,0.01358
2519.59050,0.01354
2517.53033,0.01367
2515.47015,0.01375
2513.40998,0.01394
2511.34981,0.01417
2509.28964,0.01423
2507.22947,0.01422
2505.16929,0.01428
2503.10912,0.01428
2501.04895,0.01421
2498.98878,0.01431
2496.92861,0.01445
2494.86843,0.01435
2492.80826,0.01406
2490.74809,0.01397
2488.68792,0.01425
2486.62775,0.01476
2484.56757,0.01518
2482.50740,0.01517
2480.44723,0.01472
2478.38706,0.01429
2476.32688,0.01423
2474.26671,0.01440
2472.20654,0.01441
2470.14637,0.01421
2468.08620,0.01432
2466.02602,0.01492
2463.96585,0.01519
2461.90568,0.01469
2459.84551,0.01429
2457.78534,0.01479
2455.72516,0.01553
2453.66499,0.01559
2451.60482,0.01528
2449.54465,0.01529
2447.48447,0.01537
2445.42430,0.01518
2443.36413,0.01518
2441.30396,0.01557
2439.24379,0.01582
2437.18361,0.01582
2435.12344,0.01598
2433.06327,0.01600
2431.00310,0.01569
2428.94293,0.01553
2426.88275,0.01568
2424.82258,0.01592
2422.76241,0.01606
2420.70224,0.01605
2418.64207,0.01585
2416.58189,0.01560
2414.52172,0.01559
2412.46155,0.01573
2410.40138,0.01580
2408.34120,0.01579
2406.28103,0.01568
2404.22086,0.01545
2402.16069,0.01516
2400.10052,0.01503
2398.04034,0.01512
2395.98017,0.01547
2393.92000,0.01563
2391.85983,0.01545
2389.79966,0.01519
2387.73948,0.01507
2385.67931,0.01515
2383.61914,0.01520
2381.55897,0.01516
2379.49880,0.01536
2377.43862,0.01577
2375.37845,0.01562
2373.31828,0.01486
2371.25811,0.01404
2369.19793,0.01346
2367.13776,0.01365
2365.07759,0.01400
2363.01742,0.01291
2360.95725,0.01179
2358.89707,0.01170
2356.83690,0.01269
2354.77673,0.01365
2352.71656,0.01442
2350.65639,0.01571
2348.59621,0.01624
2346.53604,0.01483
2344.47587,0.01445
2342.41570,0.01475
2340.35552,0.01501
2338.29535,0.01545
2336.23518,0.01553
2334.17501,0.01470
2332.11484,0.01344
2330.05466,0.01323
2327.99449,0.01408
2325.93432,0.01525
2323.87415,0.01554
2321.81398,0.01504
2319.75380,0.01395
2317.69363,0.01312
2315.63346,0.01291
2313.57329,0.01336
2311.51312,0.01366
2309.45294,0.01343
2307.39277,0.01332
2305.33260,0.01368
2303.27243,0.01414
2301.21225,0.01430
2299.15208,0.01423
2297.09191,0.01395
2295.03174,0.01351
2292.97157,0.01326
2290.91139,0.01322
2288.85122,0.01312
2286.79105,0.01302
2284.73088,0.01297
2282.67071,0.01286
2280.61053,0.01273
2278.55036,0.01253
2276.49019,0.01205
2274.43002,0.01131
2272.36984,0.01084
2270.30967,0.01103
2268.24950,0.01147
2266.18933,0.01158
2264.12916,0.01139
2262.06898,0.01131
2260.00881,0.01172
2257.94864,0.01228
2255.88847,0.01200
2253.82830,0.01106
2251.76812,0.01033
2249.70795,0.00995
2247.64778,0.01004
2245.58761,0.01053
2243.52744,0.01071
2241.46726,0.01034
2239.40709,0.01010
2237.34692,0.00993
2235.28675,0.00974
2233.22657,0.01046
2231.16640,0.01161
2229.10623,0.01166
2227.04606,0.01065
2224.98589,0.00965
2222.92571,0.00933
2220.86554,0.00922
2218.80537,0.00920
2216.74520,0.00971
2214.68503,0.00967
2212.62485,0.00840
2210.56468,0.00804
2208.50451,0.00948
2206.44434,0.00994
2204.38417,0.00873
2202.32399,0.00814
2200.26382,0.00815
2198.20365,0.00734
2196.14348,0.00658
2194.08330,0.00663
2192.02313,0.00728
2189.96296,0.00838
2187.90279,0.00885
2185.84262,0.00832
2183.78244,0.00777
2181.72227,0.00793
2179.66210,0.00885
2177.60193,0.01005
2175.54176,0.01008
2173.48158,0.00870
2171.42141,0.00712
2169.36124,0.00641
2167.30107,0.00685
2165.24089,0.00777
2163.18072,0.00842
2161.12055,0.00733
2159.06038,0.00473
2157.00021,0.00365
2154.94003,0.00474
2152.87986,0.00579
2150.81969,0.00558
2148.75952,0.00522
2146.69935,0.00477
2144.63917,0.00374
2142.57900,0.00380
2140.51883,0.00523
2138.45866,0.00570
2136.39849,0.00474
2134.33831,0.00419
2132.27814,0.00486
2130.21797,0.00589
2128.15780,0.00652
2126.09762,0.00680
2124.03745,0.00704
2121.97728,0.00727
2119.91711,0.00713
2117.85694,0.00672
2115.79676,0.00676
2113.73659,0.00716
2111.67642,0.00718
2109.61625,0.00654
2107.55608,0.00560
2105.49590,0.00541
2103.43573,0.00605
2101.37556,0.00650
2099.31539,0.00662
2097.25521,0.00621
2095.19504,0.00541
2093.13487,0.00524
2091.07470,0.00615
2089.01453,0.00694
2086.95435,0.00657
2084.89418,0.00603
2082.83401,0.00609
2080.77384,0.00611
2078.71367,0.00588
2076.65349,0.00572
2074.59332,0.00594
2072.53315,0.00642
2070.47298,0.00640
2068.41281,0.00594
2066.35263,0.00571
2064.29246,0.00578
2062.23229,0.00581
2060.17212,0.00583
2058.11194,0.00603
2056.05177,0.00605
2053.99160,0.00590
2051.93143,0.00547
2049.87126,0.00444
2047.81108,0.00365
2045.75091,0.00354
2043.69074,0.00376
2041.63057,0.00441
2039.57040,0.00523
2037.51022,0.00524
2035.45005,0.00412
2033.38988,0.00336
2031.32971,0.00407
2029.26954,0.00493
2027.20936,0.00455
2025.14919,0.00306
2023.08902,0.00217
2021.02885,0.00313
2018.96867,0.00431
2016.90850,0.00412
2014.84833,0.00301
2012.78816,0.00216
2010.72799,0.00191
2008.66781,0.00196
2006.60764,0.00249
2004.54747,0.00281
2002.48730,0.00238
2000.42713,0.00247
1998.36695,0.00326
1996.30678,0.00365
1994.24661,0.00343
1992.18644,0.00311
1990.12626,0.00327
1988.06609,0.00398
1986.00592,0.00459
1983.94575,0.00465
1981.88558,0.00484
1979.82540,0.00548
1977.76523,0.00581
1975.70506,0.00545
1973.64489,0.00497
1971.58472,0.00434
1969.52454,0.00339
1967.46437,0.00354
1965.40420,0.00495
1963.34403,0.00535
1961.28386,0.00421
1959.22368,0.00336
1957.16351,0.00372
1955.10334,0.00407
1953.04317,0.00390
1950.98299,0.00389
1948.92282,0.00404
1946.86265,0.00428
1944.80248,0.00446
1942.74231,0.00401
1940.68213,0.00335
1938.62196,0.00308
1936.56179,0.00259
1934.50162,0.00197
1932.44145,0.00212
1930.38127,0.00275
1928.32110,0.00300
1926.26093,0.00294
1924.20076,0.00295
1922.14059,0.00312
1920.08041,0.00324
1918.02024,0.00331
1915.96007,0.00369
1913.89990,0.00417
1911.83972,0.00416
1909.77955,0.00377
1907.71938,0.00375
1905.65921,0.00409
1903.59904,0.00440
1901.53886,0.00467
1899.47869,0.00466
1897.41852,0.00436
1895.35835,0.00419
1893.29818,0.00393
1891.23800,0.00339
1889.17783,0.00303
1887.11766,0.00315
1885.05749,0.00351
1882.99731,0.00374
1880.93714,0.00377
1878.87697,0.00382
1876.81680,0.00396
1874.75663,0.00397
1872.69645,0.00387
1870.63628,0.00391
1868.57611,0.00422
1866.51594,0.00455
1864.45577,0.00460
1862.39559,0.00445
1860.33542,0.00436
1858.27525,0.00419
1856.21508,0.00380
1854.15491,0.00356
1852.09473,0.00371
1850.03456,0.00404
1847.97439,0.00428
1845.91422,0.00427
1843.85404,0.00410
1841.79387,0.00404
1839.73370,0.00422
1837.67353,0.00446
1835.61336,0.00440
1833.55318,0.00410
1831.49301,0.00407
1829.43284,0.00444
1827.37267,0.00474
1825.31250,0.00478
1823.25232,0.00462
1821.19215,0.00446
1819.13198,0.00450
1817.07181,0.00465
1815.01163,0.00471
1812.95146,0.00474
1810.89129,0.00495
1808.83112,0.00524
1806.77095,0.00545
1804.71077,0.00562
1802.65060,0.00581
1800.59043,0.00586
1798.53026,0.00572
1796.47009,0.00553
1794.40991,0.00544
1792.34974,0.00549
1790.28957,0.00556
1788.22940,0.00543
1786.16923,0.00520
1784.10905,0.00514
1782.04888,0.00533
1779.98871,0.00560
1777.92854,0.00587
1775.86836,0.00608
1773.80819,0.00614
1771.74802,0.00610
1769.68785,0.00613
1767.62768,0.00622
1765.56750,0.00630
1763.50733,0.00646
1761.44716,0.00678
1759.38699,0.00697
1757.32682,0.00684
1755.26664,0.00678
1753.20647,0.00708
1751.14630,0.00752
1749.08613,0.00779
1747.02596,0.00793
1744.96578,0.00807
1742.90561,0.00836
1740.84544,0.00883
1738.78527,0.00919
1736.72509,0.00924
1734.66492,0.00927
1732.60475,0.00952
1730.54458,0.00974
1728.48441,0.00989
1726.42423,0.01017
1724.36406,0.01054
1722.30389,0.01066
1720.24372,0.01054
1718.18355,0.01061
1716.12337,0.01104
1714.06320,0.01152
1712.00303,0.01181
1709.94286,0.01203
1707.88268,0.01234
1705.82251,0.01274
1703.76234,0.01307
1701.70217,0.01321
1699.64200,0.01336
1697.58182,0.01374
1695.52165,0.01426
1693.46148,0.01482
1691.40131,0.01541
1689.34114,0.01608
1687.28096,0.01674
1685.22079,0.01742
1683.16062,0.01811
1681.10045,0.01858
1679.04028,0.01884
1676.98010,0.01913
1674.91993,0.01966
1672.85976,0.02032
1670.79959,0.02107
1668.73941,0.02193
1666.67924,0.02250
1664.61907,0.02268
1662.55890,0.02278
1660.49873,0.02295
1658.43855,0.02305
1656.37838,0.02300
1654.31821,0.02305
1652.25804,0.02355
1650.19787,0.02414
1648.13769,0.02442
1646.07752,0.02439
1644.01735,0.02417
1641.95718,0.02391
1639.89701,0.02379
1637.83683,0.02398
1635.77666,0.02418
1633.71649,0.02388
1631.65632,0.02338
1629.59614,0.02305
1627.53597,0.02294
1625.47580,0.02288
1623.41563,0.02280
1621.35546,0.02273
1619.29528,0.02262
1617.23511,0.02243
1615.17494,0.02229
1613.11477,0.02216
1611.05460,0.02190
1608.99442,0.02154
1606.93425,0.02113
1604.87408,0.02073
1602.81391,0.02037
1600.75373,0.02001
1598.69356,0.01961
1596.63339,0.01918
1594.57322,0.01865
1592.51305,0.01801
1590.45287,0.01729
1588.39270,0.01658
1586.33253,0.01594
1584.27236,0.01537
1582.21219,0.01483
1580.15201,0.01435
1578.09184,0.01393
1576.03167,0.01342
1573.97150,0.01289
1571.91133,0.01253
1569.85115,0.01226
1567.79098,0.01189
1565.73081,0.01143
1563.67064,0.01090
1561.61046,0.01024
1559.55029,0.00960
1557.49012,0.00927
1555.42995,0.00916
1553.36978,0.00893
1551.30960,0.00858
1549.24943,0.00819
1547.18926,0.00784
1545.12909,0.00762
1543.06892,0.00761
1541.00874,0.00758
1538.94857,0.00725
1536.88840,0.00691
1534.82823,0.00672
1532.76805,0.00662
1530.70788,0.00653
1528.64771,0.00640
1526.58754,0.00618
1524.52737,0.00599
1522.46719,0.00578
1520.40702,0.00534
1518.34685,0.00489
1516.28668,0.00475
1514.22651,0.00481
1512.16633,0.00474
1510.10616,0.00455
1508.04599,0.00457
1505.98582,0.00474
1503.92565,0.00463
1501.86547,0.00434
1499.80530,0.00418
1497.74513,0.00424
1495.68496,0.00430
1493.62478,0.00423
1491.56461,0.00408
1489.50444,0.00408
1487.44427,0.00432
1485.38410,0.00458
1483.32392,0.00474
1481.26375,0.00482
1479.20358,0.00482
1477.14341,0.00478
1475.08324,0.00479
1473.02306,0.00494
1470.96289,0.00520
1468.90272,0.00543
1466.84255,0.00562
1464.78238,0.00583
1462.72220,0.00591
1460.66203,0.00577
1458.60186,0.00556
1456.54169,0.00552
1454.48151,0.00579
1452.42134,0.00607
1450.36117,0.00613
1448.30100,0.00610
1446.24083,0.00612
1444.18065,0.00618
1442.12048,0.00615
1440.06031,0.00602
1438.00014,0.00601
1435.93997,0.00633
1433.87979,0.00671
1431.81962,0.00695
1429.75945,0.00714
1427.69928,0.00722
1425.63910,0.00721
1423.57893,0.00726
1421.51876,0.00737
1419.45859,0.00752
1417.39842,0.00782
1415.33824,0.00813
1413.27807,0.00819
1411.21790,0.00806
1409.15773,0.00790
1407.09756,0.00787
1405.03738,0.00794
1402.97721,0.00791
1400.91704,0.00767
1398.85687,0.00736
1396.79670,0.00700
1394.73652,0.00669
1392.67635,0.00655
1390.61618,0.00655
1388.55601,0.00661
1386.49583,0.00670
1384.43566,0.00678
1382.37549,0.00679
1380.31532,0.00687
1378.25515,0.00714
1376.19497,0.00748
1374.13480,0.00771
1372.07463,0.00769
1370.01446,0.00743
1367.95429,0.00706
1365.89411,0.00673
1363.83394,0.00646
1361.77377,0.00626
1359.71360,0.00617
1357.65343,0.00612
1355.59325,0.00601
1353.53308,0.00582
1351.47291,0.00568
1349.41274,0.00569
1347.35256,0.00578
1345.29239,0.00577
1343.23222,0.00560
1341.17205,0.00541
1339.11188,0.00540
1337.05170,0.00551
1334.99153,0.00555
1332.93136,0.00549
1330.87119,0.00542
1328.81102,0.00537
1326.75084,0.00538
1324.69067,0.00541
1322.63050,0.00542
1320.57033,0.00539
1318.51015,0.00544
1316.44998,0.00558
1314.38981,0.00559
1312.32964,0.00542
1310.26947,0.00536
1308.20929,0.00552
1306.14912,0.00568
1304.08895,0.00573
1302.02878,0.00579
1299.96861,0.00584
1297.90843,0.00583
1295.84826,0.00581
1293.78809,0.00587
1291.72792,0.00595
1289.66775,0.00602
1287.60757,0.00613
1285.54740,0.00628
1283.48723,0.00642
1281.42706,0.00653
1279.36688,0.00655
1277.30671,0.00644
1275.24654,0.00637
1273.18637,0.00648
1271.12620,0.00672
1269.06602,0.00684
1267.00585,0.00689
1264.94568,0.00699
1262.88551,0.00704
1260.82534,0.00700
1258.76516,0.00699
1256.70499,0.00694
1254.64482,0.00690
1252.58465,0.00686
1250.52447,0.00667
1248.46430,0.00639
1246.40413,0.00626
1244.34396,0.00627
1242.28379,0.00617
1240.22361,0.00599
1238.16344,0.00592
1236.10327,0.00569
1234.04310,0.00525
1231.98293,0.00499
1229.92275,0.00497
1227.86258,0.00486
1225.80241,0.00454
1223.74224,0.00422
1221.68207,0.00399
1219.62189,0.00372
1217.56172,0.00334
1215.50155,0.00309
1213.44138,0.00298
1211.38120,0.00291
1209.32103,0.00289
1207.26086,0.00288
1205.20069,0.00276
1203.14052,0.00262
1201.08034,0.00268
1199.02017,0.00304
1196.96000,0.00357
1194.89983,0.00402
1192.83966,0.00428
1190.77948,0.00458
1188.71931,0.00518
1186.65914,0.00596
1184.59897,0.00676
1182.53880,0.00764
1180.47862,0.00868
1178.41845,0.00984
1176.35828,0.01101
1174.29811,0.01222
1172.23793,0.01345
1170.17776,0.01455
1168.11759,0.01570
1166.05742,0.01707
1163.99725,0.01844
1161.93707,0.01973
1159.87690,0.02100
1157.81673,0.02217
1155.75656,0.02336
1153.69639,0.02465
1151.63621,0.02600
1149.57604,0.02733
1147.51587,0.02866
1145.45570,0.02987
1143.39552,0.03107
1141.33535,0.03242
1139.27518,0.03374
1137.21501,0.03505
1135.15484,0.03674
1133.09466,0.03867
1131.03449,0.04042
1128.97432,0.04198
1126.91415,0.04332
1124.85398,0.04451
1122.79380,0.04587
1120.73363,0.04742
1118.67346,0.04903
1116.61329,0.05064
1114.55312,0.05235
1112.49294,0.05419
1110.43277,0.05587
1108.37260,0.05732
1106.31243,0.05875
1104.25225,0.06048
1102.19208,0.06248
1100.13191,0.06413
1098.07174,0.06523
1096.01157,0.06632
1093.95139,0.06768
1091.89122,0.06907
1089.83105,0.07044
1087.77088,0.07181
1085.71071,0.07313
1083.65053,0.07435
1081.59036,0.07549
1079.53019,0.07651
1077.47002,0.07726
1075.40985,0.07791
1073.34967,0.07873
1071.28950,0.07935
1069.22933,0.07949
1067.16916,0.07938
1065.10898,0.07921
1063.04881,0.07893
1060.98864,0.07844
1058.92847,0.07764
1056.86830,0.07667
1054.80812,0.07568
1052.74795,0.07463
1050.68778,0.07350
1048.62761,0.07238
1046.56744,0.07127
1044.50726,0.07002
1042.44709,0.06842
1040.38692,0.06660
1038.32675,0.06505
1036.26657,0.06391
1034.20640,0.06276
1032.14623,0.06116
1030.08606,0.05934
1028.02589,0.05778
1025.96571,0.05636
1023.90554,0.05492
1021.84537,0.05365
1019.78520,0.05250
1017.72503,0.05137
1015.66485,0.05036
1013.60468,0.04938
1011.54451,0.04827
1009.48434,0.04720
1007.42417,0.04655
1005.36399,0.04620
1003.30382,0.04614
1001.24365,0.04660
999.18348,0.04744
997.12330,0.04840
995.06313,0.04942
993.00296,0.05052
990.94279,0.05149
988.88262,0.05210
986.82244,0.05269
984.76227,0.05330
982.70210,0.05337
980.64193,0.05275
978.58176,0.05179
976.52158,0.05059
974.46141,0.04913
972.40124,0.04755
970.34107,0.04588
968.28089,0.04404
966.22072,0.04218
964.16055,0.04044
962.10038,0.03868
960.04021,0.03696
957.98003,0.03554
955.91986,0.03436
953.85969,0.03307
951.79952,0.03169
949.73935,0.03065
947.67917,0.03004
945.61900,0.02947
943.55883,0.02885
941.49866,0.02830
939.43849,0.02790
937.37831,0.02754
935.31814,0.02716
933.25797,0.02671
931.19780,0.02636
929.13762,0.02634
927.07745,0.02615
925.01728,0.02554
922.95711,0.02498
920.89694,0.02459
918.83676,0.02403
916.77659,0.02320
914.71642,0.02253
912.65625,0.02234
910.59608,0.02217
908.53590,0.02159
906.47573,0.02092
904.41556,0.02051
902.35539,0.02045
900.29522,0.02038
898.23504,0.02009
896.17487,0.01997
894.11470,0.02026
892.05453,0.02081
889.99435,0.02147
887.93418,0.02205
885.87401,0.02234
883.81384,0.02239
881.75367,0.02258
879.69349,0.02315
877.63332,0.02389
875.57315,0.02466
873.51298,0.02526
871.45281,0.02575
869.39263,0.02644
867.33246,0.02695
865.27229,0.02695
863.21212,0.02677
861.15194,0.02660
859.09177,0.02614
857.03160,0.02527
854.97143,0.02444
852.91126,0.02401
850.85108,0.02373
848.79091,0.02331
846.73074,0.02285
844.67057,0.02237
842.61040,0.02184
840.55022,0.02095
838.49005,0.01974
836.42988,0.01894
834.36971,0.01862
832.30954,0.01803
830.24936,0.01692
828.18919,0.01593
826.12902,0.01558
824.06885,0.01530
822.00867,0.01447
819.94850,0.01355
817.88833,0.01292
815.82816,0.01229
813.76799,0.01151
811.70781,0.01071
809.64764,0.01020
807.58747,0.01014
805.52730,0.01017
803.46713,0.00987
801.40695,0.00954
799.34678,0.00952
797.28661,0.00928
795.22644,0.00872
793.16627,0.00824
791.10609,0.00797
789.04592,0.00787
786.98575,0.00801
784.92558,0.00836
782.86540,0.00856
780.80523,0.00835
778.74506,0.00771
776.68489,0.00721
774.62472,0.00728
772.56454,0.00739
770.50437,0.00728
768.44420,0.00730
766.38403,0.00748
764.32386,0.00738
762.26368,0.00689
760.20351,0.00651
758.14334,0.00616
756.08317,0.00549
754.02299,0.00490
751.96282,0.00463
749.90265,0.00461
747.84248,0.00496
745.78231,0.00539
743.72213,0.00544
741.66196,0.00500
739.60179,0.00454
737.54162,0.00450
735.48145,0.00477
733.42127,0.00504
731.36110,0.00504
729.30093,0.00464
727.24076,0.00407
725.18059,0.00388
723.12041,0.00434
721.06024,0.00465
719.00007,0.00509
716.93990,0.00545
714.87972,0.00571
712.81955,0.00603
710.75938,0.00639
708.69921,0.00656
706.63904,0.00619
704.57886,0.00544
702.51869,0.00474
700.45852,0.00472
698.39835,0.00538
696.33818,0.00582
694.27800,0.00575
692.21783,0.00549
690.15766,0.00528
688.09749,0.00547
686.03731,0.00607
683.97714,0.00663
681.91697,0.00703
679.85680,0.00730
677.79663,0.00730
675.73645,0.00685
673.67628,0.00656
671.61611,0.00714
669.55594,0.00606
667.49577,0.00423
665.43559,0.00600
663.37542,0.00520
661.31525,0.00415
659.25508,0.00403
657.19491,0.00452
655.13473,0.00512
653.07456,0.00568
651.01439,0.00614
648.95422,0.00625
646.89404,0.00601
644.83387,0.00585
642.77370,0.00640
640.71353,0.00744
638.65336,0.00807
636.59318,0.00787
634.53301,0.00758
632.47284,0.00739
630.41267,0.00647
628.35250,0.00525
626.29232,0.00510
624.23215,0.00567
622.17198,0.00578
620.11181,0.00525
618.05164,0.00404
615.99146,0.00314
613.93129,0.00296
611.87112,0.00322
609.81095,0.00242
607.75077,0.00069
605.69060,0.00000
603.63043,0.00006
601.57026,0.00031
599.51009,0.00000
