3996.73391,0.00072
3994.67373,0.00049
3992.61356,0.00021
3990.55339,0.00000
3988.49322,0.00012
3986.43305,0.00054
3984.37287,0.00089
3982.31270,0.00103
3980.25253,0.00115
3978.19236,0.00118
3976.13219,0.00102
3974.07201,0.00085
3972.01184,0.00079
3969.95167,0.00067
3967.89150,0.00060
3965.83133,0.00071
3963.77115,0.00066
3961.71098,0.00036
3959.65081,0.00014
3957.59064,0.00031
3955.53046,0.00064
3953.47029,0.00075
3951.41012,0.00060
3949.34995,0.00051
3947.28978,0.00056
3945.22960,0.00054
3943.16943,0.00044
3941.10926,0.00049
3939.04909,0.00071
3936.98892,0.00093
3934.92874,0.00109
3932.86857,0.00106
3930.80840,0.00078
3928.74823,0.00050
3926.68805,0.00044
3924.62788,0.00047
3922.56771,0.00044
3920.50754,0.00043
3918.44737,0.00058
3916.38719,0.00089
3914.32702,0.00119
3912.26685,0.00126
3910.20668,0.00108
3908.14651,0.00074
3906.08633,0.00038
3904.02616,0.00008
3901.96599,0.00003
3899.90582,0.00028
3897.84565,0.00053
3895.78547,0.00056
3893.72530,0.00044
3891.66513,0.00027
3889.60496,0.00029
3887.54478,0.00059
3885.48461,0.00081
3883.42444,0.00059
3881.36427,0.00026
3879.30410,0.00040
3877.24392,0.00083
3875.18375,0.00098
3873.12358,0.00088
3871.06341,0.00095
3869.00324,0.00113
3866.94306,0.00108
3864.88289,0.00090
3862.82272,0.00080
3860.76255,0.00082
3858.70237,0.00089
3856.64220,0.00091
3854.58203,0.00088
3852.52186,0.00105
3850.46169,0.00124
3848.40151,0.00113
3846.34134,0.00074
3844.28117,0.00031
3842.22100,0.00021
3840.16083,0.00045
3838.10065,0.00069
3836.04048,0.00082
3833.98031,0.00108
3831.92014,0.00149
3829.85997,0.00161
3827.79979,0.00130
3825.73962,0.00114
3823.67945,0.00128
3821.61928,0.00112
3819.55910,0.00052
3817.49893,0.00026
3815.43876,0.00059
3813.37859,0.00092
3811.31842,0.00084
3809.25824,0.00065
3807.19807,0.00070
3805.13790,0.00097
3803.07773,0.00109
3801.01756,0.00105
3798.95738,0.00103
3796.89721,0.00099
3794.83704,0.00088
3792.77687,0.00089
3790.71670,0.00085
3788.65652,0.00065
3786.59635,0.00059
3784.53618,0.00078
3782.47601,0.00095
3780.41583,0.00100
3778.35566,0.00108
3776.29549,0.00123
3774.23532,0.00131
3772.17515,0.00124
3770.11497,0.00097
3768.05480,0.00061
3765.99463,0.00049
3763.93446,0.00067
3761.87429,0.00080
3759.81411,0.00072
3757.75394,0.00077
3755.69377,0.00106
3753.63360,0.00124
3751.57342,0.00124
3749.51325,0.00111
3747.45308,0.00095
3745.39291,0.00120
3743.33274,0.00151
3741.27256,0.00114
3739.21239,0.00053
3737.15222,0.00038
3735.09205,0.00064
3733.03188,0.00086
3730.97170,0.00096
3728.91153,0.00098
3726.85136,0.00084
3724.79119,0.00070
3722.73102,0.00092
3720.67084,0.00115
3718.61067,0.00109
3716.55050,0.00103
3714.49033,0.00104
3712.43015,0.00067
3710.36998,0.00011
3708.30981,0.00008
3706.24964,0.00042
3704.18947,0.00076
3702.12929,0.00107
3700.06912,0.00126
3698.00895,0.00126
3695.94878,0.00142
3693.88861,0.00203
3691.82843,0.00293
3689.76826,0.00320
3687.70809,0.00228
3685.64792,0.00128
3683.58775,0.00115
3681.52757,0.00168
3679.46740,0.00233
3677.40723,0.00299
3675.34706,0.00354
3673.28688,0.00343
3671.22671,0.00294
3669.16654,0.00276
3667.10637,0.00294
3665.04620,0.00315
3662.98602,0.00347
3660.92585,0.00399
3658.86568,0.00454
3656.80551,0.00509
3654.74534,0.00552
3652.68516,0.00544
3650.62499,0.00509
3648.56482,0.00517
3646.50465,0.00569
3644.44447,0.00621
3642.38430,0.00664
3640.32413,0.00722
3638.26396,0.00800
3636.20379,0.00861
3634.14361,0.00892
3632.08344,0.00922
3630.02327,0.00962
3627.96310,0.01003
3625.90293,0.01057
3623.84275,0.01120
3621.78258,0.01172
3619.72241,0.01217
3617.66224,0.01279
3615.60207,0.01349
3613.54189,0.01407
3611.48172,0.01456
3609.42155,0.01500
3607.36138,0.01548
3605.30120,0.01612
3603.24103,0.01675
3601.18086,0.01717
3599.12069,0.01746
3597.06052,0.01790
3595.00034,0.01870
3592.94017,0.01960
3590.88000,0.02008
3588.81983,0.02032
3586.75966,0.02099
3584.69948,0.02196
3582.63931,0.02261
3580.57914,0.02295
3578.51897,0.02324
3576.45879,0.02360
3574.39862,0.02423
3572.33845,0.02501
3570.27828,0.02567
3568.21811,0.02617
3566.15793,0.02677
3564.09776,0.02724
3562.03759,0.02737
3559.97742,0.02771
3557.91725,0.02864
3555.85707,0.02965
3553.79690,0.03036
3551.73673,0.03086
3549.67656,0.03132
3547.61639,0.03175
3545.55621,0.03215
3543.49604,0.03268
3541.43587,0.03334
3539.37570,0.03391
3537.31552,0.03436
3535.25535,0.03483
3533.19518,0.03540
3531.13501,0.03619
3529.07484,0.03715
3527.01466,0.03777
3524.95449,0.03795
3522.89432,0.03818
3520.83415,0.03861
3518.77398,0.03919
3516.71380,0.03991
3514.65363,0.04061
3512.59346,0.04108
3510.53329,0.04146
3508.47312,0.04186
3506.41294,0.04209
3504.35277,0.04227
3502.29260,0.04279
3500.23243,0.04341
3498.17225,0.04378
3496.11208,0.04406
3494.05191,0.04450
3491.99174,0.04517
3489.93157,0.04589
3487.87139,0.04652
3485.81122,0.04700
3483.75105,0.04723
3481.69088,0.04740
3479.63071,0.04777
3477.57053,0.04825
3475.51036,0.04884
3473.45019,0.04948
3471.39002,0.04992
3469.32984,0.05041
3467.26967,0.05112
3465.20950,0.05178
3463.14933,0.05223
3461.08916,0.05245
3459.02898,0.05263
3456.96881,0.05287
3454.90864,0.05325
3452.84847,0.05375
3450.78830,0.05429
3448.72812,0.05478
3446.66795,0.05489
3444.60778,0.05483
3442.54761,0.05501
3440.48744,0.05533
3438.42726,0.05605
3436.36709,0.05704
3434.30692,0.05753
3432.24675,0.05752
3430.18657,0.05754
3428.12640,0.05781
3426.06623,0.05821
3424.00606,0.05847
3421.94589,0.05871
3419.88571,0.05935
3417.82554,0.06005
3415.76537,0.06021
3413.70520,0.06013
3411.64503,0.06026
3409.58485,0.06054
3407.52468,0.06072
3405.46451,0.06078
3403.40434,0.06099
3401.34416,0.06135
3399.28399,0.06163
3397.22382,0.06198
3395.16365,0.06239
3393.10348,0.06263
3391.04330,0.06267
3388.98313,0.06283
3386.92296,0.06315
3384.86279,0.06350
3382.80262,0.06388
3380.74244,0.06409
3378.68227,0.06416
3376.62210,0.06429
3374.56193,0.06442
3372.50176,0.06449
3370.44158,0.06461
3368.38141,0.06478
3366.32124,0.06487
3364.26107,0.06495
3362.20089,0.06512
3360.14072,0.06531
3358.08055,0.06522
3356.02038,0.06504
3353.96021,0.06521
3351.90003,0.06557
3349.83986,0.06583
3347.77969,0.06607
3345.71952,0.06629
3343.65935,0.06639
3341.59917,0.06649
3339.53900,0.06659
3337.47883,0.06645
3335.41866,0.06641
3333.35849,0.06675
3331.29831,0.06712
3329.23814,0.06737
3327.17797,0.06761
3325.11780,0.06777
3323.05762,0.06768
3320.99745,0.06745
3318.93728,0.06724
3316.87711,0.06716
3314.81694,0.06740
3312.75676,0.06781
3310.69659,0.06782
3308.63642,0.06739
3306.57625,0.06727
3304.51608,0.06770
3302.45590,0.06808
3300.39573,0.06823
3298.33556,0.06829
3296.27539,0.06819
3294.21521,0.06784
3292.15504,0.06754
3290.09487,0.06757
3288.03470,0.06766
3285.97453,0.06761
3283.91435,0.06760
3281.85418,0.06782
3279.79401,0.06825
3277.73384,0.06864
3275.67367,0.06895
3273.61349,0.06920
3271.55332,0.06927
3269.49315,0.06911
3267.43298,0.06876
3265.37281,0.06835
3263.31263,0.06800
3261.25246,0.06780
3259.19229,0.06786
3257.13212,0.06804
3255.07194,0.06808
3253.01177,0.06835
3250.95160,0.06900
3248.89143,0.06936
3246.83126,0.06901
3244.77108,0.06851
3242.71091,0.06860
3240.65074,0.06893
3238.59057,0.06871
3236.53040,0.06822
3234.47022,0.06805
3232.41005,0.06828
3230.34988,0.06867
3228.28971,0.06867
3226.22954,0.06831
3224.16936,0.06810
3222.10919,0.06813
3220.04902,0.06824
3217.98885,0.06821
3215.92867,0.06791
3213.86850,0.06759
3211.80833,0.06767
3209.74816,0.06791
3207.68799,0.06773
3205.62781,0.06727
3203.56764,0.06713
3201.50747,0.06721
3199.44730,0.06703
3197.38713,0.06677
3195.32695,0.06661
3193.26678,0.06637
3191.20661,0.06607
3189.14644,0.06595
3187.08626,0.06591
3185.02609,0.06572
3182.96592,0.06556
3180.90575,0.06558
3178.84558,0.06552
3176.78540,0.06529
3174.72523,0.06505
3172.66506,0.06493
3170.60489,0.06490
3168.54472,0.06470
3166.48454,0.06431
3164.42437,0.06401
3162.36420,0.06388
3160.30403,0.06374
3158.24386,0.06356
3156.18368,0.06356
3154.12351,0.06366
3152.06334,0.06354
3150.00317,0.06319
3147.94299,0.06278
3145.88282,0.06243
3143.82265,0.06237
3141.76248,0.06245
3139.70231,0.06215
3137.64213,0.06161
3135.58196,0.06126
3133.52179,0.06110
3131.46162,0.06109
3129.40145,0.06101
3127.34127,0.06057
3125.28110,0.06007
3123.22093,0.05988
3121.16076,0.05984
3119.10058,0.05955
3117.04041,0.05901
3114.98024,0.05857
3112.92007,0.05832
3110.85990,0.05800
3108.79972,0.05751
3106.73955,0.05703
3104.67938,0.05682
3102.61921,0.05682
3100.55904,0.05691
3098.49886,0.05686
3096.43869,0.05652
3094.37852,0.05598
3092.31835,0.05537
3090.25818,0.05485
3088.19800,0.05457
3086.13783,0.05453
3084.07766,0.05473
3082.01749,0.05487
3079.95731,0.05459
3077.89714,0.05396
3075.83697,0.05338
3073.77680,0.05305
3071.71663,0.05289
3069.65645,0.05278
3067.59628,0.05258
3065.53611,0.05224
3063.47594,0.05186
3061.41577,0.05166
3059.35559,0.05156
3057.29542,0.05127
3055.23525,0.05074
3053.17508,0.05025
3051.11491,0.05011
3049.05473,0.05018
3046.99456,0.05006
3044.93439,0.04959
3042.87422,0.04892
3040.81404,0.04834
3038.75387,0.04817
3036.69370,0.04815
3034.63353,0.04776
3032.57336,0.04721
3030.51318,0.04696
3028.45301,0.04688
3026.39284,0.04668
3024.33267,0.04649
3022.27250,0.04641
3020.21232,0.04611
3018.15215,0.04547
3016.09198,0.04486
3014.03181,0.04452
3011.97163,0.04422
3009.91146,0.04384
3007.85129,0.04358
3005.79112,0.04349
3003.73095,0.04331
3001.67077,0.04298
2999.61060,0.04282
2997.55043,0.04275
2995.49026,0.04260
2993.43009,0.04254
2991.36991,0.04228
2989.30974,0.04176
2987.24957,0.04140
2985.18940,0.04116
2983.12923,0.04095
2981.06905,0.04091
2979.00888,0.04088
2976.94871,0.04075
2974.88854,0.04050
2972.82836,0.04025
2970.76819,0.04033
2968.70802,0.04062
2966.64785,0.04061
2964.58768,0.04024
2962.52750,0.03995
2960.46733,0.03986
2958.40716,0.03986
2956.34699,0.03988
2954.28682,0.03977
2952.22664,0.03963
2950.16647,0.03967
2948.10630,0.03970
2946.04613,0.03959
2943.98596,0.03943
2941.92578,0.03929
2939.86561,0.03927
2937.80544,0.03940
2935.74527,0.03944
2933.68509,0.03929
2931.62492,0.03912
2929.56475,0.03910
2927.50458,0.03910
2925.44441,0.03883
2923.38423,0.03840
2921.32406,0.03811
2919.26389,0.03796
2917.20372,0.03784
2915.14355,0.03769
2913.08337,0.03751
2911.02320,0.03730
2908.96303,0.03705
2906.90286,0.03670
2904.84268,0.03638
2902.78251,0.03636
2900.72234,0.03653
2898.66217,0.03650
2896.60200,0.03631
2894.54182,0.03628
2892.48165,0.03649
2890.42148,0.03663
2888.36131,0.03647
2886.30114,0.03616
2884.24096,0.03590
2882.18079,0.03564
2880.12062,0.03533
2878.06045,0.03508
2876.00028,0.03509
2873.94010,0.03518
2871.87993,0.03506
2869.81976,0.03489
2867.75959,0.03481
2865.69941,0.03455
2863.63924,0.03410
2861.57907,0.03382
2859.51890,0.03376
2857.45873,0.03361
2855.39855,0.03327
2853.33838,0.03295
2851.27821,0.03281
2849.21804,0.03274
2847.15787,0.03259
2845.09769,0.03233
2843.03752,0.03213
2840.97735,0.03202
2838.91718,0.03199
2836.85700,0.03211
2834.79683,0.03204
2832.73666,0.03161
2830.67649,0.03112
2828.61632,0.03083
2826.55614,0.03071
2824.49597,0.03059
2822.43580,0.03040
2820.37563,0.03011
2818.31546,0.02980
2816.25528,0.02959
2814.19511,0.02957
2812.13494,0.02967
2810.07477,0.02966
2808.01460,0.02947
2805.95442,0.02935
2803.89425,0.02942
2801.83408,0.02922
2799.77391,0.02870
2797.71373,0.02833
2795.65356,0.02826
2793.59339,0.02837
2791.53322,0.02832
2789.47305,0.02801
2787.41287,0.02787
2785.35270,0.02792
2783.29253,0.02789
2781.23236,0.02769
2779.17219,0.02744
2777.11201,0.02735
2775.05184,0.02729
2772.99167,0.02713
2770.93150,0.02698
2768.87133,0.02674
2766.81115,0.02646
2764.75098,0.02647
2762.69081,0.02662
2760.63064,0.02647
2758.57046,0.02616
2756.51029,0.02602
2754.45012,0.02587
2752.38995,0.02563
2750.32978,0.02552
2748.26960,0.02556
2746.20943,0.02555
2744.14926,0.02539
2742.08909,0.02524
2740.02892,0.02511
2737.96874,0.02489
2735.90857,0.02469
2733.84840,0.02458
2731.78823,0.02445
2729.72805,0.02425
2727.66788,0.02416
2725.60771,0.02411
2723.54754,0.02396
2721.48737,0.02381
2719.42719,0.02365
2717.36702,0.02349
2715.30685,0.02329
2713.24668,0.02303
2711.18651,0.02292
2709.12633,0.02296
2707.06616,0.02292
2705.00599,0.02277
2702.94582,0.02254
2700.88565,0.02228
2698.82547,0.02211
2696.76530,0.02198
2694.70513,0.02184
2692.64496,0.02163
2690.58478,0.02135
2688.52461,0.02117
2686.46444,0.02110
2684.40427,0.02095
2682.34410,0.02083
2680.28392,0.02070
2678.22375,0.02038
2676.16358,0.02007
2674.10341,0.02000
2672.04324,0.01999
2669.98306,0.01991
2667.92289,0.01984
2665.86272,0.01979
2663.80255,0.01964
2661.74238,0.01930
2659.68220,0.01904
2657.62203,0.01903
2655.56186,0.01899
2653.50169,0.01869
2651.44151,0.01838
2649.38134,0.01828
2647.32117,0.01821
2645.26100,0.01802
2643.20083,0.01788
2641.14065,0.01783
2639.08048,0.01772
2637.02031,0.01751
2634.96014,0.01727
2632.89997,0.01698
2630.83979,0.01667
2628.77962,0.01649
2626.71945,0.01631
2624.65928,0.01608
2622.59910,0.01589
2620.53893,0.01555
2618.47876,0.01534
2616.41859,0.01566
2614.35842,0.01600
2612.29824,0.01579
2610.23807,0.01539
2608.17790,0.01519
2606.11773,0.01525
2604.05756,0.01542
2601.99738,0.01536
2599.93721,0.01514
2597.87704,0.01496
2595.81687,0.01458
2593.75670,0.01428
2591.69652,0.01455
2589.63635,0.01489
2587.57618,0.01473
2585.51601,0.01438
2583.45583,0.01427
2581.39566,0.01428
2579.33549,0.01413
2577.27532,0.01388
2575.21515,0.01384
2573.15497,0.01387
2571.09480,0.01369
2569.03463,0.01341
2566.97446,0.01327
2564.91429,0.01331
2562.85411,0.01346
2560.79394,0.01377
2558.73377,0.01406
2556.67360,0.01405
2554.61342,0.01399
2552.55325,0.01410
2550.49308,0.01392
2548.43291,0.01338
2546.37274,0.01311
2544.31256,0.01326
2542.25239,0.01362
2540.19222,0.01379
2538.13205,0.01367
2536.07188,0.01346
2534.01170,0.01326
2531.95153,0.01321
2529.89136,0.01333
2527.83119,0.01365
2525.77102,0.01400
2523.71084,0.01384
2521.65067,0.01350
2519.59050,0.01360
2517.53033,0.01373
2515.47015,0.01375
2513.40998,0.01394
2511.34981,0.01410
2509.28964,0.01402
2507.22947,0.01400
2505.16929,0.01428
2503.10912,0.01452
2501.04895,0.01467
2498.98878,0.01499
2496.92861,0.01503
2494.86843,0.01453
2492.80826,0.01411
2490.74809,0.01419
2488.68792,0.01449
2486.62775,0.01462
2484.56757,0.01473
2482.50740,0.01485
2480.44723,0.01463
2478.38706,0.01431
2476.32688,0.01446
2474.26671,0.01490
2472.20654,0.01507
2470.14637,0.01491
2468.08620,0.01477
2466.02602,0.01482
2463.96585,0.01474
2461.90568,0.01447
2459.84551,0.01444
2457.78534,0.01487
2455.72516,0.01536
2453.66499,0.01547
2451.60482,0.01556
2449.54465,0.01592
2447.48447,0.01595
2445.42430,0.01558
2443.36413,0.01529
2441.30396,0.01515
2439.24379,0.01508
2437.18361,0.01519
2435.12344,0.01555
2433.06327,0.01577
2431.00310,0.01569
2428.94293,0.01555
2426.88275,0.01536
2424.82258,0.01517
2422.76241,0.01501
2420.70224,0.01481
2418.64207,0.01487
2416.58189,0.01503
2414.52172,0.01491
2412.46155,0.01489
2410.40138,0.01532
2408.34120,0.01573
2406.28103,0.01564
2404.22086,0.01519
2402.16069,0.01475
2400.10052,0.01459
2398.04034,0.01464
2395.98017,0.01489
2393.92000,0.01506
2391.85983,0.01510
2389.79966,0.01508
2387.73948,0.01507
2385.67931,0.01505
2383.61914,0.01501
2381.55897,0.01484
2379.49880,0.01452
2377.43862,0.01420
2375.37845,0.01405
2373.31828,0.01403
2371.25811,0.01383
2369.19793,0.01348
2367.13776,0.01334
2365.07759,0.01308
2363.01742,0.01230
2360.95725,0.01233
2358.89707,0.01399
2356.83690,0.01539
2354.77673,0.01531
2352.71656,0.01488
2350.65639,0.01509
2348.59621,0.01550
2346.53604,0.01542
2344.47587,0.01504
2342.41570,0.01487
2340.35552,0.01478
2338.29535,0.01475
2336.23518,0.01463
2334.17501,0.01411
2332.11484,0.01364
2330.05466,0.01402
2327.99449,0.01510
2325.93432,0.01577
2323.87415,0.01542
2321.81398,0.01469
2319.75380,0.01425
2317.69363,0.01391
2315.63346,0.01362
2313.57329,0.01369
2311.51312,0.01405
2309.45294,0.01417
2307.39277,0.01392
2305.33260,0.01362
2303.27243,0.01335
2301.21225,0.01307
2299.15208,0.01296
2297.09191,0.01306
2295.03174,0.01322
2292.97157,0.01334
2290.91139,0.01327
2288.85122,0.01293
2286.79105,0.01256
2284.73088,0.01242
2282.67071,0.01258
2280.61053,0.01294
2278.55036,0.01298
2276.49019,0.01226
2274.43002,0.01115
2272.36984,0.01064
2270.30967,0.01117
2268.24950,0.01207
2266.18933,0.01239
2264.12916,0.01204
2262.06898,0.01166
2260.00881,0.01164
2257.94864,0.01173
2255.88847,0.01154
2253.82830,0.01100
2251.76812,0.01044
2249.70795,0.01029
2247.64778,0.01058
2245.58761,0.01065
2243.52744,0.00993
2241.46726,0.00935
2239.40709,0.00983
2237.34692,0.01022
2235.28675,0.00977
2233.22657,0.00946
2231.16640,0.00982
2229.10623,0.00993
2227.04606,0.00919
2224.98589,0.00854
2222.92571,0.00848
2220.86554,0.00840
2218.80537,0.00845
2216.74520,0.00878
2214.68503,0.00834
2212.62485,0.00689
2210.56468,0.00610
2208.50451,0.00699
2206.44434,0.00808
2204.38417,0.00827
2202.32399,0.00866
2200.26382,0.00904
2198.20365,0.00838
2196.14348,0.00755
2194.08330,0.00723
2192.02313,0.00723
2189.96296,0.00747
2187.90279,0.00744
2185.84262,0.00701
2183.78244,0.00643
2181.72227,0.00602
2179.66210,0.00651
2177.60193,0.00761
2175.54176,0.00777
2173.48158,0.00664
2171.42141,0.00546
2169.36124,0.00515
2167.30107,0.00551
2165.24089,0.00591
2163.18072,0.00533
2161.12055,0.00300
2159.06038,0.00153
2157.00021,0.00272
2154.94003,0.00387
2152.87986,0.00419
2150.81969,0.00507
2148.75952,0.00587
2146.69935,0.00539
2144.63917,0.00475
2142.57900,0.00488
2140.51883,0.00490
2138.45866,0.00436
2136.39849,0.00391
2134.33831,0.00430
2132.27814,0.00533
2130.21797,0.00618
2128.15780,0.00651
2126.09762,0.00646
2124.03745,0.00631
2121.97728,0.00633
2119.91711,0.00701
2117.85694,0.00822
2115.79676,0.00867
2113.73659,0.00790
2111.67642,0.00694
2109.61625,0.00609
2107.55608,0.00531
2105.49590,0.00537
2103.43573,0.00613
2101.37556,0.00677
2099.31539,0.00682
2097.25521,0.00598
2095.19504,0.00492
2093.13487,0.00453
2091.07470,0.00471
2089.01453,0.00505
2086.95435,0.00528
2084.89418,0.00555
2082.83401,0.00599
2080.77384,0.00631
2078.71367,0.00639
2076.65349,0.00599
2074.59332,0.00543
2072.53315,0.00521
2070.47298,0.00502
2068.41281,0.00475
2066.35263,0.00479
2064.29246,0.00534
2062.23229,0.00576
2060.17212,0.00596
2058.11194,0.00615
2056.05177,0.00588
2053.99160,0.00523
2051.93143,0.00469
2049.87126,0.00468
2047.81108,0.00504
2045.75091,0.00471
2043.69074,0.00411
2041.63057,0.00460
2039.57040,0.00532
2037.51022,0.00498
2035.45005,0.00378
2033.38988,0.00260
2031.32971,0.00235
2029.26954,0.00300
2027.20936,0.00388
2025.14919,0.00428
2023.08902,0.00424
2021.02885,0.00376
2018.96867,0.00282
2016.90850,0.00271
2014.84833,0.00377
2012.78816,0.00467
2010.72799,0.00456
2008.66781,0.00334
2006.60764,0.00181
2004.54747,0.00098
2002.48730,0.00082
2000.42713,0.00111
1998.36695,0.00174
1996.30678,0.00196
1994.24661,0.00132
1992.18644,0.00059
1990.12626,0.00069
1988.06609,0.00142
1986.00592,0.00200
1983.94575,0.00224
1981.88558,0.00250
1979.82540,0.00246
1977.76523,0.00157
1975.70506,0.00060
1973.64489,0.00082
1971.58472,0.00173
1969.52454,0.00182
1967.46437,0.00191
1965.40420,0.00311
1963.34403,0.00394
1961.28386,0.00343
1959.22368,0.00280
1957.16351,0.00275
1955.10334,0.00275
1953.04317,0.00311
1950.98299,0.00368
1948.92282,0.00332
1946.86265,0.00257
1944.80248,0.00236
1942.74231,0.00255
1940.68213,0.00272
1938.62196,0.00239
1936.56179,0.00187
1934.50162,0.00202
1932.44145,0.00263
1930.38127,0.00288
1928.32110,0.00267
1926.26093,0.00235
1924.20076,0.00230
1922.14059,0.00261
1920.08041,0.00300
1918.02024,0.00326
1915.96007,0.00353
1913.89990,0.00391
1911.83972,0.00380
1909.77955,0.00318
1907.71938,0.00295
1905.65921,0.00322
1903.59904,0.00342
1901.53886,0.00354
1899.47869,0.00357
1897.41852,0.00349
1895.35835,0.00341
1893.29818,0.00317
1891.23800,0.00284
1889.17783,0.00286
1887.11766,0.00321
1885.05749,0.00353
1882.99731,0.00353
1880.93714,0.00322
1878.87697,0.00296
1876.81680,0.00311
1874.75663,0.00350
1872.69645,0.00368
1870.63628,0.00363
1868.57611,0.00359
1866.51594,0.00370
1864.45577,0.00389
1862.39559,0.00398
1860.33542,0.00410
1858.27525,0.00427
1856.21508,0.00419
1854.15491,0.00395
1852.09473,0.00385
1850.03456,0.00378
1847.97439,0.00369
1845.91422,0.00374
1843.85404,0.00385
1841.79387,0.00385
1839.73370,0.00383
1837.67353,0.00392
1835.61336,0.00397
1833.55318,0.00391
1831.49301,0.00395
1829.43284,0.00413
1827.37267,0.00426
1825.31250,0.00433
1823.25232,0.00425
1821.19215,0.00402
1819.13198,0.00394
1817.07181,0.00405
1815.01163,0.00422
1812.95146,0.00441
1810.89129,0.00458
1808.83112,0.00477
1806.77095,0.00495
1804.71077,0.00502
1802.65060,0.00497
1800.59043,0.00493
1798.53026,0.00485
1796.47009,0.00455
1794.40991,0.00419
1792.34974,0.00405
1790.28957,0.00420
1788.22940,0.00443
1786.16923,0.00452
1784.10905,0.00457
1782.04888,0.00474
1779.98871,0.00504
1777.92854,0.00533
1775.86836,0.00546
1773.80819,0.00537
1771.74802,0.00523
1769.68785,0.00529
1767.62768,0.00549
1765.56750,0.00568
1763.50733,0.00577
1761.44716,0.00581
1759.38699,0.00595
1757.32682,0.00614
1755.26664,0.00634
1753.20647,0.00656
1751.14630,0.00665
1749.08613,0.00661
1747.02596,0.00673
1744.96578,0.00712
1742.90561,0.00764
1740.84544,0.00809
1738.78527,0.00831
1736.72509,0.00828
1734.66492,0.00825
1732.60475,0.00848
1730.54458,0.00885
1728.48441,0.00917
1726.42423,0.00944
1724.36406,0.00963
1722.30389,0.00970
1720.24372,0.00968
1718.18355,0.00969
1716.12337,0.01002
1714.06320,0.01063
1712.00303,0.01114
1709.94286,0.01145
1707.88268,0.01172
1705.82251,0.01203
1703.76234,0.01236
1701.70217,0.01265
1699.64200,0.01289
1697.58182,0.01325
1695.52165,0.01381
1693.46148,0.01437
1691.40131,0.01487
1689.34114,0.01546
1687.28096,0.01607
1685.22079,0.01660
1683.16062,0.01716
1681.10045,0.01778
1679.04028,0.01832
1676.98010,0.01873
1674.91993,0.01923
1672.85976,0.01994
1670.79959,0.02081
1668.73941,0.02170
1666.67924,0.02229
1664.61907,0.02254
1662.55890,0.02263
1660.49873,0.02279
1658.43855,0.02306
1656.37838,0.02333
1654.31821,0.02353
1652.25804,0.02363
1650.19787,0.02373
1648.13769,0.02390
1646.07752,0.02403
1644.01735,0.02403
1641.95718,0.02390
1639.89701,0.02367
1637.83683,0.02336
1635.77666,0.02313
1633.71649,0.02314
1631.65632,0.02323
1629.59614,0.02315
1627.53597,0.02285
1625.47580,0.02246
1623.41563,0.02230
1621.35546,0.02251
1619.29528,0.02267
1617.23511,0.02235
1615.17494,0.02180
1613.11477,0.02144
1611.05460,0.02115
1608.99442,0.02081
1606.93425,0.02043
1604.87408,0.02001
1602.81391,0.01958
1600.75373,0.01919
1598.69356,0.01879
1596.63339,0.01830
1594.57322,0.01778
1592.51305,0.01720
1590.45287,0.01659
1588.39270,0.01598
1586.33253,0.01536
1584.27236,0.01477
1582.21219,0.01426
1580.15201,0.01384
1578.09184,0.01338
1576.03167,0.01276
1573.97150,0.01220
1571.91133,0.01181
1569.85115,0.01143
1567.79098,0.01097
1565.73081,0.01046
1563.67064,0.01000
1561.61046,0.00954
1559.55029,0.00880
1557.49012,0.00810
1555.42995,0.00792
1553.36978,0.00782
1551.30960,0.00761
1549.24943,0.00739
1547.18926,0.00703
1545.12909,0.00637
1543.06892,0.00571
1541.00874,0.00552
1538.94857,0.00575
1536.88840,0.00589
1534.82823,0.00580
1532.76805,0.00557
1530.70788,0.00538
1528.64771,0.00518
1526.58754,0.00492
1524.52737,0.00471
1522.46719,0.00456
1520.40702,0.00423
1518.34685,0.00374
1516.28668,0.00343
1514.22651,0.00348
1512.16633,0.00356
1510.10616,0.00350
1508.04599,0.00350
1505.98582,0.00361
1503.92565,0.00358
1501.86547,0.00349
1499.80530,0.00344
1497.74513,0.00345
1495.68496,0.00354
1493.62478,0.00357
1491.56461,0.00331
1489.50444,0.00302
1487.44427,0.00316
1485.38410,0.00354
1483.32392,0.00377
1481.26375,0.00383
1479.20358,0.00387
1477.14341,0.00389
1475.08324,0.00380
1473.02306,0.00376
1470.96289,0.00401
1468.90272,0.00438
1466.84255,0.00467
1464.78238,0.00489
1462.72220,0.00496
1460.66203,0.00481
1458.60186,0.00458
1456.54169,0.00460
1454.48151,0.00495
1452.42134,0.00531
1450.36117,0.00550
1448.30100,0.00546
1446.24083,0.00536
1444.18065,0.00536
1442.12048,0.00538
1440.06031,0.00533
1438.00014,0.00523
1435.93997,0.00522
1433.87979,0.00536
1431.81962,0.00559
1429.75945,0.00585
1427.69928,0.00602
1425.63910,0.00607
1423.57893,0.00613
1421.51876,0.00624
1419.45859,0.00630
1417.39842,0.00643
1415.33824,0.00669
1413.27807,0.00687
1411.21790,0.00687
1409.15773,0.00675
1407.09756,0.00662
1405.03738,0.00653
1402.97721,0.00642
1400.91704,0.00617
1398.85687,0.00580
1396.79670,0.00546
1394.73652,0.00531
1392.67635,0.00532
1390.61618,0.00530
1388.55601,0.00522
1386.49583,0.00524
1384.43566,0.00540
1382.37549,0.00553
1380.31532,0.00564
1378.25515,0.00576
1376.19497,0.00594
1374.13480,0.00613
1372.07463,0.00616
1370.01446,0.00590
1367.95429,0.00551
1365.89411,0.00523
1363.83394,0.00493
1361.77377,0.00463
1359.71360,0.00454
1357.65343,0.00453
1355.59325,0.00438
1353.53308,0.00424
1351.47291,0.00426
1349.41274,0.00437
1347.35256,0.00441
1345.29239,0.00432
1343.23222,0.00411
1341.17205,0.00389
1339.11188,0.00384
1337.05170,0.00394
1334.99153,0.00402
1332.93136,0.00407
1330.87119,0.00414
1328.81102,0.00414
1326.75084,0.00408
1324.69067,0.00403
1322.63050,0.00403
1320.57033,0.00403
1318.51015,0.00403
1316.44998,0.00413
1314.38981,0.00423
1312.32964,0.00421
1310.26947,0.00416
1308.20929,0.00412
1306.14912,0.00411
1304.08895,0.00420
1302.02878,0.00437
1299.96861,0.00453
1297.90843,0.00458
1295.84826,0.00455
1293.78809,0.00461
1291.72792,0.00475
1289.66775,0.00483
1287.60757,0.00488
1285.54740,0.00492
1283.48723,0.00494
1281.42706,0.00498
1279.36688,0.00509
1277.30671,0.00517
1275.24654,0.00514
1273.18637,0.00514
1271.12620,0.00525
1269.06602,0.00530
1267.00585,0.00532
1264.94568,0.00545
1262.88551,0.00560
1260.82534,0.00564
1258.76516,0.00560
1256.70499,0.00558
1254.64482,0.00562
1252.58465,0.00566
1250.52447,0.00553
1248.46430,0.00526
1246.40413,0.00501
1244.34396,0.00491
1242.28379,0.00483
1240.22361,0.00463
1238.16344,0.00444
1236.10327,0.00422
1234.04310,0.00391
1231.98293,0.00368
1229.92275,0.00357
1227.86258,0.00343
1225.80241,0.00316
1223.74224,0.00277
1221.68207,0.00246
1219.62189,0.00227
1217.56172,0.00200
1215.50155,0.00166
1213.44138,0.00149
1211.38120,0.00155
1209.32103,0.00157
1207.26086,0.00135
1205.20069,0.00099
1203.14052,0.00082
1201.08034,0.00098
1199.02017,0.00132
1196.96000,0.00178
1194.89983,0.00222
1192.83966,0.00260
1190.77948,0.00296
1188.71931,0.00343
1186.65914,0.00402
1184.59897,0.00468
1182.53880,0.00552
1180.47862,0.00659
1178.41845,0.00775
1176.35828,0.00889
1174.29811,0.01011
1172.23793,0.01139
1170.17776,0.01257
1168.11759,0.01374
1166.05742,0.01494
1163.99725,0.01606
1161.93707,0.01718
1159.87690,0.01843
1157.81673,0.01969
1155.75656,0.02085
1153.69639,0.02191
1151.63621,0.02296
1149.57604,0.02414
1147.51587,0.02541
1145.45570,0.02661
1143.39552,0.02781
1141.33535,0.02922
1139.27518,0.03084
1137.21501,0.03248
1135.15484,0.03411
1133.09466,0.03573
1131.03449,0.03724
1128.97432,0.03870
1126.91415,0.04017
1124.85398,0.04174
1122.79380,0.04334
1120.73363,0.04492
1118.67346,0.04654
1116.61329,0.04812
1114.55312,0.04984
1112.49294,0.05163
1110.43277,0.05323
1108.37260,0.05474
1106.31243,0.05628
1104.25225,0.05798
1102.19208,0.05982
1100.13191,0.06145
1098.07174,0.06273
1096.01157,0.06397
1093.95139,0.06536
1091.89122,0.06671
1089.83105,0.06785
1087.77088,0.06894
1085.71071,0.07024
1083.65053,0.07152
1081.59036,0.07251
1079.53019,0.07350
1077.47002,0.07455
1075.40985,0.07544
1073.34967,0.07623
1071.28950,0.07683
1069.22933,0.07701
1067.16916,0.07696
1065.10898,0.07692
1063.04881,0.07681
1060.98864,0.07653
1058.92847,0.07602
1056.86830,0.07512
1054.80812,0.07394
1052.74795,0.07268
1050.68778,0.07131
1048.62761,0.06986
1046.56744,0.06856
1044.50726,0.06738
1042.44709,0.06603
1040.38692,0.06435
1038.32675,0.06248
1036.26657,0.06087
1034.20640,0.05958
1032.14623,0.05815
1030.08606,0.05648
1028.02589,0.05484
1025.96571,0.05332
1023.90554,0.05189
1021.84537,0.05063
1019.78520,0.04950
1017.72503,0.04840
1015.66485,0.04739
1013.60468,0.04646
1011.54451,0.04548
1009.48434,0.04458
1007.42417,0.04407
1005.36399,0.04386
1003.30382,0.04386
1001.24365,0.04426
999.18348,0.04509
997.12330,0.04600
995.06313,0.04692
993.00296,0.04810
990.94279,0.04932
988.88262,0.05015
986.82244,0.05076
984.76227,0.05124
982.70210,0.05126
980.64193,0.05074
978.58176,0.04993
976.52158,0.04894
974.46141,0.04754
972.40124,0.04574
970.34107,0.04392
968.28089,0.04215
966.22072,0.04041
964.16055,0.03868
962.10038,0.03683
960.04021,0.03504
957.98003,0.03341
955.91986,0.03195
953.85969,0.03080
951.79952,0.02979
949.73935,0.02876
947.67917,0.02792
945.61900,0.02721
943.55883,0.02648
941.49866,0.02590
939.43849,0.02556
937.37831,0.02531
935.31814,0.02499
933.25797,0.02469
931.19780,0.02456
929.13762,0.02447
927.07745,0.02408
925.01728,0.02361
922.95711,0.02328
920.89694,0.02262
918.83676,0.02172
916.77659,0.02100
914.71642,0.02033
912.65625,0.01977
910.59608,0.01950
908.53590,0.01928
906.47573,0.01884
904.41556,0.01848
902.35539,0.01845
900.29522,0.01842
898.23504,0.01824
896.17487,0.01830
894.11470,0.01883
892.05453,0.01948
889.99435,0.01995
887.93418,0.02031
885.87401,0.02065
883.81384,0.02090
881.75367,0.02118
879.69349,0.02160
877.63332,0.02230
875.57315,0.02315
873.51298,0.02341
871.45281,0.02310
869.39263,0.02309
867.33246,0.02353
865.27229,0.02403
863.21212,0.02447
861.15194,0.02463
859.09177,0.02431
857.03160,0.02360
854.97143,0.02269
852.91126,0.02182
850.85108,0.02110
848.79091,0.02068
846.73074,0.02055
844.67057,0.02032
842.61040,0.01990
840.55022,0.01916
838.49005,0.01809
836.42988,0.01715
834.36971,0.01649
832.30954,0.01592
830.24936,0.01529
828.18919,0.01467
826.12902,0.01442
824.06885,0.01421
822.00867,0.01303
819.94850,0.01147
817.88833,0.01081
815.82816,0.01060
813.76799,0.00996
811.70781,0.00913
809.64764,0.00856
807.58747,0.00836
805.52730,0.00850
803.46713,0.00856
801.40695,0.00830
799.34678,0.00827
797.28661,0.00838
795.22644,0.00815
793.16627,0.00766
791.10609,0.00709
789.04592,0.00684
786.98575,0.00714
784.92558,0.00735
782.86540,0.00672
780.80523,0.00614
778.74506,0.00636
776.68489,0.00652
774.62472,0.00646
772.56454,0.00637
770.50437,0.00600
768.44420,0.00576
766.38403,0.00569
764.32386,0.00522
762.26368,0.00433
760.20351,0.00372
758.14334,0.00381
756.08317,0.00416
754.02299,0.00415
751.96282,0.00395
749.90265,0.00401
747.84248,0.00400
745.78231,0.00356
743.72213,0.00318
741.66196,0.00332
739.60179,0.00381
737.54162,0.00402
735.48145,0.00366
733.42127,0.00331
731.36110,0.00341
729.30093,0.00352
727.24076,0.00316
725.18059,0.00256
723.12041,0.00226
721.06024,0.00241
719.00007,0.00316
716.93990,0.00384
714.87972,0.00397
712.81955,0.00417
710.75938,0.00463
708.69921,0.00476
706.63904,0.00441
704.57886,0.00400
702.51869,0.00366
700.45852,0.00332
698.39835,0.00333
696.33818,0.00373
694.27800,0.00411
692.21783,0.00420
690.15766,0.00393
688.09749,0.00383
686.03731,0.00452
683.97714,0.00554
681.91697,0.00585
679.85680,0.00520
677.79663,0.00410
675.73645,0.00297
673.67628,0.00223
671.61611,0.00199
669.55594,0.00187
667.49577,0.00181
665.43559,0.00213
663.37542,0.00310
661.31525,0.00378
659.25508,0.00366
657.19491,0.00331
655.13473,0.00323
653.07456,0.00324
651.01439,0.00308
648.95422,0.00298
646.89404,0.00308
644.83387,0.00282
642.77370,0.00237
640.71353,0.00300
638.65336,0.00476
636.59318,0.00662
634.53301,0.00771
632.47284,0.00716
630.41267,0.00515
628.35250,0.00326
626.29232,0.00266
624.23215,0.00287
622.17198,0.00246
620.11181,0.00195
618.05164,0.00329
615.99146,0.00511
613.93129,0.00624
611.87112,0.00710
609.81095,0.00609
607.75077,0.00303
605.69060,0.00100
603.63043,0.00030
601.57026,0.00000
599.51009,0.00000
