3996.73391,0.00138
3994.67373,0.00128
3992.61356,0.00097
3990.55339,0.00067
3988.49322,0.00060
3986.43305,0.00069
3984.37287,0.00081
3982.31270,0.00105
3980.25253,0.00136
3978.19236,0.00148
3976.13219,0.00138
3974.07201,0.00134
3972.01184,0.00151
3969.95167,0.00177
3967.89150,0.00190
3965.83133,0.00170
3963.77115,0.00100
3961.71098,0.00024
3959.65081,0.00000
3957.59064,0.00025
3955.53046,0.00060
3953.47029,0.00082
3951.41012,0.00084
3949.34995,0.00074
3947.28978,0.00061
3945.22960,0.00042
3943.16943,0.00028
3941.10926,0.00048
3939.04909,0.00084
3936.98892,0.00106
3934.92874,0.00110
3932.86857,0.00100
3930.80840,0.00089
3928.74823,0.00093
3926.68805,0.00103
3924.62788,0.00105
3922.56771,0.00097
3920.50754,0.00091
3918.44737,0.00095
3916.38719,0.00109
3914.32702,0.00126
3912.26685,0.00128
3910.20668,0.00117
3908.14651,0.00109
3906.08633,0.00097
3904.02616,0.00065
3901.96599,0.00048
3899.90582,0.00079
3897.84565,0.00104
3895.78547,0.00094
3893.72530,0.00075
3891.66513,0.00070
3889.60496,0.00072
3887.54478,0.00080
3885.48461,0.00092
3883.42444,0.00087
3881.36427,0.00068
3879.30410,0.00076
3877.24392,0.00118
3875.18375,0.00138
3873.12358,0.00131
3871.06341,0.00135
3869.00324,0.00148
3866.94306,0.00145
3864.88289,0.00148
3862.82272,0.00158
3860.76255,0.00145
3858.70237,0.00103
3856.64220,0.00050
3854.58203,0.00007
3852.52186,0.00021
3850.46169,0.00075
3848.40151,0.00099
3846.34134,0.00094
3844.28117,0.00111
3842.22100,0.00159
3840.16083,0.00182
3838.10065,0.00144
3836.04048,0.00089
3833.98031,0.00079
3831.92014,0.00109
3829.85997,0.00133
3827.79979,0.00145
3825.73962,0.00176
3823.67945,0.00212
3821.61928,0.00216
3819.55910,0.00201
3817.49893,0.00193
3815.43876,0.00175
3813.37859,0.00142
3811.31842,0.00109
3809.25824,0.00083
3807.19807,0.00081
3805.13790,0.00118
3803.07773,0.00144
3801.01756,0.00117
3798.95738,0.00083
3796.89721,0.00088
3794.83704,0.00128
3792.77687,0.00173
3790.71670,0.00182
3788.65652,0.00152
3786.59635,0.00117
3784.53618,0.00098
3782.47601,0.00102
3780.41583,0.00127
3778.35566,0.00149
3776.29549,0.00156
3774.23532,0.00161
3772.17515,0.00176
3770.11497,0.00181
3768.05480,0.00154
3765.99463,0.00124
3763.93446,0.00105
3761.87429,0.00085
3759.81411,0.00075
3757.75394,0.00101
3755.69377,0.00154
3753.63360,0.00194
3751.57342,0.00199
3749.51325,0.00161
3747.45308,0.00125
3745.39291,0.00150
3743.33274,0.00193
3741.27256,0.00185
3739.21239,0.00166
3737.15222,0.00170
3735.09205,0.00164
3733.03188,0.00127
3730.97170,0.00089
3728.91153,0.00057
3726.85136,0.00026
3724.79119,0.00017
3722.73102,0.00067
3720.67084,0.00151
3718.61067,0.00186
3716.55050,0.00166
3714.49033,0.00114
3712.43015,0.00050
3710.36998,0.00034
3708.30981,0.00066
3706.24964,0.00094
3704.18947,0.00111
3702.12929,0.00138
3700.06912,0.00171
3698.00895,0.00188
3695.94878,0.00198
3693.88861,0.00219
3691.82843,0.00255
3689.76826,0.00257
3687.70809,0.00197
3685.64792,0.00143
3683.58775,0.00143
3681.52757,0.00182
3679.46740,0.00230
3677.40723,0.00266
3675.34706,0.00268
3673.28688,0.00247
3671.22671,0.00251
3669.16654,0.00276
3667.10637,0.00292
3665.04620,0.00300
3662.98602,0.00301
3660.92585,0.00311
3658.86568,0.00364
3656.80551,0.00464
3654.74534,0.00547
3652.68516,0.00547
3650.62499,0.00484
3648.56482,0.00436
3646.50465,0.00454
3644.44447,0.00494
3642.38430,0.00539
3640.32413,0.00604
3638.26396,0.00683
3636.20379,0.00755
3634.14361,0.00810
3632.08344,0.00845
3630.02327,0.00860
3627.96310,0.00868
3625.90293,0.00876
3623.84275,0.00886
3621.78258,0.00902
3619.72241,0.00942
3617.66224,0.01016
3615.60207,0.01104
3613.54189,0.01200
3611.48172,0.01276
3609.42155,0.01309
3607.36138,0.01326
3605.30120,0.01365
3603.24103,0.01417
3601.18086,0.01439
3599.12069,0.01447
3597.06052,0.01487
3595.00034,0.01562
3592.94017,0.01624
3590.88000,0.01661
3588.81983,0.01694
3586.75966,0.01746
3584.69948,0.01812
3582.63931,0.01870
3580.57914,0.01904
3578.51897,0.01926
3576.45879,0.01965
3574.39862,0.02020
3572.33845,0.02069
3570.27828,0.02118
3568.21811,0.02184
3566.15793,0.02259
3564.09776,0.02302
3562.03759,0.02303
3559.97742,0.02308
3557.91725,0.02358
3555.85707,0.02435
3553.79690,0.02499
3551.73673,0.02535
3549.67656,0.02574
3547.61639,0.02650
3545.55621,0.02734
3543.49604,0.02788
3541.43587,0.02814
3539.37570,0.02840
3537.31552,0.02878
3535.25535,0.02904
3533.19518,0.02919
3531.13501,0.02958
3529.07484,0.03030
3527.01466,0.03098
3524.95449,0.03157
3522.89432,0.03230
3520.83415,0.03282
3518.77398,0.03296
3516.71380,0.03320
3514.65363,0.03374
3512.59346,0.03423
3510.53329,0.03461
3508.47312,0.03502
3506.41294,0.03534
3504.35277,0.03567
3502.29260,0.03627
3500.23243,0.03679
3498.17225,0.03696
3496.11208,0.03709
3494.05191,0.03741
3491.99174,0.03795
3489.93157,0.03865
3487.87139,0.03928
3485.81122,0.03946
3483.75105,0.03929
3481.69088,0.03943
3479.63071,0.03999
3477.57053,0.04052
3475.51036,0.04092
3473.45019,0.04127
3471.39002,0.04163
3469.32984,0.04202
3467.26967,0.04241
3465.20950,0.04283
3463.14933,0.04324
3461.08916,0.04354
3459.02898,0.04378
3456.96881,0.04396
3454.90864,0.04417
3452.84847,0.04448
3450.78830,0.04478
3448.72812,0.04516
3446.66795,0.04559
3444.60778,0.04587
3442.54761,0.04612
3440.48744,0.04633
3438.42726,0.04657
3436.36709,0.04690
3434.30692,0.04713
3432.24675,0.04729
3430.18657,0.04747
3428.12640,0.04755
3426.06623,0.04762
3424.00606,0.04804
3421.94589,0.04869
3419.88571,0.04918
3417.82554,0.04954
3415.76537,0.04977
3413.70520,0.04969
3411.64503,0.04958
3409.58485,0.04979
3407.52468,0.05015
3405.46451,0.05030
3403.40434,0.05052
3401.34416,0.05099
3399.28399,0.05120
3397.22382,0.05118
3395.16365,0.05139
3393.10348,0.05174
3391.04330,0.05179
3388.98313,0.05174
3386.92296,0.05204
3384.86279,0.05251
3382.80262,0.05278
3380.74244,0.05286
3378.68227,0.05289
3376.62210,0.05287
3374.56193,0.05274
3372.50176,0.05280
3370.44158,0.05330
3368.38141,0.05369
3366.32124,0.05338
3364.26107,0.05292
3362.20089,0.05290
3360.14072,0.05326
3358.08055,0.05359
3356.02038,0.05364
3353.96021,0.05376
3351.90003,0.05401
3349.83986,0.05397
3347.77969,0.05387
3345.71952,0.05408
3343.65935,0.05430
3341.59917,0.05444
3339.53900,0.05477
3337.47883,0.05508
3335.41866,0.05513
3333.35849,0.05511
3331.29831,0.05519
3329.23814,0.05539
3327.17797,0.05572
3325.11780,0.05606
3323.05762,0.05611
3320.99745,0.05589
3318.93728,0.05553
3316.87711,0.05518
3314.81694,0.05512
3312.75676,0.05547
3310.69659,0.05589
3308.63642,0.05583
3306.57625,0.05543
3304.51608,0.05532
3302.45590,0.05564
3300.39573,0.05598
3298.33556,0.05603
3296.27539,0.05585
3294.21521,0.05559
3292.15504,0.05546
3290.09487,0.05556
3288.03470,0.05569
3285.97453,0.05578
3283.91435,0.05571
3281.85418,0.05541
3279.79401,0.05522
3277.73384,0.05544
3275.67367,0.05588
3273.61349,0.05622
3271.55332,0.05640
3269.49315,0.05656
3267.43298,0.05657
3265.37281,0.05621
3263.31263,0.05560
3261.25246,0.05520
3259.19229,0.05539
3257.13212,0.05572
3255.07194,0.05578
3253.01177,0.05601
3250.95160,0.05639
3248.89143,0.05623
3246.83126,0.05565
3244.77108,0.05531
3242.71091,0.05537
3240.65074,0.05555
3238.59057,0.05561
3236.53040,0.05557
3234.47022,0.05558
3232.41005,0.05570
3230.34988,0.05589
3228.28971,0.05580
3226.22954,0.05539
3224.16936,0.05508
3222.10919,0.05498
3220.04902,0.05509
3217.98885,0.05523
3215.92867,0.05525
3213.86850,0.05524
3211.80833,0.05512
3209.74816,0.05487
3207.68799,0.05457
3205.62781,0.05430
3203.56764,0.05425
3201.50747,0.05443
3199.44730,0.05444
3197.38713,0.05416
3195.32695,0.05387
3193.26678,0.05361
3191.20661,0.05331
3189.14644,0.05309
3187.08626,0.05304
3185.02609,0.05297
3182.96592,0.05282
3180.90575,0.05275
3178.84558,0.05274
3176.78540,0.05268
3174.72523,0.05257
3172.66506,0.05250
3170.60489,0.05237
3168.54472,0.05224
3166.48454,0.05229
3164.42437,0.05225
3162.36420,0.05183
3160.30403,0.05131
3158.24386,0.05104
3156.18368,0.05101
3154.12351,0.05098
3152.06334,0.05075
3150.00317,0.05042
3147.94299,0.05025
3145.88282,0.05020
3143.82265,0.05013
3141.76248,0.05005
3139.70231,0.04999
3137.64213,0.04985
3135.58196,0.04962
3133.52179,0.04932
3131.46162,0.04895
3129.40145,0.04855
3127.34127,0.04809
3125.28110,0.04781
3123.22093,0.04791
3121.16076,0.04811
3119.10058,0.04799
3117.04041,0.04763
3114.98024,0.04736
3112.92007,0.04728
3110.85990,0.04710
3108.79972,0.04653
3106.73955,0.04584
3104.67938,0.04557
3102.61921,0.04562
3100.55904,0.04563
3098.49886,0.04555
3096.43869,0.04538
3094.37852,0.04508
3092.31835,0.04460
3090.25818,0.04418
3088.19800,0.04409
3086.13783,0.04403
3084.07766,0.04378
3082.01749,0.04360
3079.95731,0.04359
3077.89714,0.04350
3075.83697,0.04317
3073.77680,0.04274
3071.71663,0.04249
3069.65645,0.04235
3067.59628,0.04224
3065.53611,0.04226
3063.47594,0.04218
3061.41577,0.04183
3059.35559,0.04146
3057.29542,0.04117
3055.23525,0.04080
3053.17508,0.04035
3051.11491,0.04004
3049.05473,0.03991
3046.99456,0.03992
3044.93439,0.03987
3042.87422,0.03949
3040.81404,0.03895
3038.75387,0.03868
3036.69370,0.03861
3034.63353,0.03846
3032.57336,0.03829
3030.51318,0.03824
3028.45301,0.03812
3026.39284,0.03794
3024.33267,0.03776
3022.27250,0.03753
3020.21232,0.03716
3018.15215,0.03671
3016.09198,0.03634
3014.03181,0.03603
3011.97163,0.03565
3009.91146,0.03529
3007.85129,0.03506
3005.79112,0.03494
3003.73095,0.03493
3001.67077,0.03503
2999.61060,0.03515
2997.55043,0.03505
2995.49026,0.03468
2993.43009,0.03418
2991.36991,0.03371
2989.30974,0.03341
2987.24957,0.03316
2985.18940,0.03289
2983.12923,0.03291
2981.06905,0.03327
2979.00888,0.03339
2976.94871,0.03319
2974.88854,0.03299
2972.82836,0.03295
2970.76819,0.03303
2968.70802,0.03301
2966.64785,0.03280
2964.58768,0.03276
2962.52750,0.03295
2960.46733,0.03300
2958.40716,0.03288
2956.34699,0.03262
2954.28682,0.03225
2952.22664,0.03215
2950.16647,0.03231
2948.10630,0.03233
2946.04613,0.03225
2943.98596,0.03236
2941.92578,0.03252
2939.86561,0.03259
2937.80544,0.03261
2935.74527,0.03251
2933.68509,0.03234
2931.62492,0.03225
2929.56475,0.03234
2927.50458,0.03233
2925.44441,0.03193
2923.38423,0.03143
2921.32406,0.03124
2919.26389,0.03125
2917.20372,0.03130
2915.14355,0.03143
2913.08337,0.03141
2911.02320,0.03103
2908.96303,0.03054
2906.90286,0.03028
2904.84268,0.03022
2902.78251,0.03033
2900.72234,0.03065
2898.66217,0.03093
2896.60200,0.03077
2894.54182,0.03037
2892.48165,0.03027
2890.42148,0.03039
2888.36131,0.03034
2886.30114,0.03024
2884.24096,0.03026
2882.18079,0.03010
2880.12062,0.02967
2878.06045,0.02931
2876.00028,0.02918
2873.94010,0.02919
2871.87993,0.02919
2869.81976,0.02915
2867.75959,0.02907
2865.69941,0.02879
2863.63924,0.02847
2861.57907,0.02832
2859.51890,0.02817
2857.45873,0.02802
2855.39855,0.02787
2853.33838,0.02764
2851.27821,0.02750
2849.21804,0.02756
2847.15787,0.02767
2845.09769,0.02745
2843.03752,0.02699
2840.97735,0.02672
2838.91718,0.02669
2836.85700,0.02670
2834.79683,0.02658
2832.73666,0.02631
2830.67649,0.02609
2828.61632,0.02598
2826.55614,0.02588
2824.49597,0.02583
2822.43580,0.02573
2820.37563,0.02557
2818.31546,0.02541
2816.25528,0.02519
2814.19511,0.02509
2812.13494,0.02514
2810.07477,0.02499
2808.01460,0.02462
2805.95442,0.02440
2803.89425,0.02448
2801.83408,0.02451
2799.77391,0.02437
2797.71373,0.02424
2795.65356,0.02409
2793.59339,0.02399
2791.53322,0.02397
2789.47305,0.02380
2787.41287,0.02349
2785.35270,0.02342
2783.29253,0.02359
2781.23236,0.02364
2779.17219,0.02336
2777.11201,0.02311
2775.05184,0.02312
2772.99167,0.02300
2770.93150,0.02274
2768.87133,0.02255
2766.81115,0.02237
2764.75098,0.02225
2762.69081,0.02214
2760.63064,0.02191
2758.57046,0.02183
2756.51029,0.02186
2754.45012,0.02165
2752.38995,0.02145
2750.32978,0.02158
2748.26960,0.02182
2746.20943,0.02178
2744.14926,0.02143
2742.08909,0.02122
2740.02892,0.02131
2737.96874,0.02122
2735.90857,0.02085
2733.84840,0.02066
2731.78823,0.02071
2729.72805,0.02071
2727.66788,0.02070
2725.60771,0.02071
2723.54754,0.02068
2721.48737,0.02055
2719.42719,0.02019
2717.36702,0.01980
2715.30685,0.01957
2713.24668,0.01944
2711.18651,0.01948
2709.12633,0.01959
2707.06616,0.01948
2705.00599,0.01933
2702.94582,0.01928
2700.88565,0.01911
2698.82547,0.01894
2696.76530,0.01879
2694.70513,0.01848
2692.64496,0.01822
2690.58478,0.01817
2688.52461,0.01821
2686.46444,0.01821
2684.40427,0.01818
2682.34410,0.01805
2680.28392,0.01774
2678.22375,0.01745
2676.16358,0.01749
2674.10341,0.01757
2672.04324,0.01741
2669.98306,0.01721
2667.92289,0.01719
2665.86272,0.01721
2663.80255,0.01700
2661.74238,0.01660
2659.68220,0.01633
2657.62203,0.01639
2655.56186,0.01655
2653.50169,0.01653
2651.44151,0.01633
2649.38134,0.01602
2647.32117,0.01576
2645.26100,0.01572
2643.20083,0.01576
2641.14065,0.01567
2639.08048,0.01563
2637.02031,0.01558
2634.96014,0.01522
2632.89997,0.01480
2630.83979,0.01475
2628.77962,0.01490
2626.71945,0.01485
2624.65928,0.01465
2622.59910,0.01446
2620.53893,0.01421
2618.47876,0.01400
2616.41859,0.01399
2614.35842,0.01392
2612.29824,0.01371
2610.23807,0.01355
2608.17790,0.01343
2606.11773,0.01343
2604.05756,0.01359
2601.99738,0.01354
2599.93721,0.01333
2597.87704,0.01335
2595.81687,0.01335
2593.75670,0.01322
2591.69652,0.01311
2589.63635,0.01294
2587.57618,0.01277
2585.51601,0.01280
2583.45583,0.01289
2581.39566,0.01287
2579.33549,0.01290
2577.27532,0.01313
2575.21515,0.01318
2573.15497,0.01275
2571.09480,0.01226
2569.03463,0.01197
2566.97446,0.01182
2564.91429,0.01188
2562.85411,0.01211
2560.79394,0.01236
2558.73377,0.01262
2556.67360,0.01278
2554.61342,0.01270
2552.55325,0.01264
2550.49308,0.01259
2548.43291,0.01232
2546.37274,0.01196
2544.31256,0.01174
2542.25239,0.01194
2540.19222,0.01240
2538.13205,0.01260
2536.07188,0.01240
2534.01170,0.01207
2531.95153,0.01186
2529.89136,0.01194
2527.83119,0.01244
2525.77102,0.01296
2523.71084,0.01302
2521.65067,0.01274
2519.59050,0.01256
2517.53033,0.01243
2515.47015,0.01223
2513.40998,0.01247
2511.34981,0.01300
2509.28964,0.01311
2507.22947,0.01299
2505.16929,0.01307
2503.10912,0.01321
2501.04895,0.01332
2498.98878,0.01330
2496.92861,0.01303
2494.86843,0.01272
2492.80826,0.01273
2490.74809,0.01294
2488.68792,0.01295
2486.62775,0.01297
2484.56757,0.01330
2482.50740,0.01354
2480.44723,0.01333
2478.38706,0.01302
2476.32688,0.01300
2474.26671,0.01316
2472.20654,0.01320
2470.14637,0.01327
2468.08620,0.01358
2466.02602,0.01384
2463.96585,0.01383
2461.90568,0.01357
2459.84551,0.01341
2457.78534,0.01389
2455.72516,0.01447
2453.66499,0.01423
2451.60482,0.01374
2449.54465,0.01370
2447.48447,0.01369
2445.42430,0.01370
2443.36413,0.01383
2441.30396,0.01384
2439.24379,0.01371
2437.18361,0.01379
2435.12344,0.01419
2433.06327,0.01454
2431.00310,0.01462
2428.94293,0.01445
2426.88275,0.01410
2424.82258,0.01395
2422.76241,0.01385
2420.70224,0.01368
2418.64207,0.01378
2416.58189,0.01400
2414.52172,0.01403
2412.46155,0.01398
2410.40138,0.01411
2408.34120,0.01415
2406.28103,0.01378
2404.22086,0.01345
2402.16069,0.01349
2400.10052,0.01365
2398.04034,0.01350
2395.98017,0.01357
2393.92000,0.01376
2391.85983,0.01375
2389.79966,0.01363
2387.73948,0.01372
2385.67931,0.01395
2383.61914,0.01394
2381.55897,0.01357
2379.49880,0.01328
2377.43862,0.01344
2375.37845,0.01372
2373.31828,0.01409
2371.25811,0.01426
2369.19793,0.01409
2367.13776,0.01448
2365.07759,0.01518
2363.01742,0.01508
2360.95725,0.01603
2358.89707,0.01576
2356.83690,0.01411
2354.77673,0.01296
2352.71656,0.01328
2350.65639,0.01550
2348.59621,0.01663
2346.53604,0.01367
2344.47587,0.01255
2342.41570,0.01298
2340.35552,0.01364
2338.29535,0.01426
2336.23518,0.01408
2334.17501,0.01322
2332.11484,0.01233
2330.05466,0.01260
2327.99449,0.01350
2325.93432,0.01466
2323.87415,0.01477
2321.81398,0.01438
2319.75380,0.01330
2317.69363,0.01268
2315.63346,0.01234
2313.57329,0.01237
2311.51312,0.01257
2309.45294,0.01243
2307.39277,0.01222
2305.33260,0.01228
2303.27243,0.01238
2301.21225,0.01223
2299.15208,0.01222
2297.09191,0.01231
2295.03174,0.01233
2292.97157,0.01242
2290.91139,0.01250
2288.85122,0.01246
2286.79105,0.01246
2284.73088,0.01260
2282.67071,0.01266
2280.61053,0.01261
2278.55036,0.01235
2276.49019,0.01143
2274.43002,0.01012
2272.36984,0.00946
2270.30967,0.01006
2268.24950,0.01140
2266.18933,0.01225
2264.12916,0.01208
2262.06898,0.01175
2260.00881,0.01178
2257.94864,0.01178
2255.88847,0.01127
2253.82830,0.01038
2251.76812,0.00980
2249.70795,0.00971
2247.64778,0.00973
2245.58761,0.00996
2243.52744,0.01022
2241.46726,0.00979
2239.40709,0.00926
2237.34692,0.00913
2235.28675,0.00906
2233.22657,0.00931
2231.16640,0.00984
2229.10623,0.00993
2227.04606,0.00914
2224.98589,0.00800
2222.92571,0.00787
2220.86554,0.00825
2218.80537,0.00807
2216.74520,0.00816
2214.68503,0.00841
2212.62485,0.00792
2210.56468,0.00774
2208.50451,0.00866
2206.44434,0.00927
2204.38417,0.00881
2202.32399,0.00841
2200.26382,0.00870
2198.20365,0.00869
2196.14348,0.00785
2194.08330,0.00687
2192.02313,0.00671
2189.96296,0.00733
2187.90279,0.00759
2185.84262,0.00752
2183.78244,0.00753
2181.72227,0.00756
2179.66210,0.00782
2177.60193,0.00811
2175.54176,0.00802
2173.48158,0.00737
2171.42141,0.00721
2169.36124,0.00812
2167.30107,0.00832
2165.24089,0.00708
2163.18072,0.00555
2161.12055,0.00380
2159.06038,0.00241
2157.00021,0.00271
2154.94003,0.00348
2152.87986,0.00382
2150.81969,0.00462
2148.75952,0.00571
2146.69935,0.00584
2144.63917,0.00524
2142.57900,0.00510
2140.51883,0.00545
2138.45866,0.00544
2136.39849,0.00479
2134.33831,0.00463
2132.27814,0.00549
2130.21797,0.00648
2128.15780,0.00701
2126.09762,0.00693
2124.03745,0.00655
2121.97728,0.00651
2119.91711,0.00677
2117.85694,0.00698
2115.79676,0.00719
2113.73659,0.00741
2111.67642,0.00718
2109.61625,0.00658
2107.55608,0.00615
2105.49590,0.00580
2103.43573,0.00572
2101.37556,0.00613
2099.31539,0.00650
2097.25521,0.00612
2095.19504,0.00530
2093.13487,0.00501
2091.07470,0.00545
2089.01453,0.00603
2086.95435,0.00645
2084.89418,0.00685
2082.83401,0.00683
2080.77384,0.00629
2078.71367,0.00595
2076.65349,0.00596
2074.59332,0.00624
2072.53315,0.00673
2070.47298,0.00674
2068.41281,0.00595
2066.35263,0.00509
2064.29246,0.00494
2062.23229,0.00545
2060.17212,0.00632
2058.11194,0.00690
2056.05177,0.00657
2053.99160,0.00625
2051.93143,0.00620
2049.87126,0.00588
2047.81108,0.00556
2045.75091,0.00452
2043.69074,0.00345
2041.63057,0.00418
2039.57040,0.00523
2037.51022,0.00482
2035.45005,0.00380
2033.38988,0.00303
2031.32971,0.00273
2029.26954,0.00310
2027.20936,0.00373
2025.14919,0.00395
2023.08902,0.00442
2021.02885,0.00542
2018.96867,0.00578
2016.90850,0.00523
2014.84833,0.00421
2012.78816,0.00299
2010.72799,0.00214
2008.66781,0.00221
2006.60764,0.00330
2004.54747,0.00429
2002.48730,0.00425
2000.42713,0.00389
1998.36695,0.00369
1996.30678,0.00329
1994.24661,0.00262
1992.18644,0.00182
1990.12626,0.00140
1988.06609,0.00214
1986.00592,0.00404
1983.94575,0.00580
1981.88558,0.00671
1979.82540,0.00667
1977.76523,0.00543
1975.70506,0.00414
1973.64489,0.00421
1971.58472,0.00486
1969.52454,0.00498
1967.46437,0.00509
1965.40420,0.00569
1963.34403,0.00593
1961.28386,0.00510
1959.22368,0.00415
1957.16351,0.00418
1955.10334,0.00436
1953.04317,0.00409
1950.98299,0.00367
1948.92282,0.00330
1946.86265,0.00356
1944.80248,0.00430
1942.74231,0.00461
1940.68213,0.00435
1938.62196,0.00403
1936.56179,0.00369
1934.50162,0.00334
1932.44145,0.00346
1930.38127,0.00382
1928.32110,0.00358
1926.26093,0.00313
1924.20076,0.00318
1922.14059,0.00342
1920.08041,0.00350
1918.02024,0.00368
1915.96007,0.00424
1913.89990,0.00483
1911.83972,0.00484
1909.77955,0.00447
1907.71938,0.00447
1905.65921,0.00451
1903.59904,0.00423
1901.53886,0.00407
1899.47869,0.00412
1897.41852,0.00420
1895.35835,0.00438
1893.29818,0.00432
1891.23800,0.00382
1889.17783,0.00351
1887.11766,0.00373
1885.05749,0.00415
1882.99731,0.00436
1880.93714,0.00428
1878.87697,0.00438
1876.81680,0.00479
1874.75663,0.00499
1872.69645,0.00485
1870.63628,0.00465
1868.57611,0.00470
1866.51594,0.00507
1864.45577,0.00524
1862.39559,0.00497
1860.33542,0.00475
1858.27525,0.00481
1856.21508,0.00483
1854.15491,0.00473
1852.09473,0.00472
1850.03456,0.00491
1847.97439,0.00512
1845.91422,0.00516
1843.85404,0.00505
1841.79387,0.00491
1839.73370,0.00487
1837.67353,0.00500
1835.61336,0.00514
1833.55318,0.00512
1831.49301,0.00500
1829.43284,0.00489
1827.37267,0.00481
1825.31250,0.00486
1823.25232,0.00499
1821.19215,0.00501
1819.13198,0.00491
1817.07181,0.00491
1815.01163,0.00508
1812.95146,0.00527
1810.89129,0.00540
1808.83112,0.00554
1806.77095,0.00574
1804.71077,0.00593
1802.65060,0.00595
1800.59043,0.00577
1798.53026,0.00557
1796.47009,0.00551
1794.40991,0.00555
1792.34974,0.00557
1790.28957,0.00538
1788.22940,0.00512
1786.16923,0.00509
1784.10905,0.00529
1782.04888,0.00552
1779.98871,0.00573
1777.92854,0.00592
1775.86836,0.00608
1773.80819,0.00616
1771.74802,0.00617
1769.68785,0.00615
1767.62768,0.00612
1765.56750,0.00614
1763.50733,0.00633
1761.44716,0.00669
1759.38699,0.00702
1757.32682,0.00714
1755.26664,0.00708
1753.20647,0.00703
1751.14630,0.00707
1749.08613,0.00718
1747.02596,0.00740
1744.96578,0.00770
1742.90561,0.00802
1740.84544,0.00831
1738.78527,0.00846
1736.72509,0.00850
1734.66492,0.00855
1732.60475,0.00867
1730.54458,0.00882
1728.48441,0.00887
1726.42423,0.00895
1724.36406,0.00920
1722.30389,0.00950
1720.24372,0.00968
1718.18355,0.00980
1716.12337,0.00998
1714.06320,0.01024
1712.00303,0.01052
1709.94286,0.01083
1707.88268,0.01116
1705.82251,0.01150
1703.76234,0.01182
1701.70217,0.01213
1699.64200,0.01225
1697.58182,0.01229
1695.52165,0.01262
1693.46148,0.01307
1691.40131,0.01341
1689.34114,0.01379
1687.28096,0.01438
1685.22079,0.01508
1683.16062,0.01570
1681.10045,0.01609
1679.04028,0.01632
1676.98010,0.01651
1674.91993,0.01689
1672.85976,0.01743
1670.79959,0.01799
1668.73941,0.01860
1666.67924,0.01920
1664.61907,0.01967
1662.55890,0.02001
1660.49873,0.02027
1658.43855,0.02044
1656.37838,0.02052
1654.31821,0.02060
1652.25804,0.02079
1650.19787,0.02107
1648.13769,0.02128
1646.07752,0.02126
1644.01735,0.02108
1641.95718,0.02099
1639.89701,0.02114
1637.83683,0.02140
1635.77666,0.02134
1633.71649,0.02083
1631.65632,0.02042
1629.59614,0.02030
1627.53597,0.02026
1625.47580,0.02013
1623.41563,0.02000
1621.35546,0.01999
1619.29528,0.01994
1617.23511,0.01964
1615.17494,0.01926
1613.11477,0.01906
1611.05460,0.01900
1608.99442,0.01891
1606.93425,0.01866
1604.87408,0.01826
1602.81391,0.01781
1600.75373,0.01743
1598.69356,0.01719
1596.63339,0.01695
1594.57322,0.01654
1592.51305,0.01597
1590.45287,0.01532
1588.39270,0.01461
1586.33253,0.01400
1584.27236,0.01355
1582.21219,0.01308
1580.15201,0.01257
1578.09184,0.01217
1576.03167,0.01187
1573.97150,0.01155
1571.91133,0.01132
1569.85115,0.01103
1567.79098,0.01046
1565.73081,0.00982
1563.67064,0.00939
1561.61046,0.00908
1559.55029,0.00870
1557.49012,0.00837
1555.42995,0.00820
1553.36978,0.00791
1551.30960,0.00752
1549.24943,0.00723
1547.18926,0.00699
1545.12909,0.00671
1543.06892,0.00639
1541.00874,0.00608
1538.94857,0.00583
1536.88840,0.00567
1534.82823,0.00547
1532.76805,0.00531
1530.70788,0.00534
1528.64771,0.00543
1526.58754,0.00538
1524.52737,0.00520
1522.46719,0.00501
1520.40702,0.00475
1518.34685,0.00447
1516.28668,0.00426
1514.22651,0.00416
1512.16633,0.00418
1510.10616,0.00436
1508.04599,0.00460
1505.98582,0.00444
1503.92565,0.00389
1501.86547,0.00351
1499.80530,0.00348
1497.74513,0.00363
1495.68496,0.00369
1493.62478,0.00355
1491.56461,0.00338
1489.50444,0.00335
1487.44427,0.00347
1485.38410,0.00369
1483.32392,0.00395
1481.26375,0.00417
1479.20358,0.00432
1477.14341,0.00438
1475.08324,0.00425
1473.02306,0.00409
1470.96289,0.00421
1468.90272,0.00458
1466.84255,0.00496
1464.78238,0.00521
1462.72220,0.00526
1460.66203,0.00522
1458.60186,0.00517
1456.54169,0.00516
1454.48151,0.00529
1452.42134,0.00549
1450.36117,0.00560
1448.30100,0.00558
1446.24083,0.00555
1444.18065,0.00564
1442.12048,0.00574
1440.06031,0.00578
1438.00014,0.00584
1435.93997,0.00591
1433.87979,0.00594
1431.81962,0.00600
1429.75945,0.00619
1427.69928,0.00645
1425.63910,0.00665
1423.57893,0.00682
1421.51876,0.00697
1419.45859,0.00707
1417.39842,0.00720
1415.33824,0.00737
1413.27807,0.00747
1411.21790,0.00745
1409.15773,0.00733
1407.09756,0.00725
1405.03738,0.00729
1402.97721,0.00731
1400.91704,0.00724
1398.85687,0.00716
1396.79670,0.00698
1394.73652,0.00670
1392.67635,0.00647
1390.61618,0.00635
1388.55601,0.00633
1386.49583,0.00645
1384.43566,0.00659
1382.37549,0.00667
1380.31532,0.00671
1378.25515,0.00674
1376.19497,0.00682
1374.13480,0.00697
1372.07463,0.00707
1370.01446,0.00695
1367.95429,0.00671
1365.89411,0.00654
1363.83394,0.00640
1361.77377,0.00629
1359.71360,0.00623
1357.65343,0.00611
1355.59325,0.00590
1353.53308,0.00566
1351.47291,0.00552
1349.41274,0.00553
1347.35256,0.00553
1345.29239,0.00537
1343.23222,0.00503
1341.17205,0.00471
1339.11188,0.00463
1337.05170,0.00474
1334.99153,0.00481
1332.93136,0.00483
1330.87119,0.00486
1328.81102,0.00491
1326.75084,0.00499
1324.69067,0.00504
1322.63050,0.00500
1320.57033,0.00489
1318.51015,0.00478
1316.44998,0.00474
1314.38981,0.00469
1312.32964,0.00456
1310.26947,0.00442
1308.20929,0.00436
1306.14912,0.00446
1304.08895,0.00469
1302.02878,0.00493
1299.96861,0.00508
1297.90843,0.00515
1295.84826,0.00511
1293.78809,0.00506
1291.72792,0.00500
1289.66775,0.00485
1287.60757,0.00478
1285.54740,0.00497
1283.48723,0.00519
1281.42706,0.00526
1279.36688,0.00533
1277.30671,0.00541
1275.24654,0.00531
1273.18637,0.00517
1271.12620,0.00526
1269.06602,0.00544
1267.00585,0.00553
1264.94568,0.00560
1262.88551,0.00567
1260.82534,0.00574
1258.76516,0.00582
1256.70499,0.00580
1254.64482,0.00573
1252.58465,0.00571
1250.52447,0.00559
1248.46430,0.00528
1246.40413,0.00504
1244.34396,0.00503
1242.28379,0.00497
1240.22361,0.00476
1238.16344,0.00458
1236.10327,0.00441
1234.04310,0.00420
1231.98293,0.00404
1229.92275,0.00391
1227.86258,0.00379
1225.80241,0.00365
1223.74224,0.00337
1221.68207,0.00303
1219.62189,0.00287
1217.56172,0.00284
1215.50155,0.00268
1213.44138,0.00243
1211.38120,0.00225
1209.32103,0.00216
1207.26086,0.00205
1205.20069,0.00196
1203.14052,0.00206
1201.08034,0.00230
1199.02017,0.00259
1196.96000,0.00300
1194.89983,0.00347
1192.83966,0.00390
1190.77948,0.00436
1188.71931,0.00494
1186.65914,0.00559
1184.59897,0.00629
1182.53880,0.00720
1180.47862,0.00838
1178.41845,0.00961
1176.35828,0.01086
1174.29811,0.01225
1172.23793,0.01361
1170.17776,0.01488
1168.11759,0.01625
1166.05742,0.01764
1163.99725,0.01887
1161.93707,0.02007
1159.87690,0.02139
1157.81673,0.02278
1155.75656,0.02409
1153.69639,0.02532
1151.63621,0.02648
1149.57604,0.02756
1147.51587,0.02856
1145.45570,0.02941
1143.39552,0.03025
1141.33535,0.03126
1139.27518,0.03224
1137.21501,0.03314
1135.15484,0.03422
1133.09466,0.03540
1131.03449,0.03643
1128.97432,0.03746
1126.91415,0.03864
1124.85398,0.03972
1122.79380,0.04061
1120.73363,0.04162
1118.67346,0.04281
1116.61329,0.04397
1114.55312,0.04523
1112.49294,0.04671
1110.43277,0.04809
1108.37260,0.04927
1106.31243,0.05044
1104.25225,0.05190
1102.19208,0.05357
1100.13191,0.05504
1098.07174,0.05626
1096.01157,0.05737
1093.95139,0.05852
1091.89122,0.05976
1089.83105,0.06092
1087.77088,0.06198
1085.71071,0.06304
1083.65053,0.06413
1081.59036,0.06520
1079.53019,0.06613
1077.47002,0.06685
1075.40985,0.06742
1073.34967,0.06796
1071.28950,0.06842
1069.22933,0.06869
1067.16916,0.06874
1065.10898,0.06855
1063.04881,0.06825
1060.98864,0.06779
1058.92847,0.06702
1056.86830,0.06605
1054.80812,0.06520
1052.74795,0.06452
1050.68778,0.06372
1048.62761,0.06263
1046.56744,0.06138
1044.50726,0.06019
1042.44709,0.05907
1040.38692,0.05785
1038.32675,0.05662
1036.26657,0.05562
1034.20640,0.05465
1032.14623,0.05331
1030.08606,0.05177
1028.02589,0.05044
1025.96571,0.04914
1023.90554,0.04782
1021.84537,0.04682
1019.78520,0.04599
1017.72503,0.04505
1015.66485,0.04411
1013.60468,0.04328
1011.54451,0.04242
1009.48434,0.04149
1007.42417,0.04079
1005.36399,0.04046
1003.30382,0.04042
1001.24365,0.04073
999.18348,0.04121
997.12330,0.04170
995.06313,0.04231
993.00296,0.04306
990.94279,0.04374
988.88262,0.04423
986.82244,0.04466
984.76227,0.04501
982.70210,0.04511
980.64193,0.04483
978.58176,0.04420
976.52158,0.04315
974.46141,0.04169
972.40124,0.04010
970.34107,0.03876
968.28089,0.03760
966.22072,0.03632
964.16055,0.03500
962.10038,0.03371
960.04021,0.03229
957.98003,0.03092
955.91986,0.03001
953.85969,0.02946
951.79952,0.02893
949.73935,0.02833
947.67917,0.02772
945.61900,0.02730
943.55883,0.02695
941.49866,0.02644
939.43849,0.02590
937.37831,0.02541
935.31814,0.02499
933.25797,0.02471
931.19780,0.02448
929.13762,0.02430
927.07745,0.02399
925.01728,0.02344
922.95711,0.02288
920.89694,0.02235
918.83676,0.02166
916.77659,0.02083
914.71642,0.02019
912.65625,0.01986
910.59608,0.01954
908.53590,0.01893
906.47573,0.01832
904.41556,0.01808
902.35539,0.01807
900.29522,0.01810
898.23504,0.01798
896.17487,0.01772
894.11470,0.01776
892.05453,0.01818
889.99435,0.01862
887.93418,0.01908
885.87401,0.01952
883.81384,0.01979
881.75367,0.02016
879.69349,0.02068
877.63332,0.02123
875.57315,0.02197
873.51298,0.02260
871.45281,0.02302
869.39263,0.02367
867.33246,0.02444
865.27229,0.02498
863.21212,0.02520
861.15194,0.02522
859.09177,0.02510
857.03160,0.02475
854.97143,0.02404
852.91126,0.02313
850.85108,0.02240
848.79091,0.02202
846.73074,0.02164
844.67057,0.02108
842.61040,0.02048
840.55022,0.01957
838.49005,0.01836
836.42988,0.01743
834.36971,0.01717
832.30954,0.01703
830.24936,0.01616
828.18919,0.01496
826.12902,0.01456
824.06885,0.01480
822.00867,0.01455
819.94850,0.01387
817.88833,0.01326
815.82816,0.01254
813.76799,0.01190
811.70781,0.01154
809.64764,0.01100
807.58747,0.01041
805.52730,0.01009
803.46713,0.00945
801.40695,0.00864
799.34678,0.00872
797.28661,0.00939
795.22644,0.00973
793.16627,0.00935
791.10609,0.00856
789.04592,0.00819
786.98575,0.00838
784.92558,0.00882
782.86540,0.00894
780.80523,0.00867
778.74506,0.00845
776.68489,0.00835
774.62472,0.00852
772.56454,0.00865
770.50437,0.00832
768.44420,0.00804
766.38403,0.00789
764.32386,0.00743
762.26368,0.00681
760.20351,0.00647
758.14334,0.00647
756.08317,0.00637
754.02299,0.00626
751.96282,0.00636
749.90265,0.00625
747.84248,0.00590
745.78231,0.00565
743.72213,0.00543
741.66196,0.00522
739.60179,0.00532
737.54162,0.00543
735.48145,0.00525
733.42127,0.00506
731.36110,0.00507
729.30093,0.00504
727.24076,0.00477
725.18059,0.00438
723.12041,0.00472
721.06024,0.00527
719.00007,0.00642
716.93990,0.00693
714.87972,0.00644
712.81955,0.00581
710.75938,0.00568
708.69921,0.00586
706.63904,0.00594
704.57886,0.00594
702.51869,0.00598
700.45852,0.00619
698.39835,0.00665
696.33818,0.00707
694.27800,0.00702
692.21783,0.00641
690.15766,0.00577
688.09749,0.00610
686.03731,0.00736
683.97714,0.00824
681.91697,0.00838
679.85680,0.00863
677.79663,0.00893
675.73645,0.00826
673.67628,0.00727
671.61611,0.00736
669.55594,0.00504
667.49577,0.00300
665.43559,0.00910
663.37542,0.00866
661.31525,0.00657
659.25508,0.00490
657.19491,0.00401
655.13473,0.00468
653.07456,0.00611
651.01439,0.00675
648.95422,0.00613
646.89404,0.00513
644.83387,0.00457
642.77370,0.00527
640.71353,0.00674
638.65336,0.00786
636.59318,0.00814
634.53301,0.00792
632.47284,0.00731
630.41267,0.00622
628.35250,0.00515
626.29232,0.00475
624.23215,0.00460
622.17198,0.00385
620.11181,0.00288
618.05164,0.00238
615.99146,0.00253
613.93129,0.00406
611.87112,0.00580
609.81095,0.00622
607.75077,0.00484
605.69060,0.00236
603.63043,0.00063
601.57026,0.00000
599.51009,0.00000
