3996.73391,0.00056
3994.67373,0.00042
3992.61356,0.00028
3990.55339,0.00015
3988.49322,0.00000
3986.43305,0.00012
3984.37287,0.00047
3982.31270,0.00051
3980.25253,0.00031
3978.19236,0.00032
3976.13219,0.00056
3974.07201,0.00069
3972.01184,0.00062
3969.95167,0.00054
3967.89150,0.00049
3965.83133,0.00036
3963.77115,0.00038
3961.71098,0.00068
3959.65081,0.00082
3957.59064,0.00059
3955.53046,0.00046
3953.47029,0.00063
3951.41012,0.00080
3949.34995,0.00081
3947.28978,0.00080
3945.22960,0.00065
3943.16943,0.00045
3941.10926,0.00068
3939.04909,0.00118
3936.98892,0.00129
3934.92874,0.00108
3932.86857,0.00105
3930.80840,0.00106
3928.74823,0.00079
3926.68805,0.00047
3924.62788,0.00040
3922.56771,0.00056
3920.50754,0.00073
3918.44737,0.00068
3916.38719,0.00043
3914.32702,0.00028
3912.26685,0.00039
3910.20668,0.00056
3908.14651,0.00057
3906.08633,0.00044
3904.02616,0.00035
3901.96599,0.00051
3899.90582,0.00074
3897.84565,0.00072
3895.78547,0.00043
3893.72530,0.00006
3891.66513,0.00002
3889.60496,0.00056
3887.54478,0.00123
3885.48461,0.00155
3883.42444,0.00160
3881.36427,0.00170
3879.30410,0.00189
3877.24392,0.00187
3875.18375,0.00156
3873.12358,0.00119
3871.06341,0.00083
3869.00324,0.00053
3866.94306,0.00036
3864.88289,0.00039
3862.82272,0.00082
3860.76255,0.00139
3858.70237,0.00172
3856.64220,0.00193
3854.58203,0.00214
3852.52186,0.00202
3850.46169,0.00161
3848.40151,0.00123
3846.34134,0.00086
3844.28117,0.00056
3842.22100,0.00048
3840.16083,0.00053
3838.10065,0.00081
3836.04048,0.00121
3833.98031,0.00109
3831.92014,0.00061
3829.85997,0.00048
3827.79979,0.00077
3825.73962,0.00122
3823.67945,0.00161
3821.61928,0.00164
3819.55910,0.00122
3817.49893,0.00084
3815.43876,0.00074
3813.37859,0.00082
3811.31842,0.00104
3809.25824,0.00135
3807.19807,0.00168
3805.13790,0.00191
3803.07773,0.00193
3801.01756,0.00160
3798.95738,0.00110
3796.89721,0.00081
3794.83704,0.00072
3792.77687,0.00084
3790.71670,0.00116
3788.65652,0.00141
3786.59635,0.00126
3784.53618,0.00100
3782.47601,0.00110
3780.41583,0.00126
3778.35566,0.00103
3776.29549,0.00063
3774.23532,0.00031
3772.17515,0.00004
3770.11497,0.00017
3768.05480,0.00090
3765.99463,0.00160
3763.93446,0.00176
3761.87429,0.00165
3759.81411,0.00159
3757.75394,0.00144
3755.69377,0.00121
3753.63360,0.00116
3751.57342,0.00122
3749.51325,0.00127
3747.45308,0.00153
3745.39291,0.00208
3743.33274,0.00217
3741.27256,0.00159
3739.21239,0.00105
3737.15222,0.00082
3735.09205,0.00065
3733.03188,0.00033
3730.97170,0.00018
3728.91153,0.00039
3726.85136,0.00072
3724.79119,0.00085
3722.73102,0.00085
3720.67084,0.00092
3718.61067,0.00095
3716.55050,0.00090
3714.49033,0.00084
3712.43015,0.00093
3710.36998,0.00132
3708.30981,0.00183
3706.24964,0.00214
3704.18947,0.00198
3702.12929,0.00153
3700.06912,0.00111
3698.00895,0.00097
3695.94878,0.00144
3693.88861,0.00222
3691.82843,0.00245
3689.76826,0.00206
3687.70809,0.00176
3685.64792,0.00159
3683.58775,0.00136
3681.52757,0.00110
3679.46740,0.00089
3677.40723,0.00082
3675.34706,0.00099
3673.28688,0.00129
3671.22671,0.00146
3669.16654,0.00158
3667.10637,0.00182
3665.04620,0.00207
3662.98602,0.00223
3660.92585,0.00244
3658.86568,0.00270
3656.80551,0.00278
3654.74534,0.00275
3652.68516,0.00273
3650.62499,0.00282
3648.56482,0.00307
3646.50465,0.00323
3644.44447,0.00339
3642.38430,0.00378
3640.32413,0.00441
3638.26396,0.00502
3636.20379,0.00514
3634.14361,0.00483
3632.08344,0.00478
3630.02327,0.00500
3627.96310,0.00518
3625.90293,0.00567
3623.84275,0.00665
3621.78258,0.00745
3619.72241,0.00752
3617.66224,0.00738
3615.60207,0.00753
3613.54189,0.00786
3611.48172,0.00817
3609.42155,0.00833
3607.36138,0.00836
3605.30120,0.00847
3603.24103,0.00880
3601.18086,0.00923
3599.12069,0.00949
3597.06052,0.00955
3595.00034,0.00979
3592.94017,0.01046
3590.88000,0.01133
3588.81983,0.01197
3586.75966,0.01216
3584.69948,0.01211
3582.63931,0.01221
3580.57914,0.01245
3578.51897,0.01274
3576.45879,0.01308
3574.39862,0.01340
3572.33845,0.01361
3570.27828,0.01390
3568.21811,0.01447
3566.15793,0.01488
3564.09776,0.01467
3562.03759,0.01443
3559.97742,0.01468
3557.91725,0.01525
3555.85707,0.01581
3553.79690,0.01619
3551.73673,0.01652
3549.67656,0.01670
3547.61639,0.01646
3545.55621,0.01616
3543.49604,0.01646
3541.43587,0.01729
3539.37570,0.01814
3537.31552,0.01869
3535.25535,0.01886
3533.19518,0.01875
3531.13501,0.01864
3529.07484,0.01880
3527.01466,0.01935
3524.95449,0.02007
3522.89432,0.02045
3520.83415,0.02044
3518.77398,0.02042
3516.71380,0.02051
3514.65363,0.02063
3512.59346,0.02080
3510.53329,0.02120
3508.47312,0.02172
3506.41294,0.02193
3504.35277,0.02188
3502.29260,0.02200
3500.23243,0.02233
3498.17225,0.02259
3496.11208,0.02277
3494.05191,0.02317
3491.99174,0.02375
3489.93157,0.02400
3487.87139,0.02401
3485.81122,0.02415
3483.75105,0.02437
3481.69088,0.02458
3479.63071,0.02486
3477.57053,0.02515
3475.51036,0.02533
3473.45019,0.02538
3471.39002,0.02552
3469.32984,0.02594
3467.26967,0.02633
3465.20950,0.02633
3463.14933,0.02623
3461.08916,0.02638
3459.02898,0.02670
3456.96881,0.02714
3454.90864,0.02764
3452.84847,0.02793
3450.78830,0.02803
3448.72812,0.02819
3446.66795,0.02828
3444.60778,0.02809
3442.54761,0.02802
3440.48744,0.02849
3438.42726,0.02903
3436.36709,0.02921
3434.30692,0.02936
3432.24675,0.02956
3430.18657,0.02952
3428.12640,0.02949
3426.06623,0.02984
3424.00606,0.03045
3421.94589,0.03106
3419.88571,0.03129
3417.82554,0.03087
3415.76537,0.03041
3413.70520,0.03049
3411.64503,0.03073
3409.58485,0.03095
3407.52468,0.03120
3405.46451,0.03128
3403.40434,0.03130
3401.34416,0.03140
3399.28399,0.03160
3397.22382,0.03175
3395.16365,0.03189
3393.10348,0.03209
3391.04330,0.03210
3388.98313,0.03203
3386.92296,0.03233
3384.86279,0.03255
3382.80262,0.03233
3380.74244,0.03235
3378.68227,0.03266
3376.62210,0.03277
3374.56193,0.03284
3372.50176,0.03301
3370.44158,0.03313
3368.38141,0.03323
3366.32124,0.03341
3364.26107,0.03358
3362.20089,0.03389
3360.14072,0.03448
3358.08055,0.03484
3356.02038,0.03470
3353.96021,0.03443
3351.90003,0.03429
3349.83986,0.03415
3347.77969,0.03395
3345.71952,0.03399
3343.65935,0.03432
3341.59917,0.03456
3339.53900,0.03446
3337.47883,0.03420
3335.41866,0.03412
3333.35849,0.03440
3331.29831,0.03476
3329.23814,0.03495
3327.17797,0.03492
3325.11780,0.03455
3323.05762,0.03405
3320.99745,0.03394
3318.93728,0.03420
3316.87711,0.03439
3314.81694,0.03439
3312.75676,0.03435
3310.69659,0.03444
3308.63642,0.03453
3306.57625,0.03460
3304.51608,0.03472
3302.45590,0.03485
3300.39573,0.03496
3298.33556,0.03506
3296.27539,0.03503
3294.21521,0.03498
3292.15504,0.03510
3290.09487,0.03525
3288.03470,0.03532
3285.97453,0.03531
3283.91435,0.03518
3281.85418,0.03491
3279.79401,0.03473
3277.73384,0.03490
3275.67367,0.03527
3273.61349,0.03534
3271.55332,0.03507
3269.49315,0.03481
3267.43298,0.03474
3265.37281,0.03491
3263.31263,0.03514
3261.25246,0.03537
3259.19229,0.03565
3257.13212,0.03577
3255.07194,0.03571
3253.01177,0.03560
3250.95160,0.03542
3248.89143,0.03524
3246.83126,0.03524
3244.77108,0.03544
3242.71091,0.03558
3240.65074,0.03545
3238.59057,0.03527
3236.53040,0.03537
3234.47022,0.03571
3232.41005,0.03591
3230.34988,0.03567
3228.28971,0.03517
3226.22954,0.03491
3224.16936,0.03519
3222.10919,0.03557
3220.04902,0.03556
3217.98885,0.03548
3215.92867,0.03564
3213.86850,0.03571
3211.80833,0.03547
3209.74816,0.03525
3207.68799,0.03523
3205.62781,0.03514
3203.56764,0.03503
3201.50747,0.03509
3199.44730,0.03504
3197.38713,0.03491
3195.32695,0.03502
3193.26678,0.03509
3191.20661,0.03482
3189.14644,0.03446
3187.08626,0.03429
3185.02609,0.03447
3182.96592,0.03489
3180.90575,0.03506
3178.84558,0.03470
3176.78540,0.03428
3174.72523,0.03418
3172.66506,0.03402
3170.60489,0.03374
3168.54472,0.03369
3166.48454,0.03381
3164.42437,0.03386
3162.36420,0.03361
3160.30403,0.03315
3158.24386,0.03296
3156.18368,0.03309
3154.12351,0.03314
3152.06334,0.03308
3150.00317,0.03315
3147.94299,0.03333
3145.88282,0.03330
3143.82265,0.03304
3141.76248,0.03279
3139.70231,0.03267
3137.64213,0.03262
3135.58196,0.03250
3133.52179,0.03228
3131.46162,0.03205
3129.40145,0.03187
3127.34127,0.03173
3125.28110,0.03155
3123.22093,0.03143
3121.16076,0.03154
3119.10058,0.03165
3117.04041,0.03158
3114.98024,0.03150
3112.92007,0.03140
3110.85990,0.03131
3108.79972,0.03141
3106.73955,0.03136
3104.67938,0.03090
3102.61921,0.03053
3100.55904,0.03052
3098.49886,0.03051
3096.43869,0.03035
3094.37852,0.03016
3092.31835,0.03011
3090.25818,0.03009
3088.19800,0.03000
3086.13783,0.02988
3084.07766,0.02959
3082.01749,0.02916
3079.95731,0.02886
3077.89714,0.02876
3075.83697,0.02879
3073.77680,0.02897
3071.71663,0.02894
3069.65645,0.02860
3067.59628,0.02847
3065.53611,0.02851
3063.47594,0.02841
3061.41577,0.02816
3059.35559,0.02785
3057.29542,0.02766
3055.23525,0.02747
3053.17508,0.02714
3051.11491,0.02681
3049.05473,0.02658
3046.99456,0.02642
3044.93439,0.02634
3042.87422,0.02643
3040.81404,0.02656
3038.75387,0.02650
3036.69370,0.02635
3034.63353,0.02624
3032.57336,0.02610
3030.51318,0.02581
3028.45301,0.02545
3026.39284,0.02521
3024.33267,0.02508
3022.27250,0.02494
3020.21232,0.02486
3018.15215,0.02482
3016.09198,0.02477
3014.03181,0.02475
3011.97163,0.02468
3009.91146,0.02456
3007.85129,0.02431
3005.79112,0.02397
3003.73095,0.02382
3001.67077,0.02383
2999.61060,0.02366
2997.55043,0.02331
2995.49026,0.02311
2993.43009,0.02323
2991.36991,0.02326
2989.30974,0.02285
2987.24957,0.02242
2985.18940,0.02227
2983.12923,0.02212
2981.06905,0.02185
2979.00888,0.02174
2976.94871,0.02186
2974.88854,0.02202
2972.82836,0.02201
2970.76819,0.02191
2968.70802,0.02215
2966.64785,0.02241
2964.58768,0.02231
2962.52750,0.02227
2960.46733,0.02244
2958.40716,0.02240
2956.34699,0.02215
2954.28682,0.02210
2952.22664,0.02211
2950.16647,0.02204
2948.10630,0.02208
2946.04613,0.02210
2943.98596,0.02203
2941.92578,0.02209
2939.86561,0.02226
2937.80544,0.02226
2935.74527,0.02206
2933.68509,0.02191
2931.62492,0.02187
2929.56475,0.02193
2927.50458,0.02216
2925.44441,0.02234
2923.38423,0.02222
2921.32406,0.02201
2919.26389,0.02202
2917.20372,0.02210
2915.14355,0.02175
2913.08337,0.02116
2911.02320,0.02096
2908.96303,0.02109
2906.90286,0.02116
2904.84268,0.02096
2902.78251,0.02058
2900.72234,0.02032
2898.66217,0.02033
2896.60200,0.02046
2894.54182,0.02056
2892.48165,0.02049
2890.42148,0.02037
2888.36131,0.02031
2886.30114,0.02004
2884.24096,0.01960
2882.18079,0.01937
2880.12062,0.01942
2878.06045,0.01949
2876.00028,0.01945
2873.94010,0.01933
2871.87993,0.01924
2869.81976,0.01941
2867.75959,0.01963
2865.69941,0.01954
2863.63924,0.01927
2861.57907,0.01909
2859.51890,0.01898
2857.45873,0.01891
2855.39855,0.01894
2853.33838,0.01895
2851.27821,0.01879
2849.21804,0.01849
2847.15787,0.01823
2845.09769,0.01808
2843.03752,0.01804
2840.97735,0.01799
2838.91718,0.01773
2836.85700,0.01745
2834.79683,0.01742
2832.73666,0.01747
2830.67649,0.01741
2828.61632,0.01729
2826.55614,0.01714
2824.49597,0.01706
2822.43580,0.01704
2820.37563,0.01687
2818.31546,0.01666
2816.25528,0.01655
2814.19511,0.01646
2812.13494,0.01636
2810.07477,0.01626
2808.01460,0.01607
2805.95442,0.01577
2803.89425,0.01562
2801.83408,0.01572
2799.77391,0.01586
2797.71373,0.01596
2795.65356,0.01596
2793.59339,0.01580
2791.53322,0.01564
2789.47305,0.01553
2787.41287,0.01542
2785.35270,0.01534
2783.29253,0.01528
2781.23236,0.01522
2779.17219,0.01520
2777.11201,0.01518
2775.05184,0.01511
2772.99167,0.01496
2770.93150,0.01480
2768.87133,0.01462
2766.81115,0.01444
2764.75098,0.01441
2762.69081,0.01449
2760.63064,0.01448
2758.57046,0.01439
2756.51029,0.01436
2754.45012,0.01436
2752.38995,0.01420
2750.32978,0.01396
2748.26960,0.01402
2746.20943,0.01430
2744.14926,0.01446
2742.08909,0.01432
2740.02892,0.01412
2737.96874,0.01407
2735.90857,0.01395
2733.84840,0.01373
2731.78823,0.01361
2729.72805,0.01363
2727.66788,0.01358
2725.60771,0.01348
2723.54754,0.01345
2721.48737,0.01342
2719.42719,0.01332
2717.36702,0.01333
2715.30685,0.01356
2713.24668,0.01362
2711.18651,0.01328
2709.12633,0.01280
2707.06616,0.01250
2705.00599,0.01251
2702.94582,0.01264
2700.88565,0.01257
2698.82547,0.01236
2696.76530,0.01219
2694.70513,0.01211
2692.64496,0.01214
2690.58478,0.01204
2688.52461,0.01180
2686.46444,0.01169
2684.40427,0.01172
2682.34410,0.01177
2680.28392,0.01169
2678.22375,0.01153
2676.16358,0.01145
2674.10341,0.01140
2672.04324,0.01130
2669.98306,0.01128
2667.92289,0.01127
2665.86272,0.01121
2663.80255,0.01124
2661.74238,0.01111
2659.68220,0.01076
2657.62203,0.01051
2655.56186,0.01039
2653.50169,0.01046
2651.44151,0.01069
2649.38134,0.01077
2647.32117,0.01048
2645.26100,0.01011
2643.20083,0.01011
2641.14065,0.01026
2639.08048,0.01009
2637.02031,0.00994
2634.96014,0.01015
2632.89997,0.01040
2630.83979,0.01032
2628.77962,0.00995
2626.71945,0.00963
2624.65928,0.00931
2622.59910,0.00894
2620.53893,0.00875
2618.47876,0.00871
2616.41859,0.00871
2614.35842,0.00880
2612.29824,0.00896
2610.23807,0.00918
2608.17790,0.00922
2606.11773,0.00882
2604.05756,0.00834
2601.99738,0.00828
2599.93721,0.00845
2597.87704,0.00853
2595.81687,0.00861
2593.75670,0.00863
2591.69652,0.00846
2589.63635,0.00818
2587.57618,0.00799
2585.51601,0.00808
2583.45583,0.00825
2581.39566,0.00816
2579.33549,0.00793
2577.27532,0.00805
2575.21515,0.00839
2573.15497,0.00831
2571.09480,0.00782
2569.03463,0.00734
2566.97446,0.00709
2564.91429,0.00705
2562.85411,0.00726
2560.79394,0.00766
2558.73377,0.00794
2556.67360,0.00805
2554.61342,0.00801
2552.55325,0.00785
2550.49308,0.00782
2548.43291,0.00792
2546.37274,0.00779
2544.31256,0.00748
2542.25239,0.00746
2540.19222,0.00758
2538.13205,0.00764
2536.07188,0.00784
2534.01170,0.00817
2531.95153,0.00857
2529.89136,0.00875
2527.83119,0.00838
2525.77102,0.00802
2523.71084,0.00789
2521.65067,0.00771
2519.59050,0.00790
2517.53033,0.00823
2515.47015,0.00817
2513.40998,0.00823
2511.34981,0.00844
2509.28964,0.00849
2507.22947,0.00850
2505.16929,0.00837
2503.10912,0.00816
2501.04895,0.00812
2498.98878,0.00803
2496.92861,0.00794
2494.86843,0.00798
2492.80826,0.00770
2490.74809,0.00731
2488.68792,0.00746
2486.62775,0.00778
2484.56757,0.00762
2482.50740,0.00750
2480.44723,0.00786
2478.38706,0.00818
2476.32688,0.00814
2474.26671,0.00798
2472.20654,0.00798
2470.14637,0.00813
2468.08620,0.00849
2466.02602,0.00871
2463.96585,0.00853
2461.90568,0.00849
2459.84551,0.00864
2457.78534,0.00858
2455.72516,0.00836
2453.66499,0.00817
2451.60482,0.00821
2449.54465,0.00844
2447.48447,0.00853
2445.42430,0.00845
2443.36413,0.00844
2441.30396,0.00847
2439.24379,0.00836
2437.18361,0.00833
2435.12344,0.00834
2433.06327,0.00824
2431.00310,0.00825
2428.94293,0.00827
2426.88275,0.00824
2424.82258,0.00842
2422.76241,0.00858
2420.70224,0.00853
2418.64207,0.00852
2416.58189,0.00875
2414.52172,0.00886
2412.46155,0.00858
2410.40138,0.00821
2408.34120,0.00799
2406.28103,0.00810
2404.22086,0.00855
2402.16069,0.00879
2400.10052,0.00862
2398.04034,0.00824
2395.98017,0.00798
2393.92000,0.00808
2391.85983,0.00824
2389.79966,0.00810
2387.73948,0.00801
2385.67931,0.00832
2383.61914,0.00858
2381.55897,0.00833
2379.49880,0.00795
2377.43862,0.00788
2375.37845,0.00819
2373.31828,0.00912
2371.25811,0.00988
2369.19793,0.00832
2367.13776,0.00412
2365.07759,0.00043
2363.01742,0.00040
2360.95725,0.00293
2358.89707,0.00288
2356.83690,0.00285
2354.77673,0.00550
2352.71656,0.00781
2350.65639,0.00943
2348.59621,0.00993
2346.53604,0.00806
2344.47587,0.00732
2342.41570,0.00734
2340.35552,0.00784
2338.29535,0.00771
2336.23518,0.00715
2334.17501,0.00784
2332.11484,0.00813
2330.05466,0.00653
2327.99449,0.00502
2325.93432,0.00615
2323.87415,0.00799
2321.81398,0.00865
2319.75380,0.00790
2317.69363,0.00738
2315.63346,0.00704
2313.57329,0.00671
2311.51312,0.00650
2309.45294,0.00662
2307.39277,0.00725
2305.33260,0.00807
2303.27243,0.00861
2301.21225,0.00826
2299.15208,0.00736
2297.09191,0.00686
2295.03174,0.00719
2292.97157,0.00780
2290.91139,0.00816
2288.85122,0.00828
2286.79105,0.00818
2284.73088,0.00802
2282.67071,0.00786
2280.61053,0.00753
2278.55036,0.00708
2276.49019,0.00670
2274.43002,0.00639
2272.36984,0.00620
2270.30967,0.00634
2268.24950,0.00676
2266.18933,0.00703
2264.12916,0.00689
2262.06898,0.00666
2260.00881,0.00648
2257.94864,0.00614
2255.88847,0.00587
2253.82830,0.00584
2251.76812,0.00598
2249.70795,0.00634
2247.64778,0.00660
2245.58761,0.00612
2243.52744,0.00550
2241.46726,0.00547
2239.40709,0.00567
2237.34692,0.00529
2235.28675,0.00457
2233.22657,0.00457
2231.16640,0.00487
2229.10623,0.00483
2227.04606,0.00535
2224.98589,0.00638
2222.92571,0.00639
2220.86554,0.00519
2218.80537,0.00446
2216.74520,0.00482
2214.68503,0.00534
2212.62485,0.00539
2210.56468,0.00485
2208.50451,0.00426
2206.44434,0.00365
2204.38417,0.00277
2202.32399,0.00247
2200.26382,0.00310
2198.20365,0.00382
2196.14348,0.00406
2194.08330,0.00339
2192.02313,0.00242
2189.96296,0.00259
2187.90279,0.00359
2185.84262,0.00428
2183.78244,0.00350
2181.72227,0.00220
2179.66210,0.00270
2177.60193,0.00376
2175.54176,0.00429
2173.48158,0.00477
2171.42141,0.00425
2169.36124,0.00269
2167.30107,0.00189
2165.24089,0.00250
2163.18072,0.00282
2161.12055,0.00218
2159.06038,0.00219
2157.00021,0.00282
2154.94003,0.00275
2152.87986,0.00253
2150.81969,0.00301
2148.75952,0.00330
2146.69935,0.00292
2144.63917,0.00235
2142.57900,0.00189
2140.51883,0.00206
2138.45866,0.00279
2136.39849,0.00297
2134.33831,0.00290
2132.27814,0.00342
2130.21797,0.00354
2128.15780,0.00320
2126.09762,0.00319
2124.03745,0.00322
2121.97728,0.00325
2119.91711,0.00343
2117.85694,0.00331
2115.79676,0.00318
2113.73659,0.00342
2111.67642,0.00345
2109.61625,0.00342
2107.55608,0.00328
2105.49590,0.00283
2103.43573,0.00280
2101.37556,0.00292
2099.31539,0.00292
2097.25521,0.00309
2095.19504,0.00335
2093.13487,0.00354
2091.07470,0.00330
2089.01453,0.00286
2086.95435,0.00289
2084.89418,0.00293
2082.83401,0.00236
2080.77384,0.00147
2078.71367,0.00099
2076.65349,0.00123
2074.59332,0.00173
2072.53315,0.00239
2070.47298,0.00304
2068.41281,0.00289
2066.35263,0.00213
2064.29246,0.00160
2062.23229,0.00141
2060.17212,0.00149
2058.11194,0.00166
2056.05177,0.00217
2053.99160,0.00339
2051.93143,0.00393
2049.87126,0.00255
2047.81108,0.00077
2045.75091,0.00040
2043.69074,0.00090
2041.63057,0.00132
2039.57040,0.00182
2037.51022,0.00259
2035.45005,0.00270
2033.38988,0.00153
2031.32971,0.00044
2029.26954,0.00065
2027.20936,0.00121
2025.14919,0.00094
2023.08902,0.00057
2021.02885,0.00058
2018.96867,0.00055
2016.90850,0.00056
2014.84833,0.00050
2012.78816,0.00059
2010.72799,0.00133
2008.66781,0.00203
2006.60764,0.00144
2004.54747,0.00038
2002.48730,0.00081
2000.42713,0.00221
1998.36695,0.00270
1996.30678,0.00227
1994.24661,0.00238
1992.18644,0.00318
1990.12626,0.00335
1988.06609,0.00238
1986.00592,0.00106
1983.94575,0.00071
1981.88558,0.00142
1979.82540,0.00172
1977.76523,0.00129
1975.70506,0.00107
1973.64489,0.00123
1971.58472,0.00160
1969.52454,0.00165
1967.46437,0.00111
1965.40420,0.00098
1963.34403,0.00145
1961.28386,0.00132
1959.22368,0.00093
1957.16351,0.00101
1955.10334,0.00101
1953.04317,0.00082
1950.98299,0.00127
1948.92282,0.00209
1946.86265,0.00243
1944.80248,0.00242
1942.74231,0.00224
1940.68213,0.00201
1938.62196,0.00204
1936.56179,0.00228
1934.50162,0.00214
1932.44145,0.00141
1930.38127,0.00108
1928.32110,0.00131
1926.26093,0.00145
1924.20076,0.00170
1922.14059,0.00200
1920.08041,0.00183
1918.02024,0.00148
1915.96007,0.00138
1913.89990,0.00136
1911.83972,0.00119
1909.77955,0.00096
1907.71938,0.00095
1905.65921,0.00113
1903.59904,0.00134
1901.53886,0.00130
1899.47869,0.00082
1897.41852,0.00043
1895.35835,0.00071
1893.29818,0.00150
1891.23800,0.00222
1889.17783,0.00264
1887.11766,0.00278
1885.05749,0.00263
1882.99731,0.00223
1880.93714,0.00187
1878.87697,0.00184
1876.81680,0.00197
1874.75663,0.00203
1872.69645,0.00204
1870.63628,0.00190
1868.57611,0.00156
1866.51594,0.00143
1864.45577,0.00150
1862.39559,0.00161
1860.33542,0.00182
1858.27525,0.00203
1856.21508,0.00204
1854.15491,0.00183
1852.09473,0.00146
1850.03456,0.00117
1847.97439,0.00111
1845.91422,0.00124
1843.85404,0.00156
1841.79387,0.00190
1839.73370,0.00205
1837.67353,0.00196
1835.61336,0.00175
1833.55318,0.00155
1831.49301,0.00160
1829.43284,0.00201
1827.37267,0.00241
1825.31250,0.00247
1823.25232,0.00238
1821.19215,0.00245
1819.13198,0.00259
1817.07181,0.00250
1815.01163,0.00233
1812.95146,0.00234
1810.89129,0.00233
1808.83112,0.00220
1806.77095,0.00221
1804.71077,0.00235
1802.65060,0.00239
1800.59043,0.00237
1798.53026,0.00242
1796.47009,0.00243
1794.40991,0.00236
1792.34974,0.00229
1790.28957,0.00237
1788.22940,0.00256
1786.16923,0.00261
1784.10905,0.00251
1782.04888,0.00246
1779.98871,0.00248
1777.92854,0.00251
1775.86836,0.00247
1773.80819,0.00228
1771.74802,0.00208
1769.68785,0.00215
1767.62768,0.00243
1765.56750,0.00268
1763.50733,0.00274
1761.44716,0.00265
1759.38699,0.00268
1757.32682,0.00299
1755.26664,0.00333
1753.20647,0.00350
1751.14630,0.00355
1749.08613,0.00360
1747.02596,0.00365
1744.96578,0.00369
1742.90561,0.00372
1740.84544,0.00373
1738.78527,0.00368
1736.72509,0.00366
1734.66492,0.00377
1732.60475,0.00404
1730.54458,0.00429
1728.48441,0.00449
1726.42423,0.00461
1724.36406,0.00459
1722.30389,0.00452
1720.24372,0.00447
1718.18355,0.00463
1716.12337,0.00518
1714.06320,0.00571
1712.00303,0.00592
1709.94286,0.00590
1707.88268,0.00582
1705.82251,0.00581
1703.76234,0.00593
1701.70217,0.00615
1699.64200,0.00652
1697.58182,0.00691
1695.52165,0.00715
1693.46148,0.00741
1691.40131,0.00769
1689.34114,0.00781
1687.28096,0.00789
1685.22079,0.00816
1683.16062,0.00864
1681.10045,0.00913
1679.04028,0.00949
1676.98010,0.00962
1674.91993,0.00958
1672.85976,0.00957
1670.79959,0.00974
1668.73941,0.01003
1666.67924,0.01021
1664.61907,0.01020
1662.55890,0.01015
1660.49873,0.01025
1658.43855,0.01060
1656.37838,0.01099
1654.31821,0.01109
1652.25804,0.01089
1650.19787,0.01084
1648.13769,0.01102
1646.07752,0.01117
1644.01735,0.01114
1641.95718,0.01102
1639.89701,0.01095
1637.83683,0.01094
1635.77666,0.01090
1633.71649,0.01076
1631.65632,0.01061
1629.59614,0.01046
1627.53597,0.01034
1625.47580,0.01024
1623.41563,0.01003
1621.35546,0.00989
1619.29528,0.00994
1617.23511,0.01000
1615.17494,0.01003
1613.11477,0.01005
1611.05460,0.00992
1608.99442,0.00959
1606.93425,0.00922
1604.87408,0.00893
1602.81391,0.00879
1600.75373,0.00880
1598.69356,0.00881
1596.63339,0.00871
1594.57322,0.00848
1592.51305,0.00821
1590.45287,0.00788
1588.39270,0.00750
1586.33253,0.00721
1584.27236,0.00704
1582.21219,0.00684
1580.15201,0.00654
1578.09184,0.00618
1576.03167,0.00587
1573.97150,0.00576
1571.91133,0.00569
1569.85115,0.00556
1567.79098,0.00548
1565.73081,0.00536
1563.67064,0.00509
1561.61046,0.00465
1559.55029,0.00408
1557.49012,0.00383
1555.42995,0.00401
1553.36978,0.00402
1551.30960,0.00374
1549.24943,0.00358
1547.18926,0.00366
1545.12909,0.00359
1543.06892,0.00308
1541.00874,0.00243
1538.94857,0.00234
1536.88840,0.00259
1534.82823,0.00260
1532.76805,0.00247
1530.70788,0.00242
1528.64771,0.00228
1526.58754,0.00203
1524.52737,0.00196
1522.46719,0.00206
1520.40702,0.00206
1518.34685,0.00203
1516.28668,0.00215
1514.22651,0.00233
1512.16633,0.00233
1510.10616,0.00207
1508.04599,0.00161
1505.98582,0.00127
1503.92565,0.00141
1501.86547,0.00165
1499.80530,0.00162
1497.74513,0.00144
1495.68496,0.00140
1493.62478,0.00154
1491.56461,0.00160
1489.50444,0.00149
1487.44427,0.00143
1485.38410,0.00153
1483.32392,0.00161
1481.26375,0.00161
1479.20358,0.00164
1477.14341,0.00168
1475.08324,0.00167
1473.02306,0.00174
1470.96289,0.00202
1468.90272,0.00226
1466.84255,0.00233
1464.78238,0.00231
1462.72220,0.00239
1460.66203,0.00262
1458.60186,0.00288
1456.54169,0.00290
1454.48151,0.00270
1452.42134,0.00249
1450.36117,0.00232
1448.30100,0.00224
1446.24083,0.00234
1444.18065,0.00250
1442.12048,0.00251
1440.06031,0.00231
1438.00014,0.00201
1435.93997,0.00196
1433.87979,0.00214
1431.81962,0.00220
1429.75945,0.00211
1427.69928,0.00203
1425.63910,0.00201
1423.57893,0.00202
1421.51876,0.00201
1419.45859,0.00204
1417.39842,0.00220
1415.33824,0.00235
1413.27807,0.00239
1411.21790,0.00232
1409.15773,0.00216
1407.09756,0.00192
1405.03738,0.00169
1402.97721,0.00165
1400.91704,0.00181
1398.85687,0.00199
1396.79670,0.00210
1394.73652,0.00222
1392.67635,0.00232
1390.61618,0.00229
1388.55601,0.00220
1386.49583,0.00221
1384.43566,0.00235
1382.37549,0.00252
1380.31532,0.00256
1378.25515,0.00249
1376.19497,0.00248
1374.13480,0.00256
1372.07463,0.00266
1370.01446,0.00275
1367.95429,0.00284
1365.89411,0.00289
1363.83394,0.00285
1361.77377,0.00272
1359.71360,0.00255
1357.65343,0.00237
1355.59325,0.00225
1353.53308,0.00230
1351.47291,0.00238
1349.41274,0.00239
1347.35256,0.00236
1345.29239,0.00237
1343.23222,0.00241
1341.17205,0.00244
1339.11188,0.00239
1337.05170,0.00233
1334.99153,0.00226
1332.93136,0.00212
1330.87119,0.00204
1328.81102,0.00207
1326.75084,0.00212
1324.69067,0.00207
1322.63050,0.00199
1320.57033,0.00198
1318.51015,0.00192
1316.44998,0.00177
1314.38981,0.00167
1312.32964,0.00168
1310.26947,0.00177
1308.20929,0.00186
1306.14912,0.00183
1304.08895,0.00169
1302.02878,0.00158
1299.96861,0.00157
1297.90843,0.00155
1295.84826,0.00154
1293.78809,0.00160
1291.72792,0.00159
1289.66775,0.00151
1287.60757,0.00149
1285.54740,0.00150
1283.48723,0.00146
1281.42706,0.00146
1279.36688,0.00152
1277.30671,0.00167
1275.24654,0.00189
1273.18637,0.00200
1271.12620,0.00200
1269.06602,0.00194
1267.00585,0.00181
1264.94568,0.00173
1262.88551,0.00180
1260.82534,0.00186
1258.76516,0.00185
1256.70499,0.00187
1254.64482,0.00193
1252.58465,0.00181
1250.52447,0.00156
1248.46430,0.00143
1246.40413,0.00154
1244.34396,0.00176
1242.28379,0.00184
1240.22361,0.00164
1238.16344,0.00137
1236.10327,0.00118
1234.04310,0.00104
1231.98293,0.00107
1229.92275,0.00119
1227.86258,0.00125
1225.80241,0.00131
1223.74224,0.00127
1221.68207,0.00104
1219.62189,0.00085
1217.56172,0.00084
1215.50155,0.00090
1213.44138,0.00100
1211.38120,0.00107
1209.32103,0.00095
1207.26086,0.00070
1205.20069,0.00057
1203.14052,0.00051
1201.08034,0.00053
1199.02017,0.00068
1196.96000,0.00084
1194.89983,0.00083
1192.83966,0.00071
1190.77948,0.00066
1188.71931,0.00095
1186.65914,0.00146
1184.59897,0.00177
1182.53880,0.00175
1180.47862,0.00183
1178.41845,0.00230
1176.35828,0.00297
1174.29811,0.00345
1172.23793,0.00381
1170.17776,0.00427
1168.11759,0.00481
1166.05742,0.00521
1163.99725,0.00545
1161.93707,0.00574
1159.87690,0.00609
1157.81673,0.00633
1155.75656,0.00659
1153.69639,0.00698
1151.63621,0.00743
1149.57604,0.00792
1147.51587,0.00847
1145.45570,0.00901
1143.39552,0.00954
1141.33535,0.01009
1139.27518,0.01071
1137.21501,0.01133
1135.15484,0.01185
1133.09466,0.01238
1131.03449,0.01299
1128.97432,0.01358
1126.91415,0.01423
1124.85398,0.01491
1122.79380,0.01541
1120.73363,0.01578
1118.67346,0.01630
1116.61329,0.01695
1114.55312,0.01763
1112.49294,0.01831
1110.43277,0.01901
1108.37260,0.01981
1106.31243,0.02071
1104.25225,0.02155
1102.19208,0.02226
1100.13191,0.02295
1098.07174,0.02372
1096.01157,0.02459
1093.95139,0.02549
1091.89122,0.02629
1089.83105,0.02703
1087.77088,0.02781
1085.71071,0.02848
1083.65053,0.02898
1081.59036,0.02948
1079.53019,0.03009
1077.47002,0.03076
1075.40985,0.03128
1073.34967,0.03153
1071.28950,0.03168
1069.22933,0.03203
1067.16916,0.03251
1065.10898,0.03277
1063.04881,0.03278
1060.98864,0.03281
1058.92847,0.03288
1056.86830,0.03274
1054.80812,0.03233
1052.74795,0.03196
1050.68778,0.03177
1048.62761,0.03149
1046.56744,0.03092
1044.50726,0.03030
1042.44709,0.02981
1040.38692,0.02929
1038.32675,0.02857
1036.26657,0.02772
1034.20640,0.02704
1032.14623,0.02653
1030.08606,0.02591
1028.02589,0.02524
1025.96571,0.02464
1023.90554,0.02407
1021.84537,0.02370
1019.78520,0.02341
1017.72503,0.02304
1015.66485,0.02264
1013.60468,0.02213
1011.54451,0.02167
1009.48434,0.02143
1007.42417,0.02121
1005.36399,0.02081
1003.30382,0.02033
1001.24365,0.02013
999.18348,0.02030
997.12330,0.02056
995.06313,0.02087
993.00296,0.02133
990.94279,0.02178
988.88262,0.02219
986.82244,0.02269
984.76227,0.02309
982.70210,0.02308
980.64193,0.02286
978.58176,0.02261
976.52158,0.02212
974.46141,0.02137
972.40124,0.02045
970.34107,0.01941
968.28089,0.01846
966.22072,0.01749
964.16055,0.01654
962.10038,0.01580
960.04021,0.01523
957.98003,0.01480
955.91986,0.01437
953.85969,0.01383
951.79952,0.01339
949.73935,0.01308
947.67917,0.01265
945.61900,0.01226
943.55883,0.01224
941.49866,0.01238
939.43849,0.01232
937.37831,0.01223
935.31814,0.01237
933.25797,0.01252
931.19780,0.01243
929.13762,0.01225
927.07745,0.01215
925.01728,0.01204
922.95711,0.01172
920.89694,0.01117
918.83676,0.01063
916.77659,0.01042
914.71642,0.01044
912.65625,0.01039
910.59608,0.01015
908.53590,0.00963
906.47573,0.00930
904.41556,0.00941
902.35539,0.00938
900.29522,0.00898
898.23504,0.00862
896.17487,0.00857
894.11470,0.00877
892.05453,0.00912
889.99435,0.00933
887.93418,0.00923
885.87401,0.00910
883.81384,0.00934
881.75367,0.00982
879.69349,0.01026
877.63332,0.01052
875.57315,0.01063
873.51298,0.01085
871.45281,0.01117
869.39263,0.01132
867.33246,0.01137
865.27229,0.01155
863.21212,0.01179
861.15194,0.01174
859.09177,0.01141
857.03160,0.01128
854.97143,0.01148
852.91126,0.01154
850.85108,0.01121
848.79091,0.01074
846.73074,0.01028
844.67057,0.00978
842.61040,0.00936
840.55022,0.00892
838.49005,0.00819
836.42988,0.00748
834.36971,0.00719
832.30954,0.00697
830.24936,0.00655
828.18919,0.00616
826.12902,0.00575
824.06885,0.00529
822.00867,0.00539
819.94850,0.00565
817.88833,0.00506
815.82816,0.00429
813.76799,0.00449
811.70781,0.00502
809.64764,0.00476
807.58747,0.00406
805.52730,0.00345
803.46713,0.00285
801.40695,0.00257
799.34678,0.00266
797.28661,0.00279
795.22644,0.00286
793.16627,0.00287
791.10609,0.00271
789.04592,0.00245
786.98575,0.00245
784.92558,0.00285
782.86540,0.00328
780.80523,0.00309
778.74506,0.00214
776.68489,0.00145
774.62472,0.00166
772.56454,0.00209
770.50437,0.00237
768.44420,0.00276
766.38403,0.00347
764.32386,0.00404
762.26368,0.00378
760.20351,0.00293
758.14334,0.00230
756.08317,0.00226
754.02299,0.00260
751.96282,0.00274
749.90265,0.00250
747.84248,0.00245
745.78231,0.00263
743.72213,0.00234
741.66196,0.00197
739.60179,0.00246
737.54162,0.00339
735.48145,0.00361
733.42127,0.00267
731.36110,0.00180
729.30093,0.00206
727.24076,0.00241
725.18059,0.00224
723.12041,0.00212
721.06024,0.00196
719.00007,0.00226
716.93990,0.00254
714.87972,0.00244
712.81955,0.00226
710.75938,0.00204
708.69921,0.00146
706.63904,0.00106
704.57886,0.00161
702.51869,0.00273
700.45852,0.00365
698.39835,0.00408
696.33818,0.00394
694.27800,0.00333
692.21783,0.00264
690.15766,0.00234
688.09749,0.00206
686.03731,0.00141
683.97714,0.00118
681.91697,0.00191
679.85680,0.00277
677.79663,0.00308
675.73645,0.00282
673.67628,0.00263
671.61611,0.00303
669.55594,0.00177
667.49577,0.00088
665.43559,0.00377
663.37542,0.00258
661.31525,0.00138
659.25508,0.00187
657.19491,0.00296
655.13473,0.00325
653.07456,0.00288
651.01439,0.00292
648.95422,0.00329
646.89404,0.00356
644.83387,0.00365
642.77370,0.00331
640.71353,0.00200
638.65336,0.00068
636.59318,0.00098
634.53301,0.00264
632.47284,0.00333
630.41267,0.00244
628.35250,0.00186
626.29232,0.00250
624.23215,0.00251
622.17198,0.00211
620.11181,0.00258
618.05164,0.00376
615.99146,0.00460
613.93129,0.00345
611.87112,0.00068
609.81095,0.00000
607.75077,0.00177
605.69060,0.00264
603.63043,0.00160
601.57026,0.00035
599.51009,0.00000
