3996.73391,0.00028
3994.67373,0.00019
3992.61356,0.00008
3990.55339,0.00000
3988.49322,0.00006
3986.43305,0.00029
3984.37287,0.00050
3982.31270,0.00047
3980.25253,0.00033
3978.19236,0.00032
3976.13219,0.00046
3974.07201,0.00053
3972.01184,0.00045
3969.95167,0.00043
3967.89150,0.00046
3965.83133,0.00041
3963.77115,0.00049
3961.71098,0.00063
3959.65081,0.00060
3957.59064,0.00057
3955.53046,0.00067
3953.47029,0.00073
3951.41012,0.00066
3949.34995,0.00063
3947.28978,0.00076
3945.22960,0.00099
3943.16943,0.00115
3941.10926,0.00134
3939.04909,0.00166
3936.98892,0.00173
3934.92874,0.00132
3932.86857,0.00103
3930.80840,0.00114
3928.74823,0.00116
3926.68805,0.00090
3924.62788,0.00073
3922.56771,0.00097
3920.50754,0.00134
3918.44737,0.00139
3916.38719,0.00119
3914.32702,0.00111
3912.26685,0.00123
3910.20668,0.00133
3908.14651,0.00122
3906.08633,0.00087
3904.02616,0.00062
3901.96599,0.00081
3899.90582,0.00138
3897.84565,0.00177
3895.78547,0.00147
3893.72530,0.00077
3891.66513,0.00062
3889.60496,0.00136
3887.54478,0.00210
3885.48461,0.00218
3883.42444,0.00185
3881.36427,0.00164
3879.30410,0.00181
3877.24392,0.00207
3875.18375,0.00204
3873.12358,0.00179
3871.06341,0.00168
3869.00324,0.00175
3866.94306,0.00175
3864.88289,0.00191
3862.82272,0.00238
3860.76255,0.00247
3858.70237,0.00207
3856.64220,0.00174
3854.58203,0.00183
3852.52186,0.00220
3850.46169,0.00243
3848.40151,0.00231
3846.34134,0.00180
3844.28117,0.00108
3842.22100,0.00061
3840.16083,0.00088
3838.10065,0.00198
3836.04048,0.00296
3833.98031,0.00288
3831.92014,0.00223
3829.85997,0.00190
3827.79979,0.00198
3825.73962,0.00206
3823.67945,0.00188
3821.61928,0.00148
3819.55910,0.00115
3817.49893,0.00120
3815.43876,0.00175
3813.37859,0.00246
3811.31842,0.00288
3809.25824,0.00298
3807.19807,0.00295
3805.13790,0.00286
3803.07773,0.00278
3801.01756,0.00294
3798.95738,0.00316
3796.89721,0.00302
3794.83704,0.00274
3792.77687,0.00251
3790.71670,0.00223
3788.65652,0.00202
3786.59635,0.00205
3784.53618,0.00226
3782.47601,0.00244
3780.41583,0.00229
3778.35566,0.00185
3776.29549,0.00142
3774.23532,0.00123
3772.17515,0.00126
3770.11497,0.00149
3768.05480,0.00191
3765.99463,0.00219
3763.93446,0.00217
3761.87429,0.00204
3759.81411,0.00206
3757.75394,0.00228
3755.69377,0.00251
3753.63360,0.00247
3751.57342,0.00219
3749.51325,0.00206
3747.45308,0.00226
3745.39291,0.00263
3743.33274,0.00274
3741.27256,0.00265
3739.21239,0.00277
3737.15222,0.00261
3735.09205,0.00179
3733.03188,0.00124
3730.97170,0.00162
3728.91153,0.00209
3726.85136,0.00200
3724.79119,0.00169
3722.73102,0.00176
3720.67084,0.00215
3718.61067,0.00238
3716.55050,0.00248
3714.49033,0.00234
3712.43015,0.00208
3710.36998,0.00248
3708.30981,0.00316
3706.24964,0.00334
3704.18947,0.00281
3702.12929,0.00226
3700.06912,0.00239
3698.00895,0.00288
3695.94878,0.00331
3693.88861,0.00331
3691.82843,0.00280
3689.76826,0.00240
3687.70809,0.00259
3685.64792,0.00260
3683.58775,0.00240
3681.52757,0.00245
3679.46740,0.00285
3677.40723,0.00301
3675.34706,0.00246
3673.28688,0.00183
3671.22671,0.00197
3669.16654,0.00278
3667.10637,0.00345
3665.04620,0.00355
3662.98602,0.00349
3660.92585,0.00382
3658.86568,0.00453
3656.80551,0.00521
3654.74534,0.00538
3652.68516,0.00480
3650.62499,0.00411
3648.56482,0.00438
3646.50465,0.00544
3644.44447,0.00646
3642.38430,0.00739
3640.32413,0.00827
3638.26396,0.00890
3636.20379,0.00903
3634.14361,0.00887
3632.08344,0.00888
3630.02327,0.00896
3627.96310,0.00912
3625.90293,0.00989
3623.84275,0.01096
3621.78258,0.01143
3619.72241,0.01133
3617.66224,0.01155
3615.60207,0.01228
3613.54189,0.01319
3611.48172,0.01411
3609.42155,0.01505
3607.36138,0.01546
3605.30120,0.01518
3603.24103,0.01511
3601.18086,0.01544
3599.12069,0.01573
3597.06052,0.01577
3595.00034,0.01607
3592.94017,0.01688
3590.88000,0.01783
3588.81983,0.01832
3586.75966,0.01860
3584.69948,0.01924
3582.63931,0.02021
3580.57914,0.02112
3578.51897,0.02160
3576.45879,0.02173
3574.39862,0.02189
3572.33845,0.02208
3570.27828,0.02223
3568.21811,0.02261
3566.15793,0.02328
3564.09776,0.02380
3562.03759,0.02422
3559.97742,0.02465
3557.91725,0.02506
3555.85707,0.02556
3553.79690,0.02607
3551.73673,0.02652
3549.67656,0.02689
3547.61639,0.02711
3545.55621,0.02750
3543.49604,0.02825
3541.43587,0.02901
3539.37570,0.02953
3537.31552,0.02991
3535.25535,0.03020
3533.19518,0.03030
3531.13501,0.03042
3529.07484,0.03097
3527.01466,0.03195
3524.95449,0.03273
3522.89432,0.03291
3520.83415,0.03293
3518.77398,0.03319
3516.71380,0.03359
3514.65363,0.03404
3512.59346,0.03440
3510.53329,0.03456
3508.47312,0.03480
3506.41294,0.03527
3504.35277,0.03590
3502.29260,0.03655
3500.23243,0.03696
3498.17225,0.03713
3496.11208,0.03731
3494.05191,0.03777
3491.99174,0.03843
3489.93157,0.03905
3487.87139,0.03947
3485.81122,0.03984
3483.75105,0.04028
3481.69088,0.04069
3479.63071,0.04095
3477.57053,0.04117
3475.51036,0.04136
3473.45019,0.04156
3471.39002,0.04190
3469.32984,0.04233
3467.26967,0.04270
3465.20950,0.04300
3463.14933,0.04338
3461.08916,0.04398
3459.02898,0.04470
3456.96881,0.04529
3454.90864,0.04552
3452.84847,0.04562
3450.78830,0.04569
3448.72812,0.04565
3446.66795,0.04570
3444.60778,0.04602
3442.54761,0.04645
3440.48744,0.04690
3438.42726,0.04727
3436.36709,0.04748
3434.30692,0.04779
3432.24675,0.04814
3430.18657,0.04836
3428.12640,0.04861
3426.06623,0.04885
3424.00606,0.04914
3421.94589,0.04954
3419.88571,0.04980
3417.82554,0.04987
3415.76537,0.04999
3413.70520,0.05018
3411.64503,0.05035
3409.58485,0.05071
3407.52468,0.05125
3405.46451,0.05169
3403.40434,0.05178
3401.34416,0.05168
3399.28399,0.05186
3397.22382,0.05207
3395.16365,0.05219
3393.10348,0.05245
3391.04330,0.05279
3388.98313,0.05289
3386.92296,0.05273
3384.86279,0.05260
3382.80262,0.05284
3380.74244,0.05338
3378.68227,0.05362
3376.62210,0.05350
3374.56193,0.05362
3372.50176,0.05410
3370.44158,0.05451
3368.38141,0.05472
3366.32124,0.05476
3364.26107,0.05472
3362.20089,0.05497
3360.14072,0.05543
3358.08055,0.05568
3356.02038,0.05564
3353.96021,0.05562
3351.90003,0.05598
3349.83986,0.05640
3347.77969,0.05610
3345.71952,0.05542
3343.65935,0.05535
3341.59917,0.05592
3339.53900,0.05632
3337.47883,0.05614
3335.41866,0.05590
3333.35849,0.05614
3331.29831,0.05650
3329.23814,0.05665
3327.17797,0.05671
3325.11780,0.05669
3323.05762,0.05654
3320.99745,0.05647
3318.93728,0.05657
3316.87711,0.05674
3314.81694,0.05685
3312.75676,0.05677
3310.69659,0.05662
3308.63642,0.05664
3306.57625,0.05675
3304.51608,0.05690
3302.45590,0.05707
3300.39573,0.05725
3298.33556,0.05746
3296.27539,0.05757
3294.21521,0.05761
3292.15504,0.05763
3290.09487,0.05756
3288.03470,0.05760
3285.97453,0.05783
3283.91435,0.05799
3281.85418,0.05781
3279.79401,0.05749
3277.73384,0.05745
3275.67367,0.05776
3273.61349,0.05794
3271.55332,0.05776
3269.49315,0.05769
3267.43298,0.05780
3265.37281,0.05780
3263.31263,0.05763
3261.25246,0.05762
3259.19229,0.05790
3257.13212,0.05807
3255.07194,0.05798
3253.01177,0.05785
3250.95160,0.05776
3248.89143,0.05768
3246.83126,0.05769
3244.77108,0.05782
3242.71091,0.05795
3240.65074,0.05790
3238.59057,0.05776
3236.53040,0.05791
3234.47022,0.05837
3232.41005,0.05868
3230.34988,0.05846
3228.28971,0.05800
3226.22954,0.05785
3224.16936,0.05797
3222.10919,0.05809
3220.04902,0.05816
3217.98885,0.05826
3215.92867,0.05840
3213.86850,0.05843
3211.80833,0.05818
3209.74816,0.05778
3207.68799,0.05753
3205.62781,0.05749
3203.56764,0.05747
3201.50747,0.05751
3199.44730,0.05747
3197.38713,0.05720
3195.32695,0.05702
3193.26678,0.05708
3191.20661,0.05714
3189.14644,0.05707
3187.08626,0.05681
3185.02609,0.05653
3182.96592,0.05664
3180.90575,0.05696
3178.84558,0.05688
3176.78540,0.05653
3174.72523,0.05638
3172.66506,0.05623
3170.60489,0.05599
3168.54472,0.05587
3166.48454,0.05589
3164.42437,0.05592
3162.36420,0.05559
3160.30403,0.05502
3158.24386,0.05480
3156.18368,0.05489
3154.12351,0.05486
3152.06334,0.05469
3150.00317,0.05445
3147.94299,0.05418
3145.88282,0.05389
3143.82265,0.05366
3141.76248,0.05365
3139.70231,0.05386
3137.64213,0.05398
3135.58196,0.05365
3133.52179,0.05303
3131.46162,0.05260
3129.40145,0.05257
3127.34127,0.05264
3125.28110,0.05247
3123.22093,0.05224
3121.16076,0.05222
3119.10058,0.05227
3117.04041,0.05225
3114.98024,0.05218
3112.92007,0.05180
3110.85990,0.05117
3108.79972,0.05085
3106.73955,0.05088
3104.67938,0.05075
3102.61921,0.05036
3100.55904,0.04999
3098.49886,0.04976
3096.43869,0.04969
3094.37852,0.04964
3092.31835,0.04949
3090.25818,0.04927
3088.19800,0.04914
3086.13783,0.04904
3084.07766,0.04871
3082.01749,0.04827
3079.95731,0.04785
3077.89714,0.04746
3075.83697,0.04720
3073.77680,0.04724
3071.71663,0.04729
3069.65645,0.04687
3067.59628,0.04628
3065.53611,0.04594
3063.47594,0.04592
3061.41577,0.04609
3059.35559,0.04609
3057.29542,0.04574
3055.23525,0.04512
3053.17508,0.04448
3051.11491,0.04425
3049.05473,0.04430
3046.99456,0.04410
3044.93439,0.04367
3042.87422,0.04349
3040.81404,0.04347
3038.75387,0.04334
3036.69370,0.04314
3034.63353,0.04282
3032.57336,0.04233
3030.51318,0.04198
3028.45301,0.04194
3026.39284,0.04181
3024.33267,0.04132
3022.27250,0.04080
3020.21232,0.04066
3018.15215,0.04065
3016.09198,0.04047
3014.03181,0.04035
3011.97163,0.04035
3009.91146,0.04018
3007.85129,0.03982
3005.79112,0.03941
3003.73095,0.03910
3001.67077,0.03889
2999.61060,0.03860
2997.55043,0.03816
2995.49026,0.03788
2993.43009,0.03790
2991.36991,0.03780
2989.30974,0.03728
2987.24957,0.03682
2985.18940,0.03691
2983.12923,0.03716
2981.06905,0.03695
2979.00888,0.03657
2976.94871,0.03651
2974.88854,0.03673
2972.82836,0.03693
2970.76819,0.03672
2968.70802,0.03628
2966.64785,0.03607
2964.58768,0.03602
2962.52750,0.03612
2960.46733,0.03637
2958.40716,0.03661
2956.34699,0.03663
2954.28682,0.03644
2952.22664,0.03631
2950.16647,0.03626
2948.10630,0.03636
2946.04613,0.03655
2943.98596,0.03654
2941.92578,0.03654
2939.86561,0.03666
2937.80544,0.03669
2935.74527,0.03674
2933.68509,0.03684
2931.62492,0.03677
2929.56475,0.03657
2927.50458,0.03641
2925.44441,0.03633
2923.38423,0.03631
2921.32406,0.03626
2919.26389,0.03615
2917.20372,0.03595
2915.14355,0.03543
2913.08337,0.03491
2911.02320,0.03469
2908.96303,0.03456
2906.90286,0.03446
2904.84268,0.03422
2902.78251,0.03380
2900.72234,0.03355
2898.66217,0.03360
2896.60200,0.03384
2894.54182,0.03400
2892.48165,0.03379
2890.42148,0.03342
2888.36131,0.03315
2886.30114,0.03285
2884.24096,0.03249
2882.18079,0.03224
2880.12062,0.03219
2878.06045,0.03229
2876.00028,0.03246
2873.94010,0.03252
2871.87993,0.03237
2869.81976,0.03229
2867.75959,0.03231
2865.69941,0.03203
2863.63924,0.03163
2861.57907,0.03143
2859.51890,0.03142
2857.45873,0.03156
2855.39855,0.03173
2853.33838,0.03171
2851.27821,0.03142
2849.21804,0.03093
2847.15787,0.03044
2845.09769,0.03006
2843.03752,0.02979
2840.97735,0.02955
2838.91718,0.02926
2836.85700,0.02909
2834.79683,0.02899
2832.73666,0.02885
2830.67649,0.02864
2828.61632,0.02840
2826.55614,0.02825
2824.49597,0.02823
2822.43580,0.02808
2820.37563,0.02767
2818.31546,0.02735
2816.25528,0.02724
2814.19511,0.02711
2812.13494,0.02697
2810.07477,0.02687
2808.01460,0.02684
2805.95442,0.02674
2803.89425,0.02649
2801.83408,0.02650
2799.77391,0.02672
2797.71373,0.02675
2795.65356,0.02656
2793.59339,0.02619
2791.53322,0.02585
2789.47305,0.02576
2787.41287,0.02580
2785.35270,0.02581
2783.29253,0.02570
2781.23236,0.02548
2779.17219,0.02525
2777.11201,0.02509
2775.05184,0.02500
2772.99167,0.02492
2770.93150,0.02483
2768.87133,0.02465
2766.81115,0.02447
2764.75098,0.02429
2762.69081,0.02408
2760.63064,0.02406
2758.57046,0.02418
2756.51029,0.02413
2754.45012,0.02389
2752.38995,0.02359
2750.32978,0.02331
2748.26960,0.02327
2746.20943,0.02340
2744.14926,0.02343
2742.08909,0.02338
2740.02892,0.02337
2737.96874,0.02332
2735.90857,0.02315
2733.84840,0.02307
2731.78823,0.02309
2729.72805,0.02298
2727.66788,0.02263
2725.60771,0.02231
2723.54754,0.02231
2721.48737,0.02235
2719.42719,0.02216
2717.36702,0.02202
2715.30685,0.02213
2713.24668,0.02217
2711.18651,0.02193
2709.12633,0.02154
2707.06616,0.02122
2705.00599,0.02104
2702.94582,0.02082
2700.88565,0.02051
2698.82547,0.02032
2696.76530,0.02031
2694.70513,0.02028
2692.64496,0.02018
2690.58478,0.02006
2688.52461,0.01989
2686.46444,0.01981
2684.40427,0.01988
2682.34410,0.01983
2680.28392,0.01953
2678.22375,0.01920
2676.16358,0.01902
2674.10341,0.01888
2672.04324,0.01879
2669.98306,0.01869
2667.92289,0.01844
2665.86272,0.01817
2663.80255,0.01806
2661.74238,0.01794
2659.68220,0.01773
2657.62203,0.01761
2655.56186,0.01748
2653.50169,0.01728
2651.44151,0.01712
2649.38134,0.01705
2647.32117,0.01700
2645.26100,0.01685
2643.20083,0.01664
2641.14065,0.01646
2639.08048,0.01625
2637.02031,0.01614
2634.96014,0.01627
2632.89997,0.01642
2630.83979,0.01628
2628.77962,0.01599
2626.71945,0.01576
2624.65928,0.01545
2622.59910,0.01505
2620.53893,0.01485
2618.47876,0.01483
2616.41859,0.01476
2614.35842,0.01460
2612.29824,0.01457
2610.23807,0.01470
2608.17790,0.01489
2606.11773,0.01492
2604.05756,0.01454
2601.99738,0.01415
2599.93721,0.01404
2597.87704,0.01391
2595.81687,0.01371
2593.75670,0.01364
2591.69652,0.01363
2589.63635,0.01357
2587.57618,0.01359
2585.51601,0.01386
2583.45583,0.01398
2581.39566,0.01358
2579.33549,0.01318
2577.27532,0.01332
2575.21515,0.01369
2573.15497,0.01379
2571.09480,0.01359
2569.03463,0.01314
2566.97446,0.01271
2564.91429,0.01261
2562.85411,0.01272
2560.79394,0.01292
2558.73377,0.01325
2556.67360,0.01343
2554.61342,0.01325
2552.55325,0.01317
2550.49308,0.01327
2548.43291,0.01309
2546.37274,0.01263
2544.31256,0.01228
2542.25239,0.01236
2540.19222,0.01269
2538.13205,0.01281
2536.07188,0.01282
2534.01170,0.01309
2531.95153,0.01342
2529.89136,0.01363
2527.83119,0.01378
2525.77102,0.01361
2523.71084,0.01316
2521.65067,0.01289
2519.59050,0.01302
2517.53033,0.01326
2515.47015,0.01341
2513.40998,0.01349
2511.34981,0.01336
2509.28964,0.01312
2507.22947,0.01310
2505.16929,0.01308
2503.10912,0.01273
2501.04895,0.01244
2498.98878,0.01255
2496.92861,0.01282
2494.86843,0.01296
2492.80826,0.01285
2490.74809,0.01264
2488.68792,0.01273
2486.62775,0.01304
2484.56757,0.01306
2482.50740,0.01309
2480.44723,0.01334
2478.38706,0.01326
2476.32688,0.01299
2474.26671,0.01303
2472.20654,0.01315
2470.14637,0.01313
2468.08620,0.01317
2466.02602,0.01315
2463.96585,0.01323
2461.90568,0.01360
2459.84551,0.01400
2457.78534,0.01411
2455.72516,0.01358
2453.66499,0.01281
2451.60482,0.01277
2449.54465,0.01334
2447.48447,0.01374
2445.42430,0.01383
2443.36413,0.01372
2441.30396,0.01346
2439.24379,0.01326
2437.18361,0.01342
2435.12344,0.01369
2433.06327,0.01360
2431.00310,0.01337
2428.94293,0.01330
2426.88275,0.01336
2424.82258,0.01359
2422.76241,0.01376
2420.70224,0.01373
2418.64207,0.01377
2416.58189,0.01400
2414.52172,0.01410
2412.46155,0.01387
2410.40138,0.01365
2408.34120,0.01368
2406.28103,0.01387
2404.22086,0.01405
2402.16069,0.01393
2400.10052,0.01359
2398.04034,0.01331
2395.98017,0.01326
2393.92000,0.01341
2391.85983,0.01343
2389.79966,0.01335
2387.73948,0.01358
2385.67931,0.01416
2383.61914,0.01451
2381.55897,0.01436
2379.49880,0.01406
2377.43862,0.01394
2375.37845,0.01388
2373.31828,0.01478
2371.25811,0.01578
2369.19793,0.01406
2367.13776,0.01046
2365.07759,0.00844
2363.01742,0.00745
2360.95725,0.00739
2358.89707,0.00434
2356.83690,0.00364
2354.77673,0.00755
2352.71656,0.01129
2350.65639,0.01585
2348.59621,0.01787
2346.53604,0.01296
2344.47587,0.01209
2342.41570,0.01297
2340.35552,0.01387
2338.29535,0.01419
2336.23518,0.01339
2334.17501,0.01324
2332.11484,0.01272
2330.05466,0.01158
2327.99449,0.01066
2325.93432,0.01233
2323.87415,0.01323
2321.81398,0.01286
2319.75380,0.01200
2317.69363,0.01304
2315.63346,0.01387
2313.57329,0.01379
2311.51312,0.01347
2309.45294,0.01325
2307.39277,0.01324
2305.33260,0.01332
2303.27243,0.01338
2301.21225,0.01288
2299.15208,0.01218
2297.09191,0.01169
2295.03174,0.01173
2292.97157,0.01216
2290.91139,0.01249
2288.85122,0.01256
2286.79105,0.01240
2284.73088,0.01222
2282.67071,0.01210
2280.61053,0.01190
2278.55036,0.01148
2276.49019,0.01092
2274.43002,0.01051
2272.36984,0.01032
2270.30967,0.01035
2268.24950,0.01034
2266.18933,0.01004
2264.12916,0.00967
2262.06898,0.00960
2260.00881,0.00953
2257.94864,0.00945
2255.88847,0.00971
2253.82830,0.00993
2251.76812,0.00960
2249.70795,0.00942
2247.64778,0.00969
2245.58761,0.00916
2243.52744,0.00817
2241.46726,0.00801
2239.40709,0.00840
2237.34692,0.00841
2235.28675,0.00819
2233.22657,0.00855
2231.16640,0.00899
2229.10623,0.00819
2227.04606,0.00706
2224.98589,0.00734
2222.92571,0.00832
2220.86554,0.00811
2218.80537,0.00710
2216.74520,0.00669
2214.68503,0.00720
2212.62485,0.00818
2210.56468,0.00820
2208.50451,0.00720
2206.44434,0.00642
2204.38417,0.00651
2202.32399,0.00753
2200.26382,0.00833
2198.20365,0.00781
2196.14348,0.00728
2194.08330,0.00774
2192.02313,0.00777
2189.96296,0.00723
2187.90279,0.00720
2185.84262,0.00784
2183.78244,0.00783
2181.72227,0.00665
2179.66210,0.00663
2177.60193,0.00791
2175.54176,0.00863
2173.48158,0.00827
2171.42141,0.00709
2169.36124,0.00653
2167.30107,0.00712
2165.24089,0.00792
2163.18072,0.00837
2161.12055,0.00780
2159.06038,0.00600
2157.00021,0.00424
2154.94003,0.00377
2152.87986,0.00434
2150.81969,0.00505
2148.75952,0.00533
2146.69935,0.00490
2144.63917,0.00444
2142.57900,0.00430
2140.51883,0.00425
2138.45866,0.00466
2136.39849,0.00511
2134.33831,0.00510
2132.27814,0.00516
2130.21797,0.00512
2128.15780,0.00498
2126.09762,0.00526
2124.03745,0.00569
2121.97728,0.00581
2119.91711,0.00548
2117.85694,0.00485
2115.79676,0.00466
2113.73659,0.00519
2111.67642,0.00564
2109.61625,0.00607
2107.55608,0.00677
2105.49590,0.00706
2103.43573,0.00694
2101.37556,0.00668
2099.31539,0.00616
2097.25521,0.00547
2095.19504,0.00521
2093.13487,0.00544
2091.07470,0.00487
2089.01453,0.00387
2086.95435,0.00405
2084.89418,0.00485
2082.83401,0.00479
2080.77384,0.00406
2078.71367,0.00381
2076.65349,0.00415
2074.59332,0.00438
2072.53315,0.00471
2070.47298,0.00519
2068.41281,0.00511
2066.35263,0.00458
2064.29246,0.00426
2062.23229,0.00445
2060.17212,0.00460
2058.11194,0.00382
2056.05177,0.00283
2053.99160,0.00294
2051.93143,0.00324
2049.87126,0.00277
2047.81108,0.00279
2045.75091,0.00354
2043.69074,0.00358
2041.63057,0.00312
2039.57040,0.00280
2037.51022,0.00248
2035.45005,0.00272
2033.38988,0.00317
2031.32971,0.00284
2029.26954,0.00253
2027.20936,0.00255
2025.14919,0.00260
2023.08902,0.00299
2021.02885,0.00350
2018.96867,0.00356
2016.90850,0.00298
2014.84833,0.00254
2012.78816,0.00225
2010.72799,0.00219
2008.66781,0.00309
2006.60764,0.00315
2004.54747,0.00194
2002.48730,0.00201
2000.42713,0.00303
1998.36695,0.00302
1996.30678,0.00254
1994.24661,0.00359
1992.18644,0.00534
1990.12626,0.00500
1988.06609,0.00333
1986.00592,0.00282
1983.94575,0.00352
1981.88558,0.00385
1979.82540,0.00269
1977.76523,0.00134
1975.70506,0.00140
1973.64489,0.00174
1971.58472,0.00176
1969.52454,0.00173
1967.46437,0.00106
1965.40420,0.00026
1963.34403,0.00031
1961.28386,0.00089
1959.22368,0.00145
1957.16351,0.00212
1955.10334,0.00288
1953.04317,0.00318
1950.98299,0.00295
1948.92282,0.00239
1946.86265,0.00167
1944.80248,0.00188
1942.74231,0.00313
1940.68213,0.00384
1938.62196,0.00398
1936.56179,0.00460
1934.50162,0.00514
1932.44145,0.00463
1930.38127,0.00369
1928.32110,0.00275
1926.26093,0.00182
1924.20076,0.00183
1922.14059,0.00290
1920.08041,0.00359
1918.02024,0.00333
1915.96007,0.00305
1913.89990,0.00315
1911.83972,0.00318
1909.77955,0.00300
1907.71938,0.00266
1905.65921,0.00244
1903.59904,0.00257
1901.53886,0.00272
1899.47869,0.00259
1897.41852,0.00233
1895.35835,0.00248
1893.29818,0.00321
1891.23800,0.00375
1889.17783,0.00361
1887.11766,0.00327
1885.05749,0.00314
1882.99731,0.00298
1880.93714,0.00278
1878.87697,0.00269
1876.81680,0.00261
1874.75663,0.00262
1872.69645,0.00275
1870.63628,0.00264
1868.57611,0.00238
1866.51594,0.00262
1864.45577,0.00317
1862.39559,0.00337
1860.33542,0.00305
1858.27525,0.00260
1856.21508,0.00237
1854.15491,0.00238
1852.09473,0.00252
1850.03456,0.00263
1847.97439,0.00261
1845.91422,0.00263
1843.85404,0.00284
1841.79387,0.00308
1839.73370,0.00319
1837.67353,0.00307
1835.61336,0.00279
1833.55318,0.00261
1831.49301,0.00261
1829.43284,0.00280
1827.37267,0.00313
1825.31250,0.00348
1823.25232,0.00380
1821.19215,0.00400
1819.13198,0.00401
1817.07181,0.00380
1815.01163,0.00360
1812.95146,0.00359
1810.89129,0.00357
1808.83112,0.00349
1806.77095,0.00353
1804.71077,0.00359
1802.65060,0.00355
1800.59043,0.00362
1798.53026,0.00381
1796.47009,0.00376
1794.40991,0.00340
1792.34974,0.00316
1790.28957,0.00341
1788.22940,0.00382
1786.16923,0.00392
1784.10905,0.00386
1782.04888,0.00392
1779.98871,0.00412
1777.92854,0.00434
1775.86836,0.00434
1773.80819,0.00398
1771.74802,0.00364
1769.68785,0.00384
1767.62768,0.00431
1765.56750,0.00461
1763.50733,0.00467
1761.44716,0.00472
1759.38699,0.00503
1757.32682,0.00544
1755.26664,0.00570
1753.20647,0.00568
1751.14630,0.00552
1749.08613,0.00561
1747.02596,0.00607
1744.96578,0.00653
1742.90561,0.00669
1740.84544,0.00666
1738.78527,0.00672
1736.72509,0.00688
1734.66492,0.00690
1732.60475,0.00691
1730.54458,0.00715
1728.48441,0.00748
1726.42423,0.00767
1724.36406,0.00775
1722.30389,0.00792
1720.24372,0.00804
1718.18355,0.00780
1716.12337,0.00775
1714.06320,0.00835
1712.00303,0.00900
1709.94286,0.00935
1707.88268,0.00943
1705.82251,0.00939
1703.76234,0.00966
1701.70217,0.01022
1699.64200,0.01073
1697.58182,0.01104
1695.52165,0.01128
1693.46148,0.01187
1691.40131,0.01272
1689.34114,0.01343
1687.28096,0.01375
1685.22079,0.01365
1683.16062,0.01370
1681.10045,0.01437
1679.04028,0.01512
1676.98010,0.01557
1674.91993,0.01595
1672.85976,0.01645
1670.79959,0.01676
1668.73941,0.01683
1666.67924,0.01709
1664.61907,0.01748
1662.55890,0.01786
1660.49873,0.01848
1658.43855,0.01925
1656.37838,0.01966
1654.31821,0.01922
1652.25804,0.01851
1650.19787,0.01855
1648.13769,0.01874
1646.07752,0.01879
1644.01735,0.01907
1641.95718,0.01937
1639.89701,0.01952
1637.83683,0.01939
1635.77666,0.01892
1633.71649,0.01863
1631.65632,0.01876
1629.59614,0.01877
1627.53597,0.01846
1625.47580,0.01814
1623.41563,0.01793
1621.35546,0.01798
1619.29528,0.01806
1617.23511,0.01776
1615.17494,0.01747
1613.11477,0.01752
1611.05460,0.01744
1608.99442,0.01707
1606.93425,0.01665
1604.87408,0.01620
1602.81391,0.01575
1600.75373,0.01551
1598.69356,0.01537
1596.63339,0.01501
1594.57322,0.01450
1592.51305,0.01405
1590.45287,0.01359
1588.39270,0.01307
1586.33253,0.01267
1584.27236,0.01241
1582.21219,0.01212
1580.15201,0.01168
1578.09184,0.01096
1576.03167,0.01018
1573.97150,0.00991
1571.91133,0.00982
1569.85115,0.00939
1567.79098,0.00892
1565.73081,0.00877
1563.67064,0.00870
1561.61046,0.00834
1559.55029,0.00749
1557.49012,0.00703
1555.42995,0.00732
1553.36978,0.00740
1551.30960,0.00708
1549.24943,0.00677
1547.18926,0.00650
1545.12909,0.00598
1543.06892,0.00504
1541.00874,0.00395
1538.94857,0.00359
1536.88840,0.00405
1534.82823,0.00436
1532.76805,0.00432
1530.70788,0.00428
1528.64771,0.00413
1526.58754,0.00379
1524.52737,0.00355
1522.46719,0.00333
1520.40702,0.00301
1518.34685,0.00289
1516.28668,0.00312
1514.22651,0.00342
1512.16633,0.00331
1510.10616,0.00257
1508.04599,0.00157
1505.98582,0.00130
1503.92565,0.00192
1501.86547,0.00246
1499.80530,0.00255
1497.74513,0.00229
1495.68496,0.00199
1493.62478,0.00193
1491.56461,0.00187
1489.50444,0.00162
1487.44427,0.00160
1485.38410,0.00198
1483.32392,0.00234
1481.26375,0.00249
1479.20358,0.00257
1477.14341,0.00258
1475.08324,0.00247
1473.02306,0.00252
1470.96289,0.00304
1468.90272,0.00372
1466.84255,0.00411
1464.78238,0.00415
1462.72220,0.00416
1460.66203,0.00426
1458.60186,0.00423
1456.54169,0.00412
1454.48151,0.00421
1452.42134,0.00439
1450.36117,0.00451
1448.30100,0.00458
1446.24083,0.00463
1444.18065,0.00461
1442.12048,0.00445
1440.06031,0.00414
1438.00014,0.00374
1435.93997,0.00354
1433.87979,0.00368
1431.81962,0.00387
1429.75945,0.00397
1427.69928,0.00406
1425.63910,0.00419
1423.57893,0.00441
1421.51876,0.00455
1419.45859,0.00449
1417.39842,0.00453
1415.33824,0.00479
1413.27807,0.00489
1411.21790,0.00474
1409.15773,0.00458
1407.09756,0.00444
1405.03738,0.00424
1402.97721,0.00408
1400.91704,0.00397
1398.85687,0.00377
1396.79670,0.00365
1394.73652,0.00374
1392.67635,0.00392
1390.61618,0.00410
1388.55601,0.00421
1386.49583,0.00430
1384.43566,0.00450
1382.37549,0.00474
1380.31532,0.00483
1378.25515,0.00484
1376.19497,0.00488
1374.13480,0.00494
1372.07463,0.00498
1370.01446,0.00499
1367.95429,0.00495
1365.89411,0.00479
1363.83394,0.00447
1361.77377,0.00415
1359.71360,0.00399
1357.65343,0.00390
1355.59325,0.00391
1353.53308,0.00401
1351.47291,0.00403
1349.41274,0.00389
1347.35256,0.00375
1345.29239,0.00377
1343.23222,0.00383
1341.17205,0.00373
1339.11188,0.00352
1337.05170,0.00346
1334.99153,0.00352
1332.93136,0.00351
1330.87119,0.00343
1328.81102,0.00335
1326.75084,0.00329
1324.69067,0.00327
1322.63050,0.00324
1320.57033,0.00314
1318.51015,0.00296
1316.44998,0.00281
1314.38981,0.00286
1312.32964,0.00304
1310.26947,0.00314
1308.20929,0.00309
1306.14912,0.00295
1304.08895,0.00271
1302.02878,0.00255
1299.96861,0.00257
1297.90843,0.00265
1295.84826,0.00281
1293.78809,0.00300
1291.72792,0.00301
1289.66775,0.00294
1287.60757,0.00301
1285.54740,0.00310
1283.48723,0.00305
1281.42706,0.00298
1279.36688,0.00299
1277.30671,0.00310
1275.24654,0.00328
1273.18637,0.00340
1271.12620,0.00340
1269.06602,0.00336
1267.00585,0.00333
1264.94568,0.00337
1262.88551,0.00344
1260.82534,0.00341
1258.76516,0.00326
1256.70499,0.00314
1254.64482,0.00306
1252.58465,0.00298
1250.52447,0.00288
1248.46430,0.00279
1246.40413,0.00272
1244.34396,0.00261
1242.28379,0.00246
1240.22361,0.00222
1238.16344,0.00200
1236.10327,0.00189
1234.04310,0.00179
1231.98293,0.00179
1229.92275,0.00182
1227.86258,0.00171
1225.80241,0.00166
1223.74224,0.00167
1221.68207,0.00147
1219.62189,0.00115
1217.56172,0.00091
1215.50155,0.00074
1213.44138,0.00068
1211.38120,0.00060
1209.32103,0.00035
1207.26086,0.00011
1205.20069,0.00006
1203.14052,0.00009
1201.08034,0.00015
1199.02017,0.00028
1196.96000,0.00050
1194.89983,0.00072
1192.83966,0.00091
1190.77948,0.00113
1188.71931,0.00156
1186.65914,0.00220
1184.59897,0.00271
1182.53880,0.00309
1180.47862,0.00367
1178.41845,0.00459
1176.35828,0.00569
1174.29811,0.00674
1172.23793,0.00763
1170.17776,0.00846
1168.11759,0.00934
1166.05742,0.01024
1163.99725,0.01099
1161.93707,0.01176
1159.87690,0.01258
1157.81673,0.01323
1155.75656,0.01383
1153.69639,0.01451
1151.63621,0.01526
1149.57604,0.01604
1147.51587,0.01681
1145.45570,0.01762
1143.39552,0.01862
1141.33535,0.01989
1139.27518,0.02111
1137.21501,0.02199
1135.15484,0.02280
1133.09466,0.02391
1131.03449,0.02509
1128.97432,0.02608
1126.91415,0.02704
1124.85398,0.02806
1122.79380,0.02910
1120.73363,0.03009
1118.67346,0.03114
1116.61329,0.03240
1114.55312,0.03365
1112.49294,0.03478
1110.43277,0.03580
1108.37260,0.03688
1106.31243,0.03823
1104.25225,0.03965
1102.19208,0.04091
1100.13191,0.04222
1098.07174,0.04365
1096.01157,0.04498
1093.95139,0.04623
1091.89122,0.04742
1089.83105,0.04862
1087.77088,0.04977
1085.71071,0.05068
1083.65053,0.05168
1081.59036,0.05288
1079.53019,0.05405
1077.47002,0.05518
1075.40985,0.05599
1073.34967,0.05646
1071.28950,0.05691
1069.22933,0.05730
1067.16916,0.05763
1065.10898,0.05813
1063.04881,0.05861
1060.98864,0.05870
1058.92847,0.05850
1056.86830,0.05818
1054.80812,0.05772
1052.74795,0.05726
1050.68778,0.05694
1048.62761,0.05647
1046.56744,0.05558
1044.50726,0.05452
1042.44709,0.05357
1040.38692,0.05277
1038.32675,0.05192
1036.26657,0.05072
1034.20640,0.04919
1032.14623,0.04763
1030.08606,0.04629
1028.02589,0.04537
1025.96571,0.04461
1023.90554,0.04369
1021.84537,0.04281
1019.78520,0.04206
1017.72503,0.04105
1015.66485,0.03979
1013.60468,0.03872
1011.54451,0.03800
1009.48434,0.03772
1007.42417,0.03764
1005.36399,0.03738
1003.30382,0.03692
1001.24365,0.03656
999.18348,0.03660
997.12330,0.03695
995.06313,0.03763
993.00296,0.03860
990.94279,0.03940
988.88262,0.04005
986.82244,0.04075
984.76227,0.04124
982.70210,0.04112
980.64193,0.04036
978.58176,0.03943
976.52158,0.03855
974.46141,0.03757
972.40124,0.03624
970.34107,0.03469
968.28089,0.03324
966.22072,0.03171
964.16055,0.03000
962.10038,0.02844
960.04021,0.02721
957.98003,0.02618
955.91986,0.02507
953.85969,0.02395
951.79952,0.02321
949.73935,0.02284
947.67917,0.02246
945.61900,0.02216
943.55883,0.02207
941.49866,0.02198
939.43849,0.02173
937.37831,0.02166
935.31814,0.02199
933.25797,0.02213
931.19780,0.02175
929.13762,0.02143
927.07745,0.02137
925.01728,0.02113
922.95711,0.02049
920.89694,0.01964
918.83676,0.01904
916.77659,0.01879
914.71642,0.01839
912.65625,0.01761
910.59608,0.01680
908.53590,0.01615
906.47573,0.01576
904.41556,0.01568
902.35539,0.01576
900.29522,0.01571
898.23504,0.01536
896.17487,0.01510
894.11470,0.01529
892.05453,0.01575
889.99435,0.01611
887.93418,0.01616
885.87401,0.01604
883.81384,0.01629
881.75367,0.01699
879.69349,0.01765
877.63332,0.01801
875.57315,0.01816
873.51298,0.01838
871.45281,0.01877
869.39263,0.01912
867.33246,0.01940
865.27229,0.01966
863.21212,0.01983
861.15194,0.01964
859.09177,0.01900
857.03160,0.01847
854.97143,0.01842
852.91126,0.01848
850.85108,0.01816
848.79091,0.01755
846.73074,0.01700
844.67057,0.01636
842.61040,0.01558
840.55022,0.01499
838.49005,0.01462
836.42988,0.01416
834.36971,0.01353
832.30954,0.01284
830.24936,0.01236
828.18919,0.01224
826.12902,0.01188
824.06885,0.01110
822.00867,0.01047
819.94850,0.01009
817.88833,0.00952
815.82816,0.00894
813.76799,0.00854
811.70781,0.00811
809.64764,0.00797
807.58747,0.00820
805.52730,0.00803
803.46713,0.00735
801.40695,0.00697
799.34678,0.00693
797.28661,0.00664
795.22644,0.00614
793.16627,0.00596
791.10609,0.00598
789.04592,0.00570
786.98575,0.00570
784.92558,0.00621
782.86540,0.00659
780.80523,0.00675
778.74506,0.00661
776.68489,0.00603
774.62472,0.00560
772.56454,0.00581
770.50437,0.00614
768.44420,0.00629
766.38403,0.00679
764.32386,0.00730
762.26368,0.00690
760.20351,0.00589
758.14334,0.00505
756.08317,0.00464
754.02299,0.00466
751.96282,0.00492
749.90265,0.00505
747.84248,0.00498
745.78231,0.00478
743.72213,0.00412
741.66196,0.00366
739.60179,0.00420
737.54162,0.00478
735.48145,0.00451
733.42127,0.00402
731.36110,0.00399
729.30093,0.00455
727.24076,0.00511
725.18059,0.00485
723.12041,0.00479
721.06024,0.00454
719.00007,0.00516
716.93990,0.00557
714.87972,0.00556
712.81955,0.00580
710.75938,0.00609
708.69921,0.00568
706.63904,0.00469
704.57886,0.00437
702.51869,0.00513
700.45852,0.00610
698.39835,0.00668
696.33818,0.00681
694.27800,0.00625
692.21783,0.00546
690.15766,0.00548
688.09749,0.00596
686.03731,0.00586
683.97714,0.00555
681.91697,0.00576
679.85680,0.00599
677.79663,0.00580
675.73645,0.00589
673.67628,0.00782
671.61611,0.01080
669.55594,0.00559
667.49577,0.00001
665.43559,0.00888
663.37542,0.00761
661.31525,0.00535
659.25508,0.00547
657.19491,0.00547
655.13473,0.00465
653.07456,0.00406
651.01439,0.00426
648.95422,0.00508
646.89404,0.00656
644.83387,0.00734
642.77370,0.00724
640.71353,0.00578
638.65336,0.00370
636.59318,0.00287
634.53301,0.00329
632.47284,0.00367
630.41267,0.00461
628.35250,0.00675
626.29232,0.00791
624.23215,0.00578
622.17198,0.00317
620.11181,0.00240
618.05164,0.00375
615.99146,0.00502
613.93129,0.00362
611.87112,0.00277
609.81095,0.00492
607.75077,0.00628
605.69060,0.00473
603.63043,0.00264
601.57026,0.00158
599.51009,0.00000
