3996.73391,0.00077
3994.67373,0.00024
3992.61356,0.00000
3990.55339,0.00007
3988.49322,0.00021
3986.43305,0.00045
3984.37287,0.00065
3982.31270,0.00066
3980.25253,0.00058
3978.19236,0.00063
3976.13219,0.00068
3974.07201,0.00055
3972.01184,0.00050
3969.95167,0.00059
3967.89150,0.00047
3965.83133,0.00028
3963.77115,0.00049
3961.71098,0.00074
3959.65081,0.00064
3957.59064,0.00065
3955.53046,0.00088
3953.47029,0.00097
3951.41012,0.00093
3949.34995,0.00085
3947.28978,0.00073
3945.22960,0.00101
3943.16943,0.00152
3941.10926,0.00147
3939.04909,0.00130
3936.98892,0.00120
3934.92874,0.00112
3932.86857,0.00134
3930.80840,0.00143
3928.74823,0.00113
3926.68805,0.00102
3924.62788,0.00106
3922.56771,0.00083
3920.50754,0.00088
3918.44737,0.00124
3916.38719,0.00123
3914.32702,0.00090
3912.26685,0.00083
3910.20668,0.00084
3908.14651,0.00085
3906.08633,0.00125
3904.02616,0.00157
3901.96599,0.00150
3899.90582,0.00144
3897.84565,0.00075
3895.78547,0.00021
3893.72530,0.00096
3891.66513,0.00168
3889.60496,0.00098
3887.54478,0.00098
3885.48461,0.00158
3883.42444,0.00116
3881.36427,0.00115
3879.30410,0.00075
3877.24392,0.00020
3875.18375,0.00074
3873.12358,0.00103
3871.06341,0.00143
3869.00324,0.00137
3866.94306,0.00105
3864.88289,0.00155
3862.82272,0.00123
3860.76255,0.00040
3858.70237,0.00005
3856.64220,0.00106
3854.58203,0.00334
3852.52186,0.00316
3850.46169,0.00082
3848.40151,0.00000
3846.34134,0.00046
3844.28117,0.00092
3842.22100,0.00076
3840.16083,0.00071
3838.10065,0.00076
3836.04048,0.00042
3833.98031,0.00049
3831.92014,0.00077
3829.85997,0.00066
3827.79979,0.00076
3825.73962,0.00071
3823.67945,0.00116
3821.61928,0.00209
3819.55910,0.00100
3817.49893,0.00056
3815.43876,0.00094
3813.37859,0.00039
3811.31842,0.00042
3809.25824,0.00124
3807.19807,0.00143
3805.13790,0.00024
3803.07773,0.00046
3801.01756,0.00109
3798.95738,0.00066
3796.89721,0.00133
3794.83704,0.00171
3792.77687,0.00147
3790.71670,0.00152
3788.65652,0.00177
3786.59635,0.00223
3784.53618,0.00235
3782.47601,0.00214
3780.41583,0.00235
3778.35566,0.00197
3776.29549,0.00106
3774.23532,0.00083
3772.17515,0.00145
3770.11497,0.00213
3768.05480,0.00205
3765.99463,0.00211
3763.93446,0.00190
3761.87429,0.00179
3759.81411,0.00212
3757.75394,0.00168
3755.69377,0.00103
3753.63360,0.00169
3751.57342,0.00257
3749.51325,0.00124
3747.45308,0.00000
3745.39291,0.00141
3743.33274,0.00154
3741.27256,0.00014
3739.21239,0.00034
3737.15222,0.00177
3735.09205,0.00245
3733.03188,0.00165
3730.97170,0.00059
3728.91153,0.00053
3726.85136,0.00143
3724.79119,0.00174
3722.73102,0.00173
3720.67084,0.00194
3718.61067,0.00198
3716.55050,0.00156
3714.49033,0.00149
3712.43015,0.00207
3710.36998,0.00199
3708.30981,0.00128
3706.24964,0.00105
3704.18947,0.00171
3702.12929,0.00265
3700.06912,0.00281
3698.00895,0.00240
3695.94878,0.00158
3693.88861,0.00095
3691.82843,0.00175
3689.76826,0.00319
3687.70809,0.00318
3685.64792,0.00240
3683.58775,0.00234
3681.52757,0.00230
3679.46740,0.00209
3677.40723,0.00297
3675.34706,0.00347
3673.28688,0.00176
3671.22671,0.00206
3669.16654,0.00316
3667.10637,0.00278
3665.04620,0.00271
3662.98602,0.00294
3660.92585,0.00308
3658.86568,0.00375
3656.80551,0.00451
3654.74534,0.00373
3652.68516,0.00338
3650.62499,0.00486
3648.56482,0.00562
3646.50465,0.00496
3644.44447,0.00463
3642.38430,0.00519
3640.32413,0.00566
3638.26396,0.00583
3636.20379,0.00604
3634.14361,0.00621
3632.08344,0.00656
3630.02327,0.00802
3627.96310,0.00836
3625.90293,0.00723
3623.84275,0.00728
3621.78258,0.00842
3619.72241,0.00907
3617.66224,0.00823
3615.60207,0.00784
3613.54189,0.00874
3611.48172,0.00954
3609.42155,0.01021
3607.36138,0.01031
3605.30120,0.00999
3603.24103,0.01061
3601.18086,0.01154
3599.12069,0.01167
3597.06052,0.01163
3595.00034,0.01191
3592.94017,0.01210
3590.88000,0.01262
3588.81983,0.01370
3586.75966,0.01397
3584.69948,0.01352
3582.63931,0.01374
3580.57914,0.01424
3578.51897,0.01473
3576.45879,0.01531
3574.39862,0.01531
3572.33845,0.01474
3570.27828,0.01488
3568.21811,0.01599
3566.15793,0.01644
3564.09776,0.01626
3562.03759,0.01672
3559.97742,0.01729
3557.91725,0.01737
3555.85707,0.01741
3553.79690,0.01776
3551.73673,0.01802
3549.67656,0.01823
3547.61639,0.01881
3545.55621,0.01911
3543.49604,0.01889
3541.43587,0.01908
3539.37570,0.01991
3537.31552,0.02070
3535.25535,0.02092
3533.19518,0.02091
3531.13501,0.02110
3529.07484,0.02132
3527.01466,0.02142
3524.95449,0.02166
3522.89432,0.02201
3520.83415,0.02229
3518.77398,0.02256
3516.71380,0.02281
3514.65363,0.02321
3512.59346,0.02382
3510.53329,0.02436
3508.47312,0.02459
3506.41294,0.02498
3504.35277,0.02569
3502.29260,0.02594
3500.23243,0.02593
3498.17225,0.02618
3496.11208,0.02640
3494.05191,0.02638
3491.99174,0.02632
3489.93157,0.02661
3487.87139,0.02723
3485.81122,0.02787
3483.75105,0.02855
3481.69088,0.02891
3479.63071,0.02850
3477.57053,0.02805
3475.51036,0.02826
3473.45019,0.02873
3471.39002,0.02910
3469.32984,0.02936
3467.26967,0.02941
3465.20950,0.02946
3463.14933,0.03004
3461.08916,0.03066
3459.02898,0.03076
3456.96881,0.03069
3454.90864,0.03079
3452.84847,0.03098
3450.78830,0.03119
3448.72812,0.03165
3446.66795,0.03194
3444.60778,0.03170
3442.54761,0.03159
3440.48744,0.03164
3438.42726,0.03174
3436.36709,0.03215
3434.30692,0.03299
3432.24675,0.03363
3430.18657,0.03351
3428.12640,0.03319
3426.06623,0.03339
3424.00606,0.03402
3421.94589,0.03442
3419.88571,0.03418
3417.82554,0.03401
3415.76537,0.03432
3413.70520,0.03462
3411.64503,0.03491
3409.58485,0.03535
3407.52468,0.03558
3405.46451,0.03563
3403.40434,0.03589
3401.34416,0.03623
3399.28399,0.03618
3397.22382,0.03580
3395.16365,0.03581
3393.10348,0.03621
3391.04330,0.03651
3388.98313,0.03689
3386.92296,0.03725
3384.86279,0.03719
3382.80262,0.03699
3380.74244,0.03702
3378.68227,0.03725
3376.62210,0.03755
3374.56193,0.03783
3372.50176,0.03805
3370.44158,0.03821
3368.38141,0.03816
3366.32124,0.03792
3364.26107,0.03787
3362.20089,0.03806
3360.14072,0.03795
3358.08055,0.03765
3356.02038,0.03759
3353.96021,0.03789
3351.90003,0.03844
3349.83986,0.03871
3347.77969,0.03863
3345.71952,0.03879
3343.65935,0.03910
3341.59917,0.03917
3339.53900,0.03924
3337.47883,0.03942
3335.41866,0.03946
3333.35849,0.03943
3331.29831,0.03937
3329.23814,0.03926
3327.17797,0.03928
3325.11780,0.03926
3323.05762,0.03902
3320.99745,0.03896
3318.93728,0.03916
3316.87711,0.03938
3314.81694,0.03957
3312.75676,0.03983
3310.69659,0.04010
3308.63642,0.04012
3306.57625,0.03991
3304.51608,0.03982
3302.45590,0.03988
3300.39573,0.03997
3298.33556,0.04013
3296.27539,0.04048
3294.21521,0.04095
3292.15504,0.04107
3290.09487,0.04078
3288.03470,0.04059
3285.97453,0.04058
3283.91435,0.04059
3281.85418,0.04068
3279.79401,0.04082
3277.73384,0.04093
3275.67367,0.04080
3273.61349,0.04058
3271.55332,0.04064
3269.49315,0.04075
3267.43298,0.04059
3265.37281,0.04041
3263.31263,0.04044
3261.25246,0.04061
3259.19229,0.04079
3257.13212,0.04085
3255.07194,0.04070
3253.01177,0.04051
3250.95160,0.04049
3248.89143,0.04051
3246.83126,0.04051
3244.77108,0.04059
3242.71091,0.04076
3240.65074,0.04101
3238.59057,0.04106
3236.53040,0.04087
3234.47022,0.04100
3232.41005,0.04141
3230.34988,0.04148
3228.28971,0.04118
3226.22954,0.04081
3224.16936,0.04059
3222.10919,0.04069
3220.04902,0.04110
3217.98885,0.04143
3215.92867,0.04152
3213.86850,0.04145
3211.80833,0.04107
3209.74816,0.04056
3207.68799,0.04027
3205.62781,0.04030
3203.56764,0.04036
3201.50747,0.04039
3199.44730,0.04057
3197.38713,0.04065
3195.32695,0.04041
3193.26678,0.04020
3191.20661,0.04019
3189.14644,0.04017
3187.08626,0.04003
3185.02609,0.03991
3182.96592,0.03986
3180.90575,0.03982
3178.84558,0.03977
3176.78540,0.03960
3174.72523,0.03933
3172.66506,0.03917
3170.60489,0.03937
3168.54472,0.03973
3166.48454,0.03976
3164.42437,0.03958
3162.36420,0.03956
3160.30403,0.03956
3158.24386,0.03953
3156.18368,0.03930
3154.12351,0.03875
3152.06334,0.03834
3150.00317,0.03828
3147.94299,0.03839
3145.88282,0.03850
3143.82265,0.03837
3141.76248,0.03794
3139.70231,0.03757
3137.64213,0.03739
3135.58196,0.03730
3133.52179,0.03734
3131.46162,0.03743
3129.40145,0.03741
3127.34127,0.03728
3125.28110,0.03720
3123.22093,0.03722
3121.16076,0.03706
3119.10058,0.03676
3117.04041,0.03662
3114.98024,0.03663
3112.92007,0.03653
3110.85990,0.03622
3108.79972,0.03589
3106.73955,0.03577
3104.67938,0.03559
3102.61921,0.03514
3100.55904,0.03474
3098.49886,0.03478
3096.43869,0.03514
3094.37852,0.03521
3092.31835,0.03500
3090.25818,0.03481
3088.19800,0.03465
3086.13783,0.03446
3084.07766,0.03431
3082.01749,0.03408
3079.95731,0.03370
3077.89714,0.03352
3075.83697,0.03361
3073.77680,0.03354
3071.71663,0.03335
3069.65645,0.03323
3067.59628,0.03309
3065.53611,0.03283
3063.47594,0.03260
3061.41577,0.03244
3059.35559,0.03214
3057.29542,0.03185
3055.23525,0.03178
3053.17508,0.03180
3051.11491,0.03188
3049.05473,0.03190
3046.99456,0.03177
3044.93439,0.03148
3042.87422,0.03111
3040.81404,0.03081
3038.75387,0.03069
3036.69370,0.03061
3034.63353,0.03039
3032.57336,0.03002
3030.51318,0.02963
3028.45301,0.02934
3026.39284,0.02923
3024.33267,0.02916
3022.27250,0.02885
3020.21232,0.02849
3018.15215,0.02840
3016.09198,0.02839
3014.03181,0.02838
3011.97163,0.02829
3009.91146,0.02797
3007.85129,0.02767
3005.79112,0.02751
3003.73095,0.02742
3001.67077,0.02733
2999.61060,0.02702
2997.55043,0.02662
2995.49026,0.02661
2993.43009,0.02689
2991.36991,0.02697
2989.30974,0.02670
2987.24957,0.02638
2985.18940,0.02632
2983.12923,0.02634
2981.06905,0.02609
2979.00888,0.02572
2976.94871,0.02550
2974.88854,0.02547
2972.82836,0.02549
2970.76819,0.02553
2968.70802,0.02547
2966.64785,0.02530
2964.58768,0.02501
2962.52750,0.02461
2960.46733,0.02437
2958.40716,0.02451
2956.34699,0.02480
2954.28682,0.02493
2952.22664,0.02486
2950.16647,0.02483
2948.10630,0.02491
2946.04613,0.02488
2943.98596,0.02472
2941.92578,0.02476
2939.86561,0.02491
2937.80544,0.02478
2935.74527,0.02450
2933.68509,0.02433
2931.62492,0.02423
2929.56475,0.02414
2927.50458,0.02408
2925.44441,0.02396
2923.38423,0.02367
2921.32406,0.02334
2919.26389,0.02319
2917.20372,0.02313
2915.14355,0.02297
2913.08337,0.02279
2911.02320,0.02270
2908.96303,0.02274
2906.90286,0.02290
2904.84268,0.02298
2902.78251,0.02280
2900.72234,0.02259
2898.66217,0.02256
2896.60200,0.02249
2894.54182,0.02227
2892.48165,0.02201
2890.42148,0.02185
2888.36131,0.02187
2886.30114,0.02199
2884.24096,0.02209
2882.18079,0.02204
2880.12062,0.02180
2878.06045,0.02168
2876.00028,0.02181
2873.94010,0.02185
2871.87993,0.02161
2869.81976,0.02139
2867.75959,0.02136
2865.69941,0.02145
2863.63924,0.02143
2861.57907,0.02129
2859.51890,0.02122
2857.45873,0.02108
2855.39855,0.02073
2853.33838,0.02035
2851.27821,0.02013
2849.21804,0.01999
2847.15787,0.01991
2845.09769,0.02002
2843.03752,0.02018
2840.97735,0.02014
2838.91718,0.01987
2836.85700,0.01957
2834.79683,0.01947
2832.73666,0.01943
2830.67649,0.01935
2828.61632,0.01937
2826.55614,0.01937
2824.49597,0.01917
2822.43580,0.01895
2820.37563,0.01884
2818.31546,0.01870
2816.25528,0.01849
2814.19511,0.01849
2812.13494,0.01877
2810.07477,0.01884
2808.01460,0.01853
2805.95442,0.01830
2803.89425,0.01828
2801.83408,0.01825
2799.77391,0.01823
2797.71373,0.01810
2795.65356,0.01781
2793.59339,0.01756
2791.53322,0.01741
2789.47305,0.01734
2787.41287,0.01747
2785.35270,0.01763
2783.29253,0.01752
2781.23236,0.01720
2779.17219,0.01690
2777.11201,0.01681
2775.05184,0.01688
2772.99167,0.01695
2770.93150,0.01699
2768.87133,0.01693
2766.81115,0.01676
2764.75098,0.01661
2762.69081,0.01650
2760.63064,0.01646
2758.57046,0.01649
2756.51029,0.01645
2754.45012,0.01640
2752.38995,0.01630
2750.32978,0.01611
2748.26960,0.01602
2746.20943,0.01609
2744.14926,0.01612
2742.08909,0.01599
2740.02892,0.01585
2737.96874,0.01586
2735.90857,0.01583
2733.84840,0.01560
2731.78823,0.01534
2729.72805,0.01520
2727.66788,0.01506
2725.60771,0.01485
2723.54754,0.01468
2721.48737,0.01467
2719.42719,0.01469
2717.36702,0.01457
2715.30685,0.01437
2713.24668,0.01420
2711.18651,0.01413
2709.12633,0.01407
2707.06616,0.01394
2705.00599,0.01394
2702.94582,0.01409
2700.88565,0.01409
2698.82547,0.01391
2696.76530,0.01373
2694.70513,0.01365
2692.64496,0.01366
2690.58478,0.01359
2688.52461,0.01337
2686.46444,0.01312
2684.40427,0.01292
2682.34410,0.01278
2680.28392,0.01275
2678.22375,0.01275
2676.16358,0.01255
2674.10341,0.01233
2672.04324,0.01240
2669.98306,0.01252
2667.92289,0.01239
2665.86272,0.01220
2663.80255,0.01221
2661.74238,0.01227
2659.68220,0.01220
2657.62203,0.01206
2655.56186,0.01209
2653.50169,0.01227
2651.44151,0.01225
2649.38134,0.01199
2647.32117,0.01177
2645.26100,0.01165
2643.20083,0.01151
2641.14065,0.01127
2639.08048,0.01099
2637.02031,0.01096
2634.96014,0.01115
2632.89997,0.01119
2630.83979,0.01106
2628.77962,0.01099
2626.71945,0.01101
2624.65928,0.01085
2622.59910,0.01054
2620.53893,0.01043
2618.47876,0.01040
2616.41859,0.01009
2614.35842,0.00967
2612.29824,0.00955
2610.23807,0.00976
2608.17790,0.00993
2606.11773,0.00984
2604.05756,0.00969
2601.99738,0.00968
2599.93721,0.00976
2597.87704,0.00984
2595.81687,0.00973
2593.75670,0.00950
2591.69652,0.00930
2589.63635,0.00917
2587.57618,0.00922
2585.51601,0.00931
2583.45583,0.00929
2581.39566,0.00925
2579.33549,0.00911
2577.27532,0.00883
2575.21515,0.00871
2573.15497,0.00877
2571.09480,0.00877
2569.03463,0.00874
2566.97446,0.00874
2564.91429,0.00886
2562.85411,0.00906
2560.79394,0.00898
2558.73377,0.00872
2556.67360,0.00877
2554.61342,0.00897
2552.55325,0.00886
2550.49308,0.00871
2548.43291,0.00903
2546.37274,0.00951
2544.31256,0.00967
2542.25239,0.00951
2540.19222,0.00911
2538.13205,0.00887
2536.07188,0.00885
2534.01170,0.00870
2531.95153,0.00874
2529.89136,0.00890
2527.83119,0.00884
2525.77102,0.00881
2523.71084,0.00882
2521.65067,0.00887
2519.59050,0.00914
2517.53033,0.00934
2515.47015,0.00936
2513.40998,0.00925
2511.34981,0.00890
2509.28964,0.00877
2507.22947,0.00894
2505.16929,0.00903
2503.10912,0.00911
2501.04895,0.00903
2498.98878,0.00888
2496.92861,0.00904
2494.86843,0.00926
2492.80826,0.00928
2490.74809,0.00927
2488.68792,0.00929
2486.62775,0.00918
2484.56757,0.00908
2482.50740,0.00931
2480.44723,0.00965
2478.38706,0.00972
2476.32688,0.00971
2474.26671,0.00980
2472.20654,0.00989
2470.14637,0.00993
2468.08620,0.00982
2466.02602,0.00961
2463.96585,0.00955
2461.90568,0.00959
2459.84551,0.00961
2457.78534,0.00960
2455.72516,0.00947
2453.66499,0.00931
2451.60482,0.00924
2449.54465,0.00932
2447.48447,0.00955
2445.42430,0.00968
2443.36413,0.00958
2441.30396,0.00963
2439.24379,0.00995
2437.18361,0.01030
2435.12344,0.01046
2433.06327,0.01033
2431.00310,0.01002
2428.94293,0.00978
2426.88275,0.00983
2424.82258,0.00993
2422.76241,0.00996
2420.70224,0.01010
2418.64207,0.01009
2416.58189,0.00993
2414.52172,0.00996
2412.46155,0.01015
2410.40138,0.01042
2408.34120,0.01074
2406.28103,0.01078
2404.22086,0.01036
2402.16069,0.00990
2400.10052,0.00982
2398.04034,0.00975
2395.98017,0.00981
2393.92000,0.00990
2391.85983,0.00985
2389.79966,0.00971
2387.73948,0.00970
2385.67931,0.00983
2383.61914,0.00985
2381.55897,0.00970
2379.49880,0.00959
2377.43862,0.00957
2375.37845,0.00977
2373.31828,0.01051
2371.25811,0.01151
2369.19793,0.01149
2367.13776,0.00982
2365.07759,0.00870
2363.01742,0.01117
2360.95725,0.01527
2358.89707,0.01523
2356.83690,0.01093
2354.77673,0.00791
2352.71656,0.00846
2350.65639,0.01030
2348.59621,0.01144
2346.53604,0.01177
2344.47587,0.01151
2342.41570,0.01084
2340.35552,0.01009
2338.29535,0.00957
2336.23518,0.00981
2334.17501,0.01097
2332.11484,0.01190
2330.05466,0.01188
2327.99449,0.01160
2325.93432,0.01123
2323.87415,0.01073
2321.81398,0.01069
2319.75380,0.01107
2317.69363,0.01138
2315.63346,0.01151
2313.57329,0.01141
2311.51312,0.01106
2309.45294,0.01064
2307.39277,0.01018
2305.33260,0.00961
2303.27243,0.00928
2301.21225,0.00943
2299.15208,0.00988
2297.09191,0.01025
2295.03174,0.01038
2292.97157,0.01039
2290.91139,0.01033
2288.85122,0.01025
2286.79105,0.01021
2284.73088,0.01013
2282.67071,0.00992
2280.61053,0.00955
2278.55036,0.00912
2276.49019,0.00876
2274.43002,0.00853
2272.36984,0.00845
2270.30967,0.00865
2268.24950,0.00918
2266.18933,0.00961
2264.12916,0.00959
2262.06898,0.00922
2260.00881,0.00855
2257.94864,0.00781
2255.88847,0.00749
2253.82830,0.00758
2251.76812,0.00790
2249.70795,0.00823
2247.64778,0.00812
2245.58761,0.00774
2243.52744,0.00742
2241.46726,0.00722
2239.40709,0.00711
2237.34692,0.00657
2235.28675,0.00615
2233.22657,0.00703
2231.16640,0.00809
2229.10623,0.00796
2227.04606,0.00752
2224.98589,0.00697
2222.92571,0.00616
2220.86554,0.00611
2218.80537,0.00697
2216.74520,0.00760
2214.68503,0.00708
2212.62485,0.00612
2210.56468,0.00584
2208.50451,0.00602
2206.44434,0.00597
2204.38417,0.00583
2202.32399,0.00628
2200.26382,0.00718
2198.20365,0.00747
2196.14348,0.00660
2194.08330,0.00547
2192.02313,0.00565
2189.96296,0.00659
2187.90279,0.00668
2185.84262,0.00672
2183.78244,0.00698
2181.72227,0.00666
2179.66210,0.00607
2177.60193,0.00551
2175.54176,0.00516
2173.48158,0.00532
2171.42141,0.00571
2169.36124,0.00560
2167.30107,0.00473
2165.24089,0.00447
2163.18072,0.00573
2161.12055,0.00556
2159.06038,0.00303
2157.00021,0.00104
2154.94003,0.00071
2152.87986,0.00208
2150.81969,0.00397
2148.75952,0.00529
2146.69935,0.00545
2144.63917,0.00448
2142.57900,0.00402
2140.51883,0.00427
2138.45866,0.00444
2136.39849,0.00483
2134.33831,0.00493
2132.27814,0.00454
2130.21797,0.00439
2128.15780,0.00434
2126.09762,0.00448
2124.03745,0.00494
2121.97728,0.00550
2119.91711,0.00602
2117.85694,0.00616
2115.79676,0.00582
2113.73659,0.00533
2111.67642,0.00491
2109.61625,0.00452
2107.55608,0.00462
2105.49590,0.00527
2103.43573,0.00568
2101.37556,0.00599
2099.31539,0.00642
2097.25521,0.00615
2095.19504,0.00503
2093.13487,0.00430
2091.07470,0.00457
2089.01453,0.00521
2086.95435,0.00573
2084.89418,0.00576
2082.83401,0.00506
2080.77384,0.00441
2078.71367,0.00452
2076.65349,0.00457
2074.59332,0.00410
2072.53315,0.00445
2070.47298,0.00535
2068.41281,0.00471
2066.35263,0.00338
2064.29246,0.00348
2062.23229,0.00393
2060.17212,0.00368
2058.11194,0.00368
2056.05177,0.00457
2053.99160,0.00604
2051.93143,0.00654
2049.87126,0.00546
2047.81108,0.00457
2045.75091,0.00478
2043.69074,0.00485
2041.63057,0.00405
2039.57040,0.00346
2037.51022,0.00408
2035.45005,0.00494
2033.38988,0.00490
2031.32971,0.00437
2029.26954,0.00368
2027.20936,0.00302
2025.14919,0.00273
2023.08902,0.00259
2021.02885,0.00198
2018.96867,0.00150
2016.90850,0.00187
2014.84833,0.00190
2012.78816,0.00108
2010.72799,0.00029
2008.66781,0.00000
2006.60764,0.00020
2004.54747,0.00125
2002.48730,0.00266
2000.42713,0.00369
1998.36695,0.00413
1996.30678,0.00397
1994.24661,0.00377
1992.18644,0.00383
1990.12626,0.00402
1988.06609,0.00468
1986.00592,0.00568
1983.94575,0.00625
1981.88558,0.00527
1979.82540,0.00309
1977.76523,0.00203
1975.70506,0.00268
1973.64489,0.00343
1971.58472,0.00372
1969.52454,0.00405
1967.46437,0.00475
1965.40420,0.00499
1963.34403,0.00490
1961.28386,0.00505
1959.22368,0.00466
1957.16351,0.00372
1955.10334,0.00324
1953.04317,0.00337
1950.98299,0.00342
1948.92282,0.00261
1946.86265,0.00135
1944.80248,0.00092
1942.74231,0.00145
1940.68213,0.00166
1938.62196,0.00163
1936.56179,0.00173
1934.50162,0.00191
1932.44145,0.00228
1930.38127,0.00266
1928.32110,0.00254
1926.26093,0.00202
1924.20076,0.00203
1922.14059,0.00235
1920.08041,0.00265
1918.02024,0.00306
1915.96007,0.00295
1913.89990,0.00261
1911.83972,0.00230
1909.77955,0.00229
1907.71938,0.00260
1905.65921,0.00304
1903.59904,0.00326
1901.53886,0.00273
1899.47869,0.00194
1897.41852,0.00187
1895.35835,0.00222
1893.29818,0.00217
1891.23800,0.00237
1889.17783,0.00277
1887.11766,0.00277
1885.05749,0.00290
1882.99731,0.00306
1880.93714,0.00303
1878.87697,0.00298
1876.81680,0.00292
1874.75663,0.00269
1872.69645,0.00238
1870.63628,0.00243
1868.57611,0.00238
1866.51594,0.00188
1864.45577,0.00174
1862.39559,0.00198
1860.33542,0.00216
1858.27525,0.00218
1856.21508,0.00209
1854.15491,0.00221
1852.09473,0.00260
1850.03456,0.00279
1847.97439,0.00254
1845.91422,0.00264
1843.85404,0.00297
1841.79387,0.00250
1839.73370,0.00229
1837.67353,0.00252
1835.61336,0.00250
1833.55318,0.00258
1831.49301,0.00321
1829.43284,0.00331
1827.37267,0.00268
1825.31250,0.00274
1823.25232,0.00293
1821.19215,0.00299
1819.13198,0.00303
1817.07181,0.00277
1815.01163,0.00249
1812.95146,0.00268
1810.89129,0.00302
1808.83112,0.00293
1806.77095,0.00267
1804.71077,0.00255
1802.65060,0.00285
1800.59043,0.00322
1798.53026,0.00289
1796.47009,0.00236
1794.40991,0.00270
1792.34974,0.00339
1790.28957,0.00301
1788.22940,0.00276
1786.16923,0.00333
1784.10905,0.00364
1782.04888,0.00371
1779.98871,0.00369
1777.92854,0.00319
1775.86836,0.00297
1773.80819,0.00359
1771.74802,0.00389
1769.68785,0.00337
1767.62768,0.00312
1765.56750,0.00302
1763.50733,0.00370
1761.44716,0.00429
1759.38699,0.00408
1757.32682,0.00424
1755.26664,0.00407
1753.20647,0.00414
1751.14630,0.00487
1749.08613,0.00486
1747.02596,0.00448
1744.96578,0.00460
1742.90561,0.00496
1740.84544,0.00506
1738.78527,0.00428
1736.72509,0.00417
1734.66492,0.00576
1732.60475,0.00564
1730.54458,0.00489
1728.48441,0.00524
1726.42423,0.00575
1724.36406,0.00603
1722.30389,0.00571
1720.24372,0.00600
1718.18355,0.00706
1716.12337,0.00676
1714.06320,0.00608
1712.00303,0.00630
1709.94286,0.00711
1707.88268,0.00795
1705.82251,0.00797
1703.76234,0.00707
1701.70217,0.00780
1699.64200,0.00878
1697.58182,0.00895
1695.52165,0.00965
1693.46148,0.00915
1691.40131,0.00931
1689.34114,0.00991
1687.28096,0.01032
1685.22079,0.01175
1683.16062,0.01158
1681.10045,0.01028
1679.04028,0.01060
1676.98010,0.01215
1674.91993,0.01301
1672.85976,0.01265
1670.79959,0.01342
1668.73941,0.01375
1666.67924,0.01288
1664.61907,0.01360
1662.55890,0.01494
1660.49873,0.01451
1658.43855,0.01354
1656.37838,0.01413
1654.31821,0.01642
1652.25804,0.01544
1650.19787,0.01273
1648.13769,0.01394
1646.07752,0.01520
1644.01735,0.01426
1641.95718,0.01398
1639.89701,0.01445
1637.83683,0.01551
1635.77666,0.01601
1633.71649,0.01398
1631.65632,0.01270
1629.59614,0.01330
1627.53597,0.01356
1625.47580,0.01349
1623.41563,0.01355
1621.35546,0.01254
1619.29528,0.01241
1617.23511,0.01351
1615.17494,0.01290
1613.11477,0.01199
1611.05460,0.01233
1608.99442,0.01267
1606.93425,0.01245
1604.87408,0.01209
1602.81391,0.01178
1600.75373,0.01136
1598.69356,0.01107
1596.63339,0.01098
1594.57322,0.01071
1592.51305,0.01016
1590.45287,0.00969
1588.39270,0.00936
1586.33253,0.00907
1584.27236,0.00877
1582.21219,0.00827
1580.15201,0.00778
1578.09184,0.00826
1576.03167,0.00836
1573.97150,0.00654
1571.91133,0.00622
1569.85115,0.00719
1567.79098,0.00643
1565.73081,0.00541
1563.67064,0.00481
1561.61046,0.00588
1559.55029,0.00846
1557.49012,0.00640
1555.42995,0.00366
1553.36978,0.00334
1551.30960,0.00384
1549.24943,0.00392
1547.18926,0.00343
1545.12909,0.00335
1543.06892,0.00360
1541.00874,0.00437
1538.94857,0.00333
1536.88840,0.00135
1534.82823,0.00226
1532.76805,0.00331
1530.70788,0.00254
1528.64771,0.00242
1526.58754,0.00232
1524.52737,0.00177
1522.46719,0.00228
1520.40702,0.00210
1518.34685,0.00154
1516.28668,0.00181
1514.22651,0.00143
1512.16633,0.00092
1510.10616,0.00120
1508.04599,0.00300
1505.98582,0.00304
1503.92565,0.00075
1501.86547,0.00030
1499.80530,0.00143
1497.74513,0.00218
1495.68496,0.00144
1493.62478,0.00052
1491.56461,0.00139
1489.50444,0.00240
1487.44427,0.00187
1485.38410,0.00126
1483.32392,0.00151
1481.26375,0.00179
1479.20358,0.00137
1477.14341,0.00126
1475.08324,0.00187
1473.02306,0.00256
1470.96289,0.00190
1468.90272,0.00119
1466.84255,0.00203
1464.78238,0.00257
1462.72220,0.00140
1460.66203,0.00111
1458.60186,0.00284
1456.54169,0.00346
1454.48151,0.00200
1452.42134,0.00165
1450.36117,0.00236
1448.30100,0.00290
1446.24083,0.00270
1444.18065,0.00242
1442.12048,0.00232
1440.06031,0.00229
1438.00014,0.00296
1435.93997,0.00278
1433.87979,0.00152
1431.81962,0.00175
1429.75945,0.00250
1427.69928,0.00242
1425.63910,0.00247
1423.57893,0.00249
1421.51876,0.00259
1419.45859,0.00322
1417.39842,0.00275
1415.33824,0.00227
1413.27807,0.00278
1411.21790,0.00318
1409.15773,0.00301
1407.09756,0.00296
1405.03738,0.00291
1402.97721,0.00236
1400.91704,0.00230
1398.85687,0.00258
1396.79670,0.00250
1394.73652,0.00248
1392.67635,0.00199
1390.61618,0.00181
1388.55601,0.00248
1386.49583,0.00275
1384.43566,0.00246
1382.37549,0.00253
1380.31532,0.00271
1378.25515,0.00263
1376.19497,0.00268
1374.13480,0.00284
1372.07463,0.00254
1370.01446,0.00238
1367.95429,0.00232
1365.89411,0.00221
1363.83394,0.00255
1361.77377,0.00252
1359.71360,0.00201
1357.65343,0.00190
1355.59325,0.00199
1353.53308,0.00191
1351.47291,0.00181
1349.41274,0.00181
1347.35256,0.00175
1345.29239,0.00153
1343.23222,0.00136
1341.17205,0.00161
1339.11188,0.00189
1337.05170,0.00177
1334.99153,0.00170
1332.93136,0.00180
1330.87119,0.00185
1328.81102,0.00181
1326.75084,0.00175
1324.69067,0.00175
1322.63050,0.00188
1320.57033,0.00202
1318.51015,0.00195
1316.44998,0.00186
1314.38981,0.00200
1312.32964,0.00195
1310.26947,0.00172
1308.20929,0.00169
1306.14912,0.00176
1304.08895,0.00187
1302.02878,0.00205
1299.96861,0.00225
1297.90843,0.00237
1295.84826,0.00238
1293.78809,0.00238
1291.72792,0.00245
1289.66775,0.00253
1287.60757,0.00251
1285.54740,0.00253
1283.48723,0.00267
1281.42706,0.00274
1279.36688,0.00276
1277.30671,0.00286
1275.24654,0.00293
1273.18637,0.00297
1271.12620,0.00298
1269.06602,0.00295
1267.00585,0.00289
1264.94568,0.00276
1262.88551,0.00260
1260.82534,0.00261
1258.76516,0.00268
1256.70499,0.00267
1254.64482,0.00255
1252.58465,0.00251
1250.52447,0.00259
1248.46430,0.00252
1246.40413,0.00234
1244.34396,0.00222
1242.28379,0.00211
1240.22361,0.00203
1238.16344,0.00194
1236.10327,0.00181
1234.04310,0.00171
1231.98293,0.00161
1229.92275,0.00149
1227.86258,0.00141
1225.80241,0.00136
1223.74224,0.00115
1221.68207,0.00078
1219.62189,0.00054
1217.56172,0.00050
1215.50155,0.00039
1213.44138,0.00021
1211.38120,0.00008
1209.32103,0.00000
1207.26086,-0.00004
1205.20069,-0.00007
1203.14052,-0.00014
1201.08034,-0.00014
1199.02017,-0.00008
1196.96000,-0.00008
1194.89983,-0.00003
1192.83966,0.00028
1190.77948,0.00076
1188.71931,0.00121
1186.65914,0.00163
1184.59897,0.00214
1182.53880,0.00271
1180.47862,0.00328
1178.41845,0.00378
1176.35828,0.00425
1174.29811,0.00485
1172.23793,0.00562
1170.17776,0.00632
1168.11759,0.00678
1166.05742,0.00720
1163.99725,0.00768
1161.93707,0.00833
1159.87690,0.00922
1157.81673,0.01000
1155.75656,0.01039
1153.69639,0.01079
1151.63621,0.01142
1149.57604,0.01220
1147.51587,0.01308
1145.45570,0.01392
1143.39552,0.01468
1141.33535,0.01547
1139.27518,0.01630
1137.21501,0.01712
1135.15484,0.01795
1133.09466,0.01878
1131.03449,0.01955
1128.97432,0.02043
1126.91415,0.02144
1124.85398,0.02235
1122.79380,0.02320
1120.73363,0.02407
1118.67346,0.02494
1116.61329,0.02595
1114.55312,0.02717
1112.49294,0.02844
1110.43277,0.02954
1108.37260,0.03051
1106.31243,0.03165
1104.25225,0.03287
1102.19208,0.03392
1100.13191,0.03503
1098.07174,0.03639
1096.01157,0.03773
1093.95139,0.03882
1091.89122,0.03978
1089.83105,0.04077
1087.77088,0.04181
1085.71071,0.04290
1083.65053,0.04386
1081.59036,0.04460
1079.53019,0.04533
1077.47002,0.04615
1075.40985,0.04704
1073.34967,0.04791
1071.28950,0.04858
1069.22933,0.04900
1067.16916,0.04922
1065.10898,0.04929
1063.04881,0.04922
1060.98864,0.04900
1058.92847,0.04886
1056.86830,0.04887
1054.80812,0.04860
1052.74795,0.04795
1050.68778,0.04726
1048.62761,0.04669
1046.56744,0.04613
1044.50726,0.04537
1042.44709,0.04430
1040.38692,0.04303
1038.32675,0.04177
1036.26657,0.04070
1034.20640,0.03975
1032.14623,0.03873
1030.08606,0.03757
1028.02589,0.03628
1025.96571,0.03506
1023.90554,0.03398
1021.84537,0.03307
1019.78520,0.03241
1017.72503,0.03179
1015.66485,0.03097
1013.60468,0.03002
1011.54451,0.02938
1009.48434,0.02916
1007.42417,0.02909
1005.36399,0.02893
1003.30382,0.02867
1001.24365,0.02866
999.18348,0.02903
997.12330,0.02946
995.06313,0.03004
993.00296,0.03097
990.94279,0.03186
988.88262,0.03242
986.82244,0.03298
984.76227,0.03367
982.70210,0.03411
980.64193,0.03396
978.58176,0.03327
976.52158,0.03226
974.46141,0.03143
972.40124,0.03095
970.34107,0.03015
968.28089,0.02843
966.22072,0.02652
964.16055,0.02535
962.10038,0.02441
960.04021,0.02324
957.98003,0.02215
955.91986,0.02130
953.85969,0.02071
951.79952,0.02025
949.73935,0.01973
947.67917,0.01927
945.61900,0.01884
943.55883,0.01830
941.49866,0.01799
939.43849,0.01798
937.37831,0.01771
935.31814,0.01731
933.25797,0.01747
931.19780,0.01755
929.13762,0.01707
927.07745,0.01687
925.01728,0.01710
922.95711,0.01701
920.89694,0.01631
918.83676,0.01551
916.77659,0.01509
914.71642,0.01479
912.65625,0.01421
910.59608,0.01340
908.53590,0.01271
906.47573,0.01242
904.41556,0.01251
902.35539,0.01257
900.29522,0.01244
898.23504,0.01220
896.17487,0.01199
894.11470,0.01205
892.05453,0.01228
889.99435,0.01246
887.93418,0.01274
885.87401,0.01318
883.81384,0.01361
881.75367,0.01401
879.69349,0.01433
877.63332,0.01469
875.57315,0.01510
873.51298,0.01525
871.45281,0.01556
869.39263,0.01619
867.33246,0.01664
865.27229,0.01684
863.21212,0.01679
861.15194,0.01638
859.09177,0.01587
857.03160,0.01553
854.97143,0.01527
852.91126,0.01496
850.85108,0.01479
848.79091,0.01473
846.73074,0.01453
844.67057,0.01410
842.61040,0.01360
840.55022,0.01327
838.49005,0.01297
836.42988,0.01270
834.36971,0.01235
832.30954,0.01155
830.24936,0.01061
828.18919,0.00996
826.12902,0.00942
824.06885,0.00903
822.00867,0.00871
819.94850,0.00803
817.88833,0.00752
815.82816,0.00776
813.76799,0.00782
811.70781,0.00716
809.64764,0.00646
807.58747,0.00586
805.52730,0.00541
803.46713,0.00544
801.40695,0.00537
799.34678,0.00488
797.28661,0.00444
795.22644,0.00437
793.16627,0.00457
791.10609,0.00469
789.04592,0.00453
786.98575,0.00432
784.92558,0.00426
782.86540,0.00442
780.80523,0.00478
778.74506,0.00500
776.68489,0.00502
774.62472,0.00475
772.56454,0.00431
770.50437,0.00426
768.44420,0.00431
766.38403,0.00391
764.32386,0.00342
762.26368,0.00314
760.20351,0.00300
758.14334,0.00314
756.08317,0.00341
754.02299,0.00329
751.96282,0.00296
749.90265,0.00267
747.84248,0.00206
745.78231,0.00130
743.72213,0.00103
741.66196,0.00135
739.60179,0.00198
737.54162,0.00236
735.48145,0.00215
733.42127,0.00191
731.36110,0.00169
729.30093,0.00105
727.24076,0.00055
725.18059,0.00076
723.12041,0.00126
721.06024,0.00149
719.00007,0.00166
716.93990,0.00184
714.87972,0.00180
712.81955,0.00139
710.75938,0.00074
708.69921,0.00058
706.63904,0.00121
704.57886,0.00194
702.51869,0.00211
700.45852,0.00185
698.39835,0.00177
696.33818,0.00233
694.27800,0.00332
692.21783,0.00378
690.15766,0.00304
688.09749,0.00203
686.03731,0.00230
683.97714,0.00352
681.91697,0.00423
679.85680,0.00401
677.79663,0.00326
675.73645,0.00264
673.67628,0.00281
671.61611,0.00348
669.55594,0.00363
667.49577,0.00294
665.43559,0.00239
663.37542,0.00250
661.31525,0.00221
659.25508,0.00106
657.19491,0.00000
655.13473,-0.00006
653.07456,0.00039
651.01439,0.00066
648.95422,0.00123
646.89404,0.00255
644.83387,0.00363
642.77370,0.00347
640.71353,0.00297
638.65336,0.00351
636.59318,0.00468
634.53301,0.00497
632.47284,0.00353
630.41267,0.00113
628.35250,0.00000
626.29232,0.00078
624.23215,0.00160
622.17198,0.00177
620.11181,0.00309
618.05164,0.00470
615.99146,0.00336
613.93129,0.00033
611.87112,-0.00098
609.81095,-0.00127
607.75077,-0.00206
605.69060,-0.00332
603.63043,-0.00385
601.57026,-0.00165
599.51009,0.00000
