3996.73391,0.00016
3994.67373,0.00024
3992.61356,0.00036
3990.55339,0.00045
3988.49322,0.00030
3986.43305,0.00003
3984.37287,0.00001
3982.31270,0.00030
3980.25253,0.00049
3978.19236,0.00045
3976.13219,0.00034
3974.07201,0.00026
3972.01184,0.00021
3969.95167,0.00007
3967.89150,0.00000
3965.83133,0.00022
3963.77115,0.00053
3961.71098,0.00072
3959.65081,0.00082
3957.59064,0.00088
3955.53046,0.00072
3953.47029,0.00043
3951.41012,0.00046
3949.34995,0.00083
3947.28978,0.00090
3945.22960,0.00038
3943.16943,-0.00013
3941.10926,-0.00009
3939.04909,0.00036
3936.98892,0.00076
3934.92874,0.00072
3932.86857,0.00048
3930.80840,0.00057
3928.74823,0.00086
3926.68805,0.00092
3924.62788,0.00070
3922.56771,0.00047
3920.50754,0.00032
3918.44737,0.00010
3916.38719,-0.00002
3914.32702,0.00013
3912.26685,0.00039
3910.20668,0.00053
3908.14651,0.00057
3906.08633,0.00070
3904.02616,0.00065
3901.96599,0.00019
3899.90582,0.00000
3897.84565,0.00029
3895.78547,0.00050
3893.72530,0.00056
3891.66513,0.00088
3889.60496,0.00132
3887.54478,0.00154
3885.48461,0.00160
3883.42444,0.00150
3881.36427,0.00142
3879.30410,0.00145
3877.24392,0.00127
3875.18375,0.00083
3873.12358,0.00039
3871.06341,0.00013
3869.00324,0.00000
3866.94306,0.00002
3864.88289,0.00039
3862.82272,0.00091
3860.76255,0.00099
3858.70237,0.00070
3856.64220,0.00048
3854.58203,0.00051
3852.52186,0.00076
3850.46169,0.00102
3848.40151,0.00109
3846.34134,0.00110
3844.28117,0.00107
3842.22100,0.00098
3840.16083,0.00108
3838.10065,0.00151
3836.04048,0.00194
3833.98031,0.00201
3831.92014,0.00155
3829.85997,0.00092
3827.79979,0.00073
3825.73962,0.00098
3823.67945,0.00118
3821.61928,0.00121
3819.55910,0.00136
3817.49893,0.00166
3815.43876,0.00180
3813.37859,0.00153
3811.31842,0.00101
3809.25824,0.00061
3807.19807,0.00066
3805.13790,0.00126
3803.07773,0.00191
3801.01756,0.00202
3798.95738,0.00157
3796.89721,0.00109
3794.83704,0.00102
3792.77687,0.00144
3790.71670,0.00206
3788.65652,0.00238
3786.59635,0.00213
3784.53618,0.00181
3782.47601,0.00187
3780.41583,0.00198
3778.35566,0.00176
3776.29549,0.00151
3774.23532,0.00161
3772.17515,0.00207
3770.11497,0.00255
3768.05480,0.00227
3765.99463,0.00146
3763.93446,0.00112
3761.87429,0.00138
3759.81411,0.00161
3757.75394,0.00131
3755.69377,0.00055
3753.63360,0.00000
3751.57342,0.00038
3749.51325,0.00135
3747.45308,0.00188
3745.39291,0.00209
3743.33274,0.00247
3741.27256,0.00270
3739.21239,0.00240
3737.15222,0.00194
3735.09205,0.00170
3733.03188,0.00153
3730.97170,0.00153
3728.91153,0.00180
3726.85136,0.00188
3724.79119,0.00160
3722.73102,0.00142
3720.67084,0.00162
3718.61067,0.00184
3716.55050,0.00175
3714.49033,0.00160
3712.43015,0.00178
3710.36998,0.00230
3708.30981,0.00258
3706.24964,0.00238
3704.18947,0.00214
3702.12929,0.00224
3700.06912,0.00254
3698.00895,0.00273
3695.94878,0.00275
3693.88861,0.00260
3691.82843,0.00232
3689.76826,0.00193
3687.70809,0.00176
3685.64792,0.00204
3683.58775,0.00227
3681.52757,0.00235
3679.46740,0.00252
3677.40723,0.00260
3675.34706,0.00259
3673.28688,0.00287
3671.22671,0.00331
3669.16654,0.00341
3667.10637,0.00300
3665.04620,0.00277
3662.98602,0.00302
3660.92585,0.00345
3658.86568,0.00390
3656.80551,0.00438
3654.74534,0.00478
3652.68516,0.00488
3650.62499,0.00471
3648.56482,0.00453
3646.50465,0.00458
3644.44447,0.00481
3642.38430,0.00524
3640.32413,0.00588
3638.26396,0.00646
3636.20379,0.00646
3634.14361,0.00593
3632.08344,0.00575
3630.02327,0.00662
3627.96310,0.00793
3625.90293,0.00844
3623.84275,0.00823
3621.78258,0.00790
3619.72241,0.00795
3617.66224,0.00841
3615.60207,0.00863
3613.54189,0.00842
3611.48172,0.00831
3609.42155,0.00880
3607.36138,0.00962
3605.30120,0.01022
3603.24103,0.01023
3601.18086,0.00987
3599.12069,0.00985
3597.06052,0.01028
3595.00034,0.01073
3592.94017,0.01094
3590.88000,0.01079
3588.81983,0.01080
3586.75966,0.01141
3584.69948,0.01195
3582.63931,0.01213
3580.57914,0.01233
3578.51897,0.01259
3576.45879,0.01285
3574.39862,0.01314
3572.33845,0.01340
3570.27828,0.01371
3568.21811,0.01412
3566.15793,0.01467
3564.09776,0.01525
3562.03759,0.01561
3559.97742,0.01575
3557.91725,0.01606
3555.85707,0.01658
3553.79690,0.01676
3551.73673,0.01650
3549.67656,0.01630
3547.61639,0.01655
3545.55621,0.01729
3543.49604,0.01822
3541.43587,0.01873
3539.37570,0.01853
3537.31552,0.01800
3535.25535,0.01767
3533.19518,0.01767
3531.13501,0.01791
3529.07484,0.01840
3527.01466,0.01906
3524.95449,0.01975
3522.89432,0.02029
3520.83415,0.02041
3518.77398,0.02020
3516.71380,0.02009
3514.65363,0.02036
3512.59346,0.02103
3510.53329,0.02174
3508.47312,0.02211
3506.41294,0.02220
3504.35277,0.02219
3502.29260,0.02227
3500.23243,0.02249
3498.17225,0.02268
3496.11208,0.02269
3494.05191,0.02262
3491.99174,0.02281
3489.93157,0.02319
3487.87139,0.02347
3485.81122,0.02383
3483.75105,0.02436
3481.69088,0.02469
3479.63071,0.02481
3477.57053,0.02501
3475.51036,0.02528
3473.45019,0.02527
3471.39002,0.02499
3469.32984,0.02480
3467.26967,0.02485
3465.20950,0.02515
3463.14933,0.02562
3461.08916,0.02595
3459.02898,0.02618
3456.96881,0.02648
3454.90864,0.02668
3452.84847,0.02688
3450.78830,0.02734
3448.72812,0.02774
3446.66795,0.02769
3444.60778,0.02752
3442.54761,0.02741
3440.48744,0.02721
3438.42726,0.02714
3436.36709,0.02747
3434.30692,0.02801
3432.24675,0.02841
3430.18657,0.02853
3428.12640,0.02842
3426.06623,0.02833
3424.00606,0.02851
3421.94589,0.02880
3419.88571,0.02876
3417.82554,0.02861
3415.76537,0.02885
3413.70520,0.02943
3411.64503,0.02993
3409.58485,0.03012
3407.52468,0.03007
3405.46451,0.02984
3403.40434,0.02968
3401.34416,0.02987
3399.28399,0.03013
3397.22382,0.03029
3395.16365,0.03022
3393.10348,0.02989
3391.04330,0.02969
3388.98313,0.02994
3386.92296,0.03025
3384.86279,0.03029
3382.80262,0.03024
3380.74244,0.03019
3378.68227,0.03020
3376.62210,0.03038
3374.56193,0.03049
3372.50176,0.03044
3370.44158,0.03063
3368.38141,0.03094
3366.32124,0.03101
3364.26107,0.03105
3362.20089,0.03102
3360.14072,0.03072
3358.08055,0.03047
3356.02038,0.03060
3353.96021,0.03090
3351.90003,0.03091
3349.83986,0.03058
3347.77969,0.03039
3345.71952,0.03055
3343.65935,0.03071
3341.59917,0.03071
3339.53900,0.03076
3337.47883,0.03082
3335.41866,0.03074
3333.35849,0.03061
3331.29831,0.03057
3329.23814,0.03060
3327.17797,0.03036
3325.11780,0.03004
3323.05762,0.03028
3320.99745,0.03083
3318.93728,0.03103
3316.87711,0.03085
3314.81694,0.03079
3312.75676,0.03097
3310.69659,0.03096
3308.63642,0.03076
3306.57625,0.03070
3304.51608,0.03083
3302.45590,0.03094
3300.39573,0.03091
3298.33556,0.03085
3296.27539,0.03094
3294.21521,0.03100
3292.15504,0.03075
3290.09487,0.03038
3288.03470,0.03029
3285.97453,0.03057
3283.91435,0.03083
3281.85418,0.03073
3279.79401,0.03049
3277.73384,0.03041
3275.67367,0.03066
3273.61349,0.03107
3271.55332,0.03115
3269.49315,0.03079
3267.43298,0.03031
3265.37281,0.03003
3263.31263,0.03009
3261.25246,0.03034
3259.19229,0.03043
3257.13212,0.03032
3255.07194,0.03026
3253.01177,0.03028
3250.95160,0.03016
3248.89143,0.03006
3246.83126,0.03010
3244.77108,0.03012
3242.71091,0.03012
3240.65074,0.03010
3238.59057,0.02985
3236.53040,0.02959
3234.47022,0.02968
3232.41005,0.02975
3230.34988,0.02970
3228.28971,0.02992
3226.22954,0.03017
3224.16936,0.03005
3222.10919,0.02970
3220.04902,0.02953
3217.98885,0.02948
3215.92867,0.02927
3213.86850,0.02900
3211.80833,0.02894
3209.74816,0.02900
3207.68799,0.02912
3205.62781,0.02925
3203.56764,0.02907
3201.50747,0.02856
3199.44730,0.02830
3197.38713,0.02849
3195.32695,0.02869
3193.26678,0.02873
3191.20661,0.02859
3189.14644,0.02820
3187.08626,0.02789
3185.02609,0.02788
3182.96592,0.02797
3180.90575,0.02801
3178.84558,0.02787
3176.78540,0.02737
3174.72523,0.02674
3172.66506,0.02649
3170.60489,0.02660
3168.54472,0.02662
3166.48454,0.02647
3164.42437,0.02642
3162.36420,0.02655
3160.30403,0.02662
3158.24386,0.02657
3156.18368,0.02648
3154.12351,0.02632
3152.06334,0.02613
3150.00317,0.02619
3147.94299,0.02630
3145.88282,0.02617
3143.82265,0.02594
3141.76248,0.02576
3139.70231,0.02559
3137.64213,0.02547
3135.58196,0.02542
3133.52179,0.02536
3131.46162,0.02531
3129.40145,0.02522
3127.34127,0.02491
3125.28110,0.02462
3123.22093,0.02460
3121.16076,0.02465
3119.10058,0.02453
3117.04041,0.02426
3114.98024,0.02397
3112.92007,0.02375
3110.85990,0.02387
3108.79972,0.02424
3106.73955,0.02423
3104.67938,0.02380
3102.61921,0.02358
3100.55904,0.02352
3098.49886,0.02336
3096.43869,0.02332
3094.37852,0.02340
3092.31835,0.02329
3090.25818,0.02298
3088.19800,0.02265
3086.13783,0.02243
3084.07766,0.02232
3082.01749,0.02219
3079.95731,0.02208
3077.89714,0.02219
3075.83697,0.02213
3073.77680,0.02177
3071.71663,0.02155
3069.65645,0.02162
3067.59628,0.02175
3065.53611,0.02173
3063.47594,0.02153
3061.41577,0.02127
3059.35559,0.02102
3057.29542,0.02094
3055.23525,0.02094
3053.17508,0.02070
3051.11491,0.02032
3049.05473,0.02018
3046.99456,0.02020
3044.93439,0.02015
3042.87422,0.02005
3040.81404,0.01990
3038.75387,0.01979
3036.69370,0.01983
3034.63353,0.01990
3032.57336,0.01986
3030.51318,0.01980
3028.45301,0.01963
3026.39284,0.01926
3024.33267,0.01903
3022.27250,0.01899
3020.21232,0.01884
3018.15215,0.01865
3016.09198,0.01855
3014.03181,0.01847
3011.97163,0.01830
3009.91146,0.01808
3007.85129,0.01790
3005.79112,0.01774
3003.73095,0.01776
3001.67077,0.01798
2999.61060,0.01805
2997.55043,0.01788
2995.49026,0.01777
2993.43009,0.01760
2991.36991,0.01737
2989.30974,0.01730
2987.24957,0.01716
2985.18940,0.01680
2983.12923,0.01655
2981.06905,0.01662
2979.00888,0.01682
2976.94871,0.01690
2974.88854,0.01673
2972.82836,0.01647
2970.76819,0.01635
2968.70802,0.01633
2966.64785,0.01637
2964.58768,0.01637
2962.52750,0.01630
2960.46733,0.01644
2958.40716,0.01664
2956.34699,0.01648
2954.28682,0.01630
2952.22664,0.01644
2950.16647,0.01651
2948.10630,0.01648
2946.04613,0.01662
2943.98596,0.01671
2941.92578,0.01656
2939.86561,0.01649
2937.80544,0.01661
2935.74527,0.01659
2933.68509,0.01635
2931.62492,0.01635
2929.56475,0.01653
2927.50458,0.01647
2925.44441,0.01629
2923.38423,0.01608
2921.32406,0.01582
2919.26389,0.01567
2917.20372,0.01553
2915.14355,0.01543
2913.08337,0.01551
2911.02320,0.01549
2908.96303,0.01517
2906.90286,0.01481
2904.84268,0.01480
2902.78251,0.01508
2900.72234,0.01529
2898.66217,0.01531
2896.60200,0.01515
2894.54182,0.01492
2892.48165,0.01490
2890.42148,0.01499
2888.36131,0.01484
2886.30114,0.01463
2884.24096,0.01457
2882.18079,0.01465
2880.12062,0.01463
2878.06045,0.01433
2876.00028,0.01405
2873.94010,0.01404
2871.87993,0.01418
2869.81976,0.01424
2867.75959,0.01415
2865.69941,0.01411
2863.63924,0.01405
2861.57907,0.01388
2859.51890,0.01378
2857.45873,0.01377
2855.39855,0.01375
2853.33838,0.01364
2851.27821,0.01342
2849.21804,0.01316
2847.15787,0.01293
2845.09769,0.01294
2843.03752,0.01307
2840.97735,0.01300
2838.91718,0.01287
2836.85700,0.01279
2834.79683,0.01271
2832.73666,0.01277
2830.67649,0.01283
2828.61632,0.01263
2826.55614,0.01244
2824.49597,0.01241
2822.43580,0.01243
2820.37563,0.01250
2818.31546,0.01250
2816.25528,0.01236
2814.19511,0.01225
2812.13494,0.01213
2810.07477,0.01194
2808.01460,0.01186
2805.95442,0.01197
2803.89425,0.01195
2801.83408,0.01187
2799.77391,0.01191
2797.71373,0.01192
2795.65356,0.01183
2793.59339,0.01171
2791.53322,0.01165
2789.47305,0.01172
2787.41287,0.01168
2785.35270,0.01130
2783.29253,0.01089
2781.23236,0.01080
2779.17219,0.01092
2777.11201,0.01109
2775.05184,0.01122
2772.99167,0.01118
2770.93150,0.01100
2768.87133,0.01079
2766.81115,0.01064
2764.75098,0.01065
2762.69081,0.01069
2760.63064,0.01058
2758.57046,0.01047
2756.51029,0.01057
2754.45012,0.01078
2752.38995,0.01081
2750.32978,0.01072
2748.26960,0.01064
2746.20943,0.01050
2744.14926,0.01031
2742.08909,0.01018
2740.02892,0.01007
2737.96874,0.00995
2735.90857,0.00999
2733.84840,0.01015
2731.78823,0.01009
2729.72805,0.00982
2727.66788,0.00984
2725.60771,0.01030
2723.54754,0.01070
2721.48737,0.01068
2719.42719,0.01031
2717.36702,0.00997
2715.30685,0.00988
2713.24668,0.00974
2711.18651,0.00945
2709.12633,0.00933
2707.06616,0.00938
2705.00599,0.00937
2702.94582,0.00929
2700.88565,0.00924
2698.82547,0.00924
2696.76530,0.00927
2694.70513,0.00929
2692.64496,0.00935
2690.58478,0.00943
2688.52461,0.00936
2686.46444,0.00909
2684.40427,0.00889
2682.34410,0.00895
2680.28392,0.00905
2678.22375,0.00894
2676.16358,0.00868
2674.10341,0.00854
2672.04324,0.00865
2669.98306,0.00873
2667.92289,0.00859
2665.86272,0.00854
2663.80255,0.00865
2661.74238,0.00874
2659.68220,0.00876
2657.62203,0.00869
2655.56186,0.00859
2653.50169,0.00862
2651.44151,0.00871
2649.38134,0.00859
2647.32117,0.00825
2645.26100,0.00802
2643.20083,0.00794
2641.14065,0.00796
2639.08048,0.00800
2637.02031,0.00796
2634.96014,0.00793
2632.89997,0.00785
2630.83979,0.00765
2628.77962,0.00766
2626.71945,0.00794
2624.65928,0.00802
2622.59910,0.00797
2620.53893,0.00795
2618.47876,0.00781
2616.41859,0.00782
2614.35842,0.00791
2612.29824,0.00777
2610.23807,0.00763
2608.17790,0.00757
2606.11773,0.00742
2604.05756,0.00728
2601.99738,0.00717
2599.93721,0.00709
2597.87704,0.00738
2595.81687,0.00779
2593.75670,0.00767
2591.69652,0.00719
2589.63635,0.00697
2587.57618,0.00732
2585.51601,0.00795
2583.45583,0.00791
2581.39566,0.00703
2579.33549,0.00625
2577.27532,0.00608
2575.21515,0.00605
2573.15497,0.00587
2571.09480,0.00604
2569.03463,0.00645
2566.97446,0.00646
2564.91429,0.00632
2562.85411,0.00645
2560.79394,0.00674
2558.73377,0.00695
2556.67360,0.00681
2554.61342,0.00653
2552.55325,0.00658
2550.49308,0.00675
2548.43291,0.00654
2546.37274,0.00620
2544.31256,0.00621
2542.25239,0.00648
2540.19222,0.00675
2538.13205,0.00692
2536.07188,0.00685
2534.01170,0.00666
2531.95153,0.00653
2529.89136,0.00656
2527.83119,0.00669
2525.77102,0.00654
2523.71084,0.00623
2521.65067,0.00614
2519.59050,0.00614
2517.53033,0.00616
2515.47015,0.00627
2513.40998,0.00628
2511.34981,0.00636
2509.28964,0.00661
2507.22947,0.00686
2505.16929,0.00707
2503.10912,0.00713
2501.04895,0.00709
2498.98878,0.00694
2496.92861,0.00652
2494.86843,0.00603
2492.80826,0.00576
2490.74809,0.00582
2488.68792,0.00610
2486.62775,0.00636
2484.56757,0.00660
2482.50740,0.00709
2480.44723,0.00759
2478.38706,0.00760
2476.32688,0.00724
2474.26671,0.00678
2472.20654,0.00636
2470.14637,0.00635
2468.08620,0.00696
2466.02602,0.00760
2463.96585,0.00752
2461.90568,0.00699
2459.84551,0.00661
2457.78534,0.00679
2455.72516,0.00732
2453.66499,0.00756
2451.60482,0.00743
2449.54465,0.00726
2447.48447,0.00702
2445.42430,0.00650
2443.36413,0.00598
2441.30396,0.00596
2439.24379,0.00634
2437.18361,0.00655
2435.12344,0.00663
2433.06327,0.00672
2431.00310,0.00656
2428.94293,0.00651
2426.88275,0.00685
2424.82258,0.00693
2422.76241,0.00657
2420.70224,0.00638
2418.64207,0.00641
2416.58189,0.00639
2414.52172,0.00639
2412.46155,0.00652
2410.40138,0.00665
2408.34120,0.00660
2406.28103,0.00660
2404.22086,0.00678
2402.16069,0.00678
2400.10052,0.00652
2398.04034,0.00637
2395.98017,0.00652
2393.92000,0.00657
2391.85983,0.00650
2389.79966,0.00654
2387.73948,0.00670
2385.67931,0.00684
2383.61914,0.00686
2381.55897,0.00678
2379.49880,0.00660
2377.43862,0.00629
2375.37845,0.00639
2373.31828,0.00735
2371.25811,0.00861
2369.19793,0.00905
2367.13776,0.00749
2365.07759,0.00483
2363.01742,0.00442
2360.95725,0.00564
2358.89707,0.00556
2356.83690,0.00503
2354.77673,0.00511
2352.71656,0.00566
2350.65639,0.00645
2348.59621,0.00707
2346.53604,0.00754
2344.47587,0.00780
2342.41570,0.00770
2340.35552,0.00781
2338.29535,0.00819
2336.23518,0.00852
2334.17501,0.00886
2332.11484,0.00853
2330.05466,0.00753
2327.99449,0.00694
2325.93432,0.00689
2323.87415,0.00706
2321.81398,0.00721
2319.75380,0.00676
2317.69363,0.00626
2315.63346,0.00684
2313.57329,0.00792
2311.51312,0.00829
2309.45294,0.00809
2307.39277,0.00795
2305.33260,0.00787
2303.27243,0.00766
2301.21225,0.00747
2299.15208,0.00755
2297.09191,0.00789
2295.03174,0.00804
2292.97157,0.00763
2290.91139,0.00704
2288.85122,0.00688
2286.79105,0.00701
2284.73088,0.00690
2282.67071,0.00653
2280.61053,0.00628
2278.55036,0.00634
2276.49019,0.00656
2274.43002,0.00679
2272.36984,0.00724
2270.30967,0.00749
2268.24950,0.00684
2266.18933,0.00563
2264.12916,0.00470
2262.06898,0.00468
2260.00881,0.00551
2257.94864,0.00644
2255.88847,0.00682
2253.82830,0.00670
2251.76812,0.00665
2249.70795,0.00703
2247.64778,0.00737
2245.58761,0.00689
2243.52744,0.00596
2241.46726,0.00511
2239.40709,0.00459
2237.34692,0.00465
2235.28675,0.00545
2233.22657,0.00604
2231.16640,0.00547
2229.10623,0.00485
2227.04606,0.00539
2224.98589,0.00604
2222.92571,0.00551
2220.86554,0.00499
2218.80537,0.00610
2216.74520,0.00719
2214.68503,0.00686
2212.62485,0.00648
2210.56468,0.00633
2208.50451,0.00527
2206.44434,0.00382
2204.38417,0.00376
2202.32399,0.00443
2200.26382,0.00431
2198.20365,0.00410
2196.14348,0.00481
2194.08330,0.00573
2192.02313,0.00606
2189.96296,0.00653
2187.90279,0.00670
2185.84262,0.00560
2183.78244,0.00430
2181.72227,0.00408
2179.66210,0.00472
2177.60193,0.00532
2175.54176,0.00604
2173.48158,0.00677
2171.42141,0.00697
2169.36124,0.00675
2167.30107,0.00560
2165.24089,0.00451
2163.18072,0.00449
2161.12055,0.00403
2159.06038,0.00312
2157.00021,0.00347
2154.94003,0.00484
2152.87986,0.00519
2150.81969,0.00419
2148.75952,0.00309
2146.69935,0.00272
2144.63917,0.00356
2142.57900,0.00468
2140.51883,0.00502
2138.45866,0.00495
2136.39849,0.00508
2134.33831,0.00503
2132.27814,0.00466
2130.21797,0.00475
2128.15780,0.00514
2126.09762,0.00501
2124.03745,0.00436
2121.97728,0.00391
2119.91711,0.00422
2117.85694,0.00487
2115.79676,0.00503
2113.73659,0.00494
2111.67642,0.00511
2109.61625,0.00537
2107.55608,0.00560
2105.49590,0.00558
2103.43573,0.00506
2101.37556,0.00461
2099.31539,0.00463
2097.25521,0.00464
2095.19504,0.00459
2093.13487,0.00481
2091.07470,0.00529
2089.01453,0.00557
2086.95435,0.00552
2084.89418,0.00563
2082.83401,0.00591
2080.77384,0.00572
2078.71367,0.00520
2076.65349,0.00504
2074.59332,0.00512
2072.53315,0.00522
2070.47298,0.00545
2068.41281,0.00560
2066.35263,0.00558
2064.29246,0.00558
2062.23229,0.00513
2060.17212,0.00389
2058.11194,0.00301
2056.05177,0.00329
2053.99160,0.00420
2051.93143,0.00482
2049.87126,0.00475
2047.81108,0.00458
2045.75091,0.00404
2043.69074,0.00312
2041.63057,0.00342
2039.57040,0.00485
2037.51022,0.00600
2035.45005,0.00667
2033.38988,0.00645
2031.32971,0.00474
2029.26954,0.00197
2027.20936,0.00000
2025.14919,0.00029
2023.08902,0.00153
2021.02885,0.00233
2018.96867,0.00321
2016.90850,0.00402
2014.84833,0.00354
2012.78816,0.00249
2010.72799,0.00270
2008.66781,0.00306
2006.60764,0.00216
2004.54747,0.00130
2002.48730,0.00098
2000.42713,0.00121
1998.36695,0.00244
1996.30678,0.00386
1994.24661,0.00446
1992.18644,0.00418
1990.12626,0.00381
1988.06609,0.00397
1986.00592,0.00432
1983.94575,0.00499
1981.88558,0.00617
1979.82540,0.00689
1977.76523,0.00625
1975.70506,0.00557
1973.64489,0.00556
1971.58472,0.00484
1969.52454,0.00348
1967.46437,0.00228
1965.40420,0.00133
1963.34403,0.00112
1961.28386,0.00170
1959.22368,0.00237
1957.16351,0.00320
1955.10334,0.00394
1953.04317,0.00365
1950.98299,0.00298
1948.92282,0.00295
1946.86265,0.00327
1944.80248,0.00335
1942.74231,0.00283
1940.68213,0.00190
1938.62196,0.00128
1936.56179,0.00134
1934.50162,0.00170
1932.44145,0.00170
1930.38127,0.00138
1928.32110,0.00134
1926.26093,0.00193
1924.20076,0.00297
1922.14059,0.00382
1920.08041,0.00391
1918.02024,0.00344
1915.96007,0.00307
1913.89990,0.00287
1911.83972,0.00268
1909.77955,0.00270
1907.71938,0.00280
1905.65921,0.00267
1903.59904,0.00245
1901.53886,0.00247
1899.47869,0.00268
1897.41852,0.00275
1895.35835,0.00277
1893.29818,0.00307
1891.23800,0.00342
1889.17783,0.00328
1887.11766,0.00280
1885.05749,0.00229
1882.99731,0.00194
1880.93714,0.00210
1878.87697,0.00262
1876.81680,0.00286
1874.75663,0.00268
1872.69645,0.00248
1870.63628,0.00247
1868.57611,0.00249
1866.51594,0.00233
1864.45577,0.00205
1862.39559,0.00189
1860.33542,0.00192
1858.27525,0.00217
1856.21508,0.00266
1854.15491,0.00296
1852.09473,0.00268
1850.03456,0.00221
1847.97439,0.00205
1845.91422,0.00228
1843.85404,0.00265
1841.79387,0.00291
1839.73370,0.00305
1837.67353,0.00307
1835.61336,0.00279
1833.55318,0.00241
1831.49301,0.00242
1829.43284,0.00272
1827.37267,0.00273
1825.31250,0.00233
1823.25232,0.00189
1821.19215,0.00180
1819.13198,0.00199
1817.07181,0.00215
1815.01163,0.00218
1812.95146,0.00216
1810.89129,0.00227
1808.83112,0.00254
1806.77095,0.00280
1804.71077,0.00285
1802.65060,0.00277
1800.59043,0.00267
1798.53026,0.00257
1796.47009,0.00242
1794.40991,0.00223
1792.34974,0.00221
1790.28957,0.00256
1788.22940,0.00294
1786.16923,0.00296
1784.10905,0.00284
1782.04888,0.00290
1779.98871,0.00300
1777.92854,0.00306
1775.86836,0.00314
1773.80819,0.00317
1771.74802,0.00308
1769.68785,0.00278
1767.62768,0.00246
1765.56750,0.00249
1763.50733,0.00280
1761.44716,0.00314
1759.38699,0.00344
1757.32682,0.00364
1755.26664,0.00368
1753.20647,0.00367
1751.14630,0.00378
1749.08613,0.00397
1747.02596,0.00413
1744.96578,0.00417
1742.90561,0.00414
1740.84544,0.00425
1738.78527,0.00447
1736.72509,0.00462
1734.66492,0.00479
1732.60475,0.00502
1730.54458,0.00498
1728.48441,0.00470
1726.42423,0.00459
1724.36406,0.00480
1722.30389,0.00508
1720.24372,0.00521
1718.18355,0.00508
1716.12337,0.00488
1714.06320,0.00494
1712.00303,0.00511
1709.94286,0.00537
1707.88268,0.00579
1705.82251,0.00621
1703.76234,0.00645
1701.70217,0.00657
1699.64200,0.00669
1697.58182,0.00687
1695.52165,0.00701
1693.46148,0.00703
1691.40131,0.00715
1689.34114,0.00762
1687.28096,0.00831
1685.22079,0.00883
1683.16062,0.00902
1681.10045,0.00915
1679.04028,0.00934
1676.98010,0.00952
1674.91993,0.00973
1672.85976,0.01012
1670.79959,0.01068
1668.73941,0.01117
1666.67924,0.01143
1664.61907,0.01163
1662.55890,0.01185
1660.49873,0.01216
1658.43855,0.01248
1656.37838,0.01260
1654.31821,0.01265
1652.25804,0.01289
1650.19787,0.01321
1648.13769,0.01345
1646.07752,0.01356
1644.01735,0.01355
1641.95718,0.01347
1639.89701,0.01333
1637.83683,0.01328
1635.77666,0.01324
1633.71649,0.01292
1631.65632,0.01263
1629.59614,0.01256
1627.53597,0.01258
1625.47580,0.01264
1623.41563,0.01274
1621.35546,0.01276
1619.29528,0.01265
1617.23511,0.01234
1615.17494,0.01186
1613.11477,0.01154
1611.05460,0.01145
1608.99442,0.01140
1606.93425,0.01133
1604.87408,0.01121
1602.81391,0.01105
1600.75373,0.01081
1598.69356,0.01056
1596.63339,0.01041
1594.57322,0.01023
1592.51305,0.00984
1590.45287,0.00937
1588.39270,0.00899
1586.33253,0.00871
1584.27236,0.00847
1582.21219,0.00829
1580.15201,0.00811
1578.09184,0.00785
1576.03167,0.00749
1573.97150,0.00709
1571.91133,0.00673
1569.85115,0.00638
1567.79098,0.00615
1565.73081,0.00615
1563.67064,0.00628
1561.61046,0.00630
1559.55029,0.00595
1557.49012,0.00536
1555.42995,0.00518
1553.36978,0.00516
1551.30960,0.00495
1549.24943,0.00469
1547.18926,0.00447
1545.12909,0.00426
1543.06892,0.00422
1541.00874,0.00438
1538.94857,0.00429
1536.88840,0.00412
1534.82823,0.00410
1532.76805,0.00399
1530.70788,0.00369
1528.64771,0.00347
1526.58754,0.00345
1524.52737,0.00359
1522.46719,0.00369
1520.40702,0.00356
1518.34685,0.00344
1516.28668,0.00344
1514.22651,0.00330
1512.16633,0.00298
1510.10616,0.00274
1508.04599,0.00269
1505.98582,0.00266
1503.92565,0.00256
1501.86547,0.00238
1499.80530,0.00215
1497.74513,0.00202
1495.68496,0.00205
1493.62478,0.00213
1491.56461,0.00224
1489.50444,0.00242
1487.44427,0.00245
1485.38410,0.00227
1483.32392,0.00220
1481.26375,0.00232
1479.20358,0.00240
1477.14341,0.00231
1475.08324,0.00223
1473.02306,0.00243
1470.96289,0.00283
1468.90272,0.00315
1466.84255,0.00332
1464.78238,0.00323
1462.72220,0.00294
1460.66203,0.00289
1458.60186,0.00317
1456.54169,0.00348
1454.48151,0.00358
1452.42134,0.00348
1450.36117,0.00329
1448.30100,0.00312
1446.24083,0.00308
1444.18065,0.00317
1442.12048,0.00332
1440.06031,0.00342
1438.00014,0.00343
1435.93997,0.00343
1433.87979,0.00349
1431.81962,0.00362
1429.75945,0.00388
1427.69928,0.00417
1425.63910,0.00437
1423.57893,0.00450
1421.51876,0.00464
1419.45859,0.00475
1417.39842,0.00474
1415.33824,0.00473
1413.27807,0.00475
1411.21790,0.00476
1409.15773,0.00474
1407.09756,0.00462
1405.03738,0.00437
1402.97721,0.00407
1400.91704,0.00383
1398.85687,0.00376
1396.79670,0.00390
1394.73652,0.00398
1392.67635,0.00379
1390.61618,0.00359
1388.55601,0.00361
1386.49583,0.00373
1384.43566,0.00380
1382.37549,0.00381
1380.31532,0.00378
1378.25515,0.00378
1376.19497,0.00383
1374.13480,0.00389
1372.07463,0.00385
1370.01446,0.00369
1367.95429,0.00348
1365.89411,0.00336
1363.83394,0.00335
1361.77377,0.00326
1359.71360,0.00309
1357.65343,0.00296
1355.59325,0.00290
1353.53308,0.00277
1351.47291,0.00256
1349.41274,0.00240
1347.35256,0.00233
1345.29239,0.00231
1343.23222,0.00234
1341.17205,0.00241
1339.11188,0.00241
1337.05170,0.00231
1334.99153,0.00225
1332.93136,0.00220
1330.87119,0.00208
1328.81102,0.00194
1326.75084,0.00191
1324.69067,0.00197
1322.63050,0.00204
1320.57033,0.00215
1318.51015,0.00227
1316.44998,0.00229
1314.38981,0.00224
1312.32964,0.00217
1310.26947,0.00210
1308.20929,0.00204
1306.14912,0.00198
1304.08895,0.00192
1302.02878,0.00196
1299.96861,0.00202
1297.90843,0.00192
1295.84826,0.00178
1293.78809,0.00183
1291.72792,0.00192
1289.66775,0.00190
1287.60757,0.00191
1285.54740,0.00204
1283.48723,0.00219
1281.42706,0.00235
1279.36688,0.00247
1277.30671,0.00247
1275.24654,0.00241
1273.18637,0.00237
1271.12620,0.00231
1269.06602,0.00226
1267.00585,0.00227
1264.94568,0.00225
1262.88551,0.00219
1260.82534,0.00224
1258.76516,0.00237
1256.70499,0.00241
1254.64482,0.00241
1252.58465,0.00244
1250.52447,0.00244
1248.46430,0.00241
1246.40413,0.00232
1244.34396,0.00212
1242.28379,0.00201
1240.22361,0.00211
1238.16344,0.00219
1236.10327,0.00212
1234.04310,0.00199
1231.98293,0.00183
1229.92275,0.00164
1227.86258,0.00148
1225.80241,0.00138
1223.74224,0.00120
1221.68207,0.00101
1219.62189,0.00101
1217.56172,0.00104
1215.50155,0.00098
1213.44138,0.00090
1211.38120,0.00076
1209.32103,0.00058
1207.26086,0.00046
1205.20069,0.00036
1203.14052,0.00016
1201.08034,0.00000
1199.02017,0.00006
1196.96000,0.00017
1194.89983,0.00027
1192.83966,0.00040
1190.77948,0.00056
1188.71931,0.00070
1186.65914,0.00074
1184.59897,0.00073
1182.53880,0.00087
1180.47862,0.00111
1178.41845,0.00129
1176.35828,0.00156
1174.29811,0.00203
1172.23793,0.00267
1170.17776,0.00331
1168.11759,0.00374
1166.05742,0.00401
1163.99725,0.00433
1161.93707,0.00480
1159.87690,0.00521
1157.81673,0.00550
1155.75656,0.00578
1153.69639,0.00613
1151.63621,0.00660
1149.57604,0.00695
1147.51587,0.00703
1145.45570,0.00727
1143.39552,0.00783
1141.33535,0.00834
1139.27518,0.00875
1137.21501,0.00913
1135.15484,0.00935
1133.09466,0.00952
1131.03449,0.00998
1128.97432,0.01067
1126.91415,0.01124
1124.85398,0.01165
1122.79380,0.01208
1120.73363,0.01267
1118.67346,0.01343
1116.61329,0.01421
1114.55312,0.01494
1112.49294,0.01552
1110.43277,0.01605
1108.37260,0.01668
1106.31243,0.01722
1104.25225,0.01779
1102.19208,0.01851
1100.13191,0.01928
1098.07174,0.02000
1096.01157,0.02055
1093.95139,0.02113
1091.89122,0.02182
1089.83105,0.02240
1087.77088,0.02292
1085.71071,0.02365
1083.65053,0.02441
1081.59036,0.02484
1079.53019,0.02511
1077.47002,0.02555
1075.40985,0.02599
1073.34967,0.02612
1071.28950,0.02613
1069.22933,0.02634
1067.16916,0.02658
1065.10898,0.02660
1063.04881,0.02648
1060.98864,0.02641
1058.92847,0.02620
1056.86830,0.02573
1054.80812,0.02538
1052.74795,0.02532
1050.68778,0.02533
1048.62761,0.02519
1046.56744,0.02481
1044.50726,0.02427
1042.44709,0.02370
1040.38692,0.02317
1038.32675,0.02257
1036.26657,0.02199
1034.20640,0.02166
1032.14623,0.02131
1030.08606,0.02067
1028.02589,0.01997
1025.96571,0.01925
1023.90554,0.01857
1021.84537,0.01808
1019.78520,0.01761
1017.72503,0.01701
1015.66485,0.01647
1013.60468,0.01595
1011.54451,0.01535
1009.48434,0.01507
1007.42417,0.01509
1005.36399,0.01492
1003.30382,0.01467
1001.24365,0.01470
999.18348,0.01492
997.12330,0.01520
995.06313,0.01555
993.00296,0.01600
990.94279,0.01639
988.88262,0.01662
986.82244,0.01676
984.76227,0.01660
982.70210,0.01615
980.64193,0.01583
978.58176,0.01553
976.52158,0.01482
974.46141,0.01374
972.40124,0.01282
970.34107,0.01212
968.28089,0.01132
966.22072,0.01058
964.16055,0.01003
962.10038,0.00926
960.04021,0.00817
957.98003,0.00726
955.91986,0.00704
953.85969,0.00709
951.79952,0.00680
949.73935,0.00635
947.67917,0.00604
945.61900,0.00582
943.55883,0.00544
941.49866,0.00508
939.43849,0.00512
937.37831,0.00511
935.31814,0.00466
933.25797,0.00416
931.19780,0.00390
929.13762,0.00380
927.07745,0.00371
925.01728,0.00361
922.95711,0.00352
920.89694,0.00359
918.83676,0.00376
916.77659,0.00359
914.71642,0.00316
912.65625,0.00288
910.59608,0.00269
908.53590,0.00268
906.47573,0.00284
904.41556,0.00293
902.35539,0.00298
900.29522,0.00290
898.23504,0.00274
896.17487,0.00269
894.11470,0.00253
892.05453,0.00219
889.99435,0.00206
887.93418,0.00230
885.87401,0.00265
883.81384,0.00274
881.75367,0.00275
879.69349,0.00316
877.63332,0.00387
875.57315,0.00417
873.51298,0.00395
871.45281,0.00389
869.39263,0.00425
867.33246,0.00480
865.27229,0.00510
863.21212,0.00480
861.15194,0.00441
859.09177,0.00434
857.03160,0.00438
854.97143,0.00438
852.91126,0.00474
850.85108,0.00549
848.79091,0.00551
846.73074,0.00452
844.67057,0.00361
842.61040,0.00345
840.55022,0.00382
838.49005,0.00404
836.42988,0.00390
834.36971,0.00354
832.30954,0.00302
830.24936,0.00258
828.18919,0.00244
826.12902,0.00232
824.06885,0.00204
822.00867,0.00197
819.94850,0.00209
817.88833,0.00186
815.82816,0.00135
813.76799,0.00113
811.70781,0.00141
809.64764,0.00191
807.58747,0.00203
805.52730,0.00157
803.46713,0.00113
801.40695,0.00096
799.34678,0.00085
797.28661,0.00087
795.22644,0.00103
793.16627,0.00127
791.10609,0.00143
789.04592,0.00136
786.98575,0.00117
784.92558,0.00104
782.86540,0.00115
780.80523,0.00143
778.74506,0.00135
776.68489,0.00086
774.62472,0.00047
772.56454,0.00054
770.50437,0.00104
768.44420,0.00116
766.38403,0.00083
764.32386,0.00102
762.26368,0.00150
760.20351,0.00166
758.14334,0.00126
756.08317,0.00073
754.02299,0.00073
751.96282,0.00070
749.90265,0.00041
747.84248,0.00068
745.78231,0.00120
743.72213,0.00106
741.66196,0.00073
739.60179,0.00105
737.54162,0.00186
735.48145,0.00228
733.42127,0.00182
731.36110,0.00120
729.30093,0.00101
727.24076,0.00092
725.18059,0.00106
723.12041,0.00161
721.06024,0.00186
719.00007,0.00190
716.93990,0.00218
714.87972,0.00232
712.81955,0.00210
710.75938,0.00219
708.69921,0.00258
706.63904,0.00242
704.57886,0.00182
702.51869,0.00175
700.45852,0.00239
698.39835,0.00287
696.33818,0.00266
694.27800,0.00220
692.21783,0.00217
690.15766,0.00250
688.09749,0.00263
686.03731,0.00233
683.97714,0.00181
681.91697,0.00154
679.85680,0.00133
677.79663,0.00062
675.73645,0.00015
673.67628,0.00097
671.61611,0.00252
669.55594,0.00337
667.49577,0.00320
665.43559,0.00331
663.37542,0.00383
661.31525,0.00347
659.25508,0.00243
657.19491,0.00163
655.13473,0.00121
653.07456,0.00132
651.01439,0.00176
648.95422,0.00226
646.89404,0.00242
644.83387,0.00187
642.77370,0.00153
640.71353,0.00193
638.65336,0.00237
636.59318,0.00262
634.53301,0.00269
632.47284,0.00265
630.41267,0.00284
628.35250,0.00312
626.29232,0.00312
624.23215,0.00303
622.17198,0.00258
620.11181,0.00171
618.05164,0.00230
615.99146,0.00461
613.93129,0.00471
611.87112,0.00199
609.81095,0.00000
607.75077,-0.00010
605.69060,0.00082
603.63043,0.00051
601.57026,-0.00078
599.51009,0.00000
