3996.73391,0.00141
3994.67373,0.00137
3992.61356,0.00079
3990.55339,0.00029
3988.49322,0.00034
3986.43305,0.00054
3984.37287,0.00074
3982.31270,0.00102
3980.25253,0.00130
3978.19236,0.00141
3976.13219,0.00135
3974.07201,0.00122
3972.01184,0.00112
3969.95167,0.00108
3967.89150,0.00102
3965.83133,0.00073
3963.77115,0.00026
3961.71098,0.00000
3959.65081,0.00019
3957.59064,0.00063
3955.53046,0.00089
3953.47029,0.00086
3951.41012,0.00077
3949.34995,0.00081
3947.28978,0.00086
3945.22960,0.00087
3943.16943,0.00092
3941.10926,0.00099
3939.04909,0.00103
3936.98892,0.00107
3934.92874,0.00120
3932.86857,0.00127
3930.80840,0.00108
3928.74823,0.00084
3926.68805,0.00095
3924.62788,0.00130
3922.56771,0.00143
3920.50754,0.00117
3918.44737,0.00092
3916.38719,0.00101
3914.32702,0.00114
3912.26685,0.00110
3910.20668,0.00098
3908.14651,0.00085
3906.08633,0.00059
3904.02616,0.00019
3901.96599,0.00013
3899.90582,0.00061
3897.84565,0.00090
3895.78547,0.00072
3893.72530,0.00056
3891.66513,0.00060
3889.60496,0.00065
3887.54478,0.00072
3885.48461,0.00091
3883.42444,0.00104
3881.36427,0.00100
3879.30410,0.00103
3877.24392,0.00124
3875.18375,0.00130
3873.12358,0.00117
3871.06341,0.00121
3869.00324,0.00138
3866.94306,0.00129
3864.88289,0.00121
3862.82272,0.00137
3860.76255,0.00137
3858.70237,0.00112
3856.64220,0.00088
3854.58203,0.00077
3852.52186,0.00103
3850.46169,0.00141
3848.40151,0.00143
3846.34134,0.00132
3844.28117,0.00135
3842.22100,0.00155
3840.16083,0.00192
3838.10065,0.00207
3836.04048,0.00165
3833.98031,0.00123
3831.92014,0.00123
3829.85997,0.00136
3827.79979,0.00135
3825.73962,0.00133
3823.67945,0.00140
3821.61928,0.00152
3819.55910,0.00149
3817.49893,0.00141
3815.43876,0.00159
3813.37859,0.00171
3811.31842,0.00154
3809.25824,0.00128
3807.19807,0.00117
3805.13790,0.00112
3803.07773,0.00090
3801.01756,0.00061
3798.95738,0.00061
3796.89721,0.00087
3794.83704,0.00112
3792.77687,0.00128
3790.71670,0.00124
3788.65652,0.00095
3786.59635,0.00064
3784.53618,0.00051
3782.47601,0.00058
3780.41583,0.00081
3778.35566,0.00107
3776.29549,0.00114
3774.23532,0.00097
3772.17515,0.00074
3770.11497,0.00069
3768.05480,0.00082
3765.99463,0.00099
3763.93446,0.00110
3761.87429,0.00111
3759.81411,0.00115
3757.75394,0.00149
3755.69377,0.00198
3753.63360,0.00215
3751.57342,0.00193
3749.51325,0.00155
3747.45308,0.00117
3745.39291,0.00112
3743.33274,0.00138
3741.27256,0.00148
3739.21239,0.00167
3737.15222,0.00230
3735.09205,0.00289
3733.03188,0.00272
3730.97170,0.00219
3728.91153,0.00181
3726.85136,0.00152
3724.79119,0.00149
3722.73102,0.00197
3720.67084,0.00248
3718.61067,0.00241
3716.55050,0.00186
3714.49033,0.00118
3712.43015,0.00070
3710.36998,0.00085
3708.30981,0.00134
3706.24964,0.00154
3704.18947,0.00155
3702.12929,0.00165
3700.06912,0.00160
3698.00895,0.00140
3695.94878,0.00158
3693.88861,0.00210
3691.82843,0.00245
3689.76826,0.00239
3687.70809,0.00205
3685.64792,0.00173
3683.58775,0.00169
3681.52757,0.00194
3679.46740,0.00239
3677.40723,0.00297
3675.34706,0.00334
3673.28688,0.00335
3671.22671,0.00354
3669.16654,0.00392
3667.10637,0.00407
3665.04620,0.00390
3662.98602,0.00367
3660.92585,0.00367
3658.86568,0.00397
3656.80551,0.00452
3654.74534,0.00507
3652.68516,0.00532
3650.62499,0.00555
3648.56482,0.00612
3646.50465,0.00652
3644.44447,0.00648
3642.38430,0.00648
3640.32413,0.00685
3638.26396,0.00743
3636.20379,0.00794
3634.14361,0.00837
3632.08344,0.00895
3630.02327,0.00952
3627.96310,0.00966
3625.90293,0.00965
3623.84275,0.01009
3621.78258,0.01083
3619.72241,0.01158
3617.66224,0.01252
3615.60207,0.01346
3613.54189,0.01409
3611.48172,0.01460
3609.42155,0.01513
3607.36138,0.01550
3605.30120,0.01564
3603.24103,0.01580
3601.18086,0.01621
3599.12069,0.01687
3597.06052,0.01741
3595.00034,0.01766
3592.94017,0.01789
3590.88000,0.01819
3588.81983,0.01859
3586.75966,0.01931
3584.69948,0.02000
3582.63931,0.02027
3580.57914,0.02047
3578.51897,0.02101
3576.45879,0.02175
3574.39862,0.02234
3572.33845,0.02263
3570.27828,0.02284
3568.21811,0.02337
3566.15793,0.02443
3564.09776,0.02547
3562.03759,0.02577
3559.97742,0.02572
3557.91725,0.02604
3555.85707,0.02675
3553.79690,0.02742
3551.73673,0.02802
3549.67656,0.02855
3547.61639,0.02897
3545.55621,0.02944
3543.49604,0.03023
3541.43587,0.03115
3539.37570,0.03170
3537.31552,0.03179
3535.25535,0.03180
3533.19518,0.03205
3531.13501,0.03256
3529.07484,0.03324
3527.01466,0.03394
3524.95449,0.03452
3522.89432,0.03501
3520.83415,0.03528
3518.77398,0.03535
3516.71380,0.03562
3514.65363,0.03612
3512.59346,0.03658
3510.53329,0.03703
3508.47312,0.03751
3506.41294,0.03790
3504.35277,0.03844
3502.29260,0.03924
3500.23243,0.03983
3498.17225,0.04006
3496.11208,0.04023
3494.05191,0.04050
3491.99174,0.04096
3489.93157,0.04163
3487.87139,0.04222
3485.81122,0.04233
3483.75105,0.04218
3481.69088,0.04242
3479.63071,0.04310
3477.57053,0.04373
3475.51036,0.04424
3473.45019,0.04478
3471.39002,0.04533
3469.32984,0.04580
3467.26967,0.04597
3465.20950,0.04610
3463.14933,0.04660
3461.08916,0.04713
3459.02898,0.04723
3456.96881,0.04714
3454.90864,0.04726
3452.84847,0.04765
3450.78830,0.04834
3448.72812,0.04935
3446.66795,0.05012
3444.60778,0.05017
3442.54761,0.04989
3440.48744,0.04973
3438.42726,0.04991
3436.36709,0.05035
3434.30692,0.05086
3432.24675,0.05147
3430.18657,0.05205
3428.12640,0.05221
3426.06623,0.05204
3424.00606,0.05202
3421.94589,0.05225
3419.88571,0.05252
3417.82554,0.05290
3415.76537,0.05344
3413.70520,0.05388
3411.64503,0.05395
3409.58485,0.05377
3407.52468,0.05355
3405.46451,0.05355
3403.40434,0.05401
3401.34416,0.05474
3399.28399,0.05527
3397.22382,0.05560
3395.16365,0.05599
3393.10348,0.05647
3391.04330,0.05658
3388.98313,0.05637
3386.92296,0.05651
3384.86279,0.05694
3382.80262,0.05716
3380.74244,0.05714
3378.68227,0.05726
3376.62210,0.05743
3374.56193,0.05732
3372.50176,0.05726
3370.44158,0.05757
3368.38141,0.05800
3366.32124,0.05831
3364.26107,0.05836
3362.20089,0.05813
3360.14072,0.05806
3358.08055,0.05827
3356.02038,0.05835
3353.96021,0.05838
3351.90003,0.05866
3349.83986,0.05909
3347.77969,0.05934
3345.71952,0.05936
3343.65935,0.05928
3341.59917,0.05924
3339.53900,0.05938
3337.47883,0.05959
3335.41866,0.05964
3333.35849,0.05961
3331.29831,0.05970
3329.23814,0.05985
3327.17797,0.06005
3325.11780,0.06028
3323.05762,0.06037
3320.99745,0.06026
3318.93728,0.06016
3316.87711,0.06031
3314.81694,0.06060
3312.75676,0.06081
3310.69659,0.06083
3308.63642,0.06050
3306.57625,0.06033
3304.51608,0.06068
3302.45590,0.06105
3300.39573,0.06116
3298.33556,0.06123
3296.27539,0.06131
3294.21521,0.06116
3292.15504,0.06070
3290.09487,0.06034
3288.03470,0.06029
3285.97453,0.06028
3283.91435,0.06012
3281.85418,0.06015
3279.79401,0.06066
3277.73384,0.06118
3275.67367,0.06137
3273.61349,0.06150
3271.55332,0.06154
3269.49315,0.06126
3267.43298,0.06072
3265.37281,0.06036
3263.31263,0.06033
3261.25246,0.06048
3259.19229,0.06072
3257.13212,0.06103
3255.07194,0.06132
3253.01177,0.06158
3250.95160,0.06180
3248.89143,0.06179
3246.83126,0.06154
3244.77108,0.06135
3242.71091,0.06137
3240.65074,0.06139
3238.59057,0.06130
3236.53040,0.06131
3234.47022,0.06132
3232.41005,0.06118
3230.34988,0.06107
3228.28971,0.06102
3226.22954,0.06081
3224.16936,0.06052
3222.10919,0.06036
3220.04902,0.06047
3217.98885,0.06073
3215.92867,0.06088
3213.86850,0.06095
3211.80833,0.06098
3209.74816,0.06090
3207.68799,0.06066
3205.62781,0.06025
3203.56764,0.06003
3201.50747,0.06014
3199.44730,0.06019
3197.38713,0.06007
3195.32695,0.05984
3193.26678,0.05932
3191.20661,0.05874
3189.14644,0.05866
3187.08626,0.05904
3185.02609,0.05932
3182.96592,0.05928
3180.90575,0.05924
3178.84558,0.05921
3176.78540,0.05902
3174.72523,0.05870
3172.66506,0.05852
3170.60489,0.05859
3168.54472,0.05853
3166.48454,0.05810
3164.42437,0.05763
3162.36420,0.05736
3160.30403,0.05727
3158.24386,0.05731
3156.18368,0.05727
3154.12351,0.05695
3152.06334,0.05649
3150.00317,0.05626
3147.94299,0.05631
3145.88282,0.05625
3143.82265,0.05592
3141.76248,0.05566
3139.70231,0.05567
3137.64213,0.05563
3135.58196,0.05530
3133.52179,0.05504
3131.46162,0.05506
3129.40145,0.05488
3127.34127,0.05422
3125.28110,0.05366
3123.22093,0.05373
3121.16076,0.05401
3119.10058,0.05392
3117.04041,0.05356
3114.98024,0.05336
3112.92007,0.05331
3110.85990,0.05305
3108.79972,0.05256
3106.73955,0.05219
3104.67938,0.05207
3102.61921,0.05189
3100.55904,0.05160
3098.49886,0.05134
3096.43869,0.05107
3094.37852,0.05078
3092.31835,0.05050
3090.25818,0.05027
3088.19800,0.05003
3086.13783,0.04967
3084.07766,0.04941
3082.01749,0.04927
3079.95731,0.04899
3077.89714,0.04873
3075.83697,0.04861
3073.77680,0.04840
3071.71663,0.04806
3069.65645,0.04776
3067.59628,0.04758
3065.53611,0.04742
3063.47594,0.04722
3061.41577,0.04693
3059.35559,0.04656
3057.29542,0.04626
3055.23525,0.04598
3053.17508,0.04564
3051.11491,0.04544
3049.05473,0.04548
3046.99456,0.04551
3044.93439,0.04514
3042.87422,0.04446
3040.81404,0.04402
3038.75387,0.04392
3036.69370,0.04383
3034.63353,0.04351
3032.57336,0.04310
3030.51318,0.04283
3028.45301,0.04281
3026.39284,0.04290
3024.33267,0.04285
3022.27250,0.04258
3020.21232,0.04216
3018.15215,0.04173
3016.09198,0.04128
3014.03181,0.04072
3011.97163,0.04022
3009.91146,0.03990
3007.85129,0.03977
3005.79112,0.03988
3003.73095,0.03996
3001.67077,0.03970
2999.61060,0.03930
2997.55043,0.03897
2995.49026,0.03868
2993.43009,0.03845
2991.36991,0.03827
2989.30974,0.03814
2987.24957,0.03804
2985.18940,0.03775
2983.12923,0.03736
2981.06905,0.03725
2979.00888,0.03724
2976.94871,0.03714
2974.88854,0.03698
2972.82836,0.03688
2970.76819,0.03708
2968.70802,0.03731
2966.64785,0.03712
2964.58768,0.03669
2962.52750,0.03636
2960.46733,0.03623
2958.40716,0.03627
2956.34699,0.03637
2954.28682,0.03651
2952.22664,0.03658
2950.16647,0.03649
2948.10630,0.03630
2946.04613,0.03618
2943.98596,0.03613
2941.92578,0.03601
2939.86561,0.03590
2937.80544,0.03596
2935.74527,0.03617
2933.68509,0.03625
2931.62492,0.03612
2929.56475,0.03595
2927.50458,0.03572
2925.44441,0.03532
2923.38423,0.03500
2921.32406,0.03488
2919.26389,0.03476
2917.20372,0.03454
2915.14355,0.03433
2913.08337,0.03416
2911.02320,0.03399
2908.96303,0.03382
2906.90286,0.03371
2904.84268,0.03360
2902.78251,0.03343
2900.72234,0.03320
2898.66217,0.03294
2896.60200,0.03280
2894.54182,0.03290
2892.48165,0.03303
2890.42148,0.03297
2888.36131,0.03278
2886.30114,0.03269
2884.24096,0.03269
2882.18079,0.03270
2880.12062,0.03261
2878.06045,0.03230
2876.00028,0.03201
2873.94010,0.03194
2871.87993,0.03189
2869.81976,0.03184
2867.75959,0.03182
2865.69941,0.03155
2863.63924,0.03105
2861.57907,0.03068
2859.51890,0.03040
2857.45873,0.03019
2855.39855,0.03023
2853.33838,0.03023
2851.27821,0.02989
2849.21804,0.02964
2847.15787,0.02964
2845.09769,0.02953
2843.03752,0.02942
2840.97735,0.02938
2838.91718,0.02921
2836.85700,0.02898
2834.79683,0.02876
2832.73666,0.02855
2830.67649,0.02831
2828.61632,0.02799
2826.55614,0.02781
2824.49597,0.02796
2822.43580,0.02808
2820.37563,0.02778
2818.31546,0.02732
2816.25528,0.02710
2814.19511,0.02709
2812.13494,0.02712
2810.07477,0.02710
2808.01460,0.02702
2805.95442,0.02696
2803.89425,0.02703
2801.83408,0.02684
2799.77391,0.02636
2797.71373,0.02611
2795.65356,0.02608
2793.59339,0.02609
2791.53322,0.02614
2789.47305,0.02602
2787.41287,0.02565
2785.35270,0.02529
2783.29253,0.02520
2781.23236,0.02530
2779.17219,0.02530
2777.11201,0.02512
2775.05184,0.02498
2772.99167,0.02483
2770.93150,0.02457
2768.87133,0.02435
2766.81115,0.02418
2764.75098,0.02405
2762.69081,0.02398
2760.63064,0.02384
2758.57046,0.02378
2756.51029,0.02381
2754.45012,0.02370
2752.38995,0.02348
2750.32978,0.02334
2748.26960,0.02337
2746.20943,0.02340
2744.14926,0.02317
2742.08909,0.02284
2740.02892,0.02265
2737.96874,0.02255
2735.90857,0.02252
2733.84840,0.02255
2731.78823,0.02249
2729.72805,0.02220
2727.66788,0.02188
2725.60771,0.02182
2723.54754,0.02197
2721.48737,0.02194
2719.42719,0.02156
2717.36702,0.02123
2715.30685,0.02123
2713.24668,0.02131
2711.18651,0.02133
2709.12633,0.02121
2707.06616,0.02103
2705.00599,0.02089
2702.94582,0.02068
2700.88565,0.02054
2698.82547,0.02051
2696.76530,0.02031
2694.70513,0.01992
2692.64496,0.01958
2690.58478,0.01948
2688.52461,0.01951
2686.46444,0.01953
2684.40427,0.01959
2682.34410,0.01951
2680.28392,0.01914
2678.22375,0.01875
2676.16358,0.01850
2674.10341,0.01841
2672.04324,0.01847
2669.98306,0.01850
2667.92289,0.01838
2665.86272,0.01813
2663.80255,0.01784
2661.74238,0.01760
2659.68220,0.01743
2657.62203,0.01738
2655.56186,0.01746
2653.50169,0.01746
2651.44151,0.01727
2649.38134,0.01702
2647.32117,0.01676
2645.26100,0.01652
2643.20083,0.01643
2641.14065,0.01647
2639.08048,0.01654
2637.02031,0.01658
2634.96014,0.01657
2632.89997,0.01636
2630.83979,0.01597
2628.77962,0.01571
2626.71945,0.01556
2624.65928,0.01537
2622.59910,0.01512
2620.53893,0.01481
2618.47876,0.01459
2616.41859,0.01451
2614.35842,0.01434
2612.29824,0.01416
2610.23807,0.01410
2608.17790,0.01391
2606.11773,0.01374
2604.05756,0.01373
2601.99738,0.01369
2599.93721,0.01356
2597.87704,0.01345
2595.81687,0.01346
2593.75670,0.01368
2591.69652,0.01388
2589.63635,0.01371
2587.57618,0.01334
2585.51601,0.01317
2583.45583,0.01319
2581.39566,0.01316
2579.33549,0.01312
2577.27532,0.01312
2575.21515,0.01299
2573.15497,0.01289
2571.09480,0.01297
2569.03463,0.01292
2566.97446,0.01284
2564.91429,0.01276
2562.85411,0.01250
2560.79394,0.01244
2558.73377,0.01268
2556.67360,0.01286
2554.61342,0.01295
2552.55325,0.01304
2550.49308,0.01292
2548.43291,0.01265
2546.37274,0.01245
2544.31256,0.01235
2542.25239,0.01254
2540.19222,0.01290
2538.13205,0.01293
2536.07188,0.01266
2534.01170,0.01245
2531.95153,0.01248
2529.89136,0.01270
2527.83119,0.01297
2525.77102,0.01323
2523.71084,0.01314
2521.65067,0.01267
2519.59050,0.01247
2517.53033,0.01263
2515.47015,0.01268
2513.40998,0.01274
2511.34981,0.01301
2509.28964,0.01327
2507.22947,0.01343
2505.16929,0.01350
2503.10912,0.01349
2501.04895,0.01341
2498.98878,0.01330
2496.92861,0.01307
2494.86843,0.01268
2492.80826,0.01253
2490.74809,0.01277
2488.68792,0.01296
2486.62775,0.01304
2484.56757,0.01333
2482.50740,0.01351
2480.44723,0.01331
2478.38706,0.01318
2476.32688,0.01333
2474.26671,0.01336
2472.20654,0.01319
2470.14637,0.01317
2468.08620,0.01349
2466.02602,0.01385
2463.96585,0.01382
2461.90568,0.01361
2459.84551,0.01377
2457.78534,0.01418
2455.72516,0.01429
2453.66499,0.01394
2451.60482,0.01382
2449.54465,0.01417
2447.48447,0.01435
2445.42430,0.01421
2443.36413,0.01412
2441.30396,0.01423
2439.24379,0.01442
2437.18361,0.01464
2435.12344,0.01490
2433.06327,0.01498
2431.00310,0.01480
2428.94293,0.01445
2426.88275,0.01409
2424.82258,0.01401
2422.76241,0.01415
2420.70224,0.01424
2418.64207,0.01426
2416.58189,0.01433
2414.52172,0.01437
2412.46155,0.01432
2410.40138,0.01428
2408.34120,0.01435
2406.28103,0.01438
2404.22086,0.01426
2402.16069,0.01386
2400.10052,0.01338
2398.04034,0.01329
2395.98017,0.01365
2393.92000,0.01394
2391.85983,0.01389
2389.79966,0.01369
2387.73948,0.01359
2385.67931,0.01365
2383.61914,0.01377
2381.55897,0.01381
2379.49880,0.01374
2377.43862,0.01369
2375.37845,0.01364
2373.31828,0.01346
2371.25811,0.01301
2369.19793,0.01252
2367.13776,0.01230
2365.07759,0.01199
2363.01742,0.01114
2360.95725,0.01110
2358.89707,0.01156
2356.83690,0.01199
2354.77673,0.01231
2352.71656,0.01333
2350.65639,0.01545
2348.59621,0.01667
2346.53604,0.01525
2344.47587,0.01414
2342.41570,0.01359
2340.35552,0.01379
2338.29535,0.01476
2336.23518,0.01523
2334.17501,0.01450
2332.11484,0.01335
2330.05466,0.01333
2327.99449,0.01432
2325.93432,0.01540
2323.87415,0.01542
2321.81398,0.01466
2319.75380,0.01351
2317.69363,0.01302
2315.63346,0.01297
2313.57329,0.01315
2311.51312,0.01349
2309.45294,0.01357
2307.39277,0.01328
2305.33260,0.01314
2303.27243,0.01315
2301.21225,0.01282
2299.15208,0.01245
2297.09191,0.01243
2295.03174,0.01268
2292.97157,0.01305
2290.91139,0.01324
2288.85122,0.01308
2286.79105,0.01272
2284.73088,0.01240
2282.67071,0.01238
2280.61053,0.01283
2278.55036,0.01331
2276.49019,0.01302
2274.43002,0.01190
2272.36984,0.01082
2270.30967,0.01063
2268.24950,0.01115
2266.18933,0.01143
2264.12916,0.01123
2262.06898,0.01134
2260.00881,0.01182
2257.94864,0.01205
2255.88847,0.01174
2253.82830,0.01106
2251.76812,0.01034
2249.70795,0.00985
2247.64778,0.00989
2245.58761,0.00998
2243.52744,0.00976
2241.46726,0.00964
2239.40709,0.00964
2237.34692,0.00900
2235.28675,0.00812
2233.22657,0.00839
2231.16640,0.00936
2229.10623,0.00951
2227.04606,0.00913
2224.98589,0.00874
2222.92571,0.00835
2220.86554,0.00840
2218.80537,0.00882
2216.74520,0.00923
2214.68503,0.00862
2212.62485,0.00697
2210.56468,0.00643
2208.50451,0.00764
2206.44434,0.00829
2204.38417,0.00770
2202.32399,0.00777
2200.26382,0.00870
2198.20365,0.00870
2196.14348,0.00769
2194.08330,0.00737
2192.02313,0.00814
2189.96296,0.00887
2187.90279,0.00870
2185.84262,0.00781
2183.78244,0.00699
2181.72227,0.00696
2179.66210,0.00756
2177.60193,0.00773
2175.54176,0.00717
2173.48158,0.00630
2171.42141,0.00612
2169.36124,0.00683
2167.30107,0.00706
2165.24089,0.00688
2163.18072,0.00713
2161.12055,0.00630
2159.06038,0.00412
2157.00021,0.00294
2154.94003,0.00298
2152.87986,0.00326
2150.81969,0.00377
2148.75952,0.00470
2146.69935,0.00570
2144.63917,0.00598
2142.57900,0.00561
2140.51883,0.00513
2138.45866,0.00442
2136.39849,0.00380
2134.33831,0.00378
2132.27814,0.00462
2130.21797,0.00596
2128.15780,0.00690
2126.09762,0.00722
2124.03745,0.00705
2121.97728,0.00713
2119.91711,0.00779
2117.85694,0.00809
2115.79676,0.00769
2113.73659,0.00712
2111.67642,0.00668
2109.61625,0.00641
2107.55608,0.00632
2105.49590,0.00638
2103.43573,0.00656
2101.37556,0.00665
2099.31539,0.00636
2097.25521,0.00579
2095.19504,0.00535
2093.13487,0.00534
2091.07470,0.00577
2089.01453,0.00635
2086.95435,0.00654
2084.89418,0.00627
2082.83401,0.00592
2080.77384,0.00571
2078.71367,0.00609
2076.65349,0.00642
2074.59332,0.00589
2072.53315,0.00527
2070.47298,0.00510
2068.41281,0.00505
2066.35263,0.00499
2064.29246,0.00510
2062.23229,0.00544
2060.17212,0.00617
2058.11194,0.00693
2056.05177,0.00680
2053.99160,0.00616
2051.93143,0.00558
2049.87126,0.00487
2047.81108,0.00452
2045.75091,0.00399
2043.69074,0.00317
2041.63057,0.00365
2039.57040,0.00412
2037.51022,0.00284
2035.45005,0.00128
2033.38988,0.00073
2031.32971,0.00138
2029.26954,0.00305
2027.20936,0.00422
2025.14919,0.00342
2023.08902,0.00242
2021.02885,0.00343
2018.96867,0.00475
2016.90850,0.00452
2014.84833,0.00360
2012.78816,0.00314
2010.72799,0.00294
2008.66781,0.00228
2006.60764,0.00178
2004.54747,0.00138
2002.48730,0.00047
2000.42713,0.00022
1998.36695,0.00093
1996.30678,0.00120
1994.24661,0.00056
1992.18644,0.00027
1990.12626,0.00094
1988.06609,0.00212
1986.00592,0.00331
1983.94575,0.00346
1981.88558,0.00305
1979.82540,0.00360
1977.76523,0.00419
1975.70506,0.00333
1973.64489,0.00204
1971.58472,0.00197
1969.52454,0.00251
1967.46437,0.00263
1965.40420,0.00295
1963.34403,0.00335
1961.28386,0.00295
1959.22368,0.00274
1957.16351,0.00323
1955.10334,0.00322
1953.04317,0.00310
1950.98299,0.00336
1948.92282,0.00317
1946.86265,0.00294
1944.80248,0.00319
1942.74231,0.00327
1940.68213,0.00297
1938.62196,0.00231
1936.56179,0.00135
1934.50162,0.00090
1932.44145,0.00124
1930.38127,0.00178
1928.32110,0.00194
1926.26093,0.00170
1924.20076,0.00151
1922.14059,0.00171
1920.08041,0.00208
1918.02024,0.00225
1915.96007,0.00250
1913.89990,0.00297
1911.83972,0.00311
1909.77955,0.00285
1907.71938,0.00284
1905.65921,0.00286
1903.59904,0.00265
1901.53886,0.00288
1899.47869,0.00346
1897.41852,0.00368
1895.35835,0.00350
1893.29818,0.00313
1891.23800,0.00277
1889.17783,0.00271
1887.11766,0.00317
1885.05749,0.00384
1882.99731,0.00414
1880.93714,0.00398
1878.87697,0.00376
1876.81680,0.00380
1874.75663,0.00404
1872.69645,0.00409
1870.63628,0.00390
1868.57611,0.00393
1866.51594,0.00419
1864.45577,0.00420
1862.39559,0.00389
1860.33542,0.00365
1858.27525,0.00369
1856.21508,0.00383
1854.15491,0.00378
1852.09473,0.00350
1850.03456,0.00339
1847.97439,0.00369
1845.91422,0.00410
1843.85404,0.00410
1841.79387,0.00369
1839.73370,0.00337
1837.67353,0.00348
1835.61336,0.00376
1833.55318,0.00392
1831.49301,0.00401
1829.43284,0.00409
1827.37267,0.00404
1825.31250,0.00386
1823.25232,0.00373
1821.19215,0.00379
1819.13198,0.00402
1817.07181,0.00415
1815.01163,0.00407
1812.95146,0.00410
1810.89129,0.00442
1808.83112,0.00473
1806.77095,0.00483
1804.71077,0.00493
1802.65060,0.00504
1800.59043,0.00498
1798.53026,0.00472
1796.47009,0.00444
1794.40991,0.00432
1792.34974,0.00434
1790.28957,0.00440
1788.22940,0.00446
1786.16923,0.00453
1784.10905,0.00463
1782.04888,0.00475
1779.98871,0.00479
1777.92854,0.00476
1775.86836,0.00477
1773.80819,0.00496
1771.74802,0.00538
1769.68785,0.00579
1767.62768,0.00590
1765.56750,0.00581
1763.50733,0.00576
1761.44716,0.00584
1759.38699,0.00599
1757.32682,0.00607
1755.26664,0.00609
1753.20647,0.00617
1751.14630,0.00645
1749.08613,0.00687
1747.02596,0.00722
1744.96578,0.00746
1742.90561,0.00776
1740.84544,0.00813
1738.78527,0.00828
1736.72509,0.00818
1734.66492,0.00824
1732.60475,0.00857
1730.54458,0.00877
1728.48441,0.00884
1726.42423,0.00894
1724.36406,0.00909
1722.30389,0.00922
1720.24372,0.00935
1718.18355,0.00954
1716.12337,0.00992
1714.06320,0.01040
1712.00303,0.01078
1709.94286,0.01110
1707.88268,0.01144
1705.82251,0.01178
1703.76234,0.01213
1701.70217,0.01261
1699.64200,0.01314
1697.58182,0.01334
1695.52165,0.01345
1693.46148,0.01384
1691.40131,0.01442
1689.34114,0.01505
1687.28096,0.01561
1685.22079,0.01609
1683.16062,0.01671
1681.10045,0.01722
1679.04028,0.01753
1676.98010,0.01790
1674.91993,0.01848
1672.85976,0.01906
1670.79959,0.01969
1668.73941,0.02051
1666.67924,0.02113
1664.61907,0.02151
1662.55890,0.02193
1660.49873,0.02217
1658.43855,0.02212
1656.37838,0.02195
1654.31821,0.02187
1652.25804,0.02211
1650.19787,0.02253
1648.13769,0.02286
1646.07752,0.02289
1644.01735,0.02261
1641.95718,0.02233
1639.89701,0.02226
1637.83683,0.02236
1635.77666,0.02240
1633.71649,0.02214
1631.65632,0.02177
1629.59614,0.02145
1627.53597,0.02116
1625.47580,0.02098
1623.41563,0.02099
1621.35546,0.02104
1619.29528,0.02092
1617.23511,0.02062
1615.17494,0.02031
1613.11477,0.02009
1611.05460,0.01989
1608.99442,0.01953
1606.93425,0.01898
1604.87408,0.01853
1602.81391,0.01829
1600.75373,0.01800
1598.69356,0.01750
1596.63339,0.01695
1594.57322,0.01652
1592.51305,0.01612
1590.45287,0.01565
1588.39270,0.01512
1586.33253,0.01450
1584.27236,0.01377
1582.21219,0.01311
1580.15201,0.01270
1578.09184,0.01248
1576.03167,0.01217
1573.97150,0.01167
1571.91133,0.01125
1569.85115,0.01099
1567.79098,0.01067
1565.73081,0.01015
1563.67064,0.00963
1561.61046,0.00927
1559.55029,0.00908
1557.49012,0.00901
1555.42995,0.00880
1553.36978,0.00838
1551.30960,0.00795
1549.24943,0.00759
1547.18926,0.00729
1545.12909,0.00709
1543.06892,0.00693
1541.00874,0.00670
1538.94857,0.00638
1536.88840,0.00610
1534.82823,0.00595
1532.76805,0.00593
1530.70788,0.00587
1528.64771,0.00567
1526.58754,0.00538
1524.52737,0.00515
1522.46719,0.00505
1520.40702,0.00487
1518.34685,0.00463
1516.28668,0.00446
1514.22651,0.00433
1512.16633,0.00418
1510.10616,0.00416
1508.04599,0.00438
1505.98582,0.00448
1503.92565,0.00411
1501.86547,0.00372
1499.80530,0.00365
1497.74513,0.00383
1495.68496,0.00396
1493.62478,0.00387
1491.56461,0.00375
1489.50444,0.00379
1487.44427,0.00391
1485.38410,0.00398
1483.32392,0.00395
1481.26375,0.00397
1479.20358,0.00416
1477.14341,0.00439
1475.08324,0.00444
1473.02306,0.00434
1470.96289,0.00434
1468.90272,0.00451
1466.84255,0.00479
1464.78238,0.00503
1462.72220,0.00505
1460.66203,0.00490
1458.60186,0.00476
1456.54169,0.00479
1454.48151,0.00497
1452.42134,0.00514
1450.36117,0.00521
1448.30100,0.00519
1446.24083,0.00513
1444.18065,0.00508
1442.12048,0.00502
1440.06031,0.00492
1438.00014,0.00496
1435.93997,0.00518
1433.87979,0.00531
1431.81962,0.00535
1429.75945,0.00551
1427.69928,0.00566
1425.63910,0.00568
1423.57893,0.00571
1421.51876,0.00590
1419.45859,0.00623
1417.39842,0.00662
1415.33824,0.00678
1413.27807,0.00660
1411.21790,0.00627
1409.15773,0.00599
1407.09756,0.00586
1405.03738,0.00593
1402.97721,0.00599
1400.91704,0.00591
1398.85687,0.00578
1396.79670,0.00557
1394.73652,0.00524
1392.67635,0.00499
1390.61618,0.00496
1388.55601,0.00507
1386.49583,0.00516
1384.43566,0.00515
1382.37549,0.00507
1380.31532,0.00498
1378.25515,0.00506
1376.19497,0.00539
1374.13480,0.00572
1372.07463,0.00571
1370.01446,0.00536
1367.95429,0.00500
1365.89411,0.00478
1363.83394,0.00462
1361.77377,0.00445
1359.71360,0.00434
1357.65343,0.00433
1355.59325,0.00432
1353.53308,0.00422
1351.47291,0.00408
1349.41274,0.00398
1347.35256,0.00391
1345.29239,0.00380
1343.23222,0.00363
1341.17205,0.00350
1339.11188,0.00358
1337.05170,0.00381
1334.99153,0.00399
1332.93136,0.00406
1330.87119,0.00403
1328.81102,0.00394
1326.75084,0.00388
1324.69067,0.00384
1322.63050,0.00379
1320.57033,0.00377
1318.51015,0.00384
1316.44998,0.00401
1314.38981,0.00408
1312.32964,0.00394
1310.26947,0.00372
1308.20929,0.00359
1306.14912,0.00363
1304.08895,0.00381
1302.02878,0.00395
1299.96861,0.00399
1297.90843,0.00402
1295.84826,0.00413
1293.78809,0.00427
1291.72792,0.00434
1289.66775,0.00435
1287.60757,0.00441
1285.54740,0.00451
1283.48723,0.00460
1281.42706,0.00461
1279.36688,0.00462
1277.30671,0.00471
1275.24654,0.00481
1273.18637,0.00488
1271.12620,0.00495
1269.06602,0.00500
1267.00585,0.00502
1264.94568,0.00503
1262.88551,0.00509
1260.82534,0.00519
1258.76516,0.00523
1256.70499,0.00517
1254.64482,0.00512
1252.58465,0.00508
1250.52447,0.00493
1248.46430,0.00471
1246.40413,0.00456
1244.34396,0.00445
1242.28379,0.00438
1240.22361,0.00430
1238.16344,0.00417
1236.10327,0.00387
1234.04310,0.00346
1231.98293,0.00325
1229.92275,0.00325
1227.86258,0.00316
1225.80241,0.00290
1223.74224,0.00255
1221.68207,0.00226
1219.62189,0.00207
1217.56172,0.00184
1215.50155,0.00162
1213.44138,0.00160
1211.38120,0.00161
1209.32103,0.00148
1207.26086,0.00128
1205.20069,0.00110
1203.14052,0.00105
1201.08034,0.00117
1199.02017,0.00146
1196.96000,0.00182
1194.89983,0.00207
1192.83966,0.00225
1190.77948,0.00250
1188.71931,0.00283
1186.65914,0.00328
1184.59897,0.00392
1182.53880,0.00475
1180.47862,0.00565
1178.41845,0.00646
1176.35828,0.00732
1174.29811,0.00840
1172.23793,0.00956
1170.17776,0.01051
1168.11759,0.01131
1166.05742,0.01222
1163.99725,0.01322
1161.93707,0.01428
1159.87690,0.01537
1157.81673,0.01641
1155.75656,0.01740
1153.69639,0.01831
1151.63621,0.01922
1149.57604,0.02031
1147.51587,0.02151
1145.45570,0.02251
1143.39552,0.02352
1141.33535,0.02472
1139.27518,0.02592
1137.21501,0.02716
1135.15484,0.02875
1133.09466,0.03049
1131.03449,0.03187
1128.97432,0.03297
1126.91415,0.03414
1124.85398,0.03548
1122.79380,0.03690
1120.73363,0.03836
1118.67346,0.03981
1116.61329,0.04119
1114.55312,0.04266
1112.49294,0.04431
1110.43277,0.04596
1108.37260,0.04744
1106.31243,0.04876
1104.25225,0.05021
1102.19208,0.05184
1100.13191,0.05332
1098.07174,0.05460
1096.01157,0.05576
1093.95139,0.05696
1091.89122,0.05824
1089.83105,0.05933
1087.77088,0.06031
1085.71071,0.06148
1083.65053,0.06286
1081.59036,0.06414
1079.53019,0.06518
1077.47002,0.06600
1075.40985,0.06661
1073.34967,0.06726
1071.28950,0.06795
1069.22933,0.06830
1067.16916,0.06827
1065.10898,0.06826
1063.04881,0.06829
1060.98864,0.06784
1058.92847,0.06694
1056.86830,0.06624
1054.80812,0.06578
1052.74795,0.06512
1050.68778,0.06414
1048.62761,0.06294
1046.56744,0.06158
1044.50726,0.06029
1042.44709,0.05911
1040.38692,0.05784
1038.32675,0.05660
1036.26657,0.05533
1034.20640,0.05380
1032.14623,0.05216
1030.08606,0.05048
1028.02589,0.04891
1025.96571,0.04766
1023.90554,0.04653
1021.84537,0.04540
1019.78520,0.04431
1017.72503,0.04324
1015.66485,0.04220
1013.60468,0.04130
1011.54451,0.04062
1009.48434,0.04008
1007.42417,0.03971
1005.36399,0.03959
1003.30382,0.03963
1001.24365,0.03995
999.18348,0.04053
997.12330,0.04117
995.06313,0.04193
993.00296,0.04294
990.94279,0.04393
988.88262,0.04467
986.82244,0.04531
984.76227,0.04588
982.70210,0.04616
980.64193,0.04598
978.58176,0.04527
976.52158,0.04422
974.46141,0.04293
972.40124,0.04121
970.34107,0.03931
968.28089,0.03786
966.22072,0.03654
964.16055,0.03500
962.10038,0.03335
960.04021,0.03151
957.98003,0.02986
955.91986,0.02890
953.85969,0.02826
951.79952,0.02733
949.73935,0.02613
947.67917,0.02492
945.61900,0.02404
943.55883,0.02357
941.49866,0.02323
939.43849,0.02299
937.37831,0.02275
935.31814,0.02235
933.25797,0.02202
931.19780,0.02197
929.13762,0.02212
927.07745,0.02188
925.01728,0.02118
922.95711,0.02063
920.89694,0.02011
918.83676,0.01941
916.77659,0.01894
914.71642,0.01864
912.65625,0.01825
910.59608,0.01778
908.53590,0.01718
906.47573,0.01669
904.41556,0.01648
902.35539,0.01631
900.29522,0.01607
898.23504,0.01591
896.17487,0.01619
894.11470,0.01694
892.05453,0.01762
889.99435,0.01799
887.93418,0.01839
885.87401,0.01873
883.81384,0.01881
881.75367,0.01908
879.69349,0.01961
877.63332,0.02016
875.57315,0.02065
873.51298,0.02081
871.45281,0.02079
869.39263,0.02114
867.33246,0.02173
865.27229,0.02206
863.21212,0.02221
861.15194,0.02251
859.09177,0.02267
857.03160,0.02227
854.97143,0.02149
852.91126,0.02076
850.85108,0.02021
848.79091,0.01959
846.73074,0.01897
844.67057,0.01854
842.61040,0.01813
840.55022,0.01749
838.49005,0.01685
836.42988,0.01639
834.36971,0.01586
832.30954,0.01512
830.24936,0.01418
828.18919,0.01346
826.12902,0.01342
824.06885,0.01324
822.00867,0.01217
819.94850,0.01108
817.88833,0.01056
815.82816,0.01019
813.76799,0.00984
811.70781,0.00939
809.64764,0.00880
807.58747,0.00853
805.52730,0.00854
803.46713,0.00810
801.40695,0.00748
799.34678,0.00752
797.28661,0.00776
795.22644,0.00767
793.16627,0.00731
791.10609,0.00691
789.04592,0.00668
786.98575,0.00663
784.92558,0.00681
782.86540,0.00695
780.80523,0.00670
778.74506,0.00617
776.68489,0.00611
774.62472,0.00671
772.56454,0.00669
770.50437,0.00589
768.44420,0.00556
766.38403,0.00576
764.32386,0.00568
762.26368,0.00514
760.20351,0.00455
758.14334,0.00440
756.08317,0.00462
754.02299,0.00444
751.96282,0.00397
749.90265,0.00399
747.84248,0.00415
745.78231,0.00391
743.72213,0.00379
741.66196,0.00418
739.60179,0.00456
737.54162,0.00441
735.48145,0.00411
733.42127,0.00424
731.36110,0.00462
729.30093,0.00443
727.24076,0.00361
725.18059,0.00301
723.12041,0.00320
721.06024,0.00383
719.00007,0.00476
716.93990,0.00503
714.87972,0.00468
712.81955,0.00449
710.75938,0.00474
708.69921,0.00494
706.63904,0.00468
704.57886,0.00437
702.51869,0.00430
700.45852,0.00431
698.39835,0.00451
696.33818,0.00467
694.27800,0.00431
692.21783,0.00365
690.15766,0.00343
688.09749,0.00397
686.03731,0.00481
683.97714,0.00550
681.91697,0.00592
679.85680,0.00607
677.79663,0.00582
675.73645,0.00494
673.67628,0.00409
671.61611,0.00411
669.55594,0.00276
667.49577,0.00125
665.43559,0.00425
663.37542,0.00485
661.31525,0.00472
659.25508,0.00400
657.19491,0.00329
655.13473,0.00380
653.07456,0.00444
651.01439,0.00418
648.95422,0.00403
646.89404,0.00446
644.83387,0.00416
642.77370,0.00268
640.71353,0.00146
638.65336,0.00185
636.59318,0.00291
634.53301,0.00352
632.47284,0.00343
630.41267,0.00270
628.35250,0.00197
626.29232,0.00168
624.23215,0.00149
622.17198,0.00135
620.11181,0.00176
618.05164,0.00220
615.99146,0.00078
613.93129,0.00000
611.87112,0.00223
609.81095,0.00345
607.75077,0.00187
605.69060,0.00107
603.63043,0.00136
601.57026,0.00100
599.51009,0.00000
