3996.73391,0.00052
3994.67373,0.00031
3992.61356,0.00003
3990.55339,0.00000
3988.49322,0.00020
3986.43305,0.00043
3984.37287,0.00060
3982.31270,0.00059
3980.25253,0.00050
3978.19236,0.00047
3976.13219,0.00054
3974.07201,0.00064
3972.01184,0.00067
3969.95167,0.00069
3967.89150,0.00064
3965.83133,0.00045
3963.77115,0.00035
3961.71098,0.00047
3959.65081,0.00052
3957.59064,0.00039
3955.53046,0.00031
3953.47029,0.00034
3951.41012,0.00045
3949.34995,0.00066
3947.28978,0.00088
3945.22960,0.00087
3943.16943,0.00078
3941.10926,0.00104
3939.04909,0.00155
3936.98892,0.00167
3934.92874,0.00131
3932.86857,0.00096
3930.80840,0.00079
3928.74823,0.00064
3926.68805,0.00053
3924.62788,0.00048
3922.56771,0.00073
3920.50754,0.00125
3918.44737,0.00146
3916.38719,0.00098
3914.32702,0.00035
3912.26685,0.00021
3910.20668,0.00037
3908.14651,0.00046
3906.08633,0.00047
3904.02616,0.00061
3901.96599,0.00069
3899.90582,0.00042
3897.84565,0.00011
3895.78547,0.00009
3893.72530,0.00015
3891.66513,0.00019
3889.60496,0.00048
3887.54478,0.00100
3885.48461,0.00129
3883.42444,0.00115
3881.36427,0.00090
3879.30410,0.00087
3877.24392,0.00089
3875.18375,0.00077
3873.12358,0.00083
3871.06341,0.00127
3869.00324,0.00156
3866.94306,0.00146
3864.88289,0.00125
3862.82272,0.00109
3860.76255,0.00100
3858.70237,0.00097
3856.64220,0.00096
3854.58203,0.00099
3852.52186,0.00114
3850.46169,0.00127
3848.40151,0.00124
3846.34134,0.00106
3844.28117,0.00101
3842.22100,0.00132
3840.16083,0.00173
3838.10065,0.00194
3836.04048,0.00199
3833.98031,0.00159
3831.92014,0.00091
3829.85997,0.00071
3827.79979,0.00109
3825.73962,0.00148
3823.67945,0.00142
3821.61928,0.00104
3819.55910,0.00088
3817.49893,0.00106
3815.43876,0.00128
3813.37859,0.00155
3811.31842,0.00177
3809.25824,0.00170
3807.19807,0.00146
3805.13790,0.00132
3803.07773,0.00132
3801.01756,0.00149
3798.95738,0.00160
3796.89721,0.00150
3794.83704,0.00154
3792.77687,0.00174
3790.71670,0.00185
3788.65652,0.00202
3786.59635,0.00215
3784.53618,0.00197
3782.47601,0.00177
3780.41583,0.00148
3778.35566,0.00074
3776.29549,0.00019
3774.23532,0.00034
3772.17515,0.00084
3770.11497,0.00135
3768.05480,0.00169
3765.99463,0.00178
3763.93446,0.00165
3761.87429,0.00146
3759.81411,0.00139
3757.75394,0.00152
3755.69377,0.00181
3753.63360,0.00212
3751.57342,0.00237
3749.51325,0.00281
3747.45308,0.00339
3745.39291,0.00360
3743.33274,0.00307
3741.27256,0.00257
3739.21239,0.00296
3737.15222,0.00361
3735.09205,0.00312
3733.03188,0.00182
3730.97170,0.00148
3728.91153,0.00208
3726.85136,0.00246
3724.79119,0.00237
3722.73102,0.00241
3720.67084,0.00259
3718.61067,0.00256
3716.55050,0.00245
3714.49033,0.00257
3712.43015,0.00285
3710.36998,0.00302
3708.30981,0.00310
3706.24964,0.00313
3704.18947,0.00302
3702.12929,0.00292
3700.06912,0.00285
3698.00895,0.00270
3695.94878,0.00295
3693.88861,0.00360
3691.82843,0.00383
3689.76826,0.00364
3687.70809,0.00366
3685.64792,0.00371
3683.58775,0.00363
3681.52757,0.00369
3679.46740,0.00401
3677.40723,0.00423
3675.34706,0.00405
3673.28688,0.00407
3671.22671,0.00483
3669.16654,0.00583
3667.10637,0.00635
3665.04620,0.00653
3662.98602,0.00690
3660.92585,0.00756
3658.86568,0.00824
3656.80551,0.00886
3654.74534,0.00951
3652.68516,0.00991
3650.62499,0.01039
3648.56482,0.01152
3646.50465,0.01247
3644.44447,0.01275
3642.38430,0.01302
3640.32413,0.01374
3638.26396,0.01486
3636.20379,0.01593
3634.14361,0.01672
3632.08344,0.01748
3630.02327,0.01826
3627.96310,0.01896
3625.90293,0.01972
3623.84275,0.02073
3621.78258,0.02175
3619.72241,0.02245
3617.66224,0.02297
3615.60207,0.02365
3613.54189,0.02454
3611.48172,0.02570
3609.42155,0.02703
3607.36138,0.02802
3605.30120,0.02837
3603.24103,0.02856
3601.18086,0.02904
3599.12069,0.02988
3597.06052,0.03097
3595.00034,0.03214
3592.94017,0.03323
3590.88000,0.03415
3588.81983,0.03496
3586.75966,0.03579
3584.69948,0.03663
3582.63931,0.03747
3580.57914,0.03825
3578.51897,0.03897
3576.45879,0.03975
3574.39862,0.04062
3572.33845,0.04151
3570.27828,0.04255
3568.21811,0.04398
3566.15793,0.04526
3564.09776,0.04572
3562.03759,0.04607
3559.97742,0.04698
3557.91725,0.04803
3555.85707,0.04879
3553.79690,0.04961
3551.73673,0.05070
3549.67656,0.05171
3547.61639,0.05254
3545.55621,0.05347
3543.49604,0.05466
3541.43587,0.05597
3539.37570,0.05704
3537.31552,0.05773
3535.25535,0.05829
3533.19518,0.05889
3531.13501,0.05966
3529.07484,0.06068
3527.01466,0.06168
3524.95449,0.06247
3522.89432,0.06329
3520.83415,0.06408
3518.77398,0.06459
3516.71380,0.06500
3514.65363,0.06563
3512.59346,0.06636
3510.53329,0.06710
3508.47312,0.06804
3506.41294,0.06913
3504.35277,0.07013
3502.29260,0.07095
3500.23243,0.07166
3498.17225,0.07232
3496.11208,0.07298
3494.05191,0.07384
3491.99174,0.07496
3489.93157,0.07591
3487.87139,0.07643
3485.81122,0.07682
3483.75105,0.07741
3481.69088,0.07830
3479.63071,0.07930
3477.57053,0.08007
3475.51036,0.08057
3473.45019,0.08104
3471.39002,0.08164
3469.32984,0.08240
3467.26967,0.08316
3465.20950,0.08371
3463.14933,0.08428
3461.08916,0.08520
3459.02898,0.08623
3456.96881,0.08695
3454.90864,0.08755
3452.84847,0.08827
3450.78830,0.08871
3448.72812,0.08889
3446.66795,0.08942
3444.60778,0.09024
3442.54761,0.09102
3440.48744,0.09187
3438.42726,0.09259
3436.36709,0.09302
3434.30692,0.09331
3432.24675,0.09363
3430.18657,0.09410
3428.12640,0.09459
3426.06623,0.09483
3424.00606,0.09512
3421.94589,0.09582
3419.88571,0.09649
3417.82554,0.09664
3415.76537,0.09661
3413.70520,0.09702
3411.64503,0.09769
3409.58485,0.09821
3407.52468,0.09857
3405.46451,0.09896
3403.40434,0.09929
3401.34416,0.09952
3399.28399,0.09992
3397.22382,0.10044
3395.16365,0.10113
3393.10348,0.10193
3391.04330,0.10244
3388.98313,0.10244
3386.92296,0.10232
3384.86279,0.10216
3382.80262,0.10190
3380.74244,0.10204
3378.68227,0.10257
3376.62210,0.10291
3374.56193,0.10313
3372.50176,0.10354
3370.44158,0.10390
3368.38141,0.10394
3366.32124,0.10389
3364.26107,0.10384
3362.20089,0.10401
3360.14072,0.10468
3358.08055,0.10529
3356.02038,0.10524
3353.96021,0.10473
3351.90003,0.10424
3349.83986,0.10414
3347.77969,0.10432
3345.71952,0.10462
3343.65935,0.10492
3341.59917,0.10496
3339.53900,0.10474
3337.47883,0.10436
3335.41866,0.10401
3333.35849,0.10416
3331.29831,0.10473
3329.23814,0.10502
3327.17797,0.10486
3325.11780,0.10477
3323.05762,0.10478
3320.99745,0.10440
3318.93728,0.10379
3316.87711,0.10357
3314.81694,0.10381
3312.75676,0.10398
3310.69659,0.10374
3308.63642,0.10345
3306.57625,0.10339
3304.51608,0.10333
3302.45590,0.10326
3300.39573,0.10339
3298.33556,0.10365
3296.27539,0.10377
3294.21521,0.10383
3292.15504,0.10394
3290.09487,0.10393
3288.03470,0.10387
3285.97453,0.10396
3283.91435,0.10387
3281.85418,0.10331
3279.79401,0.10274
3277.73384,0.10273
3275.67367,0.10305
3273.61349,0.10302
3271.55332,0.10269
3269.49315,0.10255
3267.43298,0.10278
3265.37281,0.10321
3263.31263,0.10338
3261.25246,0.10312
3259.19229,0.10289
3257.13212,0.10292
3255.07194,0.10286
3253.01177,0.10280
3250.95160,0.10292
3248.89143,0.10277
3246.83126,0.10230
3244.77108,0.10207
3242.71091,0.10215
3240.65074,0.10217
3238.59057,0.10198
3236.53040,0.10177
3234.47022,0.10185
3232.41005,0.10210
3230.34988,0.10225
3228.28971,0.10219
3226.22954,0.10178
3224.16936,0.10104
3222.10919,0.10044
3220.04902,0.10036
3217.98885,0.10050
3215.92867,0.10048
3213.86850,0.10025
3211.80833,0.09978
3209.74816,0.09912
3207.68799,0.09860
3205.62781,0.09835
3203.56764,0.09820
3201.50747,0.09821
3199.44730,0.09824
3197.38713,0.09791
3195.32695,0.09751
3193.26678,0.09734
3191.20661,0.09705
3189.14644,0.09643
3187.08626,0.09569
3185.02609,0.09517
3182.96592,0.09504
3180.90575,0.09488
3178.84558,0.09433
3176.78540,0.09372
3174.72523,0.09326
3172.66506,0.09283
3170.60489,0.09250
3168.54472,0.09230
3166.48454,0.09208
3164.42437,0.09168
3162.36420,0.09116
3160.30403,0.09073
3158.24386,0.09049
3156.18368,0.09023
3154.12351,0.08969
3152.06334,0.08916
3150.00317,0.08905
3147.94299,0.08896
3145.88282,0.08833
3143.82265,0.08746
3141.76248,0.08688
3139.70231,0.08674
3137.64213,0.08655
3135.58196,0.08595
3133.52179,0.08528
3131.46162,0.08480
3129.40145,0.08442
3127.34127,0.08410
3125.28110,0.08374
3123.22093,0.08334
3121.16076,0.08308
3119.10058,0.08276
3117.04041,0.08229
3114.98024,0.08184
3112.92007,0.08119
3110.85990,0.08035
3108.79972,0.07998
3106.73955,0.08000
3104.67938,0.07974
3102.61921,0.07918
3100.55904,0.07857
3098.49886,0.07801
3096.43869,0.07757
3094.37852,0.07715
3092.31835,0.07660
3090.25818,0.07598
3088.19800,0.07552
3086.13783,0.07521
3084.07766,0.07485
3082.01749,0.07450
3079.95731,0.07405
3077.89714,0.07330
3075.83697,0.07258
3073.77680,0.07225
3071.71663,0.07203
3069.65645,0.07161
3067.59628,0.07112
3065.53611,0.07062
3063.47594,0.07011
3061.41577,0.06963
3059.35559,0.06928
3057.29542,0.06891
3055.23525,0.06830
3053.17508,0.06760
3051.11491,0.06700
3049.05473,0.06636
3046.99456,0.06572
3044.93439,0.06528
3042.87422,0.06494
3040.81404,0.06470
3038.75387,0.06463
3036.69370,0.06442
3034.63353,0.06372
3032.57336,0.06287
3030.51318,0.06227
3028.45301,0.06179
3026.39284,0.06140
3024.33267,0.06108
3022.27250,0.06061
3020.21232,0.05999
3018.15215,0.05941
3016.09198,0.05917
3014.03181,0.05919
3011.97163,0.05892
3009.91146,0.05840
3007.85129,0.05797
3005.79112,0.05759
3003.73095,0.05713
3001.67077,0.05655
2999.61060,0.05595
2997.55043,0.05549
2995.49026,0.05515
2993.43009,0.05497
2991.36991,0.05476
2989.30974,0.05415
2987.24957,0.05349
2985.18940,0.05324
2983.12923,0.05306
2981.06905,0.05259
2979.00888,0.05222
2976.94871,0.05219
2974.88854,0.05219
2972.82836,0.05197
2970.76819,0.05153
2968.70802,0.05115
2966.64785,0.05106
2964.58768,0.05112
2962.52750,0.05113
2960.46733,0.05115
2958.40716,0.05113
2956.34699,0.05096
2954.28682,0.05069
2952.22664,0.05042
2950.16647,0.05033
2948.10630,0.05058
2946.04613,0.05079
2943.98596,0.05067
2941.92578,0.05051
2939.86561,0.05045
2937.80544,0.05040
2935.74527,0.05044
2933.68509,0.05042
2931.62492,0.05000
2929.56475,0.04943
2927.50458,0.04910
2925.44441,0.04885
2923.38423,0.04845
2921.32406,0.04810
2919.26389,0.04801
2917.20372,0.04793
2915.14355,0.04757
2913.08337,0.04721
2911.02320,0.04702
2908.96303,0.04677
2906.90286,0.04642
2904.84268,0.04604
2902.78251,0.04564
2900.72234,0.04539
2898.66217,0.04535
2896.60200,0.04541
2894.54182,0.04537
2892.48165,0.04512
2890.42148,0.04472
2888.36131,0.04442
2886.30114,0.04424
2884.24096,0.04396
2882.18079,0.04352
2880.12062,0.04311
2878.06045,0.04294
2876.00028,0.04287
2873.94010,0.04266
2871.87993,0.04226
2869.81976,0.04186
2867.75959,0.04148
2865.69941,0.04111
2863.63924,0.04087
2861.57907,0.04061
2859.51890,0.04015
2857.45873,0.03969
2855.39855,0.03949
2853.33838,0.03939
2851.27821,0.03917
2849.21804,0.03880
2847.15787,0.03833
2845.09769,0.03792
2843.03752,0.03765
2840.97735,0.03742
2838.91718,0.03701
2836.85700,0.03660
2834.79683,0.03633
2832.73666,0.03607
2830.67649,0.03581
2828.61632,0.03565
2826.55614,0.03539
2824.49597,0.03495
2822.43580,0.03454
2820.37563,0.03412
2818.31546,0.03376
2816.25528,0.03364
2814.19511,0.03367
2812.13494,0.03358
2810.07477,0.03333
2808.01460,0.03309
2805.95442,0.03272
2803.89425,0.03229
2801.83408,0.03217
2799.77391,0.03227
2797.71373,0.03221
2795.65356,0.03193
2793.59339,0.03169
2791.53322,0.03158
2789.47305,0.03137
2787.41287,0.03102
2785.35270,0.03073
2783.29253,0.03051
2781.23236,0.03025
2779.17219,0.03010
2777.11201,0.03015
2775.05184,0.03015
2772.99167,0.02988
2770.93150,0.02945
2768.87133,0.02903
2766.81115,0.02879
2764.75098,0.02875
2762.69081,0.02861
2760.63064,0.02834
2758.57046,0.02820
2756.51029,0.02812
2754.45012,0.02800
2752.38995,0.02778
2750.32978,0.02752
2748.26960,0.02742
2746.20943,0.02743
2744.14926,0.02738
2742.08909,0.02726
2740.02892,0.02711
2737.96874,0.02692
2735.90857,0.02670
2733.84840,0.02653
2731.78823,0.02640
2729.72805,0.02620
2727.66788,0.02590
2725.60771,0.02563
2723.54754,0.02549
2721.48737,0.02546
2719.42719,0.02535
2717.36702,0.02515
2715.30685,0.02504
2713.24668,0.02500
2711.18651,0.02476
2709.12633,0.02424
2707.06616,0.02380
2705.00599,0.02368
2702.94582,0.02375
2700.88565,0.02374
2698.82547,0.02357
2696.76530,0.02335
2694.70513,0.02321
2692.64496,0.02306
2690.58478,0.02284
2688.52461,0.02267
2686.46444,0.02253
2684.40427,0.02231
2682.34410,0.02211
2680.28392,0.02199
2678.22375,0.02179
2676.16358,0.02156
2674.10341,0.02141
2672.04324,0.02127
2669.98306,0.02104
2667.92289,0.02077
2665.86272,0.02058
2663.80255,0.02036
2661.74238,0.01996
2659.68220,0.01955
2657.62203,0.01930
2655.56186,0.01922
2653.50169,0.01921
2651.44151,0.01919
2649.38134,0.01915
2647.32117,0.01902
2645.26100,0.01874
2643.20083,0.01851
2641.14065,0.01845
2639.08048,0.01830
2637.02031,0.01789
2634.96014,0.01759
2632.89997,0.01761
2630.83979,0.01774
2628.77962,0.01770
2626.71945,0.01749
2624.65928,0.01708
2622.59910,0.01664
2620.53893,0.01640
2618.47876,0.01614
2616.41859,0.01586
2614.35842,0.01601
2612.29824,0.01647
2610.23807,0.01662
2608.17790,0.01635
2606.11773,0.01608
2604.05756,0.01576
2601.99738,0.01545
2599.93721,0.01549
2597.87704,0.01570
2595.81687,0.01574
2593.75670,0.01543
2591.69652,0.01486
2589.63635,0.01439
2587.57618,0.01432
2585.51601,0.01461
2583.45583,0.01483
2581.39566,0.01456
2579.33549,0.01423
2577.27532,0.01447
2575.21515,0.01500
2573.15497,0.01515
2571.09480,0.01481
2569.03463,0.01426
2566.97446,0.01399
2564.91429,0.01388
2562.85411,0.01375
2560.79394,0.01393
2558.73377,0.01428
2556.67360,0.01439
2554.61342,0.01407
2552.55325,0.01363
2550.49308,0.01364
2548.43291,0.01408
2546.37274,0.01411
2544.31256,0.01370
2542.25239,0.01362
2540.19222,0.01387
2538.13205,0.01404
2536.07188,0.01419
2534.01170,0.01429
2531.95153,0.01425
2529.89136,0.01418
2527.83119,0.01417
2525.77102,0.01422
2523.71084,0.01422
2521.65067,0.01390
2519.59050,0.01347
2517.53033,0.01335
2515.47015,0.01346
2513.40998,0.01371
2511.34981,0.01397
2509.28964,0.01402
2507.22947,0.01391
2505.16929,0.01367
2503.10912,0.01344
2501.04895,0.01363
2498.98878,0.01400
2496.92861,0.01428
2494.86843,0.01465
2492.80826,0.01467
2490.74809,0.01401
2488.68792,0.01348
2486.62775,0.01350
2484.56757,0.01361
2482.50740,0.01377
2480.44723,0.01399
2478.38706,0.01405
2476.32688,0.01402
2474.26671,0.01394
2472.20654,0.01377
2470.14637,0.01358
2468.08620,0.01366
2466.02602,0.01403
2463.96585,0.01442
2461.90568,0.01475
2459.84551,0.01473
2457.78534,0.01425
2455.72516,0.01369
2453.66499,0.01341
2451.60482,0.01361
2449.54465,0.01387
2447.48447,0.01386
2445.42430,0.01393
2443.36413,0.01408
2441.30396,0.01406
2439.24379,0.01419
2437.18361,0.01438
2435.12344,0.01407
2433.06327,0.01369
2431.00310,0.01376
2428.94293,0.01394
2426.88275,0.01411
2424.82258,0.01424
2422.76241,0.01406
2420.70224,0.01385
2418.64207,0.01406
2416.58189,0.01440
2414.52172,0.01428
2412.46155,0.01374
2410.40138,0.01343
2408.34120,0.01368
2406.28103,0.01403
2404.22086,0.01416
2402.16069,0.01417
2400.10052,0.01397
2398.04034,0.01379
2395.98017,0.01384
2393.92000,0.01394
2391.85983,0.01369
2389.79966,0.01338
2387.73948,0.01345
2385.67931,0.01379
2383.61914,0.01409
2381.55897,0.01426
2379.49880,0.01435
2377.43862,0.01450
2375.37845,0.01500
2373.31828,0.01573
2371.25811,0.01542
2369.19793,0.01278
2367.13776,0.00855
2365.07759,0.00561
2363.01742,0.00625
2360.95725,0.00821
2358.89707,0.00828
2356.83690,0.00849
2354.77673,0.01067
2352.71656,0.01310
2350.65639,0.01432
2348.59621,0.01458
2346.53604,0.01444
2344.47587,0.01419
2342.41570,0.01414
2340.35552,0.01393
2338.29535,0.01323
2336.23518,0.01308
2334.17501,0.01402
2332.11484,0.01444
2330.05466,0.01320
2327.99449,0.01222
2325.93432,0.01310
2323.87415,0.01442
2321.81398,0.01490
2319.75380,0.01491
2317.69363,0.01472
2315.63346,0.01441
2313.57329,0.01409
2311.51312,0.01346
2309.45294,0.01286
2307.39277,0.01289
2305.33260,0.01326
2303.27243,0.01355
2301.21225,0.01348
2299.15208,0.01280
2297.09191,0.01206
2295.03174,0.01196
2292.97157,0.01230
2290.91139,0.01272
2288.85122,0.01317
2286.79105,0.01338
2284.73088,0.01328
2282.67071,0.01310
2280.61053,0.01269
2278.55036,0.01191
2276.49019,0.01130
2274.43002,0.01122
2272.36984,0.01131
2270.30967,0.01124
2268.24950,0.01107
2266.18933,0.01096
2264.12916,0.01087
2262.06898,0.01077
2260.00881,0.01067
2257.94864,0.01056
2255.88847,0.01064
2253.82830,0.01105
2251.76812,0.01142
2249.70795,0.01153
2247.64778,0.01148
2245.58761,0.01083
2243.52744,0.00972
2241.46726,0.00939
2239.40709,0.01017
2237.34692,0.01061
2235.28675,0.01046
2233.22657,0.01087
2231.16640,0.01088
2229.10623,0.01012
2227.04606,0.00988
2224.98589,0.00991
2222.92571,0.01005
2220.86554,0.01046
2218.80537,0.01042
2216.74520,0.00959
2214.68503,0.00862
2212.62485,0.00844
2210.56468,0.00887
2208.50451,0.00882
2206.44434,0.00773
2204.38417,0.00692
2202.32399,0.00821
2200.26382,0.00987
2198.20365,0.00951
2196.14348,0.00838
2194.08330,0.00783
2192.02313,0.00776
2189.96296,0.00803
2187.90279,0.00855
2185.84262,0.00909
2183.78244,0.00865
2181.72227,0.00790
2179.66210,0.00828
2177.60193,0.00869
2175.54176,0.00835
2173.48158,0.00786
2171.42141,0.00764
2169.36124,0.00841
2167.30107,0.00954
2165.24089,0.00943
2163.18072,0.00887
2161.12055,0.00900
2159.06038,0.00875
2157.00021,0.00753
2154.94003,0.00671
2152.87986,0.00771
2150.81969,0.00978
2148.75952,0.01000
2146.69935,0.00871
2144.63917,0.00860
2142.57900,0.00921
2140.51883,0.00896
2138.45866,0.00821
2136.39849,0.00783
2134.33831,0.00814
2132.27814,0.00873
2130.21797,0.00849
2128.15780,0.00776
2126.09762,0.00789
2124.03745,0.00869
2121.97728,0.00913
2119.91711,0.00890
2117.85694,0.00812
2115.79676,0.00733
2113.73659,0.00739
2111.67642,0.00778
2109.61625,0.00811
2107.55608,0.00881
2105.49590,0.00913
2103.43573,0.00882
2101.37556,0.00849
2099.31539,0.00801
2097.25521,0.00727
2095.19504,0.00705
2093.13487,0.00785
2091.07470,0.00810
2089.01453,0.00747
2086.95435,0.00736
2084.89418,0.00740
2082.83401,0.00684
2080.77384,0.00658
2078.71367,0.00725
2076.65349,0.00777
2074.59332,0.00746
2072.53315,0.00723
2070.47298,0.00732
2068.41281,0.00694
2066.35263,0.00613
2064.29246,0.00582
2062.23229,0.00607
2060.17212,0.00622
2058.11194,0.00628
2056.05177,0.00679
2053.99160,0.00724
2051.93143,0.00658
2049.87126,0.00517
2047.81108,0.00471
2045.75091,0.00557
2043.69074,0.00634
2041.63057,0.00650
2039.57040,0.00647
2037.51022,0.00626
2035.45005,0.00593
2033.38988,0.00547
2031.32971,0.00471
2029.26954,0.00412
2027.20936,0.00392
2025.14919,0.00408
2023.08902,0.00477
2021.02885,0.00491
2018.96867,0.00432
2016.90850,0.00412
2014.84833,0.00363
2012.78816,0.00270
2010.72799,0.00258
2008.66781,0.00344
2006.60764,0.00411
2004.54747,0.00376
2002.48730,0.00326
2000.42713,0.00378
1998.36695,0.00508
1996.30678,0.00595
1994.24661,0.00615
1992.18644,0.00627
1990.12626,0.00623
1988.06609,0.00592
1986.00592,0.00541
1983.94575,0.00492
1981.88558,0.00462
1979.82540,0.00350
1977.76523,0.00183
1975.70506,0.00192
1973.64489,0.00386
1971.58472,0.00556
1969.52454,0.00585
1967.46437,0.00488
1965.40420,0.00403
1963.34403,0.00412
1961.28386,0.00422
1959.22368,0.00374
1957.16351,0.00341
1955.10334,0.00343
1953.04317,0.00346
1950.98299,0.00361
1948.92282,0.00369
1946.86265,0.00333
1944.80248,0.00283
1942.74231,0.00287
1940.68213,0.00348
1938.62196,0.00405
1936.56179,0.00429
1934.50162,0.00425
1932.44145,0.00406
1930.38127,0.00372
1928.32110,0.00298
1926.26093,0.00224
1924.20076,0.00282
1922.14059,0.00440
1920.08041,0.00498
1918.02024,0.00432
1915.96007,0.00359
1913.89990,0.00319
1911.83972,0.00293
1909.77955,0.00280
1907.71938,0.00272
1905.65921,0.00265
1903.59904,0.00268
1901.53886,0.00257
1899.47869,0.00230
1897.41852,0.00224
1895.35835,0.00244
1893.29818,0.00259
1891.23800,0.00267
1889.17783,0.00294
1887.11766,0.00330
1885.05749,0.00333
1882.99731,0.00286
1880.93714,0.00230
1878.87697,0.00213
1876.81680,0.00227
1874.75663,0.00244
1872.69645,0.00245
1870.63628,0.00221
1868.57611,0.00199
1866.51594,0.00221
1864.45577,0.00269
1862.39559,0.00293
1860.33542,0.00279
1858.27525,0.00250
1856.21508,0.00223
1854.15491,0.00193
1852.09473,0.00155
1850.03456,0.00125
1847.97439,0.00121
1845.91422,0.00153
1843.85404,0.00205
1841.79387,0.00245
1839.73370,0.00257
1837.67353,0.00244
1835.61336,0.00221
1833.55318,0.00200
1831.49301,0.00195
1829.43284,0.00213
1827.37267,0.00233
1825.31250,0.00228
1823.25232,0.00223
1821.19215,0.00243
1819.13198,0.00260
1817.07181,0.00241
1815.01163,0.00211
1812.95146,0.00212
1810.89129,0.00226
1808.83112,0.00222
1806.77095,0.00220
1804.71077,0.00232
1802.65060,0.00247
1800.59043,0.00261
1798.53026,0.00271
1796.47009,0.00259
1794.40991,0.00231
1792.34974,0.00224
1790.28957,0.00255
1788.22940,0.00295
1786.16923,0.00309
1784.10905,0.00302
1782.04888,0.00297
1779.98871,0.00303
1777.92854,0.00315
1775.86836,0.00321
1773.80819,0.00306
1771.74802,0.00281
1769.68785,0.00284
1767.62768,0.00319
1765.56750,0.00362
1763.50733,0.00394
1761.44716,0.00413
1759.38699,0.00434
1757.32682,0.00467
1755.26664,0.00508
1753.20647,0.00546
1751.14630,0.00593
1749.08613,0.00653
1747.02596,0.00707
1744.96578,0.00735
1742.90561,0.00741
1740.84544,0.00739
1738.78527,0.00745
1736.72509,0.00764
1734.66492,0.00806
1732.60475,0.00872
1730.54458,0.00920
1728.48441,0.00945
1726.42423,0.00969
1724.36406,0.01002
1722.30389,0.01029
1720.24372,0.01036
1718.18355,0.01065
1716.12337,0.01162
1714.06320,0.01261
1712.00303,0.01315
1709.94286,0.01349
1707.88268,0.01389
1705.82251,0.01440
1703.76234,0.01492
1701.70217,0.01554
1699.64200,0.01652
1697.58182,0.01759
1695.52165,0.01853
1693.46148,0.01948
1691.40131,0.02043
1689.34114,0.02126
1687.28096,0.02184
1685.22079,0.02272
1683.16062,0.02443
1681.10045,0.02601
1679.04028,0.02691
1676.98010,0.02754
1674.91993,0.02838
1672.85976,0.02946
1670.79959,0.03075
1668.73941,0.03209
1666.67924,0.03295
1664.61907,0.03361
1662.55890,0.03463
1660.49873,0.03565
1658.43855,0.03620
1656.37838,0.03641
1654.31821,0.03676
1652.25804,0.03771
1650.19787,0.03854
1648.13769,0.03901
1646.07752,0.03967
1644.01735,0.04022
1641.95718,0.04018
1639.89701,0.03980
1637.83683,0.03961
1635.77666,0.03972
1633.71649,0.03966
1631.65632,0.03923
1629.59614,0.03871
1627.53597,0.03824
1625.47580,0.03778
1623.41563,0.03725
1621.35546,0.03668
1619.29528,0.03603
1617.23511,0.03543
1615.17494,0.03515
1613.11477,0.03495
1611.05460,0.03443
1608.99442,0.03363
1606.93425,0.03274
1604.87408,0.03181
1602.81391,0.03090
1600.75373,0.03004
1598.69356,0.02921
1596.63339,0.02835
1594.57322,0.02737
1592.51305,0.02627
1590.45287,0.02515
1588.39270,0.02406
1586.33253,0.02302
1584.27236,0.02199
1582.21219,0.02094
1580.15201,0.01999
1578.09184,0.01906
1576.03167,0.01804
1573.97150,0.01715
1571.91133,0.01644
1569.85115,0.01578
1567.79098,0.01519
1565.73081,0.01464
1563.67064,0.01408
1561.61046,0.01345
1559.55029,0.01281
1557.49012,0.01248
1555.42995,0.01232
1553.36978,0.01190
1551.30960,0.01126
1549.24943,0.01064
1547.18926,0.01014
1545.12909,0.00968
1543.06892,0.00917
1541.00874,0.00858
1538.94857,0.00817
1536.88840,0.00798
1534.82823,0.00780
1532.76805,0.00759
1530.70788,0.00737
1528.64771,0.00702
1526.58754,0.00657
1524.52737,0.00624
1522.46719,0.00614
1520.40702,0.00613
1518.34685,0.00605
1516.28668,0.00603
1514.22651,0.00591
1512.16633,0.00551
1510.10616,0.00496
1508.04599,0.00443
1505.98582,0.00417
1503.92565,0.00424
1501.86547,0.00428
1499.80530,0.00409
1497.74513,0.00381
1495.68496,0.00359
1493.62478,0.00348
1491.56461,0.00353
1489.50444,0.00370
1487.44427,0.00369
1485.38410,0.00350
1483.32392,0.00337
1481.26375,0.00345
1479.20358,0.00370
1477.14341,0.00402
1475.08324,0.00443
1473.02306,0.00513
1470.96289,0.00585
1468.90272,0.00620
1466.84255,0.00632
1464.78238,0.00646
1462.72220,0.00672
1460.66203,0.00709
1458.60186,0.00768
1456.54169,0.00835
1454.48151,0.00862
1452.42134,0.00856
1450.36117,0.00846
1448.30100,0.00841
1446.24083,0.00835
1444.18065,0.00826
1442.12048,0.00821
1440.06031,0.00817
1438.00014,0.00813
1435.93997,0.00816
1433.87979,0.00816
1431.81962,0.00821
1429.75945,0.00851
1427.69928,0.00891
1425.63910,0.00923
1423.57893,0.00953
1421.51876,0.00983
1419.45859,0.01029
1417.39842,0.01075
1415.33824,0.01080
1413.27807,0.01052
1411.21790,0.01020
1409.15773,0.00996
1407.09756,0.00982
1405.03738,0.00969
1402.97721,0.00960
1400.91704,0.00956
1398.85687,0.00949
1396.79670,0.00933
1394.73652,0.00908
1392.67635,0.00887
1390.61618,0.00889
1388.55601,0.00917
1386.49583,0.00947
1384.43566,0.00959
1382.37549,0.00966
1380.31532,0.00984
1378.25515,0.01007
1376.19497,0.01032
1374.13480,0.01059
1372.07463,0.01065
1370.01446,0.01037
1367.95429,0.00997
1365.89411,0.00973
1363.83394,0.00968
1361.77377,0.00956
1359.71360,0.00908
1357.65343,0.00851
1355.59325,0.00818
1353.53308,0.00802
1351.47291,0.00789
1349.41274,0.00780
1347.35256,0.00774
1345.29239,0.00761
1343.23222,0.00745
1341.17205,0.00747
1339.11188,0.00764
1337.05170,0.00766
1334.99153,0.00740
1332.93136,0.00700
1330.87119,0.00672
1328.81102,0.00660
1326.75084,0.00651
1324.69067,0.00629
1322.63050,0.00605
1320.57033,0.00592
1318.51015,0.00583
1316.44998,0.00565
1314.38981,0.00551
1312.32964,0.00544
1310.26947,0.00536
1308.20929,0.00531
1306.14912,0.00528
1304.08895,0.00516
1302.02878,0.00503
1299.96861,0.00504
1297.90843,0.00509
1295.84826,0.00512
1293.78809,0.00519
1291.72792,0.00520
1289.66775,0.00512
1287.60757,0.00510
1285.54740,0.00523
1283.48723,0.00543
1281.42706,0.00557
1279.36688,0.00566
1277.30671,0.00578
1275.24654,0.00583
1273.18637,0.00573
1271.12620,0.00569
1269.06602,0.00580
1267.00585,0.00596
1264.94568,0.00606
1262.88551,0.00620
1260.82534,0.00642
1258.76516,0.00651
1256.70499,0.00645
1254.64482,0.00645
1252.58465,0.00640
1250.52447,0.00614
1248.46430,0.00586
1246.40413,0.00570
1244.34396,0.00561
1242.28379,0.00559
1240.22361,0.00557
1238.16344,0.00545
1236.10327,0.00526
1234.04310,0.00514
1231.98293,0.00517
1229.92275,0.00528
1227.86258,0.00534
1225.80241,0.00529
1223.74224,0.00513
1221.68207,0.00489
1219.62189,0.00464
1217.56172,0.00443
1215.50155,0.00425
1213.44138,0.00402
1211.38120,0.00370
1209.32103,0.00332
1207.26086,0.00295
1205.20069,0.00276
1203.14052,0.00267
1201.08034,0.00253
1199.02017,0.00244
1196.96000,0.00248
1194.89983,0.00242
1192.83966,0.00233
1190.77948,0.00246
1188.71931,0.00293
1186.65914,0.00352
1184.59897,0.00390
1182.53880,0.00431
1180.47862,0.00514
1178.41845,0.00624
1176.35828,0.00745
1174.29811,0.00869
1172.23793,0.00985
1170.17776,0.01097
1168.11759,0.01220
1166.05742,0.01349
1163.99725,0.01469
1161.93707,0.01588
1159.87690,0.01699
1157.81673,0.01793
1155.75656,0.01889
1153.69639,0.01985
1151.63621,0.02074
1149.57604,0.02167
1147.51587,0.02283
1145.45570,0.02425
1143.39552,0.02585
1141.33535,0.02732
1139.27518,0.02842
1137.21501,0.02944
1135.15484,0.03070
1133.09466,0.03209
1131.03449,0.03331
1128.97432,0.03437
1126.91415,0.03560
1124.85398,0.03701
1122.79380,0.03837
1120.73363,0.03963
1118.67346,0.04110
1116.61329,0.04305
1114.55312,0.04526
1112.49294,0.04733
1110.43277,0.04943
1108.37260,0.05183
1106.31243,0.05446
1104.25225,0.05719
1102.19208,0.05998
1100.13191,0.06295
1098.07174,0.06589
1096.01157,0.06864
1093.95139,0.07129
1091.89122,0.07363
1089.83105,0.07589
1087.77088,0.07840
1085.71071,0.08095
1083.65053,0.08346
1081.59036,0.08607
1079.53019,0.08862
1077.47002,0.09084
1075.40985,0.09276
1073.34967,0.09439
1071.28950,0.09583
1069.22933,0.09697
1067.16916,0.09770
1065.10898,0.09813
1063.04881,0.09837
1060.98864,0.09838
1058.92847,0.09813
1056.86830,0.09766
1054.80812,0.09697
1052.74795,0.09620
1050.68778,0.09561
1048.62761,0.09504
1046.56744,0.09404
1044.50726,0.09245
1042.44709,0.09058
1040.38692,0.08868
1038.32675,0.08674
1036.26657,0.08476
1034.20640,0.08268
1032.14623,0.08057
1030.08606,0.07871
1028.02589,0.07709
1025.96571,0.07507
1023.90554,0.07270
1021.84537,0.07074
1019.78520,0.06899
1017.72503,0.06680
1015.66485,0.06447
1013.60468,0.06254
1011.54451,0.06099
1009.48434,0.05949
1007.42417,0.05799
1005.36399,0.05665
1003.30382,0.05554
1001.24365,0.05488
999.18348,0.05501
997.12330,0.05584
995.06313,0.05698
993.00296,0.05841
990.94279,0.05992
988.88262,0.06099
986.82244,0.06153
984.76227,0.06145
982.70210,0.06044
980.64193,0.05860
978.58176,0.05621
976.52158,0.05338
974.46141,0.05008
972.40124,0.04634
970.34107,0.04264
968.28089,0.03932
966.22072,0.03619
964.16055,0.03335
962.10038,0.03106
960.04021,0.02909
957.98003,0.02718
955.91986,0.02550
953.85969,0.02419
951.79952,0.02317
949.73935,0.02232
947.67917,0.02159
945.61900,0.02111
943.55883,0.02095
941.49866,0.02089
939.43849,0.02060
937.37831,0.02013
935.31814,0.01984
933.25797,0.01969
931.19780,0.01943
929.13762,0.01906
927.07745,0.01871
925.01728,0.01834
922.95711,0.01747
920.89694,0.01598
918.83676,0.01460
916.77659,0.01366
914.71642,0.01270
912.65625,0.01159
910.59608,0.01067
908.53590,0.00970
906.47573,0.00875
904.41556,0.00832
902.35539,0.00829
900.29522,0.00829
898.23504,0.00835
896.17487,0.00857
894.11470,0.00872
892.05453,0.00887
889.99435,0.00920
887.93418,0.00945
885.87401,0.00976
883.81384,0.01028
881.75367,0.01087
879.69349,0.01163
877.63332,0.01230
875.57315,0.01267
873.51298,0.01321
871.45281,0.01404
869.39263,0.01478
867.33246,0.01545
865.27229,0.01626
863.21212,0.01681
861.15194,0.01662
859.09177,0.01615
857.03160,0.01610
854.97143,0.01617
852.91126,0.01574
850.85108,0.01489
848.79091,0.01414
846.73074,0.01374
844.67057,0.01330
842.61040,0.01247
840.55022,0.01131
838.49005,0.01032
836.42988,0.00987
834.36971,0.00967
832.30954,0.00911
830.24936,0.00804
828.18919,0.00711
826.12902,0.00659
824.06885,0.00619
822.00867,0.00615
819.94850,0.00607
817.88833,0.00516
815.82816,0.00445
813.76799,0.00467
811.70781,0.00490
809.64764,0.00483
807.58747,0.00465
805.52730,0.00436
803.46713,0.00433
801.40695,0.00451
799.34678,0.00417
797.28661,0.00340
795.22644,0.00290
793.16627,0.00284
791.10609,0.00309
789.04592,0.00331
786.98575,0.00335
784.92558,0.00375
782.86540,0.00454
780.80523,0.00506
778.74506,0.00494
776.68489,0.00444
774.62472,0.00408
772.56454,0.00401
770.50437,0.00400
768.44420,0.00400
766.38403,0.00458
764.32386,0.00546
762.26368,0.00547
760.20351,0.00460
758.14334,0.00367
756.08317,0.00340
754.02299,0.00389
751.96282,0.00437
749.90265,0.00433
747.84248,0.00412
745.78231,0.00382
743.72213,0.00311
741.66196,0.00292
739.60179,0.00348
737.54162,0.00377
735.48145,0.00362
733.42127,0.00337
731.36110,0.00343
729.30093,0.00368
727.24076,0.00369
725.18059,0.00372
723.12041,0.00419
721.06024,0.00492
719.00007,0.00531
716.93990,0.00553
714.87972,0.00581
712.81955,0.00605
710.75938,0.00623
708.69921,0.00616
706.63904,0.00587
704.57886,0.00578
702.51869,0.00585
700.45852,0.00557
698.39835,0.00517
696.33818,0.00525
694.27800,0.00537
692.21783,0.00518
690.15766,0.00553
688.09749,0.00636
686.03731,0.00609
683.97714,0.00443
681.91697,0.00301
679.85680,0.00302
677.79663,0.00421
675.73645,0.00499
673.67628,0.00513
671.61611,0.00570
669.55594,0.00700
667.49577,0.00779
665.43559,0.00719
663.37542,0.00637
661.31525,0.00619
659.25508,0.00598
657.19491,0.00523
655.13473,0.00462
653.07456,0.00440
651.01439,0.00401
648.95422,0.00406
646.89404,0.00528
644.83387,0.00624
642.77370,0.00538
640.71353,0.00376
638.65336,0.00384
636.59318,0.00601
634.53301,0.00769
632.47284,0.00690
630.41267,0.00517
628.35250,0.00513
626.29232,0.00654
624.23215,0.00565
622.17198,0.00210
620.11181,0.00027
618.05164,0.00259
615.99146,0.00570
613.93129,0.00577
611.87112,0.00383
609.81095,0.00283
607.75077,0.00350
605.69060,0.00316
603.63043,0.00109
601.57026,0.00000
599.51009,0.00000
