3996.73391,0.00107
3994.67373,0.00094
3992.61356,0.00049
3990.55339,-0.00004
3988.49322,-0.00042
3986.43305,-0.00060
3984.37287,-0.00054
3982.31270,-0.00019
3980.25253,0.00016
3978.19236,0.00035
3976.13219,0.00056
3974.07201,0.00071
3972.01184,0.00061
3969.95167,0.00057
3967.89150,0.00074
3965.83133,0.00069
3963.77115,0.00046
3961.71098,0.00045
3959.65081,0.00058
3957.59064,0.00069
3955.53046,0.00085
3953.47029,0.00085
3951.41012,0.00057
3949.34995,0.00019
3947.28978,0.00000
3945.22960,0.00003
3943.16943,0.00020
3941.10926,0.00066
3939.04909,0.00135
3936.98892,0.00171
3934.92874,0.00138
3932.86857,0.00074
3930.80840,0.00053
3928.74823,0.00084
3926.68805,0.00127
3924.62788,0.00162
3922.56771,0.00179
3920.50754,0.00185
3918.44737,0.00181
3916.38719,0.00157
3914.32702,0.00130
3912.26685,0.00113
3910.20668,0.00087
3908.14651,0.00048
3906.08633,0.00018
3904.02616,0.00006
3901.96599,0.00000
3899.90582,0.00017
3897.84565,0.00075
3895.78547,0.00125
3893.72530,0.00110
3891.66513,0.00043
3889.60496,0.00009
3887.54478,0.00052
3885.48461,0.00123
3883.42444,0.00145
3881.36427,0.00105
3879.30410,0.00070
3877.24392,0.00077
3875.18375,0.00108
3873.12358,0.00145
3871.06341,0.00170
3869.00324,0.00171
3866.94306,0.00165
3864.88289,0.00172
3862.82272,0.00187
3860.76255,0.00170
3858.70237,0.00110
3856.64220,0.00053
3854.58203,0.00056
3852.52186,0.00098
3850.46169,0.00100
3848.40151,0.00077
3846.34134,0.00052
3844.28117,0.00029
3842.22100,0.00055
3840.16083,0.00156
3838.10065,0.00251
3836.04048,0.00258
3833.98031,0.00208
3831.92014,0.00172
3829.85997,0.00172
3827.79979,0.00182
3825.73962,0.00166
3823.67945,0.00122
3821.61928,0.00091
3819.55910,0.00093
3817.49893,0.00095
3815.43876,0.00112
3813.37859,0.00161
3811.31842,0.00196
3809.25824,0.00188
3807.19807,0.00159
3805.13790,0.00138
3803.07773,0.00125
3801.01756,0.00103
3798.95738,0.00087
3796.89721,0.00115
3794.83704,0.00158
3792.77687,0.00161
3790.71670,0.00147
3788.65652,0.00156
3786.59635,0.00176
3784.53618,0.00188
3782.47601,0.00186
3780.41583,0.00173
3778.35566,0.00156
3776.29549,0.00145
3774.23532,0.00157
3772.17515,0.00184
3770.11497,0.00210
3768.05480,0.00228
3765.99463,0.00217
3763.93446,0.00166
3761.87429,0.00114
3759.81411,0.00089
3757.75394,0.00080
3755.69377,0.00062
3753.63360,0.00054
3751.57342,0.00108
3749.51325,0.00169
3747.45308,0.00145
3745.39291,0.00127
3743.33274,0.00183
3741.27256,0.00217
3739.21239,0.00196
3737.15222,0.00144
3735.09205,0.00084
3733.03188,0.00051
3730.97170,0.00055
3728.91153,0.00070
3726.85136,0.00065
3724.79119,0.00030
3722.73102,0.00009
3720.67084,0.00046
3718.61067,0.00114
3716.55050,0.00168
3714.49033,0.00166
3712.43015,0.00114
3710.36998,0.00067
3708.30981,0.00071
3706.24964,0.00141
3704.18947,0.00224
3702.12929,0.00257
3700.06912,0.00231
3698.00895,0.00181
3695.94878,0.00140
3693.88861,0.00109
3691.82843,0.00121
3689.76826,0.00191
3687.70809,0.00248
3685.64792,0.00249
3683.58775,0.00215
3681.52757,0.00162
3679.46740,0.00127
3677.40723,0.00166
3675.34706,0.00263
3673.28688,0.00289
3671.22671,0.00214
3669.16654,0.00155
3667.10637,0.00171
3665.04620,0.00218
3662.98602,0.00264
3660.92585,0.00286
3658.86568,0.00286
3656.80551,0.00297
3654.74534,0.00333
3652.68516,0.00353
3650.62499,0.00327
3648.56482,0.00306
3646.50465,0.00358
3644.44447,0.00419
3642.38430,0.00453
3640.32413,0.00474
3638.26396,0.00463
3636.20379,0.00418
3634.14361,0.00387
3632.08344,0.00396
3630.02327,0.00448
3627.96310,0.00524
3625.90293,0.00576
3623.84275,0.00594
3621.78258,0.00603
3619.72241,0.00622
3617.66224,0.00661
3615.60207,0.00712
3613.54189,0.00785
3611.48172,0.00844
3609.42155,0.00839
3607.36138,0.00814
3605.30120,0.00816
3603.24103,0.00821
3601.18086,0.00822
3599.12069,0.00844
3597.06052,0.00892
3595.00034,0.00958
3592.94017,0.01000
3590.88000,0.00995
3588.81983,0.00983
3586.75966,0.01008
3584.69948,0.01049
3582.63931,0.01076
3580.57914,0.01086
3578.51897,0.01093
3576.45879,0.01109
3574.39862,0.01130
3572.33845,0.01142
3570.27828,0.01132
3568.21811,0.01131
3566.15793,0.01191
3564.09776,0.01265
3562.03759,0.01309
3559.97742,0.01336
3557.91725,0.01347
3555.85707,0.01349
3553.79690,0.01353
3551.73673,0.01351
3549.67656,0.01339
3547.61639,0.01332
3545.55621,0.01355
3543.49604,0.01429
3541.43587,0.01526
3539.37570,0.01593
3537.31552,0.01626
3535.25535,0.01664
3533.19518,0.01706
3531.13501,0.01720
3529.07484,0.01712
3527.01466,0.01718
3524.95449,0.01746
3522.89432,0.01780
3520.83415,0.01819
3518.77398,0.01855
3516.71380,0.01856
3514.65363,0.01817
3512.59346,0.01786
3510.53329,0.01807
3508.47312,0.01872
3506.41294,0.01935
3504.35277,0.01960
3502.29260,0.01953
3500.23243,0.01956
3498.17225,0.01987
3496.11208,0.02019
3494.05191,0.02032
3491.99174,0.02019
3489.93157,0.02016
3487.87139,0.02066
3485.81122,0.02140
3483.75105,0.02178
3481.69088,0.02177
3479.63071,0.02187
3477.57053,0.02231
3475.51036,0.02270
3473.45019,0.02259
3471.39002,0.02205
3469.32984,0.02163
3467.26967,0.02181
3465.20950,0.02226
3463.14933,0.02248
3461.08916,0.02293
3459.02898,0.02370
3456.96881,0.02415
3454.90864,0.02417
3452.84847,0.02402
3450.78830,0.02385
3448.72812,0.02387
3446.66795,0.02395
3444.60778,0.02390
3442.54761,0.02421
3440.48744,0.02478
3438.42726,0.02492
3436.36709,0.02499
3434.30692,0.02536
3432.24675,0.02571
3430.18657,0.02590
3428.12640,0.02578
3426.06623,0.02548
3424.00606,0.02547
3421.94589,0.02558
3419.88571,0.02556
3417.82554,0.02563
3415.76537,0.02597
3413.70520,0.02643
3411.64503,0.02661
3409.58485,0.02633
3407.52468,0.02620
3405.46451,0.02674
3403.40434,0.02727
3401.34416,0.02728
3399.28399,0.02717
3397.22382,0.02714
3395.16365,0.02717
3393.10348,0.02720
3391.04330,0.02720
3388.98313,0.02729
3386.92296,0.02755
3384.86279,0.02778
3382.80262,0.02775
3380.74244,0.02750
3378.68227,0.02716
3376.62210,0.02715
3374.56193,0.02777
3372.50176,0.02860
3370.44158,0.02903
3368.38141,0.02890
3366.32124,0.02864
3364.26107,0.02854
3362.20089,0.02851
3360.14072,0.02841
3358.08055,0.02833
3356.02038,0.02847
3353.96021,0.02877
3351.90003,0.02890
3349.83986,0.02891
3347.77969,0.02891
3345.71952,0.02897
3343.65935,0.02910
3341.59917,0.02911
3339.53900,0.02891
3337.47883,0.02881
3335.41866,0.02898
3333.35849,0.02919
3331.29831,0.02931
3329.23814,0.02951
3327.17797,0.02976
3325.11780,0.02988
3323.05762,0.02988
3320.99745,0.02973
3318.93728,0.02954
3316.87711,0.02944
3314.81694,0.02923
3312.75676,0.02899
3310.69659,0.02916
3308.63642,0.02956
3306.57625,0.02967
3304.51608,0.02960
3302.45590,0.02976
3300.39573,0.02997
3298.33556,0.02975
3296.27539,0.02936
3294.21521,0.02940
3292.15504,0.02971
3290.09487,0.02970
3288.03470,0.02967
3285.97453,0.03003
3283.91435,0.03029
3281.85418,0.03016
3279.79401,0.03012
3277.73384,0.03020
3275.67367,0.03023
3273.61349,0.03035
3271.55332,0.03062
3269.49315,0.03069
3267.43298,0.03046
3265.37281,0.03021
3263.31263,0.03006
3261.25246,0.03001
3259.19229,0.03008
3257.13212,0.03006
3255.07194,0.02992
3253.01177,0.02993
3250.95160,0.03007
3248.89143,0.03000
3246.83126,0.02979
3244.77108,0.02985
3242.71091,0.03005
3240.65074,0.02989
3238.59057,0.02953
3236.53040,0.02954
3234.47022,0.03000
3232.41005,0.03035
3230.34988,0.03014
3228.28971,0.02975
3226.22954,0.02970
3224.16936,0.02974
3222.10919,0.02979
3220.04902,0.03012
3217.98885,0.03041
3215.92867,0.03024
3213.86850,0.02999
3211.80833,0.03001
3209.74816,0.02989
3207.68799,0.02966
3205.62781,0.02986
3203.56764,0.03016
3201.50747,0.02990
3199.44730,0.02932
3197.38713,0.02902
3195.32695,0.02903
3193.26678,0.02905
3191.20661,0.02907
3189.14644,0.02919
3187.08626,0.02933
3185.02609,0.02931
3182.96592,0.02918
3180.90575,0.02908
3178.84558,0.02882
3176.78540,0.02859
3174.72523,0.02880
3172.66506,0.02909
3170.60489,0.02889
3168.54472,0.02849
3166.48454,0.02832
3164.42437,0.02839
3162.36420,0.02855
3160.30403,0.02851
3158.24386,0.02824
3156.18368,0.02791
3154.12351,0.02771
3152.06334,0.02779
3150.00317,0.02797
3147.94299,0.02809
3145.88282,0.02821
3143.82265,0.02824
3141.76248,0.02815
3139.70231,0.02798
3137.64213,0.02792
3135.58196,0.02799
3133.52179,0.02775
3131.46162,0.02716
3129.40145,0.02682
3127.34127,0.02689
3125.28110,0.02711
3123.22093,0.02724
3121.16076,0.02713
3119.10058,0.02684
3117.04041,0.02655
3114.98024,0.02633
3112.92007,0.02618
3110.85990,0.02606
3108.79972,0.02596
3106.73955,0.02582
3104.67938,0.02567
3102.61921,0.02570
3100.55904,0.02585
3098.49886,0.02589
3096.43869,0.02587
3094.37852,0.02583
3092.31835,0.02575
3090.25818,0.02564
3088.19800,0.02540
3086.13783,0.02509
3084.07766,0.02488
3082.01749,0.02480
3079.95731,0.02482
3077.89714,0.02486
3075.83697,0.02478
3073.77680,0.02455
3071.71663,0.02434
3069.65645,0.02432
3067.59628,0.02437
3065.53611,0.02413
3063.47594,0.02362
3061.41577,0.02323
3059.35559,0.02312
3057.29542,0.02304
3055.23525,0.02287
3053.17508,0.02278
3051.11491,0.02281
3049.05473,0.02291
3046.99456,0.02310
3044.93439,0.02318
3042.87422,0.02299
3040.81404,0.02262
3038.75387,0.02234
3036.69370,0.02229
3034.63353,0.02231
3032.57336,0.02211
3030.51318,0.02179
3028.45301,0.02164
3026.39284,0.02170
3024.33267,0.02168
3022.27250,0.02155
3020.21232,0.02145
3018.15215,0.02136
3016.09198,0.02118
3014.03181,0.02107
3011.97163,0.02106
3009.91146,0.02090
3007.85129,0.02058
3005.79112,0.02029
3003.73095,0.01991
3001.67077,0.01957
2999.61060,0.01963
2997.55043,0.01993
2995.49026,0.02011
2993.43009,0.02010
2991.36991,0.01989
2989.30974,0.01970
2987.24957,0.01961
2985.18940,0.01959
2983.12923,0.01963
2981.06905,0.01964
2979.00888,0.01952
2976.94871,0.01934
2974.88854,0.01902
2972.82836,0.01869
2970.76819,0.01875
2968.70802,0.01910
2966.64785,0.01916
2964.58768,0.01897
2962.52750,0.01901
2960.46733,0.01926
2958.40716,0.01937
2956.34699,0.01932
2954.28682,0.01924
2952.22664,0.01922
2950.16647,0.01917
2948.10630,0.01892
2946.04613,0.01860
2943.98596,0.01869
2941.92578,0.01909
2939.86561,0.01936
2937.80544,0.01945
2935.74527,0.01938
2933.68509,0.01926
2931.62492,0.01912
2929.56475,0.01886
2927.50458,0.01862
2925.44441,0.01862
2923.38423,0.01884
2921.32406,0.01903
2919.26389,0.01900
2917.20372,0.01886
2915.14355,0.01886
2913.08337,0.01876
2911.02320,0.01836
2908.96303,0.01816
2906.90286,0.01830
2904.84268,0.01838
2902.78251,0.01837
2900.72234,0.01828
2898.66217,0.01818
2896.60200,0.01803
2894.54182,0.01772
2892.48165,0.01744
2890.42148,0.01746
2888.36131,0.01778
2886.30114,0.01807
2884.24096,0.01812
2882.18079,0.01818
2880.12062,0.01814
2878.06045,0.01769
2876.00028,0.01717
2873.94010,0.01717
2871.87993,0.01750
2869.81976,0.01749
2867.75959,0.01710
2865.69941,0.01684
2863.63924,0.01697
2861.57907,0.01729
2859.51890,0.01743
2857.45873,0.01729
2855.39855,0.01706
2853.33838,0.01679
2851.27821,0.01652
2849.21804,0.01635
2847.15787,0.01626
2845.09769,0.01630
2843.03752,0.01632
2840.97735,0.01613
2838.91718,0.01595
2836.85700,0.01589
2834.79683,0.01583
2832.73666,0.01576
2830.67649,0.01565
2828.61632,0.01554
2826.55614,0.01548
2824.49597,0.01539
2822.43580,0.01528
2820.37563,0.01518
2818.31546,0.01524
2816.25528,0.01526
2814.19511,0.01510
2812.13494,0.01508
2810.07477,0.01525
2808.01460,0.01530
2805.95442,0.01510
2803.89425,0.01489
2801.83408,0.01479
2799.77391,0.01466
2797.71373,0.01442
2795.65356,0.01433
2793.59339,0.01450
2791.53322,0.01461
2789.47305,0.01448
2787.41287,0.01431
2785.35270,0.01434
2783.29253,0.01436
2781.23236,0.01419
2779.17219,0.01429
2777.11201,0.01451
2775.05184,0.01442
2772.99167,0.01421
2770.93150,0.01412
2768.87133,0.01427
2766.81115,0.01443
2764.75098,0.01417
2762.69081,0.01354
2760.63064,0.01323
2758.57046,0.01345
2756.51029,0.01362
2754.45012,0.01354
2752.38995,0.01354
2750.32978,0.01363
2748.26960,0.01347
2746.20943,0.01307
2744.14926,0.01283
2742.08909,0.01286
2740.02892,0.01292
2737.96874,0.01292
2735.90857,0.01290
2733.84840,0.01289
2731.78823,0.01289
2729.72805,0.01284
2727.66788,0.01277
2725.60771,0.01283
2723.54754,0.01296
2721.48737,0.01302
2719.42719,0.01299
2717.36702,0.01285
2715.30685,0.01270
2713.24668,0.01260
2711.18651,0.01248
2709.12633,0.01236
2707.06616,0.01233
2705.00599,0.01229
2702.94582,0.01208
2700.88565,0.01185
2698.82547,0.01180
2696.76530,0.01185
2694.70513,0.01189
2692.64496,0.01180
2690.58478,0.01167
2688.52461,0.01166
2686.46444,0.01173
2684.40427,0.01166
2682.34410,0.01145
2680.28392,0.01131
2678.22375,0.01138
2676.16358,0.01145
2674.10341,0.01128
2672.04324,0.01103
2669.98306,0.01099
2667.92289,0.01111
2665.86272,0.01113
2663.80255,0.01109
2661.74238,0.01115
2659.68220,0.01117
2657.62203,0.01093
2655.56186,0.01066
2653.50169,0.01069
2651.44151,0.01070
2649.38134,0.01059
2647.32117,0.01053
2645.26100,0.01035
2643.20083,0.01018
2641.14065,0.01030
2639.08048,0.01037
2637.02031,0.01023
2634.96014,0.01007
2632.89997,0.01001
2630.83979,0.01007
2628.77962,0.00998
2626.71945,0.00947
2624.65928,0.00895
2622.59910,0.00900
2620.53893,0.00932
2618.47876,0.00942
2616.41859,0.00929
2614.35842,0.00906
2612.29824,0.00890
2610.23807,0.00899
2608.17790,0.00912
2606.11773,0.00913
2604.05756,0.00914
2601.99738,0.00906
2599.93721,0.00887
2597.87704,0.00866
2595.81687,0.00855
2593.75670,0.00865
2591.69652,0.00868
2589.63635,0.00846
2587.57618,0.00834
2585.51601,0.00835
2583.45583,0.00828
2581.39566,0.00817
2579.33549,0.00803
2577.27532,0.00799
2575.21515,0.00815
2573.15497,0.00843
2571.09480,0.00867
2569.03463,0.00853
2566.97446,0.00812
2564.91429,0.00812
2562.85411,0.00855
2560.79394,0.00868
2558.73377,0.00826
2556.67360,0.00786
2554.61342,0.00800
2552.55325,0.00846
2550.49308,0.00859
2548.43291,0.00829
2546.37274,0.00803
2544.31256,0.00793
2542.25239,0.00786
2540.19222,0.00782
2538.13205,0.00806
2536.07188,0.00859
2534.01170,0.00884
2531.95153,0.00867
2529.89136,0.00845
2527.83119,0.00822
2525.77102,0.00798
2523.71084,0.00782
2521.65067,0.00765
2519.59050,0.00777
2517.53033,0.00815
2515.47015,0.00826
2513.40998,0.00799
2511.34981,0.00779
2509.28964,0.00796
2507.22947,0.00833
2505.16929,0.00855
2503.10912,0.00841
2501.04895,0.00820
2498.98878,0.00805
2496.92861,0.00786
2494.86843,0.00802
2492.80826,0.00843
2490.74809,0.00841
2488.68792,0.00821
2486.62775,0.00829
2484.56757,0.00846
2482.50740,0.00850
2480.44723,0.00836
2478.38706,0.00827
2476.32688,0.00839
2474.26671,0.00837
2472.20654,0.00818
2470.14637,0.00826
2468.08620,0.00851
2466.02602,0.00850
2463.96585,0.00826
2461.90568,0.00824
2459.84551,0.00849
2457.78534,0.00857
2455.72516,0.00838
2453.66499,0.00826
2451.60482,0.00826
2449.54465,0.00820
2447.48447,0.00836
2445.42430,0.00851
2443.36413,0.00829
2441.30396,0.00802
2439.24379,0.00790
2437.18361,0.00809
2435.12344,0.00862
2433.06327,0.00888
2431.00310,0.00866
2428.94293,0.00846
2426.88275,0.00843
2424.82258,0.00861
2422.76241,0.00893
2420.70224,0.00894
2418.64207,0.00856
2416.58189,0.00817
2414.52172,0.00803
2412.46155,0.00822
2410.40138,0.00855
2408.34120,0.00855
2406.28103,0.00849
2404.22086,0.00870
2402.16069,0.00878
2400.10052,0.00862
2398.04034,0.00846
2395.98017,0.00829
2393.92000,0.00803
2391.85983,0.00779
2389.79966,0.00775
2387.73948,0.00799
2385.67931,0.00840
2383.61914,0.00865
2381.55897,0.00846
2379.49880,0.00811
2377.43862,0.00802
2375.37845,0.00795
2373.31828,0.00813
2371.25811,0.00889
2369.19793,0.00952
2367.13776,0.00961
2365.07759,0.00970
2363.01742,0.00949
2360.95725,0.00863
2358.89707,0.00665
2356.83690,0.00690
2354.77673,0.00881
2352.71656,0.00908
2350.65639,0.00951
2348.59621,0.01075
2346.53604,0.01072
2344.47587,0.01102
2342.41570,0.01058
2340.35552,0.00971
2338.29535,0.00960
2336.23518,0.00984
2334.17501,0.00943
2332.11484,0.00808
2330.05466,0.00750
2327.99449,0.00849
2325.93432,0.01000
2323.87415,0.00994
2321.81398,0.00904
2319.75380,0.00857
2317.69363,0.00896
2315.63346,0.00907
2313.57329,0.00892
2311.51312,0.00914
2309.45294,0.00941
2307.39277,0.00910
2305.33260,0.00831
2303.27243,0.00777
2301.21225,0.00773
2299.15208,0.00804
2297.09191,0.00832
2295.03174,0.00845
2292.97157,0.00854
2290.91139,0.00858
2288.85122,0.00845
2286.79105,0.00824
2284.73088,0.00813
2282.67071,0.00804
2280.61053,0.00786
2278.55036,0.00765
2276.49019,0.00729
2274.43002,0.00681
2272.36984,0.00684
2270.30967,0.00747
2268.24950,0.00771
2266.18933,0.00719
2264.12916,0.00663
2262.06898,0.00661
2260.00881,0.00698
2257.94864,0.00733
2255.88847,0.00760
2253.82830,0.00769
2251.76812,0.00749
2249.70795,0.00714
2247.64778,0.00642
2245.58761,0.00559
2243.52744,0.00591
2241.46726,0.00678
2239.40709,0.00699
2237.34692,0.00695
2235.28675,0.00727
2233.22657,0.00797
2231.16640,0.00781
2229.10623,0.00606
2227.04606,0.00467
2224.98589,0.00460
2222.92571,0.00520
2220.86554,0.00611
2218.80537,0.00663
2216.74520,0.00668
2214.68503,0.00662
2212.62485,0.00624
2210.56468,0.00531
2208.50451,0.00431
2206.44434,0.00446
2204.38417,0.00533
2202.32399,0.00552
2200.26382,0.00553
2198.20365,0.00602
2196.14348,0.00611
2194.08330,0.00521
2192.02313,0.00443
2189.96296,0.00471
2187.90279,0.00537
2185.84262,0.00511
2183.78244,0.00374
2181.72227,0.00337
2179.66210,0.00434
2177.60193,0.00434
2175.54176,0.00394
2173.48158,0.00431
2171.42141,0.00418
2169.36124,0.00411
2167.30107,0.00468
2165.24089,0.00371
2163.18072,0.00202
2161.12055,0.00197
2159.06038,0.00261
2157.00021,0.00401
2154.94003,0.00557
2152.87986,0.00480
2150.81969,0.00309
2148.75952,0.00291
2146.69935,0.00334
2144.63917,0.00343
2142.57900,0.00340
2140.51883,0.00361
2138.45866,0.00441
2136.39849,0.00495
2134.33831,0.00434
2132.27814,0.00319
2130.21797,0.00248
2128.15780,0.00265
2126.09762,0.00334
2124.03745,0.00426
2121.97728,0.00556
2119.91711,0.00587
2117.85694,0.00502
2115.79676,0.00489
2113.73659,0.00509
2111.67642,0.00478
2109.61625,0.00475
2107.55608,0.00477
2105.49590,0.00444
2103.43573,0.00467
2101.37556,0.00533
2099.31539,0.00547
2097.25521,0.00513
2095.19504,0.00499
2093.13487,0.00530
2091.07470,0.00543
2089.01453,0.00478
2086.95435,0.00344
2084.89418,0.00252
2082.83401,0.00312
2080.77384,0.00467
2078.71367,0.00559
2076.65349,0.00495
2074.59332,0.00378
2072.53315,0.00330
2070.47298,0.00362
2068.41281,0.00420
2066.35263,0.00444
2064.29246,0.00454
2062.23229,0.00465
2060.17212,0.00453
2058.11194,0.00449
2056.05177,0.00461
2053.99160,0.00466
2051.93143,0.00475
2049.87126,0.00495
2047.81108,0.00525
2045.75091,0.00522
2043.69074,0.00428
2041.63057,0.00351
2039.57040,0.00387
2037.51022,0.00407
2035.45005,0.00337
2033.38988,0.00302
2031.32971,0.00308
2029.26954,0.00188
2027.20936,0.00000
2025.14919,0.00003
2023.08902,0.00216
2021.02885,0.00395
2018.96867,0.00467
2016.90850,0.00500
2014.84833,0.00469
2012.78816,0.00346
2010.72799,0.00225
2008.66781,0.00151
2006.60764,0.00095
2004.54747,0.00134
2002.48730,0.00244
2000.42713,0.00315
1998.36695,0.00339
1996.30678,0.00355
1994.24661,0.00370
1992.18644,0.00390
1990.12626,0.00419
1988.06609,0.00410
1986.00592,0.00359
1983.94575,0.00323
1981.88558,0.00295
1979.82540,0.00220
1977.76523,0.00132
1975.70506,0.00131
1973.64489,0.00169
1971.58472,0.00136
1969.52454,0.00068
1967.46437,0.00076
1965.40420,0.00140
1963.34403,0.00137
1961.28386,0.00100
1959.22368,0.00064
1957.16351,0.00032
1955.10334,0.00103
1953.04317,0.00229
1950.98299,0.00262
1948.92282,0.00219
1946.86265,0.00178
1944.80248,0.00166
1942.74231,0.00210
1940.68213,0.00322
1938.62196,0.00402
1936.56179,0.00339
1934.50162,0.00184
1932.44145,0.00069
1930.38127,0.00088
1928.32110,0.00213
1926.26093,0.00273
1924.20076,0.00189
1922.14059,0.00104
1920.08041,0.00121
1918.02024,0.00170
1915.96007,0.00189
1913.89990,0.00165
1911.83972,0.00134
1909.77955,0.00148
1907.71938,0.00197
1905.65921,0.00237
1903.59904,0.00252
1901.53886,0.00238
1899.47869,0.00218
1897.41852,0.00236
1895.35835,0.00279
1893.29818,0.00299
1891.23800,0.00304
1889.17783,0.00304
1887.11766,0.00272
1885.05749,0.00224
1882.99731,0.00200
1880.93714,0.00192
1878.87697,0.00166
1876.81680,0.00142
1874.75663,0.00157
1872.69645,0.00182
1870.63628,0.00211
1868.57611,0.00279
1866.51594,0.00335
1864.45577,0.00314
1862.39559,0.00257
1860.33542,0.00237
1858.27525,0.00254
1856.21508,0.00274
1854.15491,0.00285
1852.09473,0.00278
1850.03456,0.00247
1847.97439,0.00200
1845.91422,0.00154
1843.85404,0.00141
1841.79387,0.00156
1839.73370,0.00161
1837.67353,0.00171
1835.61336,0.00196
1833.55318,0.00208
1831.49301,0.00203
1829.43284,0.00205
1827.37267,0.00206
1825.31250,0.00192
1823.25232,0.00189
1821.19215,0.00213
1819.13198,0.00233
1817.07181,0.00228
1815.01163,0.00220
1812.95146,0.00218
1810.89129,0.00214
1808.83112,0.00211
1806.77095,0.00210
1804.71077,0.00206
1802.65060,0.00201
1800.59043,0.00198
1798.53026,0.00195
1796.47009,0.00201
1794.40991,0.00216
1792.34974,0.00233
1790.28957,0.00250
1788.22940,0.00267
1786.16923,0.00268
1784.10905,0.00245
1782.04888,0.00223
1779.98871,0.00220
1777.92854,0.00231
1775.86836,0.00236
1773.80819,0.00226
1771.74802,0.00217
1769.68785,0.00229
1767.62768,0.00255
1765.56750,0.00279
1763.50733,0.00280
1761.44716,0.00257
1759.38699,0.00246
1757.32682,0.00270
1755.26664,0.00316
1753.20647,0.00346
1751.14630,0.00339
1749.08613,0.00325
1747.02596,0.00339
1744.96578,0.00366
1742.90561,0.00398
1740.84544,0.00439
1738.78527,0.00460
1736.72509,0.00442
1734.66492,0.00424
1732.60475,0.00445
1730.54458,0.00470
1728.48441,0.00482
1726.42423,0.00495
1724.36406,0.00514
1722.30389,0.00531
1720.24372,0.00544
1718.18355,0.00557
1716.12337,0.00566
1714.06320,0.00560
1712.00303,0.00558
1709.94286,0.00564
1707.88268,0.00577
1705.82251,0.00598
1703.76234,0.00618
1701.70217,0.00637
1699.64200,0.00644
1697.58182,0.00622
1695.52165,0.00619
1693.46148,0.00663
1691.40131,0.00713
1689.34114,0.00731
1687.28096,0.00713
1685.22079,0.00693
1683.16062,0.00725
1681.10045,0.00790
1679.04028,0.00830
1676.98010,0.00827
1674.91993,0.00811
1672.85976,0.00830
1670.79959,0.00878
1668.73941,0.00910
1666.67924,0.00905
1664.61907,0.00899
1662.55890,0.00935
1660.49873,0.00992
1658.43855,0.01004
1656.37838,0.00962
1654.31821,0.00920
1652.25804,0.00939
1650.19787,0.00981
1648.13769,0.01008
1646.07752,0.01035
1644.01735,0.01050
1641.95718,0.01041
1639.89701,0.01016
1637.83683,0.00986
1635.77666,0.00985
1633.71649,0.01015
1631.65632,0.01032
1629.59614,0.01025
1627.53597,0.01003
1625.47580,0.00984
1623.41563,0.00992
1621.35546,0.01011
1619.29528,0.00997
1617.23511,0.00968
1615.17494,0.00970
1613.11477,0.00987
1611.05460,0.00987
1608.99442,0.00968
1606.93425,0.00942
1604.87408,0.00914
1602.81391,0.00887
1600.75373,0.00861
1598.69356,0.00828
1596.63339,0.00793
1594.57322,0.00772
1592.51305,0.00749
1590.45287,0.00711
1588.39270,0.00673
1586.33253,0.00650
1584.27236,0.00632
1582.21219,0.00607
1580.15201,0.00573
1578.09184,0.00543
1576.03167,0.00533
1573.97150,0.00536
1571.91133,0.00533
1569.85115,0.00520
1567.79098,0.00491
1565.73081,0.00447
1563.67064,0.00399
1561.61046,0.00354
1559.55029,0.00323
1557.49012,0.00319
1555.42995,0.00312
1553.36978,0.00302
1551.30960,0.00301
1549.24943,0.00301
1547.18926,0.00286
1545.12909,0.00242
1543.06892,0.00195
1541.00874,0.00196
1538.94857,0.00243
1536.88840,0.00252
1534.82823,0.00224
1532.76805,0.00205
1530.70788,0.00200
1528.64771,0.00190
1526.58754,0.00171
1524.52737,0.00141
1522.46719,0.00102
1520.40702,0.00083
1518.34685,0.00105
1516.28668,0.00137
1514.22651,0.00150
1512.16633,0.00141
1510.10616,0.00118
1508.04599,0.00098
1505.98582,0.00119
1503.92565,0.00157
1501.86547,0.00168
1499.80530,0.00151
1497.74513,0.00129
1495.68496,0.00119
1493.62478,0.00108
1491.56461,0.00084
1489.50444,0.00072
1487.44427,0.00080
1485.38410,0.00094
1483.32392,0.00114
1481.26375,0.00134
1479.20358,0.00144
1477.14341,0.00144
1475.08324,0.00149
1473.02306,0.00171
1470.96289,0.00196
1468.90272,0.00198
1466.84255,0.00189
1464.78238,0.00200
1462.72220,0.00225
1460.66203,0.00235
1458.60186,0.00233
1456.54169,0.00248
1454.48151,0.00273
1452.42134,0.00293
1450.36117,0.00308
1448.30100,0.00318
1446.24083,0.00320
1444.18065,0.00310
1442.12048,0.00287
1440.06031,0.00253
1438.00014,0.00225
1435.93997,0.00223
1433.87979,0.00230
1431.81962,0.00223
1429.75945,0.00217
1427.69928,0.00222
1425.63910,0.00228
1423.57893,0.00232
1421.51876,0.00220
1419.45859,0.00195
1417.39842,0.00198
1415.33824,0.00239
1413.27807,0.00278
1411.21790,0.00287
1409.15773,0.00270
1407.09756,0.00247
1405.03738,0.00232
1402.97721,0.00230
1400.91704,0.00225
1398.85687,0.00215
1396.79670,0.00212
1394.73652,0.00224
1392.67635,0.00240
1390.61618,0.00248
1388.55601,0.00251
1386.49583,0.00254
1384.43566,0.00261
1382.37549,0.00273
1380.31532,0.00286
1378.25515,0.00297
1376.19497,0.00307
1374.13480,0.00313
1372.07463,0.00309
1370.01446,0.00302
1367.95429,0.00302
1365.89411,0.00305
1363.83394,0.00309
1361.77377,0.00326
1359.71360,0.00339
1357.65343,0.00326
1355.59325,0.00293
1353.53308,0.00266
1351.47291,0.00262
1349.41274,0.00273
1347.35256,0.00276
1345.29239,0.00268
1343.23222,0.00256
1341.17205,0.00246
1339.11188,0.00251
1337.05170,0.00272
1334.99153,0.00286
1332.93136,0.00277
1330.87119,0.00255
1328.81102,0.00239
1326.75084,0.00234
1324.69067,0.00235
1322.63050,0.00232
1320.57033,0.00223
1318.51015,0.00202
1316.44998,0.00174
1314.38981,0.00154
1312.32964,0.00150
1310.26947,0.00150
1308.20929,0.00144
1306.14912,0.00146
1304.08895,0.00159
1302.02878,0.00166
1299.96861,0.00163
1297.90843,0.00162
1295.84826,0.00161
1293.78809,0.00153
1291.72792,0.00148
1289.66775,0.00156
1287.60757,0.00169
1285.54740,0.00176
1283.48723,0.00169
1281.42706,0.00156
1279.36688,0.00160
1277.30671,0.00173
1275.24654,0.00168
1273.18637,0.00158
1271.12620,0.00164
1269.06602,0.00183
1267.00585,0.00199
1264.94568,0.00202
1262.88551,0.00194
1260.82534,0.00195
1258.76516,0.00194
1256.70499,0.00169
1254.64482,0.00142
1252.58465,0.00139
1250.52447,0.00144
1248.46430,0.00138
1246.40413,0.00129
1244.34396,0.00129
1242.28379,0.00146
1240.22361,0.00162
1238.16344,0.00153
1236.10327,0.00125
1234.04310,0.00106
1231.98293,0.00112
1229.92275,0.00130
1227.86258,0.00138
1225.80241,0.00130
1223.74224,0.00128
1221.68207,0.00138
1219.62189,0.00138
1217.56172,0.00122
1215.50155,0.00104
1213.44138,0.00089
1211.38120,0.00083
1209.32103,0.00084
1207.26086,0.00084
1205.20069,0.00077
1203.14052,0.00062
1201.08034,0.00064
1199.02017,0.00081
1196.96000,0.00076
1194.89983,0.00049
1192.83966,0.00045
1190.77948,0.00084
1188.71931,0.00138
1186.65914,0.00168
1184.59897,0.00187
1182.53880,0.00227
1180.47862,0.00269
1178.41845,0.00299
1176.35828,0.00337
1174.29811,0.00380
1172.23793,0.00426
1170.17776,0.00470
1168.11759,0.00515
1166.05742,0.00562
1163.99725,0.00601
1161.93707,0.00633
1159.87690,0.00659
1157.81673,0.00690
1155.75656,0.00739
1153.69639,0.00787
1151.63621,0.00819
1149.57604,0.00859
1147.51587,0.00913
1145.45570,0.00965
1143.39552,0.01017
1141.33535,0.01078
1139.27518,0.01136
1137.21501,0.01184
1135.15484,0.01229
1133.09466,0.01283
1131.03449,0.01355
1128.97432,0.01432
1126.91415,0.01496
1124.85398,0.01537
1122.79380,0.01564
1120.73363,0.01608
1118.67346,0.01673
1116.61329,0.01742
1114.55312,0.01817
1112.49294,0.01887
1110.43277,0.01943
1108.37260,0.02016
1106.31243,0.02104
1104.25225,0.02191
1102.19208,0.02278
1100.13191,0.02343
1098.07174,0.02382
1096.01157,0.02435
1093.95139,0.02499
1091.89122,0.02570
1089.83105,0.02662
1087.77088,0.02754
1085.71071,0.02826
1083.65053,0.02872
1081.59036,0.02907
1079.53019,0.02951
1077.47002,0.03008
1075.40985,0.03059
1073.34967,0.03087
1071.28950,0.03091
1069.22933,0.03100
1067.16916,0.03143
1065.10898,0.03185
1063.04881,0.03204
1060.98864,0.03198
1058.92847,0.03176
1056.86830,0.03168
1054.80812,0.03171
1052.74795,0.03176
1050.68778,0.03175
1048.62761,0.03139
1046.56744,0.03078
1044.50726,0.03029
1042.44709,0.02984
1040.38692,0.02925
1038.32675,0.02868
1036.26657,0.02822
1034.20640,0.02769
1032.14623,0.02707
1030.08606,0.02651
1028.02589,0.02592
1025.96571,0.02515
1023.90554,0.02440
1021.84537,0.02385
1019.78520,0.02347
1017.72503,0.02322
1015.66485,0.02289
1013.60468,0.02243
1011.54451,0.02212
1009.48434,0.02183
1007.42417,0.02133
1005.36399,0.02083
1003.30382,0.02047
1001.24365,0.02027
999.18348,0.02051
997.12330,0.02095
995.06313,0.02116
993.00296,0.02121
990.94279,0.02137
988.88262,0.02181
986.82244,0.02233
984.76227,0.02252
982.70210,0.02231
980.64193,0.02192
978.58176,0.02156
976.52158,0.02124
974.46141,0.02078
972.40124,0.02000
970.34107,0.01891
968.28089,0.01775
966.22072,0.01701
964.16055,0.01668
962.10038,0.01605
960.04021,0.01505
957.98003,0.01427
955.91986,0.01371
953.85969,0.01315
951.79952,0.01270
949.73935,0.01231
947.67917,0.01200
945.61900,0.01202
943.55883,0.01205
941.49866,0.01203
939.43849,0.01216
937.37831,0.01216
935.31814,0.01189
933.25797,0.01189
931.19780,0.01220
929.13762,0.01194
927.07745,0.01121
925.01728,0.01081
922.95711,0.01074
920.89694,0.01057
918.83676,0.01013
916.77659,0.00972
914.71642,0.00956
912.65625,0.00940
910.59608,0.00883
908.53590,0.00809
906.47573,0.00795
904.41556,0.00839
902.35539,0.00873
900.29522,0.00861
898.23504,0.00811
896.17487,0.00784
894.11470,0.00807
892.05453,0.00833
889.99435,0.00854
887.93418,0.00876
885.87401,0.00860
883.81384,0.00847
881.75367,0.00874
879.69349,0.00905
877.63332,0.00935
875.57315,0.00966
873.51298,0.01000
871.45281,0.01040
869.39263,0.01067
867.33246,0.01055
865.27229,0.01005
863.21212,0.00956
861.15194,0.00935
859.09177,0.00939
857.03160,0.00956
854.97143,0.00972
852.91126,0.00965
850.85108,0.00926
848.79091,0.00879
846.73074,0.00833
844.67057,0.00794
842.61040,0.00783
840.55022,0.00795
838.49005,0.00795
836.42988,0.00772
834.36971,0.00750
832.30954,0.00743
830.24936,0.00737
828.18919,0.00714
826.12902,0.00679
824.06885,0.00633
822.00867,0.00596
819.94850,0.00555
817.88833,0.00479
815.82816,0.00417
813.76799,0.00410
811.70781,0.00434
809.64764,0.00448
807.58747,0.00425
805.52730,0.00379
803.46713,0.00355
801.40695,0.00364
799.34678,0.00360
797.28661,0.00330
795.22644,0.00314
793.16627,0.00316
791.10609,0.00319
789.04592,0.00311
786.98575,0.00305
784.92558,0.00325
782.86540,0.00340
780.80523,0.00348
778.74506,0.00342
776.68489,0.00296
774.62472,0.00284
772.56454,0.00312
770.50437,0.00314
768.44420,0.00326
766.38403,0.00375
764.32386,0.00374
762.26368,0.00293
760.20351,0.00226
758.14334,0.00214
756.08317,0.00205
754.02299,0.00180
751.96282,0.00162
749.90265,0.00163
747.84248,0.00190
745.78231,0.00239
743.72213,0.00243
741.66196,0.00166
739.60179,0.00127
737.54162,0.00154
735.48145,0.00156
733.42127,0.00152
731.36110,0.00170
729.30093,0.00177
727.24076,0.00175
725.18059,0.00169
723.12041,0.00199
721.06024,0.00237
719.00007,0.00270
716.93990,0.00249
714.87972,0.00225
712.81955,0.00252
710.75938,0.00280
708.69921,0.00251
706.63904,0.00191
704.57886,0.00153
702.51869,0.00142
700.45852,0.00128
698.39835,0.00108
696.33818,0.00116
694.27800,0.00142
692.21783,0.00141
690.15766,0.00142
688.09749,0.00197
686.03731,0.00268
683.97714,0.00285
681.91697,0.00275
679.85680,0.00329
677.79663,0.00396
675.73645,0.00373
673.67628,0.00325
671.61611,0.00328
669.55594,0.00142
667.49577,0.00000
665.43559,0.00320
663.37542,0.00330
661.31525,0.00272
659.25508,0.00223
657.19491,0.00147
655.13473,0.00105
653.07456,0.00140
651.01439,0.00154
648.95422,0.00094
646.89404,0.00072
644.83387,0.00108
642.77370,0.00092
640.71353,0.00000
638.65336,0.00011
636.59318,0.00165
634.53301,0.00251
632.47284,0.00178
630.41267,0.00068
628.35250,0.00010
626.29232,0.00035
624.23215,0.00127
622.17198,0.00146
620.11181,0.00034
618.05164,-0.00022
615.99146,-0.00009
613.93129,-0.00081
611.87112,-0.00052
609.81095,0.00085
607.75077,0.00091
605.69060,-0.00001
603.63043,0.00011
601.57026,0.00085
599.51009,0.00000
