3996.73391,0.00040
3994.67373,0.00052
3992.61356,0.00072
3990.55339,0.00068
3988.49322,0.00033
3986.43305,0.00004
3984.37287,0.00019
3982.31270,0.00060
3980.25253,0.00082
3978.19236,0.00082
3976.13219,0.00074
3974.07201,0.00061
3972.01184,0.00070
3969.95167,0.00102
3967.89150,0.00102
3965.83133,0.00047
3963.77115,0.00000
3961.71098,0.00007
3959.65081,0.00043
3957.59064,0.00070
3955.53046,0.00085
3953.47029,0.00097
3951.41012,0.00098
3949.34995,0.00078
3947.28978,0.00045
3945.22960,0.00035
3943.16943,0.00073
3941.10926,0.00127
3939.04909,0.00153
3936.98892,0.00152
3934.92874,0.00139
3932.86857,0.00118
3930.80840,0.00110
3928.74823,0.00120
3926.68805,0.00119
3924.62788,0.00092
3922.56771,0.00063
3920.50754,0.00062
3918.44737,0.00078
3916.38719,0.00089
3914.32702,0.00089
3912.26685,0.00071
3910.20668,0.00055
3908.14651,0.00074
3906.08633,0.00111
3904.02616,0.00123
3901.96599,0.00111
3899.90582,0.00088
3897.84565,0.00068
3895.78547,0.00073
3893.72530,0.00088
3891.66513,0.00089
3889.60496,0.00099
3887.54478,0.00131
3885.48461,0.00148
3883.42444,0.00131
3881.36427,0.00100
3879.30410,0.00074
3877.24392,0.00066
3875.18375,0.00066
3873.12358,0.00061
3871.06341,0.00050
3869.00324,0.00039
3866.94306,0.00047
3864.88289,0.00079
3862.82272,0.00111
3860.76255,0.00115
3858.70237,0.00101
3856.64220,0.00072
3854.58203,0.00023
3852.52186,0.00000
3850.46169,0.00047
3848.40151,0.00110
3846.34134,0.00138
3844.28117,0.00140
3842.22100,0.00141
3840.16083,0.00130
3838.10065,0.00100
3836.04048,0.00102
3833.98031,0.00142
3831.92014,0.00158
3829.85997,0.00148
3827.79979,0.00138
3825.73962,0.00128
3823.67945,0.00125
3821.61928,0.00120
3819.55910,0.00086
3817.49893,0.00041
3815.43876,0.00027
3813.37859,0.00054
3811.31842,0.00088
3809.25824,0.00096
3807.19807,0.00080
3805.13790,0.00068
3803.07773,0.00083
3801.01756,0.00113
3798.95738,0.00123
3796.89721,0.00127
3794.83704,0.00149
3792.77687,0.00153
3790.71670,0.00131
3788.65652,0.00128
3786.59635,0.00158
3784.53618,0.00167
3782.47601,0.00124
3780.41583,0.00060
3778.35566,0.00034
3776.29549,0.00069
3774.23532,0.00131
3772.17515,0.00189
3770.11497,0.00217
3768.05480,0.00193
3765.99463,0.00163
3763.93446,0.00175
3761.87429,0.00201
3759.81411,0.00196
3757.75394,0.00164
3755.69377,0.00147
3753.63360,0.00137
3751.57342,0.00079
3749.51325,0.00000
3747.45308,0.00011
3745.39291,0.00121
3743.33274,0.00212
3741.27256,0.00199
3739.21239,0.00137
3737.15222,0.00089
3735.09205,0.00064
3733.03188,0.00060
3730.97170,0.00081
3728.91153,0.00093
3726.85136,0.00095
3724.79119,0.00122
3722.73102,0.00164
3720.67084,0.00187
3718.61067,0.00196
3716.55050,0.00196
3714.49033,0.00187
3712.43015,0.00167
3710.36998,0.00126
3708.30981,0.00098
3706.24964,0.00131
3704.18947,0.00191
3702.12929,0.00216
3700.06912,0.00215
3698.00895,0.00216
3695.94878,0.00209
3693.88861,0.00191
3691.82843,0.00158
3689.76826,0.00127
3687.70809,0.00139
3685.64792,0.00181
3683.58775,0.00207
3681.52757,0.00213
3679.46740,0.00241
3677.40723,0.00298
3675.34706,0.00309
3673.28688,0.00248
3671.22671,0.00182
3669.16654,0.00160
3667.10637,0.00202
3665.04620,0.00271
3662.98602,0.00311
3660.92585,0.00317
3658.86568,0.00337
3656.80551,0.00385
3654.74534,0.00420
3652.68516,0.00424
3650.62499,0.00419
3648.56482,0.00414
3646.50465,0.00410
3644.44447,0.00413
3642.38430,0.00423
3640.32413,0.00447
3638.26396,0.00508
3636.20379,0.00606
3634.14361,0.00696
3632.08344,0.00730
3630.02327,0.00709
3627.96310,0.00672
3625.90293,0.00677
3623.84275,0.00724
3621.78258,0.00761
3619.72241,0.00777
3617.66224,0.00816
3615.60207,0.00869
3613.54189,0.00907
3611.48172,0.00960
3609.42155,0.01026
3607.36138,0.01068
3605.30120,0.01091
3603.24103,0.01110
3601.18086,0.01134
3599.12069,0.01168
3597.06052,0.01200
3595.00034,0.01228
3592.94017,0.01278
3590.88000,0.01319
3588.81983,0.01325
3586.75966,0.01337
3584.69948,0.01388
3582.63931,0.01462
3580.57914,0.01543
3578.51897,0.01607
3576.45879,0.01646
3574.39862,0.01693
3572.33845,0.01753
3570.27828,0.01779
3568.21811,0.01787
3566.15793,0.01848
3564.09776,0.01947
3562.03759,0.02031
3559.97742,0.02086
3557.91725,0.02116
3555.85707,0.02141
3553.79690,0.02176
3551.73673,0.02224
3549.67656,0.02284
3547.61639,0.02351
3545.55621,0.02411
3543.49604,0.02471
3541.43587,0.02562
3539.37570,0.02668
3537.31552,0.02748
3535.25535,0.02793
3533.19518,0.02810
3531.13501,0.02822
3529.07484,0.02863
3527.01466,0.02939
3524.95449,0.03021
3522.89432,0.03091
3520.83415,0.03149
3518.77398,0.03190
3516.71380,0.03230
3514.65363,0.03282
3512.59346,0.03325
3510.53329,0.03353
3508.47312,0.03394
3506.41294,0.03455
3504.35277,0.03507
3502.29260,0.03552
3500.23243,0.03609
3498.17225,0.03670
3496.11208,0.03717
3494.05191,0.03760
3491.99174,0.03824
3489.93157,0.03909
3487.87139,0.03986
3485.81122,0.04047
3483.75105,0.04095
3481.69088,0.04124
3479.63071,0.04150
3477.57053,0.04200
3475.51036,0.04251
3473.45019,0.04286
3471.39002,0.04332
3469.32984,0.04397
3467.26967,0.04471
3465.20950,0.04536
3463.14933,0.04592
3461.08916,0.04649
3459.02898,0.04686
3456.96881,0.04688
3454.90864,0.04705
3452.84847,0.04775
3450.78830,0.04868
3448.72812,0.04933
3446.66795,0.04981
3444.60778,0.05050
3442.54761,0.05116
3440.48744,0.05148
3438.42726,0.05173
3436.36709,0.05221
3434.30692,0.05269
3432.24675,0.05321
3430.18657,0.05402
3428.12640,0.05475
3426.06623,0.05504
3424.00606,0.05526
3421.94589,0.05572
3419.88571,0.05633
3417.82554,0.05696
3415.76537,0.05747
3413.70520,0.05790
3411.64503,0.05843
3409.58485,0.05881
3407.52468,0.05896
3405.46451,0.05921
3403.40434,0.05973
3401.34416,0.06030
3399.28399,0.06063
3397.22382,0.06080
3395.16365,0.06122
3393.10348,0.06192
3391.04330,0.06245
3388.98313,0.06269
3386.92296,0.06284
3384.86279,0.06322
3382.80262,0.06370
3380.74244,0.06383
3378.68227,0.06394
3376.62210,0.06431
3374.56193,0.06480
3372.50176,0.06529
3370.44158,0.06562
3368.38141,0.06595
3366.32124,0.06640
3364.26107,0.06679
3362.20089,0.06709
3360.14072,0.06734
3358.08055,0.06743
3356.02038,0.06759
3353.96021,0.06802
3351.90003,0.06851
3349.83986,0.06883
3347.77969,0.06878
3345.71952,0.06855
3343.65935,0.06865
3341.59917,0.06902
3339.53900,0.06923
3337.47883,0.06937
3335.41866,0.06956
3333.35849,0.06969
3331.29831,0.06983
3329.23814,0.07011
3327.17797,0.07053
3325.11780,0.07087
3323.05762,0.07090
3320.99745,0.07085
3318.93728,0.07112
3316.87711,0.07157
3314.81694,0.07182
3312.75676,0.07175
3310.69659,0.07155
3308.63642,0.07156
3306.57625,0.07199
3304.51608,0.07248
3302.45590,0.07266
3300.39573,0.07241
3298.33556,0.07206
3296.27539,0.07229
3294.21521,0.07278
3292.15504,0.07290
3290.09487,0.07281
3288.03470,0.07285
3285.97453,0.07303
3283.91435,0.07312
3281.85418,0.07305
3279.79401,0.07298
3277.73384,0.07291
3275.67367,0.07292
3273.61349,0.07294
3271.55332,0.07264
3269.49315,0.07222
3267.43298,0.07221
3265.37281,0.07267
3263.31263,0.07308
3261.25246,0.07305
3259.19229,0.07280
3257.13212,0.07245
3255.07194,0.07209
3253.01177,0.07181
3250.95160,0.07156
3248.89143,0.07132
3246.83126,0.07112
3244.77108,0.07103
3242.71091,0.07102
3240.65074,0.07082
3238.59057,0.07049
3236.53040,0.07028
3234.47022,0.07017
3232.41005,0.06974
3230.34988,0.06907
3228.28971,0.06883
3226.22954,0.06885
3224.16936,0.06866
3222.10919,0.06853
3220.04902,0.06857
3217.98885,0.06850
3215.92867,0.06831
3213.86850,0.06794
3211.80833,0.06754
3209.74816,0.06734
3207.68799,0.06724
3205.62781,0.06707
3203.56764,0.06677
3201.50747,0.06646
3199.44730,0.06631
3197.38713,0.06608
3195.32695,0.06579
3193.26678,0.06574
3191.20661,0.06574
3189.14644,0.06518
3187.08626,0.06431
3185.02609,0.06385
3182.96592,0.06374
3180.90575,0.06373
3178.84558,0.06375
3176.78540,0.06343
3174.72523,0.06279
3172.66506,0.06235
3170.60489,0.06214
3168.54472,0.06195
3166.48454,0.06169
3164.42437,0.06135
3162.36420,0.06099
3160.30403,0.06073
3158.24386,0.06046
3156.18368,0.06002
3154.12351,0.05957
3152.06334,0.05926
3150.00317,0.05894
3147.94299,0.05856
3145.88282,0.05826
3143.82265,0.05795
3141.76248,0.05770
3139.70231,0.05751
3137.64213,0.05705
3135.58196,0.05637
3133.52179,0.05588
3131.46162,0.05569
3129.40145,0.05560
3127.34127,0.05541
3125.28110,0.05491
3123.22093,0.05426
3121.16076,0.05380
3119.10058,0.05354
3117.04041,0.05335
3114.98024,0.05329
3112.92007,0.05321
3110.85990,0.05286
3108.79972,0.05239
3106.73955,0.05187
3104.67938,0.05140
3102.61921,0.05118
3100.55904,0.05099
3098.49886,0.05058
3096.43869,0.05010
3094.37852,0.04973
3092.31835,0.04953
3090.25818,0.04948
3088.19800,0.04931
3086.13783,0.04899
3084.07766,0.04870
3082.01749,0.04829
3079.95731,0.04781
3077.89714,0.04756
3075.83697,0.04739
3073.77680,0.04705
3071.71663,0.04678
3069.65645,0.04671
3067.59628,0.04663
3065.53611,0.04630
3063.47594,0.04590
3061.41577,0.04557
3059.35559,0.04524
3057.29542,0.04487
3055.23525,0.04449
3053.17508,0.04417
3051.11491,0.04393
3049.05473,0.04363
3046.99456,0.04335
3044.93439,0.04303
3042.87422,0.04256
3040.81404,0.04199
3038.75387,0.04146
3036.69370,0.04131
3034.63353,0.04132
3032.57336,0.04103
3030.51318,0.04056
3028.45301,0.04010
3026.39284,0.03969
3024.33267,0.03941
3022.27250,0.03910
3020.21232,0.03873
3018.15215,0.03842
3016.09198,0.03818
3014.03181,0.03799
3011.97163,0.03791
3009.91146,0.03778
3007.85129,0.03749
3005.79112,0.03723
3003.73095,0.03704
3001.67077,0.03672
2999.61060,0.03638
2997.55043,0.03630
2995.49026,0.03629
2993.43009,0.03627
2991.36991,0.03641
2989.30974,0.03655
2987.24957,0.03662
2985.18940,0.03670
2983.12923,0.03682
2981.06905,0.03704
2979.00888,0.03742
2976.94871,0.03805
2974.88854,0.03881
2972.82836,0.03945
2970.76819,0.04014
2968.70802,0.04114
2966.64785,0.04231
2964.58768,0.04351
2962.52750,0.04483
2960.46733,0.04629
2958.40716,0.04769
2956.34699,0.04894
2954.28682,0.05009
2952.22664,0.05119
2950.16647,0.05235
2948.10630,0.05382
2946.04613,0.05573
2943.98596,0.05783
2941.92578,0.05994
2939.86561,0.06217
2937.80544,0.06472
2935.74527,0.06759
2933.68509,0.07064
2931.62492,0.07361
2929.56475,0.07623
2927.50458,0.07857
2925.44441,0.08072
2923.38423,0.08274
2921.32406,0.08504
2919.26389,0.08736
2917.20372,0.08818
2915.14355,0.08615
2913.08337,0.08158
2911.02320,0.07617
2908.96303,0.07166
2906.90286,0.06863
2904.84268,0.06651
2902.78251,0.06464
2900.72234,0.06289
2898.66217,0.06133
2896.60200,0.05987
2894.54182,0.05846
2892.48165,0.05716
2890.42148,0.05595
2888.36131,0.05472
2886.30114,0.05346
2884.24096,0.05241
2882.18079,0.05177
2880.12062,0.05124
2878.06045,0.05070
2876.00028,0.05048
2873.94010,0.05056
2871.87993,0.05070
2869.81976,0.05094
2867.75959,0.05138
2865.69941,0.05217
2863.63924,0.05360
2861.57907,0.05564
2859.51890,0.05807
2857.45873,0.06064
2855.39855,0.06338
2853.33838,0.06654
2851.27821,0.06943
2849.21804,0.06991
2847.15787,0.06639
2845.09769,0.06026
2843.03752,0.05435
2840.97735,0.04991
2838.91718,0.04661
2836.85700,0.04419
2834.79683,0.04265
2832.73666,0.04151
2830.67649,0.04029
2828.61632,0.03912
2826.55614,0.03824
2824.49597,0.03767
2822.43580,0.03725
2820.37563,0.03676
2818.31546,0.03623
2816.25528,0.03561
2814.19511,0.03502
2812.13494,0.03464
2810.07477,0.03434
2808.01460,0.03398
2805.95442,0.03359
2803.89425,0.03321
2801.83408,0.03290
2799.77391,0.03267
2797.71373,0.03231
2795.65356,0.03188
2793.59339,0.03169
2791.53322,0.03164
2789.47305,0.03144
2787.41287,0.03099
2785.35270,0.03047
2783.29253,0.03022
2781.23236,0.03024
2779.17219,0.03013
2777.11201,0.02989
2775.05184,0.02976
2772.99167,0.02970
2770.93150,0.02954
2768.87133,0.02934
2766.81115,0.02918
2764.75098,0.02900
2762.69081,0.02883
2760.63064,0.02874
2758.57046,0.02872
2756.51029,0.02861
2754.45012,0.02843
2752.38995,0.02831
2750.32978,0.02833
2748.26960,0.02842
2746.20943,0.02841
2744.14926,0.02818
2742.08909,0.02791
2740.02892,0.02784
2737.96874,0.02795
2735.90857,0.02799
2733.84840,0.02789
2731.78823,0.02780
2729.72805,0.02772
2727.66788,0.02758
2725.60771,0.02743
2723.54754,0.02725
2721.48737,0.02708
2719.42719,0.02692
2717.36702,0.02676
2715.30685,0.02662
2713.24668,0.02644
2711.18651,0.02624
2709.12633,0.02615
2707.06616,0.02619
2705.00599,0.02627
2702.94582,0.02624
2700.88565,0.02611
2698.82547,0.02608
2696.76530,0.02616
2694.70513,0.02607
2692.64496,0.02588
2690.58478,0.02575
2688.52461,0.02562
2686.46444,0.02552
2684.40427,0.02545
2682.34410,0.02527
2680.28392,0.02505
2678.22375,0.02496
2676.16358,0.02495
2674.10341,0.02499
2672.04324,0.02501
2669.98306,0.02482
2667.92289,0.02457
2665.86272,0.02452
2663.80255,0.02457
2661.74238,0.02444
2659.68220,0.02410
2657.62203,0.02377
2655.56186,0.02363
2653.50169,0.02355
2651.44151,0.02333
2649.38134,0.02317
2647.32117,0.02322
2645.26100,0.02319
2643.20083,0.02296
2641.14065,0.02274
2639.08048,0.02257
2637.02031,0.02227
2634.96014,0.02201
2632.89997,0.02213
2630.83979,0.02237
2628.77962,0.02226
2626.71945,0.02166
2624.65928,0.02098
2622.59910,0.02066
2620.53893,0.02068
2618.47876,0.02096
2616.41859,0.02123
2614.35842,0.02116
2612.29824,0.02079
2610.23807,0.02042
2608.17790,0.02016
2606.11773,0.01986
2604.05756,0.01965
2601.99738,0.01980
2599.93721,0.02009
2597.87704,0.02017
2595.81687,0.02004
2593.75670,0.01993
2591.69652,0.01988
2589.63635,0.01965
2587.57618,0.01925
2585.51601,0.01892
2583.45583,0.01877
2581.39566,0.01884
2579.33549,0.01912
2577.27532,0.01935
2575.21515,0.01943
2573.15497,0.01932
2571.09480,0.01889
2569.03463,0.01837
2566.97446,0.01821
2564.91429,0.01823
2562.85411,0.01804
2560.79394,0.01764
2558.73377,0.01720
2556.67360,0.01699
2554.61342,0.01717
2552.55325,0.01726
2550.49308,0.01697
2548.43291,0.01688
2546.37274,0.01711
2544.31256,0.01717
2542.25239,0.01689
2540.19222,0.01670
2538.13205,0.01668
2536.07188,0.01645
2534.01170,0.01619
2531.95153,0.01616
2529.89136,0.01617
2527.83119,0.01598
2525.77102,0.01599
2523.71084,0.01612
2521.65067,0.01578
2519.59050,0.01540
2517.53033,0.01550
2515.47015,0.01571
2513.40998,0.01561
2511.34981,0.01534
2509.28964,0.01538
2507.22947,0.01553
2505.16929,0.01535
2503.10912,0.01527
2501.04895,0.01549
2498.98878,0.01539
2496.92861,0.01493
2494.86843,0.01466
2492.80826,0.01460
2490.74809,0.01446
2488.68792,0.01439
2486.62775,0.01447
2484.56757,0.01449
2482.50740,0.01455
2480.44723,0.01460
2478.38706,0.01441
2476.32688,0.01420
2474.26671,0.01423
2472.20654,0.01428
2470.14637,0.01408
2468.08620,0.01383
2466.02602,0.01374
2463.96585,0.01359
2461.90568,0.01351
2459.84551,0.01367
2457.78534,0.01387
2455.72516,0.01390
2453.66499,0.01360
2451.60482,0.01322
2449.54465,0.01332
2447.48447,0.01371
2445.42430,0.01376
2443.36413,0.01340
2441.30396,0.01316
2439.24379,0.01307
2437.18361,0.01300
2435.12344,0.01297
2433.06327,0.01274
2431.00310,0.01241
2428.94293,0.01220
2426.88275,0.01221
2424.82258,0.01241
2422.76241,0.01239
2420.70224,0.01219
2418.64207,0.01213
2416.58189,0.01208
2414.52172,0.01195
2412.46155,0.01170
2410.40138,0.01154
2408.34120,0.01163
2406.28103,0.01163
2404.22086,0.01158
2402.16069,0.01157
2400.10052,0.01157
2398.04034,0.01148
2395.98017,0.01134
2393.92000,0.01135
2391.85983,0.01145
2389.79966,0.01142
2387.73948,0.01137
2385.67931,0.01141
2383.61914,0.01149
2381.55897,0.01154
2379.49880,0.01143
2377.43862,0.01108
2375.37845,0.01078
2373.31828,0.01032
2371.25811,0.00968
2369.19793,0.00955
2367.13776,0.00917
2365.07759,0.00787
2363.01742,0.00762
2360.95725,0.00818
2358.89707,0.00837
2356.83690,0.00807
2354.77673,0.00841
2352.71656,0.00965
2350.65639,0.01037
2348.59621,0.01087
2346.53604,0.01235
2344.47587,0.01243
2342.41570,0.01204
2340.35552,0.01196
2338.29535,0.01185
2336.23518,0.01153
2334.17501,0.01100
2332.11484,0.01073
2330.05466,0.01078
2327.99449,0.01130
2325.93432,0.01160
2323.87415,0.01144
2321.81398,0.01080
2319.75380,0.01049
2317.69363,0.01031
2315.63346,0.01022
2313.57329,0.01022
2311.51312,0.01036
2309.45294,0.01053
2307.39277,0.01045
2305.33260,0.01018
2303.27243,0.00983
2301.21225,0.00947
2299.15208,0.00917
2297.09191,0.00929
2295.03174,0.00960
2292.97157,0.00968
2290.91139,0.00960
2288.85122,0.00956
2286.79105,0.00973
2284.73088,0.00996
2282.67071,0.00966
2280.61053,0.00885
2278.55036,0.00839
2276.49019,0.00855
2274.43002,0.00878
2272.36984,0.00878
2270.30967,0.00871
2268.24950,0.00881
2266.18933,0.00907
2264.12916,0.00920
2262.06898,0.00876
2260.00881,0.00803
2257.94864,0.00782
2255.88847,0.00809
2253.82830,0.00784
2251.76812,0.00704
2249.70795,0.00693
2247.64778,0.00752
2245.58761,0.00753
2243.52744,0.00740
2241.46726,0.00774
2239.40709,0.00799
2237.34692,0.00742
2235.28675,0.00636
2233.22657,0.00618
2231.16640,0.00685
2229.10623,0.00729
2227.04606,0.00715
2224.98589,0.00677
2222.92571,0.00657
2220.86554,0.00622
2218.80537,0.00590
2216.74520,0.00631
2214.68503,0.00674
2212.62485,0.00623
2210.56468,0.00576
2208.50451,0.00607
2206.44434,0.00599
2204.38417,0.00549
2202.32399,0.00541
2200.26382,0.00560
2198.20365,0.00583
2196.14348,0.00573
2194.08330,0.00526
2192.02313,0.00496
2189.96296,0.00490
2187.90279,0.00501
2185.84262,0.00489
2183.78244,0.00459
2181.72227,0.00600
2179.66210,0.00854
2177.60193,0.00928
2175.54176,0.00809
2173.48158,0.00594
2171.42141,0.00397
2169.36124,0.00398
2167.30107,0.00606
2165.24089,0.00770
2163.18072,0.00758
2161.12055,0.00646
2159.06038,0.00457
2157.00021,0.00324
2154.94003,0.00337
2152.87986,0.00359
2150.81969,0.00355
2148.75952,0.00421
2146.69935,0.00458
2144.63917,0.00375
2142.57900,0.00312
2140.51883,0.00342
2138.45866,0.00406
2136.39849,0.00410
2134.33831,0.00347
2132.27814,0.00315
2130.21797,0.00388
2128.15780,0.00504
2126.09762,0.00560
2124.03745,0.00586
2121.97728,0.00597
2119.91711,0.00604
2117.85694,0.00639
2115.79676,0.00661
2113.73659,0.00656
2111.67642,0.00661
2109.61625,0.00701
2107.55608,0.00753
2105.49590,0.00746
2103.43573,0.00658
2101.37556,0.00557
2099.31539,0.00519
2097.25521,0.00540
2095.19504,0.00569
2093.13487,0.00604
2091.07470,0.00647
2089.01453,0.00670
2086.95435,0.00692
2084.89418,0.00724
2082.83401,0.00681
2080.77384,0.00552
2078.71367,0.00482
2076.65349,0.00526
2074.59332,0.00576
2072.53315,0.00587
2070.47298,0.00580
2068.41281,0.00573
2066.35263,0.00565
2064.29246,0.00551
2062.23229,0.00551
2060.17212,0.00580
2058.11194,0.00635
2056.05177,0.00722
2053.99160,0.00787
2051.93143,0.00703
2049.87126,0.00463
2047.81108,0.00270
2045.75091,0.00264
2043.69074,0.00340
2041.63057,0.00394
2039.57040,0.00443
2037.51022,0.00455
2035.45005,0.00399
2033.38988,0.00306
2031.32971,0.00197
2029.26954,0.00114
2027.20936,0.00095
2025.14919,0.00134
2023.08902,0.00170
2021.02885,0.00180
2018.96867,0.00103
2016.90850,0.00000
2014.84833,0.00132
2012.78816,0.00404
2010.72799,0.00513
2008.66781,0.00429
2006.60764,0.00263
2004.54747,0.00139
2002.48730,0.00123
2000.42713,0.00183
1998.36695,0.00215
1996.30678,0.00175
1994.24661,0.00150
1992.18644,0.00207
1990.12626,0.00316
1988.06609,0.00381
1986.00592,0.00392
1983.94575,0.00444
1981.88558,0.00467
1979.82540,0.00342
1977.76523,0.00176
1975.70506,0.00190
1973.64489,0.00291
1971.58472,0.00254
1969.52454,0.00166
1967.46437,0.00141
1965.40420,0.00160
1963.34403,0.00159
1961.28386,0.00108
1959.22368,0.00128
1957.16351,0.00277
1955.10334,0.00403
1953.04317,0.00397
1950.98299,0.00362
1948.92282,0.00391
1946.86265,0.00409
1944.80248,0.00335
1942.74231,0.00200
1940.68213,0.00136
1938.62196,0.00201
1936.56179,0.00274
1934.50162,0.00277
1932.44145,0.00261
1930.38127,0.00252
1928.32110,0.00259
1926.26093,0.00286
1924.20076,0.00295
1922.14059,0.00282
1920.08041,0.00276
1918.02024,0.00268
1915.96007,0.00237
1913.89990,0.00200
1911.83972,0.00179
1909.77955,0.00200
1907.71938,0.00264
1905.65921,0.00309
1903.59904,0.00277
1901.53886,0.00194
1899.47869,0.00143
1897.41852,0.00162
1895.35835,0.00210
1893.29818,0.00226
1891.23800,0.00214
1889.17783,0.00210
1887.11766,0.00183
1885.05749,0.00128
1882.99731,0.00105
1880.93714,0.00128
1878.87697,0.00157
1876.81680,0.00165
1874.75663,0.00143
1872.69645,0.00131
1870.63628,0.00165
1868.57611,0.00211
1866.51594,0.00215
1864.45577,0.00168
1862.39559,0.00114
1860.33542,0.00101
1858.27525,0.00125
1856.21508,0.00145
1854.15491,0.00139
1852.09473,0.00121
1850.03456,0.00109
1847.97439,0.00098
1845.91422,0.00064
1843.85404,0.00017
1841.79387,0.00020
1839.73370,0.00067
1837.67353,0.00091
1835.61336,0.00069
1833.55318,0.00032
1831.49301,0.00010
1829.43284,0.00000
1827.37267,-0.00006
1825.31250,0.00007
1823.25232,0.00023
1821.19215,0.00020
1819.13198,0.00014
1817.07181,0.00012
1815.01163,-0.00006
1812.95146,-0.00027
1810.89129,-0.00017
1808.83112,0.00008
1806.77095,0.00013
1804.71077,0.00002
1802.65060,0.00005
1800.59043,0.00018
1798.53026,0.00006
1796.47009,-0.00032
1794.40991,-0.00056
1792.34974,-0.00038
1790.28957,-0.00001
1788.22940,0.00013
1786.16923,0.00007
1784.10905,-0.00002
1782.04888,0.00000
1779.98871,0.00006
1777.92854,0.00009
1775.86836,-0.00007
1773.80819,-0.00035
1771.74802,-0.00045
1769.68785,-0.00018
1767.62768,0.00029
1765.56750,0.00071
1763.50733,0.00110
1761.44716,0.00171
1759.38699,0.00255
1757.32682,0.00355
1755.26664,0.00474
1753.20647,0.00605
1751.14630,0.00768
1749.08613,0.00989
1747.02596,0.01260
1744.96578,0.01583
1742.90561,0.01972
1740.84544,0.02422
1738.78527,0.02875
1736.72509,0.03255
1734.66492,0.03635
1732.60475,0.04015
1730.54458,0.04205
1728.48441,0.04218
1726.42423,0.04166
1724.36406,0.04100
1722.30389,0.04039
1720.24372,0.03979
1718.18355,0.03914
1716.12337,0.03868
1714.06320,0.03855
1712.00303,0.03848
1709.94286,0.03825
1707.88268,0.03775
1705.82251,0.03693
1703.76234,0.03600
1701.70217,0.03507
1699.64200,0.03416
1697.58182,0.03345
1695.52165,0.03292
1693.46148,0.03257
1691.40131,0.03250
1689.34114,0.03262
1687.28096,0.03264
1685.22079,0.03240
1683.16062,0.03223
1681.10045,0.03237
1679.04028,0.03247
1676.98010,0.03239
1674.91993,0.03246
1672.85976,0.03296
1670.79959,0.03385
1668.73941,0.03512
1666.67924,0.03651
1664.61907,0.03785
1662.55890,0.03947
1660.49873,0.04132
1658.43855,0.04290
1656.37838,0.04401
1654.31821,0.04505
1652.25804,0.04650
1650.19787,0.04766
1648.13769,0.04823
1646.07752,0.04870
1644.01735,0.04922
1641.95718,0.04963
1639.89701,0.04978
1637.83683,0.04970
1635.77666,0.04994
1633.71649,0.05089
1631.65632,0.05193
1629.59614,0.05272
1627.53597,0.05345
1625.47580,0.05410
1623.41563,0.05461
1621.35546,0.05514
1619.29528,0.05583
1617.23511,0.05674
1615.17494,0.05777
1613.11477,0.05863
1611.05460,0.05931
1608.99442,0.05988
1606.93425,0.06032
1604.87408,0.06046
1602.81391,0.06008
1600.75373,0.05914
1598.69356,0.05778
1596.63339,0.05613
1594.57322,0.05427
1592.51305,0.05229
1590.45287,0.05025
1588.39270,0.04813
1586.33253,0.04595
1584.27236,0.04371
1582.21219,0.04159
1580.15201,0.03973
1578.09184,0.03791
1576.03167,0.03588
1573.97150,0.03399
1571.91133,0.03244
1569.85115,0.03096
1567.79098,0.02972
1565.73081,0.02880
1563.67064,0.02811
1561.61046,0.02757
1559.55029,0.02705
1557.49012,0.02667
1555.42995,0.02676
1553.36978,0.02718
1551.30960,0.02762
1549.24943,0.02784
1547.18926,0.02777
1545.12909,0.02738
1543.06892,0.02681
1541.00874,0.02642
1538.94857,0.02642
1536.88840,0.02659
1534.82823,0.02640
1532.76805,0.02566
1530.70788,0.02475
1528.64771,0.02385
1526.58754,0.02287
1524.52737,0.02192
1522.46719,0.02132
1520.40702,0.02141
1518.34685,0.02199
1516.28668,0.02245
1514.22651,0.02235
1512.16633,0.02168
1510.10616,0.02045
1508.04599,0.01835
1505.98582,0.01593
1503.92565,0.01470
1501.86547,0.01411
1499.80530,0.01313
1497.74513,0.01161
1495.68496,0.01005
1493.62478,0.00886
1491.56461,0.00769
1489.50444,0.00629
1487.44427,0.00524
1485.38410,0.00481
1483.32392,0.00476
1481.26375,0.00500
1479.20358,0.00565
1477.14341,0.00687
1475.08324,0.00901
1473.02306,0.01246
1470.96289,0.01643
1468.90272,0.01962
1466.84255,0.02233
1464.78238,0.02511
1462.72220,0.02725
1460.66203,0.02828
1458.60186,0.02915
1456.54169,0.03109
1454.48151,0.03346
1452.42134,0.03523
1450.36117,0.03642
1448.30100,0.03733
1446.24083,0.03818
1444.18065,0.03897
1442.12048,0.03936
1440.06031,0.03899
1438.00014,0.03773
1435.93997,0.03603
1433.87979,0.03456
1431.81962,0.03329
1429.75945,0.03207
1427.69928,0.03109
1425.63910,0.03041
1423.57893,0.02985
1421.51876,0.02934
1419.45859,0.02908
1417.39842,0.02923
1415.33824,0.02943
1413.27807,0.02935
1411.21790,0.02901
1409.15773,0.02853
1407.09756,0.02811
1405.03738,0.02798
1402.97721,0.02808
1400.91704,0.02804
1398.85687,0.02779
1396.79670,0.02771
1394.73652,0.02807
1392.67635,0.02865
1390.61618,0.02914
1388.55601,0.02952
1386.49583,0.03005
1384.43566,0.03080
1382.37549,0.03168
1380.31532,0.03263
1378.25515,0.03362
1376.19497,0.03450
1374.13480,0.03527
1372.07463,0.03603
1370.01446,0.03675
1367.95429,0.03731
1365.89411,0.03754
1363.83394,0.03742
1361.77377,0.03732
1359.71360,0.03755
1357.65343,0.03784
1355.59325,0.03801
1353.53308,0.03818
1351.47291,0.03844
1349.41274,0.03877
1347.35256,0.03912
1345.29239,0.03945
1343.23222,0.03975
1341.17205,0.04010
1339.11188,0.04064
1337.05170,0.04136
1334.99153,0.04202
1332.93136,0.04259
1330.87119,0.04322
1328.81102,0.04381
1326.75084,0.04434
1324.69067,0.04502
1322.63050,0.04587
1320.57033,0.04650
1318.51015,0.04665
1316.44998,0.04652
1314.38981,0.04627
1312.32964,0.04583
1310.26947,0.04503
1308.20929,0.04375
1306.14912,0.04201
1304.08895,0.04000
1302.02878,0.03793
1299.96861,0.03590
1297.90843,0.03383
1295.84826,0.03170
1293.78809,0.02971
1291.72792,0.02813
1289.66775,0.02706
1287.60757,0.02642
1285.54740,0.02596
1283.48723,0.02559
1281.42706,0.02544
1279.36688,0.02547
1277.30671,0.02550
1275.24654,0.02566
1273.18637,0.02604
1271.12620,0.02654
1269.06602,0.02714
1267.00585,0.02777
1264.94568,0.02831
1262.88551,0.02897
1260.82534,0.02986
1258.76516,0.03069
1256.70499,0.03137
1254.64482,0.03213
1252.58465,0.03301
1250.52447,0.03381
1248.46430,0.03445
1246.40413,0.03508
1244.34396,0.03595
1242.28379,0.03690
1240.22361,0.03766
1238.16344,0.03836
1236.10327,0.03914
1234.04310,0.03997
1231.98293,0.04089
1229.92275,0.04188
1227.86258,0.04288
1225.80241,0.04377
1223.74224,0.04456
1221.68207,0.04538
1219.62189,0.04615
1217.56172,0.04683
1215.50155,0.04746
1213.44138,0.04805
1211.38120,0.04873
1209.32103,0.04958
1207.26086,0.05040
1205.20069,0.05109
1203.14052,0.05197
1201.08034,0.05305
1199.02017,0.05384
1196.96000,0.05423
1194.89983,0.05440
1192.83966,0.05427
1190.77948,0.05380
1188.71931,0.05326
1186.65914,0.05254
1184.59897,0.05155
1182.53880,0.05060
1180.47862,0.04979
1178.41845,0.04918
1176.35828,0.04902
1174.29811,0.04925
1172.23793,0.04951
1170.17776,0.04969
1168.11759,0.04995
1166.05742,0.05014
1163.99725,0.05005
1161.93707,0.04949
1159.87690,0.04846
1157.81673,0.04725
1155.75656,0.04620
1153.69639,0.04532
1151.63621,0.04453
1149.57604,0.04369
1147.51587,0.04277
1145.45570,0.04176
1143.39552,0.04053
1141.33535,0.03932
1139.27518,0.03837
1137.21501,0.03748
1135.15484,0.03673
1133.09466,0.03661
1131.03449,0.03710
1128.97432,0.03775
1126.91415,0.03853
1124.85398,0.03972
1122.79380,0.04131
1120.73363,0.04314
1118.67346,0.04539
1116.61329,0.04818
1114.55312,0.05132
1112.49294,0.05467
1110.43277,0.05816
1108.37260,0.06166
1106.31243,0.06512
1104.25225,0.06821
1102.19208,0.07056
1100.13191,0.07233
1098.07174,0.07411
1096.01157,0.07593
1093.95139,0.07736
1091.89122,0.07860
1089.83105,0.08026
1087.77088,0.08240
1085.71071,0.08497
1083.65053,0.08778
1081.59036,0.09040
1079.53019,0.09289
1077.47002,0.09544
1075.40985,0.09795
1073.34967,0.10017
1071.28950,0.10207
1069.22933,0.10389
1067.16916,0.10565
1065.10898,0.10735
1063.04881,0.10917
1060.98864,0.11102
1058.92847,0.11280
1056.86830,0.11467
1054.80812,0.11664
1052.74795,0.11857
1050.68778,0.12053
1048.62761,0.12265
1046.56744,0.12477
1044.50726,0.12665
1042.44709,0.12852
1040.38692,0.13098
1038.32675,0.13398
1036.26657,0.13685
1034.20640,0.13954
1032.14623,0.14198
1030.08606,0.14376
1028.02589,0.14510
1025.96571,0.14626
1023.90554,0.14706
1021.84537,0.14752
1019.78520,0.14769
1017.72503,0.14746
1015.66485,0.14668
1013.60468,0.14552
1011.54451,0.14404
1009.48434,0.14228
1007.42417,0.14026
1005.36399,0.13754
1003.30382,0.13406
1001.24365,0.13026
999.18348,0.12640
997.12330,0.12263
995.06313,0.11918
993.00296,0.11601
990.94279,0.11272
988.88262,0.10924
986.82244,0.10580
984.76227,0.10202
982.70210,0.09771
980.64193,0.09338
978.58176,0.08940
976.52158,0.08561
974.46141,0.08182
972.40124,0.07819
970.34107,0.07508
968.28089,0.07237
966.22072,0.06988
964.16055,0.06762
962.10038,0.06533
960.04021,0.06271
957.98003,0.05991
955.91986,0.05716
953.85969,0.05444
951.79952,0.05160
949.73935,0.04858
947.67917,0.04549
945.61900,0.04256
943.55883,0.04011
941.49866,0.03837
939.43849,0.03703
937.37831,0.03576
935.31814,0.03462
933.25797,0.03359
931.19780,0.03264
929.13762,0.03187
927.07745,0.03122
925.01728,0.03042
922.95711,0.02934
920.89694,0.02806
918.83676,0.02652
916.77659,0.02467
914.71642,0.02261
912.65625,0.02066
910.59608,0.01932
908.53590,0.01848
906.47573,0.01754
904.41556,0.01631
902.35539,0.01505
900.29522,0.01426
898.23504,0.01416
896.17487,0.01431
894.11470,0.01393
892.05453,0.01292
889.99435,0.01192
887.93418,0.01125
885.87401,0.01079
883.81384,0.01057
881.75367,0.01070
879.69349,0.01095
877.63332,0.01119
875.57315,0.01173
873.51298,0.01239
871.45281,0.01266
869.39263,0.01219
867.33246,0.01106
865.27229,0.00989
863.21212,0.00879
861.15194,0.00731
859.09177,0.00565
857.03160,0.00411
854.97143,0.00258
852.91126,0.00118
850.85108,0.00031
848.79091,0.00000
846.73074,-0.00016
844.67057,-0.00015
842.61040,-0.00002
840.55022,0.00030
838.49005,0.00090
836.42988,0.00154
834.36971,0.00188
832.30954,0.00193
830.24936,0.00241
828.18919,0.00332
826.12902,0.00372
824.06885,0.00381
822.00867,0.00425
819.94850,0.00466
817.88833,0.00469
815.82816,0.00469
813.76799,0.00492
811.70781,0.00485
809.64764,0.00395
807.58747,0.00282
805.52730,0.00216
803.46713,0.00170
801.40695,0.00114
799.34678,0.00045
797.28661,0.00000
795.22644,-0.00047
793.16627,-0.00048
791.10609,0.00008
789.04592,0.00116
786.98575,0.00197
784.92558,0.00195
782.86540,0.00223
780.80523,0.00348
778.74506,0.00462
776.68489,0.00493
774.62472,0.00426
772.56454,0.00356
770.50437,0.00455
768.44420,0.00642
766.38403,0.00763
764.32386,0.00922
762.26368,0.01186
760.20351,0.01398
758.14334,0.01485
756.08317,0.01548
754.02299,0.01552
751.96282,0.01422
749.90265,0.01256
747.84248,0.01098
745.78231,0.00927
743.72213,0.00780
741.66196,0.00678
739.60179,0.00632
737.54162,0.00593
735.48145,0.00473
733.42127,0.00386
731.36110,0.00419
729.30093,0.00440
727.24076,0.00410
725.18059,0.00375
723.12041,0.00393
721.06024,0.00481
719.00007,0.00508
716.93990,0.00452
714.87972,0.00366
712.81955,0.00297
710.75938,0.00292
708.69921,0.00319
706.63904,0.00296
704.57886,0.00218
702.51869,0.00168
700.45852,0.00172
698.39835,0.00141
696.33818,0.00049
694.27800,-0.00008
692.21783,0.00004
690.15766,-0.00004
688.09749,-0.00093
686.03731,-0.00187
683.97714,-0.00212
681.91697,-0.00191
679.85680,-0.00177
677.79663,-0.00225
675.73645,-0.00320
673.67628,-0.00375
671.61611,-0.00298
669.55594,0.00123
667.49577,0.00473
665.43559,0.00193
663.37542,0.00134
661.31525,0.00167
659.25508,0.00201
657.19491,0.00206
655.13473,0.00149
653.07456,0.00080
651.01439,0.00030
648.95422,0.00000
646.89404,-0.00008
644.83387,-0.00019
642.77370,-0.00132
640.71353,-0.00201
638.65336,-0.00036
636.59318,0.00169
634.53301,0.00131
632.47284,-0.00030
630.41267,-0.00006
628.35250,0.00170
626.29232,0.00156
624.23215,-0.00101
622.17198,-0.00264
620.11181,-0.00219
618.05164,-0.00117
615.99146,0.00032
613.93129,0.00295
611.87112,0.00550
609.81095,0.00633
607.75077,0.00443
605.69060,0.00109
603.63043,-0.00018
601.57026,0.00066
599.51009,0.00000
