3996.73391,0.00043
3994.67373,0.00056
3992.61356,0.00054
3990.55339,0.00029
3988.49322,0.00000
3986.43305,0.00007
3984.37287,0.00051
3982.31270,0.00090
3980.25253,0.00089
3978.19236,0.00072
3976.13219,0.00082
3974.07201,0.00114
3972.01184,0.00136
3969.95167,0.00130
3967.89150,0.00104
3965.83133,0.00067
3963.77115,0.00038
3961.71098,0.00034
3959.65081,0.00058
3957.59064,0.00091
3955.53046,0.00096
3953.47029,0.00075
3951.41012,0.00067
3949.34995,0.00086
3947.28978,0.00115
3945.22960,0.00152
3943.16943,0.00180
3941.10926,0.00177
3939.04909,0.00156
3936.98892,0.00132
3934.92874,0.00104
3932.86857,0.00083
3930.80840,0.00077
3928.74823,0.00073
3926.68805,0.00059
3924.62788,0.00042
3922.56771,0.00052
3920.50754,0.00083
3918.44737,0.00090
3916.38719,0.00076
3914.32702,0.00074
3912.26685,0.00075
3910.20668,0.00070
3908.14651,0.00063
3906.08633,0.00046
3904.02616,0.00037
3901.96599,0.00049
3899.90582,0.00064
3897.84565,0.00079
3895.78547,0.00102
3893.72530,0.00120
3891.66513,0.00122
3889.60496,0.00108
3887.54478,0.00102
3885.48461,0.00119
3883.42444,0.00143
3881.36427,0.00158
3879.30410,0.00153
3877.24392,0.00117
3875.18375,0.00071
3873.12358,0.00059
3871.06341,0.00090
3869.00324,0.00111
3866.94306,0.00116
3864.88289,0.00143
3862.82272,0.00169
3860.76255,0.00147
3858.70237,0.00100
3856.64220,0.00048
3854.58203,0.00000
3852.52186,0.00023
3850.46169,0.00118
3848.40151,0.00174
3846.34134,0.00168
3844.28117,0.00139
3842.22100,0.00109
3840.16083,0.00077
3838.10065,0.00054
3836.04048,0.00069
3833.98031,0.00102
3831.92014,0.00122
3829.85997,0.00133
3827.79979,0.00129
3825.73962,0.00090
3823.67945,0.00034
3821.61928,0.00000
3819.55910,0.00004
3817.49893,0.00037
3815.43876,0.00085
3813.37859,0.00122
3811.31842,0.00136
3809.25824,0.00144
3807.19807,0.00145
3805.13790,0.00127
3803.07773,0.00106
3801.01756,0.00088
3798.95738,0.00057
3796.89721,0.00050
3794.83704,0.00093
3792.77687,0.00140
3790.71670,0.00149
3788.65652,0.00140
3786.59635,0.00149
3784.53618,0.00156
3782.47601,0.00123
3780.41583,0.00063
3778.35566,0.00030
3776.29549,0.00056
3774.23532,0.00114
3772.17515,0.00159
3770.11497,0.00156
3768.05480,0.00109
3765.99463,0.00062
3763.93446,0.00054
3761.87429,0.00078
3759.81411,0.00098
3757.75394,0.00104
3755.69377,0.00123
3753.63360,0.00136
3751.57342,0.00090
3749.51325,0.00015
3747.45308,0.00000
3745.39291,0.00064
3743.33274,0.00128
3741.27256,0.00133
3739.21239,0.00133
3737.15222,0.00145
3735.09205,0.00133
3733.03188,0.00088
3730.97170,0.00052
3728.91153,0.00029
3726.85136,0.00011
3724.79119,0.00016
3722.73102,0.00051
3720.67084,0.00089
3718.61067,0.00100
3716.55050,0.00102
3714.49033,0.00113
3712.43015,0.00136
3710.36998,0.00168
3708.30981,0.00160
3706.24964,0.00141
3704.18947,0.00139
3702.12929,0.00150
3700.06912,0.00147
3698.00895,0.00104
3695.94878,0.00056
3693.88861,0.00034
3691.82843,0.00037
3689.76826,0.00063
3687.70809,0.00115
3685.64792,0.00147
3683.58775,0.00139
3681.52757,0.00102
3679.46740,0.00087
3677.40723,0.00130
3675.34706,0.00195
3673.28688,0.00199
3671.22671,0.00147
3669.16654,0.00119
3667.10637,0.00156
3665.04620,0.00195
3662.98602,0.00190
3660.92585,0.00176
3658.86568,0.00198
3656.80551,0.00245
3654.74534,0.00292
3652.68516,0.00326
3650.62499,0.00325
3648.56482,0.00283
3646.50465,0.00274
3644.44447,0.00312
3642.38430,0.00337
3640.32413,0.00336
3638.26396,0.00354
3636.20379,0.00416
3634.14361,0.00481
3632.08344,0.00531
3630.02327,0.00567
3627.96310,0.00568
3625.90293,0.00542
3623.84275,0.00532
3621.78258,0.00539
3619.72241,0.00566
3617.66224,0.00614
3615.60207,0.00657
3613.54189,0.00710
3611.48172,0.00756
3609.42155,0.00776
3607.36138,0.00797
3605.30120,0.00831
3603.24103,0.00870
3601.18086,0.00915
3599.12069,0.00964
3597.06052,0.00977
3595.00034,0.00983
3592.94017,0.01036
3590.88000,0.01104
3588.81983,0.01121
3586.75966,0.01111
3584.69948,0.01126
3582.63931,0.01181
3580.57914,0.01259
3578.51897,0.01319
3576.45879,0.01347
3574.39862,0.01369
3572.33845,0.01413
3570.27828,0.01465
3568.21811,0.01514
3566.15793,0.01563
3564.09776,0.01601
3562.03759,0.01642
3559.97742,0.01696
3557.91725,0.01749
3555.85707,0.01795
3553.79690,0.01844
3551.73673,0.01882
3549.67656,0.01917
3547.61639,0.01965
3545.55621,0.02010
3543.49604,0.02057
3541.43587,0.02124
3539.37570,0.02193
3537.31552,0.02244
3535.25535,0.02285
3533.19518,0.02324
3531.13501,0.02351
3529.07484,0.02369
3527.01466,0.02402
3524.95449,0.02473
3522.89432,0.02568
3520.83415,0.02649
3518.77398,0.02692
3516.71380,0.02714
3514.65363,0.02748
3512.59346,0.02786
3510.53329,0.02809
3508.47312,0.02843
3506.41294,0.02906
3504.35277,0.02970
3502.29260,0.03021
3500.23243,0.03083
3498.17225,0.03139
3496.11208,0.03158
3494.05191,0.03163
3491.99174,0.03205
3489.93157,0.03300
3487.87139,0.03400
3485.81122,0.03445
3483.75105,0.03432
3481.69088,0.03414
3479.63071,0.03450
3477.57053,0.03534
3475.51036,0.03616
3473.45019,0.03666
3471.39002,0.03712
3469.32984,0.03771
3467.26967,0.03821
3465.20950,0.03865
3463.14933,0.03915
3461.08916,0.03967
3459.02898,0.04006
3456.96881,0.04029
3454.90864,0.04062
3452.84847,0.04112
3450.78830,0.04169
3448.72812,0.04216
3446.66795,0.04253
3444.60778,0.04304
3442.54761,0.04356
3440.48744,0.04390
3438.42726,0.04422
3436.36709,0.04464
3434.30692,0.04508
3432.24675,0.04554
3430.18657,0.04604
3428.12640,0.04653
3426.06623,0.04699
3424.00606,0.04737
3421.94589,0.04775
3419.88571,0.04819
3417.82554,0.04856
3415.76537,0.04884
3413.70520,0.04925
3411.64503,0.04991
3409.58485,0.05037
3407.52468,0.05057
3405.46451,0.05110
3403.40434,0.05173
3401.34416,0.05194
3399.28399,0.05205
3397.22382,0.05237
3395.16365,0.05279
3393.10348,0.05327
3391.04330,0.05364
3388.98313,0.05368
3386.92296,0.05366
3384.86279,0.05377
3382.80262,0.05394
3380.74244,0.05416
3378.68227,0.05450
3376.62210,0.05492
3374.56193,0.05545
3372.50176,0.05600
3370.44158,0.05638
3368.38141,0.05671
3366.32124,0.05698
3364.26107,0.05711
3362.20089,0.05720
3360.14072,0.05739
3358.08055,0.05775
3356.02038,0.05822
3353.96021,0.05855
3351.90003,0.05876
3349.83986,0.05899
3347.77969,0.05910
3345.71952,0.05908
3343.65935,0.05909
3341.59917,0.05920
3339.53900,0.05941
3337.47883,0.05952
3335.41866,0.05937
3333.35849,0.05935
3331.29831,0.05975
3329.23814,0.06032
3327.17797,0.06073
3325.11780,0.06091
3323.05762,0.06090
3320.99745,0.06094
3318.93728,0.06118
3316.87711,0.06138
3314.81694,0.06143
3312.75676,0.06142
3310.69659,0.06127
3308.63642,0.06120
3306.57625,0.06147
3304.51608,0.06185
3302.45590,0.06196
3300.39573,0.06179
3298.33556,0.06169
3296.27539,0.06182
3294.21521,0.06209
3292.15504,0.06243
3290.09487,0.06269
3288.03470,0.06266
3285.97453,0.06250
3283.91435,0.06245
3281.85418,0.06241
3279.79401,0.06236
3277.73384,0.06248
3275.67367,0.06256
3273.61349,0.06234
3271.55332,0.06194
3269.49315,0.06170
3267.43298,0.06168
3265.37281,0.06176
3263.31263,0.06187
3261.25246,0.06176
3259.19229,0.06150
3257.13212,0.06131
3255.07194,0.06122
3253.01177,0.06124
3250.95160,0.06133
3248.89143,0.06128
3246.83126,0.06101
3244.77108,0.06085
3242.71091,0.06091
3240.65074,0.06098
3238.59057,0.06104
3236.53040,0.06102
3234.47022,0.06075
3232.41005,0.06027
3230.34988,0.05979
3228.28971,0.05964
3226.22954,0.05966
3224.16936,0.05956
3222.10919,0.05937
3220.04902,0.05909
3217.98885,0.05885
3215.92867,0.05873
3213.86850,0.05845
3211.80833,0.05820
3209.74816,0.05828
3207.68799,0.05838
3205.62781,0.05817
3203.56764,0.05775
3201.50747,0.05738
3199.44730,0.05711
3197.38713,0.05690
3195.32695,0.05687
3193.26678,0.05704
3191.20661,0.05686
3189.14644,0.05612
3187.08626,0.05558
3185.02609,0.05555
3182.96592,0.05558
3180.90575,0.05559
3178.84558,0.05554
3176.78540,0.05518
3174.72523,0.05467
3172.66506,0.05441
3170.60489,0.05427
3168.54472,0.05399
3166.48454,0.05366
3164.42437,0.05335
3162.36420,0.05304
3160.30403,0.05275
3158.24386,0.05253
3156.18368,0.05231
3154.12351,0.05193
3152.06334,0.05144
3150.00317,0.05105
3147.94299,0.05082
3145.88282,0.05065
3143.82265,0.05042
3141.76248,0.05018
3139.70231,0.05002
3137.64213,0.04969
3135.58196,0.04911
3133.52179,0.04858
3131.46162,0.04832
3129.40145,0.04824
3127.34127,0.04816
3125.28110,0.04794
3123.22093,0.04760
3121.16076,0.04734
3119.10058,0.04712
3117.04041,0.04672
3114.98024,0.04624
3112.92007,0.04600
3110.85990,0.04601
3108.79972,0.04592
3106.73955,0.04564
3104.67938,0.04542
3102.61921,0.04521
3100.55904,0.04471
3098.49886,0.04407
3096.43869,0.04369
3094.37852,0.04354
3092.31835,0.04333
3090.25818,0.04314
3088.19800,0.04305
3086.13783,0.04295
3084.07766,0.04285
3082.01749,0.04259
3079.95731,0.04211
3077.89714,0.04168
3075.83697,0.04143
3073.77680,0.04120
3071.71663,0.04102
3069.65645,0.04104
3067.59628,0.04093
3065.53611,0.04040
3063.47594,0.03991
3061.41577,0.03984
3059.35559,0.03986
3057.29542,0.03961
3055.23525,0.03908
3053.17508,0.03855
3051.11491,0.03828
3049.05473,0.03801
3046.99456,0.03759
3044.93439,0.03733
3042.87422,0.03714
3040.81404,0.03671
3038.75387,0.03626
3036.69370,0.03615
3034.63353,0.03616
3032.57336,0.03600
3030.51318,0.03578
3028.45301,0.03541
3026.39284,0.03493
3024.33267,0.03465
3022.27250,0.03433
3020.21232,0.03390
3018.15215,0.03367
3016.09198,0.03350
3014.03181,0.03341
3011.97163,0.03348
3009.91146,0.03346
3007.85129,0.03326
3005.79112,0.03312
3003.73095,0.03298
3001.67077,0.03256
2999.61060,0.03209
2997.55043,0.03196
2995.49026,0.03185
2993.43009,0.03163
2991.36991,0.03166
2989.30974,0.03188
2987.24957,0.03205
2985.18940,0.03218
2983.12923,0.03229
2981.06905,0.03248
2979.00888,0.03293
2976.94871,0.03357
2974.88854,0.03429
2972.82836,0.03494
2970.76819,0.03554
2968.70802,0.03650
2966.64785,0.03777
2964.58768,0.03880
2962.52750,0.03976
2960.46733,0.04106
2958.40716,0.04247
2956.34699,0.04370
2954.28682,0.04484
2952.22664,0.04605
2950.16647,0.04737
2948.10630,0.04886
2946.04613,0.05061
2943.98596,0.05246
2941.92578,0.05446
2939.86561,0.05671
2937.80544,0.05902
2935.74527,0.06157
2933.68509,0.06455
2931.62492,0.06750
2929.56475,0.06987
2927.50458,0.07196
2925.44441,0.07410
2923.38423,0.07621
2921.32406,0.07842
2919.26389,0.08043
2917.20372,0.08105
2915.14355,0.07905
2913.08337,0.07470
2911.02320,0.06977
2908.96303,0.06560
2906.90286,0.06252
2904.84268,0.06032
2902.78251,0.05855
2900.72234,0.05691
2898.66217,0.05544
2896.60200,0.05414
2894.54182,0.05290
2892.48165,0.05178
2890.42148,0.05072
2888.36131,0.04970
2886.30114,0.04870
2884.24096,0.04767
2882.18079,0.04686
2880.12062,0.04624
2878.06045,0.04561
2876.00028,0.04523
2873.94010,0.04528
2871.87993,0.04553
2869.81976,0.04592
2867.75959,0.04640
2865.69941,0.04713
2863.63924,0.04858
2861.57907,0.05058
2859.51890,0.05275
2857.45873,0.05511
2855.39855,0.05771
2853.33838,0.06066
2851.27821,0.06338
2849.21804,0.06402
2847.15787,0.06094
2845.09769,0.05515
2843.03752,0.04943
2840.97735,0.04523
2838.91718,0.04227
2836.85700,0.04004
2834.79683,0.03837
2832.73666,0.03707
2830.67649,0.03588
2828.61632,0.03482
2826.55614,0.03415
2824.49597,0.03370
2822.43580,0.03319
2820.37563,0.03274
2818.31546,0.03243
2816.25528,0.03203
2814.19511,0.03138
2812.13494,0.03066
2810.07477,0.03018
2808.01460,0.02995
2805.95442,0.02986
2803.89425,0.02969
2801.83408,0.02941
2799.77391,0.02923
2797.71373,0.02899
2795.65356,0.02861
2793.59339,0.02830
2791.53322,0.02807
2789.47305,0.02785
2787.41287,0.02767
2785.35270,0.02745
2783.29253,0.02709
2781.23236,0.02679
2779.17219,0.02672
2777.11201,0.02667
2775.05184,0.02665
2772.99167,0.02664
2770.93150,0.02625
2768.87133,0.02576
2766.81115,0.02566
2764.75098,0.02568
2762.69081,0.02553
2760.63064,0.02540
2758.57046,0.02558
2756.51029,0.02580
2754.45012,0.02574
2752.38995,0.02563
2750.32978,0.02562
2748.26960,0.02554
2746.20943,0.02535
2744.14926,0.02511
2742.08909,0.02480
2740.02892,0.02457
2737.96874,0.02456
2735.90857,0.02456
2733.84840,0.02444
2731.78823,0.02433
2729.72805,0.02430
2727.66788,0.02436
2725.60771,0.02441
2723.54754,0.02425
2721.48737,0.02399
2719.42719,0.02374
2717.36702,0.02357
2715.30685,0.02352
2713.24668,0.02352
2711.18651,0.02353
2709.12633,0.02354
2707.06616,0.02343
2705.00599,0.02325
2702.94582,0.02311
2700.88565,0.02307
2698.82547,0.02310
2696.76530,0.02313
2694.70513,0.02311
2692.64496,0.02300
2690.58478,0.02299
2688.52461,0.02317
2686.46444,0.02315
2684.40427,0.02283
2682.34410,0.02244
2680.28392,0.02201
2678.22375,0.02178
2676.16358,0.02191
2674.10341,0.02210
2672.04324,0.02201
2669.98306,0.02173
2667.92289,0.02156
2665.86272,0.02160
2663.80255,0.02166
2661.74238,0.02167
2659.68220,0.02168
2657.62203,0.02157
2655.56186,0.02130
2653.50169,0.02101
2651.44151,0.02075
2649.38134,0.02055
2647.32117,0.02056
2645.26100,0.02064
2643.20083,0.02057
2641.14065,0.02030
2639.08048,0.01998
2637.02031,0.01957
2634.96014,0.01920
2632.89997,0.01922
2630.83979,0.01947
2628.77962,0.01951
2626.71945,0.01920
2624.65928,0.01879
2622.59910,0.01866
2620.53893,0.01880
2618.47876,0.01901
2616.41859,0.01914
2614.35842,0.01905
2612.29824,0.01875
2610.23807,0.01851
2608.17790,0.01833
2606.11773,0.01790
2604.05756,0.01737
2601.99738,0.01726
2599.93721,0.01754
2597.87704,0.01770
2595.81687,0.01755
2593.75670,0.01735
2591.69652,0.01720
2589.63635,0.01701
2587.57618,0.01684
2585.51601,0.01681
2583.45583,0.01687
2581.39566,0.01683
2579.33549,0.01660
2577.27532,0.01624
2575.21515,0.01619
2573.15497,0.01657
2571.09480,0.01678
2569.03463,0.01658
2566.97446,0.01618
2564.91429,0.01598
2562.85411,0.01617
2560.79394,0.01626
2558.73377,0.01588
2556.67360,0.01550
2554.61342,0.01551
2552.55325,0.01524
2550.49308,0.01445
2548.43291,0.01400
2546.37274,0.01440
2544.31256,0.01512
2542.25239,0.01524
2540.19222,0.01485
2538.13205,0.01466
2536.07188,0.01465
2534.01170,0.01467
2531.95153,0.01475
2529.89136,0.01489
2527.83119,0.01496
2525.77102,0.01484
2523.71084,0.01442
2521.65067,0.01367
2519.59050,0.01324
2517.53033,0.01365
2515.47015,0.01399
2513.40998,0.01376
2511.34981,0.01359
2509.28964,0.01379
2507.22947,0.01388
2505.16929,0.01357
2503.10912,0.01339
2501.04895,0.01354
2498.98878,0.01362
2496.92861,0.01351
2494.86843,0.01330
2492.80826,0.01310
2490.74809,0.01311
2488.68792,0.01320
2486.62775,0.01298
2484.56757,0.01276
2482.50740,0.01306
2480.44723,0.01334
2478.38706,0.01298
2476.32688,0.01255
2474.26671,0.01261
2472.20654,0.01279
2470.14637,0.01271
2468.08620,0.01256
2466.02602,0.01242
2463.96585,0.01214
2461.90568,0.01179
2459.84551,0.01176
2457.78534,0.01220
2455.72516,0.01251
2453.66499,0.01211
2451.60482,0.01145
2449.54465,0.01127
2447.48447,0.01151
2445.42430,0.01155
2443.36413,0.01126
2441.30396,0.01105
2439.24379,0.01091
2437.18361,0.01071
2435.12344,0.01060
2433.06327,0.01065
2431.00310,0.01066
2428.94293,0.01045
2426.88275,0.01046
2424.82258,0.01075
2422.76241,0.01072
2420.70224,0.01041
2418.64207,0.01014
2416.58189,0.01002
2414.52172,0.01006
2412.46155,0.01018
2410.40138,0.01031
2408.34120,0.01049
2406.28103,0.01053
2404.22086,0.01025
2402.16069,0.00985
2400.10052,0.00962
2398.04034,0.00966
2395.98017,0.00986
2393.92000,0.01020
2391.85983,0.01044
2389.79966,0.01035
2387.73948,0.01019
2385.67931,0.01031
2383.61914,0.01054
2381.55897,0.01072
2379.49880,0.01081
2377.43862,0.01091
2375.37845,0.01074
2373.31828,0.01083
2371.25811,0.01108
2369.19793,0.01043
2367.13776,0.01008
2365.07759,0.00977
2363.01742,0.00769
2360.95725,0.00826
2358.89707,0.00832
2356.83690,0.00797
2354.77673,0.00753
2352.71656,0.00804
2350.65639,0.01348
2348.59621,0.01562
2346.53604,0.00834
2344.47587,0.00696
2342.41570,0.00917
2340.35552,0.01022
2338.29535,0.01153
2336.23518,0.01202
2334.17501,0.01205
2332.11484,0.01175
2330.05466,0.01185
2327.99449,0.01167
2325.93432,0.01200
2323.87415,0.01085
2321.81398,0.00949
2319.75380,0.00888
2317.69363,0.01008
2315.63346,0.01005
2313.57329,0.00902
2311.51312,0.00872
2309.45294,0.00898
2307.39277,0.00918
2305.33260,0.00935
2303.27243,0.00951
2301.21225,0.00905
2299.15208,0.00840
2297.09191,0.00792
2295.03174,0.00796
2292.97157,0.00845
2290.91139,0.00858
2288.85122,0.00819
2286.79105,0.00806
2284.73088,0.00846
2282.67071,0.00856
2280.61053,0.00794
2278.55036,0.00725
2276.49019,0.00703
2274.43002,0.00703
2272.36984,0.00655
2270.30967,0.00577
2268.24950,0.00565
2266.18933,0.00631
2264.12916,0.00695
2262.06898,0.00716
2260.00881,0.00710
2257.94864,0.00696
2255.88847,0.00664
2253.82830,0.00633
2251.76812,0.00611
2249.70795,0.00604
2247.64778,0.00631
2245.58761,0.00666
2243.52744,0.00663
2241.46726,0.00619
2239.40709,0.00560
2237.34692,0.00539
2235.28675,0.00593
2233.22657,0.00674
2231.16640,0.00711
2229.10623,0.00731
2227.04606,0.00758
2224.98589,0.00747
2222.92571,0.00697
2220.86554,0.00588
2218.80537,0.00506
2216.74520,0.00575
2214.68503,0.00635
2212.62485,0.00553
2210.56468,0.00526
2208.50451,0.00596
2206.44434,0.00550
2204.38417,0.00434
2202.32399,0.00382
2200.26382,0.00364
2198.20365,0.00397
2196.14348,0.00505
2194.08330,0.00586
2192.02313,0.00535
2189.96296,0.00427
2187.90279,0.00381
2185.84262,0.00405
2183.78244,0.00444
2181.72227,0.00530
2179.66210,0.00639
2177.60193,0.00633
2175.54176,0.00547
2173.48158,0.00437
2171.42141,0.00332
2169.36124,0.00391
2167.30107,0.00597
2165.24089,0.00636
2163.18072,0.00538
2161.12055,0.00558
2159.06038,0.00525
2157.00021,0.00412
2154.94003,0.00485
2152.87986,0.00584
2150.81969,0.00491
2148.75952,0.00387
2146.69935,0.00310
2144.63917,0.00194
2142.57900,0.00177
2140.51883,0.00267
2138.45866,0.00363
2136.39849,0.00382
2134.33831,0.00307
2132.27814,0.00255
2130.21797,0.00284
2128.15780,0.00336
2126.09762,0.00381
2124.03745,0.00430
2121.97728,0.00453
2119.91711,0.00469
2117.85694,0.00507
2115.79676,0.00538
2113.73659,0.00527
2111.67642,0.00474
2109.61625,0.00458
2107.55608,0.00545
2105.49590,0.00623
2103.43573,0.00547
2101.37556,0.00412
2099.31539,0.00383
2097.25521,0.00420
2095.19504,0.00446
2093.13487,0.00453
2091.07470,0.00447
2089.01453,0.00491
2086.95435,0.00579
2084.89418,0.00622
2082.83401,0.00590
2080.77384,0.00531
2078.71367,0.00533
2076.65349,0.00595
2074.59332,0.00607
2072.53315,0.00539
2070.47298,0.00480
2068.41281,0.00471
2066.35263,0.00451
2064.29246,0.00409
2062.23229,0.00424
2060.17212,0.00476
2058.11194,0.00494
2056.05177,0.00522
2053.99160,0.00596
2051.93143,0.00594
2049.87126,0.00429
2047.81108,0.00260
2045.75091,0.00263
2043.69074,0.00397
2041.63057,0.00480
2039.57040,0.00456
2037.51022,0.00448
2035.45005,0.00423
2033.38988,0.00283
2031.32971,0.00132
2029.26954,0.00054
2027.20936,0.00017
2025.14919,0.00054
2023.08902,0.00166
2021.02885,0.00255
2018.96867,0.00195
2016.90850,0.00066
2014.84833,0.00143
2012.78816,0.00331
2010.72799,0.00323
2008.66781,0.00180
2006.60764,0.00131
2004.54747,0.00163
2002.48730,0.00116
2000.42713,0.00014
1998.36695,0.00005
1996.30678,0.00068
1994.24661,0.00101
1992.18644,0.00128
1990.12626,0.00228
1988.06609,0.00310
1986.00592,0.00276
1983.94575,0.00266
1981.88558,0.00320
1979.82540,0.00299
1977.76523,0.00217
1975.70506,0.00180
1973.64489,0.00156
1971.58472,0.00072
1969.52454,0.00000
1967.46437,0.00072
1965.40420,0.00244
1963.34403,0.00315
1961.28386,0.00249
1959.22368,0.00218
1957.16351,0.00314
1955.10334,0.00383
1953.04317,0.00331
1950.98299,0.00269
1948.92282,0.00264
1946.86265,0.00267
1944.80248,0.00233
1942.74231,0.00189
1940.68213,0.00161
1938.62196,0.00152
1936.56179,0.00182
1934.50162,0.00219
1932.44145,0.00204
1930.38127,0.00194
1928.32110,0.00242
1926.26093,0.00274
1924.20076,0.00276
1922.14059,0.00289
1920.08041,0.00281
1918.02024,0.00226
1915.96007,0.00176
1913.89990,0.00162
1911.83972,0.00146
1909.77955,0.00132
1907.71938,0.00172
1905.65921,0.00219
1903.59904,0.00185
1901.53886,0.00118
1899.47869,0.00128
1897.41852,0.00199
1895.35835,0.00234
1893.29818,0.00221
1891.23800,0.00197
1889.17783,0.00167
1887.11766,0.00136
1885.05749,0.00116
1882.99731,0.00123
1880.93714,0.00159
1878.87697,0.00197
1876.81680,0.00200
1874.75663,0.00156
1872.69645,0.00109
1870.63628,0.00112
1868.57611,0.00134
1866.51594,0.00123
1864.45577,0.00084
1862.39559,0.00051
1860.33542,0.00054
1858.27525,0.00099
1856.21508,0.00152
1854.15491,0.00168
1852.09473,0.00151
1850.03456,0.00137
1847.97439,0.00133
1845.91422,0.00112
1843.85404,0.00058
1841.79387,0.00009
1839.73370,0.00000
1837.67353,0.00020
1835.61336,0.00032
1833.55318,0.00017
1831.49301,0.00001
1829.43284,0.00013
1827.37267,0.00031
1825.31250,0.00038
1823.25232,0.00044
1821.19215,0.00044
1819.13198,0.00036
1817.07181,0.00025
1815.01163,-0.00002
1812.95146,-0.00036
1810.89129,-0.00042
1808.83112,-0.00020
1806.77095,-0.00003
1804.71077,-0.00002
1802.65060,-0.00003
1800.59043,-0.00011
1798.53026,-0.00035
1796.47009,-0.00051
1794.40991,-0.00040
1792.34974,-0.00019
1790.28957,0.00003
1788.22940,0.00019
1786.16923,0.00021
1784.10905,0.00010
1782.04888,0.00000
1779.98871,-0.00018
1777.92854,-0.00035
1775.86836,-0.00050
1773.80819,-0.00061
1771.74802,-0.00054
1769.68785,-0.00009
1767.62768,0.00046
1765.56750,0.00082
1763.50733,0.00115
1761.44716,0.00176
1759.38699,0.00262
1757.32682,0.00358
1755.26664,0.00467
1753.20647,0.00594
1751.14630,0.00755
1749.08613,0.00959
1747.02596,0.01200
1744.96578,0.01489
1742.90561,0.01845
1740.84544,0.02263
1738.78527,0.02693
1736.72509,0.03068
1734.66492,0.03417
1732.60475,0.03716
1730.54458,0.03853
1728.48441,0.03878
1726.42423,0.03871
1724.36406,0.03848
1722.30389,0.03814
1720.24372,0.03766
1718.18355,0.03689
1716.12337,0.03614
1714.06320,0.03596
1712.00303,0.03614
1709.94286,0.03622
1707.88268,0.03590
1705.82251,0.03507
1703.76234,0.03405
1701.70217,0.03306
1699.64200,0.03194
1697.58182,0.03082
1695.52165,0.03004
1693.46148,0.02983
1691.40131,0.02993
1689.34114,0.02999
1687.28096,0.02984
1685.22079,0.02928
1683.16062,0.02861
1681.10045,0.02860
1679.04028,0.02893
1676.98010,0.02913
1674.91993,0.02931
1672.85976,0.02980
1670.79959,0.03051
1668.73941,0.03144
1666.67924,0.03257
1664.61907,0.03376
1662.55890,0.03512
1660.49873,0.03670
1658.43855,0.03808
1656.37838,0.03904
1654.31821,0.03987
1652.25804,0.04104
1650.19787,0.04201
1648.13769,0.04232
1646.07752,0.04239
1644.01735,0.04282
1641.95718,0.04342
1639.89701,0.04394
1637.83683,0.04437
1635.77666,0.04488
1633.71649,0.04565
1631.65632,0.04654
1629.59614,0.04728
1627.53597,0.04777
1625.47580,0.04811
1623.41563,0.04846
1621.35546,0.04888
1619.29528,0.04935
1617.23511,0.04997
1615.17494,0.05097
1613.11477,0.05211
1611.05460,0.05301
1608.99442,0.05365
1606.93425,0.05411
1604.87408,0.05422
1602.81391,0.05376
1600.75373,0.05284
1598.69356,0.05160
1596.63339,0.05009
1594.57322,0.04841
1592.51305,0.04665
1590.45287,0.04484
1588.39270,0.04300
1586.33253,0.04110
1584.27236,0.03911
1582.21219,0.03723
1580.15201,0.03559
1578.09184,0.03387
1576.03167,0.03175
1573.97150,0.02983
1571.91133,0.02844
1569.85115,0.02713
1567.79098,0.02594
1565.73081,0.02505
1563.67064,0.02441
1561.61046,0.02394
1559.55029,0.02324
1557.49012,0.02252
1555.42995,0.02253
1553.36978,0.02292
1551.30960,0.02326
1549.24943,0.02338
1547.18926,0.02327
1545.12909,0.02292
1543.06892,0.02238
1541.00874,0.02188
1538.94857,0.02166
1536.88840,0.02175
1534.82823,0.02157
1532.76805,0.02082
1530.70788,0.02002
1528.64771,0.01941
1526.58754,0.01870
1524.52737,0.01799
1522.46719,0.01756
1520.40702,0.01766
1518.34685,0.01824
1516.28668,0.01862
1514.22651,0.01843
1512.16633,0.01776
1510.10616,0.01666
1508.04599,0.01483
1505.98582,0.01272
1503.92565,0.01160
1501.86547,0.01100
1499.80530,0.01009
1497.74513,0.00870
1495.68496,0.00724
1493.62478,0.00616
1491.56461,0.00517
1489.50444,0.00409
1487.44427,0.00334
1485.38410,0.00294
1483.32392,0.00273
1481.26375,0.00288
1479.20358,0.00356
1477.14341,0.00482
1475.08324,0.00695
1473.02306,0.01013
1470.96289,0.01350
1468.90272,0.01617
1466.84255,0.01857
1464.78238,0.02107
1462.72220,0.02308
1460.66203,0.02413
1458.60186,0.02483
1456.54169,0.02617
1454.48151,0.02806
1452.42134,0.02962
1450.36117,0.03072
1448.30100,0.03167
1446.24083,0.03265
1444.18065,0.03345
1442.12048,0.03375
1440.06031,0.03335
1438.00014,0.03219
1435.93997,0.03063
1433.87979,0.02933
1431.81962,0.02820
1429.75945,0.02690
1427.69928,0.02571
1425.63910,0.02490
1423.57893,0.02446
1421.51876,0.02434
1419.45859,0.02437
1417.39842,0.02441
1415.33824,0.02441
1413.27807,0.02421
1411.21790,0.02384
1409.15773,0.02348
1407.09756,0.02330
1405.03738,0.02329
1402.97721,0.02337
1400.91704,0.02332
1398.85687,0.02315
1396.79670,0.02317
1394.73652,0.02349
1392.67635,0.02392
1390.61618,0.02439
1388.55601,0.02486
1386.49583,0.02542
1384.43566,0.02618
1382.37549,0.02711
1380.31532,0.02802
1378.25515,0.02890
1376.19497,0.02979
1374.13480,0.03065
1372.07463,0.03142
1370.01446,0.03202
1367.95429,0.03243
1365.89411,0.03270
1363.83394,0.03278
1361.77377,0.03276
1359.71360,0.03281
1357.65343,0.03293
1355.59325,0.03314
1353.53308,0.03345
1351.47291,0.03372
1349.41274,0.03386
1347.35256,0.03396
1345.29239,0.03411
1343.23222,0.03440
1341.17205,0.03491
1339.11188,0.03552
1337.05170,0.03598
1334.99153,0.03621
1332.93136,0.03648
1330.87119,0.03695
1328.81102,0.03748
1326.75084,0.03799
1324.69067,0.03849
1322.63050,0.03903
1320.57033,0.03960
1318.51015,0.04001
1316.44998,0.04002
1314.38981,0.03968
1312.32964,0.03916
1310.26947,0.03839
1308.20929,0.03733
1306.14912,0.03605
1304.08895,0.03460
1302.02878,0.03292
1299.96861,0.03109
1297.90843,0.02917
1295.84826,0.02738
1293.78809,0.02606
1291.72792,0.02510
1289.66775,0.02426
1287.60757,0.02357
1285.54740,0.02312
1283.48723,0.02292
1281.42706,0.02293
1279.36688,0.02295
1277.30671,0.02292
1275.24654,0.02309
1273.18637,0.02353
1271.12620,0.02404
1269.06602,0.02456
1267.00585,0.02516
1264.94568,0.02588
1262.88551,0.02672
1260.82534,0.02752
1258.76516,0.02815
1256.70499,0.02871
1254.64482,0.02934
1252.58465,0.03017
1250.52447,0.03103
1248.46430,0.03161
1246.40413,0.03212
1244.34396,0.03298
1242.28379,0.03402
1240.22361,0.03492
1238.16344,0.03571
1236.10327,0.03657
1234.04310,0.03747
1231.98293,0.03824
1229.92275,0.03891
1227.86258,0.03968
1225.80241,0.04057
1223.74224,0.04146
1221.68207,0.04233
1219.62189,0.04307
1217.56172,0.04368
1215.50155,0.04439
1213.44138,0.04516
1211.38120,0.04598
1209.32103,0.04695
1207.26086,0.04789
1205.20069,0.04857
1203.14052,0.04932
1201.08034,0.05040
1199.02017,0.05127
1196.96000,0.05150
1194.89983,0.05133
1192.83966,0.05088
1190.77948,0.05028
1188.71931,0.04971
1186.65914,0.04903
1184.59897,0.04813
1182.53880,0.04728
1180.47862,0.04661
1178.41845,0.04618
1176.35828,0.04614
1174.29811,0.04632
1172.23793,0.04648
1170.17776,0.04659
1168.11759,0.04663
1166.05742,0.04650
1163.99725,0.04632
1161.93707,0.04598
1159.87690,0.04532
1157.81673,0.04441
1155.75656,0.04354
1153.69639,0.04293
1151.63621,0.04257
1149.57604,0.04224
1147.51587,0.04173
1145.45570,0.04101
1143.39552,0.03996
1141.33535,0.03875
1139.27518,0.03760
1137.21501,0.03651
1135.15484,0.03575
1133.09466,0.03557
1131.03449,0.03589
1128.97432,0.03638
1126.91415,0.03690
1124.85398,0.03780
1122.79380,0.03936
1120.73363,0.04145
1118.67346,0.04384
1116.61329,0.04648
1114.55312,0.04939
1112.49294,0.05257
1110.43277,0.05609
1108.37260,0.05978
1106.31243,0.06325
1104.25225,0.06622
1102.19208,0.06852
1100.13191,0.07017
1098.07174,0.07153
1096.01157,0.07293
1093.95139,0.07448
1091.89122,0.07626
1089.83105,0.07816
1087.77088,0.08026
1085.71071,0.08280
1083.65053,0.08543
1081.59036,0.08786
1079.53019,0.09025
1077.47002,0.09256
1075.40985,0.09460
1073.34967,0.09640
1071.28950,0.09817
1069.22933,0.09998
1067.16916,0.10152
1065.10898,0.10281
1063.04881,0.10424
1060.98864,0.10559
1058.92847,0.10664
1056.86830,0.10794
1054.80812,0.10987
1052.74795,0.11206
1050.68778,0.11424
1048.62761,0.11629
1046.56744,0.11802
1044.50726,0.11937
1042.44709,0.12077
1040.38692,0.12288
1038.32675,0.12531
1036.26657,0.12737
1034.20640,0.12949
1032.14623,0.13171
1030.08606,0.13329
1028.02589,0.13453
1025.96571,0.13582
1023.90554,0.13661
1021.84537,0.13658
1019.78520,0.13611
1017.72503,0.13564
1015.66485,0.13499
1013.60468,0.13389
1011.54451,0.13240
1009.48434,0.13065
1007.42417,0.12864
1005.36399,0.12621
1003.30382,0.12327
1001.24365,0.11977
999.18348,0.11614
997.12330,0.11283
995.06313,0.10985
993.00296,0.10702
990.94279,0.10414
988.88262,0.10098
986.82244,0.09752
984.76227,0.09405
982.70210,0.09063
980.64193,0.08698
978.58176,0.08327
976.52158,0.07985
974.46141,0.07649
972.40124,0.07332
970.34107,0.07074
968.28089,0.06854
966.22072,0.06650
964.16055,0.06451
962.10038,0.06239
960.04021,0.06001
957.98003,0.05732
955.91986,0.05462
953.85969,0.05204
951.79952,0.04923
949.73935,0.04636
947.67917,0.04378
945.61900,0.04107
943.55883,0.03833
941.49866,0.03621
939.43849,0.03466
937.37831,0.03343
935.31814,0.03260
933.25797,0.03187
931.19780,0.03096
929.13762,0.03013
927.07745,0.02951
925.01728,0.02865
922.95711,0.02712
920.89694,0.02530
918.83676,0.02392
916.77659,0.02289
914.71642,0.02156
912.65625,0.01978
910.59608,0.01815
908.53590,0.01705
906.47573,0.01630
904.41556,0.01547
902.35539,0.01454
900.29522,0.01393
898.23504,0.01371
896.17487,0.01360
894.11470,0.01331
892.05453,0.01281
889.99435,0.01215
887.93418,0.01144
885.87401,0.01093
883.81384,0.01055
881.75367,0.01019
879.69349,0.00996
877.63332,0.01009
875.57315,0.01064
873.51298,0.01118
871.45281,0.01125
869.39263,0.01074
867.33246,0.00982
865.27229,0.00888
863.21212,0.00783
861.15194,0.00630
859.09177,0.00461
857.03160,0.00338
854.97143,0.00254
852.91126,0.00163
850.85108,0.00062
848.79091,0.00000
846.73074,-0.00017
844.67057,-0.00007
842.61040,0.00023
840.55022,0.00084
838.49005,0.00147
836.42988,0.00159
834.36971,0.00150
832.30954,0.00190
830.24936,0.00274
828.18919,0.00336
826.12902,0.00334
824.06885,0.00321
822.00867,0.00367
819.94850,0.00449
817.88833,0.00512
815.82816,0.00543
813.76799,0.00534
811.70781,0.00454
809.64764,0.00308
807.58747,0.00188
805.52730,0.00163
803.46713,0.00184
801.40695,0.00158
799.34678,0.00066
797.28661,0.00000
795.22644,-0.00045
793.16627,-0.00059
791.10609,-0.00014
789.04592,0.00092
786.98575,0.00178
784.92558,0.00260
782.86540,0.00396
780.80523,0.00485
778.74506,0.00473
776.68489,0.00458
774.62472,0.00456
772.56454,0.00458
770.50437,0.00535
768.44420,0.00670
766.38403,0.00775
764.32386,0.00914
762.26368,0.01127
760.20351,0.01287
758.14334,0.01368
756.08317,0.01401
754.02299,0.01352
751.96282,0.01247
749.90265,0.01060
747.84248,0.00763
745.78231,0.00539
743.72213,0.00466
741.66196,0.00429
739.60179,0.00427
737.54162,0.00438
735.48145,0.00355
733.42127,0.00281
731.36110,0.00307
729.30093,0.00293
727.24076,0.00192
725.18059,0.00120
723.12041,0.00203
721.06024,0.00254
719.00007,0.00345
716.93990,0.00342
714.87972,0.00219
712.81955,0.00130
710.75938,0.00126
708.69921,0.00172
706.63904,0.00187
704.57886,0.00137
702.51869,0.00090
700.45852,0.00114
698.39835,0.00147
696.33818,0.00117
694.27800,0.00071
692.21783,0.00023
690.15766,-0.00055
688.09749,-0.00091
686.03731,-0.00029
683.97714,0.00031
681.91697,-0.00001
679.85680,-0.00067
677.79663,-0.00056
675.73645,0.00065
673.67628,0.00411
671.61611,0.00849
669.55594,0.00092
667.49577,-0.00587
665.43559,0.00699
663.37542,0.00555
661.31525,0.00198
659.25508,0.00162
657.19491,0.00155
655.13473,0.00069
653.07456,-0.00007
651.01439,-0.00015
648.95422,0.00000
646.89404,0.00037
644.83387,0.00068
642.77370,0.00058
640.71353,-0.00066
638.65336,-0.00179
636.59318,-0.00158
634.53301,-0.00089
632.47284,-0.00071
630.41267,-0.00084
628.35250,-0.00053
626.29232,0.00032
624.23215,-0.00089
622.17198,-0.00364
620.11181,-0.00487
618.05164,-0.00397
615.99146,-0.00154
613.93129,0.00170
611.87112,0.00411
609.81095,0.00508
607.75077,0.00575
605.69060,0.00583
603.63043,0.00372
601.57026,0.00087
599.51009,0.00000
