3996.73391,-0.00089
3994.67373,-0.00090
3992.61356,-0.00083
3990.55339,-0.00051
3988.49322,-0.00001
3986.43305,0.00014
3984.37287,-0.00021
3982.31270,-0.00048
3980.25253,-0.00037
3978.19236,-0.00024
3976.13219,-0.00035
3974.07201,-0.00053
3972.01184,-0.00052
3969.95167,-0.00028
3967.89150,-0.00004
3965.83133,-0.00005
3963.77115,-0.00022
3961.71098,-0.00028
3959.65081,-0.00014
3957.59064,0.00009
3955.53046,0.00026
3953.47029,0.00033
3951.41012,0.00032
3949.34995,0.00022
3947.28978,0.00000
3945.22960,-0.00009
3943.16943,0.00010
3941.10926,0.00036
3939.04909,0.00048
3936.98892,0.00046
3934.92874,0.00037
3932.86857,0.00028
3930.80840,0.00037
3928.74823,0.00055
3926.68805,0.00048
3924.62788,0.00029
3922.56771,0.00039
3920.50754,0.00072
3918.44737,0.00093
3916.38719,0.00084
3914.32702,0.00060
3912.26685,0.00040
3910.20668,0.00035
3908.14651,0.00056
3906.08633,0.00083
3904.02616,0.00087
3901.96599,0.00066
3899.90582,0.00039
3897.84565,0.00017
3895.78547,0.00002
3893.72530,0.00000
3891.66513,0.00028
3889.60496,0.00069
3887.54478,0.00091
3885.48461,0.00104
3883.42444,0.00117
3881.36427,0.00114
3879.30410,0.00097
3877.24392,0.00093
3875.18375,0.00098
3873.12358,0.00092
3871.06341,0.00088
3869.00324,0.00101
3866.94306,0.00112
3864.88289,0.00099
3862.82272,0.00071
3860.76255,0.00061
3858.70237,0.00087
3856.64220,0.00124
3854.58203,0.00148
3852.52186,0.00145
3850.46169,0.00112
3848.40151,0.00078
3846.34134,0.00076
3844.28117,0.00113
3842.22100,0.00163
3840.16083,0.00199
3838.10065,0.00210
3836.04048,0.00200
3833.98031,0.00186
3831.92014,0.00175
3829.85997,0.00158
3827.79979,0.00130
3825.73962,0.00109
3823.67945,0.00095
3821.61928,0.00066
3819.55910,0.00036
3817.49893,0.00032
3815.43876,0.00046
3813.37859,0.00058
3811.31842,0.00054
3809.25824,0.00037
3807.19807,0.00030
3805.13790,0.00048
3803.07773,0.00073
3801.01756,0.00089
3798.95738,0.00105
3796.89721,0.00122
3794.83704,0.00121
3792.77687,0.00110
3790.71670,0.00122
3788.65652,0.00157
3786.59635,0.00172
3784.53618,0.00143
3782.47601,0.00110
3780.41583,0.00108
3778.35566,0.00106
3776.29549,0.00078
3774.23532,0.00056
3772.17515,0.00068
3770.11497,0.00097
3768.05480,0.00118
3765.99463,0.00123
3763.93446,0.00118
3761.87429,0.00113
3759.81411,0.00112
3757.75394,0.00100
3755.69377,0.00089
3753.63360,0.00130
3751.57342,0.00212
3749.51325,0.00219
3747.45308,0.00127
3745.39291,0.00057
3743.33274,0.00063
3741.27256,0.00104
3739.21239,0.00141
3737.15222,0.00155
3735.09205,0.00133
3733.03188,0.00085
3730.97170,0.00040
3728.91153,0.00012
3726.85136,0.00000
3724.79119,0.00013
3722.73102,0.00056
3720.67084,0.00105
3718.61067,0.00129
3716.55050,0.00133
3714.49033,0.00108
3712.43015,0.00055
3710.36998,0.00032
3708.30981,0.00055
3706.24964,0.00071
3704.18947,0.00065
3702.12929,0.00084
3700.06912,0.00127
3698.00895,0.00137
3695.94878,0.00127
3693.88861,0.00133
3691.82843,0.00148
3689.76826,0.00144
3687.70809,0.00125
3685.64792,0.00097
3683.58775,0.00072
3681.52757,0.00078
3679.46740,0.00130
3677.40723,0.00191
3675.34706,0.00221
3673.28688,0.00218
3671.22671,0.00180
3669.16654,0.00125
3667.10637,0.00122
3665.04620,0.00177
3662.98602,0.00230
3660.92585,0.00236
3658.86568,0.00198
3656.80551,0.00164
3654.74534,0.00187
3652.68516,0.00270
3650.62499,0.00395
3648.56482,0.00506
3646.50465,0.00522
3644.44447,0.00494
3642.38430,0.00485
3640.32413,0.00496
3638.26396,0.00533
3636.20379,0.00588
3634.14361,0.00616
3632.08344,0.00620
3630.02327,0.00624
3627.96310,0.00614
3625.90293,0.00596
3623.84275,0.00609
3621.78258,0.00674
3619.72241,0.00768
3617.66224,0.00824
3615.60207,0.00835
3613.54189,0.00870
3611.48172,0.00911
3609.42155,0.00911
3607.36138,0.00914
3605.30120,0.00973
3603.24103,0.01050
3601.18086,0.01097
3599.12069,0.01131
3597.06052,0.01156
3595.00034,0.01155
3592.94017,0.01157
3590.88000,0.01186
3588.81983,0.01241
3586.75966,0.01348
3584.69948,0.01477
3582.63931,0.01566
3580.57914,0.01603
3578.51897,0.01614
3576.45879,0.01635
3574.39862,0.01684
3572.33845,0.01747
3570.27828,0.01800
3568.21811,0.01835
3566.15793,0.01854
3564.09776,0.01878
3562.03759,0.01933
3559.97742,0.02013
3557.91725,0.02084
3555.85707,0.02132
3553.79690,0.02182
3551.73673,0.02244
3549.67656,0.02293
3547.61639,0.02331
3545.55621,0.02399
3543.49604,0.02486
3541.43587,0.02543
3539.37570,0.02574
3537.31552,0.02620
3535.25535,0.02689
3533.19518,0.02750
3531.13501,0.02781
3529.07484,0.02800
3527.01466,0.02854
3524.95449,0.02956
3522.89432,0.03075
3520.83415,0.03170
3518.77398,0.03214
3516.71380,0.03230
3514.65363,0.03274
3512.59346,0.03364
3510.53329,0.03454
3508.47312,0.03495
3506.41294,0.03509
3504.35277,0.03542
3502.29260,0.03610
3500.23243,0.03688
3498.17225,0.03740
3496.11208,0.03780
3494.05191,0.03830
3491.99174,0.03870
3489.93157,0.03914
3487.87139,0.04001
3485.81122,0.04106
3483.75105,0.04179
3481.69088,0.04215
3479.63071,0.04236
3477.57053,0.04264
3475.51036,0.04300
3473.45019,0.04335
3471.39002,0.04359
3469.32984,0.04386
3467.26967,0.04458
3465.20950,0.04550
3463.14933,0.04599
3461.08916,0.04626
3459.02898,0.04676
3456.96881,0.04742
3454.90864,0.04817
3452.84847,0.04908
3450.78830,0.04994
3448.72812,0.05037
3446.66795,0.05059
3444.60778,0.05091
3442.54761,0.05143
3440.48744,0.05222
3438.42726,0.05314
3436.36709,0.05380
3434.30692,0.05400
3432.24675,0.05419
3430.18657,0.05465
3428.12640,0.05511
3426.06623,0.05534
3424.00606,0.05546
3421.94589,0.05580
3419.88571,0.05640
3417.82554,0.05697
3415.76537,0.05749
3413.70520,0.05808
3411.64503,0.05868
3409.58485,0.05934
3407.52468,0.05987
3405.46451,0.06017
3403.40434,0.06052
3401.34416,0.06084
3399.28399,0.06096
3397.22382,0.06095
3395.16365,0.06123
3393.10348,0.06195
3391.04330,0.06256
3388.98313,0.06295
3386.92296,0.06340
3384.86279,0.06384
3382.80262,0.06432
3380.74244,0.06468
3378.68227,0.06472
3376.62210,0.06477
3374.56193,0.06501
3372.50176,0.06541
3370.44158,0.06583
3368.38141,0.06614
3366.32124,0.06648
3364.26107,0.06693
3362.20089,0.06722
3360.14072,0.06732
3358.08055,0.06748
3356.02038,0.06785
3353.96021,0.06821
3351.90003,0.06837
3349.83986,0.06841
3347.77969,0.06860
3345.71952,0.06906
3343.65935,0.06951
3341.59917,0.06961
3339.53900,0.06953
3337.47883,0.06977
3335.41866,0.07018
3333.35849,0.07047
3331.29831,0.07091
3329.23814,0.07142
3327.17797,0.07152
3325.11780,0.07147
3323.05762,0.07165
3320.99745,0.07182
3318.93728,0.07175
3316.87711,0.07149
3314.81694,0.07132
3312.75676,0.07141
3310.69659,0.07164
3308.63642,0.07180
3306.57625,0.07203
3304.51608,0.07241
3302.45590,0.07267
3300.39573,0.07267
3298.33556,0.07251
3296.27539,0.07231
3294.21521,0.07243
3292.15504,0.07305
3290.09487,0.07349
3288.03470,0.07335
3285.97453,0.07315
3283.91435,0.07301
3281.85418,0.07282
3279.79401,0.07288
3277.73384,0.07309
3275.67367,0.07307
3273.61349,0.07281
3271.55332,0.07256
3269.49315,0.07254
3267.43298,0.07271
3265.37281,0.07284
3263.31263,0.07274
3261.25246,0.07244
3259.19229,0.07222
3257.13212,0.07218
3255.07194,0.07206
3253.01177,0.07187
3250.95160,0.07188
3248.89143,0.07208
3246.83126,0.07207
3244.77108,0.07150
3242.71091,0.07083
3240.65074,0.07085
3238.59057,0.07124
3236.53040,0.07133
3234.47022,0.07125
3232.41005,0.07119
3230.34988,0.07099
3228.28971,0.07064
3226.22954,0.07029
3224.16936,0.07008
3222.10919,0.06984
3220.04902,0.06953
3217.98885,0.06950
3215.92867,0.06935
3213.86850,0.06874
3211.80833,0.06820
3209.74816,0.06802
3207.68799,0.06796
3205.62781,0.06787
3203.56764,0.06766
3201.50747,0.06725
3199.44730,0.06671
3197.38713,0.06625
3195.32695,0.06604
3193.26678,0.06604
3191.20661,0.06597
3189.14644,0.06570
3187.08626,0.06537
3185.02609,0.06507
3182.96592,0.06482
3180.90575,0.06470
3178.84558,0.06462
3176.78540,0.06412
3174.72523,0.06332
3172.66506,0.06280
3170.60489,0.06267
3168.54472,0.06264
3166.48454,0.06243
3164.42437,0.06202
3162.36420,0.06164
3160.30403,0.06134
3158.24386,0.06116
3156.18368,0.06104
3154.12351,0.06081
3152.06334,0.06033
3150.00317,0.05967
3147.94299,0.05918
3145.88282,0.05900
3143.82265,0.05887
3141.76248,0.05856
3139.70231,0.05820
3137.64213,0.05801
3135.58196,0.05772
3133.52179,0.05714
3131.46162,0.05666
3129.40145,0.05645
3127.34127,0.05630
3125.28110,0.05604
3123.22093,0.05559
3121.16076,0.05508
3119.10058,0.05482
3117.04041,0.05467
3114.98024,0.05441
3112.92007,0.05403
3110.85990,0.05355
3108.79972,0.05329
3106.73955,0.05335
3104.67938,0.05325
3102.61921,0.05272
3100.55904,0.05210
3098.49886,0.05158
3096.43869,0.05116
3094.37852,0.05085
3092.31835,0.05054
3090.25818,0.05027
3088.19800,0.05024
3086.13783,0.05038
3084.07766,0.05039
3082.01749,0.05015
3079.95731,0.04971
3077.89714,0.04908
3075.83697,0.04835
3073.77680,0.04767
3071.71663,0.04720
3069.65645,0.04702
3067.59628,0.04695
3065.53611,0.04681
3063.47594,0.04646
3061.41577,0.04608
3059.35559,0.04593
3057.29542,0.04575
3055.23525,0.04530
3053.17508,0.04487
3051.11491,0.04454
3049.05473,0.04402
3046.99456,0.04340
3044.93439,0.04313
3042.87422,0.04313
3040.81404,0.04290
3038.75387,0.04246
3036.69370,0.04223
3034.63353,0.04199
3032.57336,0.04146
3030.51318,0.04091
3028.45301,0.04075
3026.39284,0.04085
3024.33267,0.04060
3022.27250,0.03997
3020.21232,0.03947
3018.15215,0.03908
3016.09198,0.03877
3014.03181,0.03866
3011.97163,0.03853
3009.91146,0.03837
3007.85129,0.03830
3005.79112,0.03815
3003.73095,0.03795
3001.67077,0.03780
2999.61060,0.03760
2997.55043,0.03730
2995.49026,0.03699
2993.43009,0.03671
2991.36991,0.03659
2989.30974,0.03676
2987.24957,0.03708
2985.18940,0.03745
2983.12923,0.03780
2981.06905,0.03816
2979.00888,0.03865
2976.94871,0.03914
2974.88854,0.03962
2972.82836,0.04040
2970.76819,0.04142
2968.70802,0.04255
2966.64785,0.04385
2964.58768,0.04532
2962.52750,0.04685
2960.46733,0.04823
2958.40716,0.04949
2956.34699,0.05094
2954.28682,0.05261
2952.22664,0.05433
2950.16647,0.05597
2948.10630,0.05763
2946.04613,0.05963
2943.98596,0.06207
2941.92578,0.06490
2939.86561,0.06800
2937.80544,0.07122
2935.74527,0.07443
2933.68509,0.07742
2931.62492,0.08042
2929.56475,0.08364
2927.50458,0.08669
2925.44441,0.08954
2923.38423,0.09224
2921.32406,0.09470
2919.26389,0.09668
2917.20372,0.09705
2915.14355,0.09441
2913.08337,0.08912
2911.02320,0.08327
2908.96303,0.07851
2906.90286,0.07500
2904.84268,0.07233
2902.78251,0.07017
2900.72234,0.06809
2898.66217,0.06604
2896.60200,0.06442
2894.54182,0.06298
2892.48165,0.06136
2890.42148,0.05969
2888.36131,0.05813
2886.30114,0.05674
2884.24096,0.05556
2882.18079,0.05456
2880.12062,0.05382
2878.06045,0.05337
2876.00028,0.05320
2873.94010,0.05320
2871.87993,0.05321
2869.81976,0.05344
2867.75959,0.05427
2865.69941,0.05567
2863.63924,0.05749
2861.57907,0.05990
2859.51890,0.06295
2857.45873,0.06624
2855.39855,0.06954
2853.33838,0.07311
2851.27821,0.07646
2849.21804,0.07724
2847.15787,0.07312
2845.09769,0.06555
2843.03752,0.05827
2840.97735,0.05309
2838.91718,0.04950
2836.85700,0.04671
2834.79683,0.04460
2832.73666,0.04295
2830.67649,0.04161
2828.61632,0.04073
2826.55614,0.04007
2824.49597,0.03935
2822.43580,0.03855
2820.37563,0.03781
2818.31546,0.03720
2816.25528,0.03665
2814.19511,0.03600
2812.13494,0.03545
2810.07477,0.03513
2808.01460,0.03477
2805.95442,0.03423
2803.89425,0.03374
2801.83408,0.03355
2799.77391,0.03358
2797.71373,0.03344
2795.65356,0.03315
2793.59339,0.03290
2791.53322,0.03264
2789.47305,0.03231
2787.41287,0.03198
2785.35270,0.03172
2783.29253,0.03153
2781.23236,0.03138
2779.17219,0.03129
2777.11201,0.03116
2775.05184,0.03082
2772.99167,0.03032
2770.93150,0.03001
2768.87133,0.03003
2766.81115,0.03005
2764.75098,0.02990
2762.69081,0.02962
2760.63064,0.02913
2758.57046,0.02871
2756.51029,0.02866
2754.45012,0.02888
2752.38995,0.02915
2750.32978,0.02923
2748.26960,0.02908
2746.20943,0.02879
2744.14926,0.02847
2742.08909,0.02834
2740.02892,0.02849
2737.96874,0.02863
2735.90857,0.02858
2733.84840,0.02846
2731.78823,0.02835
2729.72805,0.02826
2727.66788,0.02828
2725.60771,0.02825
2723.54754,0.02803
2721.48737,0.02787
2719.42719,0.02782
2717.36702,0.02777
2715.30685,0.02760
2713.24668,0.02731
2711.18651,0.02712
2709.12633,0.02701
2707.06616,0.02683
2705.00599,0.02662
2702.94582,0.02653
2700.88565,0.02660
2698.82547,0.02662
2696.76530,0.02645
2694.70513,0.02616
2692.64496,0.02595
2690.58478,0.02595
2688.52461,0.02602
2686.46444,0.02606
2684.40427,0.02603
2682.34410,0.02595
2680.28392,0.02591
2678.22375,0.02580
2676.16358,0.02559
2674.10341,0.02532
2672.04324,0.02503
2669.98306,0.02482
2667.92289,0.02468
2665.86272,0.02445
2663.80255,0.02431
2661.74238,0.02439
2659.68220,0.02442
2657.62203,0.02429
2655.56186,0.02419
2653.50169,0.02411
2651.44151,0.02390
2649.38134,0.02369
2647.32117,0.02361
2645.26100,0.02352
2643.20083,0.02341
2641.14065,0.02321
2639.08048,0.02288
2637.02031,0.02250
2634.96014,0.02205
2632.89997,0.02173
2630.83979,0.02167
2628.77962,0.02162
2626.71945,0.02148
2624.65928,0.02142
2622.59910,0.02134
2620.53893,0.02123
2618.47876,0.02141
2616.41859,0.02145
2614.35842,0.02107
2612.29824,0.02070
2610.23807,0.02045
2608.17790,0.02012
2606.11773,0.01990
2604.05756,0.01990
2601.99738,0.01990
2599.93721,0.01983
2597.87704,0.01989
2595.81687,0.02001
2593.75670,0.01989
2591.69652,0.01965
2589.63635,0.01956
2587.57618,0.01958
2585.51601,0.01975
2583.45583,0.01976
2581.39566,0.01939
2579.33549,0.01917
2577.27532,0.01931
2575.21515,0.01937
2573.15497,0.01923
2571.09480,0.01897
2569.03463,0.01857
2566.97446,0.01820
2564.91429,0.01797
2562.85411,0.01785
2560.79394,0.01792
2558.73377,0.01800
2556.67360,0.01760
2554.61342,0.01704
2552.55325,0.01697
2550.49308,0.01730
2548.43291,0.01740
2546.37274,0.01707
2544.31256,0.01667
2542.25239,0.01660
2540.19222,0.01677
2538.13205,0.01660
2536.07188,0.01619
2534.01170,0.01595
2531.95153,0.01562
2529.89136,0.01524
2527.83119,0.01528
2525.77102,0.01578
2523.71084,0.01629
2521.65067,0.01633
2519.59050,0.01602
2517.53033,0.01557
2515.47015,0.01524
2513.40998,0.01517
2511.34981,0.01523
2509.28964,0.01553
2507.22947,0.01586
2505.16929,0.01555
2503.10912,0.01468
2501.04895,0.01413
2498.98878,0.01435
2496.92861,0.01484
2494.86843,0.01485
2492.80826,0.01445
2490.74809,0.01437
2488.68792,0.01467
2486.62775,0.01459
2484.56757,0.01392
2482.50740,0.01353
2480.44723,0.01380
2478.38706,0.01420
2476.32688,0.01429
2474.26671,0.01414
2472.20654,0.01395
2470.14637,0.01393
2468.08620,0.01397
2466.02602,0.01383
2463.96585,0.01348
2461.90568,0.01310
2459.84551,0.01293
2457.78534,0.01296
2455.72516,0.01301
2453.66499,0.01310
2451.60482,0.01302
2449.54465,0.01264
2447.48447,0.01246
2445.42430,0.01265
2443.36413,0.01282
2441.30396,0.01297
2439.24379,0.01312
2437.18361,0.01276
2435.12344,0.01214
2433.06327,0.01206
2431.00310,0.01227
2428.94293,0.01218
2426.88275,0.01189
2424.82258,0.01177
2422.76241,0.01175
2420.70224,0.01160
2418.64207,0.01151
2416.58189,0.01160
2414.52172,0.01160
2412.46155,0.01150
2410.40138,0.01121
2408.34120,0.01072
2406.28103,0.01041
2404.22086,0.01036
2402.16069,0.01065
2400.10052,0.01113
2398.04034,0.01141
2395.98017,0.01131
2393.92000,0.01097
2391.85983,0.01076
2389.79966,0.01087
2387.73948,0.01110
2385.67931,0.01130
2383.61914,0.01135
2381.55897,0.01120
2379.49880,0.01119
2377.43862,0.01151
2375.37845,0.01145
2373.31828,0.01146
2371.25811,0.01228
2369.19793,0.01289
2367.13776,0.01235
2365.07759,0.01105
2363.01742,0.00914
2360.95725,0.00813
2358.89707,0.00677
2356.83690,0.00640
2354.77673,0.00709
2352.71656,0.00835
2350.65639,0.01145
2348.59621,0.01343
2346.53604,0.01119
2344.47587,0.01104
2342.41570,0.01204
2340.35552,0.01265
2338.29535,0.01309
2336.23518,0.01267
2334.17501,0.01123
2332.11484,0.00986
2330.05466,0.01016
2327.99449,0.01069
2325.93432,0.01077
2323.87415,0.01005
2321.81398,0.01007
2319.75380,0.01034
2317.69363,0.01092
2315.63346,0.01076
2313.57329,0.01004
2311.51312,0.00959
2309.45294,0.00964
2307.39277,0.01001
2305.33260,0.01027
2303.27243,0.01010
2301.21225,0.00953
2299.15208,0.00934
2297.09191,0.00958
2295.03174,0.00971
2292.97157,0.00961
2290.91139,0.00941
2288.85122,0.00914
2286.79105,0.00875
2284.73088,0.00836
2282.67071,0.00819
2280.61053,0.00816
2278.55036,0.00802
2276.49019,0.00799
2274.43002,0.00822
2272.36984,0.00816
2270.30967,0.00763
2268.24950,0.00739
2266.18933,0.00762
2264.12916,0.00765
2262.06898,0.00744
2260.00881,0.00735
2257.94864,0.00730
2255.88847,0.00729
2253.82830,0.00742
2251.76812,0.00754
2249.70795,0.00761
2247.64778,0.00760
2245.58761,0.00758
2243.52744,0.00747
2241.46726,0.00698
2239.40709,0.00660
2237.34692,0.00660
2235.28675,0.00675
2233.22657,0.00671
2231.16640,0.00639
2229.10623,0.00656
2227.04606,0.00730
2224.98589,0.00778
2222.92571,0.00755
2220.86554,0.00672
2218.80537,0.00623
2216.74520,0.00644
2214.68503,0.00666
2212.62485,0.00654
2210.56468,0.00583
2208.50451,0.00496
2206.44434,0.00491
2204.38417,0.00544
2202.32399,0.00593
2200.26382,0.00640
2198.20365,0.00637
2196.14348,0.00559
2194.08330,0.00515
2192.02313,0.00576
2189.96296,0.00656
2187.90279,0.00634
2185.84262,0.00557
2183.78244,0.00536
2181.72227,0.00517
2179.66210,0.00491
2177.60193,0.00531
2175.54176,0.00563
2173.48158,0.00534
2171.42141,0.00507
2169.36124,0.00503
2167.30107,0.00520
2165.24089,0.00503
2163.18072,0.00319
2161.12055,0.00072
2159.06038,0.00080
2157.00021,0.00256
2154.94003,0.00302
2152.87986,0.00271
2150.81969,0.00280
2148.75952,0.00352
2146.69935,0.00471
2144.63917,0.00585
2142.57900,0.00605
2140.51883,0.00521
2138.45866,0.00470
2136.39849,0.00475
2134.33831,0.00491
2132.27814,0.00552
2130.21797,0.00599
2128.15780,0.00571
2126.09762,0.00530
2124.03745,0.00529
2121.97728,0.00541
2119.91711,0.00533
2117.85694,0.00533
2115.79676,0.00548
2113.73659,0.00532
2111.67642,0.00520
2109.61625,0.00543
2107.55608,0.00557
2105.49590,0.00595
2103.43573,0.00656
2101.37556,0.00663
2099.31539,0.00641
2097.25521,0.00599
2095.19504,0.00540
2093.13487,0.00534
2091.07470,0.00568
2089.01453,0.00572
2086.95435,0.00561
2084.89418,0.00564
2082.83401,0.00582
2080.77384,0.00612
2078.71367,0.00607
2076.65349,0.00571
2074.59332,0.00535
2072.53315,0.00464
2070.47298,0.00381
2068.41281,0.00358
2066.35263,0.00389
2064.29246,0.00434
2062.23229,0.00451
2060.17212,0.00415
2058.11194,0.00348
2056.05177,0.00319
2053.99160,0.00416
2051.93143,0.00534
2049.87126,0.00491
2047.81108,0.00363
2045.75091,0.00311
2043.69074,0.00284
2041.63057,0.00241
2039.57040,0.00281
2037.51022,0.00374
2035.45005,0.00406
2033.38988,0.00364
2031.32971,0.00316
2029.26954,0.00233
2027.20936,0.00113
2025.14919,0.00123
2023.08902,0.00229
2021.02885,0.00215
2018.96867,0.00102
2016.90850,0.00088
2014.84833,0.00154
2012.78816,0.00186
2010.72799,0.00228
2008.66781,0.00261
2006.60764,0.00245
2004.54747,0.00252
2002.48730,0.00270
2000.42713,0.00259
1998.36695,0.00257
1996.30678,0.00255
1994.24661,0.00220
1992.18644,0.00188
1990.12626,0.00224
1988.06609,0.00292
1986.00592,0.00316
1983.94575,0.00325
1981.88558,0.00373
1979.82540,0.00394
1977.76523,0.00326
1975.70506,0.00242
1973.64489,0.00188
1971.58472,0.00198
1969.52454,0.00296
1967.46437,0.00352
1965.40420,0.00274
1963.34403,0.00142
1961.28386,0.00043
1959.22368,0.00000
1957.16351,0.00047
1955.10334,0.00205
1953.04317,0.00331
1950.98299,0.00330
1948.92282,0.00322
1946.86265,0.00379
1944.80248,0.00396
1942.74231,0.00285
1940.68213,0.00132
1938.62196,0.00069
1936.56179,0.00094
1934.50162,0.00145
1932.44145,0.00221
1930.38127,0.00296
1928.32110,0.00296
1926.26093,0.00255
1924.20076,0.00243
1922.14059,0.00252
1920.08041,0.00263
1918.02024,0.00287
1915.96007,0.00299
1913.89990,0.00262
1911.83972,0.00224
1909.77955,0.00247
1907.71938,0.00297
1905.65921,0.00310
1903.59904,0.00299
1901.53886,0.00286
1899.47869,0.00264
1897.41852,0.00245
1895.35835,0.00234
1893.29818,0.00226
1891.23800,0.00245
1889.17783,0.00271
1887.11766,0.00261
1885.05749,0.00234
1882.99731,0.00228
1880.93714,0.00226
1878.87697,0.00221
1876.81680,0.00230
1874.75663,0.00239
1872.69645,0.00220
1870.63628,0.00169
1868.57611,0.00111
1866.51594,0.00094
1864.45577,0.00120
1862.39559,0.00139
1860.33542,0.00122
1858.27525,0.00088
1856.21508,0.00059
1854.15491,0.00044
1852.09473,0.00055
1850.03456,0.00091
1847.97439,0.00126
1845.91422,0.00136
1843.85404,0.00114
1841.79387,0.00092
1839.73370,0.00091
1837.67353,0.00092
1835.61336,0.00091
1833.55318,0.00099
1831.49301,0.00106
1829.43284,0.00086
1827.37267,0.00054
1825.31250,0.00049
1823.25232,0.00068
1821.19215,0.00080
1819.13198,0.00063
1817.07181,0.00023
1815.01163,0.00000
1812.95146,0.00001
1810.89129,0.00004
1808.83112,-0.00002
1806.77095,0.00013
1804.71077,0.00041
1802.65060,0.00050
1800.59043,0.00032
1798.53026,0.00006
1796.47009,-0.00014
1794.40991,-0.00030
1792.34974,-0.00036
1790.28957,-0.00023
1788.22940,-0.00004
1786.16923,0.00014
1784.10905,0.00029
1782.04888,0.00024
1779.98871,0.00000
1777.92854,-0.00020
1775.86836,-0.00023
1773.80819,-0.00022
1771.74802,-0.00011
1769.68785,0.00022
1767.62768,0.00068
1765.56750,0.00115
1763.50733,0.00175
1761.44716,0.00262
1759.38699,0.00365
1757.32682,0.00486
1755.26664,0.00630
1753.20647,0.00775
1751.14630,0.00946
1749.08613,0.01200
1747.02596,0.01533
1744.96578,0.01914
1742.90561,0.02371
1740.84544,0.02935
1738.78527,0.03533
1736.72509,0.04041
1734.66492,0.04493
1732.60475,0.04880
1730.54458,0.05079
1728.48441,0.05129
1726.42423,0.05108
1724.36406,0.05053
1722.30389,0.04998
1720.24372,0.04955
1718.18355,0.04907
1716.12337,0.04854
1714.06320,0.04800
1712.00303,0.04745
1709.94286,0.04694
1707.88268,0.04640
1705.82251,0.04567
1703.76234,0.04474
1701.70217,0.04348
1699.64200,0.04179
1697.58182,0.04008
1695.52165,0.03860
1693.46148,0.03770
1691.40131,0.03731
1689.34114,0.03693
1687.28096,0.03647
1685.22079,0.03605
1683.16062,0.03568
1681.10045,0.03523
1679.04028,0.03478
1676.98010,0.03456
1674.91993,0.03473
1672.85976,0.03516
1670.79959,0.03582
1668.73941,0.03682
1666.67924,0.03793
1664.61907,0.03893
1662.55890,0.04013
1660.49873,0.04169
1658.43855,0.04329
1656.37838,0.04453
1654.31821,0.04538
1652.25804,0.04640
1650.19787,0.04747
1648.13769,0.04802
1646.07752,0.04820
1644.01735,0.04847
1641.95718,0.04875
1639.89701,0.04892
1637.83683,0.04931
1635.77666,0.05033
1633.71649,0.05161
1631.65632,0.05258
1629.59614,0.05337
1627.53597,0.05420
1625.47580,0.05509
1623.41563,0.05623
1621.35546,0.05744
1619.29528,0.05841
1617.23511,0.05946
1615.17494,0.06090
1613.11477,0.06239
1611.05460,0.06372
1608.99442,0.06483
1606.93425,0.06547
1604.87408,0.06548
1602.81391,0.06483
1600.75373,0.06365
1598.69356,0.06214
1596.63339,0.06043
1594.57322,0.05852
1592.51305,0.05629
1590.45287,0.05379
1588.39270,0.05123
1586.33253,0.04875
1584.27236,0.04624
1582.21219,0.04373
1580.15201,0.04140
1578.09184,0.03916
1576.03167,0.03675
1573.97150,0.03475
1571.91133,0.03327
1569.85115,0.03160
1567.79098,0.03000
1565.73081,0.02899
1563.67064,0.02828
1561.61046,0.02766
1559.55029,0.02723
1557.49012,0.02705
1555.42995,0.02698
1553.36978,0.02688
1551.30960,0.02681
1549.24943,0.02684
1547.18926,0.02685
1545.12909,0.02664
1543.06892,0.02618
1541.00874,0.02560
1538.94857,0.02530
1536.88840,0.02554
1534.82823,0.02575
1532.76805,0.02543
1530.70788,0.02467
1528.64771,0.02379
1526.58754,0.02298
1524.52737,0.02242
1522.46719,0.02218
1520.40702,0.02235
1518.34685,0.02270
1516.28668,0.02285
1514.22651,0.02270
1512.16633,0.02236
1510.10616,0.02156
1508.04599,0.01950
1505.98582,0.01642
1503.92565,0.01457
1501.86547,0.01384
1499.80530,0.01297
1497.74513,0.01139
1495.68496,0.00948
1493.62478,0.00810
1491.56461,0.00710
1489.50444,0.00587
1487.44427,0.00470
1485.38410,0.00417
1483.32392,0.00413
1481.26375,0.00442
1479.20358,0.00518
1477.14341,0.00661
1475.08324,0.00914
1473.02306,0.01306
1470.96289,0.01737
1468.90272,0.02089
1466.84255,0.02413
1464.78238,0.02756
1462.72220,0.03023
1460.66203,0.03183
1458.60186,0.03346
1456.54169,0.03569
1454.48151,0.03759
1452.42134,0.03898
1450.36117,0.04035
1448.30100,0.04176
1446.24083,0.04296
1444.18065,0.04373
1442.12048,0.04402
1440.06031,0.04371
1438.00014,0.04255
1435.93997,0.04056
1433.87979,0.03843
1431.81962,0.03642
1429.75945,0.03454
1427.69928,0.03310
1425.63910,0.03214
1423.57893,0.03149
1421.51876,0.03110
1419.45859,0.03087
1417.39842,0.03068
1415.33824,0.03050
1413.27807,0.03026
1411.21790,0.02980
1409.15773,0.02922
1407.09756,0.02886
1405.03738,0.02891
1402.97721,0.02914
1400.91704,0.02924
1398.85687,0.02927
1396.79670,0.02949
1394.73652,0.02990
1392.67635,0.03039
1390.61618,0.03096
1388.55601,0.03177
1386.49583,0.03286
1384.43566,0.03402
1382.37549,0.03514
1380.31532,0.03629
1378.25515,0.03745
1376.19497,0.03850
1374.13480,0.03945
1372.07463,0.04044
1370.01446,0.04148
1367.95429,0.04240
1365.89411,0.04302
1363.83394,0.04341
1361.77377,0.04380
1359.71360,0.04421
1357.65343,0.04465
1355.59325,0.04521
1353.53308,0.04585
1351.47291,0.04640
1349.41274,0.04691
1347.35256,0.04748
1345.29239,0.04801
1343.23222,0.04845
1341.17205,0.04902
1339.11188,0.04985
1337.05170,0.05079
1334.99153,0.05162
1332.93136,0.05235
1330.87119,0.05305
1328.81102,0.05375
1326.75084,0.05462
1324.69067,0.05578
1322.63050,0.05689
1320.57033,0.05758
1318.51015,0.05790
1316.44998,0.05802
1314.38981,0.05782
1312.32964,0.05711
1310.26947,0.05592
1308.20929,0.05431
1306.14912,0.05225
1304.08895,0.04988
1302.02878,0.04741
1299.96861,0.04483
1297.90843,0.04219
1295.84826,0.03974
1293.78809,0.03764
1291.72792,0.03594
1289.66775,0.03464
1287.60757,0.03367
1285.54740,0.03288
1283.48723,0.03229
1281.42706,0.03202
1279.36688,0.03207
1277.30671,0.03238
1275.24654,0.03289
1273.18637,0.03355
1271.12620,0.03434
1269.06602,0.03511
1267.00585,0.03576
1264.94568,0.03641
1262.88551,0.03712
1260.82534,0.03791
1258.76516,0.03882
1256.70499,0.03969
1254.64482,0.04050
1252.58465,0.04149
1250.52447,0.04260
1248.46430,0.04366
1246.40413,0.04446
1244.34396,0.04506
1242.28379,0.04584
1240.22361,0.04689
1238.16344,0.04788
1236.10327,0.04878
1234.04310,0.04984
1231.98293,0.05114
1229.92275,0.05245
1227.86258,0.05357
1225.80241,0.05463
1223.74224,0.05590
1221.68207,0.05728
1219.62189,0.05853
1217.56172,0.05965
1215.50155,0.06064
1213.44138,0.06170
1211.38120,0.06313
1209.32103,0.06467
1207.26086,0.06604
1205.20069,0.06736
1203.14052,0.06874
1201.08034,0.07004
1199.02017,0.07094
1196.96000,0.07136
1194.89983,0.07138
1192.83966,0.07115
1190.77948,0.07089
1188.71931,0.07044
1186.65914,0.06949
1184.59897,0.06816
1182.53880,0.06686
1180.47862,0.06592
1178.41845,0.06539
1176.35828,0.06498
1174.29811,0.06459
1172.23793,0.06443
1170.17776,0.06441
1168.11759,0.06413
1166.05742,0.06347
1163.99725,0.06262
1161.93707,0.06163
1159.87690,0.06046
1157.81673,0.05914
1155.75656,0.05773
1153.69639,0.05644
1151.63621,0.05529
1149.57604,0.05403
1147.51587,0.05254
1145.45570,0.05105
1143.39552,0.04957
1141.33535,0.04795
1139.27518,0.04639
1137.21501,0.04508
1135.15484,0.04406
1133.09466,0.04337
1131.03449,0.04306
1128.97432,0.04315
1126.91415,0.04380
1124.85398,0.04508
1122.79380,0.04664
1120.73363,0.04855
1118.67346,0.05123
1116.61329,0.05452
1114.55312,0.05811
1112.49294,0.06204
1110.43277,0.06610
1108.37260,0.06999
1106.31243,0.07391
1104.25225,0.07772
1102.19208,0.08059
1100.13191,0.08246
1098.07174,0.08400
1096.01157,0.08562
1093.95139,0.08733
1091.89122,0.08913
1089.83105,0.09125
1087.77088,0.09381
1085.71071,0.09661
1083.65053,0.09940
1081.59036,0.10200
1079.53019,0.10440
1077.47002,0.10684
1075.40985,0.10936
1073.34967,0.11142
1071.28950,0.11301
1069.22933,0.11477
1067.16916,0.11671
1065.10898,0.11849
1063.04881,0.12015
1060.98864,0.12182
1058.92847,0.12338
1056.86830,0.12493
1054.80812,0.12674
1052.74795,0.12867
1050.68778,0.13051
1048.62761,0.13237
1046.56744,0.13423
1044.50726,0.13593
1042.44709,0.13784
1040.38692,0.14027
1038.32675,0.14309
1036.26657,0.14597
1034.20640,0.14852
1032.14623,0.15072
1030.08606,0.15273
1028.02589,0.15425
1025.96571,0.15504
1023.90554,0.15546
1021.84537,0.15561
1019.78520,0.15519
1017.72503,0.15439
1015.66485,0.15370
1013.60468,0.15284
1011.54451,0.15117
1009.48434,0.14882
1007.42417,0.14601
1005.36399,0.14290
1003.30382,0.13952
1001.24365,0.13573
999.18348,0.13172
997.12330,0.12791
995.06313,0.12430
993.00296,0.12053
990.94279,0.11649
988.88262,0.11227
986.82244,0.10789
984.76227,0.10337
982.70210,0.09870
980.64193,0.09408
978.58176,0.08984
976.52158,0.08585
974.46141,0.08189
972.40124,0.07840
970.34107,0.07570
968.28089,0.07335
966.22072,0.07109
964.16055,0.06911
962.10038,0.06719
960.04021,0.06454
957.98003,0.06115
955.91986,0.05788
953.85969,0.05491
951.79952,0.05196
949.73935,0.04902
947.67917,0.04598
945.61900,0.04297
943.55883,0.04018
941.49866,0.03768
939.43849,0.03570
937.37831,0.03423
935.31814,0.03325
933.25797,0.03260
931.19780,0.03175
929.13762,0.03049
927.07745,0.02923
925.01728,0.02826
922.95711,0.02710
920.89694,0.02542
918.83676,0.02359
916.77659,0.02175
914.71642,0.01967
912.65625,0.01771
910.59608,0.01622
908.53590,0.01500
906.47573,0.01396
904.41556,0.01317
902.35539,0.01262
900.29522,0.01223
898.23504,0.01203
896.17487,0.01213
894.11470,0.01242
892.05453,0.01258
889.99435,0.01248
887.93418,0.01206
885.87401,0.01144
883.81384,0.01088
881.75367,0.01035
879.69349,0.01033
877.63332,0.01102
875.57315,0.01171
873.51298,0.01200
871.45281,0.01200
869.39263,0.01194
867.33246,0.01179
865.27229,0.01089
863.21212,0.00921
861.15194,0.00738
859.09177,0.00569
857.03160,0.00444
854.97143,0.00322
852.91126,0.00159
850.85108,0.00036
848.79091,0.00000
846.73074,0.00000
844.67057,0.00032
842.61040,0.00056
840.55022,0.00049
838.49005,0.00054
836.42988,0.00135
834.36971,0.00265
832.30954,0.00361
830.24936,0.00381
828.18919,0.00357
826.12902,0.00344
824.06885,0.00356
822.00867,0.00395
819.94850,0.00454
817.88833,0.00508
815.82816,0.00538
813.76799,0.00521
811.70781,0.00441
809.64764,0.00340
807.58747,0.00232
805.52730,0.00099
803.46713,0.00000
801.40695,-0.00063
799.34678,-0.00105
797.28661,-0.00190
795.22644,-0.00294
793.16627,-0.00339
791.10609,-0.00303
789.04592,-0.00241
786.98575,-0.00191
784.92558,-0.00096
782.86540,0.00057
780.80523,0.00176
778.74506,0.00204
776.68489,0.00177
774.62472,0.00163
772.56454,0.00241
770.50437,0.00415
768.44420,0.00591
766.38403,0.00784
764.32386,0.01060
762.26368,0.01379
760.20351,0.01673
758.14334,0.01871
756.08317,0.01876
754.02299,0.01714
751.96282,0.01529
749.90265,0.01338
747.84248,0.01165
745.78231,0.01114
743.72213,0.01073
741.66196,0.00916
739.60179,0.00769
737.54162,0.00707
735.48145,0.00705
733.42127,0.00743
731.36110,0.00779
729.30093,0.00789
727.24076,0.00791
725.18059,0.00794
723.12041,0.00807
721.06024,0.00838
719.00007,0.00908
716.93990,0.00852
714.87972,0.00713
712.81955,0.00644
710.75938,0.00650
708.69921,0.00681
706.63904,0.00711
704.57886,0.00718
702.51869,0.00721
700.45852,0.00760
698.39835,0.00795
696.33818,0.00761
694.27800,0.00664
692.21783,0.00548
690.15766,0.00421
688.09749,0.00319
686.03731,0.00338
683.97714,0.00437
681.91697,0.00480
679.85680,0.00473
677.79663,0.00522
675.73645,0.00674
673.67628,0.00850
671.61611,0.00883
669.55594,0.00425
667.49577,0.00138
665.43559,0.00808
663.37542,0.00761
661.31525,0.00606
659.25508,0.00634
657.19491,0.00684
655.13473,0.00585
653.07456,0.00342
651.01439,0.00100
648.95422,0.00000
646.89404,0.00086
644.83387,0.00353
642.77370,0.00642
640.71353,0.00731
638.65336,0.00620
636.59318,0.00490
634.53301,0.00461
632.47284,0.00529
630.41267,0.00620
628.35250,0.00660
626.29232,0.00628
624.23215,0.00528
622.17198,0.00445
620.11181,0.00489
618.05164,0.00559
615.99146,0.00442
613.93129,0.00194
611.87112,0.00114
609.81095,0.00286
607.75077,0.00598
605.69060,0.00767
603.63043,0.00461
601.57026,0.00050
599.51009,0.00000
