3996.73391,0.00043
3994.67373,0.00045
3992.61356,0.00035
3990.55339,0.00022
3988.49322,0.00013
3986.43305,0.00007
3984.37287,0.00002
3982.31270,-0.00001
3980.25253,-0.00002
3978.19236,0.00008
3976.13219,0.00035
3974.07201,0.00045
3972.01184,0.00012
3969.95167,-0.00010
3967.89150,0.00012
3965.83133,0.00040
3963.77115,0.00048
3961.71098,0.00053
3959.65081,0.00058
3957.59064,0.00059
3955.53046,0.00049
3953.47029,0.00024
3951.41012,0.00004
3949.34995,0.00000
3947.28978,0.00012
3945.22960,0.00031
3943.16943,0.00045
3941.10926,0.00058
3939.04909,0.00085
3936.98892,0.00108
3934.92874,0.00102
3932.86857,0.00083
3930.80840,0.00083
3928.74823,0.00092
3926.68805,0.00078
3924.62788,0.00053
3922.56771,0.00052
3920.50754,0.00061
3918.44737,0.00055
3916.38719,0.00057
3914.32702,0.00078
3912.26685,0.00102
3910.20668,0.00118
3908.14651,0.00117
3906.08633,0.00098
3904.02616,0.00067
3901.96599,0.00048
3899.90582,0.00060
3897.84565,0.00087
3895.78547,0.00112
3893.72530,0.00128
3891.66513,0.00125
3889.60496,0.00099
3887.54478,0.00075
3885.48461,0.00069
3883.42444,0.00059
3881.36427,0.00030
3879.30410,0.00019
3877.24392,0.00051
3875.18375,0.00106
3873.12358,0.00160
3871.06341,0.00185
3869.00324,0.00160
3866.94306,0.00115
3864.88289,0.00085
3862.82272,0.00080
3860.76255,0.00107
3858.70237,0.00139
3856.64220,0.00132
3854.58203,0.00100
3852.52186,0.00091
3850.46169,0.00101
3848.40151,0.00113
3846.34134,0.00124
3844.28117,0.00128
3842.22100,0.00099
3840.16083,0.00029
3838.10065,0.00000
3836.04048,0.00058
3833.98031,0.00118
3831.92014,0.00139
3829.85997,0.00166
3827.79979,0.00201
3825.73962,0.00197
3823.67945,0.00143
3821.61928,0.00075
3819.55910,0.00030
3817.49893,0.00017
3815.43876,0.00050
3813.37859,0.00103
3811.31842,0.00120
3809.25824,0.00110
3807.19807,0.00107
3805.13790,0.00103
3803.07773,0.00080
3801.01756,0.00067
3798.95738,0.00102
3796.89721,0.00139
3794.83704,0.00131
3792.77687,0.00106
3790.71670,0.00097
3788.65652,0.00113
3786.59635,0.00132
3784.53618,0.00120
3782.47601,0.00075
3780.41583,0.00037
3778.35566,0.00040
3776.29549,0.00081
3774.23532,0.00121
3772.17515,0.00136
3770.11497,0.00130
3768.05480,0.00111
3765.99463,0.00082
3763.93446,0.00051
3761.87429,0.00041
3759.81411,0.00055
3757.75394,0.00070
3755.69377,0.00090
3753.63360,0.00122
3751.57342,0.00127
3749.51325,0.00076
3747.45308,0.00029
3745.39291,0.00023
3743.33274,0.00048
3741.27256,0.00091
3739.21239,0.00114
3737.15222,0.00104
3735.09205,0.00102
3733.03188,0.00120
3730.97170,0.00117
3728.91153,0.00089
3726.85136,0.00064
3724.79119,0.00076
3722.73102,0.00119
3720.67084,0.00143
3718.61067,0.00111
3716.55050,0.00056
3714.49033,0.00026
3712.43015,0.00024
3710.36998,0.00026
3708.30981,0.00007
3706.24964,0.00000
3704.18947,0.00027
3702.12929,0.00063
3700.06912,0.00083
3698.00895,0.00093
3695.94878,0.00084
3693.88861,0.00055
3691.82843,0.00037
3689.76826,0.00038
3687.70809,0.00048
3685.64792,0.00065
3683.58775,0.00084
3681.52757,0.00098
3679.46740,0.00120
3677.40723,0.00153
3675.34706,0.00157
3673.28688,0.00099
3671.22671,0.00033
3669.16654,0.00037
3667.10637,0.00090
3665.04620,0.00115
3662.98602,0.00126
3660.92585,0.00157
3658.86568,0.00192
3656.80551,0.00210
3654.74534,0.00207
3652.68516,0.00191
3650.62499,0.00187
3648.56482,0.00223
3646.50465,0.00292
3644.44447,0.00362
3642.38430,0.00422
3640.32413,0.00444
3638.26396,0.00424
3636.20379,0.00404
3634.14361,0.00414
3632.08344,0.00458
3630.02327,0.00527
3627.96310,0.00603
3625.90293,0.00646
3623.84275,0.00642
3621.78258,0.00618
3619.72241,0.00604
3617.66224,0.00613
3615.60207,0.00633
3613.54189,0.00665
3611.48172,0.00714
3609.42155,0.00771
3607.36138,0.00812
3605.30120,0.00844
3603.24103,0.00884
3601.18086,0.00911
3599.12069,0.00934
3597.06052,0.00980
3595.00034,0.01014
3592.94017,0.00994
3590.88000,0.00979
3588.81983,0.01031
3586.75966,0.01135
3584.69948,0.01222
3582.63931,0.01271
3580.57914,0.01306
3578.51897,0.01335
3576.45879,0.01352
3574.39862,0.01370
3572.33845,0.01415
3570.27828,0.01490
3568.21811,0.01579
3566.15793,0.01658
3564.09776,0.01693
3562.03759,0.01701
3559.97742,0.01741
3557.91725,0.01814
3555.85707,0.01867
3553.79690,0.01888
3551.73673,0.01910
3549.67656,0.01949
3547.61639,0.01996
3545.55621,0.02049
3543.49604,0.02116
3541.43587,0.02204
3539.37570,0.02297
3537.31552,0.02370
3535.25535,0.02407
3533.19518,0.02409
3531.13501,0.02401
3529.07484,0.02423
3527.01466,0.02483
3524.95449,0.02557
3522.89432,0.02627
3520.83415,0.02688
3518.77398,0.02734
3516.71380,0.02778
3514.65363,0.02830
3512.59346,0.02889
3510.53329,0.02951
3508.47312,0.03010
3506.41294,0.03066
3504.35277,0.03124
3502.29260,0.03173
3500.23243,0.03198
3498.17225,0.03243
3496.11208,0.03348
3494.05191,0.03459
3491.99174,0.03529
3489.93157,0.03586
3487.87139,0.03627
3485.81122,0.03633
3483.75105,0.03649
3481.69088,0.03706
3479.63071,0.03758
3477.57053,0.03778
3475.51036,0.03791
3473.45019,0.03807
3471.39002,0.03849
3469.32984,0.03934
3467.26967,0.04031
3465.20950,0.04101
3463.14933,0.04140
3461.08916,0.04172
3459.02898,0.04192
3456.96881,0.04193
3454.90864,0.04197
3452.84847,0.04232
3450.78830,0.04300
3448.72812,0.04381
3446.66795,0.04451
3444.60778,0.04497
3442.54761,0.04532
3440.48744,0.04595
3438.42726,0.04674
3436.36709,0.04718
3434.30692,0.04734
3432.24675,0.04776
3430.18657,0.04855
3428.12640,0.04946
3426.06623,0.05019
3424.00606,0.05058
3421.94589,0.05065
3419.88571,0.05070
3417.82554,0.05105
3415.76537,0.05156
3413.70520,0.05200
3411.64503,0.05238
3409.58485,0.05272
3407.52468,0.05313
3405.46451,0.05363
3403.40434,0.05396
3401.34416,0.05398
3399.28399,0.05418
3397.22382,0.05469
3395.16365,0.05503
3393.10348,0.05509
3391.04330,0.05528
3388.98313,0.05593
3386.92296,0.05677
3384.86279,0.05725
3382.80262,0.05731
3380.74244,0.05742
3378.68227,0.05777
3376.62210,0.05819
3374.56193,0.05849
3372.50176,0.05870
3370.44158,0.05905
3368.38141,0.05950
3366.32124,0.05980
3364.26107,0.05995
3362.20089,0.06012
3360.14072,0.06040
3358.08055,0.06066
3356.02038,0.06081
3353.96021,0.06108
3351.90003,0.06151
3349.83986,0.06192
3347.77969,0.06216
3345.71952,0.06233
3343.65935,0.06253
3341.59917,0.06270
3339.53900,0.06281
3337.47883,0.06304
3335.41866,0.06344
3333.35849,0.06388
3331.29831,0.06415
3329.23814,0.06412
3327.17797,0.06399
3325.11780,0.06393
3323.05762,0.06399
3320.99745,0.06407
3318.93728,0.06390
3316.87711,0.06381
3314.81694,0.06401
3312.75676,0.06416
3310.69659,0.06428
3308.63642,0.06467
3306.57625,0.06517
3304.51608,0.06545
3302.45590,0.06545
3300.39573,0.06525
3298.33556,0.06509
3296.27539,0.06529
3294.21521,0.06569
3292.15504,0.06591
3290.09487,0.06586
3288.03470,0.06569
3285.97453,0.06573
3283.91435,0.06612
3281.85418,0.06643
3279.79401,0.06637
3277.73384,0.06647
3275.67367,0.06687
3273.61349,0.06694
3271.55332,0.06663
3269.49315,0.06639
3267.43298,0.06624
3265.37281,0.06609
3263.31263,0.06592
3261.25246,0.06581
3259.19229,0.06579
3257.13212,0.06573
3255.07194,0.06550
3253.01177,0.06516
3250.95160,0.06484
3248.89143,0.06471
3246.83126,0.06507
3244.77108,0.06556
3242.71091,0.06550
3240.65074,0.06499
3238.59057,0.06451
3236.53040,0.06426
3234.47022,0.06414
3232.41005,0.06393
3230.34988,0.06367
3228.28971,0.06356
3226.22954,0.06350
3224.16936,0.06338
3222.10919,0.06328
3220.04902,0.06314
3217.98885,0.06290
3215.92867,0.06265
3213.86850,0.06242
3211.80833,0.06223
3209.74816,0.06212
3207.68799,0.06214
3205.62781,0.06215
3203.56764,0.06191
3201.50747,0.06157
3199.44730,0.06132
3197.38713,0.06110
3195.32695,0.06100
3193.26678,0.06100
3191.20661,0.06081
3189.14644,0.06044
3187.08626,0.06011
3185.02609,0.05977
3182.96592,0.05939
3180.90575,0.05914
3178.84558,0.05890
3176.78540,0.05851
3174.72523,0.05820
3172.66506,0.05809
3170.60489,0.05805
3168.54472,0.05777
3166.48454,0.05723
3164.42437,0.05688
3162.36420,0.05672
3160.30403,0.05635
3158.24386,0.05582
3156.18368,0.05556
3154.12351,0.05552
3152.06334,0.05534
3150.00317,0.05477
3147.94299,0.05407
3145.88282,0.05374
3143.82265,0.05361
3141.76248,0.05331
3139.70231,0.05296
3137.64213,0.05258
3135.58196,0.05212
3133.52179,0.05184
3131.46162,0.05176
3129.40145,0.05161
3127.34127,0.05122
3125.28110,0.05071
3123.22093,0.05035
3121.16076,0.05024
3119.10058,0.05011
3117.04041,0.04973
3114.98024,0.04927
3112.92007,0.04900
3110.85990,0.04886
3108.79972,0.04866
3106.73955,0.04837
3104.67938,0.04812
3102.61921,0.04776
3100.55904,0.04721
3098.49886,0.04668
3096.43869,0.04628
3094.37852,0.04597
3092.31835,0.04567
3090.25818,0.04547
3088.19800,0.04542
3086.13783,0.04541
3084.07766,0.04530
3082.01749,0.04502
3079.95731,0.04465
3077.89714,0.04443
3075.83697,0.04426
3073.77680,0.04393
3071.71663,0.04352
3069.65645,0.04309
3067.59628,0.04270
3065.53611,0.04240
3063.47594,0.04221
3061.41577,0.04210
3059.35559,0.04180
3057.29542,0.04137
3055.23525,0.04105
3053.17508,0.04074
3051.11491,0.04028
3049.05473,0.03984
3046.99456,0.03963
3044.93439,0.03946
3042.87422,0.03914
3040.81404,0.03878
3038.75387,0.03832
3036.69370,0.03767
3034.63353,0.03716
3032.57336,0.03697
3030.51318,0.03693
3028.45301,0.03680
3026.39284,0.03652
3024.33267,0.03623
3022.27250,0.03592
3020.21232,0.03550
3018.15215,0.03504
3016.09198,0.03486
3014.03181,0.03498
3011.97163,0.03506
3009.91146,0.03489
3007.85129,0.03458
3005.79112,0.03414
3003.73095,0.03360
3001.67077,0.03315
2999.61060,0.03297
2997.55043,0.03309
2995.49026,0.03314
2993.43009,0.03295
2991.36991,0.03275
2989.30974,0.03266
2987.24957,0.03262
2985.18940,0.03268
2983.12923,0.03288
2981.06905,0.03318
2979.00888,0.03351
2976.94871,0.03397
2974.88854,0.03468
2972.82836,0.03545
2970.76819,0.03610
2968.70802,0.03680
2966.64785,0.03766
2964.58768,0.03853
2962.52750,0.03935
2960.46733,0.04032
2958.40716,0.04147
2956.34699,0.04278
2954.28682,0.04424
2952.22664,0.04560
2950.16647,0.04671
2948.10630,0.04800
2946.04613,0.04974
2943.98596,0.05172
2941.92578,0.05391
2939.86561,0.05618
2937.80544,0.05845
2935.74527,0.06074
2933.68509,0.06299
2931.62492,0.06520
2929.56475,0.06734
2927.50458,0.06935
2925.44441,0.07146
2923.38423,0.07374
2921.32406,0.07579
2919.26389,0.07744
2917.20372,0.07803
2915.14355,0.07629
2913.08337,0.07244
2911.02320,0.06813
2908.96303,0.06440
2906.90286,0.06152
2904.84268,0.05954
2902.78251,0.05810
2900.72234,0.05669
2898.66217,0.05517
2896.60200,0.05380
2894.54182,0.05267
2892.48165,0.05149
2890.42148,0.05037
2888.36131,0.04959
2886.30114,0.04884
2884.24096,0.04797
2882.18079,0.04711
2880.12062,0.04628
2878.06045,0.04570
2876.00028,0.04554
2873.94010,0.04568
2871.87993,0.04590
2869.81976,0.04626
2867.75959,0.04681
2865.69941,0.04740
2863.63924,0.04831
2861.57907,0.04982
2859.51890,0.05172
2857.45873,0.05387
2855.39855,0.05631
2853.33838,0.05903
2851.27821,0.06165
2849.21804,0.06239
2847.15787,0.05963
2845.09769,0.05443
2843.03752,0.04924
2840.97735,0.04535
2838.91718,0.04266
2836.85700,0.04053
2834.79683,0.03868
2832.73666,0.03727
2830.67649,0.03635
2828.61632,0.03578
2826.55614,0.03536
2824.49597,0.03490
2822.43580,0.03435
2820.37563,0.03377
2818.31546,0.03324
2816.25528,0.03275
2814.19511,0.03227
2812.13494,0.03182
2810.07477,0.03138
2808.01460,0.03101
2805.95442,0.03067
2803.89425,0.03029
2801.83408,0.03005
2799.77391,0.03006
2797.71373,0.02999
2795.65356,0.02962
2793.59339,0.02918
2791.53322,0.02888
2789.47305,0.02867
2787.41287,0.02833
2785.35270,0.02797
2783.29253,0.02783
2781.23236,0.02778
2779.17219,0.02771
2777.11201,0.02763
2775.05184,0.02753
2772.99167,0.02741
2770.93150,0.02729
2768.87133,0.02710
2766.81115,0.02680
2764.75098,0.02663
2762.69081,0.02668
2760.63064,0.02672
2758.57046,0.02656
2756.51029,0.02630
2754.45012,0.02614
2752.38995,0.02609
2750.32978,0.02610
2748.26960,0.02602
2746.20943,0.02581
2744.14926,0.02574
2742.08909,0.02577
2740.02892,0.02558
2737.96874,0.02521
2735.90857,0.02494
2733.84840,0.02504
2731.78823,0.02521
2729.72805,0.02509
2727.66788,0.02498
2725.60771,0.02506
2723.54754,0.02508
2721.48737,0.02491
2719.42719,0.02468
2717.36702,0.02468
2715.30685,0.02478
2713.24668,0.02460
2711.18651,0.02424
2709.12633,0.02401
2707.06616,0.02402
2705.00599,0.02406
2702.94582,0.02392
2700.88565,0.02361
2698.82547,0.02337
2696.76530,0.02323
2694.70513,0.02305
2692.64496,0.02293
2690.58478,0.02293
2688.52461,0.02297
2686.46444,0.02309
2684.40427,0.02325
2682.34410,0.02326
2680.28392,0.02312
2678.22375,0.02305
2676.16358,0.02305
2674.10341,0.02289
2672.04324,0.02259
2669.98306,0.02226
2667.92289,0.02208
2665.86272,0.02208
2663.80255,0.02203
2661.74238,0.02187
2659.68220,0.02160
2657.62203,0.02131
2655.56186,0.02129
2653.50169,0.02137
2651.44151,0.02125
2649.38134,0.02114
2647.32117,0.02112
2645.26100,0.02096
2643.20083,0.02056
2641.14065,0.02019
2639.08048,0.02005
2637.02031,0.01997
2634.96014,0.01990
2632.89997,0.01980
2630.83979,0.01967
2628.77962,0.01960
2626.71945,0.01951
2624.65928,0.01933
2622.59910,0.01902
2620.53893,0.01880
2618.47876,0.01882
2616.41859,0.01895
2614.35842,0.01894
2612.29824,0.01866
2610.23807,0.01824
2608.17790,0.01798
2606.11773,0.01788
2604.05756,0.01766
2601.99738,0.01740
2599.93721,0.01724
2597.87704,0.01718
2595.81687,0.01731
2593.75670,0.01743
2591.69652,0.01727
2589.63635,0.01695
2587.57618,0.01677
2585.51601,0.01683
2583.45583,0.01689
2581.39566,0.01671
2579.33549,0.01654
2577.27532,0.01650
2575.21515,0.01638
2573.15497,0.01617
2571.09480,0.01602
2569.03463,0.01611
2566.97446,0.01611
2564.91429,0.01565
2562.85411,0.01523
2560.79394,0.01523
2558.73377,0.01526
2556.67360,0.01496
2554.61342,0.01471
2552.55325,0.01493
2550.49308,0.01535
2548.43291,0.01545
2546.37274,0.01530
2544.31256,0.01514
2542.25239,0.01506
2540.19222,0.01505
2538.13205,0.01480
2536.07188,0.01414
2534.01170,0.01368
2531.95153,0.01378
2529.89136,0.01403
2527.83119,0.01425
2525.77102,0.01448
2523.71084,0.01447
2521.65067,0.01421
2519.59050,0.01421
2517.53033,0.01451
2515.47015,0.01439
2513.40998,0.01375
2511.34981,0.01297
2509.28964,0.01238
2507.22947,0.01236
2505.16929,0.01272
2503.10912,0.01302
2501.04895,0.01309
2498.98878,0.01283
2496.92861,0.01242
2494.86843,0.01233
2492.80826,0.01256
2490.74809,0.01272
2488.68792,0.01268
2486.62775,0.01260
2484.56757,0.01250
2482.50740,0.01228
2480.44723,0.01226
2478.38706,0.01256
2476.32688,0.01270
2474.26671,0.01257
2472.20654,0.01251
2470.14637,0.01237
2468.08620,0.01199
2466.02602,0.01180
2463.96585,0.01188
2461.90568,0.01171
2459.84551,0.01144
2457.78534,0.01149
2455.72516,0.01161
2453.66499,0.01156
2451.60482,0.01158
2449.54465,0.01168
2447.48447,0.01166
2445.42430,0.01154
2443.36413,0.01148
2441.30396,0.01154
2439.24379,0.01145
2437.18361,0.01110
2435.12344,0.01082
2433.06327,0.01082
2431.00310,0.01090
2428.94293,0.01092
2426.88275,0.01108
2424.82258,0.01122
2422.76241,0.01102
2420.70224,0.01054
2418.64207,0.01021
2416.58189,0.01027
2414.52172,0.01049
2412.46155,0.01061
2410.40138,0.01065
2408.34120,0.01050
2406.28103,0.01012
2404.22086,0.00995
2402.16069,0.01023
2400.10052,0.01043
2398.04034,0.01002
2395.98017,0.00951
2393.92000,0.00944
2391.85983,0.00970
2389.79966,0.00989
2387.73948,0.00987
2385.67931,0.00982
2383.61914,0.00981
2381.55897,0.00971
2379.49880,0.00943
2377.43862,0.00926
2375.37845,0.00946
2373.31828,0.00976
2371.25811,0.00974
2369.19793,0.00937
2367.13776,0.00912
2365.07759,0.00931
2363.01742,0.00925
2360.95725,0.00977
2358.89707,0.01053
2356.83690,0.01077
2354.77673,0.01004
2352.71656,0.00962
2350.65639,0.01061
2348.59621,0.01106
2346.53604,0.00957
2344.47587,0.00964
2342.41570,0.01039
2340.35552,0.01024
2338.29535,0.00937
2336.23518,0.00847
2334.17501,0.00836
2332.11484,0.00856
2330.05466,0.00862
2327.99449,0.00867
2325.93432,0.00926
2323.87415,0.00915
2321.81398,0.00837
2319.75380,0.00794
2317.69363,0.00854
2315.63346,0.00925
2313.57329,0.00948
2311.51312,0.00894
2309.45294,0.00810
2307.39277,0.00789
2305.33260,0.00825
2303.27243,0.00860
2301.21225,0.00870
2299.15208,0.00878
2297.09191,0.00885
2295.03174,0.00878
2292.97157,0.00861
2290.91139,0.00850
2288.85122,0.00858
2286.79105,0.00873
2284.73088,0.00865
2282.67071,0.00831
2280.61053,0.00788
2278.55036,0.00758
2276.49019,0.00747
2274.43002,0.00729
2272.36984,0.00709
2270.30967,0.00692
2268.24950,0.00659
2266.18933,0.00646
2264.12916,0.00688
2262.06898,0.00725
2260.00881,0.00707
2257.94864,0.00676
2255.88847,0.00666
2253.82830,0.00687
2251.76812,0.00754
2249.70795,0.00793
2247.64778,0.00697
2245.58761,0.00541
2243.52744,0.00526
2241.46726,0.00640
2239.40709,0.00705
2237.34692,0.00692
2235.28675,0.00638
2233.22657,0.00601
2231.16640,0.00637
2229.10623,0.00660
2227.04606,0.00596
2224.98589,0.00537
2222.92571,0.00572
2220.86554,0.00649
2218.80537,0.00661
2216.74520,0.00596
2214.68503,0.00536
2212.62485,0.00503
2210.56468,0.00476
2208.50451,0.00533
2206.44434,0.00629
2204.38417,0.00605
2202.32399,0.00512
2200.26382,0.00503
2198.20365,0.00538
2196.14348,0.00471
2194.08330,0.00408
2192.02313,0.00463
2189.96296,0.00523
2187.90279,0.00523
2185.84262,0.00460
2183.78244,0.00398
2181.72227,0.00369
2179.66210,0.00341
2177.60193,0.00338
2175.54176,0.00368
2173.48158,0.00349
2171.42141,0.00276
2169.36124,0.00298
2167.30107,0.00417
2165.24089,0.00489
2163.18072,0.00476
2161.12055,0.00423
2159.06038,0.00362
2157.00021,0.00299
2154.94003,0.00234
2152.87986,0.00263
2150.81969,0.00417
2148.75952,0.00500
2146.69935,0.00445
2144.63917,0.00359
2142.57900,0.00277
2140.51883,0.00228
2138.45866,0.00282
2136.39849,0.00387
2134.33831,0.00397
2132.27814,0.00364
2130.21797,0.00422
2128.15780,0.00486
2126.09762,0.00453
2124.03745,0.00401
2121.97728,0.00402
2119.91711,0.00431
2117.85694,0.00474
2115.79676,0.00521
2113.73659,0.00567
2111.67642,0.00619
2109.61625,0.00644
2107.55608,0.00617
2105.49590,0.00558
2103.43573,0.00525
2101.37556,0.00563
2099.31539,0.00603
2097.25521,0.00558
2095.19504,0.00457
2093.13487,0.00410
2091.07470,0.00444
2089.01453,0.00510
2086.95435,0.00565
2084.89418,0.00592
2082.83401,0.00606
2080.77384,0.00603
2078.71367,0.00581
2076.65349,0.00535
2074.59332,0.00447
2072.53315,0.00357
2070.47298,0.00339
2068.41281,0.00388
2066.35263,0.00444
2064.29246,0.00489
2062.23229,0.00540
2060.17212,0.00581
2058.11194,0.00557
2056.05177,0.00491
2053.99160,0.00489
2051.93143,0.00563
2049.87126,0.00559
2047.81108,0.00406
2045.75091,0.00263
2043.69074,0.00261
2041.63057,0.00338
2039.57040,0.00386
2037.51022,0.00399
2035.45005,0.00388
2033.38988,0.00312
2031.32971,0.00196
2029.26954,0.00133
2027.20936,0.00168
2025.14919,0.00257
2023.08902,0.00316
2021.02885,0.00335
2018.96867,0.00291
2016.90850,0.00190
2014.84833,0.00158
2012.78816,0.00229
2010.72799,0.00269
2008.66781,0.00167
2006.60764,0.00056
2004.54747,0.00113
2002.48730,0.00179
2000.42713,0.00109
1998.36695,0.00047
1996.30678,0.00108
1994.24661,0.00228
1992.18644,0.00296
1990.12626,0.00264
1988.06609,0.00212
1986.00592,0.00188
1983.94575,0.00224
1981.88558,0.00304
1979.82540,0.00295
1977.76523,0.00207
1975.70506,0.00152
1973.64489,0.00107
1971.58472,0.00082
1969.52454,0.00117
1967.46437,0.00177
1965.40420,0.00225
1963.34403,0.00235
1961.28386,0.00178
1959.22368,0.00094
1957.16351,0.00054
1955.10334,0.00025
1953.04317,0.00000
1950.98299,0.00075
1948.92282,0.00227
1946.86265,0.00294
1944.80248,0.00249
1942.74231,0.00210
1940.68213,0.00229
1938.62196,0.00278
1936.56179,0.00332
1934.50162,0.00351
1932.44145,0.00327
1930.38127,0.00287
1928.32110,0.00241
1926.26093,0.00222
1924.20076,0.00255
1922.14059,0.00290
1920.08041,0.00276
1918.02024,0.00226
1915.96007,0.00205
1913.89990,0.00243
1911.83972,0.00282
1909.77955,0.00250
1907.71938,0.00178
1905.65921,0.00154
1903.59904,0.00180
1901.53886,0.00214
1899.47869,0.00227
1897.41852,0.00225
1895.35835,0.00213
1893.29818,0.00183
1891.23800,0.00150
1889.17783,0.00124
1887.11766,0.00110
1885.05749,0.00106
1882.99731,0.00087
1880.93714,0.00071
1878.87697,0.00098
1876.81680,0.00145
1874.75663,0.00163
1872.69645,0.00142
1870.63628,0.00100
1868.57611,0.00082
1866.51594,0.00107
1864.45577,0.00138
1862.39559,0.00149
1860.33542,0.00144
1858.27525,0.00126
1856.21508,0.00094
1854.15491,0.00069
1852.09473,0.00088
1850.03456,0.00139
1847.97439,0.00162
1845.91422,0.00139
1843.85404,0.00104
1841.79387,0.00082
1839.73370,0.00071
1837.67353,0.00066
1835.61336,0.00061
1833.55318,0.00052
1831.49301,0.00046
1829.43284,0.00063
1827.37267,0.00091
1825.31250,0.00091
1823.25232,0.00068
1821.19215,0.00059
1819.13198,0.00067
1817.07181,0.00063
1815.01163,0.00040
1812.95146,0.00010
1810.89129,0.00000
1808.83112,0.00015
1806.77095,0.00026
1804.71077,0.00009
1802.65060,-0.00008
1800.59043,0.00001
1798.53026,0.00026
1796.47009,0.00042
1794.40991,0.00037
1792.34974,0.00016
1790.28957,0.00013
1788.22940,0.00033
1786.16923,0.00050
1784.10905,0.00043
1782.04888,0.00019
1779.98871,0.00000
1777.92854,-0.00015
1775.86836,-0.00016
1773.80819,-0.00004
1771.74802,0.00008
1769.68785,0.00012
1767.62768,0.00026
1765.56750,0.00072
1763.50733,0.00145
1761.44716,0.00215
1759.38699,0.00263
1757.32682,0.00319
1755.26664,0.00405
1753.20647,0.00511
1751.14630,0.00653
1749.08613,0.00859
1747.02596,0.01113
1744.96578,0.01397
1742.90561,0.01719
1740.84544,0.02108
1738.78527,0.02548
1736.72509,0.02952
1734.66492,0.03303
1732.60475,0.03577
1730.54458,0.03713
1728.48441,0.03755
1726.42423,0.03744
1724.36406,0.03696
1722.30389,0.03635
1720.24372,0.03573
1718.18355,0.03503
1716.12337,0.03459
1714.06320,0.03455
1712.00303,0.03439
1709.94286,0.03400
1707.88268,0.03361
1705.82251,0.03322
1703.76234,0.03269
1701.70217,0.03175
1699.64200,0.03035
1697.58182,0.02940
1695.52165,0.02931
1693.46148,0.02945
1691.40131,0.02929
1689.34114,0.02892
1687.28096,0.02875
1685.22079,0.02880
1683.16062,0.02884
1681.10045,0.02905
1679.04028,0.02954
1676.98010,0.02997
1674.91993,0.03018
1672.85976,0.03057
1670.79959,0.03144
1668.73941,0.03257
1666.67924,0.03362
1664.61907,0.03468
1662.55890,0.03598
1660.49873,0.03746
1658.43855,0.03892
1656.37838,0.04028
1654.31821,0.04150
1652.25804,0.04255
1650.19787,0.04324
1648.13769,0.04356
1646.07752,0.04372
1644.01735,0.04400
1641.95718,0.04447
1639.89701,0.04505
1637.83683,0.04574
1635.77666,0.04661
1633.71649,0.04744
1631.65632,0.04806
1629.59614,0.04862
1627.53597,0.04930
1625.47580,0.05002
1623.41563,0.05066
1621.35546,0.05128
1619.29528,0.05198
1617.23511,0.05281
1615.17494,0.05381
1613.11477,0.05480
1611.05460,0.05548
1608.99442,0.05580
1606.93425,0.05600
1604.87408,0.05614
1602.81391,0.05599
1600.75373,0.05535
1598.69356,0.05421
1596.63339,0.05273
1594.57322,0.05109
1592.51305,0.04936
1590.45287,0.04760
1588.39270,0.04583
1586.33253,0.04393
1584.27236,0.04188
1582.21219,0.03997
1580.15201,0.03845
1578.09184,0.03691
1576.03167,0.03478
1573.97150,0.03285
1571.91133,0.03170
1569.85115,0.03053
1567.79098,0.02917
1565.73081,0.02820
1563.67064,0.02762
1561.61046,0.02718
1559.55029,0.02664
1557.49012,0.02612
1555.42995,0.02591
1553.36978,0.02580
1551.30960,0.02574
1549.24943,0.02574
1547.18926,0.02577
1545.12909,0.02574
1543.06892,0.02556
1541.00874,0.02511
1538.94857,0.02454
1536.88840,0.02424
1534.82823,0.02387
1532.76805,0.02321
1530.70788,0.02256
1528.64771,0.02185
1526.58754,0.02092
1524.52737,0.01992
1522.46719,0.01904
1520.40702,0.01862
1518.34685,0.01888
1516.28668,0.01927
1514.22651,0.01930
1512.16633,0.01883
1510.10616,0.01777
1508.04599,0.01600
1505.98582,0.01392
1503.92565,0.01259
1501.86547,0.01187
1499.80530,0.01115
1497.74513,0.01002
1495.68496,0.00870
1493.62478,0.00772
1491.56461,0.00682
1489.50444,0.00555
1487.44427,0.00445
1485.38410,0.00403
1483.32392,0.00405
1481.26375,0.00424
1479.20358,0.00471
1477.14341,0.00581
1475.08324,0.00796
1473.02306,0.01119
1470.96289,0.01463
1468.90272,0.01742
1466.84255,0.01990
1464.78238,0.02238
1462.72220,0.02436
1460.66203,0.02560
1458.60186,0.02679
1456.54169,0.02859
1454.48151,0.03037
1452.42134,0.03161
1450.36117,0.03266
1448.30100,0.03374
1446.24083,0.03475
1444.18065,0.03556
1442.12048,0.03599
1440.06031,0.03591
1438.00014,0.03524
1435.93997,0.03405
1433.87979,0.03277
1431.81962,0.03156
1429.75945,0.03038
1427.69928,0.02948
1425.63910,0.02897
1423.57893,0.02864
1421.51876,0.02842
1419.45859,0.02826
1417.39842,0.02813
1415.33824,0.02817
1413.27807,0.02828
1411.21790,0.02827
1409.15773,0.02810
1407.09756,0.02775
1405.03738,0.02728
1402.97721,0.02695
1400.91704,0.02691
1398.85687,0.02714
1396.79670,0.02756
1394.73652,0.02788
1392.67635,0.02802
1390.61618,0.02821
1388.55601,0.02860
1386.49583,0.02918
1384.43566,0.02991
1382.37549,0.03078
1380.31532,0.03178
1378.25515,0.03275
1376.19497,0.03350
1374.13480,0.03410
1372.07463,0.03476
1370.01446,0.03545
1367.95429,0.03602
1365.89411,0.03636
1363.83394,0.03638
1361.77377,0.03618
1359.71360,0.03610
1357.65343,0.03629
1355.59325,0.03665
1353.53308,0.03706
1351.47291,0.03742
1349.41274,0.03769
1347.35256,0.03798
1345.29239,0.03833
1343.23222,0.03860
1341.17205,0.03876
1339.11188,0.03892
1337.05170,0.03924
1334.99153,0.03966
1332.93136,0.04011
1330.87119,0.04056
1328.81102,0.04103
1326.75084,0.04158
1324.69067,0.04219
1322.63050,0.04269
1320.57033,0.04300
1318.51015,0.04312
1316.44998,0.04312
1314.38981,0.04298
1312.32964,0.04261
1310.26947,0.04198
1308.20929,0.04101
1306.14912,0.03955
1304.08895,0.03774
1302.02878,0.03585
1299.96861,0.03400
1297.90843,0.03223
1295.84826,0.03047
1293.78809,0.02873
1291.72792,0.02713
1289.66775,0.02594
1287.60757,0.02527
1285.54740,0.02496
1283.48723,0.02477
1281.42706,0.02458
1279.36688,0.02443
1277.30671,0.02441
1275.24654,0.02459
1273.18637,0.02498
1271.12620,0.02551
1269.06602,0.02626
1267.00585,0.02723
1264.94568,0.02809
1262.88551,0.02863
1260.82534,0.02909
1258.76516,0.02977
1256.70499,0.03059
1254.64482,0.03132
1252.58465,0.03198
1250.52447,0.03261
1248.46430,0.03321
1246.40413,0.03383
1244.34396,0.03445
1242.28379,0.03516
1240.22361,0.03599
1238.16344,0.03673
1236.10327,0.03730
1234.04310,0.03781
1231.98293,0.03832
1229.92275,0.03881
1227.86258,0.03934
1225.80241,0.03989
1223.74224,0.04036
1221.68207,0.04089
1219.62189,0.04154
1217.56172,0.04216
1215.50155,0.04279
1213.44138,0.04345
1211.38120,0.04415
1209.32103,0.04492
1207.26086,0.04568
1205.20069,0.04638
1203.14052,0.04707
1201.08034,0.04779
1199.02017,0.04832
1196.96000,0.04848
1194.89983,0.04843
1192.83966,0.04819
1190.77948,0.04770
1188.71931,0.04693
1186.65914,0.04581
1184.59897,0.04465
1182.53880,0.04394
1180.47862,0.04362
1178.41845,0.04344
1176.35828,0.04324
1174.29811,0.04315
1172.23793,0.04331
1170.17776,0.04355
1168.11759,0.04364
1166.05742,0.04351
1163.99725,0.04330
1161.93707,0.04301
1159.87690,0.04262
1157.81673,0.04218
1155.75656,0.04161
1153.69639,0.04087
1151.63621,0.04012
1149.57604,0.03948
1147.51587,0.03895
1145.45570,0.03825
1143.39552,0.03746
1141.33535,0.03669
1139.27518,0.03570
1137.21501,0.03474
1135.15484,0.03430
1133.09466,0.03437
1131.03449,0.03475
1128.97432,0.03523
1126.91415,0.03571
1124.85398,0.03644
1122.79380,0.03779
1120.73363,0.03981
1118.67346,0.04201
1116.61329,0.04410
1114.55312,0.04655
1112.49294,0.04971
1110.43277,0.05319
1108.37260,0.05656
1106.31243,0.05978
1104.25225,0.06267
1102.19208,0.06499
1100.13191,0.06672
1098.07174,0.06799
1096.01157,0.06909
1093.95139,0.07034
1091.89122,0.07190
1089.83105,0.07375
1087.77088,0.07586
1085.71071,0.07829
1083.65053,0.08097
1081.59036,0.08354
1079.53019,0.08570
1077.47002,0.08775
1075.40985,0.08988
1073.34967,0.09196
1071.28950,0.09385
1069.22933,0.09560
1067.16916,0.09738
1065.10898,0.09915
1063.04881,0.10083
1060.98864,0.10238
1058.92847,0.10372
1056.86830,0.10511
1054.80812,0.10676
1052.74795,0.10860
1050.68778,0.11052
1048.62761,0.11234
1046.56744,0.11401
1044.50726,0.11548
1042.44709,0.11691
1040.38692,0.11863
1038.32675,0.12055
1036.26657,0.12250
1034.20640,0.12457
1032.14623,0.12686
1030.08606,0.12892
1028.02589,0.13027
1025.96571,0.13102
1023.90554,0.13146
1021.84537,0.13196
1019.78520,0.13231
1017.72503,0.13204
1015.66485,0.13123
1013.60468,0.12995
1011.54451,0.12811
1009.48434,0.12607
1007.42417,0.12400
1005.36399,0.12152
1003.30382,0.11865
1001.24365,0.11566
999.18348,0.11255
997.12330,0.10925
995.06313,0.10607
993.00296,0.10320
990.94279,0.10026
988.88262,0.09673
986.82244,0.09267
984.76227,0.08859
982.70210,0.08478
980.64193,0.08110
978.58176,0.07767
976.52158,0.07451
974.46141,0.07104
972.40124,0.06740
970.34107,0.06430
968.28089,0.06162
966.22072,0.05911
964.16055,0.05686
962.10038,0.05477
960.04021,0.05249
957.98003,0.04996
955.91986,0.04740
953.85969,0.04482
951.79952,0.04208
949.73935,0.03939
947.67917,0.03703
945.61900,0.03502
943.55883,0.03327
941.49866,0.03173
939.43849,0.03053
937.37831,0.02971
935.31814,0.02915
933.25797,0.02879
931.19780,0.02838
929.13762,0.02775
927.07745,0.02711
925.01728,0.02626
922.95711,0.02485
920.89694,0.02323
918.83676,0.02184
916.77659,0.02050
914.71642,0.01906
912.65625,0.01770
910.59608,0.01627
908.53590,0.01461
906.47573,0.01302
904.41556,0.01177
902.35539,0.01100
900.29522,0.01086
898.23504,0.01137
896.17487,0.01165
894.11470,0.01104
892.05453,0.01011
889.99435,0.00953
887.93418,0.00943
885.87401,0.00932
883.81384,0.00879
881.75367,0.00836
879.69349,0.00870
877.63332,0.00946
875.57315,0.00979
873.51298,0.00966
871.45281,0.00980
869.39263,0.01009
867.33246,0.00971
865.27229,0.00883
863.21212,0.00787
861.15194,0.00670
859.09177,0.00519
857.03160,0.00370
854.97143,0.00280
852.91126,0.00240
850.85108,0.00181
848.79091,0.00076
846.73074,0.00000
844.67057,-0.00017
842.61040,0.00030
840.55022,0.00131
838.49005,0.00230
836.42988,0.00284
834.36971,0.00310
832.30954,0.00340
830.24936,0.00358
828.18919,0.00367
826.12902,0.00417
824.06885,0.00503
822.00867,0.00561
819.94850,0.00554
817.88833,0.00546
815.82816,0.00556
813.76799,0.00518
811.70781,0.00441
809.64764,0.00364
807.58747,0.00322
805.52730,0.00307
803.46713,0.00268
801.40695,0.00203
799.34678,0.00125
797.28661,0.00048
795.22644,0.00000
793.16627,-0.00039
791.10609,0.00015
789.04592,0.00119
786.98575,0.00204
784.92558,0.00293
782.86540,0.00404
780.80523,0.00481
778.74506,0.00468
776.68489,0.00438
774.62472,0.00462
772.56454,0.00500
770.50437,0.00551
768.44420,0.00633
766.38403,0.00730
764.32386,0.00853
762.26368,0.01011
760.20351,0.01190
758.14334,0.01349
756.08317,0.01358
754.02299,0.01207
751.96282,0.01035
749.90265,0.00901
747.84248,0.00787
745.78231,0.00673
743.72213,0.00536
741.66196,0.00389
739.60179,0.00273
737.54162,0.00195
735.48145,0.00154
733.42127,0.00153
731.36110,0.00214
729.30093,0.00301
727.24076,0.00326
725.18059,0.00322
723.12041,0.00365
721.06024,0.00431
719.00007,0.00481
716.93990,0.00424
714.87972,0.00327
712.81955,0.00269
710.75938,0.00201
708.69921,0.00112
706.63904,0.00036
704.57886,-0.00019
702.51869,-0.00030
700.45852,0.00009
698.39835,0.00032
696.33818,0.00015
694.27800,0.00025
692.21783,0.00067
690.15766,0.00081
688.09749,0.00057
686.03731,-0.00010
683.97714,-0.00137
681.91697,-0.00253
679.85680,-0.00273
677.79663,-0.00240
675.73645,-0.00203
673.67628,-0.00143
671.61611,-0.00134
669.55594,-0.00411
667.49577,-0.00574
665.43559,-0.00163
663.37542,-0.00031
661.31525,0.00079
659.25508,0.00154
657.19491,0.00009
655.13473,-0.00198
653.07456,-0.00201
651.01439,-0.00073
648.95422,0.00000
646.89404,0.00053
644.83387,0.00064
642.77370,-0.00051
640.71353,-0.00222
638.65336,-0.00297
636.59318,-0.00259
634.53301,-0.00248
632.47284,-0.00268
630.41267,-0.00200
628.35250,-0.00026
626.29232,0.00179
624.23215,0.00301
622.17198,0.00479
620.11181,0.00665
618.05164,0.00499
615.99146,0.00303
613.93129,0.00389
611.87112,0.00435
609.81095,0.00354
607.75077,0.00247
605.69060,0.00197
603.63043,0.00189
601.57026,0.00099
599.51009,0.00000
