Created as New Dataset,Sample 037 By Analyst Date Friday, March 28 2025
cm-1,A
4000.00,0.0008
3999.00,0.0008
3998.00,0.0008
3997.00,0.0008
3996.00,0.0007
3995.00,0.0007
3994.00,0.0007
3993.00,0.0008
3992.00,0.0008
3991.00,0.0008
3990.00,0.0008
3989.00,0.0008
3988.00,0.0008
3987.00,0.0008
3986.00,0.0008
3985.00,0.0008
3984.00,0.0008
3983.00,0.0008
3982.00,0.0008
3981.00,0.0008
3980.00,0.0008
3979.00,0.0008
3978.00,0.0008
3977.00,0.0008
3976.00,0.0008
3975.00,0.0008
3974.00,0.0008
3973.00,0.0008
3972.00,0.0008
3971.00,0.0008
3970.00,0.0008
3969.00,0.0008
3968.00,0.0008
3967.00,0.0008
3966.00,0.0008
3965.00,0.0008
3964.00,0.0008
3963.00,0.0008
3962.00,0.0008
3961.00,0.0008
3960.00,0.0008
3959.00,0.0008
3958.00,0.0008
3957.00,0.0008
3956.00,0.0008
3955.00,0.0008
3954.00,0.0008
3953.00,0.0008
3952.00,0.0008
3951.00,0.0008
3950.00,0.0008
3949.00,0.0009
3948.00,0.0009
3947.00,0.0009
3946.00,0.0009
3945.00,0.0009
3944.00,0.0009
3943.00,0.0008
3942.00,0.0008
3941.00,0.0008
3940.00,0.0008
3939.00,0.0008
3938.00,0.0008
3937.00,0.0008
3936.00,0.0008
3935.00,0.0009
3934.00,0.0009
3933.00,0.0009
3932.00,0.0009
3931.00,0.0009
3930.00,0.0009
3929.00,0.0009
3928.00,0.0009
3927.00,0.0008
3926.00,0.0008
3925.00,0.0008
3924.00,0.0008
3923.00,0.0009
3922.00,0.0009
3921.00,0.0009
3920.00,0.0009
3919.00,0.0009
3918.00,0.0009
3917.00,0.0009
3916.00,0.0009
3915.00,0.0009
3914.00,0.0008
3913.00,0.0008
3912.00,0.0008
3911.00,0.0008
3910.00,0.0009
3909.00,0.0009
3908.00,0.0009
3907.00,0.0009
3906.00,0.0009
3905.00,0.0010
3904.00,0.0010
3903.00,0.0010
3902.00,0.0010
3901.00,0.0010
3900.00,0.0010
3899.00,0.0010
3898.00,0.0009
3897.00,0.0009
3896.00,0.0009
3895.00,0.0009
3894.00,0.0009
3893.00,0.0009
3892.00,0.0009
3891.00,0.0009
3890.00,0.0010
3889.00,0.0010
3888.00,0.0009
3887.00,0.0009
3886.00,0.0009
3885.00,0.0009
3884.00,0.0009
3883.00,0.0009
3882.00,0.0009
3881.00,0.0009
3880.00,0.0009
3879.00,0.0010
3878.00,0.0010
3877.00,0.0009
3876.00,0.0009
3875.00,0.0009
3874.00,0.0009
3873.00,0.0010
3872.00,0.0010
3871.00,0.0010
3870.00,0.0010
3869.00,0.0010
3868.00,0.0010
3867.00,0.0010
3866.00,0.0009
3865.00,0.0009
3864.00,0.0009
3863.00,0.0010
3862.00,0.0010
3861.00,0.0009
3860.00,0.0009
3859.00,0.0009
3858.00,0.0010
3857.00,0.0010
3856.00,0.0011
3855.00,0.0010
3854.00,0.0010
3853.00,0.0010
3852.00,0.0010
3851.00,0.0010
3850.00,0.0010
3849.00,0.0009
3848.00,0.0009
3847.00,0.0009
3846.00,0.0009
3845.00,0.0009
3844.00,0.0009
3843.00,0.0009
3842.00,0.0009
3841.00,0.0009
3840.00,0.0009
3839.00,0.0009
3838.00,0.0009
3837.00,0.0009
3836.00,0.0009
3835.00,0.0010
3834.00,0.0009
3833.00,0.0009
3832.00,0.0009
3831.00,0.0009
3830.00,0.0009
3829.00,0.0009
3828.00,0.0009
3827.00,0.0009
3826.00,0.0009
3825.00,0.0009
3824.00,0.0009
3823.00,0.0008
3822.00,0.0008
3821.00,0.0008
3820.00,0.0009
3819.00,0.0009
3818.00,0.0009
3817.00,0.0009
3816.00,0.0009
3815.00,0.0009
3814.00,0.0010
3813.00,0.0009
3812.00,0.0009
3811.00,0.0009
3810.00,0.0009
3809.00,0.0009
3808.00,0.0009
3807.00,0.0009
3806.00,0.0009
3805.00,0.0009
3804.00,0.0009
3803.00,0.0009
3802.00,0.0009
3801.00,0.0009
3800.00,0.0009
3799.00,0.0009
3798.00,0.0009
3797.00,0.0009
3796.00,0.0009
3795.00,0.0010
3794.00,0.0010
3793.00,0.0010
3792.00,0.0010
3791.00,0.0010
3790.00,0.0010
3789.00,0.0010
3788.00,0.0010
3787.00,0.0009
3786.00,0.0009
3785.00,0.0009
3784.00,0.0010
3783.00,0.0010
3782.00,0.0010
3781.00,0.0010
3780.00,0.0010
3779.00,0.0010
3778.00,0.0010
3777.00,0.0009
3776.00,0.0009
3775.00,0.0009
3774.00,0.0009
3773.00,0.0009
3772.00,0.0009
3771.00,0.0009
3770.00,0.0009
3769.00,0.0009
3768.00,0.0010
3767.00,0.0010
3766.00,0.0010
3765.00,0.0010
3764.00,0.0010
3763.00,0.0010
3762.00,0.0009
3761.00,0.0009
3760.00,0.0009
3759.00,0.0009
3758.00,0.0010
3757.00,0.0010
3756.00,0.0010
3755.00,0.0011
3754.00,0.0011
3753.00,0.0011
3752.00,0.0011
3751.00,0.0010
3750.00,0.0010
3749.00,0.0010
3748.00,0.0011
3747.00,0.0011
3746.00,0.0011
3745.00,0.0011
3744.00,0.0012
3743.00,0.0012
3742.00,0.0012
3741.00,0.0012
3740.00,0.0011
3739.00,0.0011
3738.00,0.0012
3737.00,0.0012
3736.00,0.0011
3735.00,0.0011
3734.00,0.0010
3733.00,0.0010
3732.00,0.0010
3731.00,0.0010
3730.00,0.0010
3729.00,0.0011
3728.00,0.0011
3727.00,0.0011
3726.00,0.0012
3725.00,0.0011
3724.00,0.0011
3723.00,0.0011
3722.00,0.0010
3721.00,0.0010
3720.00,0.0010
3719.00,0.0010
3718.00,0.0010
3717.00,0.0010
3716.00,0.0010
3715.00,0.0011
3714.00,0.0011
3713.00,0.0011
3712.00,0.0011
3711.00,0.0011
3710.00,0.0011
3709.00,0.0011
3708.00,0.0010
3707.00,0.0010
3706.00,0.0010
3705.00,0.0010
3704.00,0.0009
3703.00,0.0009
3702.00,0.0009
3701.00,0.0009
3700.00,0.0010
3699.00,0.0010
3698.00,0.0010
3697.00,0.0010
3696.00,0.0010
3695.00,0.0010
3694.00,0.0010
3693.00,0.0010
3692.00,0.0010
3691.00,0.0009
3690.00,0.0009
3689.00,0.0009
3688.00,0.0010
3687.00,0.0010
3686.00,0.0010
3685.00,0.0010
3684.00,0.0010
3683.00,0.0010
3682.00,0.0011
3681.00,0.0011
3680.00,0.0011
3679.00,0.0011
3678.00,0.0011
3677.00,0.0011
3676.00,0.0011
3675.00,0.0011
3674.00,0.0011
3673.00,0.0011
3672.00,0.0011
3671.00,0.0010
3670.00,0.0011
3669.00,0.0011
3668.00,0.0011
3667.00,0.0011
3666.00,0.0011
3665.00,0.0011
3664.00,0.0011
3663.00,0.0011
3662.00,0.0010
3661.00,0.0010
3660.00,0.0010
3659.00,0.0010
3658.00,0.0010
3657.00,0.0010
3656.00,0.0010
3655.00,0.0011
3654.00,0.0011
3653.00,0.0011
3652.00,0.0011
3651.00,0.0011
3650.00,0.0011
3649.00,0.0011
3648.00,0.0012
3647.00,0.0012
3646.00,0.0012
3645.00,0.0011
3644.00,0.0011
3643.00,0.0011
3642.00,0.0011
3641.00,0.0011
3640.00,0.0010
3639.00,0.0010
3638.00,0.0010
3637.00,0.0010
3636.00,0.0010
3635.00,0.0010
3634.00,0.0010
3633.00,0.0010
3632.00,0.0010
3631.00,0.0011
3630.00,0.0011
3629.00,0.0011
3628.00,0.0011
3627.00,0.0011
3626.00,0.0010
3625.00,0.0010
3624.00,0.0010
3623.00,0.0010
3622.00,0.0010
3621.00,0.0010
3620.00,0.0009
3619.00,0.0009
3618.00,0.0010
3617.00,0.0010
3616.00,0.0011
3615.00,0.0011
3614.00,0.0011
3613.00,0.0011
3612.00,0.0011
3611.00,0.0011
3610.00,0.0011
3609.00,0.0011
3608.00,0.0011
3607.00,0.0010
3606.00,0.0010
3605.00,0.0010
3604.00,0.0010
3603.00,0.0010
3602.00,0.0010
3601.00,0.0010
3600.00,0.0010
3599.00,0.0010
3598.00,0.0010
3597.00,0.0010
3596.00,0.0010
3595.00,0.0010
3594.00,0.0010
3593.00,0.0010
3592.00,0.0011
3591.00,0.0011
3590.00,0.0011
3589.00,0.0011
3588.00,0.0011
3587.00,0.0011
3586.00,0.0011
3585.00,0.0011
3584.00,0.0010
3583.00,0.0010
3582.00,0.0010
3581.00,0.0010
3580.00,0.0010
3579.00,0.0010
3578.00,0.0009
3577.00,0.0009
3576.00,0.0009
3575.00,0.0009
3574.00,0.0009
3573.00,0.0009
3572.00,0.0009
3571.00,0.0010
3570.00,0.0010
3569.00,0.0011
3568.00,0.0011
3567.00,0.0011
3566.00,0.0011
3565.00,0.0011
3564.00,0.0011
3563.00,0.0011
3562.00,0.0011
3561.00,0.0011
3560.00,0.0011
3559.00,0.0010
3558.00,0.0010
3557.00,0.0009
3556.00,0.0009
3555.00,0.0009
3554.00,0.0009
3553.00,0.0009
3552.00,0.0009
3551.00,0.0009
3550.00,0.0010
3549.00,0.0010
3548.00,0.0010
3547.00,0.0010
3546.00,0.0010
3545.00,0.0010
3544.00,0.0010
3543.00,0.0010
3542.00,0.0009
3541.00,0.0009
3540.00,0.0009
3539.00,0.0009
3538.00,0.0009
3537.00,0.0009
3536.00,0.0009
3535.00,0.0009
3534.00,0.0009
3533.00,0.0009
3532.00,0.0009
3531.00,0.0009
3530.00,0.0009
3529.00,0.0010
3528.00,0.0010
3527.00,0.0010
3526.00,0.0010
3525.00,0.0010
3524.00,0.0010
3523.00,0.0009
3522.00,0.0009
3521.00,0.0009
3520.00,0.0009
3519.00,0.0009
3518.00,0.0008
3517.00,0.0008
3516.00,0.0008
3515.00,0.0008
3514.00,0.0008
3513.00,0.0008
3512.00,0.0008
3511.00,0.0008
3510.00,0.0009
3509.00,0.0009
3508.00,0.0009
3507.00,0.0009
3506.00,0.0009
3505.00,0.0009
3504.00,0.0009
3503.00,0.0009
3502.00,0.0009
3501.00,0.0009
3500.00,0.0009
3499.00,0.0009
3498.00,0.0009
3497.00,0.0008
3496.00,0.0008
3495.00,0.0008
3494.00,0.0008
3493.00,0.0008
3492.00,0.0008
3491.00,0.0008
3490.00,0.0008
3489.00,0.0009
3488.00,0.0009
3487.00,0.0009
3486.00,0.0009
3485.00,0.0008
3484.00,0.0008
3483.00,0.0008
3482.00,0.0008
3481.00,0.0008
3480.00,0.0008
3479.00,0.0008
3478.00,0.0008
3477.00,0.0008
3476.00,0.0008
3475.00,0.0008
3474.00,0.0008
3473.00,0.0008
3472.00,0.0008
3471.00,0.0008
3470.00,0.0008
3469.00,0.0008
3468.00,0.0008
3467.00,0.0007
3466.00,0.0007
3465.00,0.0007
3464.00,0.0007
3463.00,0.0008
3462.00,0.0008
3461.00,0.0008
3460.00,0.0008
3459.00,0.0008
3458.00,0.0008
3457.00,0.0008
3456.00,0.0008
3455.00,0.0008
3454.00,0.0008
3453.00,0.0008
3452.00,0.0008
3451.00,0.0008
3450.00,0.0008
3449.00,0.0008
3448.00,0.0008
3447.00,0.0008
3446.00,0.0008
3445.00,0.0008
3444.00,0.0008
3443.00,0.0008
3442.00,0.0008
3441.00,0.0008
3440.00,0.0008
3439.00,0.0008
3438.00,0.0008
3437.00,0.0008
3436.00,0.0008
3435.00,0.0008
3434.00,0.0008
3433.00,0.0008
3432.00,0.0008
3431.00,0.0008
3430.00,0.0008
3429.00,0.0008
3428.00,0.0007
3427.00,0.0007
3426.00,0.0008
3425.00,0.0008
3424.00,0.0008
3423.00,0.0008
3422.00,0.0008
3421.00,0.0008
3420.00,0.0008
3419.00,0.0008
3418.00,0.0008
3417.00,0.0008
3416.00,0.0008
3415.00,0.0008
3414.00,0.0008
3413.00,0.0008
3412.00,0.0008
3411.00,0.0008
3410.00,0.0008
3409.00,0.0008
3408.00,0.0008
3407.00,0.0008
3406.00,0.0008
3405.00,0.0008
3404.00,0.0008
3403.00,0.0008
3402.00,0.0008
3401.00,0.0008
3400.00,0.0008
3399.00,0.0008
3398.00,0.0008
3397.00,0.0008
3396.00,0.0008
3395.00,0.0008
3394.00,0.0008
3393.00,0.0008
3392.00,0.0008
3391.00,0.0008
3390.00,0.0008
3389.00,0.0008
3388.00,0.0008
3387.00,0.0008
3386.00,0.0008
3385.00,0.0008
3384.00,0.0008
3383.00,0.0008
3382.00,0.0008
3381.00,0.0008
3380.00,0.0008
3379.00,0.0008
3378.00,0.0008
3377.00,0.0008
3376.00,0.0008
3375.00,0.0008
3374.00,0.0008
3373.00,0.0007
3372.00,0.0008
3371.00,0.0008
3370.00,0.0008
3369.00,0.0008
3368.00,0.0008
3367.00,0.0008
3366.00,0.0008
3365.00,0.0008
3364.00,0.0008
3363.00,0.0008
3362.00,0.0008
3361.00,0.0008
3360.00,0.0008
3359.00,0.0008
3358.00,0.0008
3357.00,0.0008
3356.00,0.0008
3355.00,0.0008
3354.00,0.0008
3353.00,0.0008
3352.00,0.0008
3351.00,0.0008
3350.00,0.0008
3349.00,0.0008
3348.00,0.0008
3347.00,0.0008
3346.00,0.0008
3345.00,0.0008
3344.00,0.0008
3343.00,0.0008
3342.00,0.0008
3341.00,0.0008
3340.00,0.0008
3339.00,0.0008
3338.00,0.0008
3337.00,0.0008
3336.00,0.0008
3335.00,0.0008
3334.00,0.0009
3333.00,0.0009
3332.00,0.0009
3331.00,0.0009
3330.00,0.0009
3329.00,0.0009
3328.00,0.0008
3327.00,0.0008
3326.00,0.0008
3325.00,0.0008
3324.00,0.0008
3323.00,0.0008
3322.00,0.0008
3321.00,0.0008
3320.00,0.0008
3319.00,0.0008
3318.00,0.0008
3317.00,0.0009
3316.00,0.0009
3315.00,0.0009
3314.00,0.0009
3313.00,0.0009
3312.00,0.0009
3311.00,0.0009
3310.00,0.0009
3309.00,0.0009
3308.00,0.0009
3307.00,0.0009
3306.00,0.0009
3305.00,0.0009
3304.00,0.0008
3303.00,0.0008
3302.00,0.0008
3301.00,0.0008
3300.00,0.0008
3299.00,0.0008
3298.00,0.0008
3297.00,0.0008
3296.00,0.0008
3295.00,0.0008
3294.00,0.0009
3293.00,0.0009
3292.00,0.0009
3291.00,0.0008
3290.00,0.0008
3289.00,0.0009
3288.00,0.0009
3287.00,0.0009
3286.00,0.0009
3285.00,0.0009
3284.00,0.0009
3283.00,0.0009
3282.00,0.0009
3281.00,0.0009
3280.00,0.0009
3279.00,0.0009
3278.00,0.0009
3277.00,0.0009
3276.00,0.0009
3275.00,0.0009
3274.00,0.0009
3273.00,0.0009
3272.00,0.0009
3271.00,0.0009
3270.00,0.0009
3269.00,0.0009
3268.00,0.0009
3267.00,0.0009
3266.00,0.0009
3265.00,0.0009
3264.00,0.0009
3263.00,0.0009
3262.00,0.0009
3261.00,0.0009
3260.00,0.0009
3259.00,0.0009
3258.00,0.0009
3257.00,0.0009
3256.00,0.0009
3255.00,0.0009
3254.00,0.0009
3253.00,0.0009
3252.00,0.0009
3251.00,0.0009
3250.00,0.0009
3249.00,0.0009
3248.00,0.0009
3247.00,0.0009
3246.00,0.0009
3245.00,0.0009
3244.00,0.0009
3243.00,0.0009
3242.00,0.0009
3241.00,0.0009
3240.00,0.0009
3239.00,0.0009
3238.00,0.0009
3237.00,0.0009
3236.00,0.0009
3235.00,0.0009
3234.00,0.0009
3233.00,0.0009
3232.00,0.0009
3231.00,0.0009
3230.00,0.0009
3229.00,0.0009
3228.00,0.0009
3227.00,0.0009
3226.00,0.0009
3225.00,0.0009
3224.00,0.0009
3223.00,0.0009
3222.00,0.0009
3221.00,0.0010
3220.00,0.0010
3219.00,0.0010
3218.00,0.0010
3217.00,0.0010
3216.00,0.0010
3215.00,0.0010
3214.00,0.0010
3213.00,0.0010
3212.00,0.0010
3211.00,0.0010
3210.00,0.0010
3209.00,0.0010
3208.00,0.0010
3207.00,0.0010
3206.00,0.0010
3205.00,0.0010
3204.00,0.0010
3203.00,0.0010
3202.00,0.0010
3201.00,0.0010
3200.00,0.0010
3199.00,0.0010
3198.00,0.0010
3197.00,0.0010
3196.00,0.0009
3195.00,0.0009
3194.00,0.0009
3193.00,0.0009
3192.00,0.0010
3191.00,0.0010
3190.00,0.0010
3189.00,0.0010
3188.00,0.0010
3187.00,0.0010
3186.00,0.0010
3185.00,0.0010
3184.00,0.0010
3183.00,0.0010
3182.00,0.0010
3181.00,0.0010
3180.00,0.0010
3179.00,0.0010
3178.00,0.0010
3177.00,0.0010
3176.00,0.0010
3175.00,0.0010
3174.00,0.0010
3173.00,0.0010
3172.00,0.0010
3171.00,0.0010
3170.00,0.0010
3169.00,0.0010
3168.00,0.0010
3167.00,0.0010
3166.00,0.0010
3165.00,0.0010
3164.00,0.0010
3163.00,0.0010
3162.00,0.0010
3161.00,0.0010
3160.00,0.0010
3159.00,0.0010
3158.00,0.0010
3157.00,0.0010
3156.00,0.0010
3155.00,0.0010
3154.00,0.0010
3153.00,0.0010
3152.00,0.0010
3151.00,0.0010
3150.00,0.0010
3149.00,0.0010
3148.00,0.0010
3147.00,0.0010
3146.00,0.0010
3145.00,0.0011
3144.00,0.0011
3143.00,0.0011
3142.00,0.0011
3141.00,0.0011
3140.00,0.0010
3139.00,0.0010
3138.00,0.0010
3137.00,0.0010
3136.00,0.0010
3135.00,0.0010
3134.00,0.0010
3133.00,0.0010
3132.00,0.0010
3131.00,0.0011
3130.00,0.0011
3129.00,0.0011
3128.00,0.0011
3127.00,0.0011
3126.00,0.0011
3125.00,0.0010
3124.00,0.0010
3123.00,0.0010
3122.00,0.0010
3121.00,0.0010
3120.00,0.0011
3119.00,0.0011
3118.00,0.0011
3117.00,0.0011
3116.00,0.0011
3115.00,0.0011
3114.00,0.0011
3113.00,0.0011
3112.00,0.0011
3111.00,0.0011
3110.00,0.0011
3109.00,0.0010
3108.00,0.0010
3107.00,0.0010
3106.00,0.0010
3105.00,0.0010
3104.00,0.0011
3103.00,0.0011
3102.00,0.0011
3101.00,0.0011
3100.00,0.0011
3099.00,0.0011
3098.00,0.0011
3097.00,0.0011
3096.00,0.0011
3095.00,0.0011
3094.00,0.0011
3093.00,0.0011
3092.00,0.0011
3091.00,0.0011
3090.00,0.0011
3089.00,0.0011
3088.00,0.0011
3087.00,0.0011
3086.00,0.0011
3085.00,0.0011
3084.00,0.0011
3083.00,0.0011
3082.00,0.0011
3081.00,0.0011
3080.00,0.0011
3079.00,0.0011
3078.00,0.0011
3077.00,0.0011
3076.00,0.0011
3075.00,0.0011
3074.00,0.0011
3073.00,0.0011
3072.00,0.0011
3071.00,0.0011
3070.00,0.0011
3069.00,0.0011
3068.00,0.0011
3067.00,0.0011
3066.00,0.0011
3065.00,0.0011
3064.00,0.0011
3063.00,0.0011
3062.00,0.0011
3061.00,0.0011
3060.00,0.0011
3059.00,0.0011
3058.00,0.0011
3057.00,0.0011
3056.00,0.0011
3055.00,0.0011
3054.00,0.0011
3053.00,0.0011
3052.00,0.0011
3051.00,0.0011
3050.00,0.0011
3049.00,0.0011
3048.00,0.0011
3047.00,0.0011
3046.00,0.0011
3045.00,0.0011
3044.00,0.0011
3043.00,0.0011
3042.00,0.0011
3041.00,0.0011
3040.00,0.0011
3039.00,0.0011
3038.00,0.0011
3037.00,0.0011
3036.00,0.0011
3035.00,0.0011
3034.00,0.0011
3033.00,0.0011
3032.00,0.0011
3031.00,0.0011
3030.00,0.0011
3029.00,0.0011
3028.00,0.0011
3027.00,0.0011
3026.00,0.0011
3025.00,0.0011
3024.00,0.0011
3023.00,0.0011
3022.00,0.0011
3021.00,0.0011
3020.00,0.0011
3019.00,0.0011
3018.00,0.0011
3017.00,0.0011
3016.00,0.0011
3015.00,0.0011
3014.00,0.0011
3013.00,0.0011
3012.00,0.0011
3011.00,0.0011
3010.00,0.0011
3009.00,0.0011
3008.00,0.0011
3007.00,0.0011
3006.00,0.0011
3005.00,0.0011
3004.00,0.0011
3003.00,0.0011
3002.00,0.0011
3001.00,0.0011
3000.00,0.0011
2999.00,0.0011
2998.00,0.0011
2997.00,0.0011
2996.00,0.0012
2995.00,0.0012
2994.00,0.0011
2993.00,0.0011
2992.00,0.0012
2991.00,0.0012
2990.00,0.0012
2989.00,0.0011
2988.00,0.0011
2987.00,0.0011
2986.00,0.0011
2985.00,0.0012
2984.00,0.0012
2983.00,0.0012
2982.00,0.0012
2981.00,0.0012
2980.00,0.0012
2979.00,0.0012
2978.00,0.0012
2977.00,0.0012
2976.00,0.0012
2975.00,0.0012
2974.00,0.0012
2973.00,0.0012
2972.00,0.0012
2971.00,0.0011
2970.00,0.0011
2969.00,0.0011
2968.00,0.0011
2967.00,0.0011
2966.00,0.0011
2965.00,0.0011
2964.00,0.0011
2963.00,0.0011
2962.00,0.0011
2961.00,0.0011
2960.00,0.0011
2959.00,0.0011
2958.00,0.0011
2957.00,0.0011
2956.00,0.0011
2955.00,0.0011
2954.00,0.0011
2953.00,0.0011
2952.00,0.0011
2951.00,0.0011
2950.00,0.0011
2949.00,0.0011
2948.00,0.0011
2947.00,0.0011
2946.00,0.0011
2945.00,0.0011
2944.00,0.0011
2943.00,0.0011
2942.00,0.0011
2941.00,0.0011
2940.00,0.0011
2939.00,0.0011
2938.00,0.0011
2937.00,0.0011
2936.00,0.0011
2935.00,0.0011
2934.00,0.0011
2933.00,0.0011
2932.00,0.0011
2931.00,0.0011
2930.00,0.0011
2929.00,0.0011
2928.00,0.0011
2927.00,0.0011
2926.00,0.0011
2925.00,0.0011
2924.00,0.0011
2923.00,0.0011
2922.00,0.0011
2921.00,0.0011
2920.00,0.0011
2919.00,0.0011
2918.00,0.0011
2917.00,0.0011
2916.00,0.0011
2915.00,0.0011
2914.00,0.0011
2913.00,0.0011
2912.00,0.0011
2911.00,0.0011
2910.00,0.0011
2909.00,0.0011
2908.00,0.0011
2907.00,0.0011
2906.00,0.0011
2905.00,0.0011
2904.00,0.0011
2903.00,0.0011
2902.00,0.0011
2901.00,0.0011
2900.00,0.0011
2899.00,0.0012
2898.00,0.0012
2897.00,0.0012
2896.00,0.0012
2895.00,0.0012
2894.00,0.0012
2893.00,0.0012
2892.00,0.0012
2891.00,0.0012
2890.00,0.0012
2889.00,0.0012
2888.00,0.0012
2887.00,0.0012
2886.00,0.0012
2885.00,0.0012
2884.00,0.0012
2883.00,0.0012
2882.00,0.0012
2881.00,0.0012
2880.00,0.0012
2879.00,0.0012
2878.00,0.0012
2877.00,0.0012
2876.00,0.0012
2875.00,0.0012
2874.00,0.0012
2873.00,0.0012
2872.00,0.0012
2871.00,0.0012
2870.00,0.0012
2869.00,0.0012
2868.00,0.0012
2867.00,0.0012
2866.00,0.0012
2865.00,0.0012
2864.00,0.0012
2863.00,0.0012
2862.00,0.0012
2861.00,0.0012
2860.00,0.0012
2859.00,0.0012
2858.00,0.0011
2857.00,0.0011
2856.00,0.0011
2855.00,0.0011
2854.00,0.0012
2853.00,0.0012
2852.00,0.0011
2851.00,0.0011
2850.00,0.0011
2849.00,0.0011
2848.00,0.0011
2847.00,0.0011
2846.00,0.0011
2845.00,0.0012
2844.00,0.0012
2843.00,0.0012
2842.00,0.0012
2841.00,0.0012
2840.00,0.0011
2839.00,0.0012
2838.00,0.0012
2837.00,0.0012
2836.00,0.0012
2835.00,0.0012
2834.00,0.0012
2833.00,0.0012
2832.00,0.0012
2831.00,0.0012
2830.00,0.0012
2829.00,0.0012
2828.00,0.0012
2827.00,0.0012
2826.00,0.0012
2825.00,0.0012
2824.00,0.0012
2823.00,0.0012
2822.00,0.0012
2821.00,0.0012
2820.00,0.0012
2819.00,0.0012
2818.00,0.0012
2817.00,0.0012
2816.00,0.0012
2815.00,0.0012
2814.00,0.0012
2813.00,0.0012
2812.00,0.0012
2811.00,0.0012
2810.00,0.0012
2809.00,0.0012
2808.00,0.0012
2807.00,0.0012
2806.00,0.0011
2805.00,0.0011
2804.00,0.0012
2803.00,0.0012
2802.00,0.0012
2801.00,0.0012
2800.00,0.0012
2799.00,0.0012
2798.00,0.0012
2797.00,0.0012
2796.00,0.0012
2795.00,0.0012
2794.00,0.0012
2793.00,0.0012
2792.00,0.0012
2791.00,0.0012
2790.00,0.0012
2789.00,0.0012
2788.00,0.0012
2787.00,0.0012
2786.00,0.0012
2785.00,0.0012
2784.00,0.0012
2783.00,0.0012
2782.00,0.0012
2781.00,0.0012
2780.00,0.0012
2779.00,0.0012
2778.00,0.0012
2777.00,0.0012
2776.00,0.0012
2775.00,0.0012
2774.00,0.0012
2773.00,0.0012
2772.00,0.0012
2771.00,0.0012
2770.00,0.0012
2769.00,0.0012
2768.00,0.0012
2767.00,0.0012
2766.00,0.0012
2765.00,0.0012
2764.00,0.0012
2763.00,0.0012
2762.00,0.0012
2761.00,0.0012
2760.00,0.0012
2759.00,0.0012
2758.00,0.0012
2757.00,0.0012
2756.00,0.0012
2755.00,0.0012
2754.00,0.0012
2753.00,0.0012
2752.00,0.0012
2751.00,0.0012
2750.00,0.0012
2749.00,0.0012
2748.00,0.0012
2747.00,0.0012
2746.00,0.0012
2745.00,0.0012
2744.00,0.0012
2743.00,0.0012
2742.00,0.0012
2741.00,0.0012
2740.00,0.0012
2739.00,0.0012
2738.00,0.0012
2737.00,0.0012
2736.00,0.0012
2735.00,0.0012
2734.00,0.0012
2733.00,0.0012
2732.00,0.0012
2731.00,0.0012
2730.00,0.0012
2729.00,0.0012
2728.00,0.0012
2727.00,0.0012
2726.00,0.0012
2725.00,0.0012
2724.00,0.0012
2723.00,0.0012
2722.00,0.0012
2721.00,0.0012
2720.00,0.0012
2719.00,0.0012
2718.00,0.0012
2717.00,0.0012
2716.00,0.0012
2715.00,0.0012
2714.00,0.0012
2713.00,0.0012
2712.00,0.0012
2711.00,0.0012
2710.00,0.0012
2709.00,0.0012
2708.00,0.0012
2707.00,0.0012
2706.00,0.0012
2705.00,0.0012
2704.00,0.0012
2703.00,0.0012
2702.00,0.0012
2701.00,0.0012
2700.00,0.0012
2699.00,0.0012
2698.00,0.0012
2697.00,0.0012
2696.00,0.0012
2695.00,0.0012
2694.00,0.0012
2693.00,0.0012
2692.00,0.0012
2691.00,0.0012
2690.00,0.0012
2689.00,0.0012
2688.00,0.0012
2687.00,0.0012
2686.00,0.0012
2685.00,0.0012
2684.00,0.0012
2683.00,0.0012
2682.00,0.0012
2681.00,0.0012
2680.00,0.0012
2679.00,0.0012
2678.00,0.0012
2677.00,0.0012
2676.00,0.0012
2675.00,0.0012
2674.00,0.0012
2673.00,0.0012
2672.00,0.0012
2671.00,0.0012
2670.00,0.0012
2669.00,0.0012
2668.00,0.0012
2667.00,0.0012
2666.00,0.0012
2665.00,0.0012
2664.00,0.0012
2663.00,0.0012
2662.00,0.0012
2661.00,0.0012
2660.00,0.0012
2659.00,0.0012
2658.00,0.0012
2657.00,0.0012
2656.00,0.0012
2655.00,0.0012
2654.00,0.0012
2653.00,0.0012
2652.00,0.0012
2651.00,0.0012
2650.00,0.0012
2649.00,0.0012
2648.00,0.0012
2647.00,0.0012
2646.00,0.0012
2645.00,0.0012
2644.00,0.0012
2643.00,0.0012
2642.00,0.0012
2641.00,0.0012
2640.00,0.0012
2639.00,0.0012
2638.00,0.0012
2637.00,0.0012
2636.00,0.0012
2635.00,0.0012
2634.00,0.0012
2633.00,0.0012
2632.00,0.0012
2631.00,0.0012
2630.00,0.0012
2629.00,0.0012
2628.00,0.0012
2627.00,0.0012
2626.00,0.0012
2625.00,0.0012
2624.00,0.0012
2623.00,0.0012
2622.00,0.0012
2621.00,0.0012
2620.00,0.0012
2619.00,0.0012
2618.00,0.0012
2617.00,0.0012
2616.00,0.0012
2615.00,0.0012
2614.00,0.0012
2613.00,0.0012
2612.00,0.0012
2611.00,0.0012
2610.00,0.0012
2609.00,0.0012
2608.00,0.0012
2607.00,0.0012
2606.00,0.0012
2605.00,0.0012
2604.00,0.0012
2603.00,0.0012
2602.00,0.0012
2601.00,0.0012
2600.00,0.0012
2599.00,0.0012
2598.00,0.0012
2597.00,0.0012
2596.00,0.0012
2595.00,0.0012
2594.00,0.0012
2593.00,0.0012
2592.00,0.0012
2591.00,0.0012
2590.00,0.0012
2589.00,0.0012
2588.00,0.0012
2587.00,0.0012
2586.00,0.0012
2585.00,0.0012
2584.00,0.0012
2583.00,0.0012
2582.00,0.0012
2581.00,0.0012
2580.00,0.0012
2579.00,0.0012
2578.00,0.0012
2577.00,0.0012
2576.00,0.0012
2575.00,0.0012
2574.00,0.0012
2573.00,0.0012
2572.00,0.0012
2571.00,0.0012
2570.00,0.0012
2569.00,0.0012
2568.00,0.0012
2567.00,0.0012
2566.00,0.0012
2565.00,0.0012
2564.00,0.0012
2563.00,0.0012
2562.00,0.0012
2561.00,0.0012
2560.00,0.0012
2559.00,0.0012
2558.00,0.0012
2557.00,0.0012
2556.00,0.0012
2555.00,0.0012
2554.00,0.0012
2553.00,0.0012
2552.00,0.0012
2551.00,0.0012
2550.00,0.0012
2549.00,0.0012
2548.00,0.0012
2547.00,0.0012
2546.00,0.0012
2545.00,0.0012
2544.00,0.0012
2543.00,0.0012
2542.00,0.0012
2541.00,0.0012
2540.00,0.0012
2539.00,0.0012
2538.00,0.0012
2537.00,0.0012
2536.00,0.0012
2535.00,0.0012
2534.00,0.0012
2533.00,0.0012
2532.00,0.0012
2531.00,0.0012
2530.00,0.0012
2529.00,0.0012
2528.00,0.0012
2527.00,0.0012
2526.00,0.0012
2525.00,0.0012
2524.00,0.0012
2523.00,0.0012
2522.00,0.0012
2521.00,0.0012
2520.00,0.0012
2519.00,0.0012
2518.00,0.0012
2517.00,0.0012
2516.00,0.0012
2515.00,0.0012
2514.00,0.0012
2513.00,0.0012
2512.00,0.0012
2511.00,0.0012
2510.00,0.0012
2509.00,0.0012
2508.00,0.0012
2507.00,0.0012
2506.00,0.0012
2505.00,0.0012
2504.00,0.0012
2503.00,0.0012
2502.00,0.0012
2501.00,0.0012
2500.00,0.0012
2499.00,0.0012
2498.00,0.0012
2497.00,0.0012
2496.00,0.0012
2495.00,0.0012
2494.00,0.0012
2493.00,0.0012
2492.00,0.0012
2491.00,0.0012
2490.00,0.0012
2489.00,0.0012
2488.00,0.0012
2487.00,0.0012
2486.00,0.0012
2485.00,0.0012
2484.00,0.0012
2483.00,0.0012
2482.00,0.0012
2481.00,0.0012
2480.00,0.0012
2479.00,0.0012
2478.00,0.0012
2477.00,0.0012
2476.00,0.0012
2475.00,0.0012
2474.00,0.0012
2473.00,0.0012
2472.00,0.0012
2471.00,0.0012
2470.00,0.0012
2469.00,0.0012
2468.00,0.0012
2467.00,0.0012
2466.00,0.0012
2465.00,0.0012
2464.00,0.0012
2463.00,0.0012
2462.00,0.0012
2461.00,0.0012
2460.00,0.0012
2459.00,0.0012
2458.00,0.0012
2457.00,0.0012
2456.00,0.0012
2455.00,0.0012
2454.00,0.0012
2453.00,0.0012
2452.00,0.0012
2451.00,0.0012
2450.00,0.0012
2449.00,0.0012
2448.00,0.0012
2447.00,0.0012
2446.00,0.0012
2445.00,0.0012
2444.00,0.0012
2443.00,0.0012
2442.00,0.0012
2441.00,0.0012
2440.00,0.0012
2439.00,0.0012
2438.00,0.0012
2437.00,0.0012
2436.00,0.0012
2435.00,0.0012
2434.00,0.0012
2433.00,0.0012
2432.00,0.0012
2431.00,0.0012
2430.00,0.0012
2429.00,0.0012
2428.00,0.0012
2427.00,0.0012
2426.00,0.0012
2425.00,0.0012
2424.00,0.0012
2423.00,0.0012
2422.00,0.0012
2421.00,0.0012
2420.00,0.0012
2419.00,0.0012
2418.00,0.0012
2417.00,0.0012
2416.00,0.0012
2415.00,0.0012
2414.00,0.0012
2413.00,0.0012
2412.00,0.0012
2411.00,0.0012
2410.00,0.0012
2409.00,0.0012
2408.00,0.0012
2407.00,0.0012
2406.00,0.0012
2405.00,0.0012
2404.00,0.0012
2403.00,0.0012
2402.00,0.0012
2401.00,0.0012
2400.00,0.0012
2399.00,0.0012
2398.00,0.0012
2397.00,0.0012
2396.00,0.0012
2395.00,0.0012
2394.00,0.0012
2393.00,0.0012
2392.00,0.0012
2391.00,0.0012
2390.00,0.0012
2389.00,0.0013
2388.00,0.0013
2387.00,0.0013
2386.00,0.0014
2385.00,0.0014
2384.00,0.0015
2383.00,0.0015
2382.00,0.0015
2381.00,0.0015
2380.00,0.0015
2379.00,0.0014
2378.00,0.0014
2377.00,0.0014
2376.00,0.0013
2375.00,0.0014
2374.00,0.0014
2373.00,0.0015
2372.00,0.0015
2371.00,0.0015
2370.00,0.0016
2369.00,0.0016
2368.00,0.0016
2367.00,0.0016
2366.00,0.0016
2365.00,0.0016
2364.00,0.0016
2363.00,0.0016
2362.00,0.0016
2361.00,0.0016
2360.00,0.0016
2359.00,0.0017
2358.00,0.0017
2357.00,0.0017
2356.00,0.0018
2355.00,0.0017
2354.00,0.0017
2353.00,0.0015
2352.00,0.0014
2351.00,0.0014
2350.00,0.0015
2349.00,0.0018
2348.00,0.0021
2347.00,0.0022
2346.00,0.0020
2345.00,0.0019
2344.00,0.0018
2343.00,0.0018
2342.00,0.0019
2341.00,0.0019
2340.00,0.0018
2339.00,0.0018
2338.00,0.0018
2337.00,0.0017
2336.00,0.0017
2335.00,0.0018
2334.00,0.0018
2333.00,0.0018
2332.00,0.0018
2331.00,0.0017
2330.00,0.0017
2329.00,0.0017
2328.00,0.0018
2327.00,0.0018
2326.00,0.0019
2325.00,0.0019
2324.00,0.0019
2323.00,0.0019
2322.00,0.0018
2321.00,0.0018
2320.00,0.0018
2319.00,0.0018
2318.00,0.0018
2317.00,0.0018
2316.00,0.0018
2315.00,0.0017
2314.00,0.0017
2313.00,0.0017
2312.00,0.0016
2311.00,0.0016
2310.00,0.0017
2309.00,0.0016
2308.00,0.0016
2307.00,0.0016
2306.00,0.0016
2305.00,0.0016
2304.00,0.0016
2303.00,0.0015
2302.00,0.0015
2301.00,0.0015
2300.00,0.0015
2299.00,0.0015
2298.00,0.0015
2297.00,0.0015
2296.00,0.0014
2295.00,0.0014
2294.00,0.0014
2293.00,0.0014
2292.00,0.0013
2291.00,0.0013
2290.00,0.0013
2289.00,0.0013
2288.00,0.0013
2287.00,0.0013
2286.00,0.0013
2285.00,0.0013
2284.00,0.0013
2283.00,0.0013
2282.00,0.0013
2281.00,0.0013
2280.00,0.0013
2279.00,0.0013
2278.00,0.0013
2277.00,0.0013
2276.00,0.0012
2275.00,0.0012
2274.00,0.0012
2273.00,0.0012
2272.00,0.0012
2271.00,0.0012
2270.00,0.0012
2269.00,0.0012
2268.00,0.0012
2267.00,0.0012
2266.00,0.0012
2265.00,0.0012
2264.00,0.0012
2263.00,0.0012
2262.00,0.0012
2261.00,0.0012
2260.00,0.0012
2259.00,0.0012
2258.00,0.0012
2257.00,0.0012
2256.00,0.0013
2255.00,0.0013
2254.00,0.0013
2253.00,0.0013
2252.00,0.0013
2251.00,0.0013
2250.00,0.0013
2249.00,0.0012
2248.00,0.0012
2247.00,0.0012
2246.00,0.0012
2245.00,0.0012
2244.00,0.0012
2243.00,0.0012
2242.00,0.0012
2241.00,0.0012
2240.00,0.0012
2239.00,0.0012
2238.00,0.0012
2237.00,0.0012
2236.00,0.0012
2235.00,0.0012
2234.00,0.0012
2233.00,0.0012
2232.00,0.0012
2231.00,0.0012
2230.00,0.0012
2229.00,0.0012
2228.00,0.0012
2227.00,0.0012
2226.00,0.0012
2225.00,0.0012
2224.00,0.0012
2223.00,0.0012
2222.00,0.0012
2221.00,0.0012
2220.00,0.0012
2219.00,0.0012
2218.00,0.0012
2217.00,0.0012
2216.00,0.0012
2215.00,0.0012
2214.00,0.0012
2213.00,0.0012
2212.00,0.0012
2211.00,0.0012
2210.00,0.0012
2209.00,0.0012
2208.00,0.0012
2207.00,0.0012
2206.00,0.0012
2205.00,0.0012
2204.00,0.0012
2203.00,0.0012
2202.00,0.0012
2201.00,0.0012
2200.00,0.0012
2199.00,0.0012
2198.00,0.0012
2197.00,0.0012
2196.00,0.0012
2195.00,0.0012
2194.00,0.0012
2193.00,0.0012
2192.00,0.0012
2191.00,0.0012
2190.00,0.0012
2189.00,0.0012
2188.00,0.0012
2187.00,0.0013
2186.00,0.0012
2185.00,0.0012
2184.00,0.0012
2183.00,0.0012
2182.00,0.0012
2181.00,0.0012
2180.00,0.0012
2179.00,0.0012
2178.00,0.0012
2177.00,0.0012
2176.00,0.0012
2175.00,0.0012
2174.00,0.0012
2173.00,0.0012
2172.00,0.0012
2171.00,0.0012
2170.00,0.0012
2169.00,0.0012
2168.00,0.0012
2167.00,0.0012
2166.00,0.0012
2165.00,0.0012
2164.00,0.0012
2163.00,0.0012
2162.00,0.0012
2161.00,0.0012
2160.00,0.0012
2159.00,0.0012
2158.00,0.0012
2157.00,0.0012
2156.00,0.0012
2155.00,0.0012
2154.00,0.0012
2153.00,0.0012
2152.00,0.0012
2151.00,0.0012
2150.00,0.0012
2149.00,0.0012
2148.00,0.0012
2147.00,0.0012
2146.00,0.0012
2145.00,0.0012
2144.00,0.0012
2143.00,0.0012
2142.00,0.0012
2141.00,0.0012
2140.00,0.0012
2139.00,0.0012
2138.00,0.0012
2137.00,0.0012
2136.00,0.0012
2135.00,0.0012
2134.00,0.0012
2133.00,0.0012
2132.00,0.0012
2131.00,0.0012
2130.00,0.0012
2129.00,0.0012
2128.00,0.0012
2127.00,0.0012
2126.00,0.0012
2125.00,0.0012
2124.00,0.0012
2123.00,0.0012
2122.00,0.0012
2121.00,0.0012
2120.00,0.0012
2119.00,0.0012
2118.00,0.0012
2117.00,0.0012
2116.00,0.0012
2115.00,0.0012
2114.00,0.0012
2113.00,0.0012
2112.00,0.0012
2111.00,0.0012
2110.00,0.0012
2109.00,0.0012
2108.00,0.0013
2107.00,0.0013
2106.00,0.0012
2105.00,0.0012
2104.00,0.0012
2103.00,0.0012
2102.00,0.0012
2101.00,0.0012
2100.00,0.0012
2099.00,0.0012
2098.00,0.0012
2097.00,0.0012
2096.00,0.0012
2095.00,0.0012
2094.00,0.0012
2093.00,0.0012
2092.00,0.0012
2091.00,0.0012
2090.00,0.0012
2089.00,0.0012
2088.00,0.0012
2087.00,0.0012
2086.00,0.0012
2085.00,0.0012
2084.00,0.0012
2083.00,0.0012
2082.00,0.0012
2081.00,0.0012
2080.00,0.0012
2079.00,0.0012
2078.00,0.0012
2077.00,0.0012
2076.00,0.0012
2075.00,0.0012
2074.00,0.0012
2073.00,0.0012
2072.00,0.0012
2071.00,0.0012
2070.00,0.0012
2069.00,0.0012
2068.00,0.0012
2067.00,0.0012
2066.00,0.0012
2065.00,0.0012
2064.00,0.0012
2063.00,0.0012
2062.00,0.0012
2061.00,0.0012
2060.00,0.0012
2059.00,0.0012
2058.00,0.0012
2057.00,0.0012
2056.00,0.0012
2055.00,0.0012
2054.00,0.0012
2053.00,0.0012
2052.00,0.0012
2051.00,0.0012
2050.00,0.0012
2049.00,0.0012
2048.00,0.0012
2047.00,0.0012
2046.00,0.0012
2045.00,0.0012
2044.00,0.0012
2043.00,0.0012
2042.00,0.0012
2041.00,0.0012
2040.00,0.0012
2039.00,0.0012
2038.00,0.0012
2037.00,0.0012
2036.00,0.0012
2035.00,0.0012
2034.00,0.0012
2033.00,0.0012
2032.00,0.0012
2031.00,0.0012
2030.00,0.0012
2029.00,0.0012
2028.00,0.0012
2027.00,0.0012
2026.00,0.0012
2025.00,0.0012
2024.00,0.0012
2023.00,0.0012
2022.00,0.0012
2021.00,0.0012
2020.00,0.0012
2019.00,0.0012
2018.00,0.0012
2017.00,0.0012
2016.00,0.0013
2015.00,0.0013
2014.00,0.0013
2013.00,0.0013
2012.00,0.0013
2011.00,0.0012
2010.00,0.0012
2009.00,0.0012
2008.00,0.0012
2007.00,0.0012
2006.00,0.0013
2005.00,0.0012
2004.00,0.0012
2003.00,0.0012
2002.00,0.0012
2001.00,0.0012
2000.00,0.0012
1999.00,0.0012
1998.00,0.0012
1997.00,0.0012
1996.00,0.0012
1995.00,0.0012
1994.00,0.0012
1993.00,0.0012
1992.00,0.0012
1991.00,0.0012
1990.00,0.0012
1989.00,0.0012
1988.00,0.0012
1987.00,0.0012
1986.00,0.0012
1985.00,0.0012
1984.00,0.0012
1983.00,0.0012
1982.00,0.0012
1981.00,0.0012
1980.00,0.0012
1979.00,0.0012
1978.00,0.0013
1977.00,0.0013
1976.00,0.0012
1975.00,0.0012
1974.00,0.0012
1973.00,0.0012
1972.00,0.0012
1971.00,0.0012
1970.00,0.0012
1969.00,0.0012
1968.00,0.0012
1967.00,0.0012
1966.00,0.0012
1965.00,0.0012
1964.00,0.0012
1963.00,0.0012
1962.00,0.0012
1961.00,0.0012
1960.00,0.0012
1959.00,0.0012
1958.00,0.0012
1957.00,0.0012
1956.00,0.0012
1955.00,0.0012
1954.00,0.0012
1953.00,0.0012
1952.00,0.0012
1951.00,0.0012
1950.00,0.0012
1949.00,0.0012
1948.00,0.0012
1947.00,0.0013
1946.00,0.0013
1945.00,0.0013
1944.00,0.0013
1943.00,0.0013
1942.00,0.0013
1941.00,0.0012
1940.00,0.0012
1939.00,0.0012
1938.00,0.0012
1937.00,0.0012
1936.00,0.0013
1935.00,0.0013
1934.00,0.0013
1933.00,0.0012
1932.00,0.0012
1931.00,0.0012
1930.00,0.0012
1929.00,0.0012
1928.00,0.0012
1927.00,0.0012
1926.00,0.0012
1925.00,0.0012
1924.00,0.0012
1923.00,0.0012
1922.00,0.0012
1921.00,0.0012
1920.00,0.0012
1919.00,0.0013
1918.00,0.0013
1917.00,0.0013
1916.00,0.0013
1915.00,0.0012
1914.00,0.0012
1913.00,0.0012
1912.00,0.0012
1911.00,0.0012
1910.00,0.0012
1909.00,0.0012
1908.00,0.0013
1907.00,0.0013
1906.00,0.0012
1905.00,0.0012
1904.00,0.0012
1903.00,0.0012
1902.00,0.0012
1901.00,0.0012
1900.00,0.0012
1899.00,0.0012
1898.00,0.0012
1897.00,0.0012
1896.00,0.0012
1895.00,0.0012
1894.00,0.0012
1893.00,0.0012
1892.00,0.0012
1891.00,0.0012
1890.00,0.0012
1889.00,0.0012
1888.00,0.0012
1887.00,0.0012
1886.00,0.0012
1885.00,0.0012
1884.00,0.0012
1883.00,0.0012
1882.00,0.0013
1881.00,0.0013
1880.00,0.0013
1879.00,0.0012
1878.00,0.0012
1877.00,0.0012
1876.00,0.0012
1875.00,0.0012
1874.00,0.0012
1873.00,0.0012
1872.00,0.0012
1871.00,0.0013
1870.00,0.0013
1869.00,0.0013
1868.00,0.0013
1867.00,0.0013
1866.00,0.0013
1865.00,0.0013
1864.00,0.0013
1863.00,0.0012
1862.00,0.0012
1861.00,0.0012
1860.00,0.0012
1859.00,0.0013
1858.00,0.0013
1857.00,0.0012
1856.00,0.0012
1855.00,0.0012
1854.00,0.0012
1853.00,0.0013
1852.00,0.0013
1851.00,0.0013
1850.00,0.0013
1849.00,0.0013
1848.00,0.0013
1847.00,0.0013
1846.00,0.0012
1845.00,0.0012
1844.00,0.0013
1843.00,0.0013
1842.00,0.0013
1841.00,0.0013
1840.00,0.0013
1839.00,0.0013
1838.00,0.0013
1837.00,0.0013
1836.00,0.0013
1835.00,0.0013
1834.00,0.0013
1833.00,0.0013
1832.00,0.0013
1831.00,0.0013
1830.00,0.0013
1829.00,0.0013
1828.00,0.0013
1827.00,0.0013
1826.00,0.0013
1825.00,0.0013
1824.00,0.0013
1823.00,0.0013
1822.00,0.0013
1821.00,0.0013
1820.00,0.0013
1819.00,0.0012
1818.00,0.0012
1817.00,0.0012
1816.00,0.0012
1815.00,0.0012
1814.00,0.0012
1813.00,0.0012
1812.00,0.0012
1811.00,0.0012
1810.00,0.0012
1809.00,0.0013
1808.00,0.0013
1807.00,0.0013
1806.00,0.0013
1805.00,0.0013
1804.00,0.0013
1803.00,0.0013
1802.00,0.0013
1801.00,0.0012
1800.00,0.0012
1799.00,0.0012
1798.00,0.0012
1797.00,0.0013
1796.00,0.0013
1795.00,0.0013
1794.00,0.0012
1793.00,0.0012
1792.00,0.0012
1791.00,0.0012
1790.00,0.0012
1789.00,0.0013
1788.00,0.0013
1787.00,0.0013
1786.00,0.0012
1785.00,0.0012
1784.00,0.0012
1783.00,0.0012
1782.00,0.0013
1781.00,0.0013
1780.00,0.0013
1779.00,0.0013
1778.00,0.0013
1777.00,0.0013
1776.00,0.0013
1775.00,0.0013
1774.00,0.0013
1773.00,0.0013
1772.00,0.0013
1771.00,0.0013
1770.00,0.0013
1769.00,0.0013
1768.00,0.0013
1767.00,0.0012
1766.00,0.0012
1765.00,0.0013
1764.00,0.0013
1763.00,0.0013
1762.00,0.0013
1761.00,0.0013
1760.00,0.0013
1759.00,0.0013
1758.00,0.0013
1757.00,0.0013
1756.00,0.0013
1755.00,0.0013
1754.00,0.0013
1753.00,0.0013
1752.00,0.0013
1751.00,0.0013
1750.00,0.0013
1749.00,0.0013
1748.00,0.0013
1747.00,0.0013
1746.00,0.0013
1745.00,0.0013
1744.00,0.0013
1743.00,0.0013
1742.00,0.0012
1741.00,0.0012
1740.00,0.0012
1739.00,0.0013
1738.00,0.0013
1737.00,0.0013
1736.00,0.0013
1735.00,0.0013
1734.00,0.0013
1733.00,0.0013
1732.00,0.0013
1731.00,0.0013
1730.00,0.0013
1729.00,0.0013
1728.00,0.0013
1727.00,0.0013
1726.00,0.0013
1725.00,0.0013
1724.00,0.0012
1723.00,0.0012
1722.00,0.0012
1721.00,0.0012
1720.00,0.0012
1719.00,0.0012
1718.00,0.0012
1717.00,0.0012
1716.00,0.0013
1715.00,0.0013
1714.00,0.0012
1713.00,0.0012
1712.00,0.0012
1711.00,0.0012
1710.00,0.0012
1709.00,0.0012
1708.00,0.0012
1707.00,0.0012
1706.00,0.0012
1705.00,0.0012
1704.00,0.0012
1703.00,0.0012
1702.00,0.0012
1701.00,0.0012
1700.00,0.0013
1699.00,0.0013
1698.00,0.0013
1697.00,0.0013
1696.00,0.0013
1695.00,0.0013
1694.00,0.0012
1693.00,0.0012
1692.00,0.0012
1691.00,0.0012
1690.00,0.0012
1689.00,0.0012
1688.00,0.0012
1687.00,0.0012
1686.00,0.0012
1685.00,0.0012
1684.00,0.0012
1683.00,0.0012
1682.00,0.0012
1681.00,0.0012
1680.00,0.0012
1679.00,0.0012
1678.00,0.0012
1677.00,0.0012
1676.00,0.0012
1675.00,0.0012
1674.00,0.0012
1673.00,0.0012
1672.00,0.0012
1671.00,0.0012
1670.00,0.0012
1669.00,0.0012
1668.00,0.0012
1667.00,0.0012
1666.00,0.0012
1665.00,0.0012
1664.00,0.0012
1663.00,0.0012
1662.00,0.0012
1661.00,0.0011
1660.00,0.0011
1659.00,0.0011
1658.00,0.0012
1657.00,0.0012
1656.00,0.0012
1655.00,0.0012
1654.00,0.0012
1653.00,0.0012
1652.00,0.0012
1651.00,0.0012
1650.00,0.0011
1649.00,0.0011
1648.00,0.0012
1647.00,0.0012
1646.00,0.0012
1645.00,0.0011
1644.00,0.0011
1643.00,0.0011
1642.00,0.0012
1641.00,0.0011
1640.00,0.0011
1639.00,0.0011
1638.00,0.0011
1637.00,0.0011
1636.00,0.0011
1635.00,0.0011
1634.00,0.0011
1633.00,0.0011
1632.00,0.0011
1631.00,0.0011
1630.00,0.0011
1629.00,0.0011
1628.00,0.0012
1627.00,0.0012
1626.00,0.0012
1625.00,0.0012
1624.00,0.0012
1623.00,0.0012
1622.00,0.0012
1621.00,0.0012
1620.00,0.0012
1619.00,0.0012
1618.00,0.0012
1617.00,0.0012
1616.00,0.0012
1615.00,0.0012
1614.00,0.0012
1613.00,0.0012
1612.00,0.0012
1611.00,0.0012
1610.00,0.0012
1609.00,0.0012
1608.00,0.0012
1607.00,0.0012
1606.00,0.0012
1605.00,0.0012
1604.00,0.0012
1603.00,0.0012
1602.00,0.0012
1601.00,0.0012
1600.00,0.0012
1599.00,0.0012
1598.00,0.0012
1597.00,0.0012
1596.00,0.0012
1595.00,0.0012
1594.00,0.0012
1593.00,0.0012
1592.00,0.0012
1591.00,0.0012
1590.00,0.0012
1589.00,0.0012
1588.00,0.0012
1587.00,0.0012
1586.00,0.0012
1585.00,0.0012
1584.00,0.0012
1583.00,0.0012
1582.00,0.0012
1581.00,0.0012
1580.00,0.0012
1579.00,0.0012
1578.00,0.0012
1577.00,0.0012
1576.00,0.0012
1575.00,0.0012
1574.00,0.0012
1573.00,0.0012
1572.00,0.0012
1571.00,0.0012
1570.00,0.0012
1569.00,0.0012
1568.00,0.0012
1567.00,0.0012
1566.00,0.0012
1565.00,0.0012
1564.00,0.0012
1563.00,0.0012
1562.00,0.0012
1561.00,0.0012
1560.00,0.0012
1559.00,0.0012
1558.00,0.0013
1557.00,0.0013
1556.00,0.0013
1555.00,0.0013
1554.00,0.0013
1553.00,0.0013
1552.00,0.0013
1551.00,0.0013
1550.00,0.0013
1549.00,0.0013
1548.00,0.0013
1547.00,0.0013
1546.00,0.0013
1545.00,0.0013
1544.00,0.0013
1543.00,0.0013
1542.00,0.0013
1541.00,0.0012
1540.00,0.0013
1539.00,0.0013
1538.00,0.0013
1537.00,0.0013
1536.00,0.0013
1535.00,0.0013
1534.00,0.0013
1533.00,0.0013
1532.00,0.0013
1531.00,0.0013
1530.00,0.0013
1529.00,0.0013
1528.00,0.0013
1527.00,0.0013
1526.00,0.0013
1525.00,0.0013
1524.00,0.0013
1523.00,0.0013
1522.00,0.0013
1521.00,0.0013
1520.00,0.0013
1519.00,0.0013
1518.00,0.0013
1517.00,0.0013
1516.00,0.0013
1515.00,0.0013
1514.00,0.0013
1513.00,0.0013
1512.00,0.0013
1511.00,0.0013
1510.00,0.0013
1509.00,0.0013
1508.00,0.0013
1507.00,0.0013
1506.00,0.0013
1505.00,0.0013
1504.00,0.0013
1503.00,0.0013
1502.00,0.0013
1501.00,0.0012
1500.00,0.0012
1499.00,0.0012
1498.00,0.0012
1497.00,0.0013
1496.00,0.0013
1495.00,0.0013
1494.00,0.0013
1493.00,0.0013
1492.00,0.0013
1491.00,0.0013
1490.00,0.0012
1489.00,0.0012
1488.00,0.0013
1487.00,0.0013
1486.00,0.0013
1485.00,0.0013
1484.00,0.0013
1483.00,0.0013
1482.00,0.0013
1481.00,0.0013
1480.00,0.0013
1479.00,0.0013
1478.00,0.0013
1477.00,0.0013
1476.00,0.0013
1475.00,0.0013
1474.00,0.0013
1473.00,0.0013
1472.00,0.0013
1471.00,0.0013
1470.00,0.0013
1469.00,0.0013
1468.00,0.0013
1467.00,0.0012
1466.00,0.0012
1465.00,0.0012
1464.00,0.0013
1463.00,0.0013
1462.00,0.0013
1461.00,0.0013
1460.00,0.0013
1459.00,0.0013
1458.00,0.0013
1457.00,0.0013
1456.00,0.0013
1455.00,0.0012
1454.00,0.0012
1453.00,0.0012
1452.00,0.0012
1451.00,0.0012
1450.00,0.0013
1449.00,0.0013
1448.00,0.0013
1447.00,0.0012
1446.00,0.0012
1445.00,0.0013
1444.00,0.0013
1443.00,0.0013
1442.00,0.0013
1441.00,0.0013
1440.00,0.0013
1439.00,0.0013
1438.00,0.0013
1437.00,0.0013
1436.00,0.0013
1435.00,0.0013
1434.00,0.0013
1433.00,0.0013
1432.00,0.0013
1431.00,0.0013
1430.00,0.0013
1429.00,0.0012
1428.00,0.0012
1427.00,0.0013
1426.00,0.0013
1425.00,0.0013
1424.00,0.0013
1423.00,0.0013
1422.00,0.0012
1421.00,0.0013
1420.00,0.0013
1419.00,0.0013
1418.00,0.0013
1417.00,0.0013
1416.00,0.0013
1415.00,0.0013
1414.00,0.0013
1413.00,0.0013
1412.00,0.0013
1411.00,0.0013
1410.00,0.0012
1409.00,0.0012
1408.00,0.0013
1407.00,0.0013
1406.00,0.0013
1405.00,0.0013
1404.00,0.0013
1403.00,0.0013
1402.00,0.0013
1401.00,0.0013
1400.00,0.0013
1399.00,0.0013
1398.00,0.0013
1397.00,0.0013
1396.00,0.0013
1395.00,0.0013
1394.00,0.0013
1393.00,0.0013
1392.00,0.0013
1391.00,0.0013
1390.00,0.0013
1389.00,0.0013
1388.00,0.0013
1387.00,0.0013
1386.00,0.0013
1385.00,0.0013
1384.00,0.0013
1383.00,0.0013
1382.00,0.0013
1381.00,0.0013
1380.00,0.0013
1379.00,0.0013
1378.00,0.0013
1377.00,0.0013
1376.00,0.0013
1375.00,0.0013
1374.00,0.0013
1373.00,0.0013
1372.00,0.0013
1371.00,0.0013
1370.00,0.0013
1369.00,0.0013
1368.00,0.0013
1367.00,0.0013
1366.00,0.0013
1365.00,0.0013
1364.00,0.0013
1363.00,0.0013
1362.00,0.0013
1361.00,0.0012
1360.00,0.0012
1359.00,0.0013
1358.00,0.0013
1357.00,0.0013
1356.00,0.0013
1355.00,0.0012
1354.00,0.0012
1353.00,0.0012
1352.00,0.0012
1351.00,0.0012
1350.00,0.0012
1349.00,0.0012
1348.00,0.0012
1347.00,0.0012
1346.00,0.0012
1345.00,0.0012
1344.00,0.0012
1343.00,0.0012
1342.00,0.0012
1341.00,0.0012
1340.00,0.0012
1339.00,0.0012
1338.00,0.0012
1337.00,0.0012
1336.00,0.0012
1335.00,0.0012
1334.00,0.0012
1333.00,0.0012
1332.00,0.0012
1331.00,0.0012
1330.00,0.0012
1329.00,0.0012
1328.00,0.0013
1327.00,0.0013
1326.00,0.0013
1325.00,0.0013
1324.00,0.0013
1323.00,0.0013
1322.00,0.0013
1321.00,0.0013
1320.00,0.0013
1319.00,0.0013
1318.00,0.0013
1317.00,0.0012
1316.00,0.0012
1315.00,0.0012
1314.00,0.0012
1313.00,0.0012
1312.00,0.0012
1311.00,0.0012
1310.00,0.0012
1309.00,0.0012
1308.00,0.0012
1307.00,0.0012
1306.00,0.0012
1305.00,0.0012
1304.00,0.0012
1303.00,0.0013
1302.00,0.0013
1301.00,0.0013
1300.00,0.0012
1299.00,0.0012
1298.00,0.0012
1297.00,0.0012
1296.00,0.0012
1295.00,0.0012
1294.00,0.0012
1293.00,0.0012
1292.00,0.0012
1291.00,0.0012
1290.00,0.0013
1289.00,0.0013
1288.00,0.0013
1287.00,0.0012
1286.00,0.0012
1285.00,0.0012
1284.00,0.0012
1283.00,0.0013
1282.00,0.0013
1281.00,0.0013
1280.00,0.0012
1279.00,0.0012
1278.00,0.0012
1277.00,0.0012
1276.00,0.0012
1275.00,0.0012
1274.00,0.0012
1273.00,0.0012
1272.00,0.0012
1271.00,0.0012
1270.00,0.0012
1269.00,0.0013
1268.00,0.0013
1267.00,0.0013
1266.00,0.0012
1265.00,0.0012
1264.00,0.0012
1263.00,0.0012
1262.00,0.0012
1261.00,0.0012
1260.00,0.0012
1259.00,0.0013
1258.00,0.0013
1257.00,0.0012
1256.00,0.0012
1255.00,0.0013
1254.00,0.0013
1253.00,0.0013
1252.00,0.0013
1251.00,0.0013
1250.00,0.0013
1249.00,0.0013
1248.00,0.0013
1247.00,0.0013
1246.00,0.0013
1245.00,0.0013
1244.00,0.0013
1243.00,0.0013
1242.00,0.0012
1241.00,0.0012
1240.00,0.0012
1239.00,0.0012
1238.00,0.0012
1237.00,0.0012
1236.00,0.0012
1235.00,0.0012
1234.00,0.0012
1233.00,0.0012
1232.00,0.0013
1231.00,0.0013
1230.00,0.0013
1229.00,0.0013
1228.00,0.0013
1227.00,0.0012
1226.00,0.0012
1225.00,0.0013
1224.00,0.0013
1223.00,0.0013
1222.00,0.0013
1221.00,0.0013
1220.00,0.0013
1219.00,0.0013
1218.00,0.0013
1217.00,0.0013
1216.00,0.0013
1215.00,0.0013
1214.00,0.0013
1213.00,0.0013
1212.00,0.0013
1211.00,0.0013
1210.00,0.0013
1209.00,0.0012
1208.00,0.0012
1207.00,0.0012
1206.00,0.0012
1205.00,0.0012
1204.00,0.0012
1203.00,0.0013
1202.00,0.0013
1201.00,0.0013
1200.00,0.0013
1199.00,0.0012
1198.00,0.0012
1197.00,0.0012
1196.00,0.0012
1195.00,0.0012
1194.00,0.0012
1193.00,0.0013
1192.00,0.0013
1191.00,0.0013
1190.00,0.0013
1189.00,0.0013
1188.00,0.0012
1187.00,0.0012
1186.00,0.0012
1185.00,0.0012
1184.00,0.0012
1183.00,0.0012
1182.00,0.0012
1181.00,0.0012
1180.00,0.0012
1179.00,0.0012
1178.00,0.0012
1177.00,0.0012
1176.00,0.0012
1175.00,0.0012
1174.00,0.0012
1173.00,0.0012
1172.00,0.0013
1171.00,0.0013
1170.00,0.0013
1169.00,0.0013
1168.00,0.0013
1167.00,0.0013
1166.00,0.0012
1165.00,0.0012
1164.00,0.0012
1163.00,0.0012
1162.00,0.0012
1161.00,0.0012
1160.00,0.0013
1159.00,0.0013
1158.00,0.0013
1157.00,0.0013
1156.00,0.0012
1155.00,0.0012
1154.00,0.0012
1153.00,0.0012
1152.00,0.0013
1151.00,0.0013
1150.00,0.0013
1149.00,0.0012
1148.00,0.0012
1147.00,0.0012
1146.00,0.0012
1145.00,0.0012
1144.00,0.0012
1143.00,0.0012
1142.00,0.0012
1141.00,0.0012
1140.00,0.0012
1139.00,0.0012
1138.00,0.0012
1137.00,0.0012
1136.00,0.0012
1135.00,0.0012
1134.00,0.0012
1133.00,0.0012
1132.00,0.0012
1131.00,0.0012
1130.00,0.0012
1129.00,0.0012
1128.00,0.0012
1127.00,0.0012
1126.00,0.0012
1125.00,0.0012
1124.00,0.0012
1123.00,0.0012
1122.00,0.0012
1121.00,0.0012
1120.00,0.0012
1119.00,0.0012
1118.00,0.0012
1117.00,0.0012
1116.00,0.0012
1115.00,0.0012
1114.00,0.0012
1113.00,0.0012
1112.00,0.0012
1111.00,0.0012
1110.00,0.0012
1109.00,0.0012
1108.00,0.0012
1107.00,0.0012
1106.00,0.0012
1105.00,0.0012
1104.00,0.0012
1103.00,0.0012
1102.00,0.0013
1101.00,0.0012
1100.00,0.0012
1099.00,0.0012
1098.00,0.0012
1097.00,0.0012
1096.00,0.0012
1095.00,0.0012
1094.00,0.0012
1093.00,0.0012
1092.00,0.0012
1091.00,0.0012
1090.00,0.0012
1089.00,0.0012
1088.00,0.0012
1087.00,0.0012
1086.00,0.0013
1085.00,0.0013
1084.00,0.0013
1083.00,0.0012
1082.00,0.0012
1081.00,0.0012
1080.00,0.0012
1079.00,0.0012
1078.00,0.0012
1077.00,0.0012
1076.00,0.0012
1075.00,0.0012
1074.00,0.0012
1073.00,0.0012
1072.00,0.0012
1071.00,0.0012
1070.00,0.0012
1069.00,0.0012
1068.00,0.0011
1067.00,0.0011
1066.00,0.0012
1065.00,0.0012
1064.00,0.0012
1063.00,0.0012
1062.00,0.0012
1061.00,0.0012
1060.00,0.0012
1059.00,0.0012
1058.00,0.0012
1057.00,0.0012
1056.00,0.0012
1055.00,0.0012
1054.00,0.0012
1053.00,0.0012
1052.00,0.0012
1051.00,0.0012
1050.00,0.0012
1049.00,0.0012
1048.00,0.0013
1047.00,0.0013
1046.00,0.0013
1045.00,0.0013
1044.00,0.0013
1043.00,0.0013
1042.00,0.0013
1041.00,0.0013
1040.00,0.0013
1039.00,0.0013
1038.00,0.0012
1037.00,0.0012
1036.00,0.0013
1035.00,0.0013
1034.00,0.0013
1033.00,0.0013
1032.00,0.0013
1031.00,0.0013
1030.00,0.0013
1029.00,0.0013
1028.00,0.0013
1027.00,0.0013
1026.00,0.0013
1025.00,0.0013
1024.00,0.0013
1023.00,0.0013
1022.00,0.0013
1021.00,0.0013
1020.00,0.0013
1019.00,0.0013
1018.00,0.0013
1017.00,0.0013
1016.00,0.0014
1015.00,0.0014
1014.00,0.0014
1013.00,0.0014
1012.00,0.0013
1011.00,0.0013
1010.00,0.0013
1009.00,0.0013
1008.00,0.0013
1007.00,0.0013
1006.00,0.0013
1005.00,0.0013
1004.00,0.0013
1003.00,0.0013
1002.00,0.0013
1001.00,0.0013
1000.00,0.0013
999.00,0.0013
998.00,0.0013
997.00,0.0013
996.00,0.0013
995.00,0.0013
994.00,0.0013
993.00,0.0013
992.00,0.0013
991.00,0.0013
990.00,0.0013
989.00,0.0013
988.00,0.0014
987.00,0.0014
986.00,0.0014
985.00,0.0014
984.00,0.0014
983.00,0.0013
982.00,0.0013
981.00,0.0013
980.00,0.0013
979.00,0.0013
978.00,0.0013
977.00,0.0013
976.00,0.0013
975.00,0.0013
974.00,0.0013
973.00,0.0013
972.00,0.0013
971.00,0.0013
970.00,0.0014
969.00,0.0014
968.00,0.0014
967.00,0.0013
966.00,0.0013
965.00,0.0013
964.00,0.0013
963.00,0.0013
962.00,0.0013
961.00,0.0013
960.00,0.0013
959.00,0.0013
958.00,0.0013
957.00,0.0013
956.00,0.0014
955.00,0.0014
954.00,0.0014
953.00,0.0014
952.00,0.0014
951.00,0.0013
950.00,0.0013
949.00,0.0013
948.00,0.0013
947.00,0.0013
946.00,0.0013
945.00,0.0013
944.00,0.0013
943.00,0.0013
942.00,0.0013
941.00,0.0013
940.00,0.0013
939.00,0.0013
938.00,0.0013
937.00,0.0013
936.00,0.0013
935.00,0.0013
934.00,0.0013
933.00,0.0013
932.00,0.0013
931.00,0.0013
930.00,0.0013
929.00,0.0013
928.00,0.0013
927.00,0.0013
926.00,0.0013
925.00,0.0013
924.00,0.0013
923.00,0.0013
922.00,0.0013
921.00,0.0013
920.00,0.0013
919.00,0.0013
918.00,0.0013
917.00,0.0013
916.00,0.0013
915.00,0.0013
914.00,0.0013
913.00,0.0013
912.00,0.0013
911.00,0.0013
910.00,0.0013
909.00,0.0013
908.00,0.0013
907.00,0.0014
906.00,0.0014
905.00,0.0014
904.00,0.0014
903.00,0.0013
902.00,0.0012
901.00,0.0012
900.00,0.0012
899.00,0.0012
898.00,0.0012
897.00,0.0012
896.00,0.0012
895.00,0.0012
894.00,0.0012
893.00,0.0012
892.00,0.0012
891.00,0.0012
890.00,0.0013
889.00,0.0013
888.00,0.0013
887.00,0.0013
886.00,0.0013
885.00,0.0013
884.00,0.0013
883.00,0.0013
882.00,0.0013
881.00,0.0013
880.00,0.0013
879.00,0.0013
878.00,0.0013
877.00,0.0013
876.00,0.0013
875.00,0.0013
874.00,0.0013
873.00,0.0013
872.00,0.0013
871.00,0.0013
870.00,0.0013
869.00,0.0013
868.00,0.0013
867.00,0.0013
866.00,0.0013
865.00,0.0013
864.00,0.0013
863.00,0.0013
862.00,0.0013
861.00,0.0012
860.00,0.0012
859.00,0.0012
858.00,0.0012
857.00,0.0012
856.00,0.0013
855.00,0.0013
854.00,0.0013
853.00,0.0013
852.00,0.0012
851.00,0.0012
850.00,0.0012
849.00,0.0013
848.00,0.0013
847.00,0.0013
846.00,0.0013
845.00,0.0012
844.00,0.0012
843.00,0.0012
842.00,0.0013
841.00,0.0013
840.00,0.0013
839.00,0.0013
838.00,0.0013
837.00,0.0013
836.00,0.0013
835.00,0.0013
834.00,0.0013
833.00,0.0013
832.00,0.0013
831.00,0.0012
830.00,0.0012
829.00,0.0012
828.00,0.0012
827.00,0.0012
826.00,0.0012
825.00,0.0012
824.00,0.0012
823.00,0.0013
822.00,0.0013
821.00,0.0013
820.00,0.0013
819.00,0.0012
818.00,0.0012
817.00,0.0012
816.00,0.0012
815.00,0.0012
814.00,0.0012
813.00,0.0012
812.00,0.0012
811.00,0.0012
810.00,0.0012
809.00,0.0012
808.00,0.0013
807.00,0.0013
806.00,0.0013
805.00,0.0013
804.00,0.0013
803.00,0.0013
802.00,0.0012
801.00,0.0012
800.00,0.0012
799.00,0.0012
798.00,0.0012
797.00,0.0012
796.00,0.0012
795.00,0.0012
794.00,0.0012
793.00,0.0012
792.00,0.0012
791.00,0.0013
790.00,0.0013
789.00,0.0013
788.00,0.0012
787.00,0.0012
786.00,0.0012
785.00,0.0012
784.00,0.0013
783.00,0.0013
782.00,0.0012
781.00,0.0012
780.00,0.0012
779.00,0.0012
778.00,0.0013
777.00,0.0013
776.00,0.0013
775.00,0.0013
774.00,0.0012
773.00,0.0012
772.00,0.0012
771.00,0.0012
770.00,0.0012
769.00,0.0012
768.00,0.0012
767.00,0.0012
766.00,0.0012
765.00,0.0012
764.00,0.0012
763.00,0.0012
762.00,0.0012
761.00,0.0012
760.00,0.0012
759.00,0.0012
758.00,0.0012
757.00,0.0012
756.00,0.0012
755.00,0.0012
754.00,0.0012
753.00,0.0012
752.00,0.0012
751.00,0.0012
750.00,0.0012
749.00,0.0012
748.00,0.0012
747.00,0.0012
746.00,0.0012
745.00,0.0012
744.00,0.0012
743.00,0.0012
742.00,0.0012
741.00,0.0012
740.00,0.0012
739.00,0.0012
738.00,0.0012
737.00,0.0012
736.00,0.0012
735.00,0.0012
734.00,0.0012
733.00,0.0013
732.00,0.0013
731.00,0.0013
730.00,0.0013
729.00,0.0013
728.00,0.0013
727.00,0.0013
726.00,0.0012
725.00,0.0012
724.00,0.0012
723.00,0.0012
722.00,0.0012
721.00,0.0012
720.00,0.0012
719.00,0.0012
718.00,0.0012
717.00,0.0013
716.00,0.0013
715.00,0.0012
714.00,0.0012
713.00,0.0012
712.00,0.0012
711.00,0.0012
710.00,0.0012
709.00,0.0012
708.00,0.0012
707.00,0.0012
706.00,0.0012
705.00,0.0013
704.00,0.0012
703.00,0.0012
702.00,0.0011
701.00,0.0011
700.00,0.0011
699.00,0.0011
698.00,0.0011
697.00,0.0012
696.00,0.0012
695.00,0.0011
694.00,0.0011
693.00,0.0011
692.00,0.0011
691.00,0.0011
690.00,0.0011
689.00,0.0010
688.00,0.0010
687.00,0.0010
686.00,0.0011
685.00,0.0011
684.00,0.0011
683.00,0.0011
682.00,0.0011
681.00,0.0011
680.00,0.0010
679.00,0.0010
678.00,0.0009
677.00,0.0009
676.00,0.0009
675.00,0.0009
674.00,0.0009
673.00,0.0009
672.00,0.0008
671.00,0.0005
670.00,0.0001
669.00,-0.0006
668.00,-0.0011
667.00,-0.0008
666.00,-0.0002
665.00,0.0003
664.00,0.0007
663.00,0.0010
662.00,0.0011
661.00,0.0010
660.00,0.0010
659.00,0.0009
658.00,0.0008
657.00,0.0008
656.00,0.0009
655.00,0.0009
654.00,0.0009
653.00,0.0009
652.00,0.0010
651.00,0.0010
650.00,0.0009
649.00,0.0009
648.00,0.0009
647.00,0.0009
646.00,0.0010
645.00,0.0010
644.00,0.0011
643.00,0.0011
642.00,0.0010
641.00,0.0010
640.00,0.0011
639.00,0.0012
638.00,0.0012
637.00,0.0012
636.00,0.0011
635.00,0.0011
634.00,0.0011
633.00,0.0011
632.00,0.0012
631.00,0.0012
630.00,0.0013
629.00,0.0012
628.00,0.0012
627.00,0.0011
626.00,0.0010
625.00,0.0009
624.00,0.0009
623.00,0.0009
622.00,0.0009
621.00,0.0009
620.00,0.0010
619.00,0.0010
618.00,0.0010
617.00,0.0010
616.00,0.0010
615.00,0.0009
614.00,0.0009
613.00,0.0009
612.00,0.0009
611.00,0.0009
610.00,0.0010
609.00,0.0010
608.00,0.0010
607.00,0.0010
606.00,0.0009
605.00,0.0009
604.00,0.0010
603.00,0.0010
602.00,0.0011
601.00,0.0011
600.00,0.0011
599.00,0.0011
598.00,0.0011
597.00,0.0010
596.00,0.0011
595.00,0.0011
594.00,0.0010
593.00,0.0009
592.00,0.0007
591.00,0.0006
590.00,0.0006
589.00,0.0008
588.00,0.0010
587.00,0.0011
586.00,0.0010
585.00,0.0010
584.00,0.0010
583.00,0.0010
582.00,0.0010
581.00,0.0010
580.00,0.0011
579.00,0.0011
578.00,0.0010
577.00,0.0010
576.00,0.0009
575.00,0.0009
574.00,0.0009
573.00,0.0009
572.00,0.0010
571.00,0.0009
570.00,0.0008
569.00,0.0007
568.00,0.0007
567.00,0.0007
566.00,0.0007
565.00,0.0008
564.00,0.0009
563.00,0.0011
562.00,0.0012
561.00,0.0011
560.00,0.0010
559.00,0.0008
558.00,0.0008
557.00,0.0009
556.00,0.0010
555.00,0.0011
554.00,0.0011
553.00,0.0011
552.00,0.0011
551.00,0.0012
550.00,0.0012
549.00,0.0012
548.00,0.0012
547.00,0.0011
546.00,0.0010
545.00,0.0009
544.00,0.0009
543.00,0.0010
542.00,0.0010
541.00,0.0011
540.00,0.0011
539.00,0.0011
538.00,0.0009
537.00,0.0009
536.00,0.0009
535.00,0.0009
534.00,0.0010
533.00,0.0010
532.00,0.0010
531.00,0.0010
530.00,0.0009
529.00,0.0008
528.00,0.0009
527.00,0.0010
526.00,0.0010
525.00,0.0011
524.00,0.0011
523.00,0.0011
522.00,0.0011
521.00,0.0010
520.00,0.0010
519.00,0.0010
518.00,0.0010
517.00,0.0010
516.00,0.0010
515.00,0.0009
514.00,0.0008
513.00,0.0008
512.00,0.0008
511.00,0.0008
510.00,0.0008
509.00,0.0007
508.00,0.0007
507.00,0.0007
506.00,0.0007
505.00,0.0007
504.00,0.0007
503.00,0.0007
502.00,0.0007
501.00,0.0008
500.00,0.0008
