Created as New Dataset,Sample 043 By Analyst Date Friday, March 28 2025
cm-1,A
4000.00,0.0006
3999.00,0.0006
3998.00,0.0006
3997.00,0.0006
3996.00,0.0006
3995.00,0.0006
3994.00,0.0006
3993.00,0.0006
3992.00,0.0006
3991.00,0.0006
3990.00,0.0006
3989.00,0.0006
3988.00,0.0006
3987.00,0.0006
3986.00,0.0006
3985.00,0.0006
3984.00,0.0006
3983.00,0.0006
3982.00,0.0006
3981.00,0.0006
3980.00,0.0006
3979.00,0.0006
3978.00,0.0006
3977.00,0.0006
3976.00,0.0006
3975.00,0.0006
3974.00,0.0006
3973.00,0.0006
3972.00,0.0007
3971.00,0.0007
3970.00,0.0007
3969.00,0.0007
3968.00,0.0007
3967.00,0.0007
3966.00,0.0007
3965.00,0.0007
3964.00,0.0007
3963.00,0.0007
3962.00,0.0007
3961.00,0.0007
3960.00,0.0007
3959.00,0.0007
3958.00,0.0006
3957.00,0.0006
3956.00,0.0006
3955.00,0.0006
3954.00,0.0006
3953.00,0.0006
3952.00,0.0006
3951.00,0.0006
3950.00,0.0006
3949.00,0.0006
3948.00,0.0007
3947.00,0.0007
3946.00,0.0007
3945.00,0.0007
3944.00,0.0006
3943.00,0.0006
3942.00,0.0006
3941.00,0.0006
3940.00,0.0007
3939.00,0.0007
3938.00,0.0007
3937.00,0.0007
3936.00,0.0007
3935.00,0.0007
3934.00,0.0007
3933.00,0.0007
3932.00,0.0007
3931.00,0.0007
3930.00,0.0007
3929.00,0.0007
3928.00,0.0007
3927.00,0.0006
3926.00,0.0006
3925.00,0.0006
3924.00,0.0007
3923.00,0.0007
3922.00,0.0007
3921.00,0.0007
3920.00,0.0007
3919.00,0.0007
3918.00,0.0007
3917.00,0.0007
3916.00,0.0007
3915.00,0.0007
3914.00,0.0007
3913.00,0.0007
3912.00,0.0007
3911.00,0.0007
3910.00,0.0007
3909.00,0.0007
3908.00,0.0007
3907.00,0.0007
3906.00,0.0007
3905.00,0.0007
3904.00,0.0007
3903.00,0.0008
3902.00,0.0008
3901.00,0.0007
3900.00,0.0007
3899.00,0.0007
3898.00,0.0007
3897.00,0.0007
3896.00,0.0007
3895.00,0.0007
3894.00,0.0007
3893.00,0.0007
3892.00,0.0007
3891.00,0.0008
3890.00,0.0008
3889.00,0.0008
3888.00,0.0007
3887.00,0.0007
3886.00,0.0007
3885.00,0.0008
3884.00,0.0008
3883.00,0.0008
3882.00,0.0007
3881.00,0.0007
3880.00,0.0008
3879.00,0.0008
3878.00,0.0008
3877.00,0.0008
3876.00,0.0008
3875.00,0.0008
3874.00,0.0008
3873.00,0.0008
3872.00,0.0008
3871.00,0.0008
3870.00,0.0008
3869.00,0.0008
3868.00,0.0008
3867.00,0.0008
3866.00,0.0008
3865.00,0.0008
3864.00,0.0008
3863.00,0.0008
3862.00,0.0008
3861.00,0.0008
3860.00,0.0008
3859.00,0.0008
3858.00,0.0008
3857.00,0.0008
3856.00,0.0008
3855.00,0.0007
3854.00,0.0008
3853.00,0.0008
3852.00,0.0008
3851.00,0.0008
3850.00,0.0008
3849.00,0.0008
3848.00,0.0008
3847.00,0.0008
3846.00,0.0008
3845.00,0.0008
3844.00,0.0008
3843.00,0.0008
3842.00,0.0008
3841.00,0.0008
3840.00,0.0008
3839.00,0.0008
3838.00,0.0008
3837.00,0.0008
3836.00,0.0009
3835.00,0.0009
3834.00,0.0009
3833.00,0.0008
3832.00,0.0009
3831.00,0.0009
3830.00,0.0009
3829.00,0.0008
3828.00,0.0008
3827.00,0.0008
3826.00,0.0008
3825.00,0.0008
3824.00,0.0008
3823.00,0.0008
3822.00,0.0008
3821.00,0.0009
3820.00,0.0009
3819.00,0.0009
3818.00,0.0009
3817.00,0.0008
3816.00,0.0008
3815.00,0.0009
3814.00,0.0008
3813.00,0.0008
3812.00,0.0008
3811.00,0.0008
3810.00,0.0008
3809.00,0.0008
3808.00,0.0008
3807.00,0.0008
3806.00,0.0009
3805.00,0.0009
3804.00,0.0008
3803.00,0.0008
3802.00,0.0008
3801.00,0.0009
3800.00,0.0009
3799.00,0.0008
3798.00,0.0008
3797.00,0.0008
3796.00,0.0009
3795.00,0.0009
3794.00,0.0009
3793.00,0.0009
3792.00,0.0008
3791.00,0.0009
3790.00,0.0009
3789.00,0.0009
3788.00,0.0008
3787.00,0.0008
3786.00,0.0008
3785.00,0.0008
3784.00,0.0008
3783.00,0.0008
3782.00,0.0009
3781.00,0.0009
3780.00,0.0009
3779.00,0.0009
3778.00,0.0009
3777.00,0.0008
3776.00,0.0008
3775.00,0.0008
3774.00,0.0008
3773.00,0.0008
3772.00,0.0008
3771.00,0.0008
3770.00,0.0008
3769.00,0.0009
3768.00,0.0009
3767.00,0.0008
3766.00,0.0008
3765.00,0.0009
3764.00,0.0009
3763.00,0.0009
3762.00,0.0008
3761.00,0.0008
3760.00,0.0009
3759.00,0.0009
3758.00,0.0009
3757.00,0.0009
3756.00,0.0009
3755.00,0.0010
3754.00,0.0010
3753.00,0.0010
3752.00,0.0010
3751.00,0.0010
3750.00,0.0010
3749.00,0.0010
3748.00,0.0010
3747.00,0.0009
3746.00,0.0009
3745.00,0.0009
3744.00,0.0010
3743.00,0.0011
3742.00,0.0010
3741.00,0.0010
3740.00,0.0010
3739.00,0.0010
3738.00,0.0010
3737.00,0.0010
3736.00,0.0010
3735.00,0.0009
3734.00,0.0009
3733.00,0.0008
3732.00,0.0009
3731.00,0.0009
3730.00,0.0009
3729.00,0.0009
3728.00,0.0009
3727.00,0.0010
3726.00,0.0010
3725.00,0.0009
3724.00,0.0009
3723.00,0.0009
3722.00,0.0009
3721.00,0.0009
3720.00,0.0009
3719.00,0.0009
3718.00,0.0009
3717.00,0.0009
3716.00,0.0009
3715.00,0.0009
3714.00,0.0009
3713.00,0.0010
3712.00,0.0010
3711.00,0.0010
3710.00,0.0009
3709.00,0.0009
3708.00,0.0009
3707.00,0.0009
3706.00,0.0009
3705.00,0.0009
3704.00,0.0009
3703.00,0.0008
3702.00,0.0008
3701.00,0.0008
3700.00,0.0008
3699.00,0.0009
3698.00,0.0009
3697.00,0.0009
3696.00,0.0009
3695.00,0.0009
3694.00,0.0009
3693.00,0.0009
3692.00,0.0009
3691.00,0.0009
3690.00,0.0009
3689.00,0.0009
3688.00,0.0009
3687.00,0.0009
3686.00,0.0009
3685.00,0.0009
3684.00,0.0009
3683.00,0.0010
3682.00,0.0010
3681.00,0.0010
3680.00,0.0010
3679.00,0.0010
3678.00,0.0010
3677.00,0.0009
3676.00,0.0010
3675.00,0.0010
3674.00,0.0011
3673.00,0.0010
3672.00,0.0010
3671.00,0.0010
3670.00,0.0010
3669.00,0.0010
3668.00,0.0010
3667.00,0.0010
3666.00,0.0010
3665.00,0.0010
3664.00,0.0010
3663.00,0.0009
3662.00,0.0009
3661.00,0.0009
3660.00,0.0009
3659.00,0.0009
3658.00,0.0008
3657.00,0.0009
3656.00,0.0009
3655.00,0.0010
3654.00,0.0010
3653.00,0.0010
3652.00,0.0009
3651.00,0.0010
3650.00,0.0010
3649.00,0.0010
3648.00,0.0010
3647.00,0.0010
3646.00,0.0010
3645.00,0.0010
3644.00,0.0010
3643.00,0.0010
3642.00,0.0009
3641.00,0.0009
3640.00,0.0009
3639.00,0.0009
3638.00,0.0009
3637.00,0.0009
3636.00,0.0009
3635.00,0.0008
3634.00,0.0008
3633.00,0.0008
3632.00,0.0008
3631.00,0.0008
3630.00,0.0008
3629.00,0.0009
3628.00,0.0009
3627.00,0.0009
3626.00,0.0009
3625.00,0.0008
3624.00,0.0009
3623.00,0.0009
3622.00,0.0009
3621.00,0.0008
3620.00,0.0008
3619.00,0.0008
3618.00,0.0009
3617.00,0.0009
3616.00,0.0009
3615.00,0.0009
3614.00,0.0009
3613.00,0.0010
3612.00,0.0010
3611.00,0.0009
3610.00,0.0009
3609.00,0.0009
3608.00,0.0009
3607.00,0.0009
3606.00,0.0008
3605.00,0.0008
3604.00,0.0008
3603.00,0.0009
3602.00,0.0009
3601.00,0.0009
3600.00,0.0008
3599.00,0.0008
3598.00,0.0008
3597.00,0.0008
3596.00,0.0008
3595.00,0.0008
3594.00,0.0008
3593.00,0.0009
3592.00,0.0009
3591.00,0.0009
3590.00,0.0009
3589.00,0.0009
3588.00,0.0009
3587.00,0.0009
3586.00,0.0009
3585.00,0.0009
3584.00,0.0009
3583.00,0.0009
3582.00,0.0009
3581.00,0.0009
3580.00,0.0008
3579.00,0.0008
3578.00,0.0008
3577.00,0.0008
3576.00,0.0008
3575.00,0.0008
3574.00,0.0008
3573.00,0.0008
3572.00,0.0008
3571.00,0.0008
3570.00,0.0008
3569.00,0.0008
3568.00,0.0008
3567.00,0.0008
3566.00,0.0009
3565.00,0.0009
3564.00,0.0009
3563.00,0.0009
3562.00,0.0009
3561.00,0.0009
3560.00,0.0009
3559.00,0.0008
3558.00,0.0008
3557.00,0.0008
3556.00,0.0008
3555.00,0.0008
3554.00,0.0008
3553.00,0.0008
3552.00,0.0008
3551.00,0.0008
3550.00,0.0008
3549.00,0.0008
3548.00,0.0008
3547.00,0.0008
3546.00,0.0008
3545.00,0.0008
3544.00,0.0008
3543.00,0.0008
3542.00,0.0008
3541.00,0.0008
3540.00,0.0008
3539.00,0.0008
3538.00,0.0007
3537.00,0.0007
3536.00,0.0007
3535.00,0.0007
3534.00,0.0007
3533.00,0.0007
3532.00,0.0007
3531.00,0.0008
3530.00,0.0008
3529.00,0.0008
3528.00,0.0008
3527.00,0.0008
3526.00,0.0008
3525.00,0.0008
3524.00,0.0007
3523.00,0.0007
3522.00,0.0007
3521.00,0.0007
3520.00,0.0007
3519.00,0.0007
3518.00,0.0007
3517.00,0.0007
3516.00,0.0007
3515.00,0.0007
3514.00,0.0007
3513.00,0.0007
3512.00,0.0007
3511.00,0.0007
3510.00,0.0007
3509.00,0.0007
3508.00,0.0007
3507.00,0.0007
3506.00,0.0007
3505.00,0.0007
3504.00,0.0007
3503.00,0.0007
3502.00,0.0007
3501.00,0.0007
3500.00,0.0007
3499.00,0.0007
3498.00,0.0007
3497.00,0.0007
3496.00,0.0007
3495.00,0.0007
3494.00,0.0007
3493.00,0.0007
3492.00,0.0007
3491.00,0.0007
3490.00,0.0007
3489.00,0.0007
3488.00,0.0007
3487.00,0.0007
3486.00,0.0007
3485.00,0.0007
3484.00,0.0006
3483.00,0.0006
3482.00,0.0007
3481.00,0.0007
3480.00,0.0007
3479.00,0.0007
3478.00,0.0007
3477.00,0.0006
3476.00,0.0006
3475.00,0.0006
3474.00,0.0006
3473.00,0.0006
3472.00,0.0006
3471.00,0.0006
3470.00,0.0006
3469.00,0.0006
3468.00,0.0006
3467.00,0.0006
3466.00,0.0006
3465.00,0.0006
3464.00,0.0006
3463.00,0.0006
3462.00,0.0006
3461.00,0.0006
3460.00,0.0006
3459.00,0.0006
3458.00,0.0006
3457.00,0.0006
3456.00,0.0006
3455.00,0.0007
3454.00,0.0007
3453.00,0.0007
3452.00,0.0006
3451.00,0.0006
3450.00,0.0006
3449.00,0.0006
3448.00,0.0006
3447.00,0.0006
3446.00,0.0006
3445.00,0.0006
3444.00,0.0006
3443.00,0.0006
3442.00,0.0006
3441.00,0.0006
3440.00,0.0006
3439.00,0.0006
3438.00,0.0006
3437.00,0.0006
3436.00,0.0006
3435.00,0.0007
3434.00,0.0007
3433.00,0.0006
3432.00,0.0006
3431.00,0.0006
3430.00,0.0006
3429.00,0.0006
3428.00,0.0006
3427.00,0.0006
3426.00,0.0006
3425.00,0.0006
3424.00,0.0006
3423.00,0.0006
3422.00,0.0006
3421.00,0.0006
3420.00,0.0006
3419.00,0.0006
3418.00,0.0006
3417.00,0.0006
3416.00,0.0006
3415.00,0.0006
3414.00,0.0006
3413.00,0.0006
3412.00,0.0006
3411.00,0.0006
3410.00,0.0006
3409.00,0.0006
3408.00,0.0006
3407.00,0.0006
3406.00,0.0006
3405.00,0.0006
3404.00,0.0006
3403.00,0.0006
3402.00,0.0006
3401.00,0.0006
3400.00,0.0006
3399.00,0.0006
3398.00,0.0006
3397.00,0.0006
3396.00,0.0006
3395.00,0.0006
3394.00,0.0006
3393.00,0.0006
3392.00,0.0006
3391.00,0.0006
3390.00,0.0006
3389.00,0.0006
3388.00,0.0006
3387.00,0.0006
3386.00,0.0006
3385.00,0.0006
3384.00,0.0006
3383.00,0.0006
3382.00,0.0006
3381.00,0.0006
3380.00,0.0007
3379.00,0.0007
3378.00,0.0007
3377.00,0.0007
3376.00,0.0007
3375.00,0.0006
3374.00,0.0006
3373.00,0.0006
3372.00,0.0006
3371.00,0.0006
3370.00,0.0006
3369.00,0.0006
3368.00,0.0007
3367.00,0.0006
3366.00,0.0006
3365.00,0.0006
3364.00,0.0006
3363.00,0.0006
3362.00,0.0006
3361.00,0.0006
3360.00,0.0006
3359.00,0.0006
3358.00,0.0006
3357.00,0.0006
3356.00,0.0006
3355.00,0.0006
3354.00,0.0006
3353.00,0.0006
3352.00,0.0006
3351.00,0.0007
3350.00,0.0007
3349.00,0.0007
3348.00,0.0007
3347.00,0.0007
3346.00,0.0007
3345.00,0.0007
3344.00,0.0007
3343.00,0.0007
3342.00,0.0007
3341.00,0.0007
3340.00,0.0007
3339.00,0.0007
3338.00,0.0007
3337.00,0.0007
3336.00,0.0007
3335.00,0.0007
3334.00,0.0007
3333.00,0.0007
3332.00,0.0007
3331.00,0.0007
3330.00,0.0007
3329.00,0.0007
3328.00,0.0007
3327.00,0.0007
3326.00,0.0007
3325.00,0.0007
3324.00,0.0007
3323.00,0.0007
3322.00,0.0007
3321.00,0.0007
3320.00,0.0007
3319.00,0.0007
3318.00,0.0007
3317.00,0.0007
3316.00,0.0007
3315.00,0.0007
3314.00,0.0007
3313.00,0.0007
3312.00,0.0007
3311.00,0.0007
3310.00,0.0007
3309.00,0.0007
3308.00,0.0007
3307.00,0.0007
3306.00,0.0007
3305.00,0.0007
3304.00,0.0007
3303.00,0.0007
3302.00,0.0007
3301.00,0.0007
3300.00,0.0007
3299.00,0.0007
3298.00,0.0007
3297.00,0.0007
3296.00,0.0007
3295.00,0.0007
3294.00,0.0007
3293.00,0.0007
3292.00,0.0007
3291.00,0.0007
3290.00,0.0007
3289.00,0.0007
3288.00,0.0007
3287.00,0.0007
3286.00,0.0008
3285.00,0.0008
3284.00,0.0008
3283.00,0.0008
3282.00,0.0008
3281.00,0.0008
3280.00,0.0008
3279.00,0.0008
3278.00,0.0008
3277.00,0.0008
3276.00,0.0008
3275.00,0.0008
3274.00,0.0008
3273.00,0.0008
3272.00,0.0008
3271.00,0.0008
3270.00,0.0008
3269.00,0.0008
3268.00,0.0008
3267.00,0.0008
3266.00,0.0008
3265.00,0.0008
3264.00,0.0008
3263.00,0.0008
3262.00,0.0008
3261.00,0.0008
3260.00,0.0008
3259.00,0.0008
3258.00,0.0008
3257.00,0.0008
3256.00,0.0008
3255.00,0.0008
3254.00,0.0008
3253.00,0.0008
3252.00,0.0008
3251.00,0.0008
3250.00,0.0008
3249.00,0.0008
3248.00,0.0008
3247.00,0.0008
3246.00,0.0008
3245.00,0.0008
3244.00,0.0008
3243.00,0.0008
3242.00,0.0008
3241.00,0.0008
3240.00,0.0008
3239.00,0.0008
3238.00,0.0008
3237.00,0.0008
3236.00,0.0008
3235.00,0.0008
3234.00,0.0008
3233.00,0.0008
3232.00,0.0008
3231.00,0.0008
3230.00,0.0008
3229.00,0.0008
3228.00,0.0008
3227.00,0.0008
3226.00,0.0008
3225.00,0.0008
3224.00,0.0008
3223.00,0.0008
3222.00,0.0008
3221.00,0.0008
3220.00,0.0008
3219.00,0.0009
3218.00,0.0009
3217.00,0.0009
3216.00,0.0008
3215.00,0.0008
3214.00,0.0008
3213.00,0.0008
3212.00,0.0008
3211.00,0.0008
3210.00,0.0008
3209.00,0.0008
3208.00,0.0008
3207.00,0.0008
3206.00,0.0008
3205.00,0.0008
3204.00,0.0008
3203.00,0.0008
3202.00,0.0008
3201.00,0.0008
3200.00,0.0008
3199.00,0.0008
3198.00,0.0008
3197.00,0.0008
3196.00,0.0008
3195.00,0.0008
3194.00,0.0008
3193.00,0.0008
3192.00,0.0008
3191.00,0.0008
3190.00,0.0009
3189.00,0.0009
3188.00,0.0009
3187.00,0.0009
3186.00,0.0009
3185.00,0.0008
3184.00,0.0008
3183.00,0.0008
3182.00,0.0008
3181.00,0.0008
3180.00,0.0009
3179.00,0.0009
3178.00,0.0009
3177.00,0.0009
3176.00,0.0009
3175.00,0.0009
3174.00,0.0009
3173.00,0.0009
3172.00,0.0009
3171.00,0.0009
3170.00,0.0009
3169.00,0.0009
3168.00,0.0009
3167.00,0.0009
3166.00,0.0009
3165.00,0.0009
3164.00,0.0009
3163.00,0.0009
3162.00,0.0009
3161.00,0.0009
3160.00,0.0009
3159.00,0.0009
3158.00,0.0009
3157.00,0.0009
3156.00,0.0009
3155.00,0.0009
3154.00,0.0009
3153.00,0.0009
3152.00,0.0009
3151.00,0.0009
3150.00,0.0009
3149.00,0.0009
3148.00,0.0009
3147.00,0.0009
3146.00,0.0009
3145.00,0.0009
3144.00,0.0009
3143.00,0.0009
3142.00,0.0009
3141.00,0.0009
3140.00,0.0009
3139.00,0.0009
3138.00,0.0009
3137.00,0.0009
3136.00,0.0009
3135.00,0.0009
3134.00,0.0009
3133.00,0.0009
3132.00,0.0009
3131.00,0.0009
3130.00,0.0010
3129.00,0.0010
3128.00,0.0010
3127.00,0.0010
3126.00,0.0009
3125.00,0.0009
3124.00,0.0009
3123.00,0.0009
3122.00,0.0009
3121.00,0.0009
3120.00,0.0009
3119.00,0.0009
3118.00,0.0009
3117.00,0.0009
3116.00,0.0009
3115.00,0.0009
3114.00,0.0009
3113.00,0.0009
3112.00,0.0009
3111.00,0.0009
3110.00,0.0009
3109.00,0.0009
3108.00,0.0009
3107.00,0.0009
3106.00,0.0009
3105.00,0.0009
3104.00,0.0009
3103.00,0.0010
3102.00,0.0010
3101.00,0.0010
3100.00,0.0010
3099.00,0.0010
3098.00,0.0010
3097.00,0.0010
3096.00,0.0010
3095.00,0.0009
3094.00,0.0009
3093.00,0.0009
3092.00,0.0009
3091.00,0.0009
3090.00,0.0010
3089.00,0.0010
3088.00,0.0010
3087.00,0.0010
3086.00,0.0010
3085.00,0.0010
3084.00,0.0010
3083.00,0.0010
3082.00,0.0010
3081.00,0.0010
3080.00,0.0010
3079.00,0.0009
3078.00,0.0009
3077.00,0.0010
3076.00,0.0010
3075.00,0.0010
3074.00,0.0010
3073.00,0.0010
3072.00,0.0010
3071.00,0.0010
3070.00,0.0010
3069.00,0.0010
3068.00,0.0010
3067.00,0.0010
3066.00,0.0010
3065.00,0.0010
3064.00,0.0010
3063.00,0.0010
3062.00,0.0010
3061.00,0.0010
3060.00,0.0010
3059.00,0.0010
3058.00,0.0010
3057.00,0.0010
3056.00,0.0010
3055.00,0.0010
3054.00,0.0010
3053.00,0.0010
3052.00,0.0010
3051.00,0.0010
3050.00,0.0010
3049.00,0.0010
3048.00,0.0010
3047.00,0.0010
3046.00,0.0010
3045.00,0.0010
3044.00,0.0010
3043.00,0.0010
3042.00,0.0010
3041.00,0.0010
3040.00,0.0010
3039.00,0.0010
3038.00,0.0010
3037.00,0.0010
3036.00,0.0010
3035.00,0.0010
3034.00,0.0010
3033.00,0.0010
3032.00,0.0010
3031.00,0.0010
3030.00,0.0010
3029.00,0.0010
3028.00,0.0010
3027.00,0.0010
3026.00,0.0010
3025.00,0.0010
3024.00,0.0010
3023.00,0.0010
3022.00,0.0010
3021.00,0.0010
3020.00,0.0010
3019.00,0.0010
3018.00,0.0010
3017.00,0.0010
3016.00,0.0010
3015.00,0.0010
3014.00,0.0010
3013.00,0.0010
3012.00,0.0010
3011.00,0.0010
3010.00,0.0010
3009.00,0.0010
3008.00,0.0010
3007.00,0.0010
3006.00,0.0010
3005.00,0.0010
3004.00,0.0010
3003.00,0.0010
3002.00,0.0010
3001.00,0.0010
3000.00,0.0010
2999.00,0.0010
2998.00,0.0010
2997.00,0.0010
2996.00,0.0010
2995.00,0.0010
2994.00,0.0010
2993.00,0.0010
2992.00,0.0010
2991.00,0.0011
2990.00,0.0011
2989.00,0.0010
2988.00,0.0010
2987.00,0.0010
2986.00,0.0011
2985.00,0.0011
2984.00,0.0011
2983.00,0.0011
2982.00,0.0011
2981.00,0.0011
2980.00,0.0011
2979.00,0.0011
2978.00,0.0011
2977.00,0.0011
2976.00,0.0011
2975.00,0.0011
2974.00,0.0011
2973.00,0.0011
2972.00,0.0011
2971.00,0.0011
2970.00,0.0011
2969.00,0.0011
2968.00,0.0011
2967.00,0.0011
2966.00,0.0011
2965.00,0.0010
2964.00,0.0011
2963.00,0.0011
2962.00,0.0011
2961.00,0.0011
2960.00,0.0011
2959.00,0.0011
2958.00,0.0011
2957.00,0.0011
2956.00,0.0011
2955.00,0.0011
2954.00,0.0011
2953.00,0.0011
2952.00,0.0010
2951.00,0.0010
2950.00,0.0010
2949.00,0.0010
2948.00,0.0011
2947.00,0.0011
2946.00,0.0011
2945.00,0.0010
2944.00,0.0010
2943.00,0.0010
2942.00,0.0010
2941.00,0.0011
2940.00,0.0011
2939.00,0.0011
2938.00,0.0011
2937.00,0.0011
2936.00,0.0011
2935.00,0.0011
2934.00,0.0011
2933.00,0.0011
2932.00,0.0011
2931.00,0.0011
2930.00,0.0011
2929.00,0.0011
2928.00,0.0011
2927.00,0.0011
2926.00,0.0011
2925.00,0.0011
2924.00,0.0011
2923.00,0.0011
2922.00,0.0011
2921.00,0.0010
2920.00,0.0010
2919.00,0.0010
2918.00,0.0010
2917.00,0.0010
2916.00,0.0010
2915.00,0.0010
2914.00,0.0010
2913.00,0.0011
2912.00,0.0011
2911.00,0.0011
2910.00,0.0011
2909.00,0.0010
2908.00,0.0010
2907.00,0.0010
2906.00,0.0010
2905.00,0.0010
2904.00,0.0010
2903.00,0.0010
2902.00,0.0010
2901.00,0.0010
2900.00,0.0011
2899.00,0.0011
2898.00,0.0011
2897.00,0.0011
2896.00,0.0011
2895.00,0.0011
2894.00,0.0011
2893.00,0.0011
2892.00,0.0011
2891.00,0.0011
2890.00,0.0011
2889.00,0.0011
2888.00,0.0011
2887.00,0.0011
2886.00,0.0011
2885.00,0.0011
2884.00,0.0011
2883.00,0.0011
2882.00,0.0011
2881.00,0.0011
2880.00,0.0011
2879.00,0.0011
2878.00,0.0011
2877.00,0.0011
2876.00,0.0011
2875.00,0.0011
2874.00,0.0011
2873.00,0.0011
2872.00,0.0011
2871.00,0.0011
2870.00,0.0011
2869.00,0.0011
2868.00,0.0011
2867.00,0.0011
2866.00,0.0011
2865.00,0.0011
2864.00,0.0011
2863.00,0.0011
2862.00,0.0011
2861.00,0.0011
2860.00,0.0011
2859.00,0.0010
2858.00,0.0010
2857.00,0.0010
2856.00,0.0010
2855.00,0.0010
2854.00,0.0010
2853.00,0.0011
2852.00,0.0010
2851.00,0.0010
2850.00,0.0010
2849.00,0.0010
2848.00,0.0010
2847.00,0.0010
2846.00,0.0010
2845.00,0.0010
2844.00,0.0010
2843.00,0.0010
2842.00,0.0010
2841.00,0.0010
2840.00,0.0010
2839.00,0.0010
2838.00,0.0010
2837.00,0.0011
2836.00,0.0011
2835.00,0.0011
2834.00,0.0011
2833.00,0.0011
2832.00,0.0011
2831.00,0.0011
2830.00,0.0011
2829.00,0.0011
2828.00,0.0011
2827.00,0.0011
2826.00,0.0010
2825.00,0.0010
2824.00,0.0011
2823.00,0.0010
2822.00,0.0010
2821.00,0.0010
2820.00,0.0011
2819.00,0.0011
2818.00,0.0011
2817.00,0.0011
2816.00,0.0011
2815.00,0.0011
2814.00,0.0011
2813.00,0.0011
2812.00,0.0011
2811.00,0.0011
2810.00,0.0011
2809.00,0.0011
2808.00,0.0011
2807.00,0.0010
2806.00,0.0010
2805.00,0.0010
2804.00,0.0010
2803.00,0.0011
2802.00,0.0011
2801.00,0.0011
2800.00,0.0011
2799.00,0.0011
2798.00,0.0011
2797.00,0.0011
2796.00,0.0011
2795.00,0.0011
2794.00,0.0011
2793.00,0.0011
2792.00,0.0011
2791.00,0.0011
2790.00,0.0011
2789.00,0.0011
2788.00,0.0011
2787.00,0.0011
2786.00,0.0011
2785.00,0.0011
2784.00,0.0011
2783.00,0.0011
2782.00,0.0011
2781.00,0.0011
2780.00,0.0011
2779.00,0.0011
2778.00,0.0011
2777.00,0.0011
2776.00,0.0011
2775.00,0.0011
2774.00,0.0011
2773.00,0.0011
2772.00,0.0011
2771.00,0.0011
2770.00,0.0011
2769.00,0.0011
2768.00,0.0011
2767.00,0.0011
2766.00,0.0011
2765.00,0.0011
2764.00,0.0011
2763.00,0.0011
2762.00,0.0011
2761.00,0.0011
2760.00,0.0011
2759.00,0.0011
2758.00,0.0010
2757.00,0.0010
2756.00,0.0010
2755.00,0.0010
2754.00,0.0011
2753.00,0.0010
2752.00,0.0010
2751.00,0.0010
2750.00,0.0010
2749.00,0.0010
2748.00,0.0010
2747.00,0.0010
2746.00,0.0010
2745.00,0.0011
2744.00,0.0011
2743.00,0.0011
2742.00,0.0011
2741.00,0.0011
2740.00,0.0011
2739.00,0.0011
2738.00,0.0011
2737.00,0.0011
2736.00,0.0011
2735.00,0.0011
2734.00,0.0011
2733.00,0.0011
2732.00,0.0011
2731.00,0.0011
2730.00,0.0011
2729.00,0.0011
2728.00,0.0010
2727.00,0.0010
2726.00,0.0011
2725.00,0.0011
2724.00,0.0011
2723.00,0.0011
2722.00,0.0011
2721.00,0.0011
2720.00,0.0011
2719.00,0.0011
2718.00,0.0011
2717.00,0.0011
2716.00,0.0011
2715.00,0.0011
2714.00,0.0011
2713.00,0.0011
2712.00,0.0011
2711.00,0.0011
2710.00,0.0011
2709.00,0.0011
2708.00,0.0011
2707.00,0.0011
2706.00,0.0011
2705.00,0.0011
2704.00,0.0011
2703.00,0.0011
2702.00,0.0011
2701.00,0.0011
2700.00,0.0011
2699.00,0.0011
2698.00,0.0011
2697.00,0.0011
2696.00,0.0011
2695.00,0.0011
2694.00,0.0011
2693.00,0.0011
2692.00,0.0011
2691.00,0.0011
2690.00,0.0011
2689.00,0.0011
2688.00,0.0011
2687.00,0.0011
2686.00,0.0011
2685.00,0.0011
2684.00,0.0011
2683.00,0.0011
2682.00,0.0011
2681.00,0.0011
2680.00,0.0011
2679.00,0.0010
2678.00,0.0010
2677.00,0.0011
2676.00,0.0011
2675.00,0.0011
2674.00,0.0011
2673.00,0.0011
2672.00,0.0011
2671.00,0.0011
2670.00,0.0011
2669.00,0.0011
2668.00,0.0011
2667.00,0.0011
2666.00,0.0011
2665.00,0.0011
2664.00,0.0011
2663.00,0.0011
2662.00,0.0011
2661.00,0.0011
2660.00,0.0011
2659.00,0.0011
2658.00,0.0011
2657.00,0.0011
2656.00,0.0011
2655.00,0.0011
2654.00,0.0011
2653.00,0.0011
2652.00,0.0011
2651.00,0.0011
2650.00,0.0011
2649.00,0.0011
2648.00,0.0011
2647.00,0.0011
2646.00,0.0011
2645.00,0.0011
2644.00,0.0011
2643.00,0.0011
2642.00,0.0011
2641.00,0.0011
2640.00,0.0011
2639.00,0.0011
2638.00,0.0011
2637.00,0.0011
2636.00,0.0011
2635.00,0.0011
2634.00,0.0011
2633.00,0.0011
2632.00,0.0011
2631.00,0.0011
2630.00,0.0011
2629.00,0.0011
2628.00,0.0011
2627.00,0.0011
2626.00,0.0011
2625.00,0.0011
2624.00,0.0011
2623.00,0.0011
2622.00,0.0011
2621.00,0.0011
2620.00,0.0011
2619.00,0.0011
2618.00,0.0011
2617.00,0.0011
2616.00,0.0011
2615.00,0.0011
2614.00,0.0011
2613.00,0.0011
2612.00,0.0011
2611.00,0.0011
2610.00,0.0011
2609.00,0.0011
2608.00,0.0011
2607.00,0.0011
2606.00,0.0011
2605.00,0.0011
2604.00,0.0011
2603.00,0.0011
2602.00,0.0011
2601.00,0.0011
2600.00,0.0011
2599.00,0.0011
2598.00,0.0011
2597.00,0.0011
2596.00,0.0011
2595.00,0.0011
2594.00,0.0011
2593.00,0.0011
2592.00,0.0011
2591.00,0.0011
2590.00,0.0011
2589.00,0.0011
2588.00,0.0011
2587.00,0.0011
2586.00,0.0011
2585.00,0.0011
2584.00,0.0011
2583.00,0.0011
2582.00,0.0011
2581.00,0.0011
2580.00,0.0011
2579.00,0.0011
2578.00,0.0011
2577.00,0.0011
2576.00,0.0011
2575.00,0.0011
2574.00,0.0011
2573.00,0.0011
2572.00,0.0011
2571.00,0.0011
2570.00,0.0011
2569.00,0.0011
2568.00,0.0011
2567.00,0.0011
2566.00,0.0011
2565.00,0.0011
2564.00,0.0011
2563.00,0.0011
2562.00,0.0011
2561.00,0.0011
2560.00,0.0011
2559.00,0.0011
2558.00,0.0011
2557.00,0.0011
2556.00,0.0011
2555.00,0.0011
2554.00,0.0011
2553.00,0.0011
2552.00,0.0011
2551.00,0.0011
2550.00,0.0011
2549.00,0.0011
2548.00,0.0011
2547.00,0.0011
2546.00,0.0011
2545.00,0.0011
2544.00,0.0011
2543.00,0.0011
2542.00,0.0011
2541.00,0.0011
2540.00,0.0011
2539.00,0.0011
2538.00,0.0011
2537.00,0.0011
2536.00,0.0011
2535.00,0.0011
2534.00,0.0011
2533.00,0.0011
2532.00,0.0011
2531.00,0.0011
2530.00,0.0011
2529.00,0.0011
2528.00,0.0011
2527.00,0.0011
2526.00,0.0011
2525.00,0.0011
2524.00,0.0011
2523.00,0.0011
2522.00,0.0011
2521.00,0.0011
2520.00,0.0011
2519.00,0.0011
2518.00,0.0011
2517.00,0.0011
2516.00,0.0011
2515.00,0.0011
2514.00,0.0011
2513.00,0.0011
2512.00,0.0011
2511.00,0.0011
2510.00,0.0011
2509.00,0.0011
2508.00,0.0011
2507.00,0.0011
2506.00,0.0011
2505.00,0.0011
2504.00,0.0011
2503.00,0.0011
2502.00,0.0011
2501.00,0.0011
2500.00,0.0011
2499.00,0.0011
2498.00,0.0011
2497.00,0.0011
2496.00,0.0011
2495.00,0.0011
2494.00,0.0011
2493.00,0.0011
2492.00,0.0011
2491.00,0.0011
2490.00,0.0011
2489.00,0.0011
2488.00,0.0011
2487.00,0.0011
2486.00,0.0011
2485.00,0.0011
2484.00,0.0011
2483.00,0.0011
2482.00,0.0011
2481.00,0.0011
2480.00,0.0011
2479.00,0.0011
2478.00,0.0011
2477.00,0.0011
2476.00,0.0011
2475.00,0.0011
2474.00,0.0011
2473.00,0.0011
2472.00,0.0011
2471.00,0.0011
2470.00,0.0011
2469.00,0.0011
2468.00,0.0011
2467.00,0.0011
2466.00,0.0011
2465.00,0.0011
2464.00,0.0011
2463.00,0.0011
2462.00,0.0011
2461.00,0.0011
2460.00,0.0011
2459.00,0.0011
2458.00,0.0011
2457.00,0.0011
2456.00,0.0011
2455.00,0.0011
2454.00,0.0011
2453.00,0.0011
2452.00,0.0011
2451.00,0.0011
2450.00,0.0011
2449.00,0.0011
2448.00,0.0011
2447.00,0.0011
2446.00,0.0011
2445.00,0.0011
2444.00,0.0011
2443.00,0.0011
2442.00,0.0011
2441.00,0.0011
2440.00,0.0011
2439.00,0.0011
2438.00,0.0010
2437.00,0.0010
2436.00,0.0010
2435.00,0.0011
2434.00,0.0011
2433.00,0.0011
2432.00,0.0011
2431.00,0.0011
2430.00,0.0011
2429.00,0.0011
2428.00,0.0011
2427.00,0.0011
2426.00,0.0011
2425.00,0.0011
2424.00,0.0011
2423.00,0.0010
2422.00,0.0011
2421.00,0.0011
2420.00,0.0011
2419.00,0.0011
2418.00,0.0011
2417.00,0.0011
2416.00,0.0011
2415.00,0.0011
2414.00,0.0011
2413.00,0.0011
2412.00,0.0011
2411.00,0.0011
2410.00,0.0011
2409.00,0.0011
2408.00,0.0011
2407.00,0.0011
2406.00,0.0011
2405.00,0.0010
2404.00,0.0011
2403.00,0.0011
2402.00,0.0011
2401.00,0.0011
2400.00,0.0011
2399.00,0.0011
2398.00,0.0011
2397.00,0.0011
2396.00,0.0011
2395.00,0.0011
2394.00,0.0011
2393.00,0.0011
2392.00,0.0011
2391.00,0.0011
2390.00,0.0011
2389.00,0.0011
2388.00,0.0012
2387.00,0.0012
2386.00,0.0012
2385.00,0.0012
2384.00,0.0013
2383.00,0.0013
2382.00,0.0013
2381.00,0.0012
2380.00,0.0012
2379.00,0.0012
2378.00,0.0011
2377.00,0.0011
2376.00,0.0011
2375.00,0.0011
2374.00,0.0011
2373.00,0.0012
2372.00,0.0012
2371.00,0.0012
2370.00,0.0013
2369.00,0.0013
2368.00,0.0013
2367.00,0.0014
2366.00,0.0014
2365.00,0.0014
2364.00,0.0014
2363.00,0.0014
2362.00,0.0014
2361.00,0.0014
2360.00,0.0014
2359.00,0.0014
2358.00,0.0014
2357.00,0.0015
2356.00,0.0015
2355.00,0.0015
2354.00,0.0015
2353.00,0.0014
2352.00,0.0013
2351.00,0.0013
2350.00,0.0014
2349.00,0.0015
2348.00,0.0017
2347.00,0.0017
2346.00,0.0016
2345.00,0.0015
2344.00,0.0015
2343.00,0.0015
2342.00,0.0016
2341.00,0.0016
2340.00,0.0016
2339.00,0.0015
2338.00,0.0015
2337.00,0.0015
2336.00,0.0015
2335.00,0.0015
2334.00,0.0015
2333.00,0.0015
2332.00,0.0015
2331.00,0.0015
2330.00,0.0015
2329.00,0.0015
2328.00,0.0015
2327.00,0.0015
2326.00,0.0016
2325.00,0.0016
2324.00,0.0016
2323.00,0.0016
2322.00,0.0016
2321.00,0.0015
2320.00,0.0015
2319.00,0.0015
2318.00,0.0015
2317.00,0.0015
2316.00,0.0015
2315.00,0.0015
2314.00,0.0015
2313.00,0.0014
2312.00,0.0014
2311.00,0.0014
2310.00,0.0014
2309.00,0.0014
2308.00,0.0014
2307.00,0.0014
2306.00,0.0014
2305.00,0.0014
2304.00,0.0014
2303.00,0.0013
2302.00,0.0013
2301.00,0.0013
2300.00,0.0013
2299.00,0.0013
2298.00,0.0013
2297.00,0.0013
2296.00,0.0013
2295.00,0.0012
2294.00,0.0012
2293.00,0.0012
2292.00,0.0012
2291.00,0.0012
2290.00,0.0012
2289.00,0.0012
2288.00,0.0012
2287.00,0.0012
2286.00,0.0012
2285.00,0.0012
2284.00,0.0012
2283.00,0.0012
2282.00,0.0011
2281.00,0.0011
2280.00,0.0011
2279.00,0.0011
2278.00,0.0011
2277.00,0.0011
2276.00,0.0011
2275.00,0.0011
2274.00,0.0011
2273.00,0.0011
2272.00,0.0011
2271.00,0.0011
2270.00,0.0011
2269.00,0.0011
2268.00,0.0011
2267.00,0.0011
2266.00,0.0011
2265.00,0.0011
2264.00,0.0011
2263.00,0.0011
2262.00,0.0011
2261.00,0.0011
2260.00,0.0011
2259.00,0.0011
2258.00,0.0011
2257.00,0.0011
2256.00,0.0011
2255.00,0.0011
2254.00,0.0011
2253.00,0.0012
2252.00,0.0012
2251.00,0.0011
2250.00,0.0011
2249.00,0.0011
2248.00,0.0011
2247.00,0.0011
2246.00,0.0011
2245.00,0.0011
2244.00,0.0011
2243.00,0.0011
2242.00,0.0011
2241.00,0.0011
2240.00,0.0011
2239.00,0.0011
2238.00,0.0011
2237.00,0.0011
2236.00,0.0011
2235.00,0.0011
2234.00,0.0011
2233.00,0.0011
2232.00,0.0011
2231.00,0.0011
2230.00,0.0011
2229.00,0.0011
2228.00,0.0011
2227.00,0.0011
2226.00,0.0011
2225.00,0.0011
2224.00,0.0011
2223.00,0.0011
2222.00,0.0011
2221.00,0.0011
2220.00,0.0011
2219.00,0.0011
2218.00,0.0011
2217.00,0.0011
2216.00,0.0011
2215.00,0.0011
2214.00,0.0011
2213.00,0.0011
2212.00,0.0011
2211.00,0.0011
2210.00,0.0011
2209.00,0.0011
2208.00,0.0011
2207.00,0.0011
2206.00,0.0011
2205.00,0.0011
2204.00,0.0011
2203.00,0.0011
2202.00,0.0011
2201.00,0.0011
2200.00,0.0011
2199.00,0.0011
2198.00,0.0011
2197.00,0.0011
2196.00,0.0011
2195.00,0.0011
2194.00,0.0011
2193.00,0.0011
2192.00,0.0011
2191.00,0.0011
2190.00,0.0011
2189.00,0.0011
2188.00,0.0011
2187.00,0.0011
2186.00,0.0011
2185.00,0.0011
2184.00,0.0011
2183.00,0.0011
2182.00,0.0011
2181.00,0.0010
2180.00,0.0011
2179.00,0.0011
2178.00,0.0011
2177.00,0.0011
2176.00,0.0011
2175.00,0.0011
2174.00,0.0011
2173.00,0.0011
2172.00,0.0011
2171.00,0.0011
2170.00,0.0011
2169.00,0.0011
2168.00,0.0011
2167.00,0.0011
2166.00,0.0011
2165.00,0.0011
2164.00,0.0011
2163.00,0.0011
2162.00,0.0011
2161.00,0.0011
2160.00,0.0011
2159.00,0.0011
2158.00,0.0011
2157.00,0.0011
2156.00,0.0011
2155.00,0.0011
2154.00,0.0011
2153.00,0.0011
2152.00,0.0011
2151.00,0.0011
2150.00,0.0011
2149.00,0.0011
2148.00,0.0011
2147.00,0.0011
2146.00,0.0011
2145.00,0.0011
2144.00,0.0011
2143.00,0.0011
2142.00,0.0011
2141.00,0.0011
2140.00,0.0011
2139.00,0.0011
2138.00,0.0011
2137.00,0.0011
2136.00,0.0011
2135.00,0.0011
2134.00,0.0011
2133.00,0.0011
2132.00,0.0011
2131.00,0.0011
2130.00,0.0011
2129.00,0.0011
2128.00,0.0011
2127.00,0.0011
2126.00,0.0011
2125.00,0.0011
2124.00,0.0011
2123.00,0.0011
2122.00,0.0011
2121.00,0.0011
2120.00,0.0011
2119.00,0.0011
2118.00,0.0011
2117.00,0.0011
2116.00,0.0011
2115.00,0.0011
2114.00,0.0011
2113.00,0.0011
2112.00,0.0011
2111.00,0.0011
2110.00,0.0011
2109.00,0.0011
2108.00,0.0011
2107.00,0.0011
2106.00,0.0011
2105.00,0.0011
2104.00,0.0011
2103.00,0.0011
2102.00,0.0011
2101.00,0.0011
2100.00,0.0011
2099.00,0.0011
2098.00,0.0011
2097.00,0.0011
2096.00,0.0011
2095.00,0.0011
2094.00,0.0011
2093.00,0.0011
2092.00,0.0011
2091.00,0.0011
2090.00,0.0011
2089.00,0.0011
2088.00,0.0011
2087.00,0.0011
2086.00,0.0011
2085.00,0.0011
2084.00,0.0011
2083.00,0.0011
2082.00,0.0011
2081.00,0.0011
2080.00,0.0011
2079.00,0.0011
2078.00,0.0011
2077.00,0.0011
2076.00,0.0011
2075.00,0.0011
2074.00,0.0011
2073.00,0.0011
2072.00,0.0011
2071.00,0.0011
2070.00,0.0011
2069.00,0.0011
2068.00,0.0011
2067.00,0.0011
2066.00,0.0011
2065.00,0.0011
2064.00,0.0011
2063.00,0.0011
2062.00,0.0011
2061.00,0.0011
2060.00,0.0011
2059.00,0.0011
2058.00,0.0011
2057.00,0.0011
2056.00,0.0011
2055.00,0.0011
2054.00,0.0011
2053.00,0.0011
2052.00,0.0011
2051.00,0.0011
2050.00,0.0011
2049.00,0.0011
2048.00,0.0011
2047.00,0.0011
2046.00,0.0011
2045.00,0.0011
2044.00,0.0011
2043.00,0.0011
2042.00,0.0011
2041.00,0.0011
2040.00,0.0011
2039.00,0.0011
2038.00,0.0011
2037.00,0.0011
2036.00,0.0011
2035.00,0.0011
2034.00,0.0011
2033.00,0.0011
2032.00,0.0011
2031.00,0.0011
2030.00,0.0011
2029.00,0.0011
2028.00,0.0011
2027.00,0.0011
2026.00,0.0011
2025.00,0.0011
2024.00,0.0011
2023.00,0.0011
2022.00,0.0011
2021.00,0.0011
2020.00,0.0011
2019.00,0.0011
2018.00,0.0011
2017.00,0.0011
2016.00,0.0011
2015.00,0.0011
2014.00,0.0011
2013.00,0.0011
2012.00,0.0011
2011.00,0.0011
2010.00,0.0011
2009.00,0.0011
2008.00,0.0011
2007.00,0.0011
2006.00,0.0011
2005.00,0.0011
2004.00,0.0011
2003.00,0.0011
2002.00,0.0011
2001.00,0.0011
2000.00,0.0011
1999.00,0.0011
1998.00,0.0011
1997.00,0.0011
1996.00,0.0011
1995.00,0.0011
1994.00,0.0011
1993.00,0.0011
1992.00,0.0011
1991.00,0.0011
1990.00,0.0011
1989.00,0.0011
1988.00,0.0011
1987.00,0.0011
1986.00,0.0011
1985.00,0.0011
1984.00,0.0011
1983.00,0.0011
1982.00,0.0011
1981.00,0.0011
1980.00,0.0011
1979.00,0.0011
1978.00,0.0011
1977.00,0.0011
1976.00,0.0011
1975.00,0.0011
1974.00,0.0011
1973.00,0.0011
1972.00,0.0011
1971.00,0.0011
1970.00,0.0011
1969.00,0.0011
1968.00,0.0011
1967.00,0.0011
1966.00,0.0011
1965.00,0.0011
1964.00,0.0011
1963.00,0.0011
1962.00,0.0011
1961.00,0.0011
1960.00,0.0011
1959.00,0.0011
1958.00,0.0011
1957.00,0.0011
1956.00,0.0011
1955.00,0.0011
1954.00,0.0011
1953.00,0.0011
1952.00,0.0011
1951.00,0.0011
1950.00,0.0011
1949.00,0.0011
1948.00,0.0011
1947.00,0.0011
1946.00,0.0011
1945.00,0.0011
1944.00,0.0011
1943.00,0.0011
1942.00,0.0011
1941.00,0.0011
1940.00,0.0011
1939.00,0.0011
1938.00,0.0011
1937.00,0.0011
1936.00,0.0011
1935.00,0.0011
1934.00,0.0011
1933.00,0.0011
1932.00,0.0011
1931.00,0.0011
1930.00,0.0011
1929.00,0.0011
1928.00,0.0011
1927.00,0.0011
1926.00,0.0011
1925.00,0.0011
1924.00,0.0011
1923.00,0.0011
1922.00,0.0011
1921.00,0.0011
1920.00,0.0011
1919.00,0.0011
1918.00,0.0012
1917.00,0.0011
1916.00,0.0011
1915.00,0.0011
1914.00,0.0011
1913.00,0.0011
1912.00,0.0011
1911.00,0.0011
1910.00,0.0011
1909.00,0.0011
1908.00,0.0011
1907.00,0.0011
1906.00,0.0011
1905.00,0.0011
1904.00,0.0011
1903.00,0.0011
1902.00,0.0011
1901.00,0.0011
1900.00,0.0011
1899.00,0.0011
1898.00,0.0011
1897.00,0.0011
1896.00,0.0011
1895.00,0.0011
1894.00,0.0011
1893.00,0.0011
1892.00,0.0011
1891.00,0.0011
1890.00,0.0011
1889.00,0.0011
1888.00,0.0011
1887.00,0.0011
1886.00,0.0011
1885.00,0.0011
1884.00,0.0011
1883.00,0.0011
1882.00,0.0011
1881.00,0.0011
1880.00,0.0011
1879.00,0.0011
1878.00,0.0011
1877.00,0.0011
1876.00,0.0011
1875.00,0.0011
1874.00,0.0011
1873.00,0.0011
1872.00,0.0011
1871.00,0.0011
1870.00,0.0011
1869.00,0.0011
1868.00,0.0011
1867.00,0.0012
1866.00,0.0012
1865.00,0.0012
1864.00,0.0011
1863.00,0.0011
1862.00,0.0011
1861.00,0.0011
1860.00,0.0011
1859.00,0.0011
1858.00,0.0011
1857.00,0.0011
1856.00,0.0011
1855.00,0.0011
1854.00,0.0011
1853.00,0.0011
1852.00,0.0011
1851.00,0.0011
1850.00,0.0011
1849.00,0.0011
1848.00,0.0011
1847.00,0.0011
1846.00,0.0011
1845.00,0.0011
1844.00,0.0011
1843.00,0.0011
1842.00,0.0011
1841.00,0.0011
1840.00,0.0012
1839.00,0.0012
1838.00,0.0012
1837.00,0.0011
1836.00,0.0011
1835.00,0.0011
1834.00,0.0011
1833.00,0.0011
1832.00,0.0011
1831.00,0.0012
1830.00,0.0011
1829.00,0.0011
1828.00,0.0011
1827.00,0.0011
1826.00,0.0011
1825.00,0.0011
1824.00,0.0011
1823.00,0.0011
1822.00,0.0011
1821.00,0.0011
1820.00,0.0011
1819.00,0.0011
1818.00,0.0011
1817.00,0.0011
1816.00,0.0011
1815.00,0.0011
1814.00,0.0011
1813.00,0.0011
1812.00,0.0011
1811.00,0.0011
1810.00,0.0011
1809.00,0.0011
1808.00,0.0011
1807.00,0.0011
1806.00,0.0011
1805.00,0.0011
1804.00,0.0011
1803.00,0.0011
1802.00,0.0011
1801.00,0.0011
1800.00,0.0011
1799.00,0.0011
1798.00,0.0011
1797.00,0.0011
1796.00,0.0011
1795.00,0.0011
1794.00,0.0011
1793.00,0.0011
1792.00,0.0011
1791.00,0.0011
1790.00,0.0011
1789.00,0.0011
1788.00,0.0011
1787.00,0.0011
1786.00,0.0011
1785.00,0.0011
1784.00,0.0011
1783.00,0.0011
1782.00,0.0011
1781.00,0.0011
1780.00,0.0011
1779.00,0.0011
1778.00,0.0011
1777.00,0.0012
1776.00,0.0011
1775.00,0.0011
1774.00,0.0012
1773.00,0.0012
1772.00,0.0012
1771.00,0.0011
1770.00,0.0012
1769.00,0.0012
1768.00,0.0012
1767.00,0.0012
1766.00,0.0012
1765.00,0.0012
1764.00,0.0012
1763.00,0.0011
1762.00,0.0011
1761.00,0.0012
1760.00,0.0012
1759.00,0.0012
1758.00,0.0012
1757.00,0.0012
1756.00,0.0012
1755.00,0.0012
1754.00,0.0012
1753.00,0.0012
1752.00,0.0012
1751.00,0.0012
1750.00,0.0012
1749.00,0.0012
1748.00,0.0012
1747.00,0.0012
1746.00,0.0012
1745.00,0.0012
1744.00,0.0012
1743.00,0.0011
1742.00,0.0011
1741.00,0.0011
1740.00,0.0011
1739.00,0.0011
1738.00,0.0012
1737.00,0.0012
1736.00,0.0012
1735.00,0.0012
1734.00,0.0012
1733.00,0.0011
1732.00,0.0011
1731.00,0.0012
1730.00,0.0012
1729.00,0.0012
1728.00,0.0012
1727.00,0.0012
1726.00,0.0012
1725.00,0.0011
1724.00,0.0011
1723.00,0.0011
1722.00,0.0011
1721.00,0.0011
1720.00,0.0011
1719.00,0.0011
1718.00,0.0011
1717.00,0.0011
1716.00,0.0011
1715.00,0.0011
1714.00,0.0012
1713.00,0.0011
1712.00,0.0011
1711.00,0.0011
1710.00,0.0011
1709.00,0.0011
1708.00,0.0011
1707.00,0.0011
1706.00,0.0011
1705.00,0.0011
1704.00,0.0011
1703.00,0.0011
1702.00,0.0011
1701.00,0.0012
1700.00,0.0012
1699.00,0.0011
1698.00,0.0012
1697.00,0.0012
1696.00,0.0012
1695.00,0.0011
1694.00,0.0011
1693.00,0.0011
1692.00,0.0011
1691.00,0.0011
1690.00,0.0011
1689.00,0.0011
1688.00,0.0011
1687.00,0.0011
1686.00,0.0011
1685.00,0.0011
1684.00,0.0011
1683.00,0.0011
1682.00,0.0011
1681.00,0.0011
1680.00,0.0011
1679.00,0.0010
1678.00,0.0010
1677.00,0.0010
1676.00,0.0010
1675.00,0.0011
1674.00,0.0011
1673.00,0.0011
1672.00,0.0011
1671.00,0.0011
1670.00,0.0010
1669.00,0.0010
1668.00,0.0010
1667.00,0.0010
1666.00,0.0010
1665.00,0.0011
1664.00,0.0011
1663.00,0.0010
1662.00,0.0010
1661.00,0.0010
1660.00,0.0010
1659.00,0.0010
1658.00,0.0010
1657.00,0.0010
1656.00,0.0010
1655.00,0.0010
1654.00,0.0010
1653.00,0.0010
1652.00,0.0010
1651.00,0.0010
1650.00,0.0010
1649.00,0.0010
1648.00,0.0010
1647.00,0.0010
1646.00,0.0010
1645.00,0.0010
1644.00,0.0010
1643.00,0.0010
1642.00,0.0010
1641.00,0.0010
1640.00,0.0010
1639.00,0.0010
1638.00,0.0010
1637.00,0.0010
1636.00,0.0010
1635.00,0.0010
1634.00,0.0010
1633.00,0.0010
1632.00,0.0010
1631.00,0.0010
1630.00,0.0010
1629.00,0.0010
1628.00,0.0010
1627.00,0.0010
1626.00,0.0010
1625.00,0.0010
1624.00,0.0010
1623.00,0.0011
1622.00,0.0011
1621.00,0.0011
1620.00,0.0010
1619.00,0.0010
1618.00,0.0010
1617.00,0.0010
1616.00,0.0010
1615.00,0.0010
1614.00,0.0010
1613.00,0.0010
1612.00,0.0010
1611.00,0.0010
1610.00,0.0010
1609.00,0.0010
1608.00,0.0010
1607.00,0.0010
1606.00,0.0010
1605.00,0.0011
1604.00,0.0011
1603.00,0.0011
1602.00,0.0010
1601.00,0.0010
1600.00,0.0010
1599.00,0.0010
1598.00,0.0010
1597.00,0.0010
1596.00,0.0011
1595.00,0.0011
1594.00,0.0011
1593.00,0.0011
1592.00,0.0011
1591.00,0.0011
1590.00,0.0011
1589.00,0.0011
1588.00,0.0011
1587.00,0.0010
1586.00,0.0010
1585.00,0.0010
1584.00,0.0010
1583.00,0.0010
1582.00,0.0010
1581.00,0.0010
1580.00,0.0010
1579.00,0.0010
1578.00,0.0010
1577.00,0.0010
1576.00,0.0011
1575.00,0.0011
1574.00,0.0011
1573.00,0.0011
1572.00,0.0011
1571.00,0.0011
1570.00,0.0011
1569.00,0.0011
1568.00,0.0011
1567.00,0.0011
1566.00,0.0011
1565.00,0.0011
1564.00,0.0011
1563.00,0.0010
1562.00,0.0010
1561.00,0.0010
1560.00,0.0011
1559.00,0.0011
1558.00,0.0011
1557.00,0.0011
1556.00,0.0011
1555.00,0.0011
1554.00,0.0011
1553.00,0.0011
1552.00,0.0011
1551.00,0.0011
1550.00,0.0011
1549.00,0.0012
1548.00,0.0012
1547.00,0.0012
1546.00,0.0011
1545.00,0.0011
1544.00,0.0011
1543.00,0.0012
1542.00,0.0012
1541.00,0.0012
1540.00,0.0012
1539.00,0.0012
1538.00,0.0012
1537.00,0.0012
1536.00,0.0012
1535.00,0.0012
1534.00,0.0011
1533.00,0.0011
1532.00,0.0011
1531.00,0.0011
1530.00,0.0011
1529.00,0.0011
1528.00,0.0011
1527.00,0.0011
1526.00,0.0012
1525.00,0.0012
1524.00,0.0011
1523.00,0.0011
1522.00,0.0011
1521.00,0.0011
1520.00,0.0011
1519.00,0.0012
1518.00,0.0012
1517.00,0.0012
1516.00,0.0012
1515.00,0.0012
1514.00,0.0012
1513.00,0.0012
1512.00,0.0012
1511.00,0.0011
1510.00,0.0011
1509.00,0.0012
1508.00,0.0012
1507.00,0.0012
1506.00,0.0012
1505.00,0.0011
1504.00,0.0011
1503.00,0.0011
1502.00,0.0011
1501.00,0.0011
1500.00,0.0011
1499.00,0.0011
1498.00,0.0011
1497.00,0.0011
1496.00,0.0011
1495.00,0.0012
1494.00,0.0012
1493.00,0.0011
1492.00,0.0011
1491.00,0.0011
1490.00,0.0011
1489.00,0.0011
1488.00,0.0011
1487.00,0.0012
1486.00,0.0012
1485.00,0.0012
1484.00,0.0011
1483.00,0.0011
1482.00,0.0011
1481.00,0.0011
1480.00,0.0011
1479.00,0.0011
1478.00,0.0011
1477.00,0.0011
1476.00,0.0011
1475.00,0.0011
1474.00,0.0011
1473.00,0.0012
1472.00,0.0012
1471.00,0.0012
1470.00,0.0011
1469.00,0.0011
1468.00,0.0011
1467.00,0.0011
1466.00,0.0011
1465.00,0.0011
1464.00,0.0011
1463.00,0.0011
1462.00,0.0011
1461.00,0.0011
1460.00,0.0011
1459.00,0.0011
1458.00,0.0011
1457.00,0.0011
1456.00,0.0011
1455.00,0.0011
1454.00,0.0011
1453.00,0.0011
1452.00,0.0011
1451.00,0.0011
1450.00,0.0011
1449.00,0.0011
1448.00,0.0011
1447.00,0.0011
1446.00,0.0011
1445.00,0.0011
1444.00,0.0011
1443.00,0.0011
1442.00,0.0011
1441.00,0.0011
1440.00,0.0011
1439.00,0.0011
1438.00,0.0011
1437.00,0.0011
1436.00,0.0011
1435.00,0.0011
1434.00,0.0012
1433.00,0.0012
1432.00,0.0012
1431.00,0.0011
1430.00,0.0011
1429.00,0.0011
1428.00,0.0011
1427.00,0.0011
1426.00,0.0011
1425.00,0.0011
1424.00,0.0011
1423.00,0.0011
1422.00,0.0011
1421.00,0.0011
1420.00,0.0011
1419.00,0.0011
1418.00,0.0011
1417.00,0.0012
1416.00,0.0012
1415.00,0.0012
1414.00,0.0011
1413.00,0.0011
1412.00,0.0011
1411.00,0.0011
1410.00,0.0011
1409.00,0.0011
1408.00,0.0011
1407.00,0.0011
1406.00,0.0011
1405.00,0.0011
1404.00,0.0011
1403.00,0.0011
1402.00,0.0011
1401.00,0.0011
1400.00,0.0011
1399.00,0.0011
1398.00,0.0011
1397.00,0.0011
1396.00,0.0011
1395.00,0.0011
1394.00,0.0011
1393.00,0.0011
1392.00,0.0012
1391.00,0.0012
1390.00,0.0011
1389.00,0.0011
1388.00,0.0011
1387.00,0.0011
1386.00,0.0011
1385.00,0.0011
1384.00,0.0011
1383.00,0.0011
1382.00,0.0011
1381.00,0.0011
1380.00,0.0011
1379.00,0.0011
1378.00,0.0011
1377.00,0.0011
1376.00,0.0011
1375.00,0.0012
1374.00,0.0011
1373.00,0.0011
1372.00,0.0011
1371.00,0.0011
1370.00,0.0011
1369.00,0.0011
1368.00,0.0012
1367.00,0.0012
1366.00,0.0011
1365.00,0.0011
1364.00,0.0011
1363.00,0.0011
1362.00,0.0011
1361.00,0.0011
1360.00,0.0011
1359.00,0.0011
1358.00,0.0011
1357.00,0.0011
1356.00,0.0011
1355.00,0.0011
1354.00,0.0011
1353.00,0.0011
1352.00,0.0011
1351.00,0.0011
1350.00,0.0011
1349.00,0.0011
1348.00,0.0011
1347.00,0.0011
1346.00,0.0011
1345.00,0.0011
1344.00,0.0011
1343.00,0.0011
1342.00,0.0011
1341.00,0.0010
1340.00,0.0010
1339.00,0.0010
1338.00,0.0010
1337.00,0.0011
1336.00,0.0011
1335.00,0.0011
1334.00,0.0011
1333.00,0.0011
1332.00,0.0011
1331.00,0.0011
1330.00,0.0011
1329.00,0.0011
1328.00,0.0011
1327.00,0.0011
1326.00,0.0011
1325.00,0.0011
1324.00,0.0011
1323.00,0.0011
1322.00,0.0011
1321.00,0.0011
1320.00,0.0011
1319.00,0.0011
1318.00,0.0011
1317.00,0.0011
1316.00,0.0011
1315.00,0.0011
1314.00,0.0011
1313.00,0.0011
1312.00,0.0011
1311.00,0.0011
1310.00,0.0011
1309.00,0.0011
1308.00,0.0011
1307.00,0.0011
1306.00,0.0011
1305.00,0.0011
1304.00,0.0011
1303.00,0.0011
1302.00,0.0011
1301.00,0.0011
1300.00,0.0011
1299.00,0.0011
1298.00,0.0011
1297.00,0.0011
1296.00,0.0011
1295.00,0.0011
1294.00,0.0011
1293.00,0.0011
1292.00,0.0011
1291.00,0.0011
1290.00,0.0011
1289.00,0.0011
1288.00,0.0011
1287.00,0.0011
1286.00,0.0011
1285.00,0.0011
1284.00,0.0011
1283.00,0.0011
1282.00,0.0011
1281.00,0.0011
1280.00,0.0011
1279.00,0.0011
1278.00,0.0011
1277.00,0.0011
1276.00,0.0011
1275.00,0.0011
1274.00,0.0011
1273.00,0.0011
1272.00,0.0011
1271.00,0.0011
1270.00,0.0011
1269.00,0.0011
1268.00,0.0011
1267.00,0.0011
1266.00,0.0011
1265.00,0.0011
1264.00,0.0011
1263.00,0.0011
1262.00,0.0011
1261.00,0.0011
1260.00,0.0011
1259.00,0.0011
1258.00,0.0011
1257.00,0.0011
1256.00,0.0011
1255.00,0.0011
1254.00,0.0011
1253.00,0.0011
1252.00,0.0011
1251.00,0.0011
1250.00,0.0011
1249.00,0.0011
1248.00,0.0011
1247.00,0.0011
1246.00,0.0011
1245.00,0.0011
1244.00,0.0011
1243.00,0.0011
1242.00,0.0011
1241.00,0.0011
1240.00,0.0011
1239.00,0.0011
1238.00,0.0011
1237.00,0.0011
1236.00,0.0011
1235.00,0.0011
1234.00,0.0011
1233.00,0.0011
1232.00,0.0011
1231.00,0.0011
1230.00,0.0011
1229.00,0.0011
1228.00,0.0011
1227.00,0.0011
1226.00,0.0011
1225.00,0.0011
1224.00,0.0011
1223.00,0.0011
1222.00,0.0011
1221.00,0.0011
1220.00,0.0011
1219.00,0.0011
1218.00,0.0011
1217.00,0.0011
1216.00,0.0011
1215.00,0.0011
1214.00,0.0011
1213.00,0.0011
1212.00,0.0011
1211.00,0.0011
1210.00,0.0011
1209.00,0.0011
1208.00,0.0011
1207.00,0.0011
1206.00,0.0011
1205.00,0.0011
1204.00,0.0011
1203.00,0.0011
1202.00,0.0011
1201.00,0.0011
1200.00,0.0011
1199.00,0.0011
1198.00,0.0011
1197.00,0.0011
1196.00,0.0011
1195.00,0.0011
1194.00,0.0011
1193.00,0.0011
1192.00,0.0011
1191.00,0.0011
1190.00,0.0011
1189.00,0.0011
1188.00,0.0011
1187.00,0.0011
1186.00,0.0011
1185.00,0.0011
1184.00,0.0011
1183.00,0.0011
1182.00,0.0011
1181.00,0.0011
1180.00,0.0011
1179.00,0.0011
1178.00,0.0011
1177.00,0.0011
1176.00,0.0011
1175.00,0.0011
1174.00,0.0011
1173.00,0.0011
1172.00,0.0011
1171.00,0.0011
1170.00,0.0011
1169.00,0.0011
1168.00,0.0011
1167.00,0.0011
1166.00,0.0011
1165.00,0.0011
1164.00,0.0011
1163.00,0.0011
1162.00,0.0011
1161.00,0.0011
1160.00,0.0011
1159.00,0.0011
1158.00,0.0011
1157.00,0.0011
1156.00,0.0010
1155.00,0.0010
1154.00,0.0010
1153.00,0.0011
1152.00,0.0011
1151.00,0.0011
1150.00,0.0011
1149.00,0.0011
1148.00,0.0011
1147.00,0.0011
1146.00,0.0011
1145.00,0.0011
1144.00,0.0011
1143.00,0.0011
1142.00,0.0011
1141.00,0.0011
1140.00,0.0011
1139.00,0.0011
1138.00,0.0011
1137.00,0.0011
1136.00,0.0011
1135.00,0.0011
1134.00,0.0011
1133.00,0.0011
1132.00,0.0011
1131.00,0.0011
1130.00,0.0011
1129.00,0.0011
1128.00,0.0011
1127.00,0.0011
1126.00,0.0011
1125.00,0.0010
1124.00,0.0010
1123.00,0.0011
1122.00,0.0011
1121.00,0.0011
1120.00,0.0011
1119.00,0.0011
1118.00,0.0011
1117.00,0.0010
1116.00,0.0010
1115.00,0.0010
1114.00,0.0011
1113.00,0.0011
1112.00,0.0011
1111.00,0.0011
1110.00,0.0011
1109.00,0.0010
1108.00,0.0011
1107.00,0.0011
1106.00,0.0011
1105.00,0.0011
1104.00,0.0011
1103.00,0.0011
1102.00,0.0011
1101.00,0.0011
1100.00,0.0011
1099.00,0.0010
1098.00,0.0010
1097.00,0.0010
1096.00,0.0010
1095.00,0.0011
1094.00,0.0011
1093.00,0.0011
1092.00,0.0011
1091.00,0.0011
1090.00,0.0011
1089.00,0.0011
1088.00,0.0011
1087.00,0.0011
1086.00,0.0011
1085.00,0.0011
1084.00,0.0011
1083.00,0.0011
1082.00,0.0010
1081.00,0.0010
1080.00,0.0010
1079.00,0.0010
1078.00,0.0011
1077.00,0.0011
1076.00,0.0011
1075.00,0.0011
1074.00,0.0011
1073.00,0.0011
1072.00,0.0011
1071.00,0.0011
1070.00,0.0011
1069.00,0.0010
1068.00,0.0010
1067.00,0.0010
1066.00,0.0010
1065.00,0.0011
1064.00,0.0011
1063.00,0.0011
1062.00,0.0011
1061.00,0.0011
1060.00,0.0011
1059.00,0.0011
1058.00,0.0011
1057.00,0.0011
1056.00,0.0011
1055.00,0.0011
1054.00,0.0011
1053.00,0.0011
1052.00,0.0011
1051.00,0.0011
1050.00,0.0011
1049.00,0.0011
1048.00,0.0011
1047.00,0.0011
1046.00,0.0011
1045.00,0.0011
1044.00,0.0011
1043.00,0.0011
1042.00,0.0011
1041.00,0.0011
1040.00,0.0011
1039.00,0.0011
1038.00,0.0011
1037.00,0.0011
1036.00,0.0011
1035.00,0.0011
1034.00,0.0011
1033.00,0.0011
1032.00,0.0011
1031.00,0.0011
1030.00,0.0011
1029.00,0.0012
1028.00,0.0012
1027.00,0.0012
1026.00,0.0012
1025.00,0.0011
1024.00,0.0011
1023.00,0.0011
1022.00,0.0011
1021.00,0.0011
1020.00,0.0011
1019.00,0.0011
1018.00,0.0011
1017.00,0.0012
1016.00,0.0012
1015.00,0.0012
1014.00,0.0012
1013.00,0.0012
1012.00,0.0012
1011.00,0.0012
1010.00,0.0012
1009.00,0.0012
1008.00,0.0011
1007.00,0.0011
1006.00,0.0011
1005.00,0.0011
1004.00,0.0011
1003.00,0.0011
1002.00,0.0011
1001.00,0.0011
1000.00,0.0011
999.00,0.0011
998.00,0.0011
997.00,0.0011
996.00,0.0011
995.00,0.0012
994.00,0.0012
993.00,0.0012
992.00,0.0012
991.00,0.0012
990.00,0.0012
989.00,0.0012
988.00,0.0012
987.00,0.0012
986.00,0.0012
985.00,0.0012
984.00,0.0012
983.00,0.0012
982.00,0.0011
981.00,0.0011
980.00,0.0011
979.00,0.0011
978.00,0.0012
977.00,0.0012
976.00,0.0012
975.00,0.0012
974.00,0.0012
973.00,0.0012
972.00,0.0012
971.00,0.0012
970.00,0.0012
969.00,0.0012
968.00,0.0012
967.00,0.0012
966.00,0.0012
965.00,0.0011
964.00,0.0011
963.00,0.0011
962.00,0.0011
961.00,0.0011
960.00,0.0012
959.00,0.0012
958.00,0.0012
957.00,0.0012
956.00,0.0012
955.00,0.0012
954.00,0.0012
953.00,0.0012
952.00,0.0012
951.00,0.0012
950.00,0.0012
949.00,0.0012
948.00,0.0012
947.00,0.0012
946.00,0.0012
945.00,0.0012
944.00,0.0012
943.00,0.0012
942.00,0.0012
941.00,0.0012
940.00,0.0012
939.00,0.0012
938.00,0.0012
937.00,0.0012
936.00,0.0012
935.00,0.0012
934.00,0.0012
933.00,0.0012
932.00,0.0011
931.00,0.0011
930.00,0.0012
929.00,0.0011
928.00,0.0011
927.00,0.0011
926.00,0.0011
925.00,0.0011
924.00,0.0011
923.00,0.0011
922.00,0.0012
921.00,0.0012
920.00,0.0012
919.00,0.0012
918.00,0.0012
917.00,0.0012
916.00,0.0012
915.00,0.0012
914.00,0.0012
913.00,0.0012
912.00,0.0012
911.00,0.0012
910.00,0.0012
909.00,0.0011
908.00,0.0012
907.00,0.0012
906.00,0.0012
905.00,0.0012
904.00,0.0012
903.00,0.0011
902.00,0.0011
901.00,0.0010
900.00,0.0010
899.00,0.0010
898.00,0.0011
897.00,0.0011
896.00,0.0011
895.00,0.0011
894.00,0.0011
893.00,0.0011
892.00,0.0011
891.00,0.0011
890.00,0.0011
889.00,0.0011
888.00,0.0011
887.00,0.0011
886.00,0.0011
885.00,0.0012
884.00,0.0012
883.00,0.0012
882.00,0.0011
881.00,0.0011
880.00,0.0011
879.00,0.0011
878.00,0.0012
877.00,0.0012
876.00,0.0011
875.00,0.0011
874.00,0.0011
873.00,0.0011
872.00,0.0011
871.00,0.0011
870.00,0.0011
869.00,0.0011
868.00,0.0011
867.00,0.0011
866.00,0.0012
865.00,0.0012
864.00,0.0011
863.00,0.0011
862.00,0.0011
861.00,0.0011
860.00,0.0011
859.00,0.0011
858.00,0.0011
857.00,0.0011
856.00,0.0011
855.00,0.0011
854.00,0.0011
853.00,0.0011
852.00,0.0011
851.00,0.0011
850.00,0.0011
849.00,0.0011
848.00,0.0011
847.00,0.0012
846.00,0.0011
845.00,0.0011
844.00,0.0011
843.00,0.0011
842.00,0.0011
841.00,0.0011
840.00,0.0012
839.00,0.0011
838.00,0.0011
837.00,0.0011
836.00,0.0011
835.00,0.0011
834.00,0.0011
833.00,0.0011
832.00,0.0011
831.00,0.0011
830.00,0.0010
829.00,0.0011
828.00,0.0011
827.00,0.0011
826.00,0.0011
825.00,0.0011
824.00,0.0011
823.00,0.0011
822.00,0.0011
821.00,0.0011
820.00,0.0011
819.00,0.0011
818.00,0.0011
817.00,0.0010
816.00,0.0010
815.00,0.0010
814.00,0.0010
813.00,0.0010
812.00,0.0011
811.00,0.0011
810.00,0.0011
809.00,0.0011
808.00,0.0011
807.00,0.0011
806.00,0.0011
805.00,0.0011
804.00,0.0011
803.00,0.0011
802.00,0.0011
801.00,0.0010
800.00,0.0010
799.00,0.0010
798.00,0.0010
797.00,0.0010
796.00,0.0010
795.00,0.0010
794.00,0.0011
793.00,0.0011
792.00,0.0011
791.00,0.0011
790.00,0.0011
789.00,0.0011
788.00,0.0011
787.00,0.0011
786.00,0.0011
785.00,0.0011
784.00,0.0011
783.00,0.0011
782.00,0.0011
781.00,0.0011
780.00,0.0010
779.00,0.0011
778.00,0.0011
777.00,0.0011
776.00,0.0012
775.00,0.0011
774.00,0.0011
773.00,0.0011
772.00,0.0011
771.00,0.0011
770.00,0.0010
769.00,0.0010
768.00,0.0010
767.00,0.0011
766.00,0.0011
765.00,0.0011
764.00,0.0011
763.00,0.0010
762.00,0.0010
761.00,0.0010
760.00,0.0011
759.00,0.0011
758.00,0.0010
757.00,0.0010
756.00,0.0010
755.00,0.0010
754.00,0.0010
753.00,0.0010
752.00,0.0010
751.00,0.0010
750.00,0.0010
749.00,0.0011
748.00,0.0011
747.00,0.0010
746.00,0.0010
745.00,0.0010
744.00,0.0010
743.00,0.0010
742.00,0.0010
741.00,0.0010
740.00,0.0010
739.00,0.0010
738.00,0.0010
737.00,0.0009
736.00,0.0010
735.00,0.0010
734.00,0.0011
733.00,0.0011
732.00,0.0011
731.00,0.0011
730.00,0.0011
729.00,0.0011
728.00,0.0011
727.00,0.0011
726.00,0.0011
725.00,0.0010
724.00,0.0010
723.00,0.0010
722.00,0.0010
721.00,0.0010
720.00,0.0010
719.00,0.0010
718.00,0.0010
717.00,0.0011
716.00,0.0011
715.00,0.0011
714.00,0.0011
713.00,0.0011
712.00,0.0010
711.00,0.0010
710.00,0.0010
709.00,0.0010
708.00,0.0010
707.00,0.0010
706.00,0.0011
705.00,0.0011
704.00,0.0010
703.00,0.0010
702.00,0.0009
701.00,0.0009
700.00,0.0009
699.00,0.0009
698.00,0.0009
697.00,0.0010
696.00,0.0010
695.00,0.0010
694.00,0.0009
693.00,0.0009
692.00,0.0009
691.00,0.0009
690.00,0.0009
689.00,0.0009
688.00,0.0009
687.00,0.0009
686.00,0.0009
685.00,0.0010
684.00,0.0010
683.00,0.0010
682.00,0.0010
681.00,0.0010
680.00,0.0009
679.00,0.0009
678.00,0.0008
677.00,0.0008
676.00,0.0008
675.00,0.0008
674.00,0.0008
673.00,0.0008
672.00,0.0007
671.00,0.0006
670.00,0.0003
669.00,-0.0000
668.00,-0.0003
667.00,-0.0001
666.00,0.0003
665.00,0.0005
664.00,0.0008
663.00,0.0009
662.00,0.0009
661.00,0.0009
660.00,0.0008
659.00,0.0008
658.00,0.0007
657.00,0.0007
656.00,0.0007
655.00,0.0008
654.00,0.0008
653.00,0.0008
652.00,0.0008
651.00,0.0008
650.00,0.0008
649.00,0.0008
648.00,0.0008
647.00,0.0008
646.00,0.0009
645.00,0.0009
644.00,0.0009
643.00,0.0009
642.00,0.0009
641.00,0.0008
640.00,0.0009
639.00,0.0009
638.00,0.0010
637.00,0.0009
636.00,0.0009
635.00,0.0008
634.00,0.0008
633.00,0.0008
632.00,0.0009
631.00,0.0010
630.00,0.0010
629.00,0.0010
628.00,0.0009
627.00,0.0008
626.00,0.0007
625.00,0.0007
624.00,0.0007
623.00,0.0007
622.00,0.0007
621.00,0.0007
620.00,0.0008
619.00,0.0008
618.00,0.0008
617.00,0.0008
616.00,0.0008
615.00,0.0007
614.00,0.0007
613.00,0.0007
612.00,0.0007
611.00,0.0008
610.00,0.0008
609.00,0.0008
608.00,0.0009
607.00,0.0009
606.00,0.0008
605.00,0.0008
604.00,0.0008
603.00,0.0009
602.00,0.0009
601.00,0.0009
600.00,0.0009
599.00,0.0009
598.00,0.0009
597.00,0.0009
596.00,0.0009
595.00,0.0010
594.00,0.0009
593.00,0.0007
592.00,0.0005
591.00,0.0004
590.00,0.0004
589.00,0.0006
588.00,0.0008
587.00,0.0008
586.00,0.0007
585.00,0.0007
584.00,0.0007
583.00,0.0008
582.00,0.0008
581.00,0.0009
580.00,0.0009
579.00,0.0009
578.00,0.0009
577.00,0.0009
576.00,0.0008
575.00,0.0008
574.00,0.0008
573.00,0.0008
572.00,0.0009
571.00,0.0008
570.00,0.0007
569.00,0.0005
568.00,0.0005
567.00,0.0005
566.00,0.0006
565.00,0.0007
564.00,0.0008
563.00,0.0009
562.00,0.0010
561.00,0.0010
560.00,0.0009
559.00,0.0008
558.00,0.0007
557.00,0.0007
556.00,0.0008
555.00,0.0009
554.00,0.0010
553.00,0.0009
552.00,0.0009
551.00,0.0009
550.00,0.0009
549.00,0.0009
548.00,0.0009
547.00,0.0008
546.00,0.0007
545.00,0.0007
544.00,0.0007
543.00,0.0007
542.00,0.0008
541.00,0.0009
540.00,0.0010
539.00,0.0009
538.00,0.0007
537.00,0.0007
536.00,0.0007
535.00,0.0008
534.00,0.0009
533.00,0.0009
532.00,0.0009
531.00,0.0009
530.00,0.0008
529.00,0.0007
528.00,0.0007
527.00,0.0008
526.00,0.0009
525.00,0.0009
524.00,0.0010
523.00,0.0009
522.00,0.0009
521.00,0.0008
520.00,0.0008
519.00,0.0008
518.00,0.0008
517.00,0.0008
516.00,0.0008
515.00,0.0008
514.00,0.0008
513.00,0.0007
512.00,0.0007
511.00,0.0007
510.00,0.0007
509.00,0.0006
508.00,0.0006
507.00,0.0006
506.00,0.0006
505.00,0.0006
504.00,0.0006
503.00,0.0006
502.00,0.0006
501.00,0.0006
500.00,0.0006
