3996.73391,0.00029
3994.67373,0.00030
3992.61356,0.00016
3990.55339,0.00000
3988.49322,0.00004
3986.43305,0.00036
3984.37287,0.00064
3982.31270,0.00057
3980.25253,0.00035
3978.19236,0.00023
3976.13219,0.00017
3974.07201,0.00012
3972.01184,0.00016
3969.95167,0.00026
3967.89150,0.00037
3965.83133,0.00057
3963.77115,0.00082
3961.71098,0.00082
3959.65081,0.00049
3957.59064,0.00023
3955.53046,0.00021
3953.47029,0.00032
3951.41012,0.00049
3949.34995,0.00058
3947.28978,0.00051
3945.22960,0.00041
3943.16943,0.00055
3941.10926,0.00085
3939.04909,0.00104
3936.98892,0.00105
3934.92874,0.00099
3932.86857,0.00090
3930.80840,0.00072
3928.74823,0.00057
3926.68805,0.00064
3924.62788,0.00082
3922.56771,0.00094
3920.50754,0.00101
3918.44737,0.00107
3916.38719,0.00102
3914.32702,0.00090
3912.26685,0.00076
3910.20668,0.00054
3908.14651,0.00041
3906.08633,0.00065
3904.02616,0.00108
3901.96599,0.00131
3899.90582,0.00123
3897.84565,0.00089
3895.78547,0.00058
3893.72530,0.00056
3891.66513,0.00060
3889.60496,0.00051
3887.54478,0.00059
3885.48461,0.00106
3883.42444,0.00153
3881.36427,0.00156
3879.30410,0.00131
3877.24392,0.00107
3875.18375,0.00092
3873.12358,0.00091
3871.06341,0.00143
3869.00324,0.00240
3866.94306,0.00291
3864.88289,0.00276
3862.82272,0.00235
3860.76255,0.00179
3858.70237,0.00125
3856.64220,0.00105
3854.58203,0.00124
3852.52186,0.00148
3850.46169,0.00147
3848.40151,0.00139
3846.34134,0.00131
3844.28117,0.00113
3842.22100,0.00100
3840.16083,0.00117
3838.10065,0.00144
3836.04048,0.00137
3833.98031,0.00092
3831.92014,0.00055
3829.85997,0.00049
3827.79979,0.00060
3825.73962,0.00069
3823.67945,0.00076
3821.61928,0.00083
3819.55910,0.00075
3817.49893,0.00040
3815.43876,0.00012
3813.37859,0.00027
3811.31842,0.00061
3809.25824,0.00073
3807.19807,0.00083
3805.13790,0.00121
3803.07773,0.00153
3801.01756,0.00142
3798.95738,0.00105
3796.89721,0.00082
3794.83704,0.00083
3792.77687,0.00094
3790.71670,0.00101
3788.65652,0.00096
3786.59635,0.00078
3784.53618,0.00060
3782.47601,0.00057
3780.41583,0.00077
3778.35566,0.00104
3776.29549,0.00106
3774.23532,0.00095
3772.17515,0.00094
3770.11497,0.00098
3768.05480,0.00102
3765.99463,0.00115
3763.93446,0.00112
3761.87429,0.00073
3759.81411,0.00042
3757.75394,0.00068
3755.69377,0.00134
3753.63360,0.00198
3751.57342,0.00228
3749.51325,0.00208
3747.45308,0.00165
3745.39291,0.00146
3743.33274,0.00160
3741.27256,0.00178
3739.21239,0.00168
3737.15222,0.00125
3735.09205,0.00088
3733.03188,0.00120
3730.97170,0.00187
3728.91153,0.00205
3726.85136,0.00176
3724.79119,0.00151
3722.73102,0.00158
3720.67084,0.00159
3718.61067,0.00120
3716.55050,0.00076
3714.49033,0.00056
3712.43015,0.00072
3710.36998,0.00123
3708.30981,0.00139
3706.24964,0.00107
3704.18947,0.00098
3702.12929,0.00155
3700.06912,0.00218
3698.00895,0.00207
3695.94878,0.00146
3693.88861,0.00097
3691.82843,0.00103
3689.76826,0.00146
3687.70809,0.00169
3685.64792,0.00142
3683.58775,0.00098
3681.52757,0.00086
3679.46740,0.00110
3677.40723,0.00139
3675.34706,0.00170
3673.28688,0.00180
3671.22671,0.00169
3669.16654,0.00170
3667.10637,0.00178
3665.04620,0.00179
3662.98602,0.00183
3660.92585,0.00190
3658.86568,0.00197
3656.80551,0.00200
3654.74534,0.00196
3652.68516,0.00194
3650.62499,0.00213
3648.56482,0.00225
3646.50465,0.00209
3644.44447,0.00204
3642.38430,0.00218
3640.32413,0.00236
3638.26396,0.00250
3636.20379,0.00261
3634.14361,0.00289
3632.08344,0.00342
3630.02327,0.00393
3627.96310,0.00407
3625.90293,0.00384
3623.84275,0.00378
3621.78258,0.00428
3619.72241,0.00510
3617.66224,0.00545
3615.60207,0.00504
3613.54189,0.00462
3611.48172,0.00468
3609.42155,0.00504
3607.36138,0.00546
3605.30120,0.00565
3603.24103,0.00555
3601.18086,0.00545
3599.12069,0.00563
3597.06052,0.00601
3595.00034,0.00631
3592.94017,0.00624
3590.88000,0.00597
3588.81983,0.00598
3586.75966,0.00640
3584.69948,0.00678
3582.63931,0.00699
3580.57914,0.00695
3578.51897,0.00665
3576.45879,0.00642
3574.39862,0.00648
3572.33845,0.00663
3570.27828,0.00689
3568.21811,0.00748
3566.15793,0.00800
3564.09776,0.00778
3562.03759,0.00724
3559.97742,0.00702
3557.91725,0.00712
3555.85707,0.00737
3553.79690,0.00777
3551.73673,0.00824
3549.67656,0.00859
3547.61639,0.00873
3545.55621,0.00877
3543.49604,0.00892
3541.43587,0.00906
3539.37570,0.00910
3537.31552,0.00917
3535.25535,0.00920
3533.19518,0.00920
3531.13501,0.00924
3529.07484,0.00926
3527.01466,0.00940
3524.95449,0.00985
3522.89432,0.01033
3520.83415,0.01065
3518.77398,0.01083
3516.71380,0.01071
3514.65363,0.01026
3512.59346,0.00994
3510.53329,0.01011
3508.47312,0.01044
3506.41294,0.01065
3504.35277,0.01106
3502.29260,0.01164
3500.23243,0.01193
3498.17225,0.01194
3496.11208,0.01194
3494.05191,0.01192
3491.99174,0.01182
3489.93157,0.01175
3487.87139,0.01168
3485.81122,0.01155
3483.75105,0.01166
3481.69088,0.01212
3479.63071,0.01257
3477.57053,0.01284
3475.51036,0.01296
3473.45019,0.01287
3471.39002,0.01258
3469.32984,0.01238
3467.26967,0.01256
3465.20950,0.01299
3463.14933,0.01331
3461.08916,0.01343
3459.02898,0.01330
3456.96881,0.01308
3454.90864,0.01296
3452.84847,0.01293
3450.78830,0.01299
3448.72812,0.01331
3446.66795,0.01399
3444.60778,0.01446
3442.54761,0.01434
3440.48744,0.01409
3438.42726,0.01416
3436.36709,0.01455
3434.30692,0.01484
3432.24675,0.01472
3430.18657,0.01447
3428.12640,0.01435
3426.06623,0.01433
3424.00606,0.01443
3421.94589,0.01478
3419.88571,0.01523
3417.82554,0.01552
3415.76537,0.01571
3413.70520,0.01583
3411.64503,0.01560
3409.58485,0.01524
3407.52468,0.01523
3405.46451,0.01543
3403.40434,0.01552
3401.34416,0.01544
3399.28399,0.01548
3397.22382,0.01579
3395.16365,0.01605
3393.10348,0.01616
3391.04330,0.01622
3388.98313,0.01610
3386.92296,0.01592
3384.86279,0.01590
3382.80262,0.01602
3380.74244,0.01614
3378.68227,0.01634
3376.62210,0.01653
3374.56193,0.01647
3372.50176,0.01636
3370.44158,0.01645
3368.38141,0.01654
3366.32124,0.01652
3364.26107,0.01649
3362.20089,0.01649
3360.14072,0.01648
3358.08055,0.01644
3356.02038,0.01641
3353.96021,0.01647
3351.90003,0.01651
3349.83986,0.01638
3347.77969,0.01635
3345.71952,0.01653
3343.65935,0.01654
3341.59917,0.01636
3339.53900,0.01645
3337.47883,0.01673
3335.41866,0.01685
3333.35849,0.01687
3331.29831,0.01691
3329.23814,0.01711
3327.17797,0.01745
3325.11780,0.01755
3323.05762,0.01722
3320.99745,0.01694
3318.93728,0.01709
3316.87711,0.01727
3314.81694,0.01710
3312.75676,0.01709
3310.69659,0.01749
3308.63642,0.01763
3306.57625,0.01728
3304.51608,0.01710
3302.45590,0.01745
3300.39573,0.01778
3298.33556,0.01760
3296.27539,0.01733
3294.21521,0.01736
3292.15504,0.01734
3290.09487,0.01712
3288.03470,0.01707
3285.97453,0.01721
3283.91435,0.01720
3281.85418,0.01706
3279.79401,0.01711
3277.73384,0.01736
3275.67367,0.01755
3273.61349,0.01745
3271.55332,0.01723
3269.49315,0.01730
3267.43298,0.01753
3265.37281,0.01757
3263.31263,0.01736
3261.25246,0.01711
3259.19229,0.01712
3257.13212,0.01743
3255.07194,0.01774
3253.01177,0.01777
3250.95160,0.01764
3248.89143,0.01751
3246.83126,0.01740
3244.77108,0.01744
3242.71091,0.01770
3240.65074,0.01803
3238.59057,0.01826
3236.53040,0.01833
3234.47022,0.01826
3232.41005,0.01806
3230.34988,0.01772
3228.28971,0.01763
3226.22954,0.01790
3224.16936,0.01802
3222.10919,0.01784
3220.04902,0.01760
3217.98885,0.01748
3215.92867,0.01755
3213.86850,0.01772
3211.80833,0.01783
3209.74816,0.01780
3207.68799,0.01770
3205.62781,0.01768
3203.56764,0.01772
3201.50747,0.01771
3199.44730,0.01756
3197.38713,0.01729
3195.32695,0.01698
3193.26678,0.01686
3191.20661,0.01726
3189.14644,0.01793
3187.08626,0.01830
3185.02609,0.01826
3182.96592,0.01796
3180.90575,0.01767
3178.84558,0.01755
3176.78540,0.01756
3174.72523,0.01756
3172.66506,0.01745
3170.60489,0.01735
3168.54472,0.01731
3166.48454,0.01717
3164.42437,0.01701
3162.36420,0.01710
3160.30403,0.01732
3158.24386,0.01731
3156.18368,0.01708
3154.12351,0.01689
3152.06334,0.01669
3150.00317,0.01643
3147.94299,0.01633
3145.88282,0.01652
3143.82265,0.01665
3141.76248,0.01659
3139.70231,0.01663
3137.64213,0.01663
3135.58196,0.01643
3133.52179,0.01635
3131.46162,0.01650
3129.40145,0.01663
3127.34127,0.01651
3125.28110,0.01623
3123.22093,0.01620
3121.16076,0.01640
3119.10058,0.01647
3117.04041,0.01642
3114.98024,0.01639
3112.92007,0.01637
3110.85990,0.01624
3108.79972,0.01592
3106.73955,0.01557
3104.67938,0.01549
3102.61921,0.01561
3100.55904,0.01569
3098.49886,0.01570
3096.43869,0.01570
3094.37852,0.01568
3092.31835,0.01571
3090.25818,0.01575
3088.19800,0.01571
3086.13783,0.01565
3084.07766,0.01555
3082.01749,0.01544
3079.95731,0.01534
3077.89714,0.01518
3075.83697,0.01504
3073.77680,0.01498
3071.71663,0.01491
3069.65645,0.01478
3067.59628,0.01462
3065.53611,0.01446
3063.47594,0.01436
3061.41577,0.01434
3059.35559,0.01435
3057.29542,0.01424
3055.23525,0.01402
3053.17508,0.01390
3051.11491,0.01401
3049.05473,0.01430
3046.99456,0.01447
3044.93439,0.01442
3042.87422,0.01428
3040.81404,0.01406
3038.75387,0.01384
3036.69370,0.01379
3034.63353,0.01385
3032.57336,0.01380
3030.51318,0.01355
3028.45301,0.01325
3026.39284,0.01314
3024.33267,0.01328
3022.27250,0.01345
3020.21232,0.01346
3018.15215,0.01344
3016.09198,0.01354
3014.03181,0.01356
3011.97163,0.01332
3009.91146,0.01300
3007.85129,0.01278
3005.79112,0.01261
3003.73095,0.01255
3001.67077,0.01267
2999.61060,0.01278
2997.55043,0.01266
2995.49026,0.01259
2993.43009,0.01275
2991.36991,0.01280
2989.30974,0.01264
2987.24957,0.01248
2985.18940,0.01235
2983.12923,0.01230
2981.06905,0.01233
2979.00888,0.01238
2976.94871,0.01249
2974.88854,0.01260
2972.82836,0.01256
2970.76819,0.01231
2968.70802,0.01201
2966.64785,0.01197
2964.58768,0.01208
2962.52750,0.01213
2960.46733,0.01218
2958.40716,0.01222
2956.34699,0.01211
2954.28682,0.01189
2952.22664,0.01183
2950.16647,0.01204
2948.10630,0.01214
2946.04613,0.01193
2943.98596,0.01176
2941.92578,0.01173
2939.86561,0.01171
2937.80544,0.01165
2935.74527,0.01156
2933.68509,0.01154
2931.62492,0.01160
2929.56475,0.01178
2927.50458,0.01187
2925.44441,0.01173
2923.38423,0.01156
2921.32406,0.01143
2919.26389,0.01146
2917.20372,0.01156
2915.14355,0.01152
2913.08337,0.01133
2911.02320,0.01121
2908.96303,0.01117
2906.90286,0.01114
2904.84268,0.01115
2902.78251,0.01121
2900.72234,0.01125
2898.66217,0.01143
2896.60200,0.01180
2894.54182,0.01194
2892.48165,0.01165
2890.42148,0.01131
2888.36131,0.01121
2886.30114,0.01120
2884.24096,0.01100
2882.18079,0.01085
2880.12062,0.01099
2878.06045,0.01113
2876.00028,0.01104
2873.94010,0.01089
2871.87993,0.01087
2869.81976,0.01096
2867.75959,0.01089
2865.69941,0.01064
2863.63924,0.01051
2861.57907,0.01066
2859.51890,0.01086
2857.45873,0.01090
2855.39855,0.01091
2853.33838,0.01103
2851.27821,0.01118
2849.21804,0.01114
2847.15787,0.01095
2845.09769,0.01084
2843.03752,0.01079
2840.97735,0.01067
2838.91718,0.01054
2836.85700,0.01057
2834.79683,0.01065
2832.73666,0.01057
2830.67649,0.01036
2828.61632,0.01021
2826.55614,0.01015
2824.49597,0.01020
2822.43580,0.01033
2820.37563,0.01035
2818.31546,0.01027
2816.25528,0.01031
2814.19511,0.01043
2812.13494,0.01033
2810.07477,0.01004
2808.01460,0.00981
2805.95442,0.00976
2803.89425,0.00988
2801.83408,0.01005
2799.77391,0.01013
2797.71373,0.01010
2795.65356,0.01006
2793.59339,0.01003
2791.53322,0.01002
2789.47305,0.00993
2787.41287,0.00978
2785.35270,0.00972
2783.29253,0.00976
2781.23236,0.00978
2779.17219,0.00975
2777.11201,0.00966
2775.05184,0.00950
2772.99167,0.00941
2770.93150,0.00943
2768.87133,0.00947
2766.81115,0.00944
2764.75098,0.00921
2762.69081,0.00906
2760.63064,0.00917
2758.57046,0.00931
2756.51029,0.00927
2754.45012,0.00910
2752.38995,0.00892
2750.32978,0.00888
2748.26960,0.00895
2746.20943,0.00898
2744.14926,0.00889
2742.08909,0.00879
2740.02892,0.00874
2737.96874,0.00857
2735.90857,0.00841
2733.84840,0.00860
2731.78823,0.00890
2729.72805,0.00887
2727.66788,0.00849
2725.60771,0.00817
2723.54754,0.00820
2721.48737,0.00842
2719.42719,0.00850
2717.36702,0.00845
2715.30685,0.00852
2713.24668,0.00860
2711.18651,0.00859
2709.12633,0.00853
2707.06616,0.00852
2705.00599,0.00858
2702.94582,0.00852
2700.88565,0.00821
2698.82547,0.00784
2696.76530,0.00769
2694.70513,0.00774
2692.64496,0.00778
2690.58478,0.00774
2688.52461,0.00768
2686.46444,0.00762
2684.40427,0.00769
2682.34410,0.00781
2680.28392,0.00777
2678.22375,0.00772
2676.16358,0.00783
2674.10341,0.00787
2672.04324,0.00770
2669.98306,0.00759
2667.92289,0.00757
2665.86272,0.00750
2663.80255,0.00741
2661.74238,0.00734
2659.68220,0.00734
2657.62203,0.00740
2655.56186,0.00732
2653.50169,0.00716
2651.44151,0.00712
2649.38134,0.00726
2647.32117,0.00742
2645.26100,0.00750
2643.20083,0.00740
2641.14065,0.00722
2639.08048,0.00719
2637.02031,0.00712
2634.96014,0.00702
2632.89997,0.00699
2630.83979,0.00698
2628.77962,0.00695
2626.71945,0.00702
2624.65928,0.00723
2622.59910,0.00742
2620.53893,0.00744
2618.47876,0.00733
2616.41859,0.00714
2614.35842,0.00695
2612.29824,0.00682
2610.23807,0.00682
2608.17790,0.00689
2606.11773,0.00684
2604.05756,0.00677
2601.99738,0.00689
2599.93721,0.00694
2597.87704,0.00687
2595.81687,0.00696
2593.75670,0.00704
2591.69652,0.00690
2589.63635,0.00675
2587.57618,0.00676
2585.51601,0.00674
2583.45583,0.00671
2581.39566,0.00686
2579.33549,0.00698
2577.27532,0.00679
2575.21515,0.00634
2573.15497,0.00595
2571.09480,0.00596
2569.03463,0.00643
2566.97446,0.00678
2564.91429,0.00666
2562.85411,0.00658
2560.79394,0.00672
2558.73377,0.00673
2556.67360,0.00656
2554.61342,0.00655
2552.55325,0.00675
2550.49308,0.00688
2548.43291,0.00700
2546.37274,0.00716
2544.31256,0.00691
2542.25239,0.00645
2540.19222,0.00652
2538.13205,0.00690
2536.07188,0.00689
2534.01170,0.00666
2531.95153,0.00669
2529.89136,0.00696
2527.83119,0.00712
2525.77102,0.00692
2523.71084,0.00674
2521.65067,0.00678
2519.59050,0.00675
2517.53033,0.00665
2515.47015,0.00657
2513.40998,0.00656
2511.34981,0.00670
2509.28964,0.00695
2507.22947,0.00711
2505.16929,0.00703
2503.10912,0.00689
2501.04895,0.00687
2498.98878,0.00666
2496.92861,0.00628
2494.86843,0.00632
2492.80826,0.00672
2490.74809,0.00722
2488.68792,0.00773
2486.62775,0.00796
2484.56757,0.00791
2482.50740,0.00786
2480.44723,0.00784
2478.38706,0.00772
2476.32688,0.00774
2474.26671,0.00790
2472.20654,0.00789
2470.14637,0.00788
2468.08620,0.00786
2466.02602,0.00773
2463.96585,0.00779
2461.90568,0.00799
2459.84551,0.00795
2457.78534,0.00758
2455.72516,0.00720
2453.66499,0.00733
2451.60482,0.00783
2449.54465,0.00824
2447.48447,0.00848
2445.42430,0.00837
2443.36413,0.00798
2441.30396,0.00773
2439.24379,0.00772
2437.18361,0.00777
2435.12344,0.00778
2433.06327,0.00793
2431.00310,0.00804
2428.94293,0.00791
2426.88275,0.00776
2424.82258,0.00771
2422.76241,0.00785
2420.70224,0.00816
2418.64207,0.00846
2416.58189,0.00849
2414.52172,0.00825
2412.46155,0.00790
2410.40138,0.00754
2408.34120,0.00748
2406.28103,0.00783
2404.22086,0.00810
2402.16069,0.00805
2400.10052,0.00806
2398.04034,0.00805
2395.98017,0.00785
2393.92000,0.00748
2391.85983,0.00727
2389.79966,0.00741
2387.73948,0.00767
2385.67931,0.00797
2383.61914,0.00840
2381.55897,0.00902
2379.49880,0.00958
2377.43862,0.00998
2375.37845,0.01044
2373.31828,0.01139
2371.25811,0.01259
2369.19793,0.01343
2367.13776,0.01375
2365.07759,0.01430
2363.01742,0.01519
2360.95725,0.01622
2358.89707,0.01509
2356.83690,0.01371
2354.77673,0.01306
2352.71656,0.01284
2350.65639,0.01390
2348.59621,0.01423
2346.53604,0.01139
2344.47587,0.01066
2342.41570,0.01100
2340.35552,0.01150
2338.29535,0.01220
2336.23518,0.01215
2334.17501,0.01193
2332.11484,0.01199
2330.05466,0.01242
2327.99449,0.01267
2325.93432,0.01301
2323.87415,0.01260
2321.81398,0.01238
2319.75380,0.01207
2317.69363,0.01205
2315.63346,0.01167
2313.57329,0.01117
2311.51312,0.01082
2309.45294,0.01041
2307.39277,0.00995
2305.33260,0.00948
2303.27243,0.00927
2301.21225,0.00923
2299.15208,0.00921
2297.09191,0.00894
2295.03174,0.00854
2292.97157,0.00822
2290.91139,0.00808
2288.85122,0.00808
2286.79105,0.00811
2284.73088,0.00809
2282.67071,0.00790
2280.61053,0.00758
2278.55036,0.00742
2276.49019,0.00758
2274.43002,0.00811
2272.36984,0.00867
2270.30967,0.00875
2268.24950,0.00846
2266.18933,0.00821
2264.12916,0.00818
2262.06898,0.00832
2260.00881,0.00830
2257.94864,0.00787
2255.88847,0.00736
2253.82830,0.00731
2251.76812,0.00748
2249.70795,0.00746
2247.64778,0.00714
2245.58761,0.00646
2243.52744,0.00620
2241.46726,0.00657
2239.40709,0.00683
2237.34692,0.00684
2235.28675,0.00710
2233.22657,0.00753
2231.16640,0.00758
2229.10623,0.00758
2227.04606,0.00761
2224.98589,0.00743
2222.92571,0.00767
2220.86554,0.00784
2218.80537,0.00708
2216.74520,0.00659
2214.68503,0.00681
2212.62485,0.00656
2210.56468,0.00616
2208.50451,0.00637
2206.44434,0.00679
2204.38417,0.00694
2202.32399,0.00710
2200.26382,0.00761
2198.20365,0.00753
2196.14348,0.00667
2194.08330,0.00625
2192.02313,0.00651
2189.96296,0.00669
2187.90279,0.00617
2185.84262,0.00514
2183.78244,0.00471
2181.72227,0.00541
2179.66210,0.00619
2177.60193,0.00666
2175.54176,0.00752
2173.48158,0.00724
2171.42141,0.00509
2169.36124,0.00400
2167.30107,0.00515
2165.24089,0.00608
2163.18072,0.00510
2161.12055,0.00367
2159.06038,0.00378
2157.00021,0.00485
2154.94003,0.00564
2152.87986,0.00587
2150.81969,0.00589
2148.75952,0.00619
2146.69935,0.00612
2144.63917,0.00539
2142.57900,0.00510
2140.51883,0.00544
2138.45866,0.00549
2136.39849,0.00491
2134.33831,0.00438
2132.27814,0.00507
2130.21797,0.00651
2128.15780,0.00685
2126.09762,0.00595
2124.03745,0.00514
2121.97728,0.00489
2119.91711,0.00504
2117.85694,0.00543
2115.79676,0.00565
2113.73659,0.00575
2111.67642,0.00620
2109.61625,0.00665
2107.55608,0.00649
2105.49590,0.00614
2103.43573,0.00609
2101.37556,0.00572
2099.31539,0.00477
2097.25521,0.00421
2095.19504,0.00450
2093.13487,0.00493
2091.07470,0.00523
2089.01453,0.00581
2086.95435,0.00629
2084.89418,0.00616
2082.83401,0.00591
2080.77384,0.00593
2078.71367,0.00624
2076.65349,0.00627
2074.59332,0.00569
2072.53315,0.00536
2070.47298,0.00547
2068.41281,0.00542
2066.35263,0.00554
2064.29246,0.00614
2062.23229,0.00661
2060.17212,0.00679
2058.11194,0.00679
2056.05177,0.00682
2053.99160,0.00694
2051.93143,0.00638
2049.87126,0.00529
2047.81108,0.00500
2045.75091,0.00552
2043.69074,0.00589
2041.63057,0.00546
2039.57040,0.00451
2037.51022,0.00446
2035.45005,0.00455
2033.38988,0.00309
2031.32971,0.00148
2029.26954,0.00130
2027.20936,0.00198
2025.14919,0.00329
2023.08902,0.00528
2021.02885,0.00694
2018.96867,0.00687
2016.90850,0.00511
2014.84833,0.00391
2012.78816,0.00436
2010.72799,0.00489
2008.66781,0.00473
2006.60764,0.00416
2004.54747,0.00341
2002.48730,0.00334
2000.42713,0.00380
1998.36695,0.00414
1996.30678,0.00442
1994.24661,0.00422
1992.18644,0.00343
1990.12626,0.00308
1988.06609,0.00382
1986.00592,0.00496
1983.94575,0.00549
1981.88558,0.00530
1979.82540,0.00496
1977.76523,0.00503
1975.70506,0.00523
1973.64489,0.00490
1971.58472,0.00439
1969.52454,0.00439
1967.46437,0.00476
1965.40420,0.00546
1963.34403,0.00593
1961.28386,0.00547
1959.22368,0.00512
1957.16351,0.00514
1955.10334,0.00437
1953.04317,0.00366
1950.98299,0.00413
1948.92282,0.00485
1946.86265,0.00499
1944.80248,0.00472
1942.74231,0.00457
1940.68213,0.00466
1938.62196,0.00482
1936.56179,0.00493
1934.50162,0.00492
1932.44145,0.00486
1930.38127,0.00474
1928.32110,0.00458
1926.26093,0.00434
1924.20076,0.00394
1922.14059,0.00345
1920.08041,0.00311
1918.02024,0.00340
1915.96007,0.00425
1913.89990,0.00486
1911.83972,0.00490
1909.77955,0.00465
1907.71938,0.00457
1905.65921,0.00459
1903.59904,0.00437
1901.53886,0.00409
1899.47869,0.00403
1897.41852,0.00426
1895.35835,0.00466
1893.29818,0.00485
1891.23800,0.00466
1889.17783,0.00444
1887.11766,0.00452
1885.05749,0.00486
1882.99731,0.00528
1880.93714,0.00557
1878.87697,0.00564
1876.81680,0.00543
1874.75663,0.00495
1872.69645,0.00450
1870.63628,0.00424
1868.57611,0.00418
1866.51594,0.00444
1864.45577,0.00480
1862.39559,0.00488
1860.33542,0.00486
1858.27525,0.00513
1856.21508,0.00545
1854.15491,0.00544
1852.09473,0.00525
1850.03456,0.00523
1847.97439,0.00536
1845.91422,0.00555
1843.85404,0.00571
1841.79387,0.00561
1839.73370,0.00541
1837.67353,0.00543
1835.61336,0.00559
1833.55318,0.00575
1831.49301,0.00600
1829.43284,0.00615
1827.37267,0.00590
1825.31250,0.00546
1823.25232,0.00519
1821.19215,0.00516
1819.13198,0.00533
1817.07181,0.00549
1815.01163,0.00555
1812.95146,0.00562
1810.89129,0.00566
1808.83112,0.00548
1806.77095,0.00517
1804.71077,0.00511
1802.65060,0.00539
1800.59043,0.00566
1798.53026,0.00571
1796.47009,0.00566
1794.40991,0.00566
1792.34974,0.00569
1790.28957,0.00562
1788.22940,0.00548
1786.16923,0.00545
1784.10905,0.00549
1782.04888,0.00549
1779.98871,0.00548
1777.92854,0.00554
1775.86836,0.00563
1773.80819,0.00561
1771.74802,0.00555
1769.68785,0.00568
1767.62768,0.00584
1765.56750,0.00579
1763.50733,0.00568
1761.44716,0.00568
1759.38699,0.00581
1757.32682,0.00593
1755.26664,0.00586
1753.20647,0.00586
1751.14630,0.00624
1749.08613,0.00669
1747.02596,0.00669
1744.96578,0.00634
1742.90561,0.00605
1740.84544,0.00599
1738.78527,0.00617
1736.72509,0.00646
1734.66492,0.00669
1732.60475,0.00662
1730.54458,0.00631
1728.48441,0.00609
1726.42423,0.00608
1724.36406,0.00610
1722.30389,0.00608
1720.24372,0.00621
1718.18355,0.00651
1716.12337,0.00668
1714.06320,0.00662
1712.00303,0.00649
1709.94286,0.00634
1707.88268,0.00630
1705.82251,0.00648
1703.76234,0.00676
1701.70217,0.00702
1699.64200,0.00729
1697.58182,0.00753
1695.52165,0.00767
1693.46148,0.00767
1691.40131,0.00760
1689.34114,0.00757
1687.28096,0.00771
1685.22079,0.00824
1683.16062,0.00889
1681.10045,0.00899
1679.04028,0.00885
1676.98010,0.00897
1674.91993,0.00910
1672.85976,0.00899
1670.79959,0.00894
1668.73941,0.00900
1666.67924,0.00890
1664.61907,0.00883
1662.55890,0.00903
1660.49873,0.00924
1658.43855,0.00925
1656.37838,0.00909
1654.31821,0.00887
1652.25804,0.00892
1650.19787,0.00918
1648.13769,0.00937
1646.07752,0.00941
1644.01735,0.00928
1641.95718,0.00909
1639.89701,0.00895
1637.83683,0.00883
1635.77666,0.00867
1633.71649,0.00848
1631.65632,0.00835
1629.59614,0.00828
1627.53597,0.00818
1625.47580,0.00802
1623.41563,0.00799
1621.35546,0.00809
1619.29528,0.00809
1617.23511,0.00801
1615.17494,0.00789
1613.11477,0.00768
1611.05460,0.00747
1608.99442,0.00734
1606.93425,0.00718
1604.87408,0.00690
1602.81391,0.00661
1600.75373,0.00648
1598.69356,0.00644
1596.63339,0.00639
1594.57322,0.00633
1592.51305,0.00626
1590.45287,0.00616
1588.39270,0.00611
1586.33253,0.00614
1584.27236,0.00604
1582.21219,0.00571
1580.15201,0.00538
1578.09184,0.00523
1576.03167,0.00529
1573.97150,0.00548
1571.91133,0.00559
1569.85115,0.00563
1567.79098,0.00559
1565.73081,0.00545
1563.67064,0.00532
1561.61046,0.00534
1559.55029,0.00534
1557.49012,0.00513
1555.42995,0.00490
1553.36978,0.00476
1551.30960,0.00471
1549.24943,0.00480
1547.18926,0.00499
1545.12909,0.00514
1543.06892,0.00515
1541.00874,0.00500
1538.94857,0.00478
1536.88840,0.00461
1534.82823,0.00450
1532.76805,0.00439
1530.70788,0.00438
1528.64771,0.00457
1526.58754,0.00479
1524.52737,0.00486
1522.46719,0.00488
1520.40702,0.00485
1518.34685,0.00463
1516.28668,0.00448
1514.22651,0.00451
1512.16633,0.00450
1510.10616,0.00450
1508.04599,0.00460
1505.98582,0.00448
1503.92565,0.00414
1501.86547,0.00392
1499.80530,0.00378
1497.74513,0.00363
1495.68496,0.00354
1493.62478,0.00371
1491.56461,0.00408
1489.50444,0.00430
1487.44427,0.00400
1485.38410,0.00354
1483.32392,0.00337
1481.26375,0.00343
1479.20358,0.00354
1477.14341,0.00371
1475.08324,0.00390
1473.02306,0.00385
1470.96289,0.00360
1468.90272,0.00360
1466.84255,0.00382
1464.78238,0.00385
1462.72220,0.00365
1460.66203,0.00365
1458.60186,0.00408
1456.54169,0.00448
1454.48151,0.00432
1452.42134,0.00396
1450.36117,0.00372
1448.30100,0.00354
1446.24083,0.00333
1444.18065,0.00314
1442.12048,0.00304
1440.06031,0.00305
1438.00014,0.00312
1435.93997,0.00320
1433.87979,0.00330
1431.81962,0.00341
1429.75945,0.00351
1427.69928,0.00354
1425.63910,0.00351
1423.57893,0.00352
1421.51876,0.00363
1419.45859,0.00386
1417.39842,0.00399
1415.33824,0.00386
1413.27807,0.00361
1411.21790,0.00347
1409.15773,0.00348
1407.09756,0.00347
1405.03738,0.00350
1402.97721,0.00371
1400.91704,0.00398
1398.85687,0.00408
1396.79670,0.00400
1394.73652,0.00382
1392.67635,0.00358
1390.61618,0.00348
1388.55601,0.00363
1386.49583,0.00372
1384.43566,0.00356
1382.37549,0.00340
1380.31532,0.00342
1378.25515,0.00354
1376.19497,0.00367
1374.13480,0.00373
1372.07463,0.00364
1370.01446,0.00350
1367.95429,0.00346
1365.89411,0.00351
1363.83394,0.00360
1361.77377,0.00362
1359.71360,0.00353
1357.65343,0.00344
1355.59325,0.00335
1353.53308,0.00331
1351.47291,0.00337
1349.41274,0.00346
1347.35256,0.00346
1345.29239,0.00337
1343.23222,0.00336
1341.17205,0.00349
1339.11188,0.00356
1337.05170,0.00341
1334.99153,0.00317
1332.93136,0.00304
1330.87119,0.00301
1328.81102,0.00302
1326.75084,0.00300
1324.69067,0.00286
1322.63050,0.00265
1320.57033,0.00262
1318.51015,0.00273
1316.44998,0.00278
1314.38981,0.00284
1312.32964,0.00288
1310.26947,0.00285
1308.20929,0.00288
1306.14912,0.00292
1304.08895,0.00294
1302.02878,0.00297
1299.96861,0.00292
1297.90843,0.00277
1295.84826,0.00266
1293.78809,0.00263
1291.72792,0.00268
1289.66775,0.00280
1287.60757,0.00288
1285.54740,0.00291
1283.48723,0.00295
1281.42706,0.00296
1279.36688,0.00290
1277.30671,0.00282
1275.24654,0.00284
1273.18637,0.00305
1271.12620,0.00322
1269.06602,0.00315
1267.00585,0.00294
1264.94568,0.00275
1262.88551,0.00263
1260.82534,0.00268
1258.76516,0.00289
1256.70499,0.00305
1254.64482,0.00310
1252.58465,0.00311
1250.52447,0.00309
1248.46430,0.00296
1246.40413,0.00276
1244.34396,0.00265
1242.28379,0.00261
1240.22361,0.00253
1238.16344,0.00243
1236.10327,0.00241
1234.04310,0.00244
1231.98293,0.00231
1229.92275,0.00209
1227.86258,0.00205
1225.80241,0.00214
1223.74224,0.00225
1221.68207,0.00231
1219.62189,0.00226
1217.56172,0.00212
1215.50155,0.00193
1213.44138,0.00184
1211.38120,0.00199
1209.32103,0.00221
1207.26086,0.00219
1205.20069,0.00207
1203.14052,0.00212
1201.08034,0.00230
1199.02017,0.00239
1196.96000,0.00234
1194.89983,0.00235
1192.83966,0.00264
1190.77948,0.00300
1188.71931,0.00327
1186.65914,0.00369
1184.59897,0.00423
1182.53880,0.00466
1180.47862,0.00502
1178.41845,0.00548
1176.35828,0.00600
1174.29811,0.00644
1172.23793,0.00673
1170.17776,0.00711
1168.11759,0.00778
1166.05742,0.00844
1163.99725,0.00893
1161.93707,0.00939
1159.87690,0.00980
1157.81673,0.01020
1155.75656,0.01080
1153.69639,0.01145
1151.63621,0.01183
1149.57604,0.01200
1147.51587,0.01218
1145.45570,0.01254
1143.39552,0.01298
1141.33535,0.01321
1139.27518,0.01342
1137.21501,0.01375
1135.15484,0.01389
1133.09466,0.01386
1131.03449,0.01398
1128.97432,0.01422
1126.91415,0.01452
1124.85398,0.01495
1122.79380,0.01530
1120.73363,0.01544
1118.67346,0.01558
1116.61329,0.01596
1114.55312,0.01649
1112.49294,0.01702
1110.43277,0.01755
1108.37260,0.01803
1106.31243,0.01839
1104.25225,0.01869
1102.19208,0.01905
1100.13191,0.01948
1098.07174,0.01998
1096.01157,0.02060
1093.95139,0.02116
1091.89122,0.02138
1089.83105,0.02145
1087.77088,0.02165
1085.71071,0.02201
1083.65053,0.02249
1081.59036,0.02304
1079.53019,0.02352
1077.47002,0.02378
1075.40985,0.02378
1073.34967,0.02371
1071.28950,0.02378
1069.22933,0.02399
1067.16916,0.02405
1065.10898,0.02389
1063.04881,0.02378
1060.98864,0.02376
1058.92847,0.02363
1056.86830,0.02333
1054.80812,0.02289
1052.74795,0.02245
1050.68778,0.02214
1048.62761,0.02171
1046.56744,0.02103
1044.50726,0.02051
1042.44709,0.02025
1040.38692,0.01983
1038.32675,0.01923
1036.26657,0.01871
1034.20640,0.01820
1032.14623,0.01769
1030.08606,0.01725
1028.02589,0.01686
1025.96571,0.01655
1023.90554,0.01618
1021.84537,0.01563
1019.78520,0.01508
1017.72503,0.01478
1015.66485,0.01459
1013.60468,0.01429
1011.54451,0.01404
1009.48434,0.01402
1007.42417,0.01404
1005.36399,0.01394
1003.30382,0.01402
1001.24365,0.01434
999.18348,0.01454
997.12330,0.01471
995.06313,0.01522
993.00296,0.01582
990.94279,0.01619
988.88262,0.01642
986.82244,0.01659
984.76227,0.01663
982.70210,0.01665
980.64193,0.01662
978.58176,0.01648
976.52158,0.01639
974.46141,0.01620
972.40124,0.01583
970.34107,0.01542
968.28089,0.01503
966.22072,0.01473
964.16055,0.01457
962.10038,0.01442
960.04021,0.01421
957.98003,0.01396
955.91986,0.01356
953.85969,0.01320
951.79952,0.01290
949.73935,0.01269
947.67917,0.01298
945.61900,0.01340
943.55883,0.01325
941.49866,0.01288
939.43849,0.01297
937.37831,0.01326
935.31814,0.01322
933.25797,0.01299
931.19780,0.01285
929.13762,0.01267
927.07745,0.01241
925.01728,0.01219
922.95711,0.01170
920.89694,0.01109
918.83676,0.01085
916.77659,0.01078
914.71642,0.01062
912.65625,0.01043
910.59608,0.01024
908.53590,0.01004
906.47573,0.00986
904.41556,0.00965
902.35539,0.00934
900.29522,0.00917
898.23504,0.00912
896.17487,0.00889
894.11470,0.00869
892.05453,0.00887
889.99435,0.00928
887.93418,0.00957
885.87401,0.00963
883.81384,0.00970
881.75367,0.00999
879.69349,0.01045
877.63332,0.01085
875.57315,0.01113
873.51298,0.01145
871.45281,0.01165
869.39263,0.01174
867.33246,0.01202
865.27229,0.01237
863.21212,0.01269
861.15194,0.01326
859.09177,0.01372
857.03160,0.01363
854.97143,0.01327
852.91126,0.01303
850.85108,0.01309
848.79091,0.01327
846.73074,0.01319
844.67057,0.01272
842.61040,0.01193
840.55022,0.01130
838.49005,0.01099
836.42988,0.01076
834.36971,0.01069
832.30954,0.01060
830.24936,0.01002
828.18919,0.00910
826.12902,0.00837
824.06885,0.00798
822.00867,0.00772
819.94850,0.00748
817.88833,0.00728
815.82816,0.00726
813.76799,0.00743
811.70781,0.00740
809.64764,0.00683
807.58747,0.00624
805.52730,0.00621
803.46713,0.00626
801.40695,0.00625
799.34678,0.00655
797.28661,0.00654
795.22644,0.00584
793.16627,0.00539
791.10609,0.00550
789.04592,0.00550
786.98575,0.00534
784.92558,0.00529
782.86540,0.00509
780.80523,0.00476
778.74506,0.00480
776.68489,0.00503
774.62472,0.00515
772.56454,0.00527
770.50437,0.00511
768.44420,0.00468
766.38403,0.00446
764.32386,0.00455
762.26368,0.00481
760.20351,0.00485
758.14334,0.00443
756.08317,0.00387
754.02299,0.00375
751.96282,0.00402
749.90265,0.00442
747.84248,0.00450
745.78231,0.00401
743.72213,0.00343
741.66196,0.00311
739.60179,0.00328
737.54162,0.00377
735.48145,0.00378
733.42127,0.00350
731.36110,0.00326
729.30093,0.00318
727.24076,0.00372
725.18059,0.00450
723.12041,0.00498
721.06024,0.00449
719.00007,0.00408
716.93990,0.00377
714.87972,0.00383
712.81955,0.00422
710.75938,0.00436
708.69921,0.00440
706.63904,0.00464
704.57886,0.00475
702.51869,0.00468
700.45852,0.00477
698.39835,0.00476
696.33818,0.00455
694.27800,0.00469
692.21783,0.00506
690.15766,0.00525
688.09749,0.00567
686.03731,0.00622
683.97714,0.00625
681.91697,0.00617
679.85680,0.00662
677.79663,0.00677
675.73645,0.00591
673.67628,0.00555
671.61611,0.00691
669.55594,0.00533
667.49577,0.00220
665.43559,0.00631
663.37542,0.00505
661.31525,0.00427
659.25508,0.00466
657.19491,0.00396
655.13473,0.00301
653.07456,0.00343
651.01439,0.00490
648.95422,0.00629
646.89404,0.00684
644.83387,0.00596
642.77370,0.00492
640.71353,0.00480
638.65336,0.00510
636.59318,0.00527
634.53301,0.00506
632.47284,0.00427
630.41267,0.00345
628.35250,0.00331
626.29232,0.00358
624.23215,0.00285
622.17198,0.00223
620.11181,0.00298
618.05164,0.00364
615.99146,0.00343
613.93129,0.00269
611.87112,0.00178
609.81095,0.00107
607.75077,0.00066
605.69060,0.00055
603.63043,0.00003
601.57026,0.00000
599.51009,0.00000
