3996.73391,0.00020
3994.67373,0.00023
3992.61356,0.00037
3990.55339,0.00056
3988.49322,0.00058
3986.43305,0.00050
3984.37287,0.00052
3982.31270,0.00048
3980.25253,0.00041
3978.19236,0.00048
3976.13219,0.00058
3974.07201,0.00048
3972.01184,0.00038
3969.95167,0.00056
3967.89150,0.00066
3965.83133,0.00031
3963.77115,0.00000
3961.71098,0.00005
3959.65081,0.00019
3957.59064,0.00026
3955.53046,0.00038
3953.47029,0.00054
3951.41012,0.00063
3949.34995,0.00070
3947.28978,0.00088
3945.22960,0.00107
3943.16943,0.00117
3941.10926,0.00126
3939.04909,0.00129
3936.98892,0.00103
3934.92874,0.00056
3932.86857,0.00030
3930.80840,0.00029
3928.74823,0.00015
3926.68805,0.00007
3924.62788,0.00035
3922.56771,0.00069
3920.50754,0.00098
3918.44737,0.00121
3916.38719,0.00110
3914.32702,0.00072
3912.26685,0.00049
3910.20668,0.00044
3908.14651,0.00044
3906.08633,0.00055
3904.02616,0.00094
3901.96599,0.00122
3899.90582,0.00100
3897.84565,0.00059
3895.78547,0.00026
3893.72530,0.00004
3891.66513,0.00016
3889.60496,0.00075
3887.54478,0.00144
3885.48461,0.00177
3883.42444,0.00163
3881.36427,0.00145
3879.30410,0.00143
3877.24392,0.00124
3875.18375,0.00102
3873.12358,0.00111
3871.06341,0.00140
3869.00324,0.00156
3866.94306,0.00150
3864.88289,0.00161
3862.82272,0.00195
3860.76255,0.00209
3858.70237,0.00191
3856.64220,0.00162
3854.58203,0.00142
3852.52186,0.00147
3850.46169,0.00148
3848.40151,0.00125
3846.34134,0.00094
3844.28117,0.00086
3842.22100,0.00120
3840.16083,0.00165
3838.10065,0.00187
3836.04048,0.00189
3833.98031,0.00158
3831.92014,0.00105
3829.85997,0.00090
3827.79979,0.00124
3825.73962,0.00153
3823.67945,0.00153
3821.61928,0.00134
3819.55910,0.00103
3817.49893,0.00078
3815.43876,0.00087
3813.37859,0.00109
3811.31842,0.00118
3809.25824,0.00123
3807.19807,0.00154
3805.13790,0.00220
3803.07773,0.00282
3801.01756,0.00294
3798.95738,0.00242
3796.89721,0.00180
3794.83704,0.00169
3792.77687,0.00196
3790.71670,0.00216
3788.65652,0.00224
3786.59635,0.00222
3784.53618,0.00204
3782.47601,0.00173
3780.41583,0.00120
3778.35566,0.00052
3776.29549,0.00010
3774.23532,0.00017
3772.17515,0.00063
3770.11497,0.00117
3768.05480,0.00155
3765.99463,0.00167
3763.93446,0.00155
3761.87429,0.00141
3759.81411,0.00167
3757.75394,0.00211
3755.69377,0.00208
3753.63360,0.00153
3751.57342,0.00106
3749.51325,0.00137
3747.45308,0.00213
3745.39291,0.00285
3743.33274,0.00317
3741.27256,0.00265
3739.21239,0.00161
3737.15222,0.00095
3735.09205,0.00106
3733.03188,0.00140
3730.97170,0.00155
3728.91153,0.00184
3726.85136,0.00236
3724.79119,0.00278
3722.73102,0.00281
3720.67084,0.00250
3718.61067,0.00219
3716.55050,0.00187
3714.49033,0.00173
3712.43015,0.00225
3710.36998,0.00302
3708.30981,0.00322
3706.24964,0.00281
3704.18947,0.00227
3702.12929,0.00203
3700.06912,0.00223
3698.00895,0.00266
3695.94878,0.00318
3693.88861,0.00356
3691.82843,0.00338
3689.76826,0.00302
3687.70809,0.00298
3685.64792,0.00285
3683.58775,0.00247
3681.52757,0.00219
3679.46740,0.00210
3677.40723,0.00228
3675.34706,0.00274
3673.28688,0.00337
3671.22671,0.00412
3669.16654,0.00471
3667.10637,0.00483
3665.04620,0.00478
3662.98602,0.00492
3660.92585,0.00524
3658.86568,0.00567
3656.80551,0.00637
3654.74534,0.00720
3652.68516,0.00758
3650.62499,0.00786
3648.56482,0.00868
3646.50465,0.00942
3644.44447,0.00971
3642.38430,0.00985
3640.32413,0.01029
3638.26396,0.01104
3636.20379,0.01156
3634.14361,0.01169
3632.08344,0.01196
3630.02327,0.01277
3627.96310,0.01387
3625.90293,0.01479
3623.84275,0.01533
3621.78258,0.01556
3619.72241,0.01575
3617.66224,0.01633
3615.60207,0.01754
3613.54189,0.01886
3611.48172,0.01967
3609.42155,0.01991
3607.36138,0.02011
3605.30120,0.02066
3603.24103,0.02140
3601.18086,0.02204
3599.12069,0.02237
3597.06052,0.02264
3595.00034,0.02336
3592.94017,0.02470
3590.88000,0.02596
3588.81983,0.02678
3586.75966,0.02721
3584.69948,0.02743
3582.63931,0.02787
3580.57914,0.02863
3578.51897,0.02944
3576.45879,0.03030
3574.39862,0.03119
3572.33845,0.03189
3570.27828,0.03251
3568.21811,0.03325
3566.15793,0.03390
3564.09776,0.03415
3562.03759,0.03441
3559.97742,0.03501
3557.91725,0.03554
3555.85707,0.03590
3553.79690,0.03662
3551.73673,0.03763
3549.67656,0.03832
3547.61639,0.03879
3545.55621,0.03945
3543.49604,0.04027
3541.43587,0.04115
3539.37570,0.04202
3537.31552,0.04268
3535.25535,0.04294
3533.19518,0.04297
3531.13501,0.04329
3529.07484,0.04403
3527.01466,0.04493
3524.95449,0.04578
3522.89432,0.04635
3520.83415,0.04657
3518.77398,0.04672
3516.71380,0.04716
3514.65363,0.04802
3512.59346,0.04905
3510.53329,0.04981
3508.47312,0.05013
3506.41294,0.05022
3504.35277,0.05055
3502.29260,0.05128
3500.23243,0.05197
3498.17225,0.05231
3496.11208,0.05267
3494.05191,0.05348
3491.99174,0.05453
3489.93157,0.05531
3487.87139,0.05580
3485.81122,0.05635
3483.75105,0.05700
3481.69088,0.05754
3479.63071,0.05785
3477.57053,0.05801
3475.51036,0.05825
3473.45019,0.05880
3471.39002,0.05958
3469.32984,0.06007
3467.26967,0.06027
3465.20950,0.06059
3463.14933,0.06118
3461.08916,0.06191
3459.02898,0.06263
3456.96881,0.06322
3454.90864,0.06359
3452.84847,0.06391
3450.78830,0.06423
3448.72812,0.06434
3446.66795,0.06454
3444.60778,0.06516
3442.54761,0.06587
3440.48744,0.06660
3438.42726,0.06741
3436.36709,0.06801
3434.30692,0.06824
3432.24675,0.06829
3430.18657,0.06840
3428.12640,0.06868
3426.06623,0.06902
3424.00606,0.06940
3421.94589,0.06987
3419.88571,0.07033
3417.82554,0.07049
3415.76537,0.07050
3413.70520,0.07065
3411.64503,0.07099
3409.58485,0.07158
3407.52468,0.07222
3405.46451,0.07256
3403.40434,0.07277
3401.34416,0.07300
3399.28399,0.07360
3397.22382,0.07443
3395.16365,0.07485
3393.10348,0.07484
3391.04330,0.07483
3388.98313,0.07491
3386.92296,0.07519
3384.86279,0.07557
3382.80262,0.07578
3380.74244,0.07601
3378.68227,0.07639
3376.62210,0.07661
3374.56193,0.07674
3372.50176,0.07694
3370.44158,0.07711
3368.38141,0.07748
3366.32124,0.07794
3364.26107,0.07786
3362.20089,0.07761
3360.14072,0.07802
3358.08055,0.07865
3356.02038,0.07878
3353.96021,0.07867
3351.90003,0.07885
3349.83986,0.07916
3347.77969,0.07918
3345.71952,0.07903
3343.65935,0.07923
3341.59917,0.07973
3339.53900,0.07988
3337.47883,0.07947
3335.41866,0.07921
3333.35849,0.07955
3331.29831,0.07998
3329.23814,0.08015
3327.17797,0.08016
3325.11780,0.08017
3323.05762,0.08025
3320.99745,0.08033
3318.93728,0.08031
3316.87711,0.08025
3314.81694,0.08018
3312.75676,0.08002
3310.69659,0.07997
3308.63642,0.08018
3306.57625,0.08045
3304.51608,0.08044
3302.45590,0.08026
3300.39573,0.08028
3298.33556,0.08048
3296.27539,0.08063
3294.21521,0.08093
3292.15504,0.08145
3290.09487,0.08180
3288.03470,0.08186
3285.97453,0.08178
3283.91435,0.08144
3281.85418,0.08085
3279.79401,0.08060
3277.73384,0.08104
3275.67367,0.08165
3273.61349,0.08190
3271.55332,0.08183
3269.49315,0.08171
3267.43298,0.08181
3265.37281,0.08216
3263.31263,0.08240
3261.25246,0.08236
3259.19229,0.08234
3257.13212,0.08247
3255.07194,0.08262
3253.01177,0.08261
3250.95160,0.08240
3248.89143,0.08216
3246.83126,0.08213
3244.77108,0.08223
3242.71091,0.08242
3240.65074,0.08265
3238.59057,0.08274
3236.53040,0.08287
3234.47022,0.08320
3232.41005,0.08336
3230.34988,0.08292
3228.28971,0.08213
3226.22954,0.08163
3224.16936,0.08162
3222.10919,0.08176
3220.04902,0.08186
3217.98885,0.08205
3215.92867,0.08211
3213.86850,0.08194
3211.80833,0.08179
3209.74816,0.08180
3207.68799,0.08181
3205.62781,0.08163
3203.56764,0.08134
3201.50747,0.08117
3199.44730,0.08098
3197.38713,0.08070
3195.32695,0.08064
3193.26678,0.08074
3191.20661,0.08064
3189.14644,0.08042
3187.08626,0.08011
3185.02609,0.07968
3182.96592,0.07952
3180.90575,0.07947
3178.84558,0.07918
3176.78540,0.07915
3174.72523,0.07945
3172.66506,0.07938
3170.60489,0.07894
3168.54472,0.07863
3166.48454,0.07852
3164.42437,0.07829
3162.36420,0.07776
3160.30403,0.07735
3158.24386,0.07734
3156.18368,0.07725
3154.12351,0.07686
3152.06334,0.07658
3150.00317,0.07652
3147.94299,0.07638
3145.88282,0.07605
3143.82265,0.07571
3141.76248,0.07553
3139.70231,0.07542
3137.64213,0.07523
3135.58196,0.07483
3133.52179,0.07413
3131.46162,0.07345
3129.40145,0.07312
3127.34127,0.07298
3125.28110,0.07288
3123.22093,0.07283
3121.16076,0.07285
3119.10058,0.07284
3117.04041,0.07259
3114.98024,0.07209
3112.92007,0.07148
3110.85990,0.07092
3108.79972,0.07065
3106.73955,0.07065
3104.67938,0.07056
3102.61921,0.07021
3100.55904,0.06967
3098.49886,0.06907
3096.43869,0.06865
3094.37852,0.06847
3092.31835,0.06833
3090.25818,0.06812
3088.19800,0.06787
3086.13783,0.06745
3084.07766,0.06690
3082.01749,0.06651
3079.95731,0.06633
3077.89714,0.06610
3075.83697,0.06573
3073.77680,0.06540
3071.71663,0.06504
3069.65645,0.06450
3067.59628,0.06395
3065.53611,0.06362
3063.47594,0.06346
3061.41577,0.06331
3059.35559,0.06315
3057.29542,0.06295
3055.23525,0.06254
3053.17508,0.06203
3051.11491,0.06161
3049.05473,0.06123
3046.99456,0.06078
3044.93439,0.06035
3042.87422,0.06008
3040.81404,0.05973
3038.75387,0.05931
3036.69370,0.05900
3034.63353,0.05855
3032.57336,0.05791
3030.51318,0.05737
3028.45301,0.05701
3026.39284,0.05682
3024.33267,0.05667
3022.27250,0.05635
3020.21232,0.05600
3018.15215,0.05568
3016.09198,0.05546
3014.03181,0.05538
3011.97163,0.05514
3009.91146,0.05459
3007.85129,0.05395
3005.79112,0.05347
3003.73095,0.05320
3001.67077,0.05301
2999.61060,0.05272
2997.55043,0.05224
2995.49026,0.05180
2993.43009,0.05162
2991.36991,0.05141
2989.30974,0.05094
2987.24957,0.05052
2985.18940,0.05037
2983.12923,0.05022
2981.06905,0.04995
2979.00888,0.04982
2976.94871,0.04984
2974.88854,0.04986
2972.82836,0.04976
2970.76819,0.04944
2968.70802,0.04924
2966.64785,0.04927
2964.58768,0.04911
2962.52750,0.04879
2960.46733,0.04885
2958.40716,0.04917
2956.34699,0.04927
2954.28682,0.04905
2952.22664,0.04873
2950.16647,0.04856
2948.10630,0.04858
2946.04613,0.04857
2943.98596,0.04855
2941.92578,0.04857
2939.86561,0.04851
2937.80544,0.04850
2935.74527,0.04865
2933.68509,0.04864
2931.62492,0.04841
2929.56475,0.04826
2927.50458,0.04813
2925.44441,0.04782
2923.38423,0.04759
2921.32406,0.04750
2919.26389,0.04735
2917.20372,0.04720
2915.14355,0.04683
2913.08337,0.04623
2911.02320,0.04589
2908.96303,0.04588
2906.90286,0.04583
2904.84268,0.04547
2902.78251,0.04484
2900.72234,0.04430
2898.66217,0.04414
2896.60200,0.04423
2894.54182,0.04423
2892.48165,0.04411
2890.42148,0.04403
2888.36131,0.04397
2886.30114,0.04375
2884.24096,0.04339
2882.18079,0.04315
2880.12062,0.04314
2878.06045,0.04312
2876.00028,0.04292
2873.94010,0.04253
2871.87993,0.04216
2869.81976,0.04209
2867.75959,0.04217
2865.69941,0.04199
2863.63924,0.04167
2861.57907,0.04137
2859.51890,0.04099
2857.45873,0.04081
2855.39855,0.04096
2853.33838,0.04101
2851.27821,0.04069
2849.21804,0.04009
2847.15787,0.03955
2845.09769,0.03928
2843.03752,0.03914
2840.97735,0.03890
2838.91718,0.03853
2836.85700,0.03825
2834.79683,0.03817
2832.73666,0.03810
2830.67649,0.03799
2828.61632,0.03785
2826.55614,0.03771
2824.49597,0.03755
2822.43580,0.03738
2820.37563,0.03709
2818.31546,0.03659
2816.25528,0.03613
2814.19511,0.03599
2812.13494,0.03586
2810.07477,0.03541
2808.01460,0.03505
2805.95442,0.03504
2803.89425,0.03511
2801.83408,0.03505
2799.77391,0.03497
2797.71373,0.03494
2795.65356,0.03466
2793.59339,0.03421
2791.53322,0.03408
2789.47305,0.03410
2787.41287,0.03386
2785.35270,0.03357
2783.29253,0.03343
2781.23236,0.03333
2779.17219,0.03327
2777.11201,0.03323
2775.05184,0.03309
2772.99167,0.03278
2770.93150,0.03249
2768.87133,0.03220
2766.81115,0.03185
2764.75098,0.03166
2762.69081,0.03158
2760.63064,0.03147
2758.57046,0.03137
2756.51029,0.03134
2754.45012,0.03128
2752.38995,0.03108
2750.32978,0.03092
2748.26960,0.03087
2746.20943,0.03080
2744.14926,0.03065
2742.08909,0.03035
2740.02892,0.03003
2737.96874,0.02980
2735.90857,0.02962
2733.84840,0.02953
2731.78823,0.02951
2729.72805,0.02943
2727.66788,0.02924
2725.60771,0.02896
2723.54754,0.02880
2721.48737,0.02882
2719.42719,0.02871
2717.36702,0.02848
2715.30685,0.02845
2713.24668,0.02838
2711.18651,0.02796
2709.12633,0.02747
2707.06616,0.02718
2705.00599,0.02700
2702.94582,0.02677
2700.88565,0.02651
2698.82547,0.02639
2696.76530,0.02632
2694.70513,0.02611
2692.64496,0.02597
2690.58478,0.02586
2688.52461,0.02561
2686.46444,0.02541
2684.40427,0.02527
2682.34410,0.02511
2680.28392,0.02498
2678.22375,0.02476
2676.16358,0.02445
2674.10341,0.02435
2672.04324,0.02435
2669.98306,0.02416
2667.92289,0.02389
2665.86272,0.02369
2663.80255,0.02353
2661.74238,0.02327
2659.68220,0.02292
2657.62203,0.02269
2655.56186,0.02257
2653.50169,0.02238
2651.44151,0.02217
2649.38134,0.02200
2647.32117,0.02178
2645.26100,0.02146
2643.20083,0.02130
2641.14065,0.02125
2639.08048,0.02102
2637.02031,0.02075
2634.96014,0.02054
2632.89997,0.02035
2630.83979,0.02020
2628.77962,0.02006
2626.71945,0.01996
2624.65928,0.01975
2622.59910,0.01933
2620.53893,0.01903
2618.47876,0.01893
2616.41859,0.01877
2614.35842,0.01859
2612.29824,0.01855
2610.23807,0.01850
2608.17790,0.01836
2606.11773,0.01813
2604.05756,0.01768
2601.99738,0.01741
2599.93721,0.01761
2597.87704,0.01782
2595.81687,0.01777
2593.75670,0.01751
2591.69652,0.01724
2589.63635,0.01716
2587.57618,0.01703
2585.51601,0.01682
2583.45583,0.01670
2581.39566,0.01646
2579.33549,0.01622
2577.27532,0.01643
2575.21515,0.01678
2573.15497,0.01672
2571.09480,0.01655
2569.03463,0.01647
2566.97446,0.01641
2564.91429,0.01625
2562.85411,0.01603
2560.79394,0.01595
2558.73377,0.01603
2556.67360,0.01614
2554.61342,0.01619
2552.55325,0.01620
2550.49308,0.01624
2548.43291,0.01625
2546.37274,0.01600
2544.31256,0.01571
2542.25239,0.01576
2540.19222,0.01599
2538.13205,0.01621
2536.07188,0.01633
2534.01170,0.01648
2531.95153,0.01682
2529.89136,0.01721
2527.83119,0.01734
2525.77102,0.01707
2523.71084,0.01667
2521.65067,0.01645
2519.59050,0.01651
2517.53033,0.01652
2515.47015,0.01641
2513.40998,0.01650
2511.34981,0.01678
2509.28964,0.01703
2507.22947,0.01708
2505.16929,0.01675
2503.10912,0.01634
2501.04895,0.01657
2498.98878,0.01711
2496.92861,0.01723
2494.86843,0.01708
2492.80826,0.01683
2490.74809,0.01643
2488.68792,0.01619
2486.62775,0.01627
2484.56757,0.01662
2482.50740,0.01718
2480.44723,0.01757
2478.38706,0.01754
2476.32688,0.01742
2474.26671,0.01751
2472.20654,0.01765
2470.14637,0.01789
2468.08620,0.01827
2466.02602,0.01829
2463.96585,0.01807
2461.90568,0.01811
2459.84551,0.01811
2457.78534,0.01804
2455.72516,0.01820
2453.66499,0.01835
2451.60482,0.01832
2449.54465,0.01826
2447.48447,0.01820
2445.42430,0.01819
2443.36413,0.01825
2441.30396,0.01825
2439.24379,0.01835
2437.18361,0.01858
2435.12344,0.01856
2433.06327,0.01824
2431.00310,0.01797
2428.94293,0.01783
2426.88275,0.01794
2424.82258,0.01833
2422.76241,0.01853
2420.70224,0.01861
2418.64207,0.01902
2416.58189,0.01928
2414.52172,0.01883
2412.46155,0.01809
2410.40138,0.01774
2408.34120,0.01792
2406.28103,0.01834
2404.22086,0.01860
2402.16069,0.01857
2400.10052,0.01835
2398.04034,0.01816
2395.98017,0.01808
2393.92000,0.01804
2391.85983,0.01775
2389.79966,0.01746
2387.73948,0.01761
2385.67931,0.01797
2383.61914,0.01828
2381.55897,0.01872
2379.49880,0.01939
2377.43862,0.01979
2375.37845,0.01986
2373.31828,0.02004
2371.25811,0.02038
2369.19793,0.01959
2367.13776,0.01654
2365.07759,0.01427
2363.01742,0.01607
2360.95725,0.01662
2358.89707,0.01468
2356.83690,0.01340
2354.77673,0.01447
2352.71656,0.01609
2350.65639,0.01476
2348.59621,0.01452
2346.53604,0.01879
2344.47587,0.01944
2342.41570,0.01755
2340.35552,0.01644
2338.29535,0.01616
2336.23518,0.01706
2334.17501,0.01832
2332.11484,0.01844
2330.05466,0.01685
2327.99449,0.01620
2325.93432,0.01655
2323.87415,0.01754
2321.81398,0.01815
2319.75380,0.01834
2317.69363,0.01765
2315.63346,0.01745
2313.57329,0.01750
2311.51312,0.01721
2309.45294,0.01708
2307.39277,0.01744
2305.33260,0.01793
2303.27243,0.01796
2301.21225,0.01721
2299.15208,0.01587
2297.09191,0.01520
2295.03174,0.01541
2292.97157,0.01560
2290.91139,0.01568
2288.85122,0.01592
2286.79105,0.01609
2284.73088,0.01595
2282.67071,0.01567
2280.61053,0.01520
2278.55036,0.01428
2276.49019,0.01341
2274.43002,0.01314
2272.36984,0.01334
2270.30967,0.01355
2268.24950,0.01347
2266.18933,0.01319
2264.12916,0.01313
2262.06898,0.01335
2260.00881,0.01333
2257.94864,0.01319
2255.88847,0.01360
2253.82830,0.01399
2251.76812,0.01353
2249.70795,0.01303
2247.64778,0.01299
2245.58761,0.01236
2243.52744,0.01170
2241.46726,0.01176
2239.40709,0.01180
2237.34692,0.01162
2235.28675,0.01169
2233.22657,0.01207
2231.16640,0.01180
2229.10623,0.01089
2227.04606,0.01055
2224.98589,0.01085
2222.92571,0.01120
2220.86554,0.01122
2218.80537,0.01054
2216.74520,0.00902
2214.68503,0.00791
2212.62485,0.00836
2210.56468,0.00888
2208.50451,0.00859
2206.44434,0.00830
2204.38417,0.00797
2202.32399,0.00819
2200.26382,0.00947
2198.20365,0.01013
2196.14348,0.00944
2194.08330,0.00846
2192.02313,0.00827
2189.96296,0.00874
2187.90279,0.00930
2185.84262,0.01024
2183.78244,0.01013
2181.72227,0.00867
2179.66210,0.00875
2177.60193,0.00964
2175.54176,0.00875
2173.48158,0.00762
2171.42141,0.00750
2169.36124,0.00749
2167.30107,0.00721
2165.24089,0.00667
2163.18072,0.00633
2161.12055,0.00600
2159.06038,0.00589
2157.00021,0.00695
2154.94003,0.00769
2152.87986,0.00748
2150.81969,0.00719
2148.75952,0.00672
2146.69935,0.00597
2144.63917,0.00547
2142.57900,0.00549
2140.51883,0.00573
2138.45866,0.00588
2136.39849,0.00596
2134.33831,0.00645
2132.27814,0.00741
2130.21797,0.00766
2128.15780,0.00712
2126.09762,0.00712
2124.03745,0.00745
2121.97728,0.00734
2119.91711,0.00725
2117.85694,0.00722
2115.79676,0.00687
2113.73659,0.00658
2111.67642,0.00676
2109.61625,0.00745
2107.55608,0.00775
2105.49590,0.00727
2103.43573,0.00726
2101.37556,0.00728
2099.31539,0.00625
2097.25521,0.00527
2095.19504,0.00551
2093.13487,0.00648
2091.07470,0.00669
2089.01453,0.00615
2086.95435,0.00596
2084.89418,0.00636
2082.83401,0.00638
2080.77384,0.00568
2078.71367,0.00548
2076.65349,0.00599
2074.59332,0.00597
2072.53315,0.00566
2070.47298,0.00589
2068.41281,0.00614
2066.35263,0.00610
2064.29246,0.00579
2062.23229,0.00518
2060.17212,0.00475
2058.11194,0.00444
2056.05177,0.00433
2053.99160,0.00481
2051.93143,0.00472
2049.87126,0.00356
2047.81108,0.00321
2045.75091,0.00403
2043.69074,0.00447
2041.63057,0.00398
2039.57040,0.00314
2037.51022,0.00290
2035.45005,0.00380
2033.38988,0.00490
2031.32971,0.00465
2029.26954,0.00356
2027.20936,0.00310
2025.14919,0.00325
2023.08902,0.00380
2021.02885,0.00473
2018.96867,0.00534
2016.90850,0.00455
2014.84833,0.00290
2012.78816,0.00226
2010.72799,0.00227
2008.66781,0.00202
2006.60764,0.00221
2004.54747,0.00294
2002.48730,0.00362
2000.42713,0.00413
1998.36695,0.00423
1996.30678,0.00382
1994.24661,0.00391
1992.18644,0.00498
1990.12626,0.00560
1988.06609,0.00487
1986.00592,0.00352
1983.94575,0.00312
1981.88558,0.00391
1979.82540,0.00358
1977.76523,0.00178
1975.70506,0.00101
1973.64489,0.00187
1971.58472,0.00302
1969.52454,0.00315
1967.46437,0.00242
1965.40420,0.00200
1963.34403,0.00243
1961.28386,0.00274
1959.22368,0.00243
1957.16351,0.00276
1955.10334,0.00363
1953.04317,0.00380
1950.98299,0.00379
1948.92282,0.00400
1946.86265,0.00375
1944.80248,0.00351
1942.74231,0.00377
1940.68213,0.00404
1938.62196,0.00411
1936.56179,0.00408
1934.50162,0.00388
1932.44145,0.00366
1930.38127,0.00364
1928.32110,0.00352
1926.26093,0.00319
1924.20076,0.00329
1922.14059,0.00424
1920.08041,0.00510
1918.02024,0.00498
1915.96007,0.00437
1913.89990,0.00392
1911.83972,0.00370
1909.77955,0.00372
1907.71938,0.00375
1905.65921,0.00344
1903.59904,0.00297
1901.53886,0.00278
1899.47869,0.00289
1897.41852,0.00323
1895.35835,0.00389
1893.29818,0.00455
1891.23800,0.00459
1889.17783,0.00422
1887.11766,0.00405
1885.05749,0.00394
1882.99731,0.00362
1880.93714,0.00352
1878.87697,0.00376
1876.81680,0.00391
1874.75663,0.00396
1872.69645,0.00409
1870.63628,0.00400
1868.57611,0.00381
1866.51594,0.00409
1864.45577,0.00464
1862.39559,0.00493
1860.33542,0.00480
1858.27525,0.00448
1856.21508,0.00415
1854.15491,0.00386
1852.09473,0.00374
1850.03456,0.00376
1847.97439,0.00382
1845.91422,0.00396
1843.85404,0.00416
1841.79387,0.00434
1839.73370,0.00450
1837.67353,0.00452
1835.61336,0.00434
1833.55318,0.00407
1831.49301,0.00402
1829.43284,0.00438
1827.37267,0.00480
1825.31250,0.00485
1823.25232,0.00466
1821.19215,0.00464
1819.13198,0.00474
1817.07181,0.00475
1815.01163,0.00482
1812.95146,0.00512
1810.89129,0.00537
1808.83112,0.00530
1806.77095,0.00517
1804.71077,0.00524
1802.65060,0.00535
1800.59043,0.00537
1798.53026,0.00538
1796.47009,0.00542
1794.40991,0.00538
1792.34974,0.00527
1790.28957,0.00529
1788.22940,0.00547
1786.16923,0.00557
1784.10905,0.00560
1782.04888,0.00567
1779.98871,0.00573
1777.92854,0.00576
1775.86836,0.00571
1773.80819,0.00556
1771.74802,0.00554
1769.68785,0.00581
1767.62768,0.00618
1765.56750,0.00644
1763.50733,0.00657
1761.44716,0.00672
1759.38699,0.00702
1757.32682,0.00752
1755.26664,0.00795
1753.20647,0.00798
1751.14630,0.00788
1749.08613,0.00818
1747.02596,0.00884
1744.96578,0.00941
1742.90561,0.00967
1740.84544,0.00976
1738.78527,0.00983
1736.72509,0.00991
1734.66492,0.01014
1732.60475,0.01066
1730.54458,0.01114
1728.48441,0.01149
1726.42423,0.01189
1724.36406,0.01231
1722.30389,0.01257
1720.24372,0.01261
1718.18355,0.01285
1716.12337,0.01359
1714.06320,0.01433
1712.00303,0.01478
1709.94286,0.01515
1707.88268,0.01555
1705.82251,0.01589
1703.76234,0.01610
1701.70217,0.01627
1699.64200,0.01683
1697.58182,0.01772
1695.52165,0.01848
1693.46148,0.01906
1691.40131,0.01958
1689.34114,0.02007
1687.28096,0.02047
1685.22079,0.02101
1683.16062,0.02191
1681.10045,0.02278
1679.04028,0.02345
1676.98010,0.02393
1674.91993,0.02422
1672.85976,0.02434
1670.79959,0.02454
1668.73941,0.02506
1666.67924,0.02559
1664.61907,0.02594
1662.55890,0.02634
1660.49873,0.02679
1658.43855,0.02705
1656.37838,0.02703
1654.31821,0.02683
1652.25804,0.02686
1650.19787,0.02728
1648.13769,0.02781
1646.07752,0.02821
1644.01735,0.02818
1641.95718,0.02785
1639.89701,0.02759
1637.83683,0.02748
1635.77666,0.02731
1633.71649,0.02693
1631.65632,0.02650
1629.59614,0.02604
1627.53597,0.02558
1625.47580,0.02515
1623.41563,0.02473
1621.35546,0.02452
1619.29528,0.02450
1617.23511,0.02436
1615.17494,0.02408
1613.11477,0.02383
1611.05460,0.02353
1608.99442,0.02305
1606.93425,0.02238
1604.87408,0.02161
1602.81391,0.02089
1600.75373,0.02034
1598.69356,0.01987
1596.63339,0.01934
1594.57322,0.01881
1592.51305,0.01828
1590.45287,0.01757
1588.39270,0.01672
1586.33253,0.01592
1584.27236,0.01523
1582.21219,0.01460
1580.15201,0.01397
1578.09184,0.01331
1576.03167,0.01274
1573.97150,0.01249
1571.91133,0.01227
1569.85115,0.01182
1567.79098,0.01134
1565.73081,0.01100
1563.67064,0.01057
1561.61046,0.00983
1559.55029,0.00892
1557.49012,0.00863
1555.42995,0.00890
1553.36978,0.00885
1551.30960,0.00842
1549.24943,0.00801
1547.18926,0.00769
1545.12909,0.00719
1543.06892,0.00631
1541.00874,0.00542
1538.94857,0.00533
1536.88840,0.00563
1534.82823,0.00563
1532.76805,0.00548
1530.70788,0.00543
1528.64771,0.00537
1526.58754,0.00527
1524.52737,0.00517
1522.46719,0.00507
1520.40702,0.00495
1518.34685,0.00491
1516.28668,0.00497
1514.22651,0.00499
1512.16633,0.00474
1510.10616,0.00418
1508.04599,0.00360
1505.98582,0.00342
1503.92565,0.00354
1501.86547,0.00351
1499.80530,0.00318
1497.74513,0.00276
1495.68496,0.00253
1493.62478,0.00258
1491.56461,0.00273
1489.50444,0.00282
1487.44427,0.00274
1485.38410,0.00257
1483.32392,0.00249
1481.26375,0.00263
1479.20358,0.00284
1477.14341,0.00296
1475.08324,0.00308
1473.02306,0.00340
1470.96289,0.00381
1468.90272,0.00404
1466.84255,0.00414
1464.78238,0.00431
1462.72220,0.00455
1460.66203,0.00478
1458.60186,0.00504
1456.54169,0.00530
1454.48151,0.00535
1452.42134,0.00531
1450.36117,0.00530
1448.30100,0.00525
1446.24083,0.00512
1444.18065,0.00490
1442.12048,0.00461
1440.06031,0.00429
1438.00014,0.00407
1435.93997,0.00405
1433.87979,0.00410
1431.81962,0.00408
1429.75945,0.00392
1427.69928,0.00368
1425.63910,0.00360
1423.57893,0.00382
1421.51876,0.00411
1419.45859,0.00433
1417.39842,0.00443
1415.33824,0.00436
1413.27807,0.00428
1411.21790,0.00424
1409.15773,0.00410
1407.09756,0.00384
1405.03738,0.00353
1402.97721,0.00340
1400.91704,0.00351
1398.85687,0.00366
1396.79670,0.00372
1394.73652,0.00380
1392.67635,0.00390
1390.61618,0.00398
1388.55601,0.00398
1386.49583,0.00389
1384.43566,0.00391
1382.37549,0.00417
1380.31532,0.00453
1378.25515,0.00485
1376.19497,0.00514
1374.13480,0.00539
1372.07463,0.00551
1370.01446,0.00541
1367.95429,0.00522
1365.89411,0.00517
1363.83394,0.00534
1361.77377,0.00542
1359.71360,0.00511
1357.65343,0.00466
1355.59325,0.00446
1353.53308,0.00441
1351.47291,0.00430
1349.41274,0.00417
1347.35256,0.00408
1345.29239,0.00405
1343.23222,0.00419
1341.17205,0.00444
1339.11188,0.00453
1337.05170,0.00445
1334.99153,0.00429
1332.93136,0.00405
1330.87119,0.00386
1328.81102,0.00381
1326.75084,0.00378
1324.69067,0.00365
1322.63050,0.00360
1320.57033,0.00372
1318.51015,0.00372
1316.44998,0.00347
1314.38981,0.00323
1312.32964,0.00315
1310.26947,0.00314
1308.20929,0.00312
1306.14912,0.00309
1304.08895,0.00310
1302.02878,0.00316
1299.96861,0.00315
1297.90843,0.00308
1295.84826,0.00314
1293.78809,0.00331
1291.72792,0.00340
1289.66775,0.00340
1287.60757,0.00351
1285.54740,0.00367
1283.48723,0.00372
1281.42706,0.00380
1279.36688,0.00399
1277.30671,0.00419
1275.24654,0.00423
1273.18637,0.00409
1271.12620,0.00399
1269.06602,0.00402
1267.00585,0.00403
1264.94568,0.00405
1262.88551,0.00424
1260.82534,0.00435
1258.76516,0.00418
1256.70499,0.00409
1254.64482,0.00421
1252.58465,0.00416
1250.52447,0.00389
1248.46430,0.00369
1246.40413,0.00363
1244.34396,0.00361
1242.28379,0.00359
1240.22361,0.00352
1238.16344,0.00331
1236.10327,0.00311
1234.04310,0.00296
1231.98293,0.00282
1229.92275,0.00265
1227.86258,0.00258
1225.80241,0.00265
1223.74224,0.00262
1221.68207,0.00240
1219.62189,0.00215
1217.56172,0.00197
1215.50155,0.00186
1213.44138,0.00187
1211.38120,0.00186
1209.32103,0.00171
1207.26086,0.00149
1205.20069,0.00141
1203.14052,0.00143
1201.08034,0.00146
1199.02017,0.00153
1196.96000,0.00169
1194.89983,0.00202
1192.83966,0.00244
1190.77948,0.00285
1188.71931,0.00346
1186.65914,0.00425
1184.59897,0.00493
1182.53880,0.00561
1180.47862,0.00657
1178.41845,0.00777
1176.35828,0.00905
1174.29811,0.01026
1172.23793,0.01141
1170.17776,0.01269
1168.11759,0.01412
1166.05742,0.01543
1163.99725,0.01653
1161.93707,0.01760
1159.87690,0.01869
1157.81673,0.01964
1155.75656,0.02050
1153.69639,0.02156
1151.63621,0.02283
1149.57604,0.02404
1147.51587,0.02518
1145.45570,0.02659
1143.39552,0.02817
1141.33535,0.02981
1139.27518,0.03148
1137.21501,0.03302
1135.15484,0.03439
1133.09466,0.03590
1131.03449,0.03759
1128.97432,0.03920
1126.91415,0.04074
1124.85398,0.04234
1122.79380,0.04388
1120.73363,0.04536
1118.67346,0.04703
1116.61329,0.04899
1114.55312,0.05090
1112.49294,0.05258
1110.43277,0.05440
1108.37260,0.05637
1106.31243,0.05836
1104.25225,0.06043
1102.19208,0.06241
1100.13191,0.06437
1098.07174,0.06647
1096.01157,0.06847
1093.95139,0.07013
1091.89122,0.07141
1089.83105,0.07264
1087.77088,0.07423
1085.71071,0.07612
1083.65053,0.07780
1081.59036,0.07906
1079.53019,0.08023
1077.47002,0.08145
1075.40985,0.08253
1073.34967,0.08329
1071.28950,0.08389
1069.22933,0.08451
1067.16916,0.08506
1065.10898,0.08554
1063.04881,0.08564
1060.98864,0.08516
1058.92847,0.08463
1056.86830,0.08415
1054.80812,0.08347
1052.74795,0.08270
1050.68778,0.08191
1048.62761,0.08084
1046.56744,0.07945
1044.50726,0.07788
1042.44709,0.07631
1040.38692,0.07481
1038.32675,0.07327
1036.26657,0.07154
1034.20640,0.06970
1032.14623,0.06792
1030.08606,0.06632
1028.02589,0.06499
1025.96571,0.06364
1023.90554,0.06206
1021.84537,0.06059
1019.78520,0.05933
1017.72503,0.05811
1015.66485,0.05693
1013.60468,0.05589
1011.54451,0.05508
1009.48434,0.05466
1007.42417,0.05449
1005.36399,0.05420
1003.30382,0.05385
1001.24365,0.05389
999.18348,0.05449
997.12330,0.05525
995.06313,0.05589
993.00296,0.05669
990.94279,0.05777
988.88262,0.05870
986.82244,0.05944
984.76227,0.06021
982.70210,0.06052
980.64193,0.05990
978.58176,0.05876
976.52158,0.05738
974.46141,0.05565
972.40124,0.05352
970.34107,0.05124
968.28089,0.04911
966.22072,0.04689
964.16055,0.04443
962.10038,0.04212
960.04021,0.04012
957.98003,0.03844
955.91986,0.03700
953.85969,0.03572
951.79952,0.03481
949.73935,0.03428
947.67917,0.03356
945.61900,0.03280
943.55883,0.03246
941.49866,0.03220
939.43849,0.03192
937.37831,0.03198
935.31814,0.03236
933.25797,0.03256
931.19780,0.03243
929.13762,0.03220
927.07745,0.03189
925.01728,0.03147
922.95711,0.03072
920.89694,0.02961
918.83676,0.02847
916.77659,0.02758
914.71642,0.02681
912.65625,0.02598
910.59608,0.02519
908.53590,0.02436
906.47573,0.02378
904.41556,0.02354
902.35539,0.02333
900.29522,0.02315
898.23504,0.02290
896.17487,0.02265
894.11470,0.02279
892.05453,0.02321
889.99435,0.02363
887.93418,0.02388
885.87401,0.02409
883.81384,0.02457
881.75367,0.02528
879.69349,0.02609
877.63332,0.02672
875.57315,0.02707
873.51298,0.02747
871.45281,0.02795
869.39263,0.02832
867.33246,0.02851
865.27229,0.02873
863.21212,0.02869
861.15194,0.02808
859.09177,0.02750
857.03160,0.02728
854.97143,0.02715
852.91126,0.02677
850.85108,0.02589
848.79091,0.02480
846.73074,0.02411
844.67057,0.02354
842.61040,0.02270
840.55022,0.02170
838.49005,0.02052
836.42988,0.01938
834.36971,0.01861
832.30954,0.01781
830.24936,0.01680
828.18919,0.01611
826.12902,0.01565
824.06885,0.01488
822.00867,0.01399
819.94850,0.01305
817.88833,0.01211
815.82816,0.01169
813.76799,0.01180
811.70781,0.01193
809.64764,0.01172
807.58747,0.01111
805.52730,0.01029
803.46713,0.00962
801.40695,0.00918
799.34678,0.00870
797.28661,0.00817
795.22644,0.00791
793.16627,0.00780
791.10609,0.00743
789.04592,0.00680
786.98575,0.00657
784.92558,0.00671
782.86540,0.00676
780.80523,0.00690
778.74506,0.00685
776.68489,0.00642
774.62472,0.00611
772.56454,0.00598
770.50437,0.00593
768.44420,0.00587
766.38403,0.00620
764.32386,0.00694
762.26368,0.00691
760.20351,0.00607
758.14334,0.00533
756.08317,0.00485
754.02299,0.00454
751.96282,0.00454
749.90265,0.00460
747.84248,0.00412
745.78231,0.00328
743.72213,0.00285
741.66196,0.00304
739.60179,0.00344
737.54162,0.00365
735.48145,0.00347
733.42127,0.00270
731.36110,0.00193
729.30093,0.00240
727.24076,0.00335
725.18059,0.00322
723.12041,0.00274
721.06024,0.00342
719.00007,0.00368
716.93990,0.00353
714.87972,0.00356
712.81955,0.00358
710.75938,0.00373
708.69921,0.00386
706.63904,0.00377
704.57886,0.00351
702.51869,0.00342
700.45852,0.00376
698.39835,0.00421
696.33818,0.00437
694.27800,0.00377
692.21783,0.00273
690.15766,0.00238
688.09749,0.00267
686.03731,0.00241
683.97714,0.00167
681.91697,0.00152
679.85680,0.00208
677.79663,0.00250
675.73645,0.00247
673.67628,0.00187
671.61611,0.00155
669.55594,0.00625
667.49577,0.00859
665.43559,0.00105
663.37542,0.00000
661.31525,0.00064
659.25508,0.00071
657.19491,0.00067
655.13473,0.00073
653.07456,0.00098
651.01439,0.00166
648.95422,0.00293
646.89404,0.00364
644.83387,0.00349
642.77370,0.00286
640.71353,0.00222
638.65336,0.00180
636.59318,0.00197
634.53301,0.00232
632.47284,0.00191
630.41267,0.00105
628.35250,0.00088
626.29232,0.00140
624.23215,0.00168
622.17198,0.00169
620.11181,0.00169
618.05164,0.00212
615.99146,0.00225
613.93129,0.00096
611.87112,0.00000
609.81095,0.00005
607.75077,0.00004
605.69060,0.00049
603.63043,0.00171
601.57026,0.00210
599.51009,0.00000
