3996.73391,0.00096
3994.67373,0.00080
3992.61356,0.00042
3990.55339,0.00017
3988.49322,0.00018
3986.43305,0.00033
3984.37287,0.00045
3982.31270,0.00028
3980.25253,0.00000
3978.19236,0.00011
3976.13219,0.00043
3974.07201,0.00039
3972.01184,0.00014
3969.95167,0.00018
3967.89150,0.00037
3965.83133,0.00030
3963.77115,0.00026
3961.71098,0.00054
3959.65081,0.00068
3957.59064,0.00053
3955.53046,0.00060
3953.47029,0.00086
3951.41012,0.00082
3949.34995,0.00065
3947.28978,0.00072
3945.22960,0.00078
3943.16943,0.00055
3941.10926,0.00046
3939.04909,0.00072
3936.98892,0.00089
3934.92874,0.00075
3932.86857,0.00070
3930.80840,0.00079
3928.74823,0.00067
3926.68805,0.00049
3924.62788,0.00053
3922.56771,0.00071
3920.50754,0.00079
3918.44737,0.00075
3916.38719,0.00064
3914.32702,0.00056
3912.26685,0.00052
3910.20668,0.00051
3908.14651,0.00053
3906.08633,0.00057
3904.02616,0.00061
3901.96599,0.00063
3899.90582,0.00061
3897.84565,0.00063
3895.78547,0.00061
3893.72530,0.00045
3891.66513,0.00025
3889.60496,0.00038
3887.54478,0.00075
3885.48461,0.00097
3883.42444,0.00100
3881.36427,0.00117
3879.30410,0.00138
3877.24392,0.00116
3875.18375,0.00055
3873.12358,0.00010
3871.06341,0.00029
3869.00324,0.00072
3866.94306,0.00064
3864.88289,0.00047
3862.82272,0.00084
3860.76255,0.00128
3858.70237,0.00144
3856.64220,0.00156
3854.58203,0.00181
3852.52186,0.00199
3850.46169,0.00182
3848.40151,0.00149
3846.34134,0.00108
3844.28117,0.00076
3842.22100,0.00081
3840.16083,0.00121
3838.10065,0.00155
3836.04048,0.00147
3833.98031,0.00096
3831.92014,0.00049
3829.85997,0.00061
3827.79979,0.00109
3825.73962,0.00125
3823.67945,0.00093
3821.61928,0.00043
3819.55910,0.00007
3817.49893,0.00000
3815.43876,0.00033
3813.37859,0.00100
3811.31842,0.00148
3809.25824,0.00144
3807.19807,0.00127
3805.13790,0.00148
3803.07773,0.00177
3801.01756,0.00173
3798.95738,0.00144
3796.89721,0.00110
3794.83704,0.00097
3792.77687,0.00112
3790.71670,0.00132
3788.65652,0.00155
3786.59635,0.00170
3784.53618,0.00164
3782.47601,0.00151
3780.41583,0.00123
3778.35566,0.00077
3776.29549,0.00043
3774.23532,0.00037
3772.17515,0.00051
3770.11497,0.00080
3768.05480,0.00106
3765.99463,0.00119
3763.93446,0.00129
3761.87429,0.00127
3759.81411,0.00111
3757.75394,0.00105
3755.69377,0.00111
3753.63360,0.00098
3751.57342,0.00075
3749.51325,0.00102
3747.45308,0.00161
3745.39291,0.00214
3743.33274,0.00235
3741.27256,0.00210
3739.21239,0.00175
3737.15222,0.00147
3735.09205,0.00129
3733.03188,0.00116
3730.97170,0.00111
3728.91153,0.00108
3726.85136,0.00107
3724.79119,0.00097
3722.73102,0.00071
3720.67084,0.00063
3718.61067,0.00080
3716.55050,0.00104
3714.49033,0.00128
3712.43015,0.00138
3710.36998,0.00125
3708.30981,0.00126
3706.24964,0.00159
3704.18947,0.00167
3702.12929,0.00141
3700.06912,0.00127
3698.00895,0.00138
3695.94878,0.00183
3693.88861,0.00228
3691.82843,0.00213
3689.76826,0.00167
3687.70809,0.00158
3685.64792,0.00165
3683.58775,0.00154
3681.52757,0.00131
3679.46740,0.00121
3677.40723,0.00116
3675.34706,0.00093
3673.28688,0.00083
3671.22671,0.00135
3669.16654,0.00225
3667.10637,0.00271
3665.04620,0.00253
3662.98602,0.00221
3660.92585,0.00224
3658.86568,0.00266
3656.80551,0.00323
3654.74534,0.00358
3652.68516,0.00327
3650.62499,0.00254
3648.56482,0.00246
3646.50465,0.00319
3644.44447,0.00396
3642.38430,0.00455
3640.32413,0.00511
3638.26396,0.00566
3636.20379,0.00588
3634.14361,0.00579
3632.08344,0.00589
3630.02327,0.00621
3627.96310,0.00634
3625.90293,0.00647
3623.84275,0.00701
3621.78258,0.00768
3619.72241,0.00777
3617.66224,0.00736
3615.60207,0.00737
3613.54189,0.00799
3611.48172,0.00872
3609.42155,0.00929
3607.36138,0.00953
3605.30120,0.00956
3603.24103,0.00979
3601.18086,0.01014
3599.12069,0.01029
3597.06052,0.01026
3595.00034,0.01045
3592.94017,0.01109
3590.88000,0.01185
3588.81983,0.01233
3586.75966,0.01271
3584.69948,0.01328
3582.63931,0.01379
3580.57914,0.01396
3578.51897,0.01394
3576.45879,0.01418
3574.39862,0.01460
3572.33845,0.01478
3570.27828,0.01500
3568.21811,0.01563
3566.15793,0.01620
3564.09776,0.01621
3562.03759,0.01624
3559.97742,0.01668
3557.91725,0.01713
3555.85707,0.01724
3553.79690,0.01720
3551.73673,0.01727
3549.67656,0.01731
3547.61639,0.01735
3545.55621,0.01791
3543.49604,0.01888
3541.43587,0.01967
3539.37570,0.02026
3537.31552,0.02066
3535.25535,0.02072
3533.19518,0.02068
3531.13501,0.02088
3529.07484,0.02116
3527.01466,0.02124
3524.95449,0.02131
3522.89432,0.02150
3520.83415,0.02156
3518.77398,0.02156
3516.71380,0.02196
3514.65363,0.02282
3512.59346,0.02352
3510.53329,0.02358
3508.47312,0.02337
3506.41294,0.02338
3504.35277,0.02367
3502.29260,0.02410
3500.23243,0.02457
3498.17225,0.02495
3496.11208,0.02521
3494.05191,0.02554
3491.99174,0.02593
3489.93157,0.02600
3487.87139,0.02584
3485.81122,0.02597
3483.75105,0.02634
3481.69088,0.02664
3479.63071,0.02709
3477.57053,0.02762
3475.51036,0.02781
3473.45019,0.02783
3471.39002,0.02807
3469.32984,0.02835
3467.26967,0.02851
3465.20950,0.02865
3463.14933,0.02879
3461.08916,0.02907
3459.02898,0.02964
3456.96881,0.03026
3454.90864,0.03055
3452.84847,0.03041
3450.78830,0.03014
3448.72812,0.03013
3446.66795,0.03043
3444.60778,0.03080
3442.54761,0.03126
3440.48744,0.03176
3438.42726,0.03208
3436.36709,0.03239
3434.30692,0.03266
3432.24675,0.03261
3430.18657,0.03256
3428.12640,0.03277
3426.06623,0.03301
3424.00606,0.03324
3421.94589,0.03356
3419.88571,0.03377
3417.82554,0.03367
3415.76537,0.03348
3413.70520,0.03352
3411.64503,0.03375
3409.58485,0.03407
3407.52468,0.03435
3405.46451,0.03437
3403.40434,0.03431
3401.34416,0.03444
3399.28399,0.03478
3397.22382,0.03499
3395.16365,0.03501
3393.10348,0.03501
3391.04330,0.03509
3388.98313,0.03504
3386.92296,0.03511
3384.86279,0.03547
3382.80262,0.03574
3380.74244,0.03588
3378.68227,0.03601
3376.62210,0.03598
3374.56193,0.03589
3372.50176,0.03593
3370.44158,0.03626
3368.38141,0.03668
3366.32124,0.03680
3364.26107,0.03668
3362.20089,0.03691
3360.14072,0.03762
3358.08055,0.03799
3356.02038,0.03777
3353.96021,0.03759
3351.90003,0.03763
3349.83986,0.03765
3347.77969,0.03763
3345.71952,0.03761
3343.65935,0.03764
3341.59917,0.03773
3339.53900,0.03767
3337.47883,0.03739
3335.41866,0.03719
3333.35849,0.03733
3331.29831,0.03777
3329.23814,0.03827
3327.17797,0.03846
3325.11780,0.03822
3323.05762,0.03789
3320.99745,0.03772
3318.93728,0.03773
3316.87711,0.03769
3314.81694,0.03768
3312.75676,0.03785
3310.69659,0.03795
3308.63642,0.03789
3306.57625,0.03787
3304.51608,0.03782
3302.45590,0.03757
3300.39573,0.03754
3298.33556,0.03798
3296.27539,0.03829
3294.21521,0.03827
3292.15504,0.03847
3290.09487,0.03891
3288.03470,0.03913
3285.97453,0.03903
3283.91435,0.03869
3281.85418,0.03817
3279.79401,0.03790
3277.73384,0.03820
3275.67367,0.03859
3273.61349,0.03872
3271.55332,0.03876
3269.49315,0.03878
3267.43298,0.03880
3265.37281,0.03896
3263.31263,0.03919
3261.25246,0.03923
3259.19229,0.03904
3257.13212,0.03878
3255.07194,0.03864
3253.01177,0.03865
3250.95160,0.03871
3248.89143,0.03882
3246.83126,0.03911
3244.77108,0.03949
3242.71091,0.03962
3240.65074,0.03935
3238.59057,0.03894
3236.53040,0.03891
3234.47022,0.03932
3232.41005,0.03961
3230.34988,0.03930
3228.28971,0.03876
3226.22954,0.03860
3224.16936,0.03871
3222.10919,0.03878
3220.04902,0.03900
3217.98885,0.03938
3215.92867,0.03948
3213.86850,0.03932
3211.80833,0.03922
3209.74816,0.03910
3207.68799,0.03898
3205.62781,0.03887
3203.56764,0.03865
3201.50747,0.03855
3199.44730,0.03869
3197.38713,0.03870
3195.32695,0.03856
3193.26678,0.03863
3191.20661,0.03867
3189.14644,0.03827
3187.08626,0.03770
3185.02609,0.03752
3182.96592,0.03789
3180.90575,0.03824
3178.84558,0.03811
3176.78540,0.03786
3174.72523,0.03781
3172.66506,0.03762
3170.60489,0.03731
3168.54472,0.03720
3166.48454,0.03725
3164.42437,0.03716
3162.36420,0.03687
3160.30403,0.03667
3158.24386,0.03684
3156.18368,0.03711
3154.12351,0.03713
3152.06334,0.03701
3150.00317,0.03689
3147.94299,0.03673
3145.88282,0.03655
3143.82265,0.03636
3141.76248,0.03629
3139.70231,0.03639
3137.64213,0.03630
3135.58196,0.03576
3133.52179,0.03521
3131.46162,0.03518
3129.40145,0.03543
3127.34127,0.03541
3125.28110,0.03511
3123.22093,0.03472
3121.16076,0.03441
3119.10058,0.03436
3117.04041,0.03452
3114.98024,0.03466
3112.92007,0.03465
3110.85990,0.03459
3108.79972,0.03462
3106.73955,0.03451
3104.67938,0.03403
3102.61921,0.03364
3100.55904,0.03354
3098.49886,0.03335
3096.43869,0.03315
3094.37852,0.03312
3092.31835,0.03300
3090.25818,0.03265
3088.19800,0.03237
3086.13783,0.03239
3084.07766,0.03243
3082.01749,0.03221
3079.95731,0.03200
3077.89714,0.03197
3075.83697,0.03190
3073.77680,0.03181
3071.71663,0.03169
3069.65645,0.03144
3067.59628,0.03127
3065.53611,0.03106
3063.47594,0.03084
3061.41577,0.03087
3059.35559,0.03094
3057.29542,0.03067
3055.23525,0.03013
3053.17508,0.02974
3051.11491,0.02964
3049.05473,0.02962
3046.99456,0.02945
3044.93439,0.02925
3042.87422,0.02927
3040.81404,0.02940
3038.75387,0.02934
3036.69370,0.02904
3034.63353,0.02862
3032.57336,0.02842
3030.51318,0.02837
3028.45301,0.02805
3026.39284,0.02771
3024.33267,0.02761
3022.27250,0.02758
3020.21232,0.02754
3018.15215,0.02751
3016.09198,0.02751
3014.03181,0.02744
3011.97163,0.02712
3009.91146,0.02673
3007.85129,0.02651
3005.79112,0.02643
3003.73095,0.02643
3001.67077,0.02643
2999.61060,0.02624
2997.55043,0.02587
2995.49026,0.02549
2993.43009,0.02536
2991.36991,0.02535
2989.30974,0.02518
2987.24957,0.02497
2985.18940,0.02486
2983.12923,0.02472
2981.06905,0.02444
2979.00888,0.02424
2976.94871,0.02433
2974.88854,0.02454
2972.82836,0.02469
2970.76819,0.02464
2968.70802,0.02438
2966.64785,0.02409
2964.58768,0.02390
2962.52750,0.02390
2960.46733,0.02409
2958.40716,0.02420
2956.34699,0.02410
2954.28682,0.02397
2952.22664,0.02382
2950.16647,0.02361
2948.10630,0.02347
2946.04613,0.02334
2943.98596,0.02319
2941.92578,0.02334
2939.86561,0.02364
2937.80544,0.02369
2935.74527,0.02358
2933.68509,0.02350
2931.62492,0.02342
2929.56475,0.02334
2927.50458,0.02334
2925.44441,0.02332
2923.38423,0.02328
2921.32406,0.02322
2919.26389,0.02314
2917.20372,0.02308
2915.14355,0.02292
2913.08337,0.02265
2911.02320,0.02250
2908.96303,0.02254
2906.90286,0.02252
2904.84268,0.02228
2902.78251,0.02186
2900.72234,0.02153
2898.66217,0.02148
2896.60200,0.02176
2894.54182,0.02204
2892.48165,0.02197
2890.42148,0.02177
2888.36131,0.02160
2886.30114,0.02139
2884.24096,0.02105
2882.18079,0.02075
2880.12062,0.02063
2878.06045,0.02068
2876.00028,0.02080
2873.94010,0.02072
2871.87993,0.02044
2869.81976,0.02039
2867.75959,0.02046
2865.69941,0.02029
2863.63924,0.02005
2861.57907,0.01987
2859.51890,0.01974
2857.45873,0.01979
2855.39855,0.01999
2853.33838,0.02017
2851.27821,0.02005
2849.21804,0.01967
2847.15787,0.01936
2845.09769,0.01920
2843.03752,0.01911
2840.97735,0.01908
2838.91718,0.01901
2836.85700,0.01893
2834.79683,0.01896
2832.73666,0.01903
2830.67649,0.01895
2828.61632,0.01881
2826.55614,0.01871
2824.49597,0.01865
2822.43580,0.01865
2820.37563,0.01858
2818.31546,0.01836
2816.25528,0.01812
2814.19511,0.01796
2812.13494,0.01775
2810.07477,0.01741
2808.01460,0.01725
2805.95442,0.01732
2803.89425,0.01735
2801.83408,0.01728
2799.77391,0.01725
2797.71373,0.01729
2795.65356,0.01733
2793.59339,0.01723
2791.53322,0.01706
2789.47305,0.01698
2787.41287,0.01697
2785.35270,0.01690
2783.29253,0.01668
2781.23236,0.01651
2779.17219,0.01652
2777.11201,0.01659
2775.05184,0.01659
2772.99167,0.01646
2770.93150,0.01621
2768.87133,0.01593
2766.81115,0.01570
2764.75098,0.01572
2762.69081,0.01582
2760.63064,0.01574
2758.57046,0.01561
2756.51029,0.01554
2754.45012,0.01538
2752.38995,0.01519
2750.32978,0.01516
2748.26960,0.01521
2746.20943,0.01523
2744.14926,0.01526
2742.08909,0.01528
2740.02892,0.01528
2737.96874,0.01521
2735.90857,0.01500
2733.84840,0.01484
2731.78823,0.01483
2729.72805,0.01475
2727.66788,0.01452
2725.60771,0.01435
2723.54754,0.01442
2721.48737,0.01447
2719.42719,0.01436
2717.36702,0.01427
2715.30685,0.01437
2713.24668,0.01460
2711.18651,0.01468
2709.12633,0.01434
2707.06616,0.01385
2705.00599,0.01365
2702.94582,0.01356
2700.88565,0.01329
2698.82547,0.01316
2696.76530,0.01329
2694.70513,0.01332
2692.64496,0.01321
2690.58478,0.01305
2688.52461,0.01289
2686.46444,0.01282
2684.40427,0.01287
2682.34410,0.01283
2680.28392,0.01250
2678.22375,0.01219
2676.16358,0.01231
2674.10341,0.01255
2672.04324,0.01260
2669.98306,0.01258
2667.92289,0.01243
2665.86272,0.01216
2663.80255,0.01198
2661.74238,0.01179
2659.68220,0.01156
2657.62203,0.01149
2655.56186,0.01146
2653.50169,0.01140
2651.44151,0.01143
2649.38134,0.01147
2647.32117,0.01131
2645.26100,0.01103
2643.20083,0.01096
2641.14065,0.01109
2639.08048,0.01104
2637.02031,0.01085
2634.96014,0.01069
2632.89997,0.01057
2630.83979,0.01047
2628.77962,0.01030
2626.71945,0.01020
2624.65928,0.01008
2622.59910,0.00985
2620.53893,0.00971
2618.47876,0.00952
2616.41859,0.00935
2614.35842,0.00949
2612.29824,0.00974
2610.23807,0.00983
2608.17790,0.00993
2606.11773,0.00978
2604.05756,0.00934
2601.99738,0.00942
2599.93721,0.00989
2597.87704,0.01002
2595.81687,0.01003
2593.75670,0.00998
2591.69652,0.00952
2589.63635,0.00906
2587.57618,0.00900
2585.51601,0.00907
2583.45583,0.00912
2581.39566,0.00896
2579.33549,0.00876
2577.27532,0.00893
2575.21515,0.00912
2573.15497,0.00888
2571.09480,0.00858
2569.03463,0.00849
2566.97446,0.00862
2564.91429,0.00870
2562.85411,0.00864
2560.79394,0.00869
2558.73377,0.00869
2556.67360,0.00858
2554.61342,0.00863
2552.55325,0.00875
2550.49308,0.00876
2548.43291,0.00891
2546.37274,0.00897
2544.31256,0.00860
2542.25239,0.00835
2540.19222,0.00858
2538.13205,0.00882
2536.07188,0.00879
2534.01170,0.00882
2531.95153,0.00898
2529.89136,0.00913
2527.83119,0.00930
2525.77102,0.00939
2523.71084,0.00934
2521.65067,0.00921
2519.59050,0.00913
2517.53033,0.00918
2515.47015,0.00949
2513.40998,0.00989
2511.34981,0.00995
2509.28964,0.00978
2507.22947,0.00968
2505.16929,0.00942
2503.10912,0.00907
2501.04895,0.00917
2498.98878,0.00960
2496.92861,0.00991
2494.86843,0.01002
2492.80826,0.00989
2490.74809,0.00958
2488.68792,0.00943
2486.62775,0.00941
2484.56757,0.00927
2482.50740,0.00934
2480.44723,0.00976
2478.38706,0.00983
2476.32688,0.00945
2474.26671,0.00942
2472.20654,0.00990
2470.14637,0.01019
2468.08620,0.01012
2466.02602,0.01009
2463.96585,0.01028
2461.90568,0.01056
2459.84551,0.01071
2457.78534,0.01073
2455.72516,0.01055
2453.66499,0.01018
2451.60482,0.01009
2449.54465,0.01030
2447.48447,0.01038
2445.42430,0.01018
2443.36413,0.00989
2441.30396,0.00979
2439.24379,0.01015
2437.18361,0.01058
2435.12344,0.01051
2433.06327,0.01023
2431.00310,0.01045
2428.94293,0.01088
2426.88275,0.01094
2424.82258,0.01086
2422.76241,0.01080
2420.70224,0.01055
2418.64207,0.01033
2416.58189,0.01040
2414.52172,0.01052
2412.46155,0.01044
2410.40138,0.01022
2408.34120,0.01014
2406.28103,0.01031
2404.22086,0.01057
2402.16069,0.01072
2400.10052,0.01072
2398.04034,0.01045
2395.98017,0.01015
2393.92000,0.01014
2391.85983,0.01025
2389.79966,0.01033
2387.73948,0.01059
2385.67931,0.01098
2383.61914,0.01106
2381.55897,0.01080
2379.49880,0.01068
2377.43862,0.01093
2375.37845,0.01145
2373.31828,0.01237
2371.25811,0.01300
2369.19793,0.01230
2367.13776,0.01088
2365.07759,0.01053
2363.01742,0.01074
2360.95725,0.00888
2358.89707,0.00466
2356.83690,0.00425
2354.77673,0.00708
2352.71656,0.00868
2350.65639,0.01015
2348.59621,0.01121
2346.53604,0.00999
2344.47587,0.00958
2342.41570,0.00995
2340.35552,0.01092
2338.29535,0.01161
2336.23518,0.01152
2334.17501,0.01127
2332.11484,0.01014
2330.05466,0.00819
2327.99449,0.00701
2325.93432,0.00787
2323.87415,0.00895
2321.81398,0.00931
2319.75380,0.00920
2317.69363,0.00970
2315.63346,0.01027
2313.57329,0.01041
2311.51312,0.01011
2309.45294,0.00986
2307.39277,0.01001
2305.33260,0.01030
2303.27243,0.01050
2301.21225,0.01029
2299.15208,0.00975
2297.09191,0.00931
2295.03174,0.00915
2292.97157,0.00899
2290.91139,0.00892
2288.85122,0.00921
2286.79105,0.00963
2284.73088,0.00989
2282.67071,0.00997
2280.61053,0.00975
2278.55036,0.00924
2276.49019,0.00881
2274.43002,0.00864
2272.36984,0.00871
2270.30967,0.00891
2268.24950,0.00872
2266.18933,0.00800
2264.12916,0.00737
2262.06898,0.00750
2260.00881,0.00823
2257.94864,0.00859
2255.88847,0.00825
2253.82830,0.00803
2251.76812,0.00826
2249.70795,0.00846
2247.64778,0.00812
2245.58761,0.00730
2243.52744,0.00699
2241.46726,0.00768
2239.40709,0.00829
2237.34692,0.00801
2235.28675,0.00756
2233.22657,0.00736
2231.16640,0.00668
2229.10623,0.00573
2227.04606,0.00545
2224.98589,0.00609
2222.92571,0.00705
2220.86554,0.00702
2218.80537,0.00602
2216.74520,0.00510
2214.68503,0.00526
2212.62485,0.00665
2210.56468,0.00756
2208.50451,0.00678
2206.44434,0.00537
2204.38417,0.00459
2202.32399,0.00493
2200.26382,0.00629
2198.20365,0.00745
2196.14348,0.00754
2194.08330,0.00680
2192.02313,0.00608
2189.96296,0.00598
2187.90279,0.00584
2185.84262,0.00553
2183.78244,0.00477
2181.72227,0.00426
2179.66210,0.00571
2177.60193,0.00720
2175.54176,0.00689
2173.48158,0.00612
2171.42141,0.00511
2169.36124,0.00350
2167.30107,0.00266
2165.24089,0.00354
2163.18072,0.00453
2161.12055,0.00469
2159.06038,0.00524
2157.00021,0.00547
2154.94003,0.00439
2152.87986,0.00396
2150.81969,0.00489
2148.75952,0.00558
2146.69935,0.00525
2144.63917,0.00467
2142.57900,0.00484
2140.51883,0.00542
2138.45866,0.00554
2136.39849,0.00490
2134.33831,0.00481
2132.27814,0.00578
2130.21797,0.00577
2128.15780,0.00526
2126.09762,0.00547
2124.03745,0.00540
2121.97728,0.00518
2119.91711,0.00536
2117.85694,0.00509
2115.79676,0.00476
2113.73659,0.00505
2111.67642,0.00523
2109.61625,0.00508
2107.55608,0.00503
2105.49590,0.00507
2103.43573,0.00508
2101.37556,0.00490
2099.31539,0.00463
2097.25521,0.00461
2095.19504,0.00482
2093.13487,0.00506
2091.07470,0.00478
2089.01453,0.00429
2086.95435,0.00431
2084.89418,0.00416
2082.83401,0.00373
2080.77384,0.00396
2078.71367,0.00465
2076.65349,0.00482
2074.59332,0.00441
2072.53315,0.00428
2070.47298,0.00443
2068.41281,0.00429
2066.35263,0.00414
2064.29246,0.00400
2062.23229,0.00394
2060.17212,0.00417
2058.11194,0.00428
2056.05177,0.00442
2053.99160,0.00467
2051.93143,0.00410
2049.87126,0.00287
2047.81108,0.00271
2045.75091,0.00341
2043.69074,0.00307
2041.63057,0.00211
2039.57040,0.00194
2037.51022,0.00294
2035.45005,0.00458
2033.38988,0.00513
2031.32971,0.00379
2029.26954,0.00229
2027.20936,0.00193
2025.14919,0.00214
2023.08902,0.00238
2021.02885,0.00251
2018.96867,0.00250
2016.90850,0.00207
2014.84833,0.00076
2012.78816,0.00000
2010.72799,0.00110
2008.66781,0.00291
2006.60764,0.00379
2004.54747,0.00341
2002.48730,0.00290
2000.42713,0.00318
1998.36695,0.00358
1996.30678,0.00331
1994.24661,0.00339
1992.18644,0.00466
1990.12626,0.00607
1988.06609,0.00600
1986.00592,0.00424
1983.94575,0.00313
1981.88558,0.00410
1979.82540,0.00445
1977.76523,0.00282
1975.70506,0.00163
1973.64489,0.00194
1971.58472,0.00301
1969.52454,0.00337
1967.46437,0.00199
1965.40420,0.00055
1963.34403,0.00096
1961.28386,0.00199
1959.22368,0.00235
1957.16351,0.00271
1955.10334,0.00315
1953.04317,0.00325
1950.98299,0.00345
1948.92282,0.00369
1946.86265,0.00337
1944.80248,0.00302
1942.74231,0.00316
1940.68213,0.00326
1938.62196,0.00324
1936.56179,0.00359
1934.50162,0.00393
1932.44145,0.00374
1930.38127,0.00345
1928.32110,0.00312
1926.26093,0.00263
1924.20076,0.00275
1922.14059,0.00368
1920.08041,0.00435
1918.02024,0.00404
1915.96007,0.00348
1913.89990,0.00324
1911.83972,0.00294
1909.77955,0.00250
1907.71938,0.00245
1905.65921,0.00290
1903.59904,0.00328
1901.53886,0.00313
1899.47869,0.00267
1897.41852,0.00238
1895.35835,0.00262
1893.29818,0.00341
1891.23800,0.00398
1889.17783,0.00390
1887.11766,0.00373
1885.05749,0.00376
1882.99731,0.00381
1880.93714,0.00381
1878.87697,0.00376
1876.81680,0.00372
1874.75663,0.00376
1872.69645,0.00366
1870.63628,0.00311
1868.57611,0.00256
1866.51594,0.00284
1864.45577,0.00361
1862.39559,0.00408
1860.33542,0.00425
1858.27525,0.00428
1856.21508,0.00403
1854.15491,0.00369
1852.09473,0.00353
1850.03456,0.00340
1847.97439,0.00319
1845.91422,0.00319
1843.85404,0.00348
1841.79387,0.00384
1839.73370,0.00419
1837.67353,0.00441
1835.61336,0.00434
1833.55318,0.00404
1831.49301,0.00382
1829.43284,0.00404
1827.37267,0.00460
1825.31250,0.00490
1823.25232,0.00479
1821.19215,0.00464
1819.13198,0.00462
1817.07181,0.00465
1815.01163,0.00468
1812.95146,0.00468
1810.89129,0.00450
1808.83112,0.00428
1806.77095,0.00434
1804.71077,0.00451
1802.65060,0.00444
1800.59043,0.00421
1798.53026,0.00413
1796.47009,0.00424
1794.40991,0.00423
1792.34974,0.00403
1790.28957,0.00423
1788.22940,0.00480
1786.16923,0.00513
1784.10905,0.00522
1782.04888,0.00527
1779.98871,0.00521
1777.92854,0.00498
1775.86836,0.00457
1773.80819,0.00405
1771.74802,0.00391
1769.68785,0.00436
1767.62768,0.00487
1765.56750,0.00510
1763.50733,0.00506
1761.44716,0.00494
1759.38699,0.00507
1757.32682,0.00547
1755.26664,0.00572
1753.20647,0.00553
1751.14630,0.00531
1749.08613,0.00550
1747.02596,0.00577
1744.96578,0.00565
1742.90561,0.00544
1740.84544,0.00554
1738.78527,0.00587
1736.72509,0.00603
1734.66492,0.00589
1732.60475,0.00569
1730.54458,0.00574
1728.48441,0.00601
1726.42423,0.00626
1724.36406,0.00638
1722.30389,0.00638
1720.24372,0.00621
1718.18355,0.00599
1716.12337,0.00616
1714.06320,0.00665
1712.00303,0.00710
1709.94286,0.00744
1707.88268,0.00758
1705.82251,0.00760
1703.76234,0.00781
1701.70217,0.00810
1699.64200,0.00818
1697.58182,0.00817
1695.52165,0.00848
1693.46148,0.00906
1691.40131,0.00954
1689.34114,0.00978
1687.28096,0.00990
1685.22079,0.01018
1683.16062,0.01083
1681.10045,0.01149
1679.04028,0.01182
1676.98010,0.01179
1674.91993,0.01167
1672.85976,0.01177
1670.79959,0.01205
1668.73941,0.01236
1666.67924,0.01259
1664.61907,0.01267
1662.55890,0.01269
1660.49873,0.01283
1658.43855,0.01312
1656.37838,0.01328
1654.31821,0.01305
1652.25804,0.01266
1650.19787,0.01262
1648.13769,0.01269
1646.07752,0.01272
1644.01735,0.01273
1641.95718,0.01263
1639.89701,0.01244
1637.83683,0.01226
1635.77666,0.01213
1633.71649,0.01208
1631.65632,0.01200
1629.59614,0.01173
1627.53597,0.01139
1625.47580,0.01104
1623.41563,0.01058
1621.35546,0.01030
1619.29528,0.01029
1617.23511,0.01021
1615.17494,0.01007
1613.11477,0.00999
1611.05460,0.00982
1608.99442,0.00951
1606.93425,0.00907
1604.87408,0.00852
1602.81391,0.00806
1600.75373,0.00788
1598.69356,0.00784
1596.63339,0.00776
1594.57322,0.00762
1592.51305,0.00746
1590.45287,0.00733
1588.39270,0.00723
1586.33253,0.00718
1584.27236,0.00711
1582.21219,0.00690
1580.15201,0.00661
1578.09184,0.00633
1576.03167,0.00613
1573.97150,0.00600
1571.91133,0.00570
1569.85115,0.00530
1567.79098,0.00524
1565.73081,0.00548
1563.67064,0.00560
1561.61046,0.00528
1559.55029,0.00463
1557.49012,0.00457
1555.42995,0.00505
1553.36978,0.00517
1551.30960,0.00484
1549.24943,0.00450
1547.18926,0.00436
1545.12909,0.00418
1543.06892,0.00360
1541.00874,0.00283
1538.94857,0.00279
1536.88840,0.00334
1534.82823,0.00366
1532.76805,0.00373
1530.70788,0.00367
1528.64771,0.00340
1526.58754,0.00308
1524.52737,0.00289
1522.46719,0.00272
1520.40702,0.00259
1518.34685,0.00262
1516.28668,0.00284
1514.22651,0.00317
1512.16633,0.00329
1510.10616,0.00299
1508.04599,0.00247
1505.98582,0.00233
1503.92565,0.00261
1501.86547,0.00277
1499.80530,0.00254
1497.74513,0.00216
1495.68496,0.00206
1493.62478,0.00220
1491.56461,0.00224
1489.50444,0.00217
1487.44427,0.00220
1485.38410,0.00235
1483.32392,0.00239
1481.26375,0.00232
1479.20358,0.00228
1477.14341,0.00220
1475.08324,0.00197
1473.02306,0.00186
1470.96289,0.00205
1468.90272,0.00227
1466.84255,0.00227
1464.78238,0.00209
1462.72220,0.00200
1460.66203,0.00204
1458.60186,0.00211
1456.54169,0.00217
1454.48151,0.00220
1452.42134,0.00215
1450.36117,0.00198
1448.30100,0.00177
1446.24083,0.00167
1444.18065,0.00167
1442.12048,0.00168
1440.06031,0.00162
1438.00014,0.00151
1435.93997,0.00153
1433.87979,0.00165
1431.81962,0.00165
1429.75945,0.00153
1427.69928,0.00141
1425.63910,0.00133
1423.57893,0.00129
1421.51876,0.00128
1419.45859,0.00131
1417.39842,0.00137
1415.33824,0.00144
1413.27807,0.00149
1411.21790,0.00149
1409.15773,0.00137
1407.09756,0.00119
1405.03738,0.00103
1402.97721,0.00096
1400.91704,0.00100
1398.85687,0.00103
1396.79670,0.00104
1394.73652,0.00104
1392.67635,0.00102
1390.61618,0.00103
1388.55601,0.00106
1386.49583,0.00111
1384.43566,0.00117
1382.37549,0.00116
1380.31532,0.00105
1378.25515,0.00091
1376.19497,0.00084
1374.13480,0.00088
1372.07463,0.00105
1370.01446,0.00120
1367.95429,0.00126
1365.89411,0.00121
1363.83394,0.00109
1361.77377,0.00100
1359.71360,0.00092
1357.65343,0.00078
1355.59325,0.00071
1353.53308,0.00078
1351.47291,0.00090
1349.41274,0.00096
1347.35256,0.00091
1345.29239,0.00083
1343.23222,0.00082
1341.17205,0.00089
1339.11188,0.00104
1337.05170,0.00122
1334.99153,0.00125
1332.93136,0.00111
1330.87119,0.00106
1328.81102,0.00114
1326.75084,0.00117
1324.69067,0.00107
1322.63050,0.00094
1320.57033,0.00097
1318.51015,0.00109
1316.44998,0.00113
1314.38981,0.00113
1312.32964,0.00115
1310.26947,0.00119
1308.20929,0.00124
1306.14912,0.00128
1304.08895,0.00129
1302.02878,0.00132
1299.96861,0.00135
1297.90843,0.00134
1295.84826,0.00142
1293.78809,0.00155
1291.72792,0.00153
1289.66775,0.00147
1287.60757,0.00153
1285.54740,0.00166
1283.48723,0.00176
1281.42706,0.00183
1279.36688,0.00186
1277.30671,0.00181
1275.24654,0.00176
1273.18637,0.00177
1271.12620,0.00180
1269.06602,0.00179
1267.00585,0.00172
1264.94568,0.00170
1262.88551,0.00176
1260.82534,0.00180
1258.76516,0.00174
1256.70499,0.00163
1254.64482,0.00153
1252.58465,0.00145
1250.52447,0.00137
1248.46430,0.00136
1246.40413,0.00139
1244.34396,0.00137
1242.28379,0.00132
1240.22361,0.00121
1238.16344,0.00104
1236.10327,0.00088
1234.04310,0.00076
1231.98293,0.00066
1229.92275,0.00052
1227.86258,0.00049
1225.80241,0.00062
1223.74224,0.00067
1221.68207,0.00058
1219.62189,0.00046
1217.56172,0.00038
1215.50155,0.00031
1213.44138,0.00039
1211.38120,0.00059
1209.32103,0.00054
1207.26086,0.00029
1205.20069,0.00014
1203.14052,0.00007
1201.08034,0.00000
1199.02017,0.00012
1196.96000,0.00046
1194.89983,0.00079
1192.83966,0.00108
1190.77948,0.00137
1188.71931,0.00172
1186.65914,0.00202
1184.59897,0.00217
1182.53880,0.00240
1180.47862,0.00283
1178.41845,0.00346
1176.35828,0.00408
1174.29811,0.00439
1172.23793,0.00464
1170.17776,0.00523
1168.11759,0.00592
1166.05742,0.00642
1163.99725,0.00692
1161.93707,0.00759
1159.87690,0.00818
1157.81673,0.00847
1155.75656,0.00875
1153.69639,0.00917
1151.63621,0.00961
1149.57604,0.00996
1147.51587,0.01038
1145.45570,0.01097
1143.39552,0.01168
1141.33535,0.01253
1139.27518,0.01333
1137.21501,0.01382
1135.15484,0.01422
1133.09466,0.01482
1131.03449,0.01551
1128.97432,0.01615
1126.91415,0.01685
1124.85398,0.01760
1122.79380,0.01837
1120.73363,0.01921
1118.67346,0.02013
1116.61329,0.02096
1114.55312,0.02165
1112.49294,0.02235
1110.43277,0.02307
1108.37260,0.02378
1106.31243,0.02455
1104.25225,0.02532
1102.19208,0.02600
1100.13191,0.02693
1098.07174,0.02807
1096.01157,0.02900
1093.95139,0.02970
1091.89122,0.03023
1089.83105,0.03067
1087.77088,0.03123
1085.71071,0.03190
1083.65053,0.03251
1081.59036,0.03296
1079.53019,0.03329
1077.47002,0.03380
1075.40985,0.03454
1073.34967,0.03497
1071.28950,0.03488
1069.22933,0.03471
1067.16916,0.03483
1065.10898,0.03511
1063.04881,0.03524
1060.98864,0.03497
1058.92847,0.03450
1056.86830,0.03403
1054.80812,0.03339
1052.74795,0.03267
1050.68778,0.03226
1048.62761,0.03195
1046.56744,0.03127
1044.50726,0.03029
1042.44709,0.02921
1040.38692,0.02827
1038.32675,0.02761
1036.26657,0.02688
1034.20640,0.02584
1032.14623,0.02476
1030.08606,0.02394
1028.02589,0.02329
1025.96571,0.02258
1023.90554,0.02184
1021.84537,0.02135
1019.78520,0.02101
1017.72503,0.02055
1015.66485,0.02008
1013.60468,0.01998
1011.54451,0.02017
1009.48434,0.02020
1007.42417,0.02006
1005.36399,0.02002
1003.30382,0.02019
1001.24365,0.02048
999.18348,0.02077
997.12330,0.02110
995.06313,0.02157
993.00296,0.02226
990.94279,0.02290
988.88262,0.02329
986.82244,0.02381
984.76227,0.02449
982.70210,0.02475
980.64193,0.02441
978.58176,0.02397
976.52158,0.02359
974.46141,0.02290
972.40124,0.02191
970.34107,0.02103
968.28089,0.02025
966.22072,0.01942
964.16055,0.01867
962.10038,0.01803
960.04021,0.01743
957.98003,0.01679
955.91986,0.01602
953.85969,0.01525
951.79952,0.01487
949.73935,0.01501
947.67917,0.01515
945.61900,0.01483
943.55883,0.01445
941.49866,0.01452
939.43849,0.01475
937.37831,0.01486
935.31814,0.01496
933.25797,0.01489
931.19780,0.01469
929.13762,0.01462
927.07745,0.01471
925.01728,0.01484
922.95711,0.01460
920.89694,0.01387
918.83676,0.01314
916.77659,0.01278
914.71642,0.01272
912.65625,0.01261
910.59608,0.01218
908.53590,0.01158
906.47573,0.01133
904.41556,0.01148
902.35539,0.01171
900.29522,0.01185
898.23504,0.01171
896.17487,0.01139
894.11470,0.01131
892.05453,0.01146
889.99435,0.01136
887.93418,0.01128
885.87401,0.01167
883.81384,0.01203
881.75367,0.01202
879.69349,0.01220
877.63332,0.01260
875.57315,0.01269
873.51298,0.01270
871.45281,0.01300
869.39263,0.01334
867.33246,0.01359
865.27229,0.01388
863.21212,0.01399
861.15194,0.01370
859.09177,0.01327
857.03160,0.01293
854.97143,0.01272
852.91126,0.01261
850.85108,0.01238
848.79091,0.01205
846.73074,0.01203
844.67057,0.01209
842.61040,0.01153
840.55022,0.01055
838.49005,0.00996
836.42988,0.00985
834.36971,0.00960
832.30954,0.00901
830.24936,0.00834
828.18919,0.00798
826.12902,0.00783
824.06885,0.00773
822.00867,0.00766
819.94850,0.00712
817.88833,0.00593
815.82816,0.00524
813.76799,0.00559
811.70781,0.00601
809.64764,0.00586
807.58747,0.00553
805.52730,0.00529
803.46713,0.00500
801.40695,0.00473
799.34678,0.00460
797.28661,0.00449
795.22644,0.00418
793.16627,0.00373
791.10609,0.00347
789.04592,0.00333
786.98575,0.00324
784.92558,0.00324
782.86540,0.00331
780.80523,0.00345
778.74506,0.00331
776.68489,0.00300
774.62472,0.00281
772.56454,0.00243
770.50437,0.00206
768.44420,0.00225
766.38403,0.00305
764.32386,0.00384
762.26368,0.00391
760.20351,0.00330
758.14334,0.00263
756.08317,0.00235
754.02299,0.00245
751.96282,0.00262
749.90265,0.00249
747.84248,0.00202
745.78231,0.00147
743.72213,0.00080
741.66196,0.00041
739.60179,0.00110
737.54162,0.00246
735.48145,0.00324
733.42127,0.00297
731.36110,0.00251
729.30093,0.00268
727.24076,0.00269
725.18059,0.00193
723.12041,0.00144
721.06024,0.00147
719.00007,0.00217
716.93990,0.00286
714.87972,0.00320
712.81955,0.00330
710.75938,0.00313
708.69921,0.00254
706.63904,0.00187
704.57886,0.00183
702.51869,0.00232
700.45852,0.00265
698.39835,0.00272
696.33818,0.00252
694.27800,0.00190
692.21783,0.00140
690.15766,0.00189
688.09749,0.00289
686.03731,0.00308
683.97714,0.00232
681.91697,0.00147
679.85680,0.00111
677.79663,0.00124
675.73645,0.00167
673.67628,0.00290
671.61611,0.00477
669.55594,0.00352
667.49577,0.00101
665.43559,0.00283
663.37542,0.00222
661.31525,0.00197
659.25508,0.00251
657.19491,0.00287
655.13473,0.00293
653.07456,0.00286
651.01439,0.00270
648.95422,0.00290
646.89404,0.00408
644.83387,0.00519
642.77370,0.00511
640.71353,0.00378
638.65336,0.00249
636.59318,0.00256
634.53301,0.00338
632.47284,0.00353
630.41267,0.00327
628.35250,0.00351
626.29232,0.00423
624.23215,0.00436
622.17198,0.00273
620.11181,0.00088
618.05164,0.00089
615.99146,0.00155
613.93129,0.00134
611.87112,0.00064
609.81095,0.00147
607.75077,0.00356
605.69060,0.00425
603.63043,0.00365
601.57026,0.00195
599.51009,0.00000
