3996.73391,0.00049
3994.67373,0.00031
3992.61356,0.00010
3990.55339,0.00000
3988.49322,0.00011
3986.43305,0.00048
3984.37287,0.00086
3982.31270,0.00084
3980.25253,0.00060
3978.19236,0.00070
3976.13219,0.00110
3974.07201,0.00121
3972.01184,0.00092
3969.95167,0.00066
3967.89150,0.00059
3965.83133,0.00061
3963.77115,0.00070
3961.71098,0.00086
3959.65081,0.00079
3957.59064,0.00049
3955.53046,0.00033
3953.47029,0.00046
3951.41012,0.00067
3949.34995,0.00083
3947.28978,0.00096
3945.22960,0.00094
3943.16943,0.00083
3941.10926,0.00097
3939.04909,0.00136
3936.98892,0.00153
3934.92874,0.00146
3932.86857,0.00149
3930.80840,0.00148
3928.74823,0.00115
3926.68805,0.00078
3924.62788,0.00090
3922.56771,0.00149
3920.50754,0.00198
3918.44737,0.00203
3916.38719,0.00163
3914.32702,0.00111
3912.26685,0.00080
3910.20668,0.00064
3908.14651,0.00055
3906.08633,0.00063
3904.02616,0.00087
3901.96599,0.00110
3899.90582,0.00111
3897.84565,0.00085
3895.78547,0.00051
3893.72530,0.00033
3891.66513,0.00042
3889.60496,0.00102
3887.54478,0.00202
3885.48461,0.00255
3883.42444,0.00204
3881.36427,0.00128
3879.30410,0.00117
3877.24392,0.00144
3875.18375,0.00158
3873.12358,0.00169
3871.06341,0.00195
3869.00324,0.00209
3866.94306,0.00199
3864.88289,0.00200
3862.82272,0.00208
3860.76255,0.00189
3858.70237,0.00157
3856.64220,0.00149
3854.58203,0.00161
3852.52186,0.00177
3850.46169,0.00192
3848.40151,0.00198
3846.34134,0.00181
3844.28117,0.00142
3842.22100,0.00130
3840.16083,0.00180
3838.10065,0.00229
3836.04048,0.00206
3833.98031,0.00129
3831.92014,0.00067
3829.85997,0.00070
3827.79979,0.00122
3825.73962,0.00156
3823.67945,0.00144
3821.61928,0.00106
3819.55910,0.00081
3817.49893,0.00094
3815.43876,0.00139
3813.37859,0.00197
3811.31842,0.00236
3809.25824,0.00235
3807.19807,0.00214
3805.13790,0.00204
3803.07773,0.00198
3801.01756,0.00192
3798.95738,0.00191
3796.89721,0.00165
3794.83704,0.00129
3792.77687,0.00123
3790.71670,0.00135
3788.65652,0.00151
3786.59635,0.00153
3784.53618,0.00141
3782.47601,0.00144
3780.41583,0.00145
3778.35566,0.00119
3776.29549,0.00101
3774.23532,0.00102
3772.17515,0.00105
3770.11497,0.00114
3768.05480,0.00150
3765.99463,0.00191
3763.93446,0.00202
3761.87429,0.00190
3759.81411,0.00171
3757.75394,0.00166
3755.69377,0.00192
3753.63360,0.00212
3751.57342,0.00172
3749.51325,0.00098
3747.45308,0.00089
3745.39291,0.00173
3743.33274,0.00270
3741.27256,0.00306
3739.21239,0.00328
3737.15222,0.00357
3735.09205,0.00320
3733.03188,0.00224
3730.97170,0.00177
3728.91153,0.00197
3726.85136,0.00225
3724.79119,0.00232
3722.73102,0.00230
3720.67084,0.00217
3718.61067,0.00198
3716.55050,0.00169
3714.49033,0.00141
3712.43015,0.00149
3710.36998,0.00200
3708.30981,0.00264
3706.24964,0.00290
3704.18947,0.00279
3702.12929,0.00261
3700.06912,0.00245
3698.00895,0.00233
3695.94878,0.00269
3693.88861,0.00354
3691.82843,0.00379
3689.76826,0.00315
3687.70809,0.00255
3685.64792,0.00241
3683.58775,0.00232
3681.52757,0.00218
3679.46740,0.00199
3677.40723,0.00167
3675.34706,0.00142
3673.28688,0.00174
3671.22671,0.00242
3669.16654,0.00309
3667.10637,0.00366
3665.04620,0.00407
3662.98602,0.00440
3660.92585,0.00474
3658.86568,0.00504
3656.80551,0.00553
3654.74534,0.00618
3652.68516,0.00650
3650.62499,0.00648
3648.56482,0.00660
3646.50465,0.00696
3644.44447,0.00749
3642.38430,0.00814
3640.32413,0.00874
3638.26396,0.00917
3636.20379,0.00946
3634.14361,0.00988
3632.08344,0.01077
3630.02327,0.01199
3627.96310,0.01275
3625.90293,0.01309
3623.84275,0.01349
3621.78258,0.01380
3619.72241,0.01368
3617.66224,0.01362
3615.60207,0.01415
3613.54189,0.01505
3611.48172,0.01637
3609.42155,0.01755
3607.36138,0.01774
3605.30120,0.01736
3603.24103,0.01741
3601.18086,0.01810
3599.12069,0.01877
3597.06052,0.01932
3595.00034,0.02014
3592.94017,0.02126
3590.88000,0.02207
3588.81983,0.02255
3586.75966,0.02301
3584.69948,0.02360
3582.63931,0.02415
3580.57914,0.02444
3578.51897,0.02454
3576.45879,0.02496
3574.39862,0.02585
3572.33845,0.02671
3570.27828,0.02753
3568.21811,0.02845
3566.15793,0.02894
3564.09776,0.02894
3562.03759,0.02932
3559.97742,0.03014
3557.91725,0.03092
3555.85707,0.03151
3553.79690,0.03203
3551.73673,0.03251
3549.67656,0.03285
3547.61639,0.03319
3545.55621,0.03374
3543.49604,0.03446
3541.43587,0.03519
3539.37570,0.03589
3537.31552,0.03638
3535.25535,0.03658
3533.19518,0.03665
3531.13501,0.03692
3529.07484,0.03753
3527.01466,0.03830
3524.95449,0.03898
3522.89432,0.03953
3520.83415,0.04003
3518.77398,0.04039
3516.71380,0.04060
3514.65363,0.04097
3512.59346,0.04173
3510.53329,0.04263
3508.47312,0.04329
3506.41294,0.04355
3504.35277,0.04376
3502.29260,0.04435
3500.23243,0.04518
3498.17225,0.04577
3496.11208,0.04613
3494.05191,0.04666
3491.99174,0.04728
3489.93157,0.04759
3487.87139,0.04771
3485.81122,0.04804
3483.75105,0.04853
3481.69088,0.04898
3479.63071,0.04943
3477.57053,0.04978
3475.51036,0.04996
3473.45019,0.05037
3471.39002,0.05115
3469.32984,0.05177
3467.26967,0.05211
3465.20950,0.05261
3463.14933,0.05313
3461.08916,0.05340
3459.02898,0.05359
3456.96881,0.05405
3454.90864,0.05477
3452.84847,0.05543
3450.78830,0.05578
3448.72812,0.05583
3446.66795,0.05593
3444.60778,0.05642
3442.54761,0.05711
3440.48744,0.05763
3438.42726,0.05791
3436.36709,0.05829
3434.30692,0.05879
3432.24675,0.05899
3430.18657,0.05904
3428.12640,0.05934
3426.06623,0.05974
3424.00606,0.06008
3421.94589,0.06038
3419.88571,0.06055
3417.82554,0.06050
3415.76537,0.06047
3413.70520,0.06088
3411.64503,0.06147
3409.58485,0.06183
3407.52468,0.06213
3405.46451,0.06244
3403.40434,0.06269
3401.34416,0.06308
3399.28399,0.06378
3397.22382,0.06425
3395.16365,0.06427
3393.10348,0.06419
3391.04330,0.06423
3388.98313,0.06441
3386.92296,0.06489
3384.86279,0.06540
3382.80262,0.06543
3380.74244,0.06524
3378.68227,0.06521
3376.62210,0.06525
3374.56193,0.06559
3372.50176,0.06613
3370.44158,0.06639
3368.38141,0.06653
3366.32124,0.06669
3364.26107,0.06660
3362.20089,0.06659
3360.14072,0.06718
3358.08055,0.06797
3356.02038,0.06843
3353.96021,0.06857
3351.90003,0.06849
3349.83986,0.06828
3347.77969,0.06809
3345.71952,0.06819
3343.65935,0.06871
3341.59917,0.06921
3339.53900,0.06906
3337.47883,0.06848
3335.41866,0.06830
3333.35849,0.06868
3331.29831,0.06914
3329.23814,0.06942
3327.17797,0.06949
3325.11780,0.06936
3323.05762,0.06920
3320.99745,0.06902
3318.93728,0.06882
3316.87711,0.06889
3314.81694,0.06926
3312.75676,0.06943
3310.69659,0.06937
3308.63642,0.06942
3306.57625,0.06953
3304.51608,0.06936
3302.45590,0.06904
3300.39573,0.06914
3298.33556,0.06960
3296.27539,0.06984
3294.21521,0.06990
3292.15504,0.07014
3290.09487,0.07038
3288.03470,0.07025
3285.97453,0.06986
3283.91435,0.06947
3281.85418,0.06933
3279.79401,0.06958
3277.73384,0.07010
3275.67367,0.07056
3273.61349,0.07072
3271.55332,0.07084
3269.49315,0.07108
3267.43298,0.07100
3265.37281,0.07071
3263.31263,0.07069
3261.25246,0.07084
3259.19229,0.07089
3257.13212,0.07087
3255.07194,0.07085
3253.01177,0.07074
3250.95160,0.07056
3248.89143,0.07032
3246.83126,0.07013
3244.77108,0.07022
3242.71091,0.07048
3240.65074,0.07061
3238.59057,0.07067
3236.53040,0.07092
3234.47022,0.07121
3232.41005,0.07131
3230.34988,0.07129
3228.28971,0.07113
3226.22954,0.07079
3224.16936,0.07045
3222.10919,0.07028
3220.04902,0.07032
3217.98885,0.07052
3215.92867,0.07064
3213.86850,0.07045
3211.80833,0.06997
3209.74816,0.06965
3207.68799,0.06978
3205.62781,0.06986
3203.56764,0.06958
3201.50747,0.06927
3199.44730,0.06921
3197.38713,0.06930
3195.32695,0.06926
3193.26678,0.06894
3191.20661,0.06854
3189.14644,0.06846
3187.08626,0.06866
3185.02609,0.06875
3182.96592,0.06872
3180.90575,0.06861
3178.84558,0.06824
3176.78540,0.06793
3174.72523,0.06791
3172.66506,0.06770
3170.60489,0.06722
3168.54472,0.06692
3166.48454,0.06685
3164.42437,0.06684
3162.36420,0.06663
3160.30403,0.06616
3158.24386,0.06593
3156.18368,0.06593
3154.12351,0.06576
3152.06334,0.06550
3150.00317,0.06526
3147.94299,0.06495
3145.88282,0.06475
3143.82265,0.06465
3141.76248,0.06440
3139.70231,0.06421
3137.64213,0.06410
3135.58196,0.06369
3133.52179,0.06316
3131.46162,0.06294
3129.40145,0.06301
3127.34127,0.06300
3125.28110,0.06269
3123.22093,0.06228
3121.16076,0.06197
3119.10058,0.06167
3117.04041,0.06142
3114.98024,0.06134
3112.92007,0.06117
3110.85990,0.06082
3108.79972,0.06062
3106.73955,0.06057
3104.67938,0.06032
3102.61921,0.05985
3100.55904,0.05919
3098.49886,0.05857
3096.43869,0.05840
3094.37852,0.05850
3092.31835,0.05833
3090.25818,0.05789
3088.19800,0.05757
3086.13783,0.05741
3084.07766,0.05735
3082.01749,0.05722
3079.95731,0.05681
3077.89714,0.05625
3075.83697,0.05581
3073.77680,0.05562
3071.71663,0.05537
3069.65645,0.05477
3067.59628,0.05426
3065.53611,0.05409
3063.47594,0.05403
3061.41577,0.05394
3059.35559,0.05373
3057.29542,0.05338
3055.23525,0.05290
3053.17508,0.05242
3051.11491,0.05215
3049.05473,0.05197
3046.99456,0.05161
3044.93439,0.05120
3042.87422,0.05102
3040.81404,0.05087
3038.75387,0.05054
3036.69370,0.05012
3034.63353,0.04962
3032.57336,0.04913
3030.51318,0.04877
3028.45301,0.04856
3026.39284,0.04850
3024.33267,0.04845
3022.27250,0.04819
3020.21232,0.04770
3018.15215,0.04712
3016.09198,0.04674
3014.03181,0.04661
3011.97163,0.04643
3009.91146,0.04620
3007.85129,0.04597
3005.79112,0.04571
3003.73095,0.04554
3001.67077,0.04534
2999.61060,0.04476
2997.55043,0.04401
2995.49026,0.04367
2993.43009,0.04384
2991.36991,0.04399
2989.30974,0.04366
2987.24957,0.04305
2985.18940,0.04267
2983.12923,0.04251
2981.06905,0.04228
2979.00888,0.04206
2976.94871,0.04207
2974.88854,0.04216
2972.82836,0.04210
2970.76819,0.04196
2968.70802,0.04201
2966.64785,0.04219
2964.58768,0.04218
2962.52750,0.04207
2960.46733,0.04211
2958.40716,0.04217
2956.34699,0.04214
2954.28682,0.04204
2952.22664,0.04181
2950.16647,0.04161
2948.10630,0.04170
2946.04613,0.04186
2943.98596,0.04178
2941.92578,0.04167
2939.86561,0.04168
2937.80544,0.04181
2935.74527,0.04199
2933.68509,0.04191
2931.62492,0.04154
2929.56475,0.04136
2927.50458,0.04144
2925.44441,0.04140
2923.38423,0.04115
2921.32406,0.04097
2919.26389,0.04109
2917.20372,0.04116
2915.14355,0.04074
2913.08337,0.04013
2911.02320,0.03969
2908.96303,0.03937
2906.90286,0.03911
2904.84268,0.03885
2902.78251,0.03854
2900.72234,0.03829
2898.66217,0.03816
2896.60200,0.03817
2894.54182,0.03812
2892.48165,0.03798
2890.42148,0.03799
2888.36131,0.03800
2886.30114,0.03760
2884.24096,0.03707
2882.18079,0.03689
2880.12062,0.03695
2878.06045,0.03705
2876.00028,0.03704
2873.94010,0.03677
2871.87993,0.03640
2869.81976,0.03628
2867.75959,0.03637
2865.69941,0.03635
2863.63924,0.03617
2861.57907,0.03593
2859.51890,0.03574
2857.45873,0.03565
2855.39855,0.03561
2853.33838,0.03554
2851.27821,0.03538
2849.21804,0.03503
2847.15787,0.03453
2845.09769,0.03409
2843.03752,0.03373
2840.97735,0.03340
2838.91718,0.03301
2836.85700,0.03268
2834.79683,0.03253
2832.73666,0.03244
2830.67649,0.03233
2828.61632,0.03219
2826.55614,0.03203
2824.49597,0.03195
2822.43580,0.03187
2820.37563,0.03175
2818.31546,0.03155
2816.25528,0.03125
2814.19511,0.03097
2812.13494,0.03074
2810.07477,0.03052
2808.01460,0.03036
2805.95442,0.03024
2803.89425,0.03016
2801.83408,0.03019
2799.77391,0.03019
2797.71373,0.03004
2795.65356,0.02978
2793.59339,0.02951
2791.53322,0.02937
2789.47305,0.02928
2787.41287,0.02913
2785.35270,0.02906
2783.29253,0.02895
2781.23236,0.02856
2779.17219,0.02819
2777.11201,0.02809
2775.05184,0.02813
2772.99167,0.02814
2770.93150,0.02808
2768.87133,0.02789
2766.81115,0.02763
2764.75098,0.02747
2762.69081,0.02733
2760.63064,0.02725
2758.57046,0.02731
2756.51029,0.02725
2754.45012,0.02712
2752.38995,0.02705
2750.32978,0.02689
2748.26960,0.02672
2746.20943,0.02673
2744.14926,0.02671
2742.08909,0.02648
2740.02892,0.02627
2737.96874,0.02611
2735.90857,0.02589
2733.84840,0.02570
2731.78823,0.02555
2729.72805,0.02536
2727.66788,0.02507
2725.60771,0.02481
2723.54754,0.02476
2721.48737,0.02481
2719.42719,0.02472
2717.36702,0.02449
2715.30685,0.02446
2713.24668,0.02453
2711.18651,0.02433
2709.12633,0.02386
2707.06616,0.02333
2705.00599,0.02304
2702.94582,0.02306
2700.88565,0.02312
2698.82547,0.02306
2696.76530,0.02292
2694.70513,0.02277
2692.64496,0.02273
2690.58478,0.02268
2688.52461,0.02238
2686.46444,0.02192
2684.40427,0.02171
2682.34410,0.02177
2680.28392,0.02163
2678.22375,0.02125
2676.16358,0.02097
2674.10341,0.02083
2672.04324,0.02076
2669.98306,0.02069
2667.92289,0.02052
2665.86272,0.02037
2663.80255,0.02045
2661.74238,0.02040
2659.68220,0.02002
2657.62203,0.01963
2655.56186,0.01941
2653.50169,0.01933
2651.44151,0.01926
2649.38134,0.01910
2647.32117,0.01888
2645.26100,0.01873
2643.20083,0.01871
2641.14065,0.01865
2639.08048,0.01842
2637.02031,0.01819
2634.96014,0.01809
2632.89997,0.01812
2630.83979,0.01824
2628.77962,0.01820
2626.71945,0.01785
2624.65928,0.01734
2622.59910,0.01683
2620.53893,0.01652
2618.47876,0.01640
2616.41859,0.01633
2614.35842,0.01621
2612.29824,0.01623
2610.23807,0.01635
2608.17790,0.01622
2606.11773,0.01580
2604.05756,0.01535
2601.99738,0.01533
2599.93721,0.01549
2597.87704,0.01535
2595.81687,0.01527
2593.75670,0.01532
2591.69652,0.01513
2589.63635,0.01486
2587.57618,0.01475
2585.51601,0.01473
2583.45583,0.01466
2581.39566,0.01445
2579.33549,0.01421
2577.27532,0.01415
2575.21515,0.01416
2573.15497,0.01399
2571.09480,0.01387
2569.03463,0.01416
2566.97446,0.01451
2564.91429,0.01434
2562.85411,0.01393
2560.79394,0.01389
2558.73377,0.01420
2556.67360,0.01457
2554.61342,0.01467
2552.55325,0.01435
2550.49308,0.01406
2548.43291,0.01419
2546.37274,0.01433
2544.31256,0.01413
2542.25239,0.01398
2540.19222,0.01414
2538.13205,0.01435
2536.07188,0.01448
2534.01170,0.01456
2531.95153,0.01459
2529.89136,0.01467
2527.83119,0.01473
2525.77102,0.01460
2523.71084,0.01421
2521.65067,0.01386
2519.59050,0.01395
2517.53033,0.01433
2515.47015,0.01471
2513.40998,0.01502
2511.34981,0.01510
2509.28964,0.01493
2507.22947,0.01482
2505.16929,0.01473
2503.10912,0.01458
2501.04895,0.01452
2498.98878,0.01452
2496.92861,0.01452
2494.86843,0.01462
2492.80826,0.01463
2490.74809,0.01454
2488.68792,0.01469
2486.62775,0.01488
2484.56757,0.01486
2482.50740,0.01481
2480.44723,0.01492
2478.38706,0.01513
2476.32688,0.01511
2474.26671,0.01492
2472.20654,0.01506
2470.14637,0.01552
2468.08620,0.01583
2466.02602,0.01562
2463.96585,0.01519
2461.90568,0.01535
2459.84551,0.01580
2457.78534,0.01590
2455.72516,0.01563
2453.66499,0.01530
2451.60482,0.01516
2449.54465,0.01530
2447.48447,0.01545
2445.42430,0.01528
2443.36413,0.01496
2441.30396,0.01485
2439.24379,0.01525
2437.18361,0.01613
2435.12344,0.01657
2433.06327,0.01620
2431.00310,0.01572
2428.94293,0.01541
2426.88275,0.01531
2424.82258,0.01542
2422.76241,0.01547
2420.70224,0.01558
2418.64207,0.01583
2416.58189,0.01595
2414.52172,0.01589
2412.46155,0.01574
2410.40138,0.01566
2408.34120,0.01567
2406.28103,0.01581
2404.22086,0.01597
2402.16069,0.01589
2400.10052,0.01564
2398.04034,0.01549
2395.98017,0.01549
2393.92000,0.01555
2391.85983,0.01537
2389.79966,0.01503
2387.73948,0.01487
2385.67931,0.01499
2383.61914,0.01531
2381.55897,0.01558
2379.49880,0.01583
2377.43862,0.01618
2375.37845,0.01715
2373.31828,0.01827
2371.25811,0.01849
2369.19793,0.01712
2367.13776,0.01320
2365.07759,0.00931
2363.01742,0.00962
2360.95725,0.00975
2358.89707,0.01086
2356.83690,0.01315
2354.77673,0.01480
2352.71656,0.01523
2350.65639,0.01189
2348.59621,0.01061
2346.53604,0.01584
2344.47587,0.01640
2342.41570,0.01456
2340.35552,0.01417
2338.29535,0.01412
2336.23518,0.01429
2334.17501,0.01403
2332.11484,0.01372
2330.05466,0.01300
2327.99449,0.01304
2325.93432,0.01302
2323.87415,0.01383
2321.81398,0.01463
2319.75380,0.01498
2317.69363,0.01404
2315.63346,0.01385
2313.57329,0.01444
2311.51312,0.01480
2309.45294,0.01488
2307.39277,0.01466
2305.33260,0.01416
2303.27243,0.01391
2301.21225,0.01419
2299.15208,0.01399
2297.09191,0.01376
2295.03174,0.01411
2292.97157,0.01439
2290.91139,0.01444
2288.85122,0.01461
2286.79105,0.01465
2284.73088,0.01421
2282.67071,0.01353
2280.61053,0.01307
2278.55036,0.01274
2276.49019,0.01221
2274.43002,0.01157
2272.36984,0.01131
2270.30967,0.01153
2268.24950,0.01175
2266.18933,0.01153
2264.12916,0.01085
2262.06898,0.01011
2260.00881,0.00962
2257.94864,0.00957
2255.88847,0.01034
2253.82830,0.01110
2251.76812,0.01095
2249.70795,0.01062
2247.64778,0.01055
2245.58761,0.00997
2243.52744,0.00940
2241.46726,0.00984
2239.40709,0.01051
2237.34692,0.01003
2235.28675,0.00913
2233.22657,0.00930
2231.16640,0.00956
2229.10623,0.00882
2227.04606,0.00810
2224.98589,0.00809
2222.92571,0.00817
2220.86554,0.00788
2218.80537,0.00772
2216.74520,0.00815
2214.68503,0.00871
2212.62485,0.00899
2210.56468,0.00908
2208.50451,0.00892
2206.44434,0.00841
2204.38417,0.00807
2202.32399,0.00838
2200.26382,0.00850
2198.20365,0.00812
2196.14348,0.00769
2194.08330,0.00672
2192.02313,0.00582
2189.96296,0.00621
2187.90279,0.00693
2185.84262,0.00683
2183.78244,0.00585
2181.72227,0.00504
2179.66210,0.00614
2177.60193,0.00797
2175.54176,0.00819
2173.48158,0.00739
2171.42141,0.00691
2169.36124,0.00626
2167.30107,0.00513
2165.24089,0.00511
2163.18072,0.00633
2161.12055,0.00682
2159.06038,0.00641
2157.00021,0.00555
2154.94003,0.00494
2152.87986,0.00546
2150.81969,0.00613
2148.75952,0.00623
2146.69935,0.00629
2144.63917,0.00609
2142.57900,0.00520
2140.51883,0.00452
2138.45866,0.00463
2136.39849,0.00441
2134.33831,0.00409
2132.27814,0.00471
2130.21797,0.00542
2128.15780,0.00580
2126.09762,0.00637
2124.03745,0.00681
2121.97728,0.00685
2119.91711,0.00653
2117.85694,0.00612
2115.79676,0.00616
2113.73659,0.00641
2111.67642,0.00633
2109.61625,0.00643
2107.55608,0.00688
2105.49590,0.00724
2103.43573,0.00734
2101.37556,0.00659
2099.31539,0.00559
2097.25521,0.00556
2095.19504,0.00609
2093.13487,0.00620
2091.07470,0.00560
2089.01453,0.00513
2086.95435,0.00522
2084.89418,0.00520
2082.83401,0.00485
2080.77384,0.00437
2078.71367,0.00409
2076.65349,0.00420
2074.59332,0.00459
2072.53315,0.00527
2070.47298,0.00556
2068.41281,0.00501
2066.35263,0.00419
2064.29246,0.00340
2062.23229,0.00326
2060.17212,0.00385
2058.11194,0.00414
2056.05177,0.00441
2053.99160,0.00548
2051.93143,0.00579
2049.87126,0.00421
2047.81108,0.00318
2045.75091,0.00414
2043.69074,0.00539
2041.63057,0.00586
2039.57040,0.00598
2037.51022,0.00585
2035.45005,0.00555
2033.38988,0.00530
2031.32971,0.00433
2029.26954,0.00300
2027.20936,0.00252
2025.14919,0.00246
2023.08902,0.00228
2021.02885,0.00238
2018.96867,0.00252
2016.90850,0.00203
2014.84833,0.00105
2012.78816,0.00055
2010.72799,0.00094
2008.66781,0.00161
2006.60764,0.00177
2004.54747,0.00171
2002.48730,0.00250
2000.42713,0.00350
1998.36695,0.00358
1996.30678,0.00332
1994.24661,0.00346
1992.18644,0.00358
1990.12626,0.00313
1988.06609,0.00277
1986.00592,0.00326
1983.94575,0.00437
1981.88558,0.00485
1979.82540,0.00311
1977.76523,0.00056
1975.70506,0.00062
1973.64489,0.00260
1971.58472,0.00417
1969.52454,0.00485
1967.46437,0.00411
1965.40420,0.00259
1963.34403,0.00205
1961.28386,0.00199
1959.22368,0.00157
1957.16351,0.00185
1955.10334,0.00289
1953.04317,0.00338
1950.98299,0.00308
1948.92282,0.00252
1946.86265,0.00200
1944.80248,0.00183
1942.74231,0.00199
1940.68213,0.00204
1938.62196,0.00195
1936.56179,0.00208
1934.50162,0.00206
1932.44145,0.00152
1930.38127,0.00141
1928.32110,0.00198
1926.26093,0.00234
1924.20076,0.00259
1922.14059,0.00311
1920.08041,0.00352
1918.02024,0.00345
1915.96007,0.00305
1913.89990,0.00265
1911.83972,0.00228
1909.77955,0.00194
1907.71938,0.00183
1905.65921,0.00210
1903.59904,0.00252
1901.53886,0.00249
1899.47869,0.00202
1897.41852,0.00195
1895.35835,0.00254
1893.29818,0.00302
1891.23800,0.00303
1889.17783,0.00300
1887.11766,0.00300
1885.05749,0.00267
1882.99731,0.00217
1880.93714,0.00197
1878.87697,0.00216
1876.81680,0.00260
1874.75663,0.00305
1872.69645,0.00320
1870.63628,0.00296
1868.57611,0.00266
1866.51594,0.00273
1864.45577,0.00307
1862.39559,0.00335
1860.33542,0.00329
1858.27525,0.00291
1856.21508,0.00251
1854.15491,0.00235
1852.09473,0.00252
1850.03456,0.00289
1847.97439,0.00326
1845.91422,0.00361
1843.85404,0.00385
1841.79387,0.00383
1839.73370,0.00370
1837.67353,0.00351
1835.61336,0.00316
1833.55318,0.00293
1831.49301,0.00307
1829.43284,0.00339
1827.37267,0.00371
1825.31250,0.00393
1823.25232,0.00399
1821.19215,0.00398
1819.13198,0.00392
1817.07181,0.00380
1815.01163,0.00387
1812.95146,0.00418
1810.89129,0.00428
1808.83112,0.00405
1806.77095,0.00384
1804.71077,0.00374
1802.65060,0.00365
1800.59043,0.00365
1798.53026,0.00386
1796.47009,0.00405
1794.40991,0.00402
1792.34974,0.00401
1790.28957,0.00426
1788.22940,0.00452
1786.16923,0.00458
1784.10905,0.00462
1782.04888,0.00471
1779.98871,0.00472
1777.92854,0.00474
1775.86836,0.00471
1773.80819,0.00445
1771.74802,0.00431
1769.68785,0.00465
1767.62768,0.00509
1765.56750,0.00528
1763.50733,0.00524
1761.44716,0.00519
1759.38699,0.00537
1757.32682,0.00581
1755.26664,0.00620
1753.20647,0.00631
1751.14630,0.00644
1749.08613,0.00685
1747.02596,0.00730
1744.96578,0.00751
1742.90561,0.00772
1740.84544,0.00807
1738.78527,0.00824
1736.72509,0.00817
1734.66492,0.00826
1732.60475,0.00862
1730.54458,0.00893
1728.48441,0.00914
1726.42423,0.00933
1724.36406,0.00954
1722.30389,0.00973
1720.24372,0.00981
1718.18355,0.01005
1716.12337,0.01064
1714.06320,0.01115
1712.00303,0.01136
1709.94286,0.01156
1707.88268,0.01194
1705.82251,0.01241
1703.76234,0.01284
1701.70217,0.01332
1699.64200,0.01393
1697.58182,0.01450
1695.52165,0.01502
1693.46148,0.01546
1691.40131,0.01585
1689.34114,0.01626
1687.28096,0.01669
1685.22079,0.01726
1683.16062,0.01805
1681.10045,0.01874
1679.04028,0.01920
1676.98010,0.01954
1674.91993,0.01992
1672.85976,0.02038
1670.79959,0.02092
1668.73941,0.02153
1666.67924,0.02196
1664.61907,0.02221
1662.55890,0.02246
1660.49873,0.02276
1658.43855,0.02303
1656.37838,0.02333
1654.31821,0.02374
1652.25804,0.02411
1650.19787,0.02400
1648.13769,0.02373
1646.07752,0.02376
1644.01735,0.02382
1641.95718,0.02353
1639.89701,0.02306
1637.83683,0.02269
1635.77666,0.02257
1633.71649,0.02250
1631.65632,0.02225
1629.59614,0.02187
1627.53597,0.02155
1625.47580,0.02130
1623.41563,0.02102
1621.35546,0.02078
1619.29528,0.02057
1617.23511,0.02038
1615.17494,0.02025
1613.11477,0.02011
1611.05460,0.01984
1608.99442,0.01939
1606.93425,0.01883
1604.87408,0.01821
1602.81391,0.01763
1600.75373,0.01716
1598.69356,0.01674
1596.63339,0.01632
1594.57322,0.01585
1592.51305,0.01533
1590.45287,0.01471
1588.39270,0.01408
1586.33253,0.01362
1584.27236,0.01320
1582.21219,0.01261
1580.15201,0.01194
1578.09184,0.01141
1576.03167,0.01112
1573.97150,0.01088
1571.91133,0.01046
1569.85115,0.00999
1567.79098,0.00966
1565.73081,0.00935
1563.67064,0.00899
1561.61046,0.00863
1559.55029,0.00825
1557.49012,0.00808
1555.42995,0.00805
1553.36978,0.00776
1551.30960,0.00724
1549.24943,0.00683
1547.18926,0.00658
1545.12909,0.00632
1543.06892,0.00584
1541.00874,0.00523
1538.94857,0.00502
1536.88840,0.00512
1534.82823,0.00508
1532.76805,0.00491
1530.70788,0.00471
1528.64771,0.00446
1526.58754,0.00425
1524.52737,0.00410
1522.46719,0.00386
1520.40702,0.00362
1518.34685,0.00358
1516.28668,0.00367
1514.22651,0.00361
1512.16633,0.00331
1510.10616,0.00301
1508.04599,0.00289
1505.98582,0.00285
1503.92565,0.00275
1501.86547,0.00256
1499.80530,0.00231
1497.74513,0.00207
1495.68496,0.00198
1493.62478,0.00202
1491.56461,0.00205
1489.50444,0.00207
1487.44427,0.00217
1485.38410,0.00226
1483.32392,0.00230
1481.26375,0.00235
1479.20358,0.00245
1477.14341,0.00258
1475.08324,0.00285
1473.02306,0.00334
1470.96289,0.00379
1468.90272,0.00397
1466.84255,0.00407
1464.78238,0.00418
1462.72220,0.00427
1460.66203,0.00441
1458.60186,0.00477
1456.54169,0.00512
1454.48151,0.00499
1452.42134,0.00461
1450.36117,0.00436
1448.30100,0.00435
1446.24083,0.00436
1444.18065,0.00419
1442.12048,0.00395
1440.06031,0.00370
1438.00014,0.00348
1435.93997,0.00351
1433.87979,0.00375
1431.81962,0.00393
1429.75945,0.00397
1427.69928,0.00391
1425.63910,0.00389
1423.57893,0.00402
1421.51876,0.00421
1419.45859,0.00441
1417.39842,0.00459
1415.33824,0.00450
1413.27807,0.00426
1411.21790,0.00416
1409.15773,0.00421
1407.09756,0.00414
1405.03738,0.00390
1402.97721,0.00364
1400.91704,0.00345
1398.85687,0.00342
1396.79670,0.00357
1394.73652,0.00380
1392.67635,0.00389
1390.61618,0.00385
1388.55601,0.00382
1386.49583,0.00384
1384.43566,0.00395
1382.37549,0.00409
1380.31532,0.00416
1378.25515,0.00424
1376.19497,0.00443
1374.13480,0.00469
1372.07463,0.00481
1370.01446,0.00468
1367.95429,0.00450
1365.89411,0.00438
1363.83394,0.00430
1361.77377,0.00422
1359.71360,0.00400
1357.65343,0.00367
1355.59325,0.00350
1353.53308,0.00350
1351.47291,0.00347
1349.41274,0.00341
1347.35256,0.00336
1345.29239,0.00332
1343.23222,0.00336
1341.17205,0.00353
1339.11188,0.00366
1337.05170,0.00357
1334.99153,0.00331
1332.93136,0.00311
1330.87119,0.00310
1328.81102,0.00314
1326.75084,0.00306
1324.69067,0.00285
1322.63050,0.00271
1320.57033,0.00277
1318.51015,0.00287
1316.44998,0.00276
1314.38981,0.00257
1312.32964,0.00255
1310.26947,0.00269
1308.20929,0.00282
1306.14912,0.00284
1304.08895,0.00274
1302.02878,0.00266
1299.96861,0.00267
1297.90843,0.00275
1295.84826,0.00284
1293.78809,0.00288
1291.72792,0.00288
1289.66775,0.00300
1287.60757,0.00324
1285.54740,0.00332
1283.48723,0.00326
1281.42706,0.00330
1279.36688,0.00351
1277.30671,0.00382
1275.24654,0.00402
1273.18637,0.00403
1271.12620,0.00394
1269.06602,0.00388
1267.00585,0.00389
1264.94568,0.00398
1262.88551,0.00409
1260.82534,0.00416
1258.76516,0.00411
1256.70499,0.00395
1254.64482,0.00374
1252.58465,0.00348
1250.52447,0.00320
1248.46430,0.00302
1246.40413,0.00299
1244.34396,0.00293
1242.28379,0.00278
1240.22361,0.00264
1238.16344,0.00253
1236.10327,0.00242
1234.04310,0.00232
1231.98293,0.00229
1229.92275,0.00230
1227.86258,0.00232
1225.80241,0.00228
1223.74224,0.00204
1221.68207,0.00169
1219.62189,0.00149
1217.56172,0.00137
1215.50155,0.00124
1213.44138,0.00122
1211.38120,0.00118
1209.32103,0.00089
1207.26086,0.00065
1205.20069,0.00078
1203.14052,0.00096
1201.08034,0.00091
1199.02017,0.00088
1196.96000,0.00108
1194.89983,0.00140
1192.83966,0.00179
1190.77948,0.00214
1188.71931,0.00257
1186.65914,0.00334
1184.59897,0.00418
1182.53880,0.00490
1180.47862,0.00583
1178.41845,0.00708
1176.35828,0.00847
1174.29811,0.00981
1172.23793,0.01101
1170.17776,0.01217
1168.11759,0.01333
1166.05742,0.01444
1163.99725,0.01553
1161.93707,0.01655
1159.87690,0.01753
1157.81673,0.01846
1155.75656,0.01932
1153.69639,0.02021
1151.63621,0.02124
1149.57604,0.02243
1147.51587,0.02371
1145.45570,0.02514
1143.39552,0.02670
1141.33535,0.02816
1139.27518,0.02946
1137.21501,0.03072
1135.15484,0.03194
1133.09466,0.03328
1131.03449,0.03478
1128.97432,0.03620
1126.91415,0.03761
1124.85398,0.03919
1122.79380,0.04072
1120.73363,0.04188
1118.67346,0.04294
1116.61329,0.04435
1114.55312,0.04597
1112.49294,0.04759
1110.43277,0.04925
1108.37260,0.05092
1106.31243,0.05257
1104.25225,0.05428
1102.19208,0.05596
1100.13191,0.05769
1098.07174,0.05965
1096.01157,0.06165
1093.95139,0.06339
1091.89122,0.06474
1089.83105,0.06587
1087.77088,0.06710
1085.71071,0.06854
1083.65053,0.06998
1081.59036,0.07123
1079.53019,0.07249
1077.47002,0.07390
1075.40985,0.07510
1073.34967,0.07568
1071.28950,0.07598
1069.22933,0.07637
1067.16916,0.07680
1065.10898,0.07724
1063.04881,0.07738
1060.98864,0.07707
1058.92847,0.07673
1056.86830,0.07636
1054.80812,0.07569
1052.74795,0.07492
1050.68778,0.07425
1048.62761,0.07344
1046.56744,0.07228
1044.50726,0.07094
1042.44709,0.06945
1040.38692,0.06797
1038.32675,0.06654
1036.26657,0.06488
1034.20640,0.06313
1032.14623,0.06146
1030.08606,0.05999
1028.02589,0.05880
1025.96571,0.05757
1023.90554,0.05624
1021.84537,0.05521
1019.78520,0.05428
1017.72503,0.05310
1015.66485,0.05202
1013.60468,0.05149
1011.54451,0.05129
1009.48434,0.05100
1007.42417,0.05044
1005.36399,0.04982
1003.30382,0.04944
1001.24365,0.04946
999.18348,0.04989
997.12330,0.05047
995.06313,0.05118
993.00296,0.05214
990.94279,0.05306
988.88262,0.05362
986.82244,0.05410
984.76227,0.05467
982.70210,0.05474
980.64193,0.05415
978.58176,0.05323
976.52158,0.05187
974.46141,0.05008
972.40124,0.04807
970.34107,0.04598
968.28089,0.04387
966.22072,0.04151
964.16055,0.03917
962.10038,0.03728
960.04021,0.03567
957.98003,0.03430
955.91986,0.03328
953.85969,0.03253
951.79952,0.03191
949.73935,0.03133
947.67917,0.03067
945.61900,0.02997
943.55883,0.02954
941.49866,0.02957
939.43849,0.02979
937.37831,0.03012
935.31814,0.03045
933.25797,0.03021
931.19780,0.02958
929.13762,0.02921
927.07745,0.02917
925.01728,0.02920
922.95711,0.02878
920.89694,0.02778
918.83676,0.02681
916.77659,0.02602
914.71642,0.02516
912.65625,0.02421
910.59608,0.02317
908.53590,0.02227
906.47573,0.02184
904.41556,0.02183
902.35539,0.02198
900.29522,0.02206
898.23504,0.02188
896.17487,0.02148
894.11470,0.02115
892.05453,0.02112
889.99435,0.02143
887.93418,0.02190
885.87401,0.02237
883.81384,0.02286
881.75367,0.02325
879.69349,0.02357
877.63332,0.02383
875.57315,0.02412
873.51298,0.02490
871.45281,0.02594
869.39263,0.02659
867.33246,0.02656
865.27229,0.02632
863.21212,0.02628
861.15194,0.02612
859.09177,0.02571
857.03160,0.02526
854.97143,0.02512
852.91126,0.02522
850.85108,0.02460
848.79091,0.02335
846.73074,0.02252
844.67057,0.02179
842.61040,0.02062
840.55022,0.01945
838.49005,0.01851
836.42988,0.01763
834.36971,0.01691
832.30954,0.01637
830.24936,0.01595
828.18919,0.01552
826.12902,0.01484
824.06885,0.01428
822.00867,0.01399
819.94850,0.01340
817.88833,0.01246
815.82816,0.01185
813.76799,0.01168
811.70781,0.01155
809.64764,0.01135
807.58747,0.01112
805.52730,0.01077
803.46713,0.01030
801.40695,0.00993
799.34678,0.00962
797.28661,0.00914
795.22644,0.00849
793.16627,0.00807
791.10609,0.00784
789.04592,0.00771
786.98575,0.00806
784.92558,0.00853
782.86540,0.00849
780.80523,0.00836
778.74506,0.00818
776.68489,0.00781
774.62472,0.00770
772.56454,0.00782
770.50437,0.00778
768.44420,0.00785
766.38403,0.00850
764.32386,0.00922
762.26368,0.00906
760.20351,0.00795
758.14334,0.00683
756.08317,0.00659
754.02299,0.00694
751.96282,0.00723
749.90265,0.00709
747.84248,0.00661
745.78231,0.00605
743.72213,0.00524
741.66196,0.00451
739.60179,0.00445
737.54162,0.00489
735.48145,0.00537
733.42127,0.00545
731.36110,0.00516
729.30093,0.00518
727.24076,0.00528
725.18059,0.00482
723.12041,0.00459
721.06024,0.00593
719.00007,0.00661
716.93990,0.00673
714.87972,0.00676
712.81955,0.00640
710.75938,0.00609
708.69921,0.00589
706.63904,0.00577
704.57886,0.00575
702.51869,0.00586
700.45852,0.00588
698.39835,0.00550
696.33818,0.00514
694.27800,0.00492
692.21783,0.00459
690.15766,0.00459
688.09749,0.00490
686.03731,0.00465
683.97714,0.00381
681.91697,0.00331
679.85680,0.00386
677.79663,0.00503
675.73645,0.00510
673.67628,0.00264
671.61611,0.00071
669.55594,0.00810
667.49577,0.01253
665.43559,0.00213
663.37542,0.00200
661.31525,0.00417
659.25508,0.00400
657.19491,0.00304
655.13473,0.00258
653.07456,0.00302
651.01439,0.00437
648.95422,0.00565
646.89404,0.00559
644.83387,0.00548
642.77370,0.00571
640.71353,0.00588
638.65336,0.00602
636.59318,0.00622
634.53301,0.00597
632.47284,0.00465
630.41267,0.00274
628.35250,0.00193
626.29232,0.00305
624.23215,0.00393
622.17198,0.00222
620.11181,0.00072
618.05164,0.00215
615.99146,0.00430
613.93129,0.00377
611.87112,0.00234
609.81095,0.00165
607.75077,0.00076
605.69060,0.00009
603.63043,0.00000
601.57026,0.00027
599.51009,0.00000
