3996.73391,0.00024
3994.67373,0.00051
3992.61356,0.00072
3990.55339,0.00056
3988.49322,0.00026
3986.43305,0.00035
3984.37287,0.00054
3982.31270,0.00032
3980.25253,0.00001
3978.19236,0.00000
3976.13219,0.00017
3974.07201,0.00036
3972.01184,0.00046
3969.95167,0.00054
3967.89150,0.00068
3965.83133,0.00078
3963.77115,0.00085
3961.71098,0.00091
3959.65081,0.00083
3957.59064,0.00063
3955.53046,0.00046
3953.47029,0.00046
3951.41012,0.00061
3949.34995,0.00078
3947.28978,0.00075
3945.22960,0.00048
3943.16943,0.00023
3941.10926,0.00018
3939.04909,0.00031
3936.98892,0.00060
3934.92874,0.00090
3932.86857,0.00099
3930.80840,0.00088
3928.74823,0.00079
3926.68805,0.00076
3924.62788,0.00077
3922.56771,0.00086
3920.50754,0.00100
3918.44737,0.00115
3916.38719,0.00127
3914.32702,0.00119
3912.26685,0.00080
3910.20668,0.00044
3908.14651,0.00051
3906.08633,0.00087
3904.02616,0.00119
3901.96599,0.00136
3899.90582,0.00134
3897.84565,0.00113
3895.78547,0.00077
3893.72530,0.00041
3891.66513,0.00021
3889.60496,0.00013
3887.54478,0.00020
3885.48461,0.00074
3883.42444,0.00160
3881.36427,0.00217
3879.30410,0.00193
3877.24392,0.00120
3875.18375,0.00085
3873.12358,0.00098
3871.06341,0.00091
3869.00324,0.00050
3866.94306,0.00034
3864.88289,0.00079
3862.82272,0.00138
3860.76255,0.00146
3858.70237,0.00109
3856.64220,0.00067
3854.58203,0.00057
3852.52186,0.00101
3850.46169,0.00139
3848.40151,0.00132
3846.34134,0.00110
3844.28117,0.00098
3842.22100,0.00095
3840.16083,0.00102
3838.10065,0.00122
3836.04048,0.00130
3833.98031,0.00115
3831.92014,0.00092
3829.85997,0.00075
3827.79979,0.00075
3825.73962,0.00076
3823.67945,0.00061
3821.61928,0.00068
3819.55910,0.00112
3817.49893,0.00147
3815.43876,0.00165
3813.37859,0.00163
3811.31842,0.00130
3809.25824,0.00089
3807.19807,0.00069
3805.13790,0.00076
3803.07773,0.00111
3801.01756,0.00156
3798.95738,0.00154
3796.89721,0.00126
3794.83704,0.00115
3792.77687,0.00117
3790.71670,0.00118
3788.65652,0.00104
3786.59635,0.00081
3784.53618,0.00061
3782.47601,0.00030
3780.41583,0.00000
3778.35566,0.00017
3776.29549,0.00071
3774.23532,0.00110
3772.17515,0.00106
3770.11497,0.00087
3768.05480,0.00092
3765.99463,0.00111
3763.93446,0.00119
3761.87429,0.00111
3759.81411,0.00113
3757.75394,0.00139
3755.69377,0.00148
3753.63360,0.00120
3751.57342,0.00101
3749.51325,0.00119
3747.45308,0.00133
3745.39291,0.00131
3743.33274,0.00128
3741.27256,0.00118
3739.21239,0.00097
3737.15222,0.00100
3735.09205,0.00157
3733.03188,0.00182
3730.97170,0.00118
3728.91153,0.00050
3726.85136,0.00038
3724.79119,0.00074
3722.73102,0.00128
3720.67084,0.00157
3718.61067,0.00120
3716.55050,0.00044
3714.49033,0.00000
3712.43015,0.00018
3710.36998,0.00066
3708.30981,0.00094
3706.24964,0.00088
3704.18947,0.00076
3702.12929,0.00092
3700.06912,0.00122
3698.00895,0.00137
3695.94878,0.00136
3693.88861,0.00124
3691.82843,0.00118
3689.76826,0.00145
3687.70809,0.00182
3685.64792,0.00182
3683.58775,0.00158
3681.52757,0.00121
3679.46740,0.00097
3677.40723,0.00126
3675.34706,0.00175
3673.28688,0.00156
3671.22671,0.00132
3669.16654,0.00176
3667.10637,0.00210
3665.04620,0.00207
3662.98602,0.00187
3660.92585,0.00144
3658.86568,0.00107
3656.80551,0.00129
3654.74534,0.00192
3652.68516,0.00223
3650.62499,0.00214
3648.56482,0.00222
3646.50465,0.00252
3644.44447,0.00268
3642.38430,0.00283
3640.32413,0.00310
3638.26396,0.00323
3636.20379,0.00322
3634.14361,0.00335
3632.08344,0.00352
3630.02327,0.00370
3627.96310,0.00393
3625.90293,0.00391
3623.84275,0.00376
3621.78258,0.00381
3619.72241,0.00413
3617.66224,0.00447
3615.60207,0.00453
3613.54189,0.00457
3611.48172,0.00486
3609.42155,0.00514
3607.36138,0.00523
3605.30120,0.00526
3603.24103,0.00517
3601.18086,0.00497
3599.12069,0.00491
3597.06052,0.00515
3595.00034,0.00546
3592.94017,0.00557
3590.88000,0.00566
3588.81983,0.00616
3586.75966,0.00693
3584.69948,0.00728
3582.63931,0.00723
3580.57914,0.00728
3578.51897,0.00738
3576.45879,0.00733
3574.39862,0.00730
3572.33845,0.00751
3570.27828,0.00786
3568.21811,0.00811
3566.15793,0.00820
3564.09776,0.00827
3562.03759,0.00838
3559.97742,0.00833
3557.91725,0.00808
3555.85707,0.00813
3553.79690,0.00869
3551.73673,0.00926
3549.67656,0.00956
3547.61639,0.00979
3545.55621,0.00986
3543.49604,0.00974
3541.43587,0.00972
3539.37570,0.01003
3537.31552,0.01044
3535.25535,0.01049
3533.19518,0.01031
3531.13501,0.01044
3529.07484,0.01090
3527.01466,0.01123
3524.95449,0.01124
3522.89432,0.01111
3520.83415,0.01108
3518.77398,0.01117
3516.71380,0.01121
3514.65363,0.01126
3512.59346,0.01150
3510.53329,0.01177
3508.47312,0.01180
3506.41294,0.01164
3504.35277,0.01163
3502.29260,0.01196
3500.23243,0.01246
3498.17225,0.01266
3496.11208,0.01253
3494.05191,0.01243
3491.99174,0.01249
3489.93157,0.01263
3487.87139,0.01288
3485.81122,0.01319
3483.75105,0.01339
3481.69088,0.01337
3479.63071,0.01329
3477.57053,0.01343
3475.51036,0.01383
3473.45019,0.01416
3471.39002,0.01408
3469.32984,0.01390
3467.26967,0.01391
3465.20950,0.01400
3463.14933,0.01408
3461.08916,0.01409
3459.02898,0.01399
3456.96881,0.01395
3454.90864,0.01417
3452.84847,0.01461
3450.78830,0.01508
3448.72812,0.01550
3446.66795,0.01571
3444.60778,0.01563
3442.54761,0.01553
3440.48744,0.01566
3438.42726,0.01597
3436.36709,0.01620
3434.30692,0.01621
3432.24675,0.01603
3430.18657,0.01588
3428.12640,0.01599
3426.06623,0.01626
3424.00606,0.01644
3421.94589,0.01662
3419.88571,0.01683
3417.82554,0.01686
3415.76537,0.01677
3413.70520,0.01676
3411.64503,0.01678
3409.58485,0.01681
3407.52468,0.01693
3405.46451,0.01700
3403.40434,0.01699
3401.34416,0.01710
3399.28399,0.01729
3397.22382,0.01735
3395.16365,0.01748
3393.10348,0.01786
3391.04330,0.01818
3388.98313,0.01835
3386.92296,0.01850
3384.86279,0.01860
3382.80262,0.01840
3380.74244,0.01801
3378.68227,0.01779
3376.62210,0.01765
3374.56193,0.01756
3372.50176,0.01782
3370.44158,0.01825
3368.38141,0.01838
3366.32124,0.01834
3364.26107,0.01842
3362.20089,0.01856
3360.14072,0.01866
3358.08055,0.01874
3356.02038,0.01877
3353.96021,0.01872
3351.90003,0.01876
3349.83986,0.01893
3347.77969,0.01896
3345.71952,0.01876
3343.65935,0.01866
3341.59917,0.01878
3339.53900,0.01891
3337.47883,0.01891
3335.41866,0.01884
3333.35849,0.01888
3331.29831,0.01907
3329.23814,0.01935
3327.17797,0.01950
3325.11780,0.01941
3323.05762,0.01927
3320.99745,0.01925
3318.93728,0.01944
3316.87711,0.01978
3314.81694,0.01986
3312.75676,0.01945
3310.69659,0.01914
3308.63642,0.01934
3306.57625,0.01950
3304.51608,0.01943
3302.45590,0.01942
3300.39573,0.01950
3298.33556,0.01966
3296.27539,0.01991
3294.21521,0.02006
3292.15504,0.01997
3290.09487,0.01979
3288.03470,0.01976
3285.97453,0.01981
3283.91435,0.01976
3281.85418,0.01960
3279.79401,0.01947
3277.73384,0.01940
3275.67367,0.01934
3273.61349,0.01950
3271.55332,0.01982
3269.49315,0.02002
3267.43298,0.01995
3265.37281,0.01979
3263.31263,0.01972
3261.25246,0.01974
3259.19229,0.01976
3257.13212,0.01975
3255.07194,0.01984
3253.01177,0.01996
3250.95160,0.01971
3248.89143,0.01937
3246.83126,0.01942
3244.77108,0.01972
3242.71091,0.01999
3240.65074,0.02017
3238.59057,0.02024
3236.53040,0.02024
3234.47022,0.02026
3232.41005,0.02039
3230.34988,0.02047
3228.28971,0.02048
3226.22954,0.02059
3224.16936,0.02063
3222.10919,0.02037
3220.04902,0.02005
3217.98885,0.02005
3215.92867,0.02025
3213.86850,0.02030
3211.80833,0.02011
3209.74816,0.01998
3207.68799,0.01992
3205.62781,0.01971
3203.56764,0.01952
3201.50747,0.01946
3199.44730,0.01935
3197.38713,0.01936
3195.32695,0.01965
3193.26678,0.01981
3191.20661,0.01962
3189.14644,0.01949
3187.08626,0.01967
3185.02609,0.01976
3182.96592,0.01967
3180.90575,0.01970
3178.84558,0.01970
3176.78540,0.01965
3174.72523,0.01972
3172.66506,0.01973
3170.60489,0.01963
3168.54472,0.01955
3166.48454,0.01939
3164.42437,0.01916
3162.36420,0.01906
3160.30403,0.01911
3158.24386,0.01917
3156.18368,0.01918
3154.12351,0.01918
3152.06334,0.01924
3150.00317,0.01917
3147.94299,0.01885
3145.88282,0.01858
3143.82265,0.01850
3141.76248,0.01843
3139.70231,0.01838
3137.64213,0.01854
3135.58196,0.01866
3133.52179,0.01858
3131.46162,0.01862
3129.40145,0.01879
3127.34127,0.01876
3125.28110,0.01845
3123.22093,0.01810
3121.16076,0.01798
3119.10058,0.01798
3117.04041,0.01780
3114.98024,0.01761
3112.92007,0.01769
3110.85990,0.01793
3108.79972,0.01801
3106.73955,0.01776
3104.67938,0.01742
3102.61921,0.01735
3100.55904,0.01744
3098.49886,0.01747
3096.43869,0.01752
3094.37852,0.01763
3092.31835,0.01754
3090.25818,0.01729
3088.19800,0.01708
3086.13783,0.01697
3084.07766,0.01698
3082.01749,0.01686
3079.95731,0.01659
3077.89714,0.01634
3075.83697,0.01616
3073.77680,0.01616
3071.71663,0.01631
3069.65645,0.01630
3067.59628,0.01620
3065.53611,0.01624
3063.47594,0.01618
3061.41577,0.01594
3059.35559,0.01581
3057.29542,0.01587
3055.23525,0.01592
3053.17508,0.01587
3051.11491,0.01583
3049.05473,0.01589
3046.99456,0.01597
3044.93439,0.01596
3042.87422,0.01584
3040.81404,0.01563
3038.75387,0.01534
3036.69370,0.01506
3034.63353,0.01495
3032.57336,0.01501
3030.51318,0.01503
3028.45301,0.01489
3026.39284,0.01479
3024.33267,0.01484
3022.27250,0.01491
3020.21232,0.01476
3018.15215,0.01430
3016.09198,0.01385
3014.03181,0.01374
3011.97163,0.01382
3009.91146,0.01390
3007.85129,0.01405
3005.79112,0.01406
3003.73095,0.01390
3001.67077,0.01384
2999.61060,0.01388
2997.55043,0.01378
2995.49026,0.01360
2993.43009,0.01350
2991.36991,0.01341
2989.30974,0.01337
2987.24957,0.01340
2985.18940,0.01338
2983.12923,0.01326
2981.06905,0.01313
2979.00888,0.01307
2976.94871,0.01310
2974.88854,0.01303
2972.82836,0.01297
2970.76819,0.01312
2968.70802,0.01324
2966.64785,0.01321
2964.58768,0.01315
2962.52750,0.01314
2960.46733,0.01333
2958.40716,0.01353
2956.34699,0.01349
2954.28682,0.01329
2952.22664,0.01309
2950.16647,0.01299
2948.10630,0.01298
2946.04613,0.01292
2943.98596,0.01285
2941.92578,0.01285
2939.86561,0.01281
2937.80544,0.01275
2935.74527,0.01275
2933.68509,0.01280
2931.62492,0.01280
2929.56475,0.01263
2927.50458,0.01235
2925.44441,0.01232
2923.38423,0.01260
2921.32406,0.01275
2919.26389,0.01248
2917.20372,0.01218
2915.14355,0.01218
2913.08337,0.01222
2911.02320,0.01213
2908.96303,0.01202
2906.90286,0.01195
2904.84268,0.01186
2902.78251,0.01183
2900.72234,0.01204
2898.66217,0.01231
2896.60200,0.01240
2894.54182,0.01229
2892.48165,0.01206
2890.42148,0.01199
2888.36131,0.01209
2886.30114,0.01220
2884.24096,0.01212
2882.18079,0.01193
2880.12062,0.01182
2878.06045,0.01181
2876.00028,0.01177
2873.94010,0.01174
2871.87993,0.01176
2869.81976,0.01169
2867.75959,0.01152
2865.69941,0.01153
2863.63924,0.01171
2861.57907,0.01174
2859.51890,0.01142
2857.45873,0.01094
2855.39855,0.01087
2853.33838,0.01132
2851.27821,0.01160
2849.21804,0.01137
2847.15787,0.01097
2845.09769,0.01075
2843.03752,0.01083
2840.97735,0.01108
2838.91718,0.01130
2836.85700,0.01130
2834.79683,0.01107
2832.73666,0.01088
2830.67649,0.01083
2828.61632,0.01078
2826.55614,0.01079
2824.49597,0.01086
2822.43580,0.01082
2820.37563,0.01068
2818.31546,0.01061
2816.25528,0.01056
2814.19511,0.01040
2812.13494,0.01032
2810.07477,0.01042
2808.01460,0.01044
2805.95442,0.01033
2803.89425,0.01033
2801.83408,0.01039
2799.77391,0.01034
2797.71373,0.01036
2795.65356,0.01046
2793.59339,0.01039
2791.53322,0.01026
2789.47305,0.01032
2787.41287,0.01033
2785.35270,0.01006
2783.29253,0.00981
2781.23236,0.00979
2779.17219,0.00978
2777.11201,0.00972
2775.05184,0.00970
2772.99167,0.00962
2770.93150,0.00945
2768.87133,0.00944
2766.81115,0.00969
2764.75098,0.00991
2762.69081,0.00988
2760.63064,0.00973
2758.57046,0.00962
2756.51029,0.00961
2754.45012,0.00969
2752.38995,0.00971
2750.32978,0.00961
2748.26960,0.00956
2746.20943,0.00949
2744.14926,0.00938
2742.08909,0.00935
2740.02892,0.00938
2737.96874,0.00938
2735.90857,0.00934
2733.84840,0.00927
2731.78823,0.00922
2729.72805,0.00911
2727.66788,0.00899
2725.60771,0.00896
2723.54754,0.00892
2721.48737,0.00884
2719.42719,0.00884
2717.36702,0.00881
2715.30685,0.00875
2713.24668,0.00887
2711.18651,0.00896
2709.12633,0.00880
2707.06616,0.00873
2705.00599,0.00895
2702.94582,0.00905
2700.88565,0.00876
2698.82547,0.00834
2696.76530,0.00819
2694.70513,0.00831
2692.64496,0.00837
2690.58478,0.00833
2688.52461,0.00837
2686.46444,0.00840
2684.40427,0.00831
2682.34410,0.00817
2680.28392,0.00814
2678.22375,0.00821
2676.16358,0.00816
2674.10341,0.00796
2672.04324,0.00774
2669.98306,0.00764
2667.92289,0.00775
2665.86272,0.00793
2663.80255,0.00804
2661.74238,0.00804
2659.68220,0.00806
2657.62203,0.00813
2655.56186,0.00816
2653.50169,0.00808
2651.44151,0.00783
2649.38134,0.00751
2647.32117,0.00743
2645.26100,0.00751
2643.20083,0.00742
2641.14065,0.00721
2639.08048,0.00711
2637.02031,0.00707
2634.96014,0.00701
2632.89997,0.00701
2630.83979,0.00714
2628.77962,0.00721
2626.71945,0.00702
2624.65928,0.00686
2622.59910,0.00692
2620.53893,0.00700
2618.47876,0.00706
2616.41859,0.00714
2614.35842,0.00702
2612.29824,0.00669
2610.23807,0.00651
2608.17790,0.00651
2606.11773,0.00654
2604.05756,0.00685
2601.99738,0.00714
2599.93721,0.00680
2597.87704,0.00630
2595.81687,0.00615
2593.75670,0.00624
2591.69652,0.00645
2589.63635,0.00638
2587.57618,0.00608
2585.51601,0.00602
2583.45583,0.00608
2581.39566,0.00610
2579.33549,0.00626
2577.27532,0.00658
2575.21515,0.00670
2573.15497,0.00653
2571.09480,0.00639
2569.03463,0.00638
2566.97446,0.00650
2564.91429,0.00665
2562.85411,0.00657
2560.79394,0.00643
2558.73377,0.00631
2556.67360,0.00616
2554.61342,0.00625
2552.55325,0.00639
2550.49308,0.00620
2548.43291,0.00614
2546.37274,0.00643
2544.31256,0.00651
2542.25239,0.00608
2540.19222,0.00566
2538.13205,0.00565
2536.07188,0.00591
2534.01170,0.00630
2531.95153,0.00659
2529.89136,0.00659
2527.83119,0.00646
2525.77102,0.00625
2523.71084,0.00595
2521.65067,0.00563
2519.59050,0.00571
2517.53033,0.00619
2515.47015,0.00623
2513.40998,0.00589
2511.34981,0.00598
2509.28964,0.00642
2507.22947,0.00677
2505.16929,0.00684
2503.10912,0.00670
2501.04895,0.00669
2498.98878,0.00687
2496.92861,0.00689
2494.86843,0.00677
2492.80826,0.00678
2490.74809,0.00695
2488.68792,0.00711
2486.62775,0.00700
2484.56757,0.00678
2482.50740,0.00692
2480.44723,0.00731
2478.38706,0.00758
2476.32688,0.00749
2474.26671,0.00727
2472.20654,0.00713
2470.14637,0.00678
2468.08620,0.00653
2466.02602,0.00648
2463.96585,0.00652
2461.90568,0.00684
2459.84551,0.00700
2457.78534,0.00677
2455.72516,0.00664
2453.66499,0.00680
2451.60482,0.00696
2449.54465,0.00712
2447.48447,0.00759
2445.42430,0.00814
2443.36413,0.00814
2441.30396,0.00763
2439.24379,0.00720
2437.18361,0.00695
2435.12344,0.00698
2433.06327,0.00738
2431.00310,0.00765
2428.94293,0.00756
2426.88275,0.00724
2424.82258,0.00700
2422.76241,0.00704
2420.70224,0.00706
2418.64207,0.00689
2416.58189,0.00666
2414.52172,0.00658
2412.46155,0.00670
2410.40138,0.00675
2408.34120,0.00682
2406.28103,0.00697
2404.22086,0.00701
2402.16069,0.00702
2400.10052,0.00706
2398.04034,0.00687
2395.98017,0.00681
2393.92000,0.00673
2391.85983,0.00663
2389.79966,0.00670
2387.73948,0.00703
2385.67931,0.00742
2383.61914,0.00755
2381.55897,0.00733
2379.49880,0.00716
2377.43862,0.00742
2375.37845,0.00771
2373.31828,0.00711
2371.25811,0.00554
2369.19793,0.00387
2367.13776,0.00363
2365.07759,0.00614
2363.01742,0.00912
2360.95725,0.00891
2358.89707,0.00685
2356.83690,0.00645
2354.77673,0.00739
2352.71656,0.00779
2350.65639,0.00781
2348.59621,0.00791
2346.53604,0.00818
2344.47587,0.00850
2342.41570,0.00845
2340.35552,0.00794
2338.29535,0.00736
2336.23518,0.00690
2334.17501,0.00715
2332.11484,0.00788
2330.05466,0.00789
2327.99449,0.00725
2325.93432,0.00709
2323.87415,0.00754
2321.81398,0.00798
2319.75380,0.00828
2317.69363,0.00843
2315.63346,0.00826
2313.57329,0.00785
2311.51312,0.00751
2309.45294,0.00718
2307.39277,0.00680
2305.33260,0.00662
2303.27243,0.00657
2301.21225,0.00659
2299.15208,0.00678
2297.09191,0.00707
2295.03174,0.00735
2292.97157,0.00746
2290.91139,0.00754
2288.85122,0.00787
2286.79105,0.00808
2284.73088,0.00788
2282.67071,0.00756
2280.61053,0.00739
2278.55036,0.00726
2276.49019,0.00689
2274.43002,0.00648
2272.36984,0.00643
2270.30967,0.00650
2268.24950,0.00640
2266.18933,0.00660
2264.12916,0.00718
2262.06898,0.00734
2260.00881,0.00686
2257.94864,0.00612
2255.88847,0.00584
2253.82830,0.00662
2251.76812,0.00753
2249.70795,0.00751
2247.64778,0.00696
2245.58761,0.00644
2243.52744,0.00642
2241.46726,0.00654
2239.40709,0.00611
2237.34692,0.00566
2235.28675,0.00551
2233.22657,0.00584
2231.16640,0.00649
2229.10623,0.00661
2227.04606,0.00622
2224.98589,0.00610
2222.92571,0.00665
2220.86554,0.00695
2218.80537,0.00605
2216.74520,0.00510
2214.68503,0.00547
2212.62485,0.00617
2210.56468,0.00584
2208.50451,0.00521
2206.44434,0.00541
2204.38417,0.00597
2202.32399,0.00600
2200.26382,0.00569
2198.20365,0.00558
2196.14348,0.00568
2194.08330,0.00576
2192.02313,0.00549
2189.96296,0.00517
2187.90279,0.00556
2185.84262,0.00575
2183.78244,0.00515
2181.72227,0.00553
2179.66210,0.00665
2177.60193,0.00634
2175.54176,0.00515
2173.48158,0.00482
2171.42141,0.00463
2169.36124,0.00368
2167.30107,0.00362
2165.24089,0.00464
2163.18072,0.00477
2161.12055,0.00411
2159.06038,0.00420
2157.00021,0.00446
2154.94003,0.00394
2152.87986,0.00356
2150.81969,0.00321
2148.75952,0.00264
2146.69935,0.00224
2144.63917,0.00188
2142.57900,0.00131
2140.51883,0.00102
2138.45866,0.00182
2136.39849,0.00268
2134.33831,0.00298
2132.27814,0.00343
2130.21797,0.00362
2128.15780,0.00363
2126.09762,0.00374
2124.03745,0.00355
2121.97728,0.00344
2119.91711,0.00384
2117.85694,0.00410
2115.79676,0.00382
2113.73659,0.00347
2111.67642,0.00319
2109.61625,0.00290
2107.55608,0.00311
2105.49590,0.00386
2103.43573,0.00453
2101.37556,0.00476
2099.31539,0.00450
2097.25521,0.00383
2095.19504,0.00319
2093.13487,0.00329
2091.07470,0.00414
2089.01453,0.00502
2086.95435,0.00548
2084.89418,0.00555
2082.83401,0.00511
2080.77384,0.00446
2078.71367,0.00417
2076.65349,0.00415
2074.59332,0.00415
2072.53315,0.00404
2070.47298,0.00365
2068.41281,0.00347
2066.35263,0.00394
2064.29246,0.00460
2062.23229,0.00494
2060.17212,0.00494
2058.11194,0.00474
2056.05177,0.00434
2053.99160,0.00366
2051.93143,0.00281
2049.87126,0.00236
2047.81108,0.00318
2045.75091,0.00509
2043.69074,0.00625
2041.63057,0.00575
2039.57040,0.00495
2037.51022,0.00443
2035.45005,0.00378
2033.38988,0.00340
2031.32971,0.00309
2029.26954,0.00257
2027.20936,0.00238
2025.14919,0.00237
2023.08902,0.00241
2021.02885,0.00190
2018.96867,0.00052
2016.90850,0.00048
2014.84833,0.00268
2012.78816,0.00455
2010.72799,0.00445
2008.66781,0.00298
2006.60764,0.00136
2004.54747,0.00026
2002.48730,0.00000
2000.42713,0.00092
1998.36695,0.00264
1996.30678,0.00401
1994.24661,0.00453
1992.18644,0.00386
1990.12626,0.00217
1988.06609,0.00141
1986.00592,0.00216
1983.94575,0.00289
1981.88558,0.00306
1979.82540,0.00257
1977.76523,0.00155
1975.70506,0.00141
1973.64489,0.00178
1971.58472,0.00115
1969.52454,0.00041
1967.46437,0.00060
1965.40420,0.00061
1963.34403,0.00000
1961.28386,0.00003
1959.22368,0.00125
1957.16351,0.00266
1955.10334,0.00323
1953.04317,0.00316
1950.98299,0.00331
1948.92282,0.00368
1946.86265,0.00359
1944.80248,0.00291
1942.74231,0.00216
1940.68213,0.00146
1938.62196,0.00117
1936.56179,0.00168
1934.50162,0.00238
1932.44145,0.00277
1930.38127,0.00303
1928.32110,0.00317
1926.26093,0.00311
1924.20076,0.00305
1922.14059,0.00324
1920.08041,0.00338
1918.02024,0.00338
1915.96007,0.00347
1913.89990,0.00332
1911.83972,0.00289
1909.77955,0.00267
1907.71938,0.00264
1905.65921,0.00267
1903.59904,0.00303
1901.53886,0.00350
1899.47869,0.00354
1897.41852,0.00329
1895.35835,0.00313
1893.29818,0.00319
1891.23800,0.00350
1889.17783,0.00386
1887.11766,0.00403
1885.05749,0.00394
1882.99731,0.00368
1880.93714,0.00344
1878.87697,0.00338
1876.81680,0.00343
1874.75663,0.00336
1872.69645,0.00314
1870.63628,0.00290
1868.57611,0.00277
1866.51594,0.00277
1864.45577,0.00288
1862.39559,0.00297
1860.33542,0.00304
1858.27525,0.00314
1856.21508,0.00322
1854.15491,0.00332
1852.09473,0.00344
1850.03456,0.00343
1847.97439,0.00341
1845.91422,0.00364
1843.85404,0.00395
1841.79387,0.00401
1839.73370,0.00393
1837.67353,0.00375
1835.61336,0.00338
1833.55318,0.00303
1831.49301,0.00297
1829.43284,0.00315
1827.37267,0.00337
1825.31250,0.00356
1823.25232,0.00367
1821.19215,0.00368
1819.13198,0.00353
1817.07181,0.00331
1815.01163,0.00319
1812.95146,0.00322
1810.89129,0.00332
1808.83112,0.00343
1806.77095,0.00354
1804.71077,0.00370
1802.65060,0.00387
1800.59043,0.00379
1798.53026,0.00344
1796.47009,0.00324
1794.40991,0.00342
1792.34974,0.00366
1790.28957,0.00368
1788.22940,0.00362
1786.16923,0.00361
1784.10905,0.00363
1782.04888,0.00362
1779.98871,0.00355
1777.92854,0.00341
1775.86836,0.00330
1773.80819,0.00329
1771.74802,0.00335
1769.68785,0.00341
1767.62768,0.00348
1765.56750,0.00355
1763.50733,0.00367
1761.44716,0.00382
1759.38699,0.00388
1757.32682,0.00387
1755.26664,0.00395
1753.20647,0.00412
1751.14630,0.00441
1749.08613,0.00468
1747.02596,0.00474
1744.96578,0.00466
1742.90561,0.00459
1740.84544,0.00459
1738.78527,0.00474
1736.72509,0.00500
1734.66492,0.00530
1732.60475,0.00547
1730.54458,0.00546
1728.48441,0.00536
1726.42423,0.00529
1724.36406,0.00540
1722.30389,0.00559
1720.24372,0.00568
1718.18355,0.00568
1716.12337,0.00575
1714.06320,0.00580
1712.00303,0.00577
1709.94286,0.00585
1707.88268,0.00605
1705.82251,0.00623
1703.76234,0.00625
1701.70217,0.00627
1699.64200,0.00656
1697.58182,0.00688
1695.52165,0.00693
1693.46148,0.00682
1691.40131,0.00679
1689.34114,0.00688
1687.28096,0.00704
1685.22079,0.00725
1683.16062,0.00746
1681.10045,0.00749
1679.04028,0.00737
1676.98010,0.00728
1674.91993,0.00743
1672.85976,0.00778
1670.79959,0.00799
1668.73941,0.00787
1666.67924,0.00767
1664.61907,0.00769
1662.55890,0.00786
1660.49873,0.00803
1658.43855,0.00821
1656.37838,0.00840
1654.31821,0.00838
1652.25804,0.00808
1650.19787,0.00781
1648.13769,0.00774
1646.07752,0.00786
1644.01735,0.00809
1641.95718,0.00824
1639.89701,0.00828
1637.83683,0.00823
1635.77666,0.00792
1633.71649,0.00738
1631.65632,0.00705
1629.59614,0.00702
1627.53597,0.00714
1625.47580,0.00727
1623.41563,0.00730
1621.35546,0.00710
1619.29528,0.00675
1617.23511,0.00649
1615.17494,0.00649
1613.11477,0.00662
1611.05460,0.00660
1608.99442,0.00645
1606.93425,0.00637
1604.87408,0.00633
1602.81391,0.00628
1600.75373,0.00625
1598.69356,0.00617
1596.63339,0.00592
1594.57322,0.00563
1592.51305,0.00545
1590.45287,0.00535
1588.39270,0.00515
1586.33253,0.00487
1584.27236,0.00466
1582.21219,0.00455
1580.15201,0.00444
1578.09184,0.00431
1576.03167,0.00411
1573.97150,0.00387
1571.91133,0.00370
1569.85115,0.00366
1567.79098,0.00369
1565.73081,0.00374
1563.67064,0.00371
1561.61046,0.00344
1559.55029,0.00304
1557.49012,0.00295
1555.42995,0.00319
1553.36978,0.00334
1551.30960,0.00326
1549.24943,0.00303
1547.18926,0.00275
1545.12909,0.00246
1543.06892,0.00230
1541.00874,0.00226
1538.94857,0.00226
1536.88840,0.00229
1534.82823,0.00229
1532.76805,0.00214
1530.70788,0.00197
1528.64771,0.00191
1526.58754,0.00198
1524.52737,0.00216
1522.46719,0.00240
1520.40702,0.00258
1518.34685,0.00266
1516.28668,0.00260
1514.22651,0.00235
1512.16633,0.00209
1510.10616,0.00198
1508.04599,0.00200
1505.98582,0.00201
1503.92565,0.00188
1501.86547,0.00170
1499.80530,0.00155
1497.74513,0.00152
1495.68496,0.00162
1493.62478,0.00169
1491.56461,0.00173
1489.50444,0.00176
1487.44427,0.00168
1485.38410,0.00151
1483.32392,0.00135
1481.26375,0.00126
1479.20358,0.00128
1477.14341,0.00136
1475.08324,0.00138
1473.02306,0.00140
1470.96289,0.00151
1468.90272,0.00167
1466.84255,0.00182
1464.78238,0.00186
1462.72220,0.00177
1460.66203,0.00172
1458.60186,0.00182
1456.54169,0.00195
1454.48151,0.00189
1452.42134,0.00174
1450.36117,0.00166
1448.30100,0.00163
1446.24083,0.00154
1444.18065,0.00141
1442.12048,0.00132
1440.06031,0.00129
1438.00014,0.00128
1435.93997,0.00118
1433.87979,0.00104
1431.81962,0.00100
1429.75945,0.00099
1427.69928,0.00089
1425.63910,0.00088
1423.57893,0.00101
1421.51876,0.00113
1419.45859,0.00112
1417.39842,0.00108
1415.33824,0.00105
1413.27807,0.00100
1411.21790,0.00095
1409.15773,0.00097
1407.09756,0.00104
1405.03738,0.00109
1402.97721,0.00109
1400.91704,0.00108
1398.85687,0.00106
1396.79670,0.00108
1394.73652,0.00120
1392.67635,0.00131
1390.61618,0.00129
1388.55601,0.00120
1386.49583,0.00122
1384.43566,0.00134
1382.37549,0.00142
1380.31532,0.00144
1378.25515,0.00156
1376.19497,0.00173
1374.13480,0.00176
1372.07463,0.00168
1370.01446,0.00166
1367.95429,0.00174
1365.89411,0.00179
1363.83394,0.00169
1361.77377,0.00145
1359.71360,0.00131
1357.65343,0.00143
1355.59325,0.00157
1353.53308,0.00151
1351.47291,0.00135
1349.41274,0.00130
1347.35256,0.00136
1345.29239,0.00148
1343.23222,0.00159
1341.17205,0.00165
1339.11188,0.00164
1337.05170,0.00160
1334.99153,0.00153
1332.93136,0.00143
1330.87119,0.00137
1328.81102,0.00134
1326.75084,0.00133
1324.69067,0.00132
1322.63050,0.00135
1320.57033,0.00136
1318.51015,0.00132
1316.44998,0.00133
1314.38981,0.00139
1312.32964,0.00136
1310.26947,0.00120
1308.20929,0.00107
1306.14912,0.00106
1304.08895,0.00107
1302.02878,0.00107
1299.96861,0.00114
1297.90843,0.00118
1295.84826,0.00113
1293.78809,0.00113
1291.72792,0.00126
1289.66775,0.00142
1287.60757,0.00146
1285.54740,0.00134
1283.48723,0.00120
1281.42706,0.00122
1279.36688,0.00132
1277.30671,0.00134
1275.24654,0.00127
1273.18637,0.00124
1271.12620,0.00125
1269.06602,0.00122
1267.00585,0.00122
1264.94568,0.00130
1262.88551,0.00132
1260.82534,0.00122
1258.76516,0.00120
1256.70499,0.00130
1254.64482,0.00131
1252.58465,0.00121
1250.52447,0.00115
1248.46430,0.00109
1246.40413,0.00091
1244.34396,0.00069
1242.28379,0.00063
1240.22361,0.00069
1238.16344,0.00066
1236.10327,0.00063
1234.04310,0.00076
1231.98293,0.00087
1229.92275,0.00084
1227.86258,0.00082
1225.80241,0.00086
1223.74224,0.00082
1221.68207,0.00071
1219.62189,0.00065
1217.56172,0.00069
1215.50155,0.00080
1213.44138,0.00085
1211.38120,0.00070
1209.32103,0.00059
1207.26086,0.00069
1205.20069,0.00080
1203.14052,0.00084
1201.08034,0.00081
1199.02017,0.00068
1196.96000,0.00070
1194.89983,0.00097
1192.83966,0.00122
1190.77948,0.00139
1188.71931,0.00162
1186.65914,0.00191
1184.59897,0.00220
1182.53880,0.00242
1180.47862,0.00259
1178.41845,0.00282
1176.35828,0.00318
1174.29811,0.00368
1172.23793,0.00415
1170.17776,0.00453
1168.11759,0.00492
1166.05742,0.00528
1163.99725,0.00555
1161.93707,0.00592
1159.87690,0.00640
1157.81673,0.00672
1155.75656,0.00693
1153.69639,0.00725
1151.63621,0.00762
1149.57604,0.00799
1147.51587,0.00843
1145.45570,0.00885
1143.39552,0.00917
1141.33535,0.00960
1139.27518,0.01020
1137.21501,0.01075
1135.15484,0.01125
1133.09466,0.01189
1131.03449,0.01253
1128.97432,0.01298
1126.91415,0.01335
1124.85398,0.01376
1122.79380,0.01431
1120.73363,0.01496
1118.67346,0.01547
1116.61329,0.01571
1114.55312,0.01602
1112.49294,0.01668
1110.43277,0.01731
1108.37260,0.01777
1106.31243,0.01827
1104.25225,0.01881
1102.19208,0.01923
1100.13191,0.01962
1098.07174,0.02016
1096.01157,0.02085
1093.95139,0.02148
1091.89122,0.02185
1089.83105,0.02206
1087.77088,0.02239
1085.71071,0.02282
1083.65053,0.02311
1081.59036,0.02343
1079.53019,0.02390
1077.47002,0.02424
1075.40985,0.02425
1073.34967,0.02431
1071.28950,0.02468
1069.22933,0.02488
1067.16916,0.02476
1065.10898,0.02468
1063.04881,0.02468
1060.98864,0.02468
1058.92847,0.02471
1056.86830,0.02460
1054.80812,0.02429
1052.74795,0.02396
1050.68778,0.02365
1048.62761,0.02332
1046.56744,0.02287
1044.50726,0.02214
1042.44709,0.02134
1040.38692,0.02082
1038.32675,0.02040
1036.26657,0.01979
1034.20640,0.01920
1032.14623,0.01884
1030.08606,0.01848
1028.02589,0.01802
1025.96571,0.01750
1023.90554,0.01690
1021.84537,0.01627
1019.78520,0.01579
1017.72503,0.01551
1015.66485,0.01529
1013.60468,0.01498
1011.54451,0.01454
1009.48434,0.01428
1007.42417,0.01438
1005.36399,0.01466
1003.30382,0.01498
1001.24365,0.01521
999.18348,0.01530
997.12330,0.01541
995.06313,0.01570
993.00296,0.01601
990.94279,0.01633
988.88262,0.01672
986.82244,0.01708
984.76227,0.01729
982.70210,0.01727
980.64193,0.01713
978.58176,0.01684
976.52158,0.01651
974.46141,0.01624
972.40124,0.01589
970.34107,0.01553
968.28089,0.01515
966.22072,0.01459
964.16055,0.01393
962.10038,0.01320
960.04021,0.01246
957.98003,0.01200
955.91986,0.01189
953.85969,0.01174
951.79952,0.01126
949.73935,0.01077
947.67917,0.01052
945.61900,0.01046
943.55883,0.01048
941.49866,0.01058
939.43849,0.01056
937.37831,0.01027
935.31814,0.00999
933.25797,0.00994
931.19780,0.01011
929.13762,0.01015
927.07745,0.01003
925.01728,0.00998
922.95711,0.00984
920.89694,0.00963
918.83676,0.00954
916.77659,0.00941
914.71642,0.00921
912.65625,0.00906
910.59608,0.00877
908.53590,0.00837
906.47573,0.00811
904.41556,0.00805
902.35539,0.00791
900.29522,0.00767
898.23504,0.00767
896.17487,0.00791
894.11470,0.00825
892.05453,0.00855
889.99435,0.00858
887.93418,0.00845
885.87401,0.00835
883.81384,0.00828
881.75367,0.00839
879.69349,0.00881
877.63332,0.00934
875.57315,0.00950
873.51298,0.00937
871.45281,0.00952
869.39263,0.00976
867.33246,0.00959
865.27229,0.00936
863.21212,0.00958
861.15194,0.00996
859.09177,0.00989
857.03160,0.00957
854.97143,0.00933
852.91126,0.00916
850.85108,0.00904
848.79091,0.00875
846.73074,0.00837
844.67057,0.00815
842.61040,0.00801
840.55022,0.00778
838.49005,0.00736
836.42988,0.00708
834.36971,0.00694
832.30954,0.00649
830.24936,0.00591
828.18919,0.00549
826.12902,0.00518
824.06885,0.00512
822.00867,0.00514
819.94850,0.00484
817.88833,0.00443
815.82816,0.00425
813.76799,0.00400
811.70781,0.00369
809.64764,0.00381
807.58747,0.00397
805.52730,0.00368
803.46713,0.00339
801.40695,0.00337
799.34678,0.00338
797.28661,0.00348
795.22644,0.00366
793.16627,0.00350
791.10609,0.00309
789.04592,0.00286
786.98575,0.00283
784.92558,0.00311
782.86540,0.00344
780.80523,0.00324
778.74506,0.00263
776.68489,0.00205
774.62472,0.00184
772.56454,0.00199
770.50437,0.00209
768.44420,0.00190
766.38403,0.00163
764.32386,0.00144
762.26368,0.00146
760.20351,0.00171
758.14334,0.00180
756.08317,0.00151
754.02299,0.00119
751.96282,0.00102
749.90265,0.00101
747.84248,0.00151
745.78231,0.00231
743.72213,0.00250
741.66196,0.00198
739.60179,0.00126
737.54162,0.00077
735.48145,0.00099
733.42127,0.00152
731.36110,0.00159
729.30093,0.00125
727.24076,0.00087
725.18059,0.00083
723.12041,0.00103
721.06024,0.00071
719.00007,0.00035
716.93990,0.00038
714.87972,0.00043
712.81955,0.00041
710.75938,0.00073
708.69921,0.00132
706.63904,0.00149
704.57886,0.00106
702.51869,0.00082
700.45852,0.00100
698.39835,0.00103
696.33818,0.00081
694.27800,0.00057
692.21783,0.00029
690.15766,0.00015
688.09749,0.00051
686.03731,0.00129
683.97714,0.00185
681.91697,0.00174
679.85680,0.00153
677.79663,0.00174
675.73645,0.00189
673.67628,0.00173
671.61611,0.00157
669.55594,0.00158
667.49577,0.00135
665.43559,0.00042
663.37542,-0.00007
661.31525,0.00023
659.25508,0.00130
657.19491,0.00208
655.13473,0.00145
653.07456,0.00016
651.01439,-0.00033
648.95422,0.00000
646.89404,0.00035
644.83387,0.00066
642.77370,0.00126
640.71353,0.00219
638.65336,0.00231
636.59318,0.00118
634.53301,0.00042
632.47284,0.00058
630.41267,0.00003
628.35250,-0.00129
626.29232,-0.00136
624.23215,0.00016
622.17198,0.00117
620.11181,0.00082
618.05164,-0.00036
615.99146,-0.00124
613.93129,-0.00110
611.87112,-0.00044
609.81095,0.00000
607.75077,-0.00078
605.69060,-0.00265
603.63043,-0.00331
601.57026,-0.00169
599.51009,0.00000
