3996.73391,0.00069
3994.67373,0.00055
3992.61356,0.00062
3990.55339,0.00099
3988.49322,0.00132
3986.43305,0.00117
3984.37287,0.00083
3982.31270,0.00071
3980.25253,0.00066
3978.19236,0.00050
3976.13219,0.00043
3974.07201,0.00053
3972.01184,0.00055
3969.95167,0.00028
3967.89150,0.00000
3965.83133,0.00001
3963.77115,0.00025
3961.71098,0.00053
3959.65081,0.00070
3957.59064,0.00078
3955.53046,0.00079
3953.47029,0.00068
3951.41012,0.00050
3949.34995,0.00043
3947.28978,0.00048
3945.22960,0.00059
3943.16943,0.00068
3941.10926,0.00066
3939.04909,0.00064
3936.98892,0.00083
3934.92874,0.00110
3932.86857,0.00112
3930.80840,0.00094
3928.74823,0.00087
3926.68805,0.00093
3924.62788,0.00093
3922.56771,0.00087
3920.50754,0.00105
3918.44737,0.00141
3916.38719,0.00148
3914.32702,0.00113
3912.26685,0.00090
3910.20668,0.00105
3908.14651,0.00127
3906.08633,0.00123
3904.02616,0.00097
3901.96599,0.00083
3899.90582,0.00090
3897.84565,0.00093
3895.78547,0.00099
3893.72530,0.00113
3891.66513,0.00123
3889.60496,0.00133
3887.54478,0.00137
3885.48461,0.00118
3883.42444,0.00096
3881.36427,0.00089
3879.30410,0.00093
3877.24392,0.00113
3875.18375,0.00129
3873.12358,0.00118
3871.06341,0.00090
3869.00324,0.00073
3866.94306,0.00082
3864.88289,0.00097
3862.82272,0.00099
3860.76255,0.00093
3858.70237,0.00100
3856.64220,0.00120
3854.58203,0.00122
3852.52186,0.00087
3850.46169,0.00074
3848.40151,0.00101
3846.34134,0.00130
3844.28117,0.00137
3842.22100,0.00129
3840.16083,0.00115
3838.10065,0.00104
3836.04048,0.00101
3833.98031,0.00107
3831.92014,0.00110
3829.85997,0.00098
3827.79979,0.00076
3825.73962,0.00059
3823.67945,0.00056
3821.61928,0.00067
3819.55910,0.00099
3817.49893,0.00116
3815.43876,0.00090
3813.37859,0.00068
3811.31842,0.00083
3809.25824,0.00102
3807.19807,0.00096
3805.13790,0.00097
3803.07773,0.00132
3801.01756,0.00156
3798.95738,0.00142
3796.89721,0.00102
3794.83704,0.00074
3792.77687,0.00087
3790.71670,0.00114
3788.65652,0.00131
3786.59635,0.00147
3784.53618,0.00160
3782.47601,0.00173
3780.41583,0.00185
3778.35566,0.00176
3776.29549,0.00163
3774.23532,0.00162
3772.17515,0.00161
3770.11497,0.00152
3768.05480,0.00161
3765.99463,0.00199
3763.93446,0.00235
3761.87429,0.00248
3759.81411,0.00247
3757.75394,0.00225
3755.69377,0.00176
3753.63360,0.00117
3751.57342,0.00052
3749.51325,0.00011
3747.45308,0.00021
3745.39291,0.00021
3743.33274,0.00000
3741.27256,0.00034
3739.21239,0.00113
3737.15222,0.00187
3735.09205,0.00232
3733.03188,0.00224
3730.97170,0.00174
3728.91153,0.00129
3726.85136,0.00129
3724.79119,0.00170
3722.73102,0.00199
3720.67084,0.00176
3718.61067,0.00138
3716.55050,0.00140
3714.49033,0.00178
3712.43015,0.00188
3710.36998,0.00159
3708.30981,0.00173
3706.24964,0.00214
3704.18947,0.00221
3702.12929,0.00195
3700.06912,0.00181
3698.00895,0.00201
3695.94878,0.00240
3693.88861,0.00283
3691.82843,0.00296
3689.76826,0.00260
3687.70809,0.00220
3685.64792,0.00224
3683.58775,0.00256
3681.52757,0.00277
3679.46740,0.00264
3677.40723,0.00216
3675.34706,0.00174
3673.28688,0.00208
3671.22671,0.00276
3669.16654,0.00303
3667.10637,0.00300
3665.04620,0.00303
3662.98602,0.00315
3660.92585,0.00351
3658.86568,0.00408
3656.80551,0.00443
3654.74534,0.00447
3652.68516,0.00462
3650.62499,0.00496
3648.56482,0.00539
3646.50465,0.00573
3644.44447,0.00581
3642.38430,0.00578
3640.32413,0.00598
3638.26396,0.00646
3636.20379,0.00698
3634.14361,0.00754
3632.08344,0.00814
3630.02327,0.00849
3627.96310,0.00854
3625.90293,0.00871
3623.84275,0.00919
3621.78258,0.00980
3619.72241,0.01038
3617.66224,0.01083
3615.60207,0.01104
3613.54189,0.01113
3611.48172,0.01132
3609.42155,0.01185
3607.36138,0.01266
3605.30120,0.01342
3603.24103,0.01404
3601.18086,0.01454
3599.12069,0.01463
3597.06052,0.01441
3595.00034,0.01464
3592.94017,0.01545
3590.88000,0.01601
3588.81983,0.01613
3586.75966,0.01637
3584.69948,0.01683
3582.63931,0.01725
3580.57914,0.01749
3578.51897,0.01750
3576.45879,0.01751
3574.39862,0.01792
3572.33845,0.01865
3570.27828,0.01930
3568.21811,0.01964
3566.15793,0.01993
3564.09776,0.02054
3562.03759,0.02115
3559.97742,0.02138
3557.91725,0.02150
3555.85707,0.02185
3553.79690,0.02236
3551.73673,0.02283
3549.67656,0.02314
3547.61639,0.02332
3545.55621,0.02372
3543.49604,0.02436
3541.43587,0.02479
3539.37570,0.02490
3537.31552,0.02515
3535.25535,0.02574
3533.19518,0.02633
3531.13501,0.02675
3529.07484,0.02713
3527.01466,0.02765
3524.95449,0.02834
3522.89432,0.02889
3520.83415,0.02907
3518.77398,0.02913
3516.71380,0.02933
3514.65363,0.02969
3512.59346,0.03017
3510.53329,0.03057
3508.47312,0.03083
3506.41294,0.03111
3504.35277,0.03136
3502.29260,0.03151
3500.23243,0.03179
3498.17225,0.03216
3496.11208,0.03245
3494.05191,0.03288
3491.99174,0.03335
3489.93157,0.03355
3487.87139,0.03379
3485.81122,0.03421
3483.75105,0.03454
3481.69088,0.03480
3479.63071,0.03494
3477.57053,0.03498
3475.51036,0.03529
3473.45019,0.03576
3471.39002,0.03599
3469.32984,0.03620
3467.26967,0.03686
3465.20950,0.03766
3463.14933,0.03792
3461.08916,0.03783
3459.02898,0.03795
3456.96881,0.03843
3454.90864,0.03911
3452.84847,0.03969
3450.78830,0.03989
3448.72812,0.03993
3446.66795,0.04012
3444.60778,0.04029
3442.54761,0.04033
3440.48744,0.04063
3438.42726,0.04111
3436.36709,0.04130
3434.30692,0.04116
3432.24675,0.04099
3430.18657,0.04123
3428.12640,0.04194
3426.06623,0.04254
3424.00606,0.04264
3421.94589,0.04258
3419.88571,0.04266
3417.82554,0.04281
3415.76537,0.04303
3413.70520,0.04347
3411.64503,0.04388
3409.58485,0.04398
3407.52468,0.04394
3405.46451,0.04397
3403.40434,0.04403
3401.34416,0.04405
3399.28399,0.04423
3397.22382,0.04472
3395.16365,0.04516
3393.10348,0.04526
3391.04330,0.04533
3388.98313,0.04547
3386.92296,0.04557
3384.86279,0.04584
3382.80262,0.04622
3380.74244,0.04633
3378.68227,0.04637
3376.62210,0.04663
3374.56193,0.04693
3372.50176,0.04712
3370.44158,0.04706
3368.38141,0.04688
3366.32124,0.04697
3364.26107,0.04731
3362.20089,0.04737
3360.14072,0.04716
3358.08055,0.04719
3356.02038,0.04747
3353.96021,0.04766
3351.90003,0.04767
3349.83986,0.04755
3347.77969,0.04744
3345.71952,0.04748
3343.65935,0.04765
3341.59917,0.04794
3339.53900,0.04812
3337.47883,0.04806
3335.41866,0.04799
3333.35849,0.04806
3331.29831,0.04818
3329.23814,0.04826
3327.17797,0.04830
3325.11780,0.04830
3323.05762,0.04835
3320.99745,0.04849
3318.93728,0.04861
3316.87711,0.04852
3314.81694,0.04839
3312.75676,0.04842
3310.69659,0.04834
3308.63642,0.04828
3306.57625,0.04858
3304.51608,0.04905
3302.45590,0.04931
3300.39573,0.04923
3298.33556,0.04911
3296.27539,0.04920
3294.21521,0.04926
3292.15504,0.04931
3290.09487,0.04947
3288.03470,0.04947
3285.97453,0.04933
3283.91435,0.04938
3281.85418,0.04955
3279.79401,0.04960
3277.73384,0.04944
3275.67367,0.04907
3273.61349,0.04881
3271.55332,0.04892
3269.49315,0.04924
3267.43298,0.04946
3265.37281,0.04946
3263.31263,0.04927
3261.25246,0.04917
3259.19229,0.04936
3257.13212,0.04968
3255.07194,0.04987
3253.01177,0.04973
3250.95160,0.04930
3248.89143,0.04902
3246.83126,0.04909
3244.77108,0.04940
3242.71091,0.04960
3240.65074,0.04938
3238.59057,0.04900
3236.53040,0.04894
3234.47022,0.04913
3232.41005,0.04923
3230.34988,0.04923
3228.28971,0.04931
3226.22954,0.04948
3224.16936,0.04968
3222.10919,0.04982
3220.04902,0.04974
3217.98885,0.04951
3215.92867,0.04933
3213.86850,0.04916
3211.80833,0.04898
3209.74816,0.04895
3207.68799,0.04908
3205.62781,0.04917
3203.56764,0.04903
3201.50747,0.04880
3199.44730,0.04881
3197.38713,0.04908
3195.32695,0.04923
3193.26678,0.04915
3191.20661,0.04887
3189.14644,0.04848
3187.08626,0.04838
3185.02609,0.04849
3182.96592,0.04819
3180.90575,0.04768
3178.84558,0.04753
3176.78540,0.04752
3174.72523,0.04748
3172.66506,0.04763
3170.60489,0.04773
3168.54472,0.04762
3166.48454,0.04744
3164.42437,0.04713
3162.36420,0.04681
3160.30403,0.04675
3158.24386,0.04684
3156.18368,0.04670
3154.12351,0.04622
3152.06334,0.04577
3150.00317,0.04551
3147.94299,0.04527
3145.88282,0.04508
3143.82265,0.04495
3141.76248,0.04483
3139.70231,0.04482
3137.64213,0.04486
3135.58196,0.04477
3133.52179,0.04470
3131.46162,0.04468
3129.40145,0.04450
3127.34127,0.04422
3125.28110,0.04407
3123.22093,0.04389
3121.16076,0.04370
3119.10058,0.04378
3117.04041,0.04372
3114.98024,0.04322
3112.92007,0.04279
3110.85990,0.04255
3108.79972,0.04234
3106.73955,0.04237
3104.67938,0.04245
3102.61921,0.04227
3100.55904,0.04195
3098.49886,0.04165
3096.43869,0.04128
3094.37852,0.04092
3092.31835,0.04072
3090.25818,0.04072
3088.19800,0.04065
3086.13783,0.04039
3084.07766,0.04026
3082.01749,0.04027
3079.95731,0.04007
3077.89714,0.03985
3075.83697,0.03982
3073.77680,0.03971
3071.71663,0.03942
3069.65645,0.03923
3067.59628,0.03920
3065.53611,0.03907
3063.47594,0.03871
3061.41577,0.03832
3059.35559,0.03808
3057.29542,0.03793
3055.23525,0.03756
3053.17508,0.03703
3051.11491,0.03677
3049.05473,0.03679
3046.99456,0.03682
3044.93439,0.03677
3042.87422,0.03662
3040.81404,0.03628
3038.75387,0.03594
3036.69370,0.03567
3034.63353,0.03531
3032.57336,0.03495
3030.51318,0.03481
3028.45301,0.03475
3026.39284,0.03458
3024.33267,0.03436
3022.27250,0.03417
3020.21232,0.03399
3018.15215,0.03387
3016.09198,0.03389
3014.03181,0.03380
3011.97163,0.03340
3009.91146,0.03296
3007.85129,0.03265
3005.79112,0.03231
3003.73095,0.03197
3001.67077,0.03190
2999.61060,0.03190
2997.55043,0.03161
2995.49026,0.03126
2993.43009,0.03105
2991.36991,0.03093
2989.30974,0.03089
2987.24957,0.03086
2985.18940,0.03074
2983.12923,0.03053
2981.06905,0.03035
2979.00888,0.03025
2976.94871,0.03022
2974.88854,0.03025
2972.82836,0.03013
2970.76819,0.02978
2968.70802,0.02954
2966.64785,0.02963
2964.58768,0.02969
2962.52750,0.02956
2960.46733,0.02951
2958.40716,0.02960
2956.34699,0.02971
2954.28682,0.02975
2952.22664,0.02969
2950.16647,0.02965
2948.10630,0.02955
2946.04613,0.02939
2943.98596,0.02933
2941.92578,0.02933
2939.86561,0.02915
2937.80544,0.02879
2935.74527,0.02856
2933.68509,0.02851
2931.62492,0.02839
2929.56475,0.02825
2927.50458,0.02814
2925.44441,0.02795
2923.38423,0.02773
2921.32406,0.02758
2919.26389,0.02760
2917.20372,0.02761
2915.14355,0.02745
2913.08337,0.02731
2911.02320,0.02733
2908.96303,0.02720
2906.90286,0.02682
2904.84268,0.02656
2902.78251,0.02660
2900.72234,0.02664
2898.66217,0.02654
2896.60200,0.02641
2894.54182,0.02627
2892.48165,0.02609
2890.42148,0.02600
2888.36131,0.02615
2886.30114,0.02649
2884.24096,0.02668
2882.18079,0.02649
2880.12062,0.02619
2878.06045,0.02600
2876.00028,0.02588
2873.94010,0.02566
2871.87993,0.02528
2869.81976,0.02501
2867.75959,0.02498
2865.69941,0.02475
2863.63924,0.02439
2861.57907,0.02445
2859.51890,0.02471
2857.45873,0.02469
2855.39855,0.02437
2853.33838,0.02400
2851.27821,0.02384
2849.21804,0.02399
2847.15787,0.02414
2845.09769,0.02397
2843.03752,0.02360
2840.97735,0.02336
2838.91718,0.02329
2836.85700,0.02317
2834.79683,0.02302
2832.73666,0.02287
2830.67649,0.02274
2828.61632,0.02272
2826.55614,0.02274
2824.49597,0.02272
2822.43580,0.02259
2820.37563,0.02244
2818.31546,0.02245
2816.25528,0.02250
2814.19511,0.02244
2812.13494,0.02242
2810.07477,0.02234
2808.01460,0.02204
2805.95442,0.02164
2803.89425,0.02128
2801.83408,0.02106
2799.77391,0.02109
2797.71373,0.02117
2795.65356,0.02112
2793.59339,0.02096
2791.53322,0.02080
2789.47305,0.02073
2787.41287,0.02066
2785.35270,0.02059
2783.29253,0.02060
2781.23236,0.02063
2779.17219,0.02052
2777.11201,0.02039
2775.05184,0.02026
2772.99167,0.01999
2770.93150,0.01971
2768.87133,0.01957
2766.81115,0.01948
2764.75098,0.01941
2762.69081,0.01951
2760.63064,0.01963
2758.57046,0.01947
2756.51029,0.01903
2754.45012,0.01863
2752.38995,0.01866
2750.32978,0.01901
2748.26960,0.01924
2746.20943,0.01919
2744.14926,0.01885
2742.08909,0.01841
2740.02892,0.01816
2737.96874,0.01821
2735.90857,0.01837
2733.84840,0.01835
2731.78823,0.01821
2729.72805,0.01809
2727.66788,0.01788
2725.60771,0.01768
2723.54754,0.01768
2721.48737,0.01781
2719.42719,0.01789
2717.36702,0.01770
2715.30685,0.01731
2713.24668,0.01708
2711.18651,0.01709
2709.12633,0.01709
2707.06616,0.01696
2705.00599,0.01678
2702.94582,0.01658
2700.88565,0.01631
2698.82547,0.01612
2696.76530,0.01611
2694.70513,0.01615
2692.64496,0.01601
2690.58478,0.01580
2688.52461,0.01568
2686.46444,0.01559
2684.40427,0.01550
2682.34410,0.01533
2680.28392,0.01504
2678.22375,0.01485
2676.16358,0.01484
2674.10341,0.01473
2672.04324,0.01454
2669.98306,0.01430
2667.92289,0.01400
2665.86272,0.01389
2663.80255,0.01406
2661.74238,0.01421
2659.68220,0.01418
2657.62203,0.01406
2655.56186,0.01399
2653.50169,0.01389
2651.44151,0.01365
2649.38134,0.01350
2647.32117,0.01337
2645.26100,0.01324
2643.20083,0.01320
2641.14065,0.01309
2639.08048,0.01292
2637.02031,0.01277
2634.96014,0.01262
2632.89997,0.01260
2630.83979,0.01267
2628.77962,0.01260
2626.71945,0.01248
2624.65928,0.01249
2622.59910,0.01255
2620.53893,0.01249
2618.47876,0.01230
2616.41859,0.01214
2614.35842,0.01202
2612.29824,0.01178
2610.23807,0.01143
2608.17790,0.01129
2606.11773,0.01124
2604.05756,0.01108
2601.99738,0.01105
2599.93721,0.01118
2597.87704,0.01121
2595.81687,0.01112
2593.75670,0.01112
2591.69652,0.01117
2589.63635,0.01114
2587.57618,0.01104
2585.51601,0.01076
2583.45583,0.01060
2581.39566,0.01090
2579.33549,0.01118
2577.27532,0.01097
2575.21515,0.01052
2573.15497,0.01025
2571.09480,0.01033
2569.03463,0.01038
2566.97446,0.01033
2564.91429,0.01058
2562.85411,0.01073
2560.79394,0.01055
2558.73377,0.01042
2556.67360,0.01024
2554.61342,0.01010
2552.55325,0.01013
2550.49308,0.01014
2548.43291,0.01025
2546.37274,0.01038
2544.31256,0.01041
2542.25239,0.01041
2540.19222,0.01026
2538.13205,0.00986
2536.07188,0.00947
2534.01170,0.00947
2531.95153,0.00975
2529.89136,0.01004
2527.83119,0.01040
2525.77102,0.01056
2523.71084,0.01039
2521.65067,0.01049
2519.59050,0.01086
2517.53033,0.01083
2515.47015,0.01044
2513.40998,0.01025
2511.34981,0.01019
2509.28964,0.01021
2507.22947,0.01031
2505.16929,0.01031
2503.10912,0.01026
2501.04895,0.01022
2498.98878,0.01030
2496.92861,0.01050
2494.86843,0.01054
2492.80826,0.01050
2490.74809,0.01061
2488.68792,0.01082
2486.62775,0.01098
2484.56757,0.01093
2482.50740,0.01073
2480.44723,0.01064
2478.38706,0.01078
2476.32688,0.01107
2474.26671,0.01125
2472.20654,0.01116
2470.14637,0.01119
2468.08620,0.01156
2466.02602,0.01172
2463.96585,0.01135
2461.90568,0.01089
2459.84551,0.01061
2457.78534,0.01066
2455.72516,0.01099
2453.66499,0.01111
2451.60482,0.01099
2449.54465,0.01104
2447.48447,0.01130
2445.42430,0.01137
2443.36413,0.01117
2441.30396,0.01119
2439.24379,0.01149
2437.18361,0.01180
2435.12344,0.01169
2433.06327,0.01123
2431.00310,0.01115
2428.94293,0.01151
2426.88275,0.01184
2424.82258,0.01204
2422.76241,0.01212
2420.70224,0.01217
2418.64207,0.01214
2416.58189,0.01191
2414.52172,0.01178
2412.46155,0.01151
2410.40138,0.01096
2408.34120,0.01059
2406.28103,0.01062
2404.22086,0.01095
2402.16069,0.01133
2400.10052,0.01151
2398.04034,0.01134
2395.98017,0.01122
2393.92000,0.01118
2391.85983,0.01130
2389.79966,0.01148
2387.73948,0.01158
2385.67931,0.01172
2383.61914,0.01195
2381.55897,0.01221
2379.49880,0.01258
2377.43862,0.01291
2375.37845,0.01297
2373.31828,0.01273
2371.25811,0.01204
2369.19793,0.01093
2367.13776,0.00998
2365.07759,0.00967
2363.01742,0.01108
2360.95725,0.01538
2358.89707,0.01903
2356.83690,0.01811
2354.77673,0.01561
2352.71656,0.01443
2350.65639,0.01390
2348.59621,0.01333
2346.53604,0.01278
2344.47587,0.01250
2342.41570,0.01249
2340.35552,0.01207
2338.29535,0.01115
2336.23518,0.01017
2334.17501,0.00952
2332.11484,0.00968
2330.05466,0.01084
2327.99449,0.01227
2325.93432,0.01274
2323.87415,0.01208
2321.81398,0.01149
2319.75380,0.01145
2317.69363,0.01154
2315.63346,0.01147
2313.57329,0.01115
2311.51312,0.01104
2309.45294,0.01146
2307.39277,0.01173
2305.33260,0.01129
2303.27243,0.01074
2301.21225,0.01073
2299.15208,0.01108
2297.09191,0.01136
2295.03174,0.01143
2292.97157,0.01138
2290.91139,0.01129
2288.85122,0.01120
2286.79105,0.01114
2284.73088,0.01110
2282.67071,0.01101
2280.61053,0.01072
2278.55036,0.01045
2276.49019,0.01045
2274.43002,0.01037
2272.36984,0.00993
2270.30967,0.00939
2268.24950,0.00893
2266.18933,0.00869
2264.12916,0.00866
2262.06898,0.00857
2260.00881,0.00846
2257.94864,0.00857
2255.88847,0.00895
2253.82830,0.00928
2251.76812,0.00929
2249.70795,0.00910
2247.64778,0.00934
2245.58761,0.00995
2243.52744,0.00990
2241.46726,0.00924
2239.40709,0.00891
2237.34692,0.00883
2235.28675,0.00876
2233.22657,0.00918
2231.16640,0.00955
2229.10623,0.00898
2227.04606,0.00826
2224.98589,0.00779
2222.92571,0.00702
2220.86554,0.00639
2218.80537,0.00634
2216.74520,0.00668
2214.68503,0.00752
2212.62485,0.00890
2210.56468,0.00949
2208.50451,0.00844
2206.44434,0.00738
2204.38417,0.00746
2202.32399,0.00714
2200.26382,0.00571
2198.20365,0.00506
2196.14348,0.00560
2194.08330,0.00628
2192.02313,0.00656
2189.96296,0.00633
2187.90279,0.00648
2185.84262,0.00684
2183.78244,0.00665
2181.72227,0.00666
2179.66210,0.00693
2177.60193,0.00672
2175.54176,0.00691
2173.48158,0.00782
2171.42141,0.00779
2169.36124,0.00669
2167.30107,0.00592
2165.24089,0.00555
2163.18072,0.00591
2161.12055,0.00621
2159.06038,0.00387
2157.00021,0.00087
2154.94003,0.00050
2152.87986,0.00158
2150.81969,0.00239
2148.75952,0.00301
2146.69935,0.00374
2144.63917,0.00442
2142.57900,0.00474
2140.51883,0.00466
2138.45866,0.00468
2136.39849,0.00502
2134.33831,0.00500
2132.27814,0.00410
2130.21797,0.00355
2128.15780,0.00404
2126.09762,0.00472
2124.03745,0.00504
2121.97728,0.00516
2119.91711,0.00541
2117.85694,0.00593
2115.79676,0.00646
2113.73659,0.00647
2111.67642,0.00596
2109.61625,0.00565
2107.55608,0.00576
2105.49590,0.00583
2103.43573,0.00574
2101.37556,0.00568
2099.31539,0.00525
2097.25521,0.00451
2095.19504,0.00422
2093.13487,0.00481
2091.07470,0.00552
2089.01453,0.00530
2086.95435,0.00441
2084.89418,0.00402
2082.83401,0.00447
2080.77384,0.00525
2078.71367,0.00583
2076.65349,0.00580
2074.59332,0.00539
2072.53315,0.00496
2070.47298,0.00455
2068.41281,0.00442
2066.35263,0.00455
2064.29246,0.00462
2062.23229,0.00497
2060.17212,0.00564
2058.11194,0.00596
2056.05177,0.00617
2053.99160,0.00662
2051.93143,0.00630
2049.87126,0.00481
2047.81108,0.00357
2045.75091,0.00330
2043.69074,0.00309
2041.63057,0.00293
2039.57040,0.00379
2037.51022,0.00558
2035.45005,0.00640
2033.38988,0.00510
2031.32971,0.00299
2029.26954,0.00143
2027.20936,0.00073
2025.14919,0.00036
2023.08902,0.00002
2021.02885,0.00000
2018.96867,0.00058
2016.90850,0.00149
2014.84833,0.00157
2012.78816,0.00078
2010.72799,0.00043
2008.66781,0.00081
2006.60764,0.00150
2004.54747,0.00219
2002.48730,0.00303
2000.42713,0.00415
1998.36695,0.00458
1996.30678,0.00446
1994.24661,0.00504
1992.18644,0.00560
1990.12626,0.00452
1988.06609,0.00278
1986.00592,0.00226
1983.94575,0.00211
1981.88558,0.00104
1979.82540,0.00000
1977.76523,-0.00004
1975.70506,0.00038
1973.64489,0.00065
1971.58472,0.00077
1969.52454,0.00098
1967.46437,0.00107
1965.40420,0.00081
1963.34403,0.00062
1961.28386,0.00048
1959.22368,0.00039
1957.16351,0.00102
1955.10334,0.00223
1953.04317,0.00307
1950.98299,0.00325
1948.92282,0.00310
1946.86265,0.00291
1944.80248,0.00292
1942.74231,0.00309
1940.68213,0.00301
1938.62196,0.00244
1936.56179,0.00176
1934.50162,0.00150
1932.44145,0.00178
1930.38127,0.00217
1928.32110,0.00220
1926.26093,0.00208
1924.20076,0.00222
1922.14059,0.00274
1920.08041,0.00318
1918.02024,0.00282
1915.96007,0.00180
1913.89990,0.00132
1911.83972,0.00190
1909.77955,0.00271
1907.71938,0.00275
1905.65921,0.00223
1903.59904,0.00188
1901.53886,0.00174
1899.47869,0.00172
1897.41852,0.00193
1895.35835,0.00219
1893.29818,0.00221
1891.23800,0.00207
1889.17783,0.00200
1887.11766,0.00220
1885.05749,0.00254
1882.99731,0.00275
1880.93714,0.00283
1878.87697,0.00283
1876.81680,0.00280
1874.75663,0.00279
1872.69645,0.00272
1870.63628,0.00265
1868.57611,0.00273
1866.51594,0.00297
1864.45577,0.00306
1862.39559,0.00295
1860.33542,0.00277
1858.27525,0.00251
1856.21508,0.00227
1854.15491,0.00232
1852.09473,0.00260
1850.03456,0.00276
1847.97439,0.00271
1845.91422,0.00286
1843.85404,0.00332
1841.79387,0.00355
1839.73370,0.00333
1837.67353,0.00305
1835.61336,0.00300
1833.55318,0.00304
1831.49301,0.00287
1829.43284,0.00258
1827.37267,0.00262
1825.31250,0.00302
1823.25232,0.00331
1821.19215,0.00341
1819.13198,0.00351
1817.07181,0.00352
1815.01163,0.00332
1812.95146,0.00307
1810.89129,0.00301
1808.83112,0.00322
1806.77095,0.00358
1804.71077,0.00399
1802.65060,0.00421
1800.59043,0.00413
1798.53026,0.00383
1796.47009,0.00346
1794.40991,0.00324
1792.34974,0.00337
1790.28957,0.00367
1788.22940,0.00382
1786.16923,0.00379
1784.10905,0.00368
1782.04888,0.00351
1779.98871,0.00339
1777.92854,0.00340
1775.86836,0.00347
1773.80819,0.00347
1771.74802,0.00342
1769.68785,0.00351
1767.62768,0.00378
1765.56750,0.00406
1763.50733,0.00423
1761.44716,0.00437
1759.38699,0.00465
1757.32682,0.00491
1755.26664,0.00487
1753.20647,0.00463
1751.14630,0.00460
1749.08613,0.00498
1747.02596,0.00539
1744.96578,0.00553
1742.90561,0.00546
1740.84544,0.00535
1738.78527,0.00532
1736.72509,0.00540
1734.66492,0.00560
1732.60475,0.00593
1730.54458,0.00629
1728.48441,0.00660
1726.42423,0.00677
1724.36406,0.00683
1722.30389,0.00687
1720.24372,0.00697
1718.18355,0.00726
1716.12337,0.00768
1714.06320,0.00794
1712.00303,0.00801
1709.94286,0.00804
1707.88268,0.00815
1705.82251,0.00841
1703.76234,0.00866
1701.70217,0.00885
1699.64200,0.00929
1697.58182,0.00996
1695.52165,0.01051
1693.46148,0.01087
1691.40131,0.01111
1689.34114,0.01145
1687.28096,0.01201
1685.22079,0.01270
1683.16062,0.01338
1681.10045,0.01391
1679.04028,0.01433
1676.98010,0.01465
1674.91993,0.01475
1672.85976,0.01479
1670.79959,0.01506
1668.73941,0.01560
1666.67924,0.01608
1664.61907,0.01637
1662.55890,0.01666
1660.49873,0.01695
1658.43855,0.01710
1656.37838,0.01706
1654.31821,0.01702
1652.25804,0.01707
1650.19787,0.01690
1648.13769,0.01675
1646.07752,0.01694
1644.01735,0.01720
1641.95718,0.01738
1639.89701,0.01743
1637.83683,0.01726
1635.77666,0.01697
1633.71649,0.01667
1631.65632,0.01629
1629.59614,0.01594
1627.53597,0.01571
1625.47580,0.01552
1623.41563,0.01527
1621.35546,0.01500
1619.29528,0.01467
1617.23511,0.01436
1615.17494,0.01424
1613.11477,0.01415
1611.05460,0.01391
1608.99442,0.01363
1606.93425,0.01341
1604.87408,0.01328
1602.81391,0.01314
1600.75373,0.01287
1598.69356,0.01243
1596.63339,0.01192
1594.57322,0.01139
1592.51305,0.01091
1590.45287,0.01052
1588.39270,0.01018
1586.33253,0.00983
1584.27236,0.00940
1582.21219,0.00896
1580.15201,0.00859
1578.09184,0.00834
1576.03167,0.00812
1573.97150,0.00785
1571.91133,0.00743
1569.85115,0.00695
1567.79098,0.00666
1565.73081,0.00650
1563.67064,0.00629
1561.61046,0.00610
1559.55029,0.00609
1557.49012,0.00611
1555.42995,0.00583
1553.36978,0.00540
1551.30960,0.00506
1549.24943,0.00491
1547.18926,0.00481
1545.12909,0.00447
1543.06892,0.00382
1541.00874,0.00329
1538.94857,0.00333
1536.88840,0.00358
1534.82823,0.00370
1532.76805,0.00364
1530.70788,0.00344
1528.64771,0.00312
1526.58754,0.00267
1524.52737,0.00222
1522.46719,0.00209
1520.40702,0.00234
1518.34685,0.00252
1516.28668,0.00241
1514.22651,0.00226
1512.16633,0.00219
1510.10616,0.00209
1508.04599,0.00189
1505.98582,0.00170
1503.92565,0.00167
1501.86547,0.00168
1499.80530,0.00164
1497.74513,0.00156
1495.68496,0.00149
1493.62478,0.00140
1491.56461,0.00135
1489.50444,0.00139
1487.44427,0.00147
1485.38410,0.00157
1483.32392,0.00169
1481.26375,0.00175
1479.20358,0.00168
1477.14341,0.00153
1475.08324,0.00148
1473.02306,0.00160
1470.96289,0.00187
1468.90272,0.00209
1466.84255,0.00220
1464.78238,0.00235
1462.72220,0.00250
1460.66203,0.00249
1458.60186,0.00245
1456.54169,0.00261
1454.48151,0.00272
1452.42134,0.00258
1450.36117,0.00240
1448.30100,0.00235
1446.24083,0.00238
1444.18065,0.00234
1442.12048,0.00216
1440.06031,0.00195
1438.00014,0.00189
1435.93997,0.00206
1433.87979,0.00228
1431.81962,0.00240
1429.75945,0.00236
1427.69928,0.00230
1425.63910,0.00230
1423.57893,0.00234
1421.51876,0.00241
1419.45859,0.00245
1417.39842,0.00243
1415.33824,0.00240
1413.27807,0.00243
1411.21790,0.00249
1409.15773,0.00245
1407.09756,0.00230
1405.03738,0.00225
1402.97721,0.00229
1400.91704,0.00221
1398.85687,0.00198
1396.79670,0.00173
1394.73652,0.00169
1392.67635,0.00187
1390.61618,0.00194
1388.55601,0.00181
1386.49583,0.00168
1384.43566,0.00168
1382.37549,0.00178
1380.31532,0.00190
1378.25515,0.00198
1376.19497,0.00202
1374.13480,0.00201
1372.07463,0.00205
1370.01446,0.00216
1367.95429,0.00219
1365.89411,0.00209
1363.83394,0.00197
1361.77377,0.00192
1359.71360,0.00189
1357.65343,0.00182
1355.59325,0.00171
1353.53308,0.00160
1351.47291,0.00151
1349.41274,0.00142
1347.35256,0.00139
1345.29239,0.00148
1343.23222,0.00158
1341.17205,0.00161
1339.11188,0.00164
1337.05170,0.00164
1334.99153,0.00160
1332.93136,0.00163
1330.87119,0.00174
1328.81102,0.00181
1326.75084,0.00175
1324.69067,0.00162
1322.63050,0.00151
1320.57033,0.00147
1318.51015,0.00146
1316.44998,0.00150
1314.38981,0.00162
1312.32964,0.00174
1310.26947,0.00177
1308.20929,0.00175
1306.14912,0.00170
1304.08895,0.00172
1302.02878,0.00187
1299.96861,0.00198
1297.90843,0.00191
1295.84826,0.00182
1293.78809,0.00183
1291.72792,0.00193
1289.66775,0.00208
1287.60757,0.00218
1285.54740,0.00228
1283.48723,0.00250
1281.42706,0.00268
1279.36688,0.00269
1277.30671,0.00265
1275.24654,0.00268
1273.18637,0.00273
1271.12620,0.00277
1269.06602,0.00272
1267.00585,0.00265
1264.94568,0.00260
1262.88551,0.00260
1260.82534,0.00273
1258.76516,0.00294
1256.70499,0.00296
1254.64482,0.00280
1252.58465,0.00265
1250.52447,0.00253
1248.46430,0.00236
1246.40413,0.00211
1244.34396,0.00184
1242.28379,0.00167
1240.22361,0.00159
1238.16344,0.00149
1236.10327,0.00148
1234.04310,0.00160
1231.98293,0.00161
1229.92275,0.00143
1227.86258,0.00125
1225.80241,0.00120
1223.74224,0.00119
1221.68207,0.00105
1219.62189,0.00077
1217.56172,0.00056
1215.50155,0.00048
1213.44138,0.00032
1211.38120,0.00008
1209.32103,0.00000
1207.26086,0.00006
1205.20069,0.00011
1203.14052,0.00019
1201.08034,0.00033
1199.02017,0.00036
1196.96000,0.00032
1194.89983,0.00040
1192.83966,0.00064
1190.77948,0.00105
1188.71931,0.00160
1186.65914,0.00209
1184.59897,0.00258
1182.53880,0.00324
1180.47862,0.00391
1178.41845,0.00449
1176.35828,0.00520
1174.29811,0.00614
1172.23793,0.00724
1170.17776,0.00827
1168.11759,0.00906
1166.05742,0.00963
1163.99725,0.01019
1161.93707,0.01096
1159.87690,0.01179
1157.81673,0.01251
1155.75656,0.01318
1153.69639,0.01385
1151.63621,0.01451
1149.57604,0.01520
1147.51587,0.01601
1145.45570,0.01694
1143.39552,0.01792
1141.33535,0.01884
1139.27518,0.01973
1137.21501,0.02081
1135.15484,0.02208
1133.09466,0.02323
1131.03449,0.02415
1128.97432,0.02506
1126.91415,0.02624
1124.85398,0.02751
1122.79380,0.02855
1120.73363,0.02950
1118.67346,0.03056
1116.61329,0.03182
1114.55312,0.03325
1112.49294,0.03465
1110.43277,0.03587
1108.37260,0.03693
1106.31243,0.03799
1104.25225,0.03920
1102.19208,0.04056
1100.13191,0.04202
1098.07174,0.04339
1096.01157,0.04462
1093.95139,0.04579
1091.89122,0.04689
1089.83105,0.04789
1087.77088,0.04888
1085.71071,0.04984
1083.65053,0.05064
1081.59036,0.05137
1079.53019,0.05224
1077.47002,0.05325
1075.40985,0.05403
1073.34967,0.05450
1071.28950,0.05492
1069.22933,0.05523
1067.16916,0.05537
1065.10898,0.05544
1063.04881,0.05556
1060.98864,0.05572
1058.92847,0.05564
1056.86830,0.05509
1054.80812,0.05434
1052.74795,0.05380
1050.68778,0.05349
1048.62761,0.05300
1046.56744,0.05193
1044.50726,0.05053
1042.44709,0.04919
1040.38692,0.04798
1038.32675,0.04694
1036.26657,0.04591
1034.20640,0.04464
1032.14623,0.04332
1030.08606,0.04225
1028.02589,0.04115
1025.96571,0.03979
1023.90554,0.03857
1021.84537,0.03760
1019.78520,0.03675
1017.72503,0.03600
1015.66485,0.03542
1013.60468,0.03497
1011.54451,0.03448
1009.48434,0.03408
1007.42417,0.03394
1005.36399,0.03387
1003.30382,0.03383
1001.24365,0.03403
999.18348,0.03446
997.12330,0.03508
995.06313,0.03597
993.00296,0.03696
990.94279,0.03790
988.88262,0.03864
986.82244,0.03911
984.76227,0.03938
982.70210,0.03946
980.64193,0.03942
978.58176,0.03921
976.52158,0.03845
974.46141,0.03724
972.40124,0.03613
970.34107,0.03496
968.28089,0.03338
966.22072,0.03161
964.16055,0.02992
962.10038,0.02855
960.04021,0.02757
957.98003,0.02663
955.91986,0.02578
953.85969,0.02523
951.79952,0.02451
949.73935,0.02357
947.67917,0.02310
945.61900,0.02313
943.55883,0.02298
941.49866,0.02266
939.43849,0.02249
937.37831,0.02248
935.31814,0.02237
933.25797,0.02216
931.19780,0.02216
929.13762,0.02215
927.07745,0.02187
925.01728,0.02157
922.95711,0.02136
920.89694,0.02106
918.83676,0.02049
916.77659,0.01969
914.71642,0.01895
912.65625,0.01852
910.59608,0.01815
908.53590,0.01745
906.47573,0.01703
904.41556,0.01723
902.35539,0.01733
900.29522,0.01720
898.23504,0.01719
896.17487,0.01717
894.11470,0.01723
892.05453,0.01746
889.99435,0.01753
887.93418,0.01746
885.87401,0.01756
883.81384,0.01796
881.75367,0.01857
879.69349,0.01910
877.63332,0.01954
875.57315,0.01994
873.51298,0.02041
871.45281,0.02100
869.39263,0.02153
867.33246,0.02189
865.27229,0.02195
863.21212,0.02173
861.15194,0.02139
859.09177,0.02108
857.03160,0.02096
854.97143,0.02087
852.91126,0.02047
850.85108,0.01986
848.79091,0.01932
846.73074,0.01882
844.67057,0.01832
842.61040,0.01788
840.55022,0.01734
838.49005,0.01652
836.42988,0.01567
834.36971,0.01523
832.30954,0.01491
830.24936,0.01428
828.18919,0.01363
826.12902,0.01305
824.06885,0.01237
822.00867,0.01187
819.94850,0.01168
817.88833,0.01147
815.82816,0.01097
813.76799,0.01040
811.70781,0.01010
809.64764,0.00980
807.58747,0.00928
805.52730,0.00909
803.46713,0.00928
801.40695,0.00897
799.34678,0.00818
797.28661,0.00758
795.22644,0.00724
793.16627,0.00700
791.10609,0.00687
789.04592,0.00679
786.98575,0.00686
784.92558,0.00709
782.86540,0.00711
780.80523,0.00673
778.74506,0.00654
776.68489,0.00692
774.62472,0.00709
772.56454,0.00687
770.50437,0.00666
768.44420,0.00616
766.38403,0.00560
764.32386,0.00554
762.26368,0.00579
760.20351,0.00600
758.14334,0.00605
756.08317,0.00577
754.02299,0.00500
751.96282,0.00410
749.90265,0.00413
747.84248,0.00486
745.78231,0.00498
743.72213,0.00454
741.66196,0.00449
739.60179,0.00451
737.54162,0.00411
735.48145,0.00389
733.42127,0.00396
731.36110,0.00396
729.30093,0.00375
727.24076,0.00346
725.18059,0.00364
723.12041,0.00419
721.06024,0.00437
719.00007,0.00457
716.93990,0.00498
714.87972,0.00507
712.81955,0.00491
710.75938,0.00501
708.69921,0.00519
706.63904,0.00496
704.57886,0.00447
702.51869,0.00396
700.45852,0.00342
698.39835,0.00300
696.33818,0.00287
694.27800,0.00288
692.21783,0.00295
690.15766,0.00323
688.09749,0.00397
686.03731,0.00503
683.97714,0.00555
681.91697,0.00509
679.85680,0.00405
677.79663,0.00290
675.73645,0.00233
673.67628,0.00277
671.61611,0.00381
669.55594,0.00539
667.49577,0.00669
665.43559,0.00601
663.37542,0.00509
661.31525,0.00500
659.25508,0.00554
657.19491,0.00560
655.13473,0.00487
653.07456,0.00459
651.01439,0.00481
648.95422,0.00446
646.89404,0.00404
644.83387,0.00472
642.77370,0.00588
640.71353,0.00623
638.65336,0.00593
636.59318,0.00531
634.53301,0.00382
632.47284,0.00228
630.41267,0.00267
628.35250,0.00450
626.29232,0.00566
624.23215,0.00648
622.17198,0.00715
620.11181,0.00730
618.05164,0.00741
615.99146,0.00733
613.93129,0.00599
611.87112,0.00296
609.81095,0.00022
607.75077,0.00000
605.69060,0.00047
603.63043,0.00086
601.57026,0.00049
599.51009,0.00000
