3996.73391,0.00080
3994.67373,0.00078
3992.61356,0.00076
3990.55339,0.00090
3988.49322,0.00103
3986.43305,0.00089
3984.37287,0.00058
3982.31270,0.00048
3980.25253,0.00063
3978.19236,0.00067
3976.13219,0.00050
3974.07201,0.00041
3972.01184,0.00042
3969.95167,0.00030
3967.89150,0.00010
3965.83133,0.00000
3963.77115,0.00010
3961.71098,0.00037
3959.65081,0.00062
3957.59064,0.00085
3955.53046,0.00098
3953.47029,0.00089
3951.41012,0.00078
3949.34995,0.00075
3947.28978,0.00065
3945.22960,0.00056
3943.16943,0.00054
3941.10926,0.00048
3939.04909,0.00037
3936.98892,0.00044
3934.92874,0.00071
3932.86857,0.00078
3930.80840,0.00059
3928.74823,0.00056
3926.68805,0.00086
3924.62788,0.00131
3922.56771,0.00156
3920.50754,0.00156
3918.44737,0.00147
3916.38719,0.00127
3914.32702,0.00103
3912.26685,0.00095
3910.20668,0.00113
3908.14651,0.00134
3906.08633,0.00136
3904.02616,0.00115
3901.96599,0.00101
3899.90582,0.00114
3897.84565,0.00133
3895.78547,0.00145
3893.72530,0.00143
3891.66513,0.00121
3889.60496,0.00106
3887.54478,0.00109
3885.48461,0.00109
3883.42444,0.00104
3881.36427,0.00100
3879.30410,0.00093
3877.24392,0.00088
3875.18375,0.00070
3873.12358,0.00040
3871.06341,0.00035
3869.00324,0.00070
3866.94306,0.00122
3864.88289,0.00155
3862.82272,0.00146
3860.76255,0.00113
3858.70237,0.00099
3856.64220,0.00128
3854.58203,0.00162
3852.52186,0.00143
3850.46169,0.00098
3848.40151,0.00089
3846.34134,0.00110
3844.28117,0.00138
3842.22100,0.00158
3840.16083,0.00165
3838.10065,0.00154
3836.04048,0.00126
3833.98031,0.00093
3831.92014,0.00070
3829.85997,0.00077
3827.79979,0.00101
3825.73962,0.00116
3823.67945,0.00123
3821.61928,0.00118
3819.55910,0.00106
3817.49893,0.00110
3815.43876,0.00091
3813.37859,0.00053
3811.31842,0.00048
3809.25824,0.00064
3807.19807,0.00073
3805.13790,0.00100
3803.07773,0.00151
3801.01756,0.00173
3798.95738,0.00162
3796.89721,0.00148
3794.83704,0.00138
3792.77687,0.00134
3790.71670,0.00122
3788.65652,0.00098
3786.59635,0.00090
3784.53618,0.00105
3782.47601,0.00118
3780.41583,0.00118
3778.35566,0.00110
3776.29549,0.00108
3774.23532,0.00119
3772.17515,0.00143
3770.11497,0.00187
3768.05480,0.00240
3765.99463,0.00259
3763.93446,0.00223
3761.87429,0.00176
3759.81411,0.00156
3757.75394,0.00137
3755.69377,0.00113
3753.63360,0.00095
3751.57342,0.00048
3749.51325,0.00000
3747.45308,0.00031
3745.39291,0.00079
3743.33274,0.00056
3741.27256,0.00022
3739.21239,0.00034
3737.15222,0.00079
3735.09205,0.00139
3733.03188,0.00168
3730.97170,0.00140
3728.91153,0.00113
3726.85136,0.00117
3724.79119,0.00120
3722.73102,0.00096
3720.67084,0.00082
3718.61067,0.00099
3716.55050,0.00133
3714.49033,0.00159
3712.43015,0.00167
3710.36998,0.00183
3708.30981,0.00199
3706.24964,0.00217
3704.18947,0.00233
3702.12929,0.00222
3700.06912,0.00211
3698.00895,0.00228
3695.94878,0.00238
3693.88861,0.00220
3691.82843,0.00202
3689.76826,0.00199
3687.70809,0.00205
3685.64792,0.00212
3683.58775,0.00238
3681.52757,0.00277
3679.46740,0.00294
3677.40723,0.00263
3675.34706,0.00200
3673.28688,0.00193
3671.22671,0.00261
3669.16654,0.00317
3667.10637,0.00323
3665.04620,0.00328
3662.98602,0.00361
3660.92585,0.00422
3658.86568,0.00480
3656.80551,0.00476
3654.74534,0.00421
3652.68516,0.00404
3650.62499,0.00428
3648.56482,0.00460
3646.50465,0.00517
3644.44447,0.00569
3642.38430,0.00591
3640.32413,0.00596
3638.26396,0.00597
3636.20379,0.00618
3634.14361,0.00673
3632.08344,0.00728
3630.02327,0.00743
3627.96310,0.00753
3625.90293,0.00797
3623.84275,0.00859
3621.78258,0.00915
3619.72241,0.00959
3617.66224,0.01005
3615.60207,0.01064
3613.54189,0.01125
3611.48172,0.01161
3609.42155,0.01196
3607.36138,0.01261
3605.30120,0.01335
3603.24103,0.01394
3601.18086,0.01435
3599.12069,0.01441
3597.06052,0.01400
3595.00034,0.01387
3592.94017,0.01460
3590.88000,0.01560
3588.81983,0.01600
3586.75966,0.01582
3584.69948,0.01567
3582.63931,0.01597
3580.57914,0.01651
3578.51897,0.01688
3576.45879,0.01717
3574.39862,0.01776
3572.33845,0.01855
3570.27828,0.01924
3568.21811,0.01953
3566.15793,0.01953
3564.09776,0.01989
3562.03759,0.02054
3559.97742,0.02073
3557.91725,0.02048
3555.85707,0.02057
3553.79690,0.02129
3551.73673,0.02226
3549.67656,0.02292
3547.61639,0.02315
3545.55621,0.02333
3543.49604,0.02370
3541.43587,0.02388
3539.37570,0.02380
3537.31552,0.02393
3535.25535,0.02437
3533.19518,0.02489
3531.13501,0.02551
3529.07484,0.02620
3527.01466,0.02669
3524.95449,0.02694
3522.89432,0.02710
3520.83415,0.02722
3518.77398,0.02735
3516.71380,0.02769
3514.65363,0.02809
3512.59346,0.02844
3510.53329,0.02890
3508.47312,0.02944
3506.41294,0.02968
3504.35277,0.02955
3502.29260,0.02954
3500.23243,0.03003
3498.17225,0.03062
3496.11208,0.03093
3494.05191,0.03130
3491.99174,0.03179
3489.93157,0.03213
3487.87139,0.03251
3485.81122,0.03300
3483.75105,0.03341
3481.69088,0.03371
3479.63071,0.03388
3477.57053,0.03394
3475.51036,0.03415
3473.45019,0.03458
3471.39002,0.03507
3469.32984,0.03551
3467.26967,0.03596
3465.20950,0.03639
3463.14933,0.03648
3461.08916,0.03639
3459.02898,0.03664
3456.96881,0.03707
3454.90864,0.03740
3452.84847,0.03774
3450.78830,0.03798
3448.72812,0.03803
3446.66795,0.03819
3444.60778,0.03856
3442.54761,0.03897
3440.48744,0.03927
3438.42726,0.03935
3436.36709,0.03938
3434.30692,0.03952
3432.24675,0.03965
3430.18657,0.03982
3428.12640,0.04027
3426.06623,0.04076
3424.00606,0.04098
3421.94589,0.04099
3419.88571,0.04104
3417.82554,0.04142
3415.76537,0.04205
3413.70520,0.04264
3411.64503,0.04295
3409.58485,0.04292
3407.52468,0.04280
3405.46451,0.04275
3403.40434,0.04299
3401.34416,0.04330
3399.28399,0.04337
3397.22382,0.04349
3395.16365,0.04371
3393.10348,0.04375
3391.04330,0.04380
3388.98313,0.04399
3386.92296,0.04405
3384.86279,0.04395
3382.80262,0.04390
3380.74244,0.04397
3378.68227,0.04423
3376.62210,0.04455
3374.56193,0.04479
3372.50176,0.04488
3370.44158,0.04472
3368.38141,0.04470
3366.32124,0.04519
3364.26107,0.04583
3362.20089,0.04605
3360.14072,0.04588
3358.08055,0.04568
3356.02038,0.04553
3353.96021,0.04541
3351.90003,0.04531
3349.83986,0.04527
3347.77969,0.04545
3345.71952,0.04578
3343.65935,0.04599
3341.59917,0.04609
3339.53900,0.04618
3337.47883,0.04624
3335.41866,0.04626
3333.35849,0.04643
3331.29831,0.04678
3329.23814,0.04704
3327.17797,0.04697
3325.11780,0.04653
3323.05762,0.04616
3320.99745,0.04630
3318.93728,0.04660
3316.87711,0.04653
3314.81694,0.04639
3312.75676,0.04650
3310.69659,0.04662
3308.63642,0.04674
3306.57625,0.04690
3304.51608,0.04696
3302.45590,0.04694
3300.39573,0.04685
3298.33556,0.04679
3296.27539,0.04681
3294.21521,0.04691
3292.15504,0.04724
3290.09487,0.04773
3288.03470,0.04796
3285.97453,0.04788
3283.91435,0.04774
3281.85418,0.04764
3279.79401,0.04773
3277.73384,0.04789
3275.67367,0.04781
3273.61349,0.04759
3271.55332,0.04758
3269.49315,0.04767
3267.43298,0.04758
3265.37281,0.04739
3263.31263,0.04716
3261.25246,0.04694
3259.19229,0.04706
3257.13212,0.04747
3255.07194,0.04776
3253.01177,0.04762
3250.95160,0.04720
3248.89143,0.04696
3246.83126,0.04710
3244.77108,0.04736
3242.71091,0.04744
3240.65074,0.04725
3238.59057,0.04715
3236.53040,0.04734
3234.47022,0.04746
3232.41005,0.04744
3230.34988,0.04738
3228.28971,0.04728
3226.22954,0.04736
3224.16936,0.04772
3222.10919,0.04787
3220.04902,0.04755
3217.98885,0.04724
3215.92867,0.04734
3213.86850,0.04758
3211.80833,0.04766
3209.74816,0.04766
3207.68799,0.04763
3205.62781,0.04755
3203.56764,0.04748
3201.50747,0.04735
3199.44730,0.04713
3197.38713,0.04701
3195.32695,0.04715
3193.26678,0.04728
3191.20661,0.04702
3189.14644,0.04672
3187.08626,0.04675
3185.02609,0.04674
3182.96592,0.04641
3180.90575,0.04609
3178.84558,0.04589
3176.78540,0.04569
3174.72523,0.04555
3172.66506,0.04560
3170.60489,0.04568
3168.54472,0.04563
3166.48454,0.04539
3164.42437,0.04498
3162.36420,0.04467
3160.30403,0.04466
3158.24386,0.04468
3156.18368,0.04457
3154.12351,0.04444
3152.06334,0.04428
3150.00317,0.04410
3147.94299,0.04397
3145.88282,0.04393
3143.82265,0.04381
3141.76248,0.04343
3139.70231,0.04318
3137.64213,0.04330
3135.58196,0.04338
3133.52179,0.04319
3131.46162,0.04301
3129.40145,0.04284
3127.34127,0.04250
3125.28110,0.04215
3123.22093,0.04206
3121.16076,0.04220
3119.10058,0.04226
3117.04041,0.04185
3114.98024,0.04124
3112.92007,0.04104
3110.85990,0.04114
3108.79972,0.04113
3106.73955,0.04101
3104.67938,0.04081
3102.61921,0.04054
3100.55904,0.04021
3098.49886,0.03991
3096.43869,0.03977
3094.37852,0.03969
3092.31835,0.03943
3090.25818,0.03907
3088.19800,0.03883
3086.13783,0.03877
3084.07766,0.03882
3082.01749,0.03883
3079.95731,0.03867
3077.89714,0.03843
3075.83697,0.03828
3073.77680,0.03816
3071.71663,0.03802
3069.65645,0.03796
3067.59628,0.03779
3065.53611,0.03733
3063.47594,0.03688
3061.41577,0.03668
3059.35559,0.03663
3057.29542,0.03643
3055.23525,0.03598
3053.17508,0.03547
3051.11491,0.03511
3049.05473,0.03496
3046.99456,0.03508
3044.93439,0.03532
3042.87422,0.03538
3040.81404,0.03512
3038.75387,0.03468
3036.69370,0.03434
3034.63353,0.03420
3032.57336,0.03405
3030.51318,0.03394
3028.45301,0.03389
3026.39284,0.03364
3024.33267,0.03339
3022.27250,0.03333
3020.21232,0.03324
3018.15215,0.03306
3016.09198,0.03298
3014.03181,0.03276
3011.97163,0.03226
3009.91146,0.03180
3007.85129,0.03150
3005.79112,0.03115
3003.73095,0.03081
3001.67077,0.03076
2999.61060,0.03079
2997.55043,0.03050
2995.49026,0.03004
2993.43009,0.02981
2991.36991,0.02991
2989.30974,0.03002
2987.24957,0.02997
2985.18940,0.02979
2983.12923,0.02945
2981.06905,0.02908
2979.00888,0.02892
2976.94871,0.02895
2974.88854,0.02891
2972.82836,0.02867
2970.76819,0.02842
2968.70802,0.02829
2966.64785,0.02822
2964.58768,0.02829
2962.52750,0.02853
2960.46733,0.02873
2958.40716,0.02870
2956.34699,0.02861
2954.28682,0.02856
2952.22664,0.02845
2950.16647,0.02834
2948.10630,0.02829
2946.04613,0.02825
2943.98596,0.02825
2941.92578,0.02836
2939.86561,0.02838
2937.80544,0.02815
2935.74527,0.02795
2933.68509,0.02786
2931.62492,0.02773
2929.56475,0.02754
2927.50458,0.02726
2925.44441,0.02687
2923.38423,0.02646
2921.32406,0.02632
2919.26389,0.02660
2917.20372,0.02688
2915.14355,0.02687
2913.08337,0.02669
2911.02320,0.02650
2908.96303,0.02624
2906.90286,0.02599
2904.84268,0.02581
2902.78251,0.02564
2900.72234,0.02548
2898.66217,0.02541
2896.60200,0.02547
2894.54182,0.02544
2892.48165,0.02528
2890.42148,0.02519
2888.36131,0.02526
2886.30114,0.02538
2884.24096,0.02545
2882.18079,0.02553
2880.12062,0.02545
2878.06045,0.02507
2876.00028,0.02469
2873.94010,0.02452
2871.87993,0.02436
2869.81976,0.02415
2867.75959,0.02403
2865.69941,0.02393
2863.63924,0.02387
2861.57907,0.02400
2859.51890,0.02411
2857.45873,0.02394
2855.39855,0.02353
2853.33838,0.02314
2851.27821,0.02307
2849.21804,0.02330
2847.15787,0.02338
2845.09769,0.02310
2843.03752,0.02279
2840.97735,0.02261
2838.91718,0.02247
2836.85700,0.02226
2834.79683,0.02201
2832.73666,0.02194
2830.67649,0.02204
2828.61632,0.02196
2826.55614,0.02174
2824.49597,0.02167
2822.43580,0.02172
2820.37563,0.02173
2818.31546,0.02167
2816.25528,0.02148
2814.19511,0.02125
2812.13494,0.02124
2810.07477,0.02127
2808.01460,0.02115
2805.95442,0.02099
2803.89425,0.02073
2801.83408,0.02049
2799.77391,0.02039
2797.71373,0.02042
2795.65356,0.02052
2793.59339,0.02047
2791.53322,0.02020
2789.47305,0.01997
2787.41287,0.01990
2785.35270,0.01983
2783.29253,0.01980
2781.23236,0.01979
2779.17219,0.01969
2777.11201,0.01955
2775.05184,0.01937
2772.99167,0.01918
2770.93150,0.01903
2768.87133,0.01889
2766.81115,0.01888
2764.75098,0.01894
2762.69081,0.01898
2760.63064,0.01895
2758.57046,0.01873
2756.51029,0.01841
2754.45012,0.01823
2752.38995,0.01825
2750.32978,0.01834
2748.26960,0.01839
2746.20943,0.01832
2744.14926,0.01802
2742.08909,0.01771
2740.02892,0.01766
2737.96874,0.01775
2735.90857,0.01788
2733.84840,0.01787
2731.78823,0.01762
2729.72805,0.01741
2727.66788,0.01737
2725.60771,0.01729
2723.54754,0.01717
2721.48737,0.01703
2719.42719,0.01685
2717.36702,0.01671
2715.30685,0.01653
2713.24668,0.01629
2711.18651,0.01613
2709.12633,0.01612
2707.06616,0.01609
2705.00599,0.01594
2702.94582,0.01582
2700.88565,0.01585
2698.82547,0.01585
2696.76530,0.01574
2694.70513,0.01565
2692.64496,0.01559
2690.58478,0.01542
2688.52461,0.01510
2686.46444,0.01496
2684.40427,0.01506
2682.34410,0.01505
2680.28392,0.01481
2678.22375,0.01459
2676.16358,0.01447
2674.10341,0.01435
2672.04324,0.01420
2669.98306,0.01399
2667.92289,0.01375
2665.86272,0.01374
2663.80255,0.01391
2661.74238,0.01392
2659.68220,0.01384
2657.62203,0.01380
2655.56186,0.01375
2653.50169,0.01355
2651.44151,0.01322
2649.38134,0.01307
2647.32117,0.01303
2645.26100,0.01293
2643.20083,0.01285
2641.14065,0.01276
2639.08048,0.01268
2637.02031,0.01256
2634.96014,0.01227
2632.89997,0.01202
2630.83979,0.01210
2628.77962,0.01219
2626.71945,0.01207
2624.65928,0.01206
2622.59910,0.01221
2620.53893,0.01221
2618.47876,0.01197
2616.41859,0.01171
2614.35842,0.01154
2612.29824,0.01147
2610.23807,0.01151
2608.17790,0.01148
2606.11773,0.01122
2604.05756,0.01095
2601.99738,0.01084
2599.93721,0.01084
2597.87704,0.01077
2595.81687,0.01059
2593.75670,0.01061
2591.69652,0.01081
2589.63635,0.01081
2587.57618,0.01061
2585.51601,0.01027
2583.45583,0.01003
2581.39566,0.01008
2579.33549,0.01021
2577.27532,0.01025
2575.21515,0.01029
2573.15497,0.01050
2571.09480,0.01081
2569.03463,0.01079
2566.97446,0.01047
2564.91429,0.01030
2562.85411,0.01006
2560.79394,0.00966
2558.73377,0.00956
2556.67360,0.00966
2554.61342,0.00978
2552.55325,0.00994
2550.49308,0.00999
2548.43291,0.00998
2546.37274,0.01006
2544.31256,0.01013
2542.25239,0.01016
2540.19222,0.01019
2538.13205,0.01015
2536.07188,0.00994
2534.01170,0.00986
2531.95153,0.01015
2529.89136,0.01050
2527.83119,0.01070
2525.77102,0.01059
2523.71084,0.01033
2521.65067,0.01051
2519.59050,0.01086
2517.53033,0.01077
2515.47015,0.01046
2513.40998,0.01026
2511.34981,0.01005
2509.28964,0.00986
2507.22947,0.00984
2505.16929,0.00986
2503.10912,0.00992
2501.04895,0.01003
2498.98878,0.01030
2496.92861,0.01058
2494.86843,0.01058
2492.80826,0.01052
2490.74809,0.01066
2488.68792,0.01081
2486.62775,0.01086
2484.56757,0.01081
2482.50740,0.01070
2480.44723,0.01060
2478.38706,0.01058
2476.32688,0.01068
2474.26671,0.01066
2472.20654,0.01053
2470.14637,0.01087
2468.08620,0.01164
2466.02602,0.01184
2463.96585,0.01135
2461.90568,0.01094
2459.84551,0.01085
2457.78534,0.01101
2455.72516,0.01125
2453.66499,0.01135
2451.60482,0.01147
2449.54465,0.01149
2447.48447,0.01124
2445.42430,0.01114
2443.36413,0.01130
2441.30396,0.01128
2439.24379,0.01131
2437.18361,0.01163
2435.12344,0.01156
2433.06327,0.01107
2431.00310,0.01109
2428.94293,0.01143
2426.88275,0.01162
2424.82258,0.01183
2422.76241,0.01195
2420.70224,0.01200
2418.64207,0.01198
2416.58189,0.01182
2414.52172,0.01176
2412.46155,0.01171
2410.40138,0.01149
2408.34120,0.01127
2406.28103,0.01119
2404.22086,0.01122
2402.16069,0.01102
2400.10052,0.01062
2398.04034,0.01032
2395.98017,0.01058
2393.92000,0.01106
2391.85983,0.01149
2389.79966,0.01174
2387.73948,0.01168
2385.67931,0.01155
2383.61914,0.01152
2381.55897,0.01161
2379.49880,0.01178
2377.43862,0.01193
2375.37845,0.01196
2373.31828,0.01212
2371.25811,0.01173
2369.19793,0.01007
2367.13776,0.00865
2365.07759,0.00837
2363.01742,0.00836
2360.95725,0.01030
2358.89707,0.01122
2356.83690,0.01043
2354.77673,0.00976
2352.71656,0.01074
2350.65639,0.01427
2348.59621,0.01560
2346.53604,0.01148
2344.47587,0.00969
2342.41570,0.00984
2340.35552,0.00987
2338.29535,0.01018
2336.23518,0.01054
2334.17501,0.01076
2332.11484,0.01083
2330.05466,0.01187
2327.99449,0.01333
2325.93432,0.01459
2323.87415,0.01403
2321.81398,0.01305
2319.75380,0.01245
2317.69363,0.01254
2315.63346,0.01205
2313.57329,0.01119
2311.51312,0.01077
2309.45294,0.01084
2307.39277,0.01104
2305.33260,0.01114
2303.27243,0.01126
2301.21225,0.01136
2299.15208,0.01155
2297.09191,0.01153
2295.03174,0.01116
2292.97157,0.01061
2290.91139,0.01019
2288.85122,0.01010
2286.79105,0.01015
2284.73088,0.01016
2282.67071,0.01013
2280.61053,0.01009
2278.55036,0.01012
2276.49019,0.01017
2274.43002,0.01016
2272.36984,0.01009
2270.30967,0.00995
2268.24950,0.00950
2266.18933,0.00899
2264.12916,0.00913
2262.06898,0.00965
2260.00881,0.00974
2257.94864,0.00950
2255.88847,0.00951
2253.82830,0.00988
2251.76812,0.01001
2249.70795,0.00944
2247.64778,0.00876
2245.58761,0.00885
2243.52744,0.00941
2241.46726,0.00962
2239.40709,0.00951
2237.34692,0.00906
2235.28675,0.00799
2233.22657,0.00709
2231.16640,0.00724
2229.10623,0.00781
2227.04606,0.00795
2224.98589,0.00767
2222.92571,0.00742
2220.86554,0.00715
2218.80537,0.00648
2216.74520,0.00611
2214.68503,0.00674
2212.62485,0.00777
2210.56468,0.00846
2208.50451,0.00842
2206.44434,0.00819
2204.38417,0.00857
2202.32399,0.00850
2200.26382,0.00747
2198.20365,0.00668
2196.14348,0.00654
2194.08330,0.00712
2192.02313,0.00790
2189.96296,0.00729
2187.90279,0.00603
2185.84262,0.00586
2183.78244,0.00669
2181.72227,0.00768
2179.66210,0.00760
2177.60193,0.00637
2175.54176,0.00544
2173.48158,0.00540
2171.42141,0.00609
2169.36124,0.00737
2167.30107,0.00803
2165.24089,0.00720
2163.18072,0.00586
2161.12055,0.00407
2159.06038,0.00149
2157.00021,0.00000
2154.94003,0.00080
2152.87986,0.00280
2150.81969,0.00442
2148.75952,0.00495
2146.69935,0.00513
2144.63917,0.00557
2142.57900,0.00558
2140.51883,0.00501
2138.45866,0.00494
2136.39849,0.00526
2134.33831,0.00478
2132.27814,0.00375
2130.21797,0.00356
2128.15780,0.00432
2126.09762,0.00510
2124.03745,0.00566
2121.97728,0.00603
2119.91711,0.00604
2117.85694,0.00614
2115.79676,0.00643
2113.73659,0.00610
2111.67642,0.00529
2109.61625,0.00482
2107.55608,0.00482
2105.49590,0.00475
2103.43573,0.00472
2101.37556,0.00533
2099.31539,0.00572
2097.25521,0.00518
2095.19504,0.00454
2093.13487,0.00461
2091.07470,0.00482
2089.01453,0.00439
2086.95435,0.00378
2084.89418,0.00397
2082.83401,0.00473
2080.77384,0.00532
2078.71367,0.00552
2076.65349,0.00541
2074.59332,0.00515
2072.53315,0.00474
2070.47298,0.00430
2068.41281,0.00420
2066.35263,0.00418
2064.29246,0.00402
2062.23229,0.00416
2060.17212,0.00473
2058.11194,0.00520
2056.05177,0.00525
2053.99160,0.00545
2051.93143,0.00545
2049.87126,0.00461
2047.81108,0.00400
2045.75091,0.00384
2043.69074,0.00294
2041.63057,0.00155
2039.57040,0.00078
2037.51022,0.00128
2035.45005,0.00235
2033.38988,0.00249
2031.32971,0.00170
2029.26954,0.00100
2027.20936,0.00073
2025.14919,0.00079
2023.08902,0.00107
2021.02885,0.00137
2018.96867,0.00183
2016.90850,0.00221
2014.84833,0.00149
2012.78816,0.00034
2010.72799,0.00000
2008.66781,0.00007
2006.60764,0.00056
2004.54747,0.00218
2002.48730,0.00379
2000.42713,0.00376
1998.36695,0.00272
1996.30678,0.00255
1994.24661,0.00363
1992.18644,0.00424
1990.12626,0.00314
1988.06609,0.00153
1986.00592,0.00116
1983.94575,0.00144
1981.88558,0.00094
1979.82540,0.00037
1977.76523,0.00073
1975.70506,0.00143
1973.64489,0.00173
1971.58472,0.00191
1969.52454,0.00215
1967.46437,0.00182
1965.40420,0.00101
1963.34403,0.00048
1961.28386,0.00017
1959.22368,0.00000
1957.16351,0.00045
1955.10334,0.00147
1953.04317,0.00228
1950.98299,0.00255
1948.92282,0.00241
1946.86265,0.00202
1944.80248,0.00180
1942.74231,0.00210
1940.68213,0.00264
1938.62196,0.00284
1936.56179,0.00257
1934.50162,0.00213
1932.44145,0.00189
1930.38127,0.00204
1928.32110,0.00235
1926.26093,0.00265
1924.20076,0.00311
1922.14059,0.00360
1920.08041,0.00357
1918.02024,0.00296
1915.96007,0.00236
1913.89990,0.00197
1911.83972,0.00196
1909.77955,0.00227
1907.71938,0.00213
1905.65921,0.00154
1903.59904,0.00146
1901.53886,0.00199
1899.47869,0.00248
1897.41852,0.00260
1895.35835,0.00245
1893.29818,0.00235
1891.23800,0.00238
1889.17783,0.00255
1887.11766,0.00277
1885.05749,0.00271
1882.99731,0.00238
1880.93714,0.00207
1878.87697,0.00199
1876.81680,0.00238
1874.75663,0.00297
1872.69645,0.00332
1870.63628,0.00342
1868.57611,0.00334
1866.51594,0.00310
1864.45577,0.00289
1862.39559,0.00285
1860.33542,0.00277
1858.27525,0.00245
1856.21508,0.00215
1854.15491,0.00221
1852.09473,0.00249
1850.03456,0.00257
1847.97439,0.00243
1845.91422,0.00253
1843.85404,0.00298
1841.79387,0.00325
1839.73370,0.00318
1837.67353,0.00305
1835.61336,0.00304
1833.55318,0.00308
1831.49301,0.00297
1829.43284,0.00271
1827.37267,0.00259
1825.31250,0.00282
1823.25232,0.00320
1821.19215,0.00335
1819.13198,0.00326
1817.07181,0.00319
1815.01163,0.00315
1812.95146,0.00300
1810.89129,0.00294
1808.83112,0.00309
1806.77095,0.00327
1804.71077,0.00338
1802.65060,0.00341
1800.59043,0.00344
1798.53026,0.00340
1796.47009,0.00330
1794.40991,0.00336
1792.34974,0.00356
1790.28957,0.00373
1788.22940,0.00391
1786.16923,0.00405
1784.10905,0.00396
1782.04888,0.00374
1779.98871,0.00357
1777.92854,0.00346
1775.86836,0.00334
1773.80819,0.00315
1771.74802,0.00308
1769.68785,0.00334
1767.62768,0.00372
1765.56750,0.00398
1763.50733,0.00412
1761.44716,0.00426
1759.38699,0.00450
1757.32682,0.00478
1755.26664,0.00487
1753.20647,0.00474
1751.14630,0.00470
1749.08613,0.00491
1747.02596,0.00517
1744.96578,0.00536
1742.90561,0.00558
1740.84544,0.00583
1738.78527,0.00598
1736.72509,0.00600
1734.66492,0.00601
1732.60475,0.00608
1730.54458,0.00620
1728.48441,0.00640
1726.42423,0.00658
1724.36406,0.00665
1722.30389,0.00665
1720.24372,0.00671
1718.18355,0.00692
1716.12337,0.00722
1714.06320,0.00750
1712.00303,0.00764
1709.94286,0.00771
1707.88268,0.00793
1705.82251,0.00832
1703.76234,0.00866
1701.70217,0.00902
1699.64200,0.00966
1697.58182,0.01030
1695.52165,0.01058
1693.46148,0.01061
1691.40131,0.01067
1689.34114,0.01096
1687.28096,0.01145
1685.22079,0.01204
1683.16062,0.01263
1681.10045,0.01316
1679.04028,0.01367
1676.98010,0.01415
1674.91993,0.01448
1672.85976,0.01471
1670.79959,0.01506
1668.73941,0.01543
1666.67924,0.01556
1664.61907,0.01560
1662.55890,0.01583
1660.49873,0.01623
1658.43855,0.01651
1656.37838,0.01654
1654.31821,0.01652
1652.25804,0.01667
1650.19787,0.01672
1648.13769,0.01665
1646.07752,0.01661
1644.01735,0.01647
1641.95718,0.01638
1639.89701,0.01648
1637.83683,0.01657
1635.77666,0.01641
1633.71649,0.01608
1631.65632,0.01575
1629.59614,0.01551
1627.53597,0.01530
1625.47580,0.01504
1623.41563,0.01469
1621.35546,0.01437
1619.29528,0.01419
1617.23511,0.01413
1615.17494,0.01405
1613.11477,0.01377
1611.05460,0.01339
1608.99442,0.01311
1606.93425,0.01300
1604.87408,0.01292
1602.81391,0.01265
1600.75373,0.01223
1598.69356,0.01181
1596.63339,0.01145
1594.57322,0.01106
1592.51305,0.01062
1590.45287,0.01021
1588.39270,0.00984
1586.33253,0.00946
1584.27236,0.00904
1582.21219,0.00866
1580.15201,0.00839
1578.09184,0.00810
1576.03167,0.00768
1573.97150,0.00736
1571.91133,0.00716
1569.85115,0.00692
1567.79098,0.00669
1565.73081,0.00645
1563.67064,0.00619
1561.61046,0.00605
1559.55029,0.00602
1557.49012,0.00590
1555.42995,0.00553
1553.36978,0.00513
1551.30960,0.00490
1549.24943,0.00484
1547.18926,0.00473
1545.12909,0.00433
1543.06892,0.00382
1541.00874,0.00376
1538.94857,0.00405
1536.88840,0.00393
1534.82823,0.00356
1532.76805,0.00332
1530.70788,0.00320
1528.64771,0.00301
1526.58754,0.00276
1524.52737,0.00265
1522.46719,0.00287
1520.40702,0.00317
1518.34685,0.00316
1516.28668,0.00290
1514.22651,0.00256
1512.16633,0.00227
1510.10616,0.00211
1508.04599,0.00206
1505.98582,0.00200
1503.92565,0.00187
1501.86547,0.00173
1499.80530,0.00164
1497.74513,0.00165
1495.68496,0.00175
1493.62478,0.00180
1491.56461,0.00174
1489.50444,0.00161
1487.44427,0.00150
1485.38410,0.00146
1483.32392,0.00141
1481.26375,0.00141
1479.20358,0.00155
1477.14341,0.00174
1475.08324,0.00179
1473.02306,0.00181
1470.96289,0.00196
1468.90272,0.00208
1466.84255,0.00216
1464.78238,0.00238
1462.72220,0.00264
1460.66203,0.00270
1458.60186,0.00263
1456.54169,0.00267
1454.48151,0.00269
1452.42134,0.00255
1450.36117,0.00240
1448.30100,0.00238
1446.24083,0.00240
1444.18065,0.00229
1442.12048,0.00206
1440.06031,0.00193
1438.00014,0.00199
1435.93997,0.00214
1433.87979,0.00225
1431.81962,0.00234
1429.75945,0.00241
1427.69928,0.00248
1425.63910,0.00249
1423.57893,0.00242
1421.51876,0.00243
1419.45859,0.00257
1417.39842,0.00264
1415.33824,0.00259
1413.27807,0.00258
1411.21790,0.00260
1409.15773,0.00256
1407.09756,0.00243
1405.03738,0.00226
1402.97721,0.00220
1400.91704,0.00222
1398.85687,0.00217
1396.79670,0.00200
1394.73652,0.00187
1392.67635,0.00185
1390.61618,0.00185
1388.55601,0.00183
1386.49583,0.00188
1384.43566,0.00201
1382.37549,0.00214
1380.31532,0.00214
1378.25515,0.00205
1376.19497,0.00204
1374.13480,0.00209
1372.07463,0.00212
1370.01446,0.00222
1367.95429,0.00234
1365.89411,0.00228
1363.83394,0.00205
1361.77377,0.00191
1359.71360,0.00195
1357.65343,0.00197
1355.59325,0.00185
1353.53308,0.00169
1351.47291,0.00162
1349.41274,0.00162
1347.35256,0.00164
1345.29239,0.00163
1343.23222,0.00156
1341.17205,0.00148
1339.11188,0.00142
1337.05170,0.00136
1334.99153,0.00136
1332.93136,0.00146
1330.87119,0.00157
1328.81102,0.00162
1326.75084,0.00171
1324.69067,0.00184
1322.63050,0.00183
1320.57033,0.00162
1318.51015,0.00139
1316.44998,0.00133
1314.38981,0.00141
1312.32964,0.00149
1310.26947,0.00157
1308.20929,0.00168
1306.14912,0.00175
1304.08895,0.00179
1302.02878,0.00186
1299.96861,0.00187
1297.90843,0.00180
1295.84826,0.00185
1293.78809,0.00203
1291.72792,0.00220
1289.66775,0.00230
1287.60757,0.00234
1285.54740,0.00239
1283.48723,0.00252
1281.42706,0.00261
1279.36688,0.00265
1277.30671,0.00275
1275.24654,0.00285
1273.18637,0.00283
1271.12620,0.00273
1269.06602,0.00264
1267.00585,0.00268
1264.94568,0.00275
1262.88551,0.00275
1260.82534,0.00282
1258.76516,0.00295
1256.70499,0.00288
1254.64482,0.00265
1252.58465,0.00253
1250.52447,0.00255
1248.46430,0.00247
1246.40413,0.00217
1244.34396,0.00179
1242.28379,0.00161
1240.22361,0.00160
1238.16344,0.00156
1236.10327,0.00155
1234.04310,0.00158
1231.98293,0.00150
1229.92275,0.00130
1227.86258,0.00120
1225.80241,0.00128
1223.74224,0.00132
1221.68207,0.00117
1219.62189,0.00100
1217.56172,0.00086
1215.50155,0.00065
1213.44138,0.00042
1211.38120,0.00024
1209.32103,0.00007
1207.26086,0.00000
1205.20069,0.00015
1203.14052,0.00046
1201.08034,0.00066
1199.02017,0.00061
1196.96000,0.00050
1194.89983,0.00061
1192.83966,0.00087
1190.77948,0.00121
1188.71931,0.00165
1186.65914,0.00214
1184.59897,0.00272
1182.53880,0.00341
1180.47862,0.00400
1178.41845,0.00435
1176.35828,0.00485
1174.29811,0.00572
1172.23793,0.00673
1170.17776,0.00771
1168.11759,0.00857
1166.05742,0.00915
1163.99725,0.00964
1161.93707,0.01036
1159.87690,0.01116
1157.81673,0.01181
1155.75656,0.01242
1153.69639,0.01306
1151.63621,0.01366
1149.57604,0.01424
1147.51587,0.01497
1145.45570,0.01588
1143.39552,0.01678
1141.33535,0.01764
1139.27518,0.01856
1137.21501,0.01960
1135.15484,0.02076
1133.09466,0.02188
1131.03449,0.02282
1128.97432,0.02377
1126.91415,0.02487
1124.85398,0.02604
1122.79380,0.02721
1120.73363,0.02812
1118.67346,0.02876
1116.61329,0.02963
1114.55312,0.03090
1112.49294,0.03225
1110.43277,0.03345
1108.37260,0.03458
1106.31243,0.03572
1104.25225,0.03690
1102.19208,0.03799
1100.13191,0.03899
1098.07174,0.04004
1096.01157,0.04116
1093.95139,0.04230
1091.89122,0.04348
1089.83105,0.04464
1087.77088,0.04564
1085.71071,0.04644
1083.65053,0.04725
1081.59036,0.04810
1079.53019,0.04891
1077.47002,0.04962
1075.40985,0.05022
1073.34967,0.05079
1071.28950,0.05128
1069.22933,0.05163
1067.16916,0.05198
1065.10898,0.05220
1063.04881,0.05232
1060.98864,0.05237
1058.92847,0.05210
1056.86830,0.05152
1054.80812,0.05099
1052.74795,0.05066
1050.68778,0.05018
1048.62761,0.04939
1046.56744,0.04846
1044.50726,0.04733
1042.44709,0.04616
1040.38692,0.04517
1038.32675,0.04428
1036.26657,0.04338
1034.20640,0.04215
1032.14623,0.04068
1030.08606,0.03950
1028.02589,0.03846
1025.96571,0.03725
1023.90554,0.03609
1021.84537,0.03521
1019.78520,0.03449
1017.72503,0.03375
1015.66485,0.03305
1013.60468,0.03251
1011.54451,0.03197
1009.48434,0.03147
1007.42417,0.03117
1005.36399,0.03100
1003.30382,0.03099
1001.24365,0.03126
999.18348,0.03171
997.12330,0.03245
995.06313,0.03348
993.00296,0.03438
990.94279,0.03517
988.88262,0.03594
986.82244,0.03648
984.76227,0.03679
982.70210,0.03683
980.64193,0.03659
978.58176,0.03629
976.52158,0.03580
974.46141,0.03487
972.40124,0.03374
970.34107,0.03240
968.28089,0.03086
966.22072,0.02941
964.16055,0.02802
962.10038,0.02668
960.04021,0.02558
957.98003,0.02457
955.91986,0.02352
953.85969,0.02287
951.79952,0.02255
949.73935,0.02209
947.67917,0.02162
945.61900,0.02157
943.55883,0.02161
941.49866,0.02120
939.43849,0.02070
937.37831,0.02062
935.31814,0.02072
933.25797,0.02060
931.19780,0.02040
929.13762,0.02023
927.07745,0.02011
925.01728,0.02005
922.95711,0.01982
920.89694,0.01933
918.83676,0.01880
916.77659,0.01830
914.71642,0.01765
912.65625,0.01704
910.59608,0.01653
908.53590,0.01588
906.47573,0.01540
904.41556,0.01546
902.35539,0.01571
900.29522,0.01583
898.23504,0.01580
896.17487,0.01573
894.11470,0.01587
892.05453,0.01597
889.99435,0.01574
887.93418,0.01570
885.87401,0.01610
883.81384,0.01664
881.75367,0.01724
879.69349,0.01774
877.63332,0.01801
875.57315,0.01818
873.51298,0.01841
871.45281,0.01872
869.39263,0.01910
867.33246,0.01950
865.27229,0.01979
863.21212,0.01990
861.15194,0.01977
859.09177,0.01952
857.03160,0.01919
854.97143,0.01880
852.91126,0.01848
850.85108,0.01804
848.79091,0.01743
846.73074,0.01693
844.67057,0.01657
842.61040,0.01606
840.55022,0.01539
838.49005,0.01476
836.42988,0.01415
834.36971,0.01353
832.30954,0.01306
830.24936,0.01266
828.18919,0.01210
826.12902,0.01135
824.06885,0.01059
822.00867,0.01001
819.94850,0.00965
817.88833,0.00930
815.82816,0.00881
813.76799,0.00837
811.70781,0.00818
809.64764,0.00833
807.58747,0.00837
805.52730,0.00804
803.46713,0.00773
801.40695,0.00734
799.34678,0.00672
797.28661,0.00603
795.22644,0.00550
793.16627,0.00540
791.10609,0.00535
789.04592,0.00521
786.98575,0.00525
784.92558,0.00536
782.86540,0.00549
780.80523,0.00539
778.74506,0.00530
776.68489,0.00568
774.62472,0.00592
772.56454,0.00591
770.50437,0.00615
768.44420,0.00599
766.38403,0.00496
764.32386,0.00429
762.26368,0.00469
760.20351,0.00509
758.14334,0.00494
756.08317,0.00463
754.02299,0.00419
751.96282,0.00358
749.90265,0.00317
747.84248,0.00322
745.78231,0.00325
743.72213,0.00316
741.66196,0.00336
739.60179,0.00340
737.54162,0.00304
735.48145,0.00296
733.42127,0.00301
731.36110,0.00267
729.30093,0.00224
727.24076,0.00232
725.18059,0.00310
723.12041,0.00384
721.06024,0.00344
719.00007,0.00343
716.93990,0.00354
714.87972,0.00324
712.81955,0.00305
710.75938,0.00316
708.69921,0.00347
706.63904,0.00373
704.57886,0.00377
702.51869,0.00344
700.45852,0.00262
698.39835,0.00206
696.33818,0.00238
694.27800,0.00307
692.21783,0.00359
690.15766,0.00410
688.09749,0.00479
686.03731,0.00544
683.97714,0.00572
681.91697,0.00544
679.85680,0.00433
677.79663,0.00285
675.73645,0.00226
673.67628,0.00339
671.61611,0.00500
669.55594,0.00191
667.49577,0.00000
665.43559,0.00662
663.37542,0.00623
661.31525,0.00438
659.25508,0.00381
657.19491,0.00351
655.13473,0.00266
653.07456,0.00226
651.01439,0.00307
648.95422,0.00401
646.89404,0.00415
644.83387,0.00335
642.77370,0.00298
640.71353,0.00282
638.65336,0.00194
636.59318,0.00073
634.53301,0.00000
632.47284,0.00023
630.41267,0.00117
628.35250,0.00137
626.29232,0.00087
624.23215,0.00070
622.17198,-0.00010
620.11181,-0.00066
618.05164,-0.00073
615.99146,-0.00106
613.93129,-0.00036
611.87112,-0.00041
609.81095,-0.00284
607.75077,-0.00420
605.69060,-0.00307
603.63043,-0.00168
601.57026,-0.00055
599.51009,0.00000
