3996.73391,0.00021
3994.67373,0.00002
3992.61356,0.00000
3990.55339,0.00008
3988.49322,0.00032
3986.43305,0.00054
3984.37287,0.00067
3982.31270,0.00077
3980.25253,0.00089
3978.19236,0.00097
3976.13219,0.00109
3974.07201,0.00133
3972.01184,0.00151
3969.95167,0.00155
3967.89150,0.00156
3965.83133,0.00148
3963.77115,0.00112
3961.71098,0.00073
3959.65081,0.00061
3957.59064,0.00058
3955.53046,0.00057
3953.47029,0.00058
3951.41012,0.00048
3949.34995,0.00043
3947.28978,0.00082
3945.22960,0.00096
3943.16943,0.00056
3941.10926,0.00073
3939.04909,0.00118
3936.98892,0.00130
3934.92874,0.00118
3932.86857,0.00093
3930.80840,0.00092
3928.74823,0.00111
3926.68805,0.00105
3924.62788,0.00107
3922.56771,0.00140
3920.50754,0.00130
3918.44737,0.00108
3916.38719,0.00149
3914.32702,0.00209
3912.26685,0.00208
3910.20668,0.00191
3908.14651,0.00189
3906.08633,0.00156
3904.02616,0.00132
3901.96599,0.00148
3899.90582,0.00149
3897.84565,0.00189
3895.78547,0.00223
3893.72530,0.00164
3891.66513,0.00129
3889.60496,0.00217
3887.54478,0.00220
3885.48461,0.00196
3883.42444,0.00264
3881.36427,0.00229
3879.30410,0.00253
3877.24392,0.00343
3875.18375,0.00305
3873.12358,0.00262
3871.06341,0.00232
3869.00324,0.00278
3866.94306,0.00320
3864.88289,0.00243
3862.82272,0.00254
3860.76255,0.00326
3858.70237,0.00344
3856.64220,0.00224
3854.58203,0.00003
3852.52186,0.00058
3850.46169,0.00302
3848.40151,0.00357
3846.34134,0.00280
3844.28117,0.00209
3842.22100,0.00210
3840.16083,0.00205
3838.10065,0.00186
3836.04048,0.00223
3833.98031,0.00236
3831.92014,0.00228
3829.85997,0.00239
3827.79979,0.00209
3825.73962,0.00230
3823.67945,0.00243
3821.61928,0.00192
3819.55910,0.00300
3817.49893,0.00323
3815.43876,0.00288
3813.37859,0.00360
3811.31842,0.00339
3809.25824,0.00195
3807.19807,0.00125
3805.13790,0.00246
3803.07773,0.00239
3801.01756,0.00185
3798.95738,0.00267
3796.89721,0.00266
3794.83704,0.00281
3792.77687,0.00308
3790.71670,0.00268
3788.65652,0.00208
3786.59635,0.00158
3784.53618,0.00163
3782.47601,0.00192
3780.41583,0.00161
3778.35566,0.00189
3776.29549,0.00275
3774.23532,0.00289
3772.17515,0.00233
3770.11497,0.00204
3768.05480,0.00264
3765.99463,0.00291
3763.93446,0.00300
3761.87429,0.00251
3759.81411,0.00168
3757.75394,0.00220
3755.69377,0.00340
3753.63360,0.00325
3751.57342,0.00213
3749.51325,0.00252
3747.45308,0.00311
3745.39291,0.00186
3743.33274,0.00249
3741.27256,0.00449
3739.21239,0.00480
3737.15222,0.00406
3735.09205,0.00344
3733.03188,0.00313
3730.97170,0.00333
3728.91153,0.00353
3726.85136,0.00303
3724.79119,0.00270
3722.73102,0.00262
3720.67084,0.00272
3718.61067,0.00298
3716.55050,0.00332
3714.49033,0.00289
3712.43015,0.00184
3710.36998,0.00229
3708.30981,0.00374
3706.24964,0.00417
3704.18947,0.00327
3702.12929,0.00255
3700.06912,0.00308
3698.00895,0.00336
3695.94878,0.00321
3693.88861,0.00358
3691.82843,0.00378
3689.76826,0.00335
3687.70809,0.00324
3685.64792,0.00337
3683.58775,0.00327
3681.52757,0.00363
3679.46740,0.00445
3677.40723,0.00463
3675.34706,0.00514
3673.28688,0.00684
3671.22671,0.00594
3669.16654,0.00472
3667.10637,0.00532
3665.04620,0.00531
3662.98602,0.00490
3660.92585,0.00519
3658.86568,0.00555
3656.80551,0.00596
3654.74534,0.00762
3652.68516,0.00828
3650.62499,0.00715
3648.56482,0.00739
3646.50465,0.00877
3644.44447,0.00911
3642.38430,0.00850
3640.32413,0.00845
3638.26396,0.00929
3636.20379,0.01030
3634.14361,0.01081
3632.08344,0.01061
3630.02327,0.00949
3627.96310,0.01023
3625.90293,0.01249
3623.84275,0.01314
3621.78258,0.01250
3619.72241,0.01230
3617.66224,0.01380
3615.60207,0.01542
3613.54189,0.01618
3611.48172,0.01674
3609.42155,0.01677
3607.36138,0.01702
3605.30120,0.01782
3603.24103,0.01818
3601.18086,0.01836
3599.12069,0.01898
3597.06052,0.01953
3595.00034,0.02012
3592.94017,0.02123
3590.88000,0.02168
3588.81983,0.02076
3586.75966,0.02080
3584.69948,0.02248
3582.63931,0.02358
3580.57914,0.02383
3578.51897,0.02401
3576.45879,0.02440
3574.39862,0.02506
3572.33845,0.02587
3570.27828,0.02636
3568.21811,0.02655
3566.15793,0.02746
3564.09776,0.02846
3562.03759,0.02826
3559.97742,0.02798
3557.91725,0.02874
3555.85707,0.02983
3553.79690,0.03031
3551.73673,0.03076
3549.67656,0.03163
3547.61639,0.03231
3545.55621,0.03288
3543.49604,0.03368
3541.43587,0.03431
3539.37570,0.03458
3537.31552,0.03482
3535.25535,0.03529
3533.19518,0.03583
3531.13501,0.03627
3529.07484,0.03672
3527.01466,0.03720
3524.95449,0.03776
3522.89432,0.03838
3520.83415,0.03869
3518.77398,0.03871
3516.71380,0.03921
3514.65363,0.04005
3512.59346,0.04057
3510.53329,0.04089
3508.47312,0.04157
3506.41294,0.04219
3504.35277,0.04230
3502.29260,0.04274
3500.23243,0.04341
3498.17225,0.04370
3496.11208,0.04403
3494.05191,0.04461
3491.99174,0.04506
3489.93157,0.04534
3487.87139,0.04577
3485.81122,0.04642
3483.75105,0.04656
3481.69088,0.04647
3479.63071,0.04696
3477.57053,0.04756
3475.51036,0.04823
3473.45019,0.04932
3471.39002,0.05024
3469.32984,0.05049
3467.26967,0.05045
3465.20950,0.05064
3463.14933,0.05106
3461.08916,0.05164
3459.02898,0.05194
3456.96881,0.05188
3454.90864,0.05202
3452.84847,0.05257
3450.78830,0.05330
3448.72812,0.05380
3446.66795,0.05409
3444.60778,0.05430
3442.54761,0.05428
3440.48744,0.05447
3438.42726,0.05500
3436.36709,0.05556
3434.30692,0.05584
3432.24675,0.05589
3430.18657,0.05600
3428.12640,0.05629
3426.06623,0.05672
3424.00606,0.05707
3421.94589,0.05718
3419.88571,0.05747
3417.82554,0.05797
3415.76537,0.05817
3413.70520,0.05819
3411.64503,0.05840
3409.58485,0.05878
3407.52468,0.05901
3405.46451,0.05913
3403.40434,0.05966
3401.34416,0.06050
3399.28399,0.06097
3397.22382,0.06132
3395.16365,0.06173
3393.10348,0.06189
3391.04330,0.06184
3388.98313,0.06176
3386.92296,0.06190
3384.86279,0.06221
3382.80262,0.06234
3380.74244,0.06233
3378.68227,0.06246
3376.62210,0.06259
3374.56193,0.06267
3372.50176,0.06287
3370.44158,0.06325
3368.38141,0.06354
3366.32124,0.06356
3364.26107,0.06348
3362.20089,0.06342
3360.14072,0.06352
3358.08055,0.06365
3356.02038,0.06371
3353.96021,0.06389
3351.90003,0.06410
3349.83986,0.06418
3347.77969,0.06432
3345.71952,0.06451
3343.65935,0.06452
3341.59917,0.06455
3339.53900,0.06471
3337.47883,0.06489
3335.41866,0.06519
3333.35849,0.06545
3331.29831,0.06534
3329.23814,0.06517
3327.17797,0.06535
3325.11780,0.06557
3323.05762,0.06562
3320.99745,0.06571
3318.93728,0.06565
3316.87711,0.06539
3314.81694,0.06535
3312.75676,0.06570
3310.69659,0.06608
3308.63642,0.06607
3306.57625,0.06589
3304.51608,0.06596
3302.45590,0.06645
3300.39573,0.06706
3298.33556,0.06738
3296.27539,0.06735
3294.21521,0.06698
3292.15504,0.06644
3290.09487,0.06617
3288.03470,0.06622
3285.97453,0.06631
3283.91435,0.06625
3281.85418,0.06621
3279.79401,0.06631
3277.73384,0.06648
3275.67367,0.06685
3273.61349,0.06731
3271.55332,0.06750
3269.49315,0.06737
3267.43298,0.06717
3265.37281,0.06705
3263.31263,0.06689
3261.25246,0.06672
3259.19229,0.06680
3257.13212,0.06709
3255.07194,0.06743
3253.01177,0.06775
3250.95160,0.06774
3248.89143,0.06749
3246.83126,0.06736
3244.77108,0.06735
3242.71091,0.06744
3240.65074,0.06735
3238.59057,0.06697
3236.53040,0.06681
3234.47022,0.06703
3232.41005,0.06723
3230.34988,0.06720
3228.28971,0.06687
3226.22954,0.06658
3224.16936,0.06649
3222.10919,0.06642
3220.04902,0.06642
3217.98885,0.06648
3215.92867,0.06648
3213.86850,0.06653
3211.80833,0.06651
3209.74816,0.06633
3207.68799,0.06615
3205.62781,0.06601
3203.56764,0.06598
3201.50747,0.06594
3199.44730,0.06569
3197.38713,0.06543
3195.32695,0.06522
3193.26678,0.06484
3191.20661,0.06450
3189.14644,0.06443
3187.08626,0.06444
3185.02609,0.06422
3182.96592,0.06402
3180.90575,0.06407
3178.84558,0.06408
3176.78540,0.06398
3174.72523,0.06395
3172.66506,0.06407
3170.60489,0.06409
3168.54472,0.06374
3166.48454,0.06336
3164.42437,0.06303
3162.36420,0.06252
3160.30403,0.06202
3158.24386,0.06188
3156.18368,0.06197
3154.12351,0.06204
3152.06334,0.06191
3150.00317,0.06150
3147.94299,0.06118
3145.88282,0.06124
3143.82265,0.06145
3141.76248,0.06147
3139.70231,0.06123
3137.64213,0.06088
3135.58196,0.06058
3133.52179,0.06028
3131.46162,0.05997
3129.40145,0.05959
3127.34127,0.05910
3125.28110,0.05885
3123.22093,0.05897
3121.16076,0.05904
3119.10058,0.05866
3117.04041,0.05809
3114.98024,0.05783
3112.92007,0.05785
3110.85990,0.05778
3108.79972,0.05747
3106.73955,0.05707
3104.67938,0.05675
3102.61921,0.05645
3100.55904,0.05617
3098.49886,0.05591
3096.43869,0.05546
3094.37852,0.05496
3092.31835,0.05459
3090.25818,0.05431
3088.19800,0.05405
3086.13783,0.05383
3084.07766,0.05371
3082.01749,0.05361
3079.95731,0.05333
3077.89714,0.05283
3075.83697,0.05227
3073.77680,0.05189
3071.71663,0.05171
3069.65645,0.05164
3067.59628,0.05158
3065.53611,0.05149
3063.47594,0.05145
3061.41577,0.05141
3059.35559,0.05115
3057.29542,0.05057
3055.23525,0.05000
3053.17508,0.04977
3051.11491,0.04969
3049.05473,0.04953
3046.99456,0.04931
3044.93439,0.04901
3042.87422,0.04854
3040.81404,0.04812
3038.75387,0.04796
3036.69370,0.04782
3034.63353,0.04740
3032.57336,0.04700
3030.51318,0.04684
3028.45301,0.04661
3026.39284,0.04621
3024.33267,0.04593
3022.27250,0.04570
3020.21232,0.04535
3018.15215,0.04495
3016.09198,0.04453
3014.03181,0.04406
3011.97163,0.04366
3009.91146,0.04348
3007.85129,0.04345
3005.79112,0.04332
3003.73095,0.04304
3001.67077,0.04281
2999.61060,0.04276
2997.55043,0.04258
2995.49026,0.04210
2993.43009,0.04164
2991.36991,0.04128
2989.30974,0.04106
2987.24957,0.04100
2985.18940,0.04081
2983.12923,0.04066
2981.06905,0.04065
2979.00888,0.04035
2976.94871,0.03988
2974.88854,0.03971
2972.82836,0.03980
2970.76819,0.04001
2968.70802,0.04012
2966.64785,0.03983
2964.58768,0.03948
2962.52750,0.03939
2960.46733,0.03949
2958.40716,0.03977
2956.34699,0.03996
2954.28682,0.03983
2952.22664,0.03959
2950.16647,0.03939
2948.10630,0.03927
2946.04613,0.03922
2943.98596,0.03918
2941.92578,0.03906
2939.86561,0.03883
2937.80544,0.03866
2935.74527,0.03874
2933.68509,0.03886
2931.62492,0.03879
2929.56475,0.03869
2927.50458,0.03864
2925.44441,0.03842
2923.38423,0.03794
2921.32406,0.03750
2919.26389,0.03739
2917.20372,0.03739
2915.14355,0.03731
2913.08337,0.03717
2911.02320,0.03692
2908.96303,0.03652
2906.90286,0.03615
2904.84268,0.03596
2902.78251,0.03597
2900.72234,0.03612
2898.66217,0.03614
2896.60200,0.03598
2894.54182,0.03585
2892.48165,0.03580
2890.42148,0.03575
2888.36131,0.03559
2886.30114,0.03532
2884.24096,0.03522
2882.18079,0.03524
2880.12062,0.03501
2878.06045,0.03454
2876.00028,0.03431
2873.94010,0.03440
2871.87993,0.03436
2869.81976,0.03414
2867.75959,0.03392
2865.69941,0.03366
2863.63924,0.03345
2861.57907,0.03345
2859.51890,0.03331
2857.45873,0.03299
2855.39855,0.03278
2853.33838,0.03261
2851.27821,0.03243
2849.21804,0.03243
2847.15787,0.03251
2845.09769,0.03234
2843.03752,0.03200
2840.97735,0.03171
2838.91718,0.03148
2836.85700,0.03131
2834.79683,0.03112
2832.73666,0.03094
2830.67649,0.03075
2828.61632,0.03053
2826.55614,0.03032
2824.49597,0.03016
2822.43580,0.03002
2820.37563,0.02977
2818.31546,0.02950
2816.25528,0.02928
2814.19511,0.02918
2812.13494,0.02924
2810.07477,0.02919
2808.01460,0.02897
2805.95442,0.02889
2803.89425,0.02889
2801.83408,0.02868
2799.77391,0.02826
2797.71373,0.02792
2795.65356,0.02782
2793.59339,0.02783
2791.53322,0.02776
2789.47305,0.02755
2787.41287,0.02739
2785.35270,0.02737
2783.29253,0.02738
2781.23236,0.02739
2779.17219,0.02733
2777.11201,0.02719
2775.05184,0.02696
2772.99167,0.02660
2770.93150,0.02637
2768.87133,0.02635
2766.81115,0.02624
2764.75098,0.02596
2762.69081,0.02569
2760.63064,0.02556
2758.57046,0.02557
2756.51029,0.02543
2754.45012,0.02504
2752.38995,0.02482
2750.32978,0.02489
2748.26960,0.02496
2746.20943,0.02487
2744.14926,0.02466
2742.08909,0.02459
2740.02892,0.02470
2737.96874,0.02456
2735.90857,0.02411
2733.84840,0.02384
2731.78823,0.02387
2729.72805,0.02386
2727.66788,0.02378
2725.60771,0.02375
2723.54754,0.02372
2721.48737,0.02351
2719.42719,0.02314
2717.36702,0.02287
2715.30685,0.02272
2713.24668,0.02257
2711.18651,0.02253
2709.12633,0.02248
2707.06616,0.02218
2705.00599,0.02181
2702.94582,0.02170
2700.88565,0.02178
2698.82547,0.02186
2696.76530,0.02175
2694.70513,0.02141
2692.64496,0.02102
2690.58478,0.02074
2688.52461,0.02065
2686.46444,0.02070
2684.40427,0.02070
2682.34410,0.02065
2680.28392,0.02052
2678.22375,0.02015
2676.16358,0.01971
2674.10341,0.01950
2672.04324,0.01942
2669.98306,0.01933
2667.92289,0.01924
2665.86272,0.01916
2663.80255,0.01904
2661.74238,0.01896
2659.68220,0.01892
2657.62203,0.01880
2655.56186,0.01862
2653.50169,0.01840
2651.44151,0.01818
2649.38134,0.01799
2647.32117,0.01775
2645.26100,0.01741
2643.20083,0.01721
2641.14065,0.01719
2639.08048,0.01711
2637.02031,0.01694
2634.96014,0.01679
2632.89997,0.01668
2630.83979,0.01653
2628.77962,0.01627
2626.71945,0.01595
2624.65928,0.01583
2622.59910,0.01583
2620.53893,0.01559
2618.47876,0.01538
2616.41859,0.01556
2614.35842,0.01569
2612.29824,0.01543
2610.23807,0.01507
2608.17790,0.01475
2606.11773,0.01451
2604.05756,0.01439
2601.99738,0.01423
2599.93721,0.01420
2597.87704,0.01450
2595.81687,0.01467
2593.75670,0.01458
2591.69652,0.01458
2589.63635,0.01456
2587.57618,0.01449
2585.51601,0.01454
2583.45583,0.01446
2581.39566,0.01419
2579.33549,0.01377
2577.27532,0.01330
2575.21515,0.01300
2573.15497,0.01302
2571.09480,0.01332
2569.03463,0.01341
2566.97446,0.01321
2564.91429,0.01312
2562.85411,0.01317
2560.79394,0.01332
2558.73377,0.01364
2556.67360,0.01400
2554.61342,0.01415
2552.55325,0.01400
2550.49308,0.01364
2548.43291,0.01326
2546.37274,0.01289
2544.31256,0.01274
2542.25239,0.01296
2540.19222,0.01325
2538.13205,0.01340
2536.07188,0.01355
2534.01170,0.01363
2531.95153,0.01352
2529.89136,0.01347
2527.83119,0.01374
2525.77102,0.01407
2523.71084,0.01399
2521.65067,0.01365
2519.59050,0.01343
2517.53033,0.01319
2515.47015,0.01293
2513.40998,0.01310
2511.34981,0.01363
2509.28964,0.01398
2507.22947,0.01405
2505.16929,0.01402
2503.10912,0.01398
2501.04895,0.01391
2498.98878,0.01386
2496.92861,0.01365
2494.86843,0.01330
2492.80826,0.01320
2490.74809,0.01343
2488.68792,0.01369
2486.62775,0.01393
2484.56757,0.01418
2482.50740,0.01417
2480.44723,0.01381
2478.38706,0.01369
2476.32688,0.01407
2474.26671,0.01436
2472.20654,0.01434
2470.14637,0.01442
2468.08620,0.01464
2466.02602,0.01478
2463.96585,0.01484
2461.90568,0.01474
2459.84551,0.01455
2457.78534,0.01467
2455.72516,0.01494
2453.66499,0.01474
2451.60482,0.01446
2449.54465,0.01471
2447.48447,0.01509
2445.42430,0.01513
2443.36413,0.01497
2441.30396,0.01494
2439.24379,0.01496
2437.18361,0.01503
2435.12344,0.01535
2433.06327,0.01546
2431.00310,0.01511
2428.94293,0.01477
2426.88275,0.01477
2424.82258,0.01500
2422.76241,0.01518
2420.70224,0.01516
2418.64207,0.01494
2416.58189,0.01475
2414.52172,0.01479
2412.46155,0.01482
2410.40138,0.01485
2408.34120,0.01501
2406.28103,0.01502
2404.22086,0.01482
2402.16069,0.01458
2400.10052,0.01441
2398.04034,0.01446
2395.98017,0.01464
2393.92000,0.01464
2391.85983,0.01443
2389.79966,0.01435
2387.73948,0.01463
2385.67931,0.01497
2383.61914,0.01500
2381.55897,0.01483
2379.49880,0.01473
2377.43862,0.01468
2375.37845,0.01446
2373.31828,0.01448
2371.25811,0.01473
2369.19793,0.01463
2367.13776,0.01464
2365.07759,0.01544
2363.01742,0.01593
2360.95725,0.01627
2358.89707,0.01571
2356.83690,0.01554
2354.77673,0.01533
2352.71656,0.01528
2350.65639,0.01700
2348.59621,0.01790
2346.53604,0.01515
2344.47587,0.01432
2342.41570,0.01479
2340.35552,0.01549
2338.29535,0.01648
2336.23518,0.01668
2334.17501,0.01585
2332.11484,0.01476
2330.05466,0.01491
2327.99449,0.01570
2325.93432,0.01674
2323.87415,0.01690
2321.81398,0.01660
2319.75380,0.01569
2317.69363,0.01515
2315.63346,0.01472
2313.57329,0.01461
2311.51312,0.01458
2309.45294,0.01418
2307.39277,0.01375
2305.33260,0.01359
2303.27243,0.01357
2301.21225,0.01343
2299.15208,0.01323
2297.09191,0.01279
2295.03174,0.01242
2292.97157,0.01265
2290.91139,0.01305
2288.85122,0.01303
2286.79105,0.01271
2284.73088,0.01236
2282.67071,0.01229
2280.61053,0.01278
2278.55036,0.01333
2276.49019,0.01305
2274.43002,0.01202
2272.36984,0.01106
2270.30967,0.01097
2268.24950,0.01176
2266.18933,0.01262
2264.12916,0.01289
2262.06898,0.01266
2260.00881,0.01223
2257.94864,0.01160
2255.88847,0.01087
2253.82830,0.01048
2251.76812,0.01036
2249.70795,0.01026
2247.64778,0.01037
2245.58761,0.01066
2243.52744,0.01060
2241.46726,0.01018
2239.40709,0.00973
2237.34692,0.00932
2235.28675,0.00938
2233.22657,0.01012
2231.16640,0.01040
2229.10623,0.00959
2227.04606,0.00862
2224.98589,0.00809
2222.92571,0.00789
2220.86554,0.00778
2218.80537,0.00769
2216.74520,0.00814
2214.68503,0.00869
2212.62485,0.00795
2210.56468,0.00688
2208.50451,0.00734
2206.44434,0.00844
2204.38417,0.00877
2202.32399,0.00863
2200.26382,0.00833
2198.20365,0.00745
2196.14348,0.00643
2194.08330,0.00620
2192.02313,0.00699
2189.96296,0.00823
2187.90279,0.00850
2185.84262,0.00767
2183.78244,0.00706
2181.72227,0.00726
2179.66210,0.00770
2177.60193,0.00763
2175.54176,0.00691
2173.48158,0.00604
2171.42141,0.00604
2169.36124,0.00708
2167.30107,0.00742
2165.24089,0.00669
2163.18072,0.00608
2161.12055,0.00425
2159.06038,0.00258
2157.00021,0.00365
2154.94003,0.00442
2152.87986,0.00431
2150.81969,0.00421
2148.75952,0.00365
2146.69935,0.00364
2144.63917,0.00441
2142.57900,0.00526
2140.51883,0.00611
2138.45866,0.00607
2136.39849,0.00498
2134.33831,0.00431
2132.27814,0.00469
2130.21797,0.00535
2128.15780,0.00580
2126.09762,0.00630
2124.03745,0.00704
2121.97728,0.00782
2119.91711,0.00802
2117.85694,0.00750
2115.79676,0.00692
2113.73659,0.00656
2111.67642,0.00644
2109.61625,0.00632
2107.55608,0.00581
2105.49590,0.00533
2103.43573,0.00548
2101.37556,0.00605
2099.31539,0.00614
2097.25521,0.00542
2095.19504,0.00477
2093.13487,0.00487
2091.07470,0.00535
2089.01453,0.00580
2086.95435,0.00602
2084.89418,0.00596
2082.83401,0.00563
2080.77384,0.00507
2078.71367,0.00486
2076.65349,0.00510
2074.59332,0.00531
2072.53315,0.00526
2070.47298,0.00510
2068.41281,0.00520
2066.35263,0.00526
2064.29246,0.00496
2062.23229,0.00462
2060.17212,0.00474
2058.11194,0.00513
2056.05177,0.00504
2053.99160,0.00461
2051.93143,0.00400
2049.87126,0.00364
2047.81108,0.00433
2045.75091,0.00495
2043.69074,0.00447
2041.63057,0.00408
2039.57040,0.00430
2037.51022,0.00393
2035.45005,0.00276
2033.38988,0.00134
2031.32971,0.00042
2029.26954,0.00107
2027.20936,0.00283
2025.14919,0.00372
2023.08902,0.00407
2021.02885,0.00525
2018.96867,0.00558
2016.90850,0.00433
2014.84833,0.00277
2012.78816,0.00150
2010.72799,0.00130
2008.66781,0.00151
2006.60764,0.00109
2004.54747,0.00046
2002.48730,0.00019
2000.42713,0.00076
1998.36695,0.00177
1996.30678,0.00197
1994.24661,0.00084
1992.18644,0.00000
1990.12626,0.00090
1988.06609,0.00188
1986.00592,0.00239
1983.94575,0.00307
1981.88558,0.00353
1979.82540,0.00356
1977.76523,0.00362
1975.70506,0.00378
1973.64489,0.00357
1971.58472,0.00285
1969.52454,0.00177
1967.46437,0.00084
1965.40420,0.00087
1963.34403,0.00147
1961.28386,0.00158
1959.22368,0.00145
1957.16351,0.00157
1955.10334,0.00162
1953.04317,0.00169
1950.98299,0.00212
1948.92282,0.00271
1946.86265,0.00300
1944.80248,0.00267
1942.74231,0.00214
1940.68213,0.00206
1938.62196,0.00158
1936.56179,0.00085
1934.50162,0.00094
1932.44145,0.00166
1930.38127,0.00221
1928.32110,0.00241
1926.26093,0.00252
1924.20076,0.00245
1922.14059,0.00265
1920.08041,0.00278
1918.02024,0.00251
1915.96007,0.00289
1913.89990,0.00325
1911.83972,0.00295
1909.77955,0.00243
1907.71938,0.00250
1905.65921,0.00283
1903.59904,0.00283
1901.53886,0.00277
1899.47869,0.00262
1897.41852,0.00237
1895.35835,0.00237
1893.29818,0.00254
1891.23800,0.00240
1889.17783,0.00251
1887.11766,0.00317
1885.05749,0.00330
1882.99731,0.00289
1880.93714,0.00256
1878.87697,0.00256
1876.81680,0.00288
1874.75663,0.00329
1872.69645,0.00349
1870.63628,0.00310
1868.57611,0.00271
1866.51594,0.00303
1864.45577,0.00321
1862.39559,0.00304
1860.33542,0.00311
1858.27525,0.00333
1856.21508,0.00335
1854.15491,0.00331
1852.09473,0.00342
1850.03456,0.00361
1847.97439,0.00381
1845.91422,0.00350
1843.85404,0.00309
1841.79387,0.00344
1839.73370,0.00333
1837.67353,0.00293
1835.61336,0.00312
1833.55318,0.00354
1831.49301,0.00353
1829.43284,0.00381
1827.37267,0.00439
1825.31250,0.00412
1823.25232,0.00385
1821.19215,0.00372
1819.13198,0.00348
1817.07181,0.00356
1815.01163,0.00389
1812.95146,0.00388
1810.89129,0.00380
1808.83112,0.00416
1806.77095,0.00453
1804.71077,0.00455
1802.65060,0.00412
1800.59043,0.00380
1798.53026,0.00423
1796.47009,0.00483
1794.40991,0.00454
1792.34974,0.00377
1790.28957,0.00411
1788.22940,0.00456
1786.16923,0.00420
1784.10905,0.00401
1782.04888,0.00414
1779.98871,0.00443
1777.92854,0.00514
1775.86836,0.00547
1773.80819,0.00499
1771.74802,0.00505
1769.68785,0.00589
1767.62768,0.00605
1765.56750,0.00597
1763.50733,0.00544
1761.44716,0.00532
1759.38699,0.00601
1757.32682,0.00612
1755.26664,0.00654
1753.20647,0.00672
1751.14630,0.00621
1749.08613,0.00648
1747.02596,0.00728
1744.96578,0.00769
1742.90561,0.00781
1740.84544,0.00802
1738.78527,0.00890
1736.72509,0.00897
1734.66492,0.00735
1732.60475,0.00788
1730.54458,0.00927
1728.48441,0.00948
1726.42423,0.00945
1724.36406,0.00960
1722.30389,0.01018
1720.24372,0.00990
1718.18355,0.00882
1716.12337,0.00965
1714.06320,0.01127
1712.00303,0.01193
1709.94286,0.01195
1707.88268,0.01175
1705.82251,0.01201
1703.76234,0.01319
1701.70217,0.01311
1699.64200,0.01318
1697.58182,0.01404
1695.52165,0.01412
1693.46148,0.01530
1691.40131,0.01595
1689.34114,0.01653
1687.28096,0.01722
1685.22079,0.01617
1683.16062,0.01667
1681.10045,0.01900
1679.04028,0.01984
1676.98010,0.01920
1674.91993,0.01924
1672.85976,0.02063
1670.79959,0.02078
1668.73941,0.02135
1666.67924,0.02295
1664.61907,0.02272
1662.55890,0.02183
1660.49873,0.02272
1658.43855,0.02398
1656.37838,0.02356
1654.31821,0.02153
1652.25804,0.02309
1650.19787,0.02646
1648.13769,0.02529
1646.07752,0.02347
1644.01735,0.02409
1641.95718,0.02454
1639.89701,0.02438
1637.83683,0.02335
1635.77666,0.02215
1633.71649,0.02309
1631.65632,0.02371
1629.59614,0.02279
1627.53597,0.02225
1625.47580,0.02196
1623.41563,0.02154
1621.35546,0.02244
1619.29528,0.02246
1617.23511,0.02084
1615.17494,0.02079
1613.11477,0.02129
1611.05460,0.02058
1608.99442,0.01975
1606.93425,0.01942
1604.87408,0.01920
1602.81391,0.01884
1600.75373,0.01849
1598.69356,0.01801
1596.63339,0.01734
1594.57322,0.01677
1592.51305,0.01632
1590.45287,0.01566
1588.39270,0.01487
1586.33253,0.01418
1584.27236,0.01374
1582.21219,0.01367
1580.15201,0.01365
1578.09184,0.01247
1576.03167,0.01140
1573.97150,0.01247
1571.91133,0.01234
1569.85115,0.01077
1567.79098,0.01075
1565.73081,0.01102
1563.67064,0.01112
1561.61046,0.00973
1559.55029,0.00671
1557.49012,0.00800
1555.42995,0.00957
1553.36978,0.00884
1551.30960,0.00789
1549.24943,0.00775
1547.18926,0.00813
1545.12909,0.00779
1543.06892,0.00702
1541.00874,0.00571
1538.94857,0.00625
1536.88840,0.00805
1534.82823,0.00702
1532.76805,0.00580
1530.70788,0.00644
1528.64771,0.00625
1526.58754,0.00568
1524.52737,0.00560
1522.46719,0.00486
1520.40702,0.00503
1518.34685,0.00540
1516.28668,0.00488
1514.22651,0.00509
1512.16633,0.00542
1510.10616,0.00497
1508.04599,0.00303
1505.98582,0.00276
1503.92565,0.00481
1501.86547,0.00507
1499.80530,0.00373
1497.74513,0.00273
1495.68496,0.00324
1493.62478,0.00407
1491.56461,0.00320
1489.50444,0.00233
1487.44427,0.00308
1485.38410,0.00388
1483.32392,0.00376
1481.26375,0.00344
1479.20358,0.00375
1477.14341,0.00398
1475.08324,0.00364
1473.02306,0.00309
1470.96289,0.00405
1468.90272,0.00520
1466.84255,0.00458
1464.78238,0.00406
1462.72220,0.00527
1460.66203,0.00562
1458.60186,0.00385
1456.54169,0.00336
1454.48151,0.00518
1452.42134,0.00577
1450.36117,0.00506
1448.30100,0.00439
1446.24083,0.00450
1444.18065,0.00479
1442.12048,0.00487
1440.06031,0.00484
1438.00014,0.00407
1435.93997,0.00414
1433.87979,0.00538
1431.81962,0.00542
1429.75945,0.00511
1427.69928,0.00556
1425.63910,0.00567
1423.57893,0.00575
1421.51876,0.00582
1419.45859,0.00530
1417.39842,0.00594
1415.33824,0.00672
1413.27807,0.00640
1411.21790,0.00593
1409.15773,0.00588
1407.09756,0.00570
1405.03738,0.00552
1402.97721,0.00597
1400.91704,0.00597
1398.85687,0.00549
1396.79670,0.00513
1394.73652,0.00459
1392.67635,0.00472
1390.61618,0.00483
1388.55601,0.00421
1386.49583,0.00419
1384.43566,0.00483
1382.37549,0.00501
1380.31532,0.00496
1378.25515,0.00507
1376.19497,0.00503
1374.13480,0.00501
1372.07463,0.00538
1370.01446,0.00526
1367.95429,0.00490
1365.89411,0.00469
1363.83394,0.00402
1361.77377,0.00367
1359.71360,0.00404
1357.65343,0.00415
1355.59325,0.00392
1353.53308,0.00373
1351.47291,0.00360
1349.41274,0.00345
1347.35256,0.00335
1345.29239,0.00335
1343.23222,0.00330
1341.17205,0.00287
1339.11188,0.00263
1337.05170,0.00310
1334.99153,0.00347
1332.93136,0.00340
1330.87119,0.00318
1328.81102,0.00303
1326.75084,0.00304
1324.69067,0.00321
1322.63050,0.00335
1320.57033,0.00332
1318.51015,0.00332
1316.44998,0.00348
1314.38981,0.00346
1312.32964,0.00334
1310.26947,0.00326
1308.20929,0.00317
1306.14912,0.00322
1304.08895,0.00339
1302.02878,0.00347
1299.96861,0.00345
1297.90843,0.00343
1295.84826,0.00345
1293.78809,0.00357
1291.72792,0.00375
1289.66775,0.00380
1287.60757,0.00377
1285.54740,0.00387
1283.48723,0.00402
1281.42706,0.00411
1279.36688,0.00423
1277.30671,0.00434
1275.24654,0.00436
1273.18637,0.00431
1271.12620,0.00431
1269.06602,0.00439
1267.00585,0.00452
1264.94568,0.00467
1262.88551,0.00469
1260.82534,0.00463
1258.76516,0.00471
1256.70499,0.00476
1254.64482,0.00474
1252.58465,0.00474
1250.52447,0.00459
1248.46430,0.00435
1246.40413,0.00427
1244.34396,0.00421
1242.28379,0.00398
1240.22361,0.00374
1238.16344,0.00357
1236.10327,0.00335
1234.04310,0.00310
1231.98293,0.00298
1229.92275,0.00296
1227.86258,0.00275
1225.80241,0.00225
1223.74224,0.00171
1221.68207,0.00145
1219.62189,0.00143
1217.56172,0.00135
1215.50155,0.00108
1213.44138,0.00082
1211.38120,0.00063
1209.32103,0.00050
1207.26086,0.00035
1205.20069,0.00019
1203.14052,0.00016
1201.08034,0.00026
1199.02017,0.00047
1196.96000,0.00089
1194.89983,0.00132
1192.83966,0.00164
1190.77948,0.00210
1188.71931,0.00266
1186.65914,0.00318
1184.59897,0.00370
1182.53880,0.00432
1180.47862,0.00520
1178.41845,0.00625
1176.35828,0.00732
1174.29811,0.00843
1172.23793,0.00958
1170.17776,0.01066
1168.11759,0.01174
1166.05742,0.01291
1163.99725,0.01413
1161.93707,0.01530
1159.87690,0.01636
1157.81673,0.01743
1155.75656,0.01860
1153.69639,0.01975
1151.63621,0.02070
1149.57604,0.02173
1147.51587,0.02303
1145.45570,0.02425
1143.39552,0.02531
1141.33535,0.02659
1139.27518,0.02803
1137.21501,0.02943
1135.15484,0.03100
1133.09466,0.03271
1131.03449,0.03425
1128.97432,0.03564
1126.91415,0.03699
1124.85398,0.03840
1122.79380,0.03994
1120.73363,0.04161
1118.67346,0.04328
1116.61329,0.04473
1114.55312,0.04623
1112.49294,0.04797
1110.43277,0.04965
1108.37260,0.05129
1106.31243,0.05297
1104.25225,0.05459
1102.19208,0.05622
1100.13191,0.05774
1098.07174,0.05900
1096.01157,0.06016
1093.95139,0.06141
1091.89122,0.06274
1089.83105,0.06409
1087.77088,0.06537
1085.71071,0.06656
1083.65053,0.06772
1081.59036,0.06889
1079.53019,0.07006
1077.47002,0.07110
1075.40985,0.07205
1073.34967,0.07299
1071.28950,0.07358
1069.22933,0.07380
1067.16916,0.07376
1065.10898,0.07357
1063.04881,0.07339
1060.98864,0.07300
1058.92847,0.07239
1056.86830,0.07184
1054.80812,0.07128
1052.74795,0.07038
1050.68778,0.06917
1048.62761,0.06783
1046.56744,0.06648
1044.50726,0.06510
1042.44709,0.06359
1040.38692,0.06197
1038.32675,0.06039
1036.26657,0.05903
1034.20640,0.05778
1032.14623,0.05625
1030.08606,0.05449
1028.02589,0.05288
1025.96571,0.05154
1023.90554,0.05038
1021.84537,0.04931
1019.78520,0.04814
1017.72503,0.04686
1015.66485,0.04563
1013.60468,0.04457
1011.54451,0.04369
1009.48434,0.04306
1007.42417,0.04288
1005.36399,0.04294
1003.30382,0.04298
1001.24365,0.04317
999.18348,0.04384
997.12330,0.04492
995.06313,0.04594
993.00296,0.04685
990.94279,0.04784
988.88262,0.04882
986.82244,0.04970
984.76227,0.05024
982.70210,0.05027
980.64193,0.04990
978.58176,0.04908
976.52158,0.04776
974.46141,0.04621
972.40124,0.04460
970.34107,0.04293
968.28089,0.04117
966.22072,0.03939
964.16055,0.03764
962.10038,0.03593
960.04021,0.03432
957.98003,0.03285
955.91986,0.03162
953.85969,0.03044
951.79952,0.02916
949.73935,0.02809
947.67917,0.02740
945.61900,0.02680
943.55883,0.02612
941.49866,0.02561
939.43849,0.02555
937.37831,0.02552
935.31814,0.02520
933.25797,0.02475
931.19780,0.02449
929.13762,0.02453
927.07745,0.02427
925.01728,0.02344
922.95711,0.02275
920.89694,0.02237
918.83676,0.02187
916.77659,0.02116
914.71642,0.02033
912.65625,0.01962
910.59608,0.01942
908.53590,0.01933
906.47573,0.01889
904.41556,0.01860
902.35539,0.01857
900.29522,0.01834
898.23504,0.01800
896.17487,0.01810
894.11470,0.01870
892.05453,0.01940
889.99435,0.01990
887.93418,0.02038
885.87401,0.02103
883.81384,0.02147
881.75367,0.02159
879.69349,0.02159
877.63332,0.02180
875.57315,0.02251
873.51298,0.02318
871.45281,0.02366
869.39263,0.02425
867.33246,0.02462
865.27229,0.02457
863.21212,0.02458
861.15194,0.02491
859.09177,0.02500
857.03160,0.02448
854.97143,0.02375
852.91126,0.02306
850.85108,0.02244
848.79091,0.02197
846.73074,0.02151
844.67057,0.02100
842.61040,0.02048
840.55022,0.01969
838.49005,0.01883
836.42988,0.01818
834.36971,0.01761
832.30954,0.01712
830.24936,0.01658
828.18919,0.01579
826.12902,0.01521
824.06885,0.01492
822.00867,0.01409
819.94850,0.01287
817.88833,0.01208
815.82816,0.01143
813.76799,0.01066
811.70781,0.01017
809.64764,0.00999
807.58747,0.00986
805.52730,0.00979
803.46713,0.00967
801.40695,0.00934
799.34678,0.00931
797.28661,0.00960
795.22644,0.00969
793.16627,0.00929
791.10609,0.00860
789.04592,0.00828
786.98575,0.00831
784.92558,0.00830
782.86540,0.00817
780.80523,0.00799
778.74506,0.00798
776.68489,0.00820
774.62472,0.00840
772.56454,0.00836
770.50437,0.00837
768.44420,0.00863
766.38403,0.00860
764.32386,0.00804
762.26368,0.00709
760.20351,0.00619
758.14334,0.00588
756.08317,0.00577
754.02299,0.00551
751.96282,0.00535
749.90265,0.00556
747.84248,0.00601
745.78231,0.00615
743.72213,0.00588
741.66196,0.00565
739.60179,0.00569
737.54162,0.00572
735.48145,0.00562
733.42127,0.00570
731.36110,0.00610
729.30093,0.00617
727.24076,0.00541
725.18059,0.00459
723.12041,0.00474
721.06024,0.00505
719.00007,0.00568
716.93990,0.00583
714.87972,0.00534
712.81955,0.00503
710.75938,0.00545
708.69921,0.00589
706.63904,0.00564
704.57886,0.00533
702.51869,0.00537
700.45852,0.00549
698.39835,0.00576
696.33818,0.00606
694.27800,0.00619
692.21783,0.00629
690.15766,0.00659
688.09749,0.00734
686.03731,0.00832
683.97714,0.00871
681.91697,0.00836
679.85680,0.00797
677.79663,0.00766
675.73645,0.00716
673.67628,0.00734
671.61611,0.00807
669.55594,0.00418
667.49577,0.00002
665.43559,0.00585
663.37542,0.00647
661.31525,0.00576
659.25508,0.00551
657.19491,0.00544
655.13473,0.00559
653.07456,0.00566
651.01439,0.00554
648.95422,0.00542
646.89404,0.00556
644.83387,0.00501
642.77370,0.00392
640.71353,0.00404
638.65336,0.00543
636.59318,0.00588
634.53301,0.00519
632.47284,0.00462
630.41267,0.00408
628.35250,0.00367
626.29232,0.00445
624.23215,0.00562
622.17198,0.00514
620.11181,0.00405
618.05164,0.00328
615.99146,0.00197
613.93129,0.00164
611.87112,0.00335
609.81095,0.00392
607.75077,0.00158
605.69060,0.00000
603.63043,0.00013
601.57026,0.00025
599.51009,0.00000
