3996.73391,0.00089
3994.67373,0.00083
3992.61356,0.00072
3990.55339,0.00059
3988.49322,0.00073
3986.43305,0.00094
3984.37287,0.00115
3982.31270,0.00144
3980.25253,0.00156
3978.19236,0.00131
3976.13219,0.00101
3974.07201,0.00095
3972.01184,0.00090
3969.95167,0.00069
3967.89150,0.00054
3965.83133,0.00043
3963.77115,0.00020
3961.71098,0.00000
3959.65081,0.00017
3957.59064,0.00064
3955.53046,0.00098
3953.47029,0.00097
3951.41012,0.00077
3949.34995,0.00058
3947.28978,0.00037
3945.22960,0.00013
3943.16943,0.00005
3941.10926,0.00026
3939.04909,0.00046
3936.98892,0.00052
3934.92874,0.00062
3932.86857,0.00071
3930.80840,0.00060
3928.74823,0.00042
3926.68805,0.00040
3924.62788,0.00067
3922.56771,0.00102
3920.50754,0.00096
3918.44737,0.00055
3916.38719,0.00036
3914.32702,0.00057
3912.26685,0.00084
3910.20668,0.00096
3908.14651,0.00094
3906.08633,0.00079
3904.02616,0.00054
3901.96599,0.00035
3899.90582,0.00049
3897.84565,0.00083
3895.78547,0.00104
3893.72530,0.00100
3891.66513,0.00080
3889.60496,0.00052
3887.54478,0.00019
3885.48461,0.00002
3883.42444,0.00023
3881.36427,0.00067
3879.30410,0.00108
3877.24392,0.00128
3875.18375,0.00120
3873.12358,0.00111
3871.06341,0.00128
3869.00324,0.00145
3866.94306,0.00128
3864.88289,0.00117
3862.82272,0.00141
3860.76255,0.00151
3858.70237,0.00117
3856.64220,0.00069
3854.58203,0.00071
3852.52186,0.00139
3850.46169,0.00183
3848.40151,0.00170
3846.34134,0.00141
3844.28117,0.00114
3842.22100,0.00091
3840.16083,0.00092
3838.10065,0.00107
3836.04048,0.00101
3833.98031,0.00106
3831.92014,0.00142
3829.85997,0.00145
3827.79979,0.00102
3825.73962,0.00088
3823.67945,0.00118
3821.61928,0.00139
3819.55910,0.00142
3817.49893,0.00161
3815.43876,0.00192
3813.37859,0.00201
3811.31842,0.00173
3809.25824,0.00117
3807.19807,0.00079
3805.13790,0.00096
3803.07773,0.00125
3801.01756,0.00124
3798.95738,0.00113
3796.89721,0.00116
3794.83704,0.00133
3792.77687,0.00152
3790.71670,0.00157
3788.65652,0.00148
3786.59635,0.00141
3784.53618,0.00138
3782.47601,0.00133
3780.41583,0.00125
3778.35566,0.00111
3776.29549,0.00088
3774.23532,0.00065
3772.17515,0.00065
3770.11497,0.00076
3768.05480,0.00068
3765.99463,0.00076
3763.93446,0.00120
3761.87429,0.00147
3759.81411,0.00135
3757.75394,0.00134
3755.69377,0.00170
3753.63360,0.00196
3751.57342,0.00179
3749.51325,0.00144
3747.45308,0.00134
3745.39291,0.00178
3743.33274,0.00231
3741.27256,0.00229
3739.21239,0.00214
3737.15222,0.00210
3735.09205,0.00182
3733.03188,0.00121
3730.97170,0.00081
3728.91153,0.00077
3726.85136,0.00078
3724.79119,0.00098
3722.73102,0.00159
3720.67084,0.00208
3718.61067,0.00197
3716.55050,0.00170
3714.49033,0.00161
3712.43015,0.00139
3710.36998,0.00091
3708.30981,0.00057
3706.24964,0.00067
3704.18947,0.00104
3702.12929,0.00137
3700.06912,0.00142
3698.00895,0.00145
3695.94878,0.00168
3693.88861,0.00201
3691.82843,0.00239
3689.76826,0.00247
3687.70809,0.00208
3685.64792,0.00178
3683.58775,0.00188
3681.52757,0.00215
3679.46740,0.00246
3677.40723,0.00287
3675.34706,0.00324
3673.28688,0.00327
3671.22671,0.00339
3669.16654,0.00388
3667.10637,0.00425
3665.04620,0.00419
3662.98602,0.00391
3660.92585,0.00380
3658.86568,0.00412
3656.80551,0.00485
3654.74534,0.00562
3652.68516,0.00590
3650.62499,0.00569
3648.56482,0.00562
3646.50465,0.00597
3644.44447,0.00629
3642.38430,0.00653
3640.32413,0.00708
3638.26396,0.00811
3636.20379,0.00920
3634.14361,0.00970
3632.08344,0.00969
3630.02327,0.00988
3627.96310,0.01040
3625.90293,0.01072
3623.84275,0.01097
3621.78258,0.01146
3619.72241,0.01227
3617.66224,0.01322
3615.60207,0.01400
3613.54189,0.01488
3611.48172,0.01577
3609.42155,0.01621
3607.36138,0.01627
3605.30120,0.01645
3603.24103,0.01683
3601.18086,0.01710
3599.12069,0.01736
3597.06052,0.01777
3595.00034,0.01839
3592.94017,0.01916
3590.88000,0.02000
3588.81983,0.02086
3586.75966,0.02173
3584.69948,0.02234
3582.63931,0.02264
3580.57914,0.02290
3578.51897,0.02340
3576.45879,0.02421
3574.39862,0.02510
3572.33845,0.02584
3570.27828,0.02642
3568.21811,0.02684
3566.15793,0.02721
3564.09776,0.02764
3562.03759,0.02790
3559.97742,0.02805
3557.91725,0.02837
3555.85707,0.02890
3553.79690,0.02956
3551.73673,0.03029
3549.67656,0.03099
3547.61639,0.03167
3545.55621,0.03240
3543.49604,0.03318
3541.43587,0.03385
3539.37570,0.03438
3537.31552,0.03475
3535.25535,0.03493
3533.19518,0.03514
3531.13501,0.03577
3529.07484,0.03667
3527.01466,0.03745
3524.95449,0.03805
3522.89432,0.03852
3520.83415,0.03875
3518.77398,0.03898
3516.71380,0.03953
3514.65363,0.04009
3512.59346,0.04048
3510.53329,0.04112
3508.47312,0.04195
3506.41294,0.04231
3504.35277,0.04241
3502.29260,0.04287
3500.23243,0.04342
3498.17225,0.04372
3496.11208,0.04401
3494.05191,0.04450
3491.99174,0.04515
3489.93157,0.04590
3487.87139,0.04664
3485.81122,0.04704
3483.75105,0.04705
3481.69088,0.04714
3479.63071,0.04752
3477.57053,0.04798
3475.51036,0.04863
3473.45019,0.04941
3471.39002,0.05000
3469.32984,0.05039
3467.26967,0.05088
3465.20950,0.05150
3463.14933,0.05207
3461.08916,0.05244
3459.02898,0.05245
3456.96881,0.05225
3454.90864,0.05239
3452.84847,0.05291
3450.78830,0.05369
3448.72812,0.05459
3446.66795,0.05503
3444.60778,0.05490
3442.54761,0.05487
3440.48744,0.05508
3438.42726,0.05545
3436.36709,0.05596
3434.30692,0.05655
3432.24675,0.05706
3430.18657,0.05721
3428.12640,0.05716
3426.06623,0.05732
3424.00606,0.05780
3421.94589,0.05839
3419.88571,0.05873
3417.82554,0.05886
3415.76537,0.05894
3413.70520,0.05897
3411.64503,0.05912
3409.58485,0.05945
3407.52468,0.05985
3405.46451,0.06017
3403.40434,0.06047
3401.34416,0.06084
3399.28399,0.06109
3397.22382,0.06126
3395.16365,0.06156
3393.10348,0.06185
3391.04330,0.06181
3388.98313,0.06170
3386.92296,0.06198
3384.86279,0.06251
3382.80262,0.06301
3380.74244,0.06343
3378.68227,0.06358
3376.62210,0.06342
3374.56193,0.06333
3372.50176,0.06354
3370.44158,0.06391
3368.38141,0.06407
3366.32124,0.06398
3364.26107,0.06405
3362.20089,0.06426
3360.14072,0.06429
3358.08055,0.06423
3356.02038,0.06424
3353.96021,0.06439
3351.90003,0.06462
3349.83986,0.06474
3347.77969,0.06485
3345.71952,0.06502
3343.65935,0.06509
3341.59917,0.06514
3339.53900,0.06526
3337.47883,0.06556
3335.41866,0.06608
3333.35849,0.06633
3331.29831,0.06620
3329.23814,0.06611
3327.17797,0.06613
3325.11780,0.06606
3323.05762,0.06591
3320.99745,0.06611
3318.93728,0.06655
3316.87711,0.06667
3314.81694,0.06664
3312.75676,0.06689
3310.69659,0.06726
3308.63642,0.06721
3306.57625,0.06691
3304.51608,0.06692
3302.45590,0.06709
3300.39573,0.06716
3298.33556,0.06713
3296.27539,0.06705
3294.21521,0.06705
3292.15504,0.06712
3290.09487,0.06727
3288.03470,0.06735
3285.97453,0.06720
3283.91435,0.06692
3281.85418,0.06674
3279.79401,0.06684
3277.73384,0.06714
3275.67367,0.06749
3273.61349,0.06773
3271.55332,0.06775
3269.49315,0.06767
3267.43298,0.06745
3265.37281,0.06714
3263.31263,0.06694
3261.25246,0.06698
3259.19229,0.06731
3257.13212,0.06760
3255.07194,0.06759
3253.01177,0.06763
3250.95160,0.06788
3248.89143,0.06794
3246.83126,0.06774
3244.77108,0.06757
3242.71091,0.06756
3240.65074,0.06750
3238.59057,0.06718
3236.53040,0.06687
3234.47022,0.06678
3232.41005,0.06692
3230.34988,0.06729
3228.28971,0.06753
3226.22954,0.06739
3224.16936,0.06702
3222.10919,0.06682
3220.04902,0.06692
3217.98885,0.06707
3215.92867,0.06703
3213.86850,0.06692
3211.80833,0.06685
3209.74816,0.06678
3207.68799,0.06662
3205.62781,0.06642
3203.56764,0.06643
3201.50747,0.06652
3199.44730,0.06626
3197.38713,0.06578
3195.32695,0.06541
3193.26678,0.06522
3191.20661,0.06513
3189.14644,0.06503
3187.08626,0.06485
3185.02609,0.06462
3182.96592,0.06456
3180.90575,0.06469
3178.84558,0.06456
3176.78540,0.06426
3174.72523,0.06417
3172.66506,0.06423
3170.60489,0.06426
3168.54472,0.06412
3166.48454,0.06371
3164.42437,0.06316
3162.36420,0.06270
3160.30403,0.06248
3158.24386,0.06247
3156.18368,0.06265
3154.12351,0.06282
3152.06334,0.06261
3150.00317,0.06206
3147.94299,0.06151
3145.88282,0.06124
3143.82265,0.06121
3141.76248,0.06118
3139.70231,0.06091
3137.64213,0.06053
3135.58196,0.06038
3133.52179,0.06044
3131.46162,0.06043
3129.40145,0.06012
3127.34127,0.05955
3125.28110,0.05908
3123.22093,0.05898
3121.16076,0.05889
3119.10058,0.05848
3117.04041,0.05809
3114.98024,0.05803
3112.92007,0.05815
3110.85990,0.05812
3108.79972,0.05761
3106.73955,0.05687
3104.67938,0.05651
3102.61921,0.05660
3100.55904,0.05676
3098.49886,0.05655
3096.43869,0.05598
3094.37852,0.05556
3092.31835,0.05523
3090.25818,0.05482
3088.19800,0.05450
3086.13783,0.05432
3084.07766,0.05427
3082.01749,0.05422
3079.95731,0.05401
3077.89714,0.05369
3075.83697,0.05328
3073.77680,0.05286
3071.71663,0.05257
3069.65645,0.05239
3067.59628,0.05217
3065.53611,0.05188
3063.47594,0.05163
3061.41577,0.05145
3059.35559,0.05118
3057.29542,0.05069
3055.23525,0.05024
3053.17508,0.05005
3051.11491,0.04998
3049.05473,0.04979
3046.99456,0.04943
3044.93439,0.04906
3042.87422,0.04873
3040.81404,0.04841
3038.75387,0.04817
3036.69370,0.04798
3034.63353,0.04772
3032.57336,0.04746
3030.51318,0.04726
3028.45301,0.04694
3026.39284,0.04659
3024.33267,0.04635
3022.27250,0.04606
3020.21232,0.04554
3018.15215,0.04502
3016.09198,0.04467
3014.03181,0.04436
3011.97163,0.04397
3009.91146,0.04363
3007.85129,0.04348
3005.79112,0.04337
3003.73095,0.04312
3001.67077,0.04288
2999.61060,0.04280
2997.55043,0.04268
2995.49026,0.04242
2993.43009,0.04213
2991.36991,0.04165
2989.30974,0.04113
2987.24957,0.04087
2985.18940,0.04086
2983.12923,0.04096
2981.06905,0.04100
2979.00888,0.04082
2976.94871,0.04057
2974.88854,0.04030
2972.82836,0.04006
2970.76819,0.04017
2968.70802,0.04030
2966.64785,0.04002
2964.58768,0.03978
2962.52750,0.03989
2960.46733,0.03987
2958.40716,0.03955
2956.34699,0.03927
2954.28682,0.03917
2952.22664,0.03911
2950.16647,0.03908
2948.10630,0.03907
2946.04613,0.03911
2943.98596,0.03913
2941.92578,0.03895
2939.86561,0.03875
2937.80544,0.03877
2935.74527,0.03894
2933.68509,0.03901
2931.62492,0.03895
2929.56475,0.03887
2927.50458,0.03871
2925.44441,0.03827
2923.38423,0.03781
2921.32406,0.03765
2919.26389,0.03765
2917.20372,0.03753
2915.14355,0.03727
2913.08337,0.03691
2911.02320,0.03659
2908.96303,0.03633
2906.90286,0.03600
2904.84268,0.03580
2902.78251,0.03587
2900.72234,0.03599
2898.66217,0.03600
2896.60200,0.03593
2894.54182,0.03582
2892.48165,0.03579
2890.42148,0.03580
2888.36131,0.03574
2886.30114,0.03563
2884.24096,0.03552
2882.18079,0.03536
2880.12062,0.03511
2878.06045,0.03470
2876.00028,0.03444
2873.94010,0.03451
2871.87993,0.03452
2869.81976,0.03454
2867.75959,0.03453
2865.69941,0.03412
2863.63924,0.03363
2861.57907,0.03334
2859.51890,0.03310
2857.45873,0.03291
2855.39855,0.03273
2853.33838,0.03248
2851.27821,0.03226
2849.21804,0.03218
2847.15787,0.03215
2845.09769,0.03196
2843.03752,0.03172
2840.97735,0.03170
2838.91718,0.03163
2836.85700,0.03137
2834.79683,0.03114
2832.73666,0.03093
2830.67649,0.03060
2828.61632,0.03030
2826.55614,0.03012
2824.49597,0.03006
2822.43580,0.03003
2820.37563,0.02987
2818.31546,0.02958
2816.25528,0.02928
2814.19511,0.02912
2812.13494,0.02904
2810.07477,0.02887
2808.01460,0.02862
2805.95442,0.02848
2803.89425,0.02848
2801.83408,0.02838
2799.77391,0.02820
2797.71373,0.02824
2795.65356,0.02836
2793.59339,0.02831
2791.53322,0.02811
2789.47305,0.02781
2787.41287,0.02748
2785.35270,0.02722
2783.29253,0.02714
2781.23236,0.02720
2779.17219,0.02716
2777.11201,0.02698
2775.05184,0.02680
2772.99167,0.02657
2770.93150,0.02637
2768.87133,0.02625
2766.81115,0.02604
2764.75098,0.02578
2762.69081,0.02558
2760.63064,0.02538
2758.57046,0.02534
2756.51029,0.02542
2754.45012,0.02523
2752.38995,0.02483
2750.32978,0.02460
2748.26960,0.02461
2746.20943,0.02470
2744.14926,0.02465
2742.08909,0.02445
2740.02892,0.02425
2737.96874,0.02409
2735.90857,0.02388
2733.84840,0.02376
2731.78823,0.02377
2729.72805,0.02375
2727.66788,0.02370
2725.60771,0.02359
2723.54754,0.02339
2721.48737,0.02315
2719.42719,0.02284
2717.36702,0.02266
2715.30685,0.02267
2713.24668,0.02262
2711.18651,0.02252
2709.12633,0.02246
2707.06616,0.02235
2705.00599,0.02221
2702.94582,0.02198
2700.88565,0.02175
2698.82547,0.02171
2696.76530,0.02167
2694.70513,0.02133
2692.64496,0.02082
2690.58478,0.02058
2688.52461,0.02068
2686.46444,0.02080
2684.40427,0.02066
2682.34410,0.02032
2680.28392,0.01995
2678.22375,0.01974
2676.16358,0.01962
2674.10341,0.01940
2672.04324,0.01926
2669.98306,0.01937
2667.92289,0.01947
2665.86272,0.01926
2663.80255,0.01887
2661.74238,0.01858
2659.68220,0.01837
2657.62203,0.01834
2655.56186,0.01847
2653.50169,0.01838
2651.44151,0.01807
2649.38134,0.01787
2647.32117,0.01775
2645.26100,0.01764
2643.20083,0.01760
2641.14065,0.01755
2639.08048,0.01745
2637.02031,0.01723
2634.96014,0.01696
2632.89997,0.01675
2630.83979,0.01657
2628.77962,0.01634
2626.71945,0.01608
2624.65928,0.01598
2622.59910,0.01593
2620.53893,0.01565
2618.47876,0.01549
2616.41859,0.01570
2614.35842,0.01581
2612.29824,0.01569
2610.23807,0.01558
2608.17790,0.01535
2606.11773,0.01512
2604.05756,0.01508
2601.99738,0.01482
2599.93721,0.01439
2597.87704,0.01423
2595.81687,0.01433
2593.75670,0.01457
2591.69652,0.01473
2589.63635,0.01452
2587.57618,0.01406
2585.51601,0.01385
2583.45583,0.01392
2581.39566,0.01380
2579.33549,0.01354
2577.27532,0.01344
2575.21515,0.01342
2573.15497,0.01345
2571.09480,0.01364
2569.03463,0.01364
2566.97446,0.01338
2564.91429,0.01320
2562.85411,0.01309
2560.79394,0.01310
2558.73377,0.01325
2556.67360,0.01337
2554.61342,0.01363
2552.55325,0.01398
2550.49308,0.01391
2548.43291,0.01350
2546.37274,0.01307
2544.31256,0.01265
2542.25239,0.01243
2540.19222,0.01250
2538.13205,0.01271
2536.07188,0.01287
2534.01170,0.01304
2531.95153,0.01329
2529.89136,0.01336
2527.83119,0.01341
2525.77102,0.01364
2523.71084,0.01376
2521.65067,0.01372
2519.59050,0.01393
2517.53033,0.01399
2515.47015,0.01356
2513.40998,0.01330
2511.34981,0.01348
2509.28964,0.01370
2507.22947,0.01384
2505.16929,0.01391
2503.10912,0.01378
2501.04895,0.01372
2498.98878,0.01395
2496.92861,0.01398
2494.86843,0.01359
2492.80826,0.01326
2490.74809,0.01347
2488.68792,0.01392
2486.62775,0.01422
2484.56757,0.01445
2482.50740,0.01441
2480.44723,0.01389
2478.38706,0.01345
2476.32688,0.01367
2474.26671,0.01420
2472.20654,0.01419
2470.14637,0.01388
2468.08620,0.01415
2466.02602,0.01456
2463.96585,0.01451
2461.90568,0.01449
2459.84551,0.01476
2457.78534,0.01497
2455.72516,0.01498
2453.66499,0.01484
2451.60482,0.01486
2449.54465,0.01517
2447.48447,0.01530
2445.42430,0.01510
2443.36413,0.01488
2441.30396,0.01469
2439.24379,0.01454
2437.18361,0.01447
2435.12344,0.01471
2433.06327,0.01518
2431.00310,0.01543
2428.94293,0.01510
2426.88275,0.01450
2424.82258,0.01453
2422.76241,0.01515
2420.70224,0.01543
2418.64207,0.01508
2416.58189,0.01463
2414.52172,0.01460
2412.46155,0.01483
2410.40138,0.01492
2408.34120,0.01490
2406.28103,0.01488
2404.22086,0.01477
2402.16069,0.01454
2400.10052,0.01442
2398.04034,0.01463
2395.98017,0.01500
2393.92000,0.01508
2391.85983,0.01480
2389.79966,0.01449
2387.73948,0.01441
2385.67931,0.01455
2383.61914,0.01464
2381.55897,0.01449
2379.49880,0.01426
2377.43862,0.01420
2375.37845,0.01413
2373.31828,0.01412
2371.25811,0.01402
2369.19793,0.01364
2367.13776,0.01370
2365.07759,0.01417
2363.01742,0.01369
2360.95725,0.01400
2358.89707,0.01413
2356.83690,0.01403
2354.77673,0.01408
2352.71656,0.01459
2350.65639,0.01656
2348.59621,0.01753
2346.53604,0.01494
2344.47587,0.01440
2342.41570,0.01495
2340.35552,0.01484
2338.29535,0.01444
2336.23518,0.01385
2334.17501,0.01327
2332.11484,0.01266
2330.05466,0.01305
2327.99449,0.01417
2325.93432,0.01531
2323.87415,0.01524
2321.81398,0.01504
2319.75380,0.01465
2317.69363,0.01461
2315.63346,0.01429
2313.57329,0.01379
2311.51312,0.01339
2309.45294,0.01291
2307.39277,0.01247
2305.33260,0.01246
2303.27243,0.01280
2301.21225,0.01292
2299.15208,0.01279
2297.09191,0.01269
2295.03174,0.01296
2292.97157,0.01358
2290.91139,0.01392
2288.85122,0.01364
2286.79105,0.01308
2284.73088,0.01258
2282.67071,0.01240
2280.61053,0.01274
2278.55036,0.01313
2276.49019,0.01268
2274.43002,0.01167
2272.36984,0.01111
2270.30967,0.01127
2268.24950,0.01170
2266.18933,0.01205
2264.12916,0.01211
2262.06898,0.01202
2260.00881,0.01196
2257.94864,0.01163
2255.88847,0.01105
2253.82830,0.01069
2251.76812,0.01036
2249.70795,0.00993
2247.64778,0.01027
2245.58761,0.01127
2243.52744,0.01144
2241.46726,0.01070
2239.40709,0.01034
2237.34692,0.01042
2235.28675,0.01042
2233.22657,0.01034
2231.16640,0.01020
2229.10623,0.01001
2227.04606,0.00934
2224.98589,0.00846
2222.92571,0.00849
2220.86554,0.00876
2218.80537,0.00851
2216.74520,0.00841
2214.68503,0.00802
2212.62485,0.00683
2210.56468,0.00651
2208.50451,0.00802
2206.44434,0.00937
2204.38417,0.00930
2202.32399,0.00930
2200.26382,0.00983
2198.20365,0.00910
2196.14348,0.00712
2194.08330,0.00600
2192.02313,0.00671
2189.96296,0.00810
2187.90279,0.00816
2185.84262,0.00689
2183.78244,0.00616
2181.72227,0.00665
2179.66210,0.00759
2177.60193,0.00817
2175.54176,0.00795
2173.48158,0.00708
2171.42141,0.00617
2169.36124,0.00580
2167.30107,0.00587
2165.24089,0.00610
2163.18072,0.00663
2161.12055,0.00676
2159.06038,0.00643
2157.00021,0.00603
2154.94003,0.00474
2152.87986,0.00342
2150.81969,0.00351
2148.75952,0.00404
2146.69935,0.00456
2144.63917,0.00542
2142.57900,0.00558
2140.51883,0.00496
2138.45866,0.00409
2136.39849,0.00351
2134.33831,0.00404
2132.27814,0.00505
2130.21797,0.00576
2128.15780,0.00613
2126.09762,0.00629
2124.03745,0.00638
2121.97728,0.00653
2119.91711,0.00682
2117.85694,0.00694
2115.79676,0.00696
2113.73659,0.00726
2111.67642,0.00756
2109.61625,0.00709
2107.55608,0.00618
2105.49590,0.00581
2103.43573,0.00594
2101.37556,0.00598
2099.31539,0.00579
2097.25521,0.00549
2095.19504,0.00527
2093.13487,0.00528
2091.07470,0.00587
2089.01453,0.00656
2086.95435,0.00629
2084.89418,0.00553
2082.83401,0.00513
2080.77384,0.00486
2078.71367,0.00488
2076.65349,0.00518
2074.59332,0.00533
2072.53315,0.00553
2070.47298,0.00546
2068.41281,0.00507
2066.35263,0.00496
2064.29246,0.00488
2062.23229,0.00468
2060.17212,0.00523
2058.11194,0.00617
2056.05177,0.00623
2053.99160,0.00591
2051.93143,0.00551
2049.87126,0.00445
2047.81108,0.00373
2045.75091,0.00375
2043.69074,0.00372
2041.63057,0.00405
2039.57040,0.00436
2037.51022,0.00369
2035.45005,0.00245
2033.38988,0.00161
2031.32971,0.00197
2029.26954,0.00320
2027.20936,0.00422
2025.14919,0.00399
2023.08902,0.00326
2021.02885,0.00355
2018.96867,0.00439
2016.90850,0.00483
2014.84833,0.00461
2012.78816,0.00360
2010.72799,0.00218
2008.66781,0.00099
2006.60764,0.00042
2004.54747,0.00055
2002.48730,0.00135
2000.42713,0.00243
1998.36695,0.00281
1996.30678,0.00236
1994.24661,0.00175
1992.18644,0.00109
1990.12626,0.00060
1988.06609,0.00066
1986.00592,0.00166
1983.94575,0.00327
1981.88558,0.00479
1979.82540,0.00579
1977.76523,0.00556
1975.70506,0.00434
1973.64489,0.00372
1971.58472,0.00376
1969.52454,0.00289
1967.46437,0.00164
1965.40420,0.00180
1963.34403,0.00301
1961.28386,0.00385
1959.22368,0.00381
1957.16351,0.00325
1955.10334,0.00247
1953.04317,0.00197
1950.98299,0.00223
1948.92282,0.00267
1946.86265,0.00272
1944.80248,0.00235
1942.74231,0.00194
1940.68213,0.00206
1938.62196,0.00229
1936.56179,0.00193
1934.50162,0.00153
1932.44145,0.00190
1930.38127,0.00257
1928.32110,0.00262
1926.26093,0.00223
1924.20076,0.00217
1922.14059,0.00241
1920.08041,0.00252
1918.02024,0.00270
1915.96007,0.00317
1913.89990,0.00339
1911.83972,0.00298
1909.77955,0.00275
1907.71938,0.00325
1905.65921,0.00369
1903.59904,0.00361
1901.53886,0.00352
1899.47869,0.00348
1897.41852,0.00336
1895.35835,0.00331
1893.29818,0.00321
1891.23800,0.00297
1889.17783,0.00288
1887.11766,0.00314
1885.05749,0.00350
1882.99731,0.00345
1880.93714,0.00304
1878.87697,0.00296
1876.81680,0.00336
1874.75663,0.00363
1872.69645,0.00342
1870.63628,0.00300
1868.57611,0.00285
1866.51594,0.00333
1864.45577,0.00399
1862.39559,0.00421
1860.33542,0.00406
1858.27525,0.00376
1856.21508,0.00332
1854.15491,0.00294
1852.09473,0.00281
1850.03456,0.00300
1847.97439,0.00342
1845.91422,0.00375
1843.85404,0.00387
1841.79387,0.00389
1839.73370,0.00389
1837.67353,0.00383
1835.61336,0.00366
1833.55318,0.00348
1831.49301,0.00355
1829.43284,0.00388
1827.37267,0.00419
1825.31250,0.00428
1823.25232,0.00408
1821.19215,0.00377
1819.13198,0.00369
1817.07181,0.00389
1815.01163,0.00416
1812.95146,0.00434
1810.89129,0.00443
1808.83112,0.00453
1806.77095,0.00470
1804.71077,0.00488
1802.65060,0.00495
1800.59043,0.00487
1798.53026,0.00477
1796.47009,0.00473
1794.40991,0.00470
1792.34974,0.00455
1790.28957,0.00441
1788.22940,0.00448
1786.16923,0.00472
1784.10905,0.00493
1782.04888,0.00503
1779.98871,0.00503
1777.92854,0.00489
1775.86836,0.00475
1773.80819,0.00483
1771.74802,0.00522
1769.68785,0.00566
1767.62768,0.00593
1765.56750,0.00609
1763.50733,0.00622
1761.44716,0.00628
1759.38699,0.00624
1757.32682,0.00621
1755.26664,0.00633
1753.20647,0.00658
1751.14630,0.00679
1749.08613,0.00692
1747.02596,0.00707
1744.96578,0.00732
1742.90561,0.00775
1740.84544,0.00814
1738.78527,0.00817
1736.72509,0.00800
1734.66492,0.00807
1732.60475,0.00847
1730.54458,0.00878
1728.48441,0.00897
1726.42423,0.00929
1724.36406,0.00969
1722.30389,0.00993
1720.24372,0.01004
1718.18355,0.01030
1716.12337,0.01077
1714.06320,0.01110
1712.00303,0.01127
1709.94286,0.01150
1707.88268,0.01182
1705.82251,0.01218
1703.76234,0.01264
1701.70217,0.01328
1699.64200,0.01394
1697.58182,0.01438
1695.52165,0.01465
1693.46148,0.01490
1691.40131,0.01530
1689.34114,0.01601
1687.28096,0.01692
1685.22079,0.01778
1683.16062,0.01845
1681.10045,0.01881
1679.04028,0.01900
1676.98010,0.01926
1674.91993,0.01983
1672.85976,0.02055
1670.79959,0.02133
1668.73941,0.02222
1666.67924,0.02282
1664.61907,0.02304
1662.55890,0.02322
1660.49873,0.02345
1658.43855,0.02364
1656.37838,0.02376
1654.31821,0.02408
1652.25804,0.02477
1650.19787,0.02521
1648.13769,0.02520
1646.07752,0.02499
1644.01735,0.02482
1641.95718,0.02473
1639.89701,0.02470
1637.83683,0.02474
1635.77666,0.02465
1633.71649,0.02421
1631.65632,0.02365
1629.59614,0.02322
1627.53597,0.02295
1625.47580,0.02274
1623.41563,0.02257
1621.35546,0.02254
1619.29528,0.02251
1617.23511,0.02228
1615.17494,0.02191
1613.11477,0.02157
1611.05460,0.02128
1608.99442,0.02095
1606.93425,0.02055
1604.87408,0.02010
1602.81391,0.01964
1600.75373,0.01924
1598.69356,0.01889
1596.63339,0.01851
1594.57322,0.01810
1592.51305,0.01757
1590.45287,0.01685
1588.39270,0.01602
1586.33253,0.01530
1584.27236,0.01479
1582.21219,0.01439
1580.15201,0.01396
1578.09184,0.01348
1576.03167,0.01290
1573.97150,0.01240
1571.91133,0.01210
1569.85115,0.01181
1567.79098,0.01135
1565.73081,0.01074
1563.67064,0.01007
1561.61046,0.00935
1559.55029,0.00869
1557.49012,0.00842
1555.42995,0.00847
1553.36978,0.00844
1551.30960,0.00824
1549.24943,0.00793
1547.18926,0.00756
1545.12909,0.00723
1543.06892,0.00702
1541.00874,0.00684
1538.94857,0.00656
1536.88840,0.00632
1534.82823,0.00619
1532.76805,0.00611
1530.70788,0.00597
1528.64771,0.00574
1526.58754,0.00549
1524.52737,0.00529
1522.46719,0.00498
1520.40702,0.00448
1518.34685,0.00410
1516.28668,0.00399
1514.22651,0.00399
1512.16633,0.00391
1510.10616,0.00381
1508.04599,0.00385
1505.98582,0.00390
1503.92565,0.00376
1501.86547,0.00362
1499.80530,0.00364
1497.74513,0.00377
1495.68496,0.00380
1493.62478,0.00362
1491.56461,0.00333
1489.50444,0.00318
1487.44427,0.00334
1485.38410,0.00363
1483.32392,0.00385
1481.26375,0.00392
1479.20358,0.00393
1477.14341,0.00396
1475.08324,0.00393
1473.02306,0.00387
1470.96289,0.00401
1468.90272,0.00433
1466.84255,0.00472
1464.78238,0.00502
1462.72220,0.00501
1460.66203,0.00477
1458.60186,0.00460
1456.54169,0.00468
1454.48151,0.00490
1452.42134,0.00506
1450.36117,0.00511
1448.30100,0.00508
1446.24083,0.00505
1444.18065,0.00503
1442.12048,0.00497
1440.06031,0.00488
1438.00014,0.00493
1435.93997,0.00515
1433.87979,0.00529
1431.81962,0.00540
1429.75945,0.00565
1427.69928,0.00593
1425.63910,0.00611
1423.57893,0.00626
1421.51876,0.00635
1419.45859,0.00634
1417.39842,0.00646
1415.33824,0.00667
1413.27807,0.00665
1411.21790,0.00644
1409.15773,0.00626
1407.09756,0.00620
1405.03738,0.00625
1402.97721,0.00631
1400.91704,0.00629
1398.85687,0.00617
1396.79670,0.00591
1394.73652,0.00552
1392.67635,0.00518
1390.61618,0.00502
1388.55601,0.00504
1386.49583,0.00518
1384.43566,0.00529
1382.37549,0.00532
1380.31532,0.00536
1378.25515,0.00544
1376.19497,0.00556
1374.13480,0.00570
1372.07463,0.00567
1370.01446,0.00538
1367.95429,0.00505
1365.89411,0.00488
1363.83394,0.00473
1361.77377,0.00447
1359.71360,0.00425
1357.65343,0.00416
1355.59325,0.00411
1353.53308,0.00406
1351.47291,0.00398
1349.41274,0.00391
1347.35256,0.00391
1345.29239,0.00394
1343.23222,0.00384
1341.17205,0.00366
1339.11188,0.00364
1337.05170,0.00377
1334.99153,0.00383
1332.93136,0.00382
1330.87119,0.00384
1328.81102,0.00384
1326.75084,0.00381
1324.69067,0.00376
1322.63050,0.00366
1320.57033,0.00360
1318.51015,0.00370
1316.44998,0.00388
1314.38981,0.00390
1312.32964,0.00376
1310.26947,0.00367
1308.20929,0.00371
1306.14912,0.00381
1304.08895,0.00385
1302.02878,0.00389
1299.96861,0.00404
1297.90843,0.00415
1295.84826,0.00408
1293.78809,0.00402
1291.72792,0.00414
1289.66775,0.00431
1287.60757,0.00445
1285.54740,0.00454
1283.48723,0.00454
1281.42706,0.00456
1279.36688,0.00468
1277.30671,0.00480
1275.24654,0.00486
1273.18637,0.00487
1271.12620,0.00499
1269.06602,0.00521
1267.00585,0.00525
1264.94568,0.00511
1262.88551,0.00509
1260.82534,0.00528
1258.76516,0.00538
1256.70499,0.00531
1254.64482,0.00525
1252.58465,0.00517
1250.52447,0.00499
1248.46430,0.00479
1246.40413,0.00464
1244.34396,0.00459
1242.28379,0.00447
1240.22361,0.00416
1238.16344,0.00395
1236.10327,0.00380
1234.04310,0.00349
1231.98293,0.00322
1229.92275,0.00313
1227.86258,0.00309
1225.80241,0.00291
1223.74224,0.00247
1221.68207,0.00207
1219.62189,0.00187
1217.56172,0.00168
1215.50155,0.00151
1213.44138,0.00139
1211.38120,0.00122
1209.32103,0.00106
1207.26086,0.00096
1205.20069,0.00085
1203.14052,0.00066
1201.08034,0.00059
1199.02017,0.00082
1196.96000,0.00121
1194.89983,0.00158
1192.83966,0.00198
1190.77948,0.00238
1188.71931,0.00281
1186.65914,0.00335
1184.59897,0.00401
1182.53880,0.00472
1180.47862,0.00552
1178.41845,0.00642
1176.35828,0.00745
1174.29811,0.00877
1172.23793,0.01018
1170.17776,0.01130
1168.11759,0.01232
1166.05742,0.01352
1163.99725,0.01478
1161.93707,0.01587
1159.87690,0.01680
1157.81673,0.01771
1155.75656,0.01874
1153.69639,0.01981
1151.63621,0.02079
1149.57604,0.02177
1147.51587,0.02292
1145.45570,0.02408
1143.39552,0.02517
1141.33535,0.02638
1139.27518,0.02779
1137.21501,0.02934
1135.15484,0.03104
1133.09466,0.03277
1131.03449,0.03435
1128.97432,0.03587
1126.91415,0.03736
1124.85398,0.03882
1122.79380,0.04037
1120.73363,0.04208
1118.67346,0.04371
1116.61329,0.04519
1114.55312,0.04672
1112.49294,0.04834
1110.43277,0.04997
1108.37260,0.05166
1106.31243,0.05337
1104.25225,0.05509
1102.19208,0.05682
1100.13191,0.05843
1098.07174,0.05986
1096.01157,0.06120
1093.95139,0.06253
1091.89122,0.06375
1089.83105,0.06497
1087.77088,0.06631
1085.71071,0.06768
1083.65053,0.06895
1081.59036,0.06998
1079.53019,0.07088
1077.47002,0.07170
1075.40985,0.07251
1073.34967,0.07348
1071.28950,0.07437
1069.22933,0.07487
1067.16916,0.07509
1065.10898,0.07518
1063.04881,0.07500
1060.98864,0.07442
1058.92847,0.07374
1056.86830,0.07313
1054.80812,0.07242
1052.74795,0.07144
1050.68778,0.07022
1048.62761,0.06884
1046.56744,0.06741
1044.50726,0.06607
1042.44709,0.06468
1040.38692,0.06308
1038.32675,0.06144
1036.26657,0.05999
1034.20640,0.05870
1032.14623,0.05719
1030.08606,0.05535
1028.02589,0.05368
1025.96571,0.05240
1023.90554,0.05121
1021.84537,0.04987
1019.78520,0.04850
1017.72503,0.04735
1015.66485,0.04646
1013.60468,0.04552
1011.54451,0.04441
1009.48434,0.04360
1007.42417,0.04326
1005.36399,0.04306
1003.30382,0.04302
1001.24365,0.04331
999.18348,0.04376
997.12330,0.04450
995.06313,0.04566
993.00296,0.04697
990.94279,0.04813
988.88262,0.04904
986.82244,0.04968
984.76227,0.05001
982.70210,0.05000
980.64193,0.04983
978.58176,0.04937
976.52158,0.04823
974.46141,0.04657
972.40124,0.04477
970.34107,0.04301
968.28089,0.04124
966.22072,0.03939
964.16055,0.03763
962.10038,0.03598
960.04021,0.03431
957.98003,0.03273
955.91986,0.03140
953.85969,0.03024
951.79952,0.02914
949.73935,0.02814
947.67917,0.02721
945.61900,0.02629
943.55883,0.02557
941.49866,0.02516
939.43849,0.02500
937.37831,0.02485
935.31814,0.02458
933.25797,0.02424
931.19780,0.02392
929.13762,0.02374
927.07745,0.02344
925.01728,0.02284
922.95711,0.02223
920.89694,0.02160
918.83676,0.02089
916.77659,0.02017
914.71642,0.01953
912.65625,0.01908
910.59608,0.01866
908.53590,0.01811
906.47573,0.01772
904.41556,0.01761
902.35539,0.01751
900.29522,0.01732
898.23504,0.01712
896.17487,0.01715
894.11470,0.01764
892.05453,0.01822
889.99435,0.01849
887.93418,0.01882
885.87401,0.01943
883.81384,0.01984
881.75367,0.02009
879.69349,0.02058
877.63332,0.02129
875.57315,0.02215
873.51298,0.02279
871.45281,0.02307
869.39263,0.02341
867.33246,0.02384
865.27229,0.02402
863.21212,0.02410
861.15194,0.02420
859.09177,0.02391
857.03160,0.02316
854.97143,0.02244
852.91126,0.02203
850.85108,0.02175
848.79091,0.02131
846.73074,0.02069
844.67057,0.02008
842.61040,0.01948
840.55022,0.01858
838.49005,0.01754
836.42988,0.01677
834.36971,0.01638
832.30954,0.01597
830.24936,0.01511
828.18919,0.01418
826.12902,0.01379
824.06885,0.01377
822.00867,0.01355
819.94850,0.01312
817.88833,0.01265
815.82816,0.01196
813.76799,0.01100
811.70781,0.01004
809.64764,0.00943
807.58747,0.00913
805.52730,0.00908
803.46713,0.00886
801.40695,0.00817
799.34678,0.00785
797.28661,0.00801
795.22644,0.00803
793.16627,0.00777
791.10609,0.00737
789.04592,0.00712
786.98575,0.00717
784.92558,0.00733
782.86540,0.00720
780.80523,0.00676
778.74506,0.00656
776.68489,0.00671
774.62472,0.00707
772.56454,0.00735
770.50437,0.00717
768.44420,0.00659
766.38403,0.00613
764.32386,0.00601
762.26368,0.00565
760.20351,0.00487
758.14334,0.00465
756.08317,0.00500
754.02299,0.00498
751.96282,0.00445
749.90265,0.00393
747.84248,0.00393
745.78231,0.00442
743.72213,0.00461
741.66196,0.00426
739.60179,0.00388
737.54162,0.00354
735.48145,0.00334
733.42127,0.00356
731.36110,0.00364
729.30093,0.00321
727.24076,0.00326
725.18059,0.00396
723.12041,0.00445
721.06024,0.00411
719.00007,0.00431
716.93990,0.00456
714.87972,0.00436
712.81955,0.00414
710.75938,0.00440
708.69921,0.00482
706.63904,0.00468
704.57886,0.00422
702.51869,0.00399
700.45852,0.00409
698.39835,0.00442
696.33818,0.00472
694.27800,0.00507
692.21783,0.00553
690.15766,0.00589
688.09749,0.00645
686.03731,0.00715
683.97714,0.00725
681.91697,0.00680
679.85680,0.00667
677.79663,0.00693
675.73645,0.00642
673.67628,0.00573
671.61611,0.00626
669.55594,0.00367
667.49577,0.00070
665.43559,0.00586
663.37542,0.00523
661.31525,0.00389
659.25508,0.00420
657.19491,0.00516
655.13473,0.00561
653.07456,0.00517
651.01439,0.00446
648.95422,0.00430
646.89404,0.00481
644.83387,0.00488
642.77370,0.00495
640.71353,0.00593
638.65336,0.00665
636.59318,0.00559
634.53301,0.00424
632.47284,0.00421
630.41267,0.00456
628.35250,0.00451
626.29232,0.00445
624.23215,0.00474
622.17198,0.00427
620.11181,0.00267
618.05164,0.00213
615.99146,0.00285
613.93129,0.00406
611.87112,0.00583
609.81095,0.00571
607.75077,0.00303
605.69060,0.00123
603.63043,0.00072
601.57026,0.00000
599.51009,0.00000
