3996.73391,0.00005
3994.67373,0.00029
3992.61356,0.00022
3990.55339,0.00002
3988.49322,0.00000
3986.43305,0.00007
3984.37287,0.00005
3982.31270,0.00008
3980.25253,0.00023
3978.19236,0.00037
3976.13219,0.00039
3974.07201,0.00030
3972.01184,0.00027
3969.95167,0.00043
3967.89150,0.00053
3965.83133,0.00043
3963.77115,0.00053
3961.71098,0.00084
3959.65081,0.00075
3957.59064,0.00035
3955.53046,0.00039
3953.47029,0.00093
3951.41012,0.00134
3949.34995,0.00143
3947.28978,0.00129
3945.22960,0.00097
3943.16943,0.00076
3941.10926,0.00069
3939.04909,0.00062
3936.98892,0.00069
3934.92874,0.00099
3932.86857,0.00140
3930.80840,0.00160
3928.74823,0.00132
3926.68805,0.00097
3924.62788,0.00100
3922.56771,0.00119
3920.50754,0.00102
3918.44737,0.00063
3916.38719,0.00064
3914.32702,0.00094
3912.26685,0.00102
3910.20668,0.00093
3908.14651,0.00102
3906.08633,0.00144
3904.02616,0.00200
3901.96599,0.00222
3899.90582,0.00185
3897.84565,0.00112
3895.78547,0.00064
3893.72530,0.00079
3891.66513,0.00124
3889.60496,0.00135
3887.54478,0.00121
3885.48461,0.00128
3883.42444,0.00145
3881.36427,0.00150
3879.30410,0.00156
3877.24392,0.00157
3875.18375,0.00150
3873.12358,0.00130
3871.06341,0.00070
3869.00324,0.00010
3866.94306,0.00011
3864.88289,0.00048
3862.82272,0.00085
3860.76255,0.00120
3858.70237,0.00148
3856.64220,0.00137
3854.58203,0.00100
3852.52186,0.00100
3850.46169,0.00124
3848.40151,0.00126
3846.34134,0.00120
3844.28117,0.00115
3842.22100,0.00099
3840.16083,0.00082
3838.10065,0.00079
3836.04048,0.00085
3833.98031,0.00093
3831.92014,0.00106
3829.85997,0.00126
3827.79979,0.00146
3825.73962,0.00157
3823.67945,0.00175
3821.61928,0.00219
3819.55910,0.00242
3817.49893,0.00205
3815.43876,0.00171
3813.37859,0.00178
3811.31842,0.00185
3809.25824,0.00181
3807.19807,0.00188
3805.13790,0.00189
3803.07773,0.00176
3801.01756,0.00180
3798.95738,0.00182
3796.89721,0.00170
3794.83704,0.00155
3792.77687,0.00141
3790.71670,0.00140
3788.65652,0.00148
3786.59635,0.00158
3784.53618,0.00151
3782.47601,0.00103
3780.41583,0.00073
3778.35566,0.00112
3776.29549,0.00166
3774.23532,0.00166
3772.17515,0.00127
3770.11497,0.00116
3768.05480,0.00149
3765.99463,0.00174
3763.93446,0.00162
3761.87429,0.00126
3759.81411,0.00101
3757.75394,0.00106
3755.69377,0.00120
3753.63360,0.00140
3751.57342,0.00189
3749.51325,0.00242
3747.45308,0.00255
3745.39291,0.00279
3743.33274,0.00309
3741.27256,0.00276
3739.21239,0.00239
3737.15222,0.00264
3735.09205,0.00307
3733.03188,0.00287
3730.97170,0.00235
3728.91153,0.00181
3726.85136,0.00137
3724.79119,0.00119
3722.73102,0.00117
3720.67084,0.00127
3718.61067,0.00145
3716.55050,0.00159
3714.49033,0.00147
3712.43015,0.00140
3710.36998,0.00180
3708.30981,0.00194
3706.24964,0.00197
3704.18947,0.00241
3702.12929,0.00282
3700.06912,0.00263
3698.00895,0.00215
3695.94878,0.00183
3693.88861,0.00152
3691.82843,0.00118
3689.76826,0.00110
3687.70809,0.00158
3685.64792,0.00215
3683.58775,0.00250
3681.52757,0.00261
3679.46740,0.00249
3677.40723,0.00228
3675.34706,0.00237
3673.28688,0.00281
3671.22671,0.00330
3669.16654,0.00380
3667.10637,0.00421
3665.04620,0.00440
3662.98602,0.00445
3660.92585,0.00446
3658.86568,0.00453
3656.80551,0.00481
3654.74534,0.00529
3652.68516,0.00569
3650.62499,0.00600
3648.56482,0.00639
3646.50465,0.00676
3644.44447,0.00689
3642.38430,0.00694
3640.32413,0.00722
3638.26396,0.00770
3636.20379,0.00815
3634.14361,0.00815
3632.08344,0.00759
3630.02327,0.00743
3627.96310,0.00868
3625.90293,0.01035
3623.84275,0.01136
3621.78258,0.01164
3619.72241,0.01159
3617.66224,0.01164
3615.60207,0.01180
3613.54189,0.01223
3611.48172,0.01293
3609.42155,0.01391
3607.36138,0.01483
3605.30120,0.01513
3603.24103,0.01508
3601.18086,0.01516
3599.12069,0.01576
3597.06052,0.01673
3595.00034,0.01750
3592.94017,0.01781
3590.88000,0.01824
3588.81983,0.01903
3586.75966,0.01975
3584.69948,0.01993
3582.63931,0.01986
3580.57914,0.02003
3578.51897,0.02052
3576.45879,0.02103
3574.39862,0.02135
3572.33845,0.02165
3570.27828,0.02208
3568.21811,0.02247
3566.15793,0.02270
3564.09776,0.02305
3562.03759,0.02357
3559.97742,0.02409
3557.91725,0.02464
3555.85707,0.02535
3553.79690,0.02609
3551.73673,0.02657
3549.67656,0.02685
3547.61639,0.02729
3545.55621,0.02805
3543.49604,0.02889
3541.43587,0.02944
3539.37570,0.02961
3537.31552,0.02964
3535.25535,0.02996
3533.19518,0.03081
3531.13501,0.03178
3529.07484,0.03213
3527.01466,0.03186
3524.95449,0.03186
3522.89432,0.03243
3520.83415,0.03295
3518.77398,0.03318
3516.71380,0.03371
3514.65363,0.03459
3512.59346,0.03515
3510.53329,0.03520
3508.47312,0.03528
3506.41294,0.03573
3504.35277,0.03623
3502.29260,0.03675
3500.23243,0.03742
3498.17225,0.03786
3496.11208,0.03796
3494.05191,0.03806
3491.99174,0.03838
3489.93157,0.03885
3487.87139,0.03913
3485.81122,0.03916
3483.75105,0.03942
3481.69088,0.04027
3479.63071,0.04107
3477.57053,0.04117
3475.51036,0.04103
3473.45019,0.04113
3471.39002,0.04148
3469.32984,0.04211
3467.26967,0.04298
3465.20950,0.04370
3463.14933,0.04406
3461.08916,0.04431
3459.02898,0.04447
3456.96881,0.04450
3454.90864,0.04473
3452.84847,0.04513
3450.78830,0.04552
3448.72812,0.04589
3446.66795,0.04610
3444.60778,0.04608
3442.54761,0.04612
3440.48744,0.04634
3438.42726,0.04661
3436.36709,0.04707
3434.30692,0.04796
3432.24675,0.04886
3430.18657,0.04921
3428.12640,0.04921
3426.06623,0.04915
3424.00606,0.04916
3421.94589,0.04946
3419.88571,0.04979
3417.82554,0.04986
3415.76537,0.04988
3413.70520,0.05011
3411.64503,0.05053
3409.58485,0.05063
3407.52468,0.05048
3405.46451,0.05072
3403.40434,0.05129
3401.34416,0.05159
3399.28399,0.05150
3397.22382,0.05148
3395.16365,0.05182
3393.10348,0.05236
3391.04330,0.05275
3388.98313,0.05279
3386.92296,0.05269
3384.86279,0.05264
3382.80262,0.05270
3380.74244,0.05297
3378.68227,0.05324
3376.62210,0.05333
3374.56193,0.05354
3372.50176,0.05391
3370.44158,0.05404
3368.38141,0.05403
3366.32124,0.05424
3364.26107,0.05447
3362.20089,0.05450
3360.14072,0.05466
3358.08055,0.05507
3356.02038,0.05539
3353.96021,0.05537
3351.90003,0.05525
3349.83986,0.05498
3347.77969,0.05444
3345.71952,0.05414
3343.65935,0.05435
3341.59917,0.05478
3339.53900,0.05513
3337.47883,0.05513
3335.41866,0.05487
3333.35849,0.05474
3331.29831,0.05471
3329.23814,0.05478
3327.17797,0.05501
3325.11780,0.05522
3323.05762,0.05535
3320.99745,0.05547
3318.93728,0.05557
3316.87711,0.05569
3314.81694,0.05557
3312.75676,0.05517
3310.69659,0.05506
3308.63642,0.05532
3306.57625,0.05553
3304.51608,0.05578
3302.45590,0.05617
3300.39573,0.05633
3298.33556,0.05613
3296.27539,0.05595
3294.21521,0.05585
3292.15504,0.05567
3290.09487,0.05559
3288.03470,0.05599
3285.97453,0.05667
3283.91435,0.05689
3281.85418,0.05654
3279.79401,0.05618
3277.73384,0.05605
3275.67367,0.05601
3273.61349,0.05602
3271.55332,0.05603
3269.49315,0.05593
3267.43298,0.05580
3265.37281,0.05578
3263.31263,0.05581
3261.25246,0.05594
3259.19229,0.05601
3257.13212,0.05573
3255.07194,0.05556
3253.01177,0.05591
3250.95160,0.05632
3248.89143,0.05647
3246.83126,0.05646
3244.77108,0.05639
3242.71091,0.05643
3240.65074,0.05636
3238.59057,0.05601
3236.53040,0.05585
3234.47022,0.05589
3232.41005,0.05588
3230.34988,0.05598
3228.28971,0.05609
3226.22954,0.05582
3224.16936,0.05534
3222.10919,0.05500
3220.04902,0.05492
3217.98885,0.05503
3215.92867,0.05510
3213.86850,0.05504
3211.80833,0.05482
3209.74816,0.05441
3207.68799,0.05403
3205.62781,0.05407
3203.56764,0.05440
3201.50747,0.05462
3199.44730,0.05472
3197.38713,0.05467
3195.32695,0.05427
3193.26678,0.05370
3191.20661,0.05357
3189.14644,0.05406
3187.08626,0.05452
3185.02609,0.05445
3182.96592,0.05411
3180.90575,0.05368
3178.84558,0.05324
3176.78540,0.05294
3174.72523,0.05277
3172.66506,0.05267
3170.60489,0.05253
3168.54472,0.05242
3166.48454,0.05252
3164.42437,0.05249
3162.36420,0.05194
3160.30403,0.05147
3158.24386,0.05153
3156.18368,0.05161
3154.12351,0.05142
3152.06334,0.05107
3150.00317,0.05073
3147.94299,0.05065
3145.88282,0.05080
3143.82265,0.05076
3141.76248,0.05038
3139.70231,0.04999
3137.64213,0.04971
3135.58196,0.04942
3133.52179,0.04919
3131.46162,0.04925
3129.40145,0.04934
3127.34127,0.04903
3125.28110,0.04857
3123.22093,0.04839
3121.16076,0.04834
3119.10058,0.04806
3117.04041,0.04764
3114.98024,0.04755
3112.92007,0.04773
3110.85990,0.04769
3108.79972,0.04736
3106.73955,0.04708
3104.67938,0.04689
3102.61921,0.04658
3100.55904,0.04642
3098.49886,0.04641
3096.43869,0.04625
3094.37852,0.04600
3092.31835,0.04563
3090.25818,0.04514
3088.19800,0.04479
3086.13783,0.04462
3084.07766,0.04452
3082.01749,0.04448
3079.95731,0.04446
3077.89714,0.04425
3075.83697,0.04387
3073.77680,0.04355
3071.71663,0.04337
3069.65645,0.04328
3067.59628,0.04309
3065.53611,0.04277
3063.47594,0.04256
3061.41577,0.04240
3059.35559,0.04209
3057.29542,0.04178
3055.23525,0.04149
3053.17508,0.04116
3051.11491,0.04084
3049.05473,0.04062
3046.99456,0.04043
3044.93439,0.04014
3042.87422,0.03989
3040.81404,0.03982
3038.75387,0.03977
3036.69370,0.03972
3034.63353,0.03952
3032.57336,0.03908
3030.51318,0.03872
3028.45301,0.03843
3026.39284,0.03793
3024.33267,0.03739
3022.27250,0.03708
3020.21232,0.03687
3018.15215,0.03675
3016.09198,0.03673
3014.03181,0.03658
3011.97163,0.03624
3009.91146,0.03581
3007.85129,0.03537
3005.79112,0.03497
3003.73095,0.03485
3001.67077,0.03498
2999.61060,0.03490
2997.55043,0.03464
2995.49026,0.03463
2993.43009,0.03481
2991.36991,0.03475
2989.30974,0.03437
2987.24957,0.03401
2985.18940,0.03369
2983.12923,0.03339
2981.06905,0.03333
2979.00888,0.03338
2976.94871,0.03327
2974.88854,0.03309
2972.82836,0.03311
2970.76819,0.03325
2968.70802,0.03311
2966.64785,0.03262
2964.58768,0.03230
2962.52750,0.03237
2960.46733,0.03256
2958.40716,0.03260
2956.34699,0.03251
2954.28682,0.03234
2952.22664,0.03222
2950.16647,0.03224
2948.10630,0.03230
2946.04613,0.03238
2943.98596,0.03256
2941.92578,0.03263
2939.86561,0.03242
2937.80544,0.03222
2935.74527,0.03210
2933.68509,0.03183
2931.62492,0.03170
2929.56475,0.03171
2927.50458,0.03158
2925.44441,0.03143
2923.38423,0.03134
2921.32406,0.03124
2919.26389,0.03111
2917.20372,0.03092
2915.14355,0.03059
2913.08337,0.03035
2911.02320,0.03039
2908.96303,0.03033
2906.90286,0.02990
2904.84268,0.02947
2902.78251,0.02927
2900.72234,0.02927
2898.66217,0.02942
2896.60200,0.02951
2894.54182,0.02948
2892.48165,0.02944
2890.42148,0.02934
2888.36131,0.02906
2886.30114,0.02872
2884.24096,0.02861
2882.18079,0.02854
2880.12062,0.02828
2878.06045,0.02803
2876.00028,0.02798
2873.94010,0.02808
2871.87993,0.02805
2869.81976,0.02787
2867.75959,0.02773
2865.69941,0.02756
2863.63924,0.02744
2861.57907,0.02753
2859.51890,0.02755
2857.45873,0.02717
2855.39855,0.02668
2853.33838,0.02659
2851.27821,0.02668
2849.21804,0.02653
2847.15787,0.02615
2845.09769,0.02590
2843.03752,0.02581
2840.97735,0.02562
2838.91718,0.02546
2836.85700,0.02552
2834.79683,0.02553
2832.73666,0.02537
2830.67649,0.02520
2828.61632,0.02507
2826.55614,0.02487
2824.49597,0.02454
2822.43580,0.02423
2820.37563,0.02415
2818.31546,0.02430
2816.25528,0.02443
2814.19511,0.02428
2812.13494,0.02407
2810.07477,0.02401
2808.01460,0.02386
2805.95442,0.02354
2803.89425,0.02333
2801.83408,0.02334
2799.77391,0.02331
2797.71373,0.02313
2795.65356,0.02287
2793.59339,0.02259
2791.53322,0.02245
2789.47305,0.02240
2787.41287,0.02225
2785.35270,0.02208
2783.29253,0.02218
2781.23236,0.02244
2779.17219,0.02240
2777.11201,0.02207
2775.05184,0.02175
2772.99167,0.02151
2770.93150,0.02138
2768.87133,0.02146
2766.81115,0.02170
2764.75098,0.02175
2762.69081,0.02152
2760.63064,0.02122
2758.57046,0.02093
2756.51029,0.02087
2754.45012,0.02095
2752.38995,0.02086
2750.32978,0.02066
2748.26960,0.02045
2746.20943,0.02032
2744.14926,0.02023
2742.08909,0.02007
2740.02892,0.01990
2737.96874,0.01979
2735.90857,0.01963
2733.84840,0.01949
2731.78823,0.01936
2729.72805,0.01927
2727.66788,0.01929
2725.60771,0.01924
2723.54754,0.01908
2721.48737,0.01903
2719.42719,0.01907
2717.36702,0.01899
2715.30685,0.01882
2713.24668,0.01874
2711.18651,0.01880
2709.12633,0.01876
2707.06616,0.01849
2705.00599,0.01812
2702.94582,0.01785
2700.88565,0.01775
2698.82547,0.01777
2696.76530,0.01776
2694.70513,0.01760
2692.64496,0.01744
2690.58478,0.01745
2688.52461,0.01756
2686.46444,0.01755
2684.40427,0.01739
2682.34410,0.01713
2680.28392,0.01672
2678.22375,0.01634
2676.16358,0.01633
2674.10341,0.01652
2672.04324,0.01655
2669.98306,0.01652
2667.92289,0.01645
2665.86272,0.01619
2663.80255,0.01602
2661.74238,0.01606
2659.68220,0.01619
2657.62203,0.01625
2655.56186,0.01596
2653.50169,0.01560
2651.44151,0.01560
2649.38134,0.01560
2647.32117,0.01526
2645.26100,0.01485
2643.20083,0.01476
2641.14065,0.01484
2639.08048,0.01480
2637.02031,0.01481
2634.96014,0.01484
2632.89997,0.01466
2630.83979,0.01441
2628.77962,0.01426
2626.71945,0.01407
2624.65928,0.01371
2622.59910,0.01338
2620.53893,0.01321
2618.47876,0.01314
2616.41859,0.01322
2614.35842,0.01343
2612.29824,0.01357
2610.23807,0.01355
2608.17790,0.01351
2606.11773,0.01347
2604.05756,0.01326
2601.99738,0.01298
2599.93721,0.01278
2597.87704,0.01258
2595.81687,0.01241
2593.75670,0.01238
2591.69652,0.01231
2589.63635,0.01205
2587.57618,0.01176
2585.51601,0.01165
2583.45583,0.01171
2581.39566,0.01173
2579.33549,0.01190
2577.27532,0.01227
2575.21515,0.01236
2573.15497,0.01231
2571.09480,0.01246
2569.03463,0.01243
2566.97446,0.01229
2564.91429,0.01241
2562.85411,0.01240
2560.79394,0.01204
2558.73377,0.01193
2556.67360,0.01210
2554.61342,0.01202
2552.55325,0.01195
2550.49308,0.01207
2548.43291,0.01201
2546.37274,0.01189
2544.31256,0.01183
2542.25239,0.01180
2540.19222,0.01187
2538.13205,0.01201
2536.07188,0.01220
2534.01170,0.01235
2531.95153,0.01248
2529.89136,0.01249
2527.83119,0.01208
2525.77102,0.01156
2523.71084,0.01141
2521.65067,0.01151
2519.59050,0.01161
2517.53033,0.01178
2515.47015,0.01208
2513.40998,0.01210
2511.34981,0.01176
2509.28964,0.01142
2507.22947,0.01147
2505.16929,0.01200
2503.10912,0.01253
2501.04895,0.01267
2498.98878,0.01246
2496.92861,0.01220
2494.86843,0.01207
2492.80826,0.01211
2490.74809,0.01215
2488.68792,0.01198
2486.62775,0.01184
2484.56757,0.01201
2482.50740,0.01216
2480.44723,0.01234
2478.38706,0.01248
2476.32688,0.01219
2474.26671,0.01180
2472.20654,0.01175
2470.14637,0.01179
2468.08620,0.01183
2466.02602,0.01202
2463.96585,0.01219
2461.90568,0.01231
2459.84551,0.01247
2457.78534,0.01246
2455.72516,0.01248
2453.66499,0.01271
2451.60482,0.01278
2449.54465,0.01272
2447.48447,0.01270
2445.42430,0.01279
2443.36413,0.01282
2441.30396,0.01245
2439.24379,0.01199
2437.18361,0.01223
2435.12344,0.01303
2433.06327,0.01323
2431.00310,0.01283
2428.94293,0.01277
2426.88275,0.01272
2424.82258,0.01242
2422.76241,0.01250
2420.70224,0.01289
2418.64207,0.01316
2416.58189,0.01323
2414.52172,0.01309
2412.46155,0.01273
2410.40138,0.01246
2408.34120,0.01260
2406.28103,0.01278
2404.22086,0.01273
2402.16069,0.01262
2400.10052,0.01244
2398.04034,0.01243
2395.98017,0.01247
2393.92000,0.01240
2391.85983,0.01222
2389.79966,0.01214
2387.73948,0.01226
2385.67931,0.01240
2383.61914,0.01235
2381.55897,0.01231
2379.49880,0.01253
2377.43862,0.01290
2375.37845,0.01246
2373.31828,0.01141
2371.25811,0.01038
2369.19793,0.00987
2367.13776,0.01109
2365.07759,0.01345
2363.01742,0.01337
2360.95725,0.01322
2358.89707,0.01217
2356.83690,0.01098
2354.77673,0.01079
2352.71656,0.01240
2350.65639,0.01650
2348.59621,0.01794
2346.53604,0.01242
2344.47587,0.01059
2342.41570,0.01133
2340.35552,0.01233
2338.29535,0.01323
2336.23518,0.01341
2334.17501,0.01365
2332.11484,0.01385
2330.05466,0.01415
2327.99449,0.01388
2325.93432,0.01450
2323.87415,0.01430
2321.81398,0.01403
2319.75380,0.01346
2317.69363,0.01365
2315.63346,0.01290
2313.57329,0.01168
2311.51312,0.01143
2309.45294,0.01207
2307.39277,0.01282
2305.33260,0.01312
2303.27243,0.01309
2301.21225,0.01281
2299.15208,0.01269
2297.09191,0.01257
2295.03174,0.01233
2292.97157,0.01217
2290.91139,0.01218
2288.85122,0.01235
2286.79105,0.01261
2284.73088,0.01278
2282.67071,0.01265
2280.61053,0.01217
2278.55036,0.01143
2276.49019,0.01067
2274.43002,0.01029
2272.36984,0.01035
2270.30967,0.01059
2268.24950,0.01063
2266.18933,0.01046
2264.12916,0.01004
2262.06898,0.00961
2260.00881,0.00944
2257.94864,0.00935
2255.88847,0.00939
2253.82830,0.00985
2251.76812,0.01032
2249.70795,0.01039
2247.64778,0.01026
2245.58761,0.01012
2243.52744,0.00971
2241.46726,0.00927
2239.40709,0.00899
2237.34692,0.00882
2235.28675,0.00927
2233.22657,0.00971
2231.16640,0.00944
2229.10623,0.00978
2227.04606,0.01034
2224.98589,0.00990
2222.92571,0.00944
2220.86554,0.00965
2218.80537,0.00992
2216.74520,0.00921
2214.68503,0.00786
2212.62485,0.00767
2210.56468,0.00838
2208.50451,0.00818
2206.44434,0.00779
2204.38417,0.00857
2202.32399,0.00902
2200.26382,0.00888
2198.20365,0.00926
2196.14348,0.00864
2194.08330,0.00698
2192.02313,0.00666
2189.96296,0.00729
2187.90279,0.00654
2185.84262,0.00488
2183.78244,0.00474
2181.72227,0.00648
2179.66210,0.00817
2177.60193,0.00809
2175.54176,0.00718
2173.48158,0.00713
2171.42141,0.00720
2169.36124,0.00648
2167.30107,0.00598
2165.24089,0.00686
2163.18072,0.00792
2161.12055,0.00660
2159.06038,0.00332
2157.00021,0.00166
2154.94003,0.00237
2152.87986,0.00357
2150.81969,0.00467
2148.75952,0.00543
2146.69935,0.00549
2144.63917,0.00550
2142.57900,0.00614
2140.51883,0.00662
2138.45866,0.00605
2136.39849,0.00520
2134.33831,0.00505
2132.27814,0.00542
2130.21797,0.00570
2128.15780,0.00563
2126.09762,0.00574
2124.03745,0.00611
2121.97728,0.00624
2119.91711,0.00654
2117.85694,0.00738
2115.79676,0.00828
2113.73659,0.00888
2111.67642,0.00882
2109.61625,0.00807
2107.55608,0.00705
2105.49590,0.00640
2103.43573,0.00631
2101.37556,0.00616
2099.31539,0.00575
2097.25521,0.00543
2095.19504,0.00557
2093.13487,0.00623
2091.07470,0.00683
2089.01453,0.00682
2086.95435,0.00643
2084.89418,0.00637
2082.83401,0.00669
2080.77384,0.00700
2078.71367,0.00709
2076.65349,0.00663
2074.59332,0.00584
2072.53315,0.00561
2070.47298,0.00587
2068.41281,0.00575
2066.35263,0.00543
2064.29246,0.00560
2062.23229,0.00612
2060.17212,0.00692
2058.11194,0.00739
2056.05177,0.00690
2053.99160,0.00624
2051.93143,0.00586
2049.87126,0.00530
2047.81108,0.00481
2045.75091,0.00530
2043.69074,0.00592
2041.63057,0.00552
2039.57040,0.00418
2037.51022,0.00252
2035.45005,0.00248
2033.38988,0.00450
2031.32971,0.00580
2029.26954,0.00505
2027.20936,0.00389
2025.14919,0.00316
2023.08902,0.00289
2021.02885,0.00304
2018.96867,0.00308
2016.90850,0.00369
2014.84833,0.00529
2012.78816,0.00607
2010.72799,0.00559
2008.66781,0.00531
2006.60764,0.00507
2004.54747,0.00414
2002.48730,0.00335
2000.42713,0.00349
1998.36695,0.00408
1996.30678,0.00433
1994.24661,0.00469
1992.18644,0.00531
1990.12626,0.00486
1988.06609,0.00374
1986.00592,0.00344
1983.94575,0.00375
1981.88558,0.00436
1979.82540,0.00542
1977.76523,0.00629
1975.70506,0.00585
1973.64489,0.00453
1971.58472,0.00338
1969.52454,0.00232
1967.46437,0.00183
1965.40420,0.00222
1963.34403,0.00226
1961.28386,0.00202
1959.22368,0.00262
1957.16351,0.00325
1955.10334,0.00283
1953.04317,0.00220
1950.98299,0.00267
1948.92282,0.00387
1946.86265,0.00448
1944.80248,0.00434
1942.74231,0.00397
1940.68213,0.00368
1938.62196,0.00382
1936.56179,0.00405
1934.50162,0.00392
1932.44145,0.00377
1930.38127,0.00353
1928.32110,0.00303
1926.26093,0.00300
1924.20076,0.00376
1922.14059,0.00438
1920.08041,0.00441
1918.02024,0.00436
1915.96007,0.00444
1913.89990,0.00469
1911.83972,0.00509
1909.77955,0.00535
1907.71938,0.00545
1905.65921,0.00554
1903.59904,0.00544
1901.53886,0.00505
1899.47869,0.00462
1897.41852,0.00448
1895.35835,0.00464
1893.29818,0.00498
1891.23800,0.00537
1889.17783,0.00546
1887.11766,0.00498
1885.05749,0.00438
1882.99731,0.00417
1880.93714,0.00434
1878.87697,0.00459
1876.81680,0.00463
1874.75663,0.00439
1872.69645,0.00401
1870.63628,0.00384
1868.57611,0.00421
1866.51594,0.00480
1864.45577,0.00512
1862.39559,0.00506
1860.33542,0.00507
1858.27525,0.00547
1856.21508,0.00571
1854.15491,0.00546
1852.09473,0.00515
1850.03456,0.00492
1847.97439,0.00449
1845.91422,0.00401
1843.85404,0.00396
1841.79387,0.00430
1839.73370,0.00461
1837.67353,0.00495
1835.61336,0.00530
1833.55318,0.00539
1831.49301,0.00535
1829.43284,0.00538
1827.37267,0.00532
1825.31250,0.00511
1823.25232,0.00476
1821.19215,0.00448
1819.13198,0.00457
1817.07181,0.00487
1815.01163,0.00519
1812.95146,0.00538
1810.89129,0.00521
1808.83112,0.00496
1806.77095,0.00500
1804.71077,0.00511
1802.65060,0.00511
1800.59043,0.00506
1798.53026,0.00497
1796.47009,0.00480
1794.40991,0.00475
1792.34974,0.00494
1790.28957,0.00511
1788.22940,0.00511
1786.16923,0.00507
1784.10905,0.00509
1782.04888,0.00529
1779.98871,0.00567
1777.92854,0.00589
1775.86836,0.00587
1773.80819,0.00576
1771.74802,0.00568
1769.68785,0.00579
1767.62768,0.00603
1765.56750,0.00625
1763.50733,0.00632
1761.44716,0.00623
1759.38699,0.00631
1757.32682,0.00677
1755.26664,0.00718
1753.20647,0.00725
1751.14630,0.00727
1749.08613,0.00740
1747.02596,0.00751
1744.96578,0.00752
1742.90561,0.00752
1740.84544,0.00769
1738.78527,0.00800
1736.72509,0.00813
1734.66492,0.00822
1732.60475,0.00852
1730.54458,0.00873
1728.48441,0.00879
1726.42423,0.00890
1724.36406,0.00914
1722.30389,0.00940
1720.24372,0.00961
1718.18355,0.00983
1716.12337,0.01011
1714.06320,0.01040
1712.00303,0.01054
1709.94286,0.01051
1707.88268,0.01056
1705.82251,0.01090
1703.76234,0.01131
1701.70217,0.01160
1699.64200,0.01201
1697.58182,0.01262
1695.52165,0.01325
1693.46148,0.01365
1691.40131,0.01382
1689.34114,0.01398
1687.28096,0.01443
1685.22079,0.01539
1683.16062,0.01636
1681.10045,0.01653
1679.04028,0.01645
1676.98010,0.01675
1674.91993,0.01736
1672.85976,0.01790
1670.79959,0.01843
1668.73941,0.01914
1666.67924,0.01972
1664.61907,0.02006
1662.55890,0.02037
1660.49873,0.02068
1658.43855,0.02084
1656.37838,0.02079
1654.31821,0.02082
1652.25804,0.02133
1650.19787,0.02178
1648.13769,0.02181
1646.07752,0.02180
1644.01735,0.02193
1641.95718,0.02201
1639.89701,0.02188
1637.83683,0.02149
1635.77666,0.02100
1633.71649,0.02077
1631.65632,0.02073
1629.59614,0.02063
1627.53597,0.02040
1625.47580,0.02015
1623.41563,0.01992
1621.35546,0.01975
1619.29528,0.01972
1617.23511,0.01975
1615.17494,0.01964
1613.11477,0.01944
1611.05460,0.01926
1608.99442,0.01893
1606.93425,0.01839
1604.87408,0.01788
1602.81391,0.01749
1600.75373,0.01718
1598.69356,0.01690
1596.63339,0.01657
1594.57322,0.01611
1592.51305,0.01558
1590.45287,0.01503
1588.39270,0.01446
1586.33253,0.01396
1584.27236,0.01362
1582.21219,0.01332
1580.15201,0.01294
1578.09184,0.01264
1576.03167,0.01258
1573.97150,0.01240
1571.91133,0.01181
1569.85115,0.01113
1567.79098,0.01077
1565.73081,0.01067
1563.67064,0.01047
1561.61046,0.01007
1559.55029,0.00982
1557.49012,0.00987
1555.42995,0.00973
1553.36978,0.00937
1551.30960,0.00895
1549.24943,0.00858
1547.18926,0.00841
1545.12909,0.00833
1543.06892,0.00813
1541.00874,0.00792
1538.94857,0.00789
1536.88840,0.00776
1534.82823,0.00738
1532.76805,0.00693
1530.70788,0.00670
1528.64771,0.00664
1526.58754,0.00660
1524.52737,0.00663
1522.46719,0.00682
1520.40702,0.00692
1518.34685,0.00666
1516.28668,0.00629
1514.22651,0.00612
1512.16633,0.00614
1510.10616,0.00607
1508.04599,0.00563
1505.98582,0.00513
1503.92565,0.00500
1501.86547,0.00515
1499.80530,0.00536
1497.74513,0.00544
1495.68496,0.00535
1493.62478,0.00521
1491.56461,0.00508
1489.50444,0.00514
1487.44427,0.00540
1485.38410,0.00552
1483.32392,0.00533
1481.26375,0.00514
1479.20358,0.00521
1477.14341,0.00546
1475.08324,0.00571
1473.02306,0.00596
1470.96289,0.00618
1468.90272,0.00621
1466.84255,0.00617
1464.78238,0.00631
1462.72220,0.00646
1460.66203,0.00637
1458.60186,0.00635
1456.54169,0.00664
1454.48151,0.00686
1452.42134,0.00680
1450.36117,0.00664
1448.30100,0.00653
1446.24083,0.00650
1444.18065,0.00652
1442.12048,0.00652
1440.06031,0.00638
1438.00014,0.00626
1435.93997,0.00640
1433.87979,0.00667
1431.81962,0.00685
1429.75945,0.00694
1427.69928,0.00706
1425.63910,0.00724
1423.57893,0.00740
1421.51876,0.00750
1419.45859,0.00769
1417.39842,0.00797
1415.33824,0.00796
1413.27807,0.00771
1411.21790,0.00751
1409.15773,0.00743
1407.09756,0.00737
1405.03738,0.00733
1402.97721,0.00725
1400.91704,0.00705
1398.85687,0.00678
1396.79670,0.00652
1394.73652,0.00638
1392.67635,0.00630
1390.61618,0.00620
1388.55601,0.00615
1386.49583,0.00631
1384.43566,0.00651
1382.37549,0.00661
1380.31532,0.00664
1378.25515,0.00660
1376.19497,0.00648
1374.13480,0.00630
1372.07463,0.00614
1370.01446,0.00601
1367.95429,0.00593
1365.89411,0.00591
1363.83394,0.00595
1361.77377,0.00599
1359.71360,0.00597
1357.65343,0.00589
1355.59325,0.00572
1353.53308,0.00541
1351.47291,0.00515
1349.41274,0.00512
1347.35256,0.00525
1345.29239,0.00543
1343.23222,0.00561
1341.17205,0.00566
1339.11188,0.00548
1337.05170,0.00523
1334.99153,0.00513
1332.93136,0.00510
1330.87119,0.00500
1328.81102,0.00484
1326.75084,0.00479
1324.69067,0.00479
1322.63050,0.00478
1320.57033,0.00483
1318.51015,0.00489
1316.44998,0.00500
1314.38981,0.00517
1312.32964,0.00523
1310.26947,0.00510
1308.20929,0.00495
1306.14912,0.00490
1304.08895,0.00490
1302.02878,0.00488
1299.96861,0.00484
1297.90843,0.00481
1295.84826,0.00482
1293.78809,0.00492
1291.72792,0.00504
1289.66775,0.00503
1287.60757,0.00500
1285.54740,0.00513
1283.48723,0.00538
1281.42706,0.00555
1279.36688,0.00560
1277.30671,0.00566
1275.24654,0.00573
1273.18637,0.00578
1271.12620,0.00582
1269.06602,0.00590
1267.00585,0.00602
1264.94568,0.00605
1262.88551,0.00605
1260.82534,0.00605
1258.76516,0.00597
1256.70499,0.00585
1254.64482,0.00583
1252.58465,0.00587
1250.52447,0.00582
1248.46430,0.00569
1246.40413,0.00555
1244.34396,0.00542
1242.28379,0.00530
1240.22361,0.00528
1238.16344,0.00531
1236.10327,0.00529
1234.04310,0.00514
1231.98293,0.00483
1229.92275,0.00452
1227.86258,0.00429
1225.80241,0.00413
1223.74224,0.00397
1221.68207,0.00365
1219.62189,0.00331
1217.56172,0.00314
1215.50155,0.00308
1213.44138,0.00297
1211.38120,0.00280
1209.32103,0.00272
1207.26086,0.00265
1205.20069,0.00252
1203.14052,0.00257
1201.08034,0.00276
1199.02017,0.00283
1196.96000,0.00279
1194.89983,0.00277
1192.83966,0.00287
1190.77948,0.00316
1188.71931,0.00350
1186.65914,0.00368
1184.59897,0.00387
1182.53880,0.00437
1180.47862,0.00515
1178.41845,0.00591
1176.35828,0.00655
1174.29811,0.00712
1172.23793,0.00780
1170.17776,0.00865
1168.11759,0.00963
1166.05742,0.01072
1163.99725,0.01170
1161.93707,0.01232
1159.87690,0.01283
1157.81673,0.01356
1155.75656,0.01434
1153.69639,0.01504
1151.63621,0.01576
1149.57604,0.01644
1147.51587,0.01721
1145.45570,0.01820
1143.39552,0.01916
1141.33535,0.01992
1139.27518,0.02070
1137.21501,0.02161
1135.15484,0.02252
1133.09466,0.02336
1131.03449,0.02438
1128.97432,0.02558
1126.91415,0.02680
1124.85398,0.02804
1122.79380,0.02915
1120.73363,0.02995
1118.67346,0.03083
1116.61329,0.03222
1114.55312,0.03382
1112.49294,0.03529
1110.43277,0.03688
1108.37260,0.03868
1106.31243,0.04013
1104.25225,0.04116
1102.19208,0.04228
1100.13191,0.04356
1098.07174,0.04479
1096.01157,0.04599
1093.95139,0.04714
1091.89122,0.04830
1089.83105,0.04960
1087.77088,0.05083
1085.71071,0.05178
1083.65053,0.05262
1081.59036,0.05358
1079.53019,0.05452
1077.47002,0.05531
1075.40985,0.05609
1073.34967,0.05676
1071.28950,0.05722
1069.22933,0.05767
1067.16916,0.05802
1065.10898,0.05802
1063.04881,0.05790
1060.98864,0.05779
1058.92847,0.05752
1056.86830,0.05697
1054.80812,0.05605
1052.74795,0.05503
1050.68778,0.05417
1048.62761,0.05327
1046.56744,0.05234
1044.50726,0.05148
1042.44709,0.05045
1040.38692,0.04913
1038.32675,0.04770
1036.26657,0.04646
1034.20640,0.04560
1032.14623,0.04486
1030.08606,0.04377
1028.02589,0.04242
1025.96571,0.04123
1023.90554,0.04026
1021.84537,0.03935
1019.78520,0.03848
1017.72503,0.03751
1015.66485,0.03648
1013.60468,0.03580
1011.54451,0.03547
1009.48434,0.03512
1007.42417,0.03461
1005.36399,0.03415
1003.30382,0.03404
1001.24365,0.03433
999.18348,0.03489
997.12330,0.03566
995.06313,0.03651
993.00296,0.03737
990.94279,0.03813
988.88262,0.03856
986.82244,0.03880
984.76227,0.03894
982.70210,0.03894
980.64193,0.03882
978.58176,0.03844
976.52158,0.03764
974.46141,0.03627
972.40124,0.03460
970.34107,0.03305
968.28089,0.03158
966.22072,0.03019
964.16055,0.02886
962.10038,0.02736
960.04021,0.02575
957.98003,0.02455
955.91986,0.02384
953.85969,0.02311
951.79952,0.02221
949.73935,0.02139
947.67917,0.02065
945.61900,0.02004
943.55883,0.01972
941.49866,0.01938
939.43849,0.01890
937.37831,0.01883
935.31814,0.01899
933.25797,0.01886
931.19780,0.01871
929.13762,0.01871
927.07745,0.01857
925.01728,0.01833
922.95711,0.01795
920.89694,0.01722
918.83676,0.01647
916.77659,0.01597
914.71642,0.01549
912.65625,0.01508
910.59608,0.01477
908.53590,0.01429
906.47573,0.01377
904.41556,0.01345
902.35539,0.01331
900.29522,0.01341
898.23504,0.01367
896.17487,0.01404
894.11470,0.01437
892.05453,0.01455
889.99435,0.01480
887.93418,0.01528
885.87401,0.01598
883.81384,0.01641
881.75367,0.01628
879.69349,0.01619
877.63332,0.01623
875.57315,0.01649
873.51298,0.01728
871.45281,0.01810
869.39263,0.01843
867.33246,0.01849
865.27229,0.01840
863.21212,0.01795
861.15194,0.01760
859.09177,0.01774
857.03160,0.01773
854.97143,0.01727
852.91126,0.01696
850.85108,0.01692
848.79091,0.01665
846.73074,0.01621
844.67057,0.01580
842.61040,0.01544
840.55022,0.01532
838.49005,0.01529
836.42988,0.01495
834.36971,0.01436
832.30954,0.01397
830.24936,0.01379
828.18919,0.01316
826.12902,0.01211
824.06885,0.01162
822.00867,0.01160
819.94850,0.01122
817.88833,0.01076
815.82816,0.01071
813.76799,0.01089
811.70781,0.01107
809.64764,0.01066
807.58747,0.00958
805.52730,0.00887
803.46713,0.00897
801.40695,0.00907
799.34678,0.00870
797.28661,0.00835
795.22644,0.00805
793.16627,0.00755
791.10609,0.00726
789.04592,0.00726
786.98575,0.00735
784.92558,0.00783
782.86540,0.00858
780.80523,0.00908
778.74506,0.00915
776.68489,0.00872
774.62472,0.00844
772.56454,0.00864
770.50437,0.00880
768.44420,0.00878
766.38403,0.00866
764.32386,0.00846
762.26368,0.00806
760.20351,0.00767
758.14334,0.00770
756.08317,0.00747
754.02299,0.00702
751.96282,0.00733
749.90265,0.00797
747.84248,0.00787
745.78231,0.00724
743.72213,0.00678
741.66196,0.00655
739.60179,0.00627
737.54162,0.00631
735.48145,0.00699
733.42127,0.00752
731.36110,0.00746
729.30093,0.00714
727.24076,0.00678
725.18059,0.00626
723.12041,0.00603
721.06024,0.00622
719.00007,0.00784
716.93990,0.00880
714.87972,0.00847
712.81955,0.00846
710.75938,0.00937
708.69921,0.01012
706.63904,0.00979
704.57886,0.00880
702.51869,0.00829
700.45852,0.00860
698.39835,0.00915
696.33818,0.00967
694.27800,0.01018
692.21783,0.01046
690.15766,0.01047
688.09749,0.01040
686.03731,0.00983
683.97714,0.00846
681.91697,0.00752
679.85680,0.00788
677.79663,0.00845
675.73645,0.00858
673.67628,0.00986
671.61611,0.01248
669.55594,0.00864
667.49577,0.00301
665.43559,0.01064
663.37542,0.00915
661.31525,0.00744
659.25508,0.00812
657.19491,0.00936
655.13473,0.01053
653.07456,0.01076
651.01439,0.00955
648.95422,0.00824
646.89404,0.00853
644.83387,0.00864
642.77370,0.00801
640.71353,0.00802
638.65336,0.00915
636.59318,0.01027
634.53301,0.01067
632.47284,0.00981
630.41267,0.00739
628.35250,0.00465
626.29232,0.00305
624.23215,0.00286
622.17198,0.00500
620.11181,0.00712
618.05164,0.00826
615.99146,0.00842
613.93129,0.00823
611.87112,0.00773
609.81095,0.00533
607.75077,0.00207
605.69060,0.00003
603.63043,0.00000
601.57026,0.00135
599.51009,0.00000
