3996.73391,0.00076
3994.67373,0.00067
3992.61356,0.00064
3990.55339,0.00050
3988.49322,0.00017
3986.43305,0.00000
3984.37287,0.00033
3982.31270,0.00068
3980.25253,0.00063
3978.19236,0.00058
3976.13219,0.00084
3974.07201,0.00102
3972.01184,0.00085
3969.95167,0.00073
3967.89150,0.00092
3965.83133,0.00114
3963.77115,0.00119
3961.71098,0.00110
3959.65081,0.00091
3957.59064,0.00069
3955.53046,0.00060
3953.47029,0.00072
3951.41012,0.00099
3949.34995,0.00128
3947.28978,0.00139
3945.22960,0.00130
3943.16943,0.00127
3941.10926,0.00135
3939.04909,0.00128
3936.98892,0.00113
3934.92874,0.00116
3932.86857,0.00147
3930.80840,0.00176
3928.74823,0.00163
3926.68805,0.00117
3924.62788,0.00083
3922.56771,0.00095
3920.50754,0.00115
3918.44737,0.00097
3916.38719,0.00067
3914.32702,0.00052
3912.26685,0.00034
3910.20668,0.00021
3908.14651,0.00033
3906.08633,0.00067
3904.02616,0.00092
3901.96599,0.00087
3899.90582,0.00079
3897.84565,0.00101
3895.78547,0.00123
3893.72530,0.00139
3891.66513,0.00170
3889.60496,0.00183
3887.54478,0.00149
3885.48461,0.00116
3883.42444,0.00115
3881.36427,0.00124
3879.30410,0.00138
3877.24392,0.00148
3875.18375,0.00165
3873.12358,0.00187
3871.06341,0.00173
3869.00324,0.00139
3866.94306,0.00133
3864.88289,0.00142
3862.82272,0.00135
3860.76255,0.00117
3858.70237,0.00102
3856.64220,0.00068
3854.58203,0.00021
3852.52186,0.00018
3850.46169,0.00044
3848.40151,0.00062
3846.34134,0.00078
3844.28117,0.00090
3842.22100,0.00079
3840.16083,0.00037
3838.10065,0.00000
3836.04048,0.00010
3833.98031,0.00042
3831.92014,0.00066
3829.85997,0.00101
3827.79979,0.00145
3825.73962,0.00150
3823.67945,0.00115
3821.61928,0.00100
3819.55910,0.00127
3817.49893,0.00145
3815.43876,0.00138
3813.37859,0.00128
3811.31842,0.00119
3809.25824,0.00106
3807.19807,0.00103
3805.13790,0.00098
3803.07773,0.00086
3801.01756,0.00092
3798.95738,0.00113
3796.89721,0.00149
3794.83704,0.00187
3792.77687,0.00196
3790.71670,0.00182
3788.65652,0.00152
3786.59635,0.00108
3784.53618,0.00069
3782.47601,0.00050
3780.41583,0.00063
3778.35566,0.00105
3776.29549,0.00128
3774.23532,0.00102
3772.17515,0.00062
3770.11497,0.00049
3768.05480,0.00071
3765.99463,0.00115
3763.93446,0.00157
3761.87429,0.00149
3759.81411,0.00099
3757.75394,0.00078
3755.69377,0.00098
3753.63360,0.00122
3751.57342,0.00157
3749.51325,0.00201
3747.45308,0.00227
3745.39291,0.00279
3743.33274,0.00357
3741.27256,0.00381
3739.21239,0.00355
3737.15222,0.00338
3735.09205,0.00328
3733.03188,0.00277
3730.97170,0.00225
3728.91153,0.00203
3726.85136,0.00186
3724.79119,0.00158
3722.73102,0.00132
3720.67084,0.00135
3718.61067,0.00160
3716.55050,0.00144
3714.49033,0.00097
3712.43015,0.00104
3710.36998,0.00177
3708.30981,0.00228
3706.24964,0.00234
3704.18947,0.00219
3702.12929,0.00190
3700.06912,0.00169
3698.00895,0.00186
3695.94878,0.00225
3693.88861,0.00256
3691.82843,0.00268
3689.76826,0.00254
3687.70809,0.00208
3685.64792,0.00173
3683.58775,0.00188
3681.52757,0.00218
3679.46740,0.00220
3677.40723,0.00202
3675.34706,0.00183
3673.28688,0.00204
3671.22671,0.00287
3669.16654,0.00388
3667.10637,0.00423
3665.04620,0.00399
3662.98602,0.00385
3660.92585,0.00415
3658.86568,0.00458
3656.80551,0.00473
3654.74534,0.00465
3652.68516,0.00492
3650.62499,0.00580
3648.56482,0.00650
3646.50465,0.00653
3644.44447,0.00666
3642.38430,0.00718
3640.32413,0.00794
3638.26396,0.00863
3636.20379,0.00898
3634.14361,0.00905
3632.08344,0.00892
3630.02327,0.00884
3627.96310,0.00966
3625.90293,0.01121
3623.84275,0.01223
3621.78258,0.01236
3619.72241,0.01207
3617.66224,0.01205
3615.60207,0.01260
3613.54189,0.01357
3611.48172,0.01462
3609.42155,0.01547
3607.36138,0.01632
3605.30120,0.01725
3603.24103,0.01786
3601.18086,0.01796
3599.12069,0.01795
3597.06052,0.01844
3595.00034,0.01941
3592.94017,0.02040
3590.88000,0.02107
3588.81983,0.02156
3586.75966,0.02215
3584.69948,0.02265
3582.63931,0.02281
3580.57914,0.02294
3578.51897,0.02350
3576.45879,0.02434
3574.39862,0.02499
3572.33845,0.02541
3570.27828,0.02580
3568.21811,0.02624
3566.15793,0.02672
3564.09776,0.02719
3562.03759,0.02768
3559.97742,0.02814
3557.91725,0.02861
3555.85707,0.02917
3553.79690,0.02972
3551.73673,0.03012
3549.67656,0.03048
3547.61639,0.03129
3545.55621,0.03254
3543.49604,0.03344
3541.43587,0.03387
3539.37570,0.03419
3537.31552,0.03456
3535.25535,0.03508
3533.19518,0.03576
3531.13501,0.03644
3529.07484,0.03689
3527.01466,0.03708
3524.95449,0.03739
3522.89432,0.03799
3520.83415,0.03843
3518.77398,0.03866
3516.71380,0.03919
3514.65363,0.03998
3512.59346,0.04061
3510.53329,0.04092
3508.47312,0.04100
3506.41294,0.04117
3504.35277,0.04170
3502.29260,0.04256
3500.23243,0.04336
3498.17225,0.04378
3496.11208,0.04404
3494.05191,0.04445
3491.99174,0.04497
3489.93157,0.04539
3487.87139,0.04587
3485.81122,0.04652
3483.75105,0.04706
3481.69088,0.04766
3479.63071,0.04836
3477.57053,0.04869
3475.51036,0.04872
3473.45019,0.04888
3471.39002,0.04928
3469.32984,0.04984
3467.26967,0.05038
3465.20950,0.05071
3463.14933,0.05104
3461.08916,0.05183
3459.02898,0.05254
3456.96881,0.05250
3454.90864,0.05241
3452.84847,0.05278
3450.78830,0.05307
3448.72812,0.05299
3446.66795,0.05295
3444.60778,0.05340
3442.54761,0.05421
3440.48744,0.05502
3438.42726,0.05579
3436.36709,0.05641
3434.30692,0.05676
3432.24675,0.05694
3430.18657,0.05693
3428.12640,0.05697
3426.06623,0.05706
3424.00606,0.05725
3421.94589,0.05779
3419.88571,0.05842
3417.82554,0.05882
3415.76537,0.05916
3413.70520,0.05956
3411.64503,0.05987
3409.58485,0.06003
3407.52468,0.06013
3405.46451,0.06026
3403.40434,0.06054
3401.34416,0.06096
3399.28399,0.06134
3397.22382,0.06143
3395.16365,0.06136
3393.10348,0.06135
3391.04330,0.06144
3388.98313,0.06160
3386.92296,0.06205
3384.86279,0.06269
3382.80262,0.06299
3380.74244,0.06297
3378.68227,0.06306
3376.62210,0.06325
3374.56193,0.06338
3372.50176,0.06336
3370.44158,0.06306
3368.38141,0.06301
3366.32124,0.06355
3364.26107,0.06403
3362.20089,0.06429
3360.14072,0.06475
3358.08055,0.06515
3356.02038,0.06520
3353.96021,0.06505
3351.90003,0.06499
3349.83986,0.06496
3347.77969,0.06467
3345.71952,0.06444
3343.65935,0.06465
3341.59917,0.06496
3339.53900,0.06499
3337.47883,0.06482
3335.41866,0.06467
3333.35849,0.06475
3331.29831,0.06490
3329.23814,0.06494
3327.17797,0.06498
3325.11780,0.06512
3323.05762,0.06543
3320.99745,0.06583
3318.93728,0.06606
3316.87711,0.06585
3314.81694,0.06529
3312.75676,0.06479
3310.69659,0.06486
3308.63642,0.06541
3306.57625,0.06586
3304.51608,0.06607
3302.45590,0.06633
3300.39573,0.06649
3298.33556,0.06629
3296.27539,0.06601
3294.21521,0.06597
3292.15504,0.06614
3290.09487,0.06627
3288.03470,0.06626
3285.97453,0.06635
3283.91435,0.06654
3281.85418,0.06654
3279.79401,0.06646
3277.73384,0.06671
3275.67367,0.06695
3273.61349,0.06675
3271.55332,0.06647
3269.49315,0.06643
3267.43298,0.06648
3265.37281,0.06649
3263.31263,0.06664
3261.25246,0.06692
3259.19229,0.06694
3257.13212,0.06656
3255.07194,0.06618
3253.01177,0.06608
3250.95160,0.06635
3248.89143,0.06675
3246.83126,0.06672
3244.77108,0.06625
3242.71091,0.06601
3240.65074,0.06620
3238.59057,0.06645
3236.53040,0.06653
3234.47022,0.06634
3232.41005,0.06607
3230.34988,0.06602
3228.28971,0.06608
3226.22954,0.06596
3224.16936,0.06566
3222.10919,0.06533
3220.04902,0.06511
3217.98885,0.06513
3215.92867,0.06528
3213.86850,0.06523
3211.80833,0.06493
3209.74816,0.06447
3207.68799,0.06414
3205.62781,0.06426
3203.56764,0.06449
3201.50747,0.06455
3199.44730,0.06463
3197.38713,0.06460
3195.32695,0.06411
3193.26678,0.06345
3191.20661,0.06312
3189.14644,0.06319
3187.08626,0.06332
3185.02609,0.06321
3182.96592,0.06305
3180.90575,0.06298
3178.84558,0.06289
3176.78540,0.06277
3174.72523,0.06261
3172.66506,0.06239
3170.60489,0.06214
3168.54472,0.06206
3166.48454,0.06209
3164.42437,0.06178
3162.36420,0.06114
3160.30403,0.06070
3158.24386,0.06068
3156.18368,0.06089
3154.12351,0.06097
3152.06334,0.06074
3150.00317,0.06033
3147.94299,0.06000
3145.88282,0.05986
3143.82265,0.05980
3141.76248,0.05962
3139.70231,0.05915
3137.64213,0.05852
3135.58196,0.05808
3133.52179,0.05787
3131.46162,0.05758
3129.40145,0.05720
3127.34127,0.05720
3125.28110,0.05753
3123.22093,0.05761
3121.16076,0.05722
3119.10058,0.05650
3117.04041,0.05574
3114.98024,0.05543
3112.92007,0.05555
3110.85990,0.05566
3108.79972,0.05555
3106.73955,0.05520
3104.67938,0.05473
3102.61921,0.05419
3100.55904,0.05370
3098.49886,0.05353
3096.43869,0.05360
3094.37852,0.05356
3092.31835,0.05326
3090.25818,0.05279
3088.19800,0.05230
3086.13783,0.05189
3084.07766,0.05161
3082.01749,0.05132
3079.95731,0.05099
3077.89714,0.05082
3075.83697,0.05072
3073.77680,0.05033
3071.71663,0.04985
3069.65645,0.04962
3067.59628,0.04938
3065.53611,0.04899
3063.47594,0.04874
3061.41577,0.04867
3059.35559,0.04850
3057.29542,0.04812
3055.23525,0.04777
3053.17508,0.04754
3051.11491,0.04732
3049.05473,0.04703
3046.99456,0.04671
3044.93439,0.04629
3042.87422,0.04579
3040.81404,0.04547
3038.75387,0.04552
3036.69370,0.04576
3034.63353,0.04578
3032.57336,0.04539
3030.51318,0.04474
3028.45301,0.04401
3026.39284,0.04335
3024.33267,0.04301
3022.27250,0.04296
3020.21232,0.04274
3018.15215,0.04235
3016.09198,0.04199
3014.03181,0.04166
3011.97163,0.04141
3009.91146,0.04132
3007.85129,0.04128
3005.79112,0.04104
3003.73095,0.04068
3001.67077,0.04040
2999.61060,0.04002
2997.55043,0.03967
2995.49026,0.03961
2993.43009,0.03951
2991.36991,0.03919
2989.30974,0.03894
2987.24957,0.03864
2985.18940,0.03821
2983.12923,0.03804
2981.06905,0.03815
2979.00888,0.03817
2976.94871,0.03803
2974.88854,0.03784
2972.82836,0.03762
2970.76819,0.03753
2968.70802,0.03749
2966.64785,0.03724
2964.58768,0.03692
2962.52750,0.03684
2960.46733,0.03690
2958.40716,0.03694
2956.34699,0.03707
2954.28682,0.03718
2952.22664,0.03714
2950.16647,0.03711
2948.10630,0.03725
2946.04613,0.03747
2943.98596,0.03766
2941.92578,0.03769
2939.86561,0.03742
2937.80544,0.03716
2935.74527,0.03716
2933.68509,0.03720
2931.62492,0.03719
2929.56475,0.03694
2927.50458,0.03627
2925.44441,0.03569
2923.38423,0.03566
2921.32406,0.03582
2919.26389,0.03585
2917.20372,0.03570
2915.14355,0.03527
2913.08337,0.03488
2911.02320,0.03491
2908.96303,0.03487
2906.90286,0.03447
2904.84268,0.03400
2902.78251,0.03363
2900.72234,0.03345
2898.66217,0.03355
2896.60200,0.03372
2894.54182,0.03379
2892.48165,0.03367
2890.42148,0.03332
2888.36131,0.03298
2886.30114,0.03286
2884.24096,0.03290
2882.18079,0.03289
2880.12062,0.03276
2878.06045,0.03264
2876.00028,0.03257
2873.94010,0.03251
2871.87993,0.03231
2869.81976,0.03209
2867.75959,0.03199
2865.69941,0.03176
2863.63924,0.03143
2861.57907,0.03114
2859.51890,0.03076
2857.45873,0.03034
2855.39855,0.03013
2853.33838,0.03007
2851.27821,0.02997
2849.21804,0.02979
2847.15787,0.02960
2845.09769,0.02956
2843.03752,0.02951
2840.97735,0.02925
2838.91718,0.02892
2836.85700,0.02878
2834.79683,0.02873
2832.73666,0.02865
2830.67649,0.02866
2828.61632,0.02860
2826.55614,0.02835
2824.49597,0.02798
2822.43580,0.02750
2820.37563,0.02706
2818.31546,0.02689
2816.25528,0.02688
2814.19511,0.02670
2812.13494,0.02660
2810.07477,0.02677
2808.01460,0.02674
2805.95442,0.02638
2803.89425,0.02608
2801.83408,0.02598
2799.77391,0.02593
2797.71373,0.02584
2795.65356,0.02572
2793.59339,0.02556
2791.53322,0.02536
2789.47305,0.02518
2787.41287,0.02507
2785.35270,0.02503
2783.29253,0.02506
2781.23236,0.02512
2779.17219,0.02494
2777.11201,0.02441
2775.05184,0.02394
2772.99167,0.02383
2770.93150,0.02385
2768.87133,0.02391
2766.81115,0.02409
2764.75098,0.02412
2762.69081,0.02384
2760.63064,0.02358
2758.57046,0.02349
2756.51029,0.02342
2754.45012,0.02336
2752.38995,0.02323
2750.32978,0.02289
2748.26960,0.02244
2746.20943,0.02217
2744.14926,0.02216
2742.08909,0.02225
2740.02892,0.02231
2737.96874,0.02217
2735.90857,0.02200
2733.84840,0.02193
2731.78823,0.02174
2729.72805,0.02145
2727.66788,0.02127
2725.60771,0.02108
2723.54754,0.02088
2721.48737,0.02076
2719.42719,0.02063
2717.36702,0.02050
2715.30685,0.02042
2713.24668,0.02034
2711.18651,0.02030
2709.12633,0.02024
2707.06616,0.02003
2705.00599,0.01976
2702.94582,0.01947
2700.88565,0.01927
2698.82547,0.01934
2696.76530,0.01934
2694.70513,0.01906
2692.64496,0.01873
2690.58478,0.01854
2688.52461,0.01852
2686.46444,0.01849
2684.40427,0.01835
2682.34410,0.01823
2680.28392,0.01803
2678.22375,0.01778
2676.16358,0.01771
2674.10341,0.01775
2672.04324,0.01764
2669.98306,0.01752
2667.92289,0.01747
2665.86272,0.01729
2663.80255,0.01705
2661.74238,0.01693
2659.68220,0.01690
2657.62203,0.01683
2655.56186,0.01663
2653.50169,0.01644
2651.44151,0.01640
2649.38134,0.01631
2647.32117,0.01594
2645.26100,0.01553
2643.20083,0.01538
2641.14065,0.01530
2639.08048,0.01514
2637.02031,0.01523
2634.96014,0.01545
2632.89997,0.01532
2630.83979,0.01486
2628.77962,0.01453
2626.71945,0.01437
2624.65928,0.01405
2622.59910,0.01373
2620.53893,0.01367
2618.47876,0.01363
2616.41859,0.01358
2614.35842,0.01369
2612.29824,0.01368
2610.23807,0.01336
2608.17790,0.01319
2606.11773,0.01319
2604.05756,0.01303
2601.99738,0.01266
2599.93721,0.01234
2597.87704,0.01235
2595.81687,0.01242
2593.75670,0.01225
2591.69652,0.01207
2589.63635,0.01194
2587.57618,0.01177
2585.51601,0.01176
2583.45583,0.01196
2581.39566,0.01200
2579.33549,0.01189
2577.27532,0.01191
2575.21515,0.01208
2573.15497,0.01221
2571.09480,0.01218
2569.03463,0.01197
2566.97446,0.01203
2564.91429,0.01253
2562.85411,0.01265
2560.79394,0.01222
2558.73377,0.01204
2556.67360,0.01201
2554.61342,0.01181
2552.55325,0.01172
2550.49308,0.01166
2548.43291,0.01164
2546.37274,0.01179
2544.31256,0.01176
2542.25239,0.01138
2540.19222,0.01116
2538.13205,0.01129
2536.07188,0.01145
2534.01170,0.01144
2531.95153,0.01159
2529.89136,0.01200
2527.83119,0.01215
2525.77102,0.01181
2523.71084,0.01151
2521.65067,0.01139
2519.59050,0.01133
2517.53033,0.01143
2515.47015,0.01155
2513.40998,0.01152
2511.34981,0.01160
2509.28964,0.01178
2507.22947,0.01180
2505.16929,0.01176
2503.10912,0.01194
2501.04895,0.01198
2498.98878,0.01172
2496.92861,0.01167
2494.86843,0.01175
2492.80826,0.01163
2490.74809,0.01166
2488.68792,0.01185
2486.62775,0.01194
2484.56757,0.01197
2482.50740,0.01196
2480.44723,0.01202
2478.38706,0.01216
2476.32688,0.01217
2474.26671,0.01205
2472.20654,0.01174
2470.14637,0.01117
2468.08620,0.01081
2466.02602,0.01079
2463.96585,0.01083
2461.90568,0.01122
2459.84551,0.01196
2457.78534,0.01236
2455.72516,0.01260
2453.66499,0.01279
2451.60482,0.01260
2449.54465,0.01233
2447.48447,0.01223
2445.42430,0.01226
2443.36413,0.01238
2441.30396,0.01229
2439.24379,0.01189
2437.18361,0.01176
2435.12344,0.01211
2433.06327,0.01227
2431.00310,0.01223
2428.94293,0.01214
2426.88275,0.01179
2424.82258,0.01157
2422.76241,0.01189
2420.70224,0.01249
2418.64207,0.01275
2416.58189,0.01233
2414.52172,0.01186
2412.46155,0.01186
2410.40138,0.01183
2408.34120,0.01151
2406.28103,0.01138
2404.22086,0.01161
2402.16069,0.01192
2400.10052,0.01194
2398.04034,0.01167
2395.98017,0.01153
2393.92000,0.01166
2391.85983,0.01171
2389.79966,0.01156
2387.73948,0.01160
2385.67931,0.01201
2383.61914,0.01230
2381.55897,0.01207
2379.49880,0.01181
2377.43862,0.01192
2375.37845,0.01211
2373.31828,0.01189
2371.25811,0.01124
2369.19793,0.01085
2367.13776,0.01123
2365.07759,0.01152
2363.01742,0.01124
2360.95725,0.01040
2358.89707,0.00934
2356.83690,0.00792
2354.77673,0.00881
2352.71656,0.01166
2350.65639,0.01256
2348.59621,0.01179
2346.53604,0.01190
2344.47587,0.01077
2342.41570,0.00882
2340.35552,0.00746
2338.29535,0.00788
2336.23518,0.00995
2334.17501,0.01193
2332.11484,0.01297
2330.05466,0.01314
2327.99449,0.01314
2325.93432,0.01270
2323.87415,0.01188
2321.81398,0.01110
2319.75380,0.01106
2317.69363,0.01071
2315.63346,0.01027
2313.57329,0.01033
2311.51312,0.01061
2309.45294,0.01100
2307.39277,0.01168
2305.33260,0.01230
2303.27243,0.01235
2301.21225,0.01198
2299.15208,0.01136
2297.09191,0.01079
2295.03174,0.01050
2292.97157,0.01039
2290.91139,0.01046
2288.85122,0.01072
2286.79105,0.01081
2284.73088,0.01050
2282.67071,0.01031
2280.61053,0.01051
2278.55036,0.01037
2276.49019,0.00961
2274.43002,0.00899
2272.36984,0.00900
2270.30967,0.00925
2268.24950,0.00924
2266.18933,0.00885
2264.12916,0.00843
2262.06898,0.00841
2260.00881,0.00855
2257.94864,0.00817
2255.88847,0.00751
2253.82830,0.00747
2251.76812,0.00803
2249.70795,0.00837
2247.64778,0.00837
2245.58761,0.00855
2243.52744,0.00859
2241.46726,0.00819
2239.40709,0.00760
2237.34692,0.00739
2235.28675,0.00819
2233.22657,0.00884
2231.16640,0.00866
2229.10623,0.00899
2227.04606,0.00920
2224.98589,0.00820
2222.92571,0.00771
2220.86554,0.00873
2218.80537,0.00930
2216.74520,0.00829
2214.68503,0.00735
2212.62485,0.00764
2210.56468,0.00786
2208.50451,0.00696
2206.44434,0.00672
2204.38417,0.00824
2202.32399,0.00891
2200.26382,0.00727
2198.20365,0.00619
2196.14348,0.00653
2194.08330,0.00684
2192.02313,0.00737
2189.96296,0.00709
2187.90279,0.00485
2185.84262,0.00251
2183.78244,0.00223
2181.72227,0.00370
2179.66210,0.00504
2177.60193,0.00535
2175.54176,0.00532
2173.48158,0.00575
2171.42141,0.00662
2169.36124,0.00664
2167.30107,0.00553
2165.24089,0.00547
2163.18072,0.00641
2161.12055,0.00530
2159.06038,0.00233
2157.00021,0.00108
2154.94003,0.00258
2152.87986,0.00433
2150.81969,0.00495
2148.75952,0.00510
2146.69935,0.00418
2144.63917,0.00296
2142.57900,0.00340
2140.51883,0.00395
2138.45866,0.00285
2136.39849,0.00173
2134.33831,0.00224
2132.27814,0.00360
2130.21797,0.00474
2128.15780,0.00527
2126.09762,0.00506
2124.03745,0.00463
2121.97728,0.00483
2119.91711,0.00579
2117.85694,0.00649
2115.79676,0.00655
2113.73659,0.00640
2111.67642,0.00603
2109.61625,0.00555
2107.55608,0.00533
2105.49590,0.00542
2103.43573,0.00554
2101.37556,0.00531
2099.31539,0.00473
2097.25521,0.00430
2095.19504,0.00454
2093.13487,0.00476
2091.07470,0.00404
2089.01453,0.00336
2086.95435,0.00361
2084.89418,0.00406
2082.83401,0.00435
2080.77384,0.00479
2078.71367,0.00509
2076.65349,0.00461
2074.59332,0.00382
2072.53315,0.00394
2070.47298,0.00492
2068.41281,0.00537
2066.35263,0.00475
2064.29246,0.00371
2062.23229,0.00292
2060.17212,0.00299
2058.11194,0.00394
2056.05177,0.00469
2053.99160,0.00461
2051.93143,0.00424
2049.87126,0.00368
2047.81108,0.00261
2045.75091,0.00206
2043.69074,0.00249
2041.63057,0.00245
2039.57040,0.00148
2037.51022,0.00059
2035.45005,0.00067
2033.38988,0.00183
2031.32971,0.00308
2029.26954,0.00322
2027.20936,0.00218
2025.14919,0.00107
2023.08902,0.00106
2021.02885,0.00159
2018.96867,0.00138
2016.90850,0.00093
2014.84833,0.00149
2012.78816,0.00274
2010.72799,0.00314
2008.66781,0.00258
2006.60764,0.00189
2004.54747,0.00115
2002.48730,0.00114
2000.42713,0.00260
1998.36695,0.00404
1996.30678,0.00347
1994.24661,0.00191
1992.18644,0.00145
1990.12626,0.00141
1988.06609,0.00119
1986.00592,0.00182
1983.94575,0.00282
1981.88558,0.00292
1979.82540,0.00255
1977.76523,0.00273
1975.70506,0.00266
1973.64489,0.00164
1971.58472,0.00081
1969.52454,0.00100
1967.46437,0.00212
1965.40420,0.00275
1963.34403,0.00217
1961.28386,0.00196
1959.22368,0.00238
1957.16351,0.00207
1955.10334,0.00095
1953.04317,0.00008
1950.98299,0.00006
1948.92282,0.00024
1946.86265,0.00029
1944.80248,0.00050
1942.74231,0.00066
1940.68213,0.00091
1938.62196,0.00178
1936.56179,0.00248
1934.50162,0.00222
1932.44145,0.00161
1930.38127,0.00115
1928.32110,0.00090
1926.26093,0.00116
1924.20076,0.00163
1922.14059,0.00187
1920.08041,0.00221
1918.02024,0.00252
1915.96007,0.00233
1913.89990,0.00209
1911.83972,0.00251
1909.77955,0.00334
1907.71938,0.00362
1905.65921,0.00321
1903.59904,0.00281
1901.53886,0.00263
1899.47869,0.00240
1897.41852,0.00235
1895.35835,0.00261
1893.29818,0.00291
1891.23800,0.00317
1889.17783,0.00318
1887.11766,0.00270
1885.05749,0.00226
1882.99731,0.00243
1880.93714,0.00300
1878.87697,0.00343
1876.81680,0.00334
1874.75663,0.00277
1872.69645,0.00206
1870.63628,0.00168
1868.57611,0.00196
1866.51594,0.00256
1864.45577,0.00282
1862.39559,0.00276
1860.33542,0.00283
1858.27525,0.00303
1856.21508,0.00317
1854.15491,0.00325
1852.09473,0.00327
1850.03456,0.00311
1847.97439,0.00278
1845.91422,0.00242
1843.85404,0.00219
1841.79387,0.00215
1839.73370,0.00216
1837.67353,0.00223
1835.61336,0.00246
1833.55318,0.00270
1831.49301,0.00287
1829.43284,0.00292
1827.37267,0.00270
1825.31250,0.00243
1823.25232,0.00231
1821.19215,0.00215
1819.13198,0.00201
1817.07181,0.00219
1815.01163,0.00268
1812.95146,0.00309
1810.89129,0.00315
1808.83112,0.00307
1806.77095,0.00304
1804.71077,0.00302
1802.65060,0.00303
1800.59043,0.00296
1798.53026,0.00266
1796.47009,0.00235
1794.40991,0.00225
1792.34974,0.00241
1790.28957,0.00275
1788.22940,0.00297
1786.16923,0.00290
1784.10905,0.00274
1782.04888,0.00288
1779.98871,0.00333
1777.92854,0.00360
1775.86836,0.00349
1773.80819,0.00326
1771.74802,0.00312
1769.68785,0.00313
1767.62768,0.00334
1765.56750,0.00367
1763.50733,0.00391
1761.44716,0.00385
1759.38699,0.00376
1757.32682,0.00415
1755.26664,0.00485
1753.20647,0.00535
1751.14630,0.00552
1749.08613,0.00549
1747.02596,0.00553
1744.96578,0.00573
1742.90561,0.00598
1740.84544,0.00638
1738.78527,0.00688
1736.72509,0.00700
1734.66492,0.00671
1732.60475,0.00660
1730.54458,0.00693
1728.48441,0.00742
1726.42423,0.00780
1724.36406,0.00799
1722.30389,0.00797
1720.24372,0.00773
1718.18355,0.00759
1716.12337,0.00810
1714.06320,0.00903
1712.00303,0.00961
1709.94286,0.00969
1707.88268,0.00965
1705.82251,0.00986
1703.76234,0.01031
1701.70217,0.01085
1699.64200,0.01141
1697.58182,0.01190
1695.52165,0.01248
1693.46148,0.01321
1691.40131,0.01381
1689.34114,0.01421
1687.28096,0.01454
1685.22079,0.01504
1683.16062,0.01581
1681.10045,0.01642
1679.04028,0.01684
1676.98010,0.01734
1674.91993,0.01793
1672.85976,0.01848
1670.79959,0.01913
1668.73941,0.02011
1666.67924,0.02109
1664.61907,0.02178
1662.55890,0.02229
1660.49873,0.02270
1658.43855,0.02290
1656.37838,0.02273
1654.31821,0.02252
1652.25804,0.02302
1650.19787,0.02357
1648.13769,0.02339
1646.07752,0.02314
1644.01735,0.02344
1641.95718,0.02380
1639.89701,0.02375
1637.83683,0.02333
1635.77666,0.02300
1633.71649,0.02309
1631.65632,0.02318
1629.59614,0.02290
1627.53597,0.02234
1625.47580,0.02186
1623.41563,0.02170
1621.35546,0.02181
1619.29528,0.02180
1617.23511,0.02162
1615.17494,0.02161
1613.11477,0.02169
1611.05460,0.02146
1608.99442,0.02085
1606.93425,0.02021
1604.87408,0.01983
1602.81391,0.01966
1600.75373,0.01941
1598.69356,0.01887
1596.63339,0.01808
1594.57322,0.01728
1592.51305,0.01659
1590.45287,0.01599
1588.39270,0.01538
1586.33253,0.01479
1584.27236,0.01425
1582.21219,0.01373
1580.15201,0.01316
1578.09184,0.01258
1576.03167,0.01212
1573.97150,0.01174
1571.91133,0.01118
1569.85115,0.01045
1567.79098,0.00987
1565.73081,0.00957
1563.67064,0.00925
1561.61046,0.00867
1559.55029,0.00816
1557.49012,0.00818
1555.42995,0.00821
1553.36978,0.00791
1551.30960,0.00750
1549.24943,0.00718
1547.18926,0.00694
1545.12909,0.00662
1543.06892,0.00619
1541.00874,0.00589
1538.94857,0.00588
1536.88840,0.00581
1534.82823,0.00548
1532.76805,0.00514
1530.70788,0.00505
1528.64771,0.00494
1526.58754,0.00463
1524.52737,0.00430
1522.46719,0.00412
1520.40702,0.00411
1518.34685,0.00404
1516.28668,0.00380
1514.22651,0.00366
1512.16633,0.00369
1510.10616,0.00361
1508.04599,0.00321
1505.98582,0.00285
1503.92565,0.00289
1501.86547,0.00306
1499.80530,0.00315
1497.74513,0.00312
1495.68496,0.00299
1493.62478,0.00276
1491.56461,0.00256
1489.50444,0.00268
1487.44427,0.00304
1485.38410,0.00319
1483.32392,0.00308
1481.26375,0.00300
1479.20358,0.00317
1477.14341,0.00338
1475.08324,0.00346
1473.02306,0.00360
1470.96289,0.00398
1468.90272,0.00429
1466.84255,0.00437
1464.78238,0.00455
1462.72220,0.00487
1460.66203,0.00501
1458.60186,0.00504
1456.54169,0.00530
1454.48151,0.00557
1452.42134,0.00555
1450.36117,0.00531
1448.30100,0.00510
1446.24083,0.00514
1444.18065,0.00529
1442.12048,0.00527
1440.06031,0.00507
1438.00014,0.00504
1435.93997,0.00539
1433.87979,0.00576
1431.81962,0.00587
1429.75945,0.00588
1427.69928,0.00595
1425.63910,0.00612
1423.57893,0.00635
1421.51876,0.00647
1419.45859,0.00653
1417.39842,0.00679
1415.33824,0.00703
1413.27807,0.00701
1411.21790,0.00694
1409.15773,0.00691
1407.09756,0.00681
1405.03738,0.00660
1402.97721,0.00644
1400.91704,0.00628
1398.85687,0.00589
1396.79670,0.00537
1394.73652,0.00506
1392.67635,0.00506
1390.61618,0.00517
1388.55601,0.00525
1386.49583,0.00530
1384.43566,0.00531
1382.37549,0.00532
1380.31532,0.00534
1378.25515,0.00536
1376.19497,0.00533
1374.13480,0.00531
1372.07463,0.00534
1370.01446,0.00539
1367.95429,0.00533
1365.89411,0.00506
1363.83394,0.00474
1361.77377,0.00459
1359.71360,0.00454
1357.65343,0.00442
1355.59325,0.00421
1353.53308,0.00395
1351.47291,0.00376
1349.41274,0.00367
1347.35256,0.00360
1345.29239,0.00361
1343.23222,0.00374
1341.17205,0.00378
1339.11188,0.00358
1337.05170,0.00336
1334.99153,0.00331
1332.93136,0.00328
1330.87119,0.00320
1328.81102,0.00319
1326.75084,0.00320
1324.69067,0.00314
1322.63050,0.00308
1320.57033,0.00315
1318.51015,0.00326
1316.44998,0.00328
1314.38981,0.00325
1312.32964,0.00324
1310.26947,0.00322
1308.20929,0.00317
1306.14912,0.00310
1304.08895,0.00311
1302.02878,0.00323
1299.96861,0.00329
1297.90843,0.00324
1295.84826,0.00321
1293.78809,0.00326
1291.72792,0.00335
1289.66775,0.00344
1287.60757,0.00356
1285.54740,0.00372
1283.48723,0.00384
1281.42706,0.00399
1279.36688,0.00418
1277.30671,0.00432
1275.24654,0.00440
1273.18637,0.00442
1271.12620,0.00440
1269.06602,0.00453
1267.00585,0.00471
1264.94568,0.00474
1262.88551,0.00471
1260.82534,0.00466
1258.76516,0.00461
1256.70499,0.00466
1254.64482,0.00475
1252.58465,0.00473
1250.52447,0.00464
1248.46430,0.00455
1246.40413,0.00446
1244.34396,0.00433
1242.28379,0.00405
1240.22361,0.00360
1238.16344,0.00317
1236.10327,0.00299
1234.04310,0.00302
1231.98293,0.00310
1229.92275,0.00306
1227.86258,0.00271
1225.80241,0.00225
1223.74224,0.00190
1221.68207,0.00150
1219.62189,0.00119
1217.56172,0.00110
1215.50155,0.00095
1213.44138,0.00072
1211.38120,0.00058
1209.32103,0.00042
1207.26086,0.00020
1205.20069,0.00009
1203.14052,0.00018
1201.08034,0.00045
1199.02017,0.00057
1196.96000,0.00030
1194.89983,0.00013
1192.83966,0.00039
1190.77948,0.00084
1188.71931,0.00120
1186.65914,0.00147
1184.59897,0.00190
1182.53880,0.00264
1180.47862,0.00358
1178.41845,0.00453
1176.35828,0.00539
1174.29811,0.00626
1172.23793,0.00734
1170.17776,0.00866
1168.11759,0.01011
1166.05742,0.01145
1163.99725,0.01248
1161.93707,0.01328
1159.87690,0.01413
1157.81673,0.01515
1155.75656,0.01614
1153.69639,0.01701
1151.63621,0.01800
1149.57604,0.01914
1147.51587,0.02027
1145.45570,0.02128
1143.39552,0.02214
1141.33535,0.02325
1139.27518,0.02465
1137.21501,0.02586
1135.15484,0.02689
1133.09466,0.02799
1131.03449,0.02932
1128.97432,0.03096
1126.91415,0.03273
1124.85398,0.03436
1122.79380,0.03574
1120.73363,0.03702
1118.67346,0.03843
1116.61329,0.04016
1114.55312,0.04190
1112.49294,0.04326
1110.43277,0.04475
1108.37260,0.04686
1106.31243,0.04899
1104.25225,0.05072
1102.19208,0.05230
1100.13191,0.05385
1098.07174,0.05547
1096.01157,0.05721
1093.95139,0.05909
1091.89122,0.06096
1089.83105,0.06248
1087.77088,0.06361
1085.71071,0.06479
1083.65053,0.06602
1081.59036,0.06711
1079.53019,0.06824
1077.47002,0.06950
1075.40985,0.07056
1073.34967,0.07129
1071.28950,0.07188
1069.22933,0.07243
1067.16916,0.07281
1065.10898,0.07282
1063.04881,0.07267
1060.98864,0.07261
1058.92847,0.07250
1056.86830,0.07209
1054.80812,0.07123
1052.74795,0.07017
1050.68778,0.06916
1048.62761,0.06801
1046.56744,0.06674
1044.50726,0.06559
1042.44709,0.06438
1040.38692,0.06297
1038.32675,0.06152
1036.26657,0.06008
1034.20640,0.05871
1032.14623,0.05734
1030.08606,0.05576
1028.02589,0.05423
1025.96571,0.05285
1023.90554,0.05141
1021.84537,0.04993
1019.78520,0.04859
1017.72503,0.04739
1015.66485,0.04627
1013.60468,0.04539
1011.54451,0.04471
1009.48434,0.04398
1007.42417,0.04336
1005.36399,0.04288
1003.30382,0.04258
1001.24365,0.04280
999.18348,0.04344
997.12330,0.04410
995.06313,0.04477
993.00296,0.04563
990.94279,0.04659
988.88262,0.04732
986.82244,0.04774
984.76227,0.04797
982.70210,0.04795
980.64193,0.04748
978.58176,0.04647
976.52158,0.04524
974.46141,0.04380
972.40124,0.04195
970.34107,0.03973
968.28089,0.03752
966.22072,0.03551
964.16055,0.03348
962.10038,0.03150
960.04021,0.02972
957.98003,0.02801
955.91986,0.02634
953.85969,0.02491
951.79952,0.02400
949.73935,0.02340
947.67917,0.02259
945.61900,0.02171
943.55883,0.02100
941.49866,0.02029
939.43849,0.01969
937.37831,0.01947
935.31814,0.01943
933.25797,0.01921
931.19780,0.01891
929.13762,0.01880
927.07745,0.01873
925.01728,0.01842
922.95711,0.01780
920.89694,0.01712
918.83676,0.01647
916.77659,0.01564
914.71642,0.01479
912.65625,0.01407
910.59608,0.01339
908.53590,0.01277
906.47573,0.01227
904.41556,0.01188
902.35539,0.01150
900.29522,0.01137
898.23504,0.01152
896.17487,0.01166
894.11470,0.01181
892.05453,0.01220
889.99435,0.01275
887.93418,0.01329
885.87401,0.01386
883.81384,0.01443
881.75367,0.01489
879.69349,0.01544
877.63332,0.01593
875.57315,0.01632
873.51298,0.01685
871.45281,0.01734
869.39263,0.01754
867.33246,0.01733
865.27229,0.01690
863.21212,0.01672
861.15194,0.01697
859.09177,0.01720
857.03160,0.01722
854.97143,0.01717
852.91126,0.01688
850.85108,0.01621
848.79091,0.01538
846.73074,0.01489
844.67057,0.01474
842.61040,0.01465
840.55022,0.01415
838.49005,0.01281
836.42988,0.01141
834.36971,0.01063
832.30954,0.01001
830.24936,0.00951
828.18919,0.00931
826.12902,0.00890
824.06885,0.00839
822.00867,0.00817
819.94850,0.00787
817.88833,0.00730
815.82816,0.00677
813.76799,0.00646
811.70781,0.00625
809.64764,0.00586
807.58747,0.00550
805.52730,0.00542
803.46713,0.00525
801.40695,0.00461
799.34678,0.00386
797.28661,0.00365
795.22644,0.00374
793.16627,0.00353
791.10609,0.00326
789.04592,0.00309
786.98575,0.00319
784.92558,0.00389
782.86540,0.00449
780.80523,0.00442
778.74506,0.00416
776.68489,0.00390
774.62472,0.00364
772.56454,0.00352
770.50437,0.00337
768.44420,0.00294
766.38403,0.00275
764.32386,0.00303
762.26368,0.00296
760.20351,0.00264
758.14334,0.00263
756.08317,0.00242
754.02299,0.00183
751.96282,0.00159
749.90265,0.00206
747.84248,0.00249
745.78231,0.00212
743.72213,0.00124
741.66196,0.00063
739.60179,0.00049
737.54162,0.00056
735.48145,0.00059
733.42127,0.00063
731.36110,0.00098
729.30093,0.00112
727.24076,0.00087
725.18059,0.00079
723.12041,0.00071
721.06024,0.00116
719.00007,0.00206
716.93990,0.00291
714.87972,0.00289
712.81955,0.00270
710.75938,0.00321
708.69921,0.00366
706.63904,0.00349
704.57886,0.00289
702.51869,0.00219
700.45852,0.00207
698.39835,0.00271
696.33818,0.00330
694.27800,0.00322
692.21783,0.00318
690.15766,0.00358
688.09749,0.00317
686.03731,0.00146
683.97714,0.00010
681.91697,0.00036
679.85680,0.00180
677.79663,0.00299
675.73645,0.00298
673.67628,0.00202
671.61611,0.00152
669.55594,0.00405
667.49577,0.00595
665.43559,0.00214
663.37542,0.00137
661.31525,0.00160
659.25508,0.00165
657.19491,0.00219
655.13473,0.00257
653.07456,0.00144
651.01439,0.00000
648.95422,0.00010
646.89404,0.00108
644.83387,0.00159
642.77370,0.00124
640.71353,0.00141
638.65336,0.00290
636.59318,0.00456
634.53301,0.00478
632.47284,0.00347
630.41267,0.00218
628.35250,0.00174
626.29232,0.00105
624.23215,0.00018
622.17198,0.00135
620.11181,0.00345
618.05164,0.00400
615.99146,0.00340
613.93129,0.00545
611.87112,0.00843
609.81095,0.00709
607.75077,0.00359
605.69060,0.00107
603.63043,0.00000
601.57026,0.00019
599.51009,0.00000
