3996.73391,0.00040
3994.67373,0.00033
3992.61356,0.00034
3990.55339,0.00034
3988.49322,0.00036
3986.43305,0.00055
3984.37287,0.00086
3982.31270,0.00088
3980.25253,0.00042
3978.19236,0.00000
3976.13219,0.00003
3974.07201,0.00029
3972.01184,0.00056
3969.95167,0.00068
3967.89150,0.00051
3965.83133,0.00025
3963.77115,0.00035
3961.71098,0.00081
3959.65081,0.00119
3957.59064,0.00109
3955.53046,0.00060
3953.47029,0.00035
3951.41012,0.00066
3949.34995,0.00113
3947.28978,0.00123
3945.22960,0.00099
3943.16943,0.00093
3941.10926,0.00114
3939.04909,0.00118
3936.98892,0.00105
3934.92874,0.00102
3932.86857,0.00109
3930.80840,0.00101
3928.74823,0.00077
3926.68805,0.00062
3924.62788,0.00077
3922.56771,0.00109
3920.50754,0.00103
3918.44737,0.00052
3916.38719,0.00024
3914.32702,0.00041
3912.26685,0.00049
3910.20668,0.00031
3908.14651,0.00031
3906.08633,0.00070
3904.02616,0.00116
3901.96599,0.00105
3899.90582,0.00041
3897.84565,0.00005
3895.78547,0.00022
3893.72530,0.00066
3891.66513,0.00104
3889.60496,0.00095
3887.54478,0.00060
3885.48461,0.00062
3883.42444,0.00107
3881.36427,0.00146
3879.30410,0.00153
3877.24392,0.00146
3875.18375,0.00137
3873.12358,0.00102
3871.06341,0.00041
3869.00324,0.00011
3866.94306,0.00031
3864.88289,0.00054
3862.82272,0.00058
3860.76255,0.00056
3858.70237,0.00055
3856.64220,0.00033
3854.58203,0.00008
3852.52186,0.00049
3850.46169,0.00109
3848.40151,0.00126
3846.34134,0.00130
3844.28117,0.00139
3842.22100,0.00135
3840.16083,0.00118
3838.10065,0.00091
3836.04048,0.00057
3833.98031,0.00047
3831.92014,0.00071
3829.85997,0.00088
3827.79979,0.00075
3825.73962,0.00051
3823.67945,0.00056
3821.61928,0.00107
3819.55910,0.00161
3817.49893,0.00187
3815.43876,0.00206
3813.37859,0.00208
3811.31842,0.00187
3809.25824,0.00158
3807.19807,0.00144
3805.13790,0.00146
3803.07773,0.00151
3801.01756,0.00163
3798.95738,0.00181
3796.89721,0.00202
3794.83704,0.00224
3792.77687,0.00216
3790.71670,0.00167
3788.65652,0.00114
3786.59635,0.00106
3784.53618,0.00134
3782.47601,0.00145
3780.41583,0.00132
3778.35566,0.00122
3776.29549,0.00137
3774.23532,0.00165
3772.17515,0.00182
3770.11497,0.00179
3768.05480,0.00171
3765.99463,0.00169
3763.93446,0.00168
3761.87429,0.00133
3759.81411,0.00060
3757.75394,0.00014
3755.69377,0.00015
3753.63360,0.00035
3751.57342,0.00093
3749.51325,0.00155
3747.45308,0.00169
3745.39291,0.00220
3743.33274,0.00314
3741.27256,0.00338
3739.21239,0.00272
3737.15222,0.00159
3735.09205,0.00058
3733.03188,0.00044
3730.97170,0.00099
3728.91153,0.00141
3726.85136,0.00141
3724.79119,0.00134
3722.73102,0.00143
3720.67084,0.00171
3718.61067,0.00206
3716.55050,0.00186
3714.49033,0.00097
3712.43015,0.00045
3710.36998,0.00120
3708.30981,0.00222
3706.24964,0.00254
3704.18947,0.00249
3702.12929,0.00245
3700.06912,0.00252
3698.00895,0.00262
3695.94878,0.00264
3693.88861,0.00262
3691.82843,0.00254
3689.76826,0.00239
3687.70809,0.00233
3685.64792,0.00258
3683.58775,0.00309
3681.52757,0.00346
3679.46740,0.00321
3677.40723,0.00253
3675.34706,0.00215
3673.28688,0.00246
3671.22671,0.00307
3669.16654,0.00368
3667.10637,0.00409
3665.04620,0.00420
3662.98602,0.00421
3660.92585,0.00426
3658.86568,0.00457
3656.80551,0.00528
3654.74534,0.00603
3652.68516,0.00642
3650.62499,0.00661
3648.56482,0.00683
3646.50465,0.00707
3644.44447,0.00737
3642.38430,0.00776
3640.32413,0.00821
3638.26396,0.00868
3636.20379,0.00914
3634.14361,0.00935
3632.08344,0.00919
3630.02327,0.00935
3627.96310,0.01041
3625.90293,0.01173
3623.84275,0.01242
3621.78258,0.01232
3619.72241,0.01202
3617.66224,0.01240
3615.60207,0.01330
3613.54189,0.01413
3611.48172,0.01494
3609.42155,0.01580
3607.36138,0.01653
3605.30120,0.01684
3603.24103,0.01689
3601.18086,0.01706
3599.12069,0.01746
3597.06052,0.01808
3595.00034,0.01877
3592.94017,0.01954
3590.88000,0.02010
3588.81983,0.02042
3586.75966,0.02113
3584.69948,0.02195
3582.63931,0.02211
3580.57914,0.02215
3578.51897,0.02281
3576.45879,0.02379
3574.39862,0.02451
3572.33845,0.02470
3570.27828,0.02453
3568.21811,0.02437
3566.15793,0.02456
3564.09776,0.02518
3562.03759,0.02603
3559.97742,0.02691
3557.91725,0.02782
3555.85707,0.02860
3553.79690,0.02895
3551.73673,0.02914
3549.67656,0.02967
3547.61639,0.03064
3545.55621,0.03183
3543.49604,0.03272
3541.43587,0.03306
3539.37570,0.03338
3537.31552,0.03399
3535.25535,0.03469
3533.19518,0.03517
3531.13501,0.03534
3529.07484,0.03553
3527.01466,0.03597
3524.95449,0.03657
3522.89432,0.03718
3520.83415,0.03764
3518.77398,0.03790
3516.71380,0.03839
3514.65363,0.03926
3512.59346,0.03993
3510.53329,0.04014
3508.47312,0.04019
3506.41294,0.04012
3504.35277,0.04013
3502.29260,0.04071
3500.23243,0.04146
3498.17225,0.04176
3496.11208,0.04188
3494.05191,0.04232
3491.99174,0.04293
3489.93157,0.04356
3487.87139,0.04423
3485.81122,0.04482
3483.75105,0.04534
3481.69088,0.04606
3479.63071,0.04670
3477.57053,0.04677
3475.51036,0.04652
3473.45019,0.04659
3471.39002,0.04695
3469.32984,0.04723
3467.26967,0.04769
3465.20950,0.04836
3463.14933,0.04888
3461.08916,0.04939
3459.02898,0.05000
3456.96881,0.05050
3454.90864,0.05086
3452.84847,0.05114
3450.78830,0.05127
3448.72812,0.05145
3446.66795,0.05188
3444.60778,0.05220
3442.54761,0.05227
3440.48744,0.05242
3438.42726,0.05292
3436.36709,0.05353
3434.30692,0.05400
3432.24675,0.05440
3430.18657,0.05466
3428.12640,0.05480
3426.06623,0.05492
3424.00606,0.05514
3421.94589,0.05547
3419.88571,0.05583
3417.82554,0.05630
3415.76537,0.05676
3413.70520,0.05694
3411.64503,0.05689
3409.58485,0.05680
3407.52468,0.05677
3405.46451,0.05676
3403.40434,0.05716
3401.34416,0.05789
3399.28399,0.05808
3397.22382,0.05777
3395.16365,0.05787
3393.10348,0.05846
3391.04330,0.05908
3388.98313,0.05943
3386.92296,0.05951
3384.86279,0.05947
3382.80262,0.05963
3380.74244,0.06001
3378.68227,0.06021
3376.62210,0.06029
3374.56193,0.06048
3372.50176,0.06059
3370.44158,0.06041
3368.38141,0.06037
3366.32124,0.06082
3364.26107,0.06118
3362.20089,0.06117
3360.14072,0.06124
3358.08055,0.06145
3356.02038,0.06140
3353.96021,0.06120
3351.90003,0.06134
3349.83986,0.06163
3347.77969,0.06166
3345.71952,0.06169
3343.65935,0.06186
3341.59917,0.06190
3339.53900,0.06179
3337.47883,0.06163
3335.41866,0.06149
3333.35849,0.06136
3331.29831,0.06117
3329.23814,0.06115
3327.17797,0.06141
3325.11780,0.06167
3323.05762,0.06193
3320.99745,0.06233
3318.93728,0.06261
3316.87711,0.06247
3314.81694,0.06218
3312.75676,0.06216
3310.69659,0.06232
3308.63642,0.06242
3306.57625,0.06245
3304.51608,0.06254
3302.45590,0.06281
3300.39573,0.06298
3298.33556,0.06293
3296.27539,0.06288
3294.21521,0.06274
3292.15504,0.06255
3290.09487,0.06251
3288.03470,0.06252
3285.97453,0.06261
3283.91435,0.06277
3281.85418,0.06270
3279.79401,0.06242
3277.73384,0.06237
3275.67367,0.06270
3273.61349,0.06291
3271.55332,0.06269
3269.49315,0.06241
3267.43298,0.06246
3265.37281,0.06270
3263.31263,0.06282
3261.25246,0.06282
3259.19229,0.06270
3257.13212,0.06216
3255.07194,0.06161
3253.01177,0.06179
3250.95160,0.06249
3248.89143,0.06295
3246.83126,0.06272
3244.77108,0.06210
3242.71091,0.06186
3240.65074,0.06209
3238.59057,0.06237
3236.53040,0.06247
3234.47022,0.06217
3232.41005,0.06191
3230.34988,0.06217
3228.28971,0.06257
3226.22954,0.06239
3224.16936,0.06182
3222.10919,0.06156
3220.04902,0.06159
3217.98885,0.06143
3215.92867,0.06109
3213.86850,0.06103
3211.80833,0.06113
3209.74816,0.06093
3207.68799,0.06059
3205.62781,0.06052
3203.56764,0.06045
3201.50747,0.06038
3199.44730,0.06067
3197.38713,0.06084
3195.32695,0.06047
3193.26678,0.05989
3191.20661,0.05947
3189.14644,0.05949
3187.08626,0.05980
3185.02609,0.05990
3182.96592,0.05971
3180.90575,0.05920
3178.84558,0.05843
3176.78540,0.05798
3174.72523,0.05809
3172.66506,0.05825
3170.60489,0.05808
3168.54472,0.05792
3166.48454,0.05797
3164.42437,0.05774
3162.36420,0.05717
3160.30403,0.05683
3158.24386,0.05701
3156.18368,0.05726
3154.12351,0.05714
3152.06334,0.05691
3150.00317,0.05668
3147.94299,0.05626
3145.88282,0.05596
3143.82265,0.05590
3141.76248,0.05587
3139.70231,0.05574
3137.64213,0.05540
3135.58196,0.05499
3133.52179,0.05466
3131.46162,0.05432
3129.40145,0.05398
3127.34127,0.05378
3125.28110,0.05362
3123.22093,0.05332
3121.16076,0.05291
3119.10058,0.05249
3117.04041,0.05217
3114.98024,0.05197
3112.92007,0.05187
3110.85990,0.05180
3108.79972,0.05163
3106.73955,0.05147
3104.67938,0.05136
3102.61921,0.05101
3100.55904,0.05060
3098.49886,0.05051
3096.43869,0.05057
3094.37852,0.05046
3092.31835,0.05015
3090.25818,0.04972
3088.19800,0.04935
3086.13783,0.04909
3084.07766,0.04875
3082.01749,0.04838
3079.95731,0.04814
3077.89714,0.04795
3075.83697,0.04780
3073.77680,0.04780
3071.71663,0.04774
3069.65645,0.04741
3067.59628,0.04680
3065.53611,0.04621
3063.47594,0.04604
3061.41577,0.04603
3059.35559,0.04584
3057.29542,0.04549
3055.23525,0.04517
3053.17508,0.04502
3051.11491,0.04485
3049.05473,0.04450
3046.99456,0.04412
3044.93439,0.04381
3042.87422,0.04346
3040.81404,0.04325
3038.75387,0.04329
3036.69370,0.04329
3034.63353,0.04302
3032.57336,0.04250
3030.51318,0.04199
3028.45301,0.04154
3026.39284,0.04099
3024.33267,0.04056
3022.27250,0.04051
3020.21232,0.04055
3018.15215,0.04042
3016.09198,0.04001
3014.03181,0.03941
3011.97163,0.03903
3009.91146,0.03894
3007.85129,0.03887
3005.79112,0.03850
3003.73095,0.03808
3001.67077,0.03790
2999.61060,0.03773
2997.55043,0.03757
2995.49026,0.03773
2993.43009,0.03803
2991.36991,0.03788
2989.30974,0.03725
2987.24957,0.03666
2985.18940,0.03644
2983.12923,0.03643
2981.06905,0.03636
2979.00888,0.03630
2976.94871,0.03619
2974.88854,0.03605
2972.82836,0.03598
2970.76819,0.03583
2968.70802,0.03558
2966.64785,0.03538
2964.58768,0.03524
2962.52750,0.03522
2960.46733,0.03533
2958.40716,0.03542
2956.34699,0.03563
2954.28682,0.03581
2952.22664,0.03575
2950.16647,0.03571
2948.10630,0.03575
2946.04613,0.03559
2943.98596,0.03545
2941.92578,0.03561
2939.86561,0.03579
2937.80544,0.03583
2935.74527,0.03578
2933.68509,0.03569
2931.62492,0.03569
2929.56475,0.03559
2927.50458,0.03517
2925.44441,0.03472
2923.38423,0.03454
2921.32406,0.03459
2919.26389,0.03464
2917.20372,0.03454
2915.14355,0.03430
2913.08337,0.03399
2911.02320,0.03374
2908.96303,0.03343
2906.90286,0.03304
2904.84268,0.03261
2902.78251,0.03228
2900.72234,0.03227
2898.66217,0.03236
2896.60200,0.03223
2894.54182,0.03206
2892.48165,0.03210
2890.42148,0.03221
2888.36131,0.03208
2886.30114,0.03185
2884.24096,0.03181
2882.18079,0.03178
2880.12062,0.03147
2878.06045,0.03107
2876.00028,0.03082
2873.94010,0.03083
2871.87993,0.03100
2869.81976,0.03098
2867.75959,0.03076
2865.69941,0.03045
2863.63924,0.03017
2861.57907,0.03010
2859.51890,0.03003
2857.45873,0.02974
2855.39855,0.02945
2853.33838,0.02929
2851.27821,0.02905
2849.21804,0.02872
2847.15787,0.02841
2845.09769,0.02822
2843.03752,0.02817
2840.97735,0.02814
2838.91718,0.02811
2836.85700,0.02808
2834.79683,0.02790
2832.73666,0.02764
2830.67649,0.02745
2828.61632,0.02730
2826.55614,0.02719
2824.49597,0.02698
2822.43580,0.02670
2820.37563,0.02650
2818.31546,0.02627
2816.25528,0.02598
2814.19511,0.02587
2812.13494,0.02593
2810.07477,0.02589
2808.01460,0.02576
2805.95442,0.02567
2803.89425,0.02548
2801.83408,0.02511
2799.77391,0.02468
2797.71373,0.02433
2795.65356,0.02431
2793.59339,0.02445
2791.53322,0.02445
2789.47305,0.02431
2787.41287,0.02412
2785.35270,0.02404
2783.29253,0.02412
2781.23236,0.02416
2779.17219,0.02408
2777.11201,0.02386
2775.05184,0.02360
2772.99167,0.02350
2770.93150,0.02354
2768.87133,0.02359
2766.81115,0.02352
2764.75098,0.02320
2762.69081,0.02289
2760.63064,0.02281
2758.57046,0.02263
2756.51029,0.02237
2754.45012,0.02230
2752.38995,0.02227
2750.32978,0.02211
2748.26960,0.02190
2746.20943,0.02175
2744.14926,0.02169
2742.08909,0.02169
2740.02892,0.02178
2737.96874,0.02181
2735.90857,0.02155
2733.84840,0.02127
2731.78823,0.02114
2729.72805,0.02088
2727.66788,0.02060
2725.60771,0.02046
2723.54754,0.02035
2721.48737,0.02028
2719.42719,0.02029
2717.36702,0.02016
2715.30685,0.01986
2713.24668,0.01969
2711.18651,0.01976
2709.12633,0.01979
2707.06616,0.01962
2705.00599,0.01938
2702.94582,0.01921
2700.88565,0.01922
2698.82547,0.01942
2696.76530,0.01941
2694.70513,0.01905
2692.64496,0.01871
2690.58478,0.01858
2688.52461,0.01854
2686.46444,0.01844
2684.40427,0.01826
2682.34410,0.01818
2680.28392,0.01799
2678.22375,0.01755
2676.16358,0.01732
2674.10341,0.01743
2672.04324,0.01748
2669.98306,0.01735
2667.92289,0.01717
2665.86272,0.01701
2663.80255,0.01698
2661.74238,0.01704
2659.68220,0.01710
2657.62203,0.01710
2655.56186,0.01685
2653.50169,0.01654
2651.44151,0.01647
2649.38134,0.01636
2647.32117,0.01609
2645.26100,0.01585
2643.20083,0.01579
2641.14065,0.01581
2639.08048,0.01570
2637.02031,0.01564
2634.96014,0.01573
2632.89997,0.01554
2630.83979,0.01511
2628.77962,0.01491
2626.71945,0.01490
2624.65928,0.01468
2622.59910,0.01439
2620.53893,0.01424
2618.47876,0.01406
2616.41859,0.01401
2614.35842,0.01427
2612.29824,0.01436
2610.23807,0.01397
2608.17790,0.01376
2606.11773,0.01388
2604.05756,0.01361
2601.99738,0.01305
2599.93721,0.01274
2597.87704,0.01275
2595.81687,0.01284
2593.75670,0.01280
2591.69652,0.01272
2589.63635,0.01260
2587.57618,0.01222
2585.51601,0.01185
2583.45583,0.01184
2581.39566,0.01207
2579.33549,0.01239
2577.27532,0.01269
2575.21515,0.01288
2573.15497,0.01289
2571.09480,0.01270
2569.03463,0.01246
2566.97446,0.01242
2564.91429,0.01269
2562.85411,0.01265
2560.79394,0.01217
2558.73377,0.01209
2556.67360,0.01238
2554.61342,0.01241
2552.55325,0.01257
2550.49308,0.01280
2548.43291,0.01268
2546.37274,0.01261
2544.31256,0.01250
2542.25239,0.01199
2540.19222,0.01145
2538.13205,0.01133
2536.07188,0.01168
2534.01170,0.01217
2531.95153,0.01251
2529.89136,0.01256
2527.83119,0.01234
2525.77102,0.01209
2523.71084,0.01209
2521.65067,0.01209
2519.59050,0.01172
2517.53033,0.01154
2515.47015,0.01203
2513.40998,0.01241
2511.34981,0.01202
2509.28964,0.01140
2507.22947,0.01160
2505.16929,0.01244
2503.10912,0.01281
2501.04895,0.01258
2498.98878,0.01226
2496.92861,0.01207
2494.86843,0.01195
2492.80826,0.01175
2490.74809,0.01168
2488.68792,0.01202
2486.62775,0.01238
2484.56757,0.01233
2482.50740,0.01227
2480.44723,0.01257
2478.38706,0.01290
2476.32688,0.01297
2474.26671,0.01277
2472.20654,0.01239
2470.14637,0.01206
2468.08620,0.01196
2466.02602,0.01204
2463.96585,0.01212
2461.90568,0.01241
2459.84551,0.01277
2457.78534,0.01270
2455.72516,0.01269
2453.66499,0.01305
2451.60482,0.01323
2449.54465,0.01299
2447.48447,0.01259
2445.42430,0.01240
2443.36413,0.01252
2441.30396,0.01259
2439.24379,0.01241
2437.18361,0.01243
2435.12344,0.01284
2433.06327,0.01289
2431.00310,0.01254
2428.94293,0.01237
2426.88275,0.01234
2424.82258,0.01244
2422.76241,0.01278
2420.70224,0.01318
2418.64207,0.01336
2416.58189,0.01316
2414.52172,0.01275
2412.46155,0.01240
2410.40138,0.01212
2408.34120,0.01191
2406.28103,0.01185
2404.22086,0.01207
2402.16069,0.01249
2400.10052,0.01261
2398.04034,0.01244
2395.98017,0.01218
2393.92000,0.01208
2391.85983,0.01220
2389.79966,0.01245
2387.73948,0.01262
2385.67931,0.01256
2383.61914,0.01233
2381.55897,0.01220
2379.49880,0.01242
2377.43862,0.01286
2375.37845,0.01291
2373.31828,0.01178
2371.25811,0.01037
2369.19793,0.01014
2367.13776,0.01025
2365.07759,0.00955
2363.01742,0.00950
2360.95725,0.01107
2358.89707,0.01312
2356.83690,0.01280
2354.77673,0.01189
2352.71656,0.01260
2350.65639,0.01295
2348.59621,0.01284
2346.53604,0.01410
2344.47587,0.01436
2342.41570,0.01413
2340.35552,0.01369
2338.29535,0.01292
2336.23518,0.01243
2334.17501,0.01242
2332.11484,0.01281
2330.05466,0.01319
2327.99449,0.01364
2325.93432,0.01381
2323.87415,0.01382
2321.81398,0.01332
2319.75380,0.01299
2317.69363,0.01245
2315.63346,0.01187
2313.57329,0.01163
2311.51312,0.01192
2309.45294,0.01249
2307.39277,0.01294
2305.33260,0.01293
2303.27243,0.01251
2301.21225,0.01214
2299.15208,0.01192
2297.09191,0.01196
2295.03174,0.01211
2292.97157,0.01207
2290.91139,0.01204
2288.85122,0.01213
2286.79105,0.01208
2284.73088,0.01179
2282.67071,0.01166
2280.61053,0.01179
2278.55036,0.01168
2276.49019,0.01119
2274.43002,0.01083
2272.36984,0.01084
2270.30967,0.01088
2268.24950,0.01056
2266.18933,0.01010
2264.12916,0.00978
2262.06898,0.00968
2260.00881,0.00981
2257.94864,0.00973
2255.88847,0.00954
2253.82830,0.00999
2251.76812,0.01059
2249.70795,0.01033
2247.64778,0.00984
2245.58761,0.00986
2243.52744,0.00976
2241.46726,0.00951
2239.40709,0.00883
2237.34692,0.00762
2235.28675,0.00752
2233.22657,0.00882
2231.16640,0.00968
2229.10623,0.01010
2227.04606,0.01051
2224.98589,0.00995
2222.92571,0.00902
2220.86554,0.00877
2218.80537,0.00841
2216.74520,0.00757
2214.68503,0.00731
2212.62485,0.00801
2210.56468,0.00848
2208.50451,0.00794
2206.44434,0.00785
2204.38417,0.00886
2202.32399,0.00874
2200.26382,0.00748
2198.20365,0.00695
2196.14348,0.00653
2194.08330,0.00622
2192.02313,0.00706
2189.96296,0.00766
2187.90279,0.00661
2185.84262,0.00479
2183.78244,0.00435
2181.72227,0.00624
2179.66210,0.00812
2177.60193,0.00817
2175.54176,0.00765
2173.48158,0.00703
2171.42141,0.00649
2169.36124,0.00630
2167.30107,0.00591
2165.24089,0.00591
2163.18072,0.00569
2161.12055,0.00429
2159.06038,0.00238
2157.00021,0.00121
2154.94003,0.00222
2152.87986,0.00430
2150.81969,0.00504
2148.75952,0.00467
2146.69935,0.00469
2144.63917,0.00569
2142.57900,0.00733
2140.51883,0.00789
2138.45866,0.00657
2136.39849,0.00502
2134.33831,0.00449
2132.27814,0.00524
2130.21797,0.00648
2128.15780,0.00664
2126.09762,0.00601
2124.03745,0.00568
2121.97728,0.00567
2119.91711,0.00636
2117.85694,0.00764
2115.79676,0.00825
2113.73659,0.00807
2111.67642,0.00780
2109.61625,0.00749
2107.55608,0.00716
2105.49590,0.00718
2103.43573,0.00742
2101.37556,0.00738
2099.31539,0.00682
2097.25521,0.00614
2095.19504,0.00579
2093.13487,0.00567
2091.07470,0.00547
2089.01453,0.00531
2086.95435,0.00570
2084.89418,0.00651
2082.83401,0.00656
2080.77384,0.00581
2078.71367,0.00563
2076.65349,0.00601
2074.59332,0.00601
2072.53315,0.00558
2070.47298,0.00531
2068.41281,0.00569
2066.35263,0.00632
2064.29246,0.00622
2062.23229,0.00572
2060.17212,0.00581
2058.11194,0.00631
2056.05177,0.00642
2053.99160,0.00586
2051.93143,0.00520
2049.87126,0.00506
2047.81108,0.00516
2045.75091,0.00490
2043.69074,0.00433
2041.63057,0.00390
2039.57040,0.00333
2037.51022,0.00262
2035.45005,0.00280
2033.38988,0.00351
2031.32971,0.00373
2029.26954,0.00338
2027.20936,0.00261
2025.14919,0.00201
2023.08902,0.00196
2021.02885,0.00208
2018.96867,0.00275
2016.90850,0.00431
2014.84833,0.00526
2012.78816,0.00453
2010.72799,0.00326
2008.66781,0.00290
2006.60764,0.00306
2004.54747,0.00295
2002.48730,0.00300
2000.42713,0.00310
1998.36695,0.00255
1996.30678,0.00193
1994.24661,0.00238
1992.18644,0.00363
1990.12626,0.00425
1988.06609,0.00441
1986.00592,0.00474
1983.94575,0.00437
1981.88558,0.00381
1979.82540,0.00430
1977.76523,0.00451
1975.70506,0.00338
1973.64489,0.00307
1971.58472,0.00418
1969.52454,0.00448
1967.46437,0.00346
1965.40420,0.00200
1963.34403,0.00132
1961.28386,0.00234
1959.22368,0.00423
1957.16351,0.00521
1955.10334,0.00485
1953.04317,0.00425
1950.98299,0.00399
1948.92282,0.00360
1946.86265,0.00335
1944.80248,0.00374
1942.74231,0.00383
1940.68213,0.00317
1938.62196,0.00303
1936.56179,0.00368
1934.50162,0.00395
1932.44145,0.00347
1930.38127,0.00287
1928.32110,0.00275
1926.26093,0.00350
1924.20076,0.00467
1922.14059,0.00537
1920.08041,0.00543
1918.02024,0.00515
1915.96007,0.00473
1913.89990,0.00431
1911.83972,0.00419
1909.77955,0.00447
1907.71938,0.00461
1905.65921,0.00432
1903.59904,0.00421
1901.53886,0.00447
1899.47869,0.00455
1897.41852,0.00436
1895.35835,0.00425
1893.29818,0.00425
1891.23800,0.00430
1889.17783,0.00439
1887.11766,0.00457
1885.05749,0.00479
1882.99731,0.00489
1880.93714,0.00496
1878.87697,0.00501
1876.81680,0.00481
1874.75663,0.00425
1872.69645,0.00354
1870.63628,0.00292
1868.57611,0.00261
1866.51594,0.00279
1864.45577,0.00327
1862.39559,0.00364
1860.33542,0.00397
1858.27525,0.00448
1856.21508,0.00472
1854.15491,0.00441
1852.09473,0.00407
1850.03456,0.00390
1847.97439,0.00356
1845.91422,0.00320
1843.85404,0.00347
1841.79387,0.00416
1839.73370,0.00453
1837.67353,0.00458
1835.61336,0.00455
1833.55318,0.00449
1831.49301,0.00457
1829.43284,0.00478
1827.37267,0.00460
1825.31250,0.00415
1823.25232,0.00397
1821.19215,0.00400
1819.13198,0.00393
1817.07181,0.00383
1815.01163,0.00400
1812.95146,0.00442
1810.89129,0.00479
1808.83112,0.00500
1806.77095,0.00508
1804.71077,0.00493
1802.65060,0.00460
1800.59043,0.00434
1798.53026,0.00422
1796.47009,0.00406
1794.40991,0.00384
1792.34974,0.00381
1790.28957,0.00407
1788.22940,0.00441
1786.16923,0.00456
1784.10905,0.00460
1782.04888,0.00475
1779.98871,0.00496
1777.92854,0.00499
1775.86836,0.00480
1773.80819,0.00453
1771.74802,0.00432
1769.68785,0.00450
1767.62768,0.00503
1765.56750,0.00544
1763.50733,0.00543
1761.44716,0.00530
1759.38699,0.00541
1757.32682,0.00577
1755.26664,0.00630
1753.20647,0.00676
1751.14630,0.00689
1749.08613,0.00681
1747.02596,0.00693
1744.96578,0.00727
1742.90561,0.00750
1740.84544,0.00763
1738.78527,0.00784
1736.72509,0.00788
1734.66492,0.00785
1732.60475,0.00819
1730.54458,0.00869
1728.48441,0.00909
1726.42423,0.00935
1724.36406,0.00950
1722.30389,0.00948
1720.24372,0.00918
1718.18355,0.00885
1716.12337,0.00908
1714.06320,0.00980
1712.00303,0.01044
1709.94286,0.01082
1707.88268,0.01105
1705.82251,0.01136
1703.76234,0.01165
1701.70217,0.01189
1699.64200,0.01249
1697.58182,0.01348
1695.52165,0.01431
1693.46148,0.01469
1691.40131,0.01473
1689.34114,0.01478
1687.28096,0.01503
1685.22079,0.01571
1683.16062,0.01686
1681.10045,0.01770
1679.04028,0.01812
1676.98010,0.01862
1674.91993,0.01940
1672.85976,0.01993
1670.79959,0.02017
1668.73941,0.02094
1666.67924,0.02211
1664.61907,0.02291
1662.55890,0.02342
1660.49873,0.02387
1658.43855,0.02403
1656.37838,0.02374
1654.31821,0.02354
1652.25804,0.02417
1650.19787,0.02474
1648.13769,0.02464
1646.07752,0.02474
1644.01735,0.02540
1641.95718,0.02594
1639.89701,0.02600
1637.83683,0.02558
1635.77666,0.02510
1633.71649,0.02518
1631.65632,0.02541
1629.59614,0.02522
1627.53597,0.02472
1625.47580,0.02431
1623.41563,0.02414
1621.35546,0.02411
1619.29528,0.02394
1617.23511,0.02370
1615.17494,0.02370
1613.11477,0.02368
1611.05460,0.02333
1608.99442,0.02279
1606.93425,0.02229
1604.87408,0.02186
1602.81391,0.02148
1600.75373,0.02115
1598.69356,0.02075
1596.63339,0.02017
1594.57322,0.01948
1592.51305,0.01877
1590.45287,0.01806
1588.39270,0.01738
1586.33253,0.01676
1584.27236,0.01623
1582.21219,0.01575
1580.15201,0.01518
1578.09184,0.01445
1576.03167,0.01379
1573.97150,0.01343
1571.91133,0.01299
1569.85115,0.01227
1567.79098,0.01164
1565.73081,0.01133
1563.67064,0.01098
1561.61046,0.01023
1559.55029,0.00950
1557.49012,0.00957
1555.42995,0.00979
1553.36978,0.00961
1551.30960,0.00923
1549.24943,0.00891
1547.18926,0.00859
1545.12909,0.00804
1543.06892,0.00724
1541.00874,0.00664
1538.94857,0.00683
1536.88840,0.00719
1534.82823,0.00705
1532.76805,0.00675
1530.70788,0.00668
1528.64771,0.00654
1526.58754,0.00605
1524.52737,0.00543
1522.46719,0.00508
1520.40702,0.00522
1518.34685,0.00528
1516.28668,0.00503
1514.22651,0.00498
1512.16633,0.00507
1510.10616,0.00473
1508.04599,0.00400
1505.98582,0.00394
1503.92565,0.00445
1501.86547,0.00464
1499.80530,0.00446
1497.74513,0.00429
1495.68496,0.00427
1493.62478,0.00416
1491.56461,0.00394
1489.50444,0.00399
1487.44427,0.00445
1485.38410,0.00484
1483.32392,0.00482
1481.26375,0.00468
1479.20358,0.00475
1477.14341,0.00492
1475.08324,0.00503
1473.02306,0.00525
1470.96289,0.00574
1468.90272,0.00611
1466.84255,0.00619
1464.78238,0.00634
1462.72220,0.00664
1460.66203,0.00660
1458.60186,0.00627
1456.54169,0.00633
1454.48151,0.00686
1452.42134,0.00721
1450.36117,0.00721
1448.30100,0.00714
1446.24083,0.00723
1444.18065,0.00733
1442.12048,0.00730
1440.06031,0.00715
1438.00014,0.00702
1435.93997,0.00710
1433.87979,0.00733
1431.81962,0.00750
1429.75945,0.00770
1427.69928,0.00805
1425.63910,0.00845
1423.57893,0.00878
1421.51876,0.00888
1419.45859,0.00888
1417.39842,0.00904
1415.33824,0.00918
1413.27807,0.00913
1411.21790,0.00906
1409.15773,0.00905
1407.09756,0.00897
1405.03738,0.00873
1402.97721,0.00841
1400.91704,0.00812
1398.85687,0.00776
1396.79670,0.00734
1394.73652,0.00720
1392.67635,0.00742
1390.61618,0.00767
1388.55601,0.00775
1386.49583,0.00778
1384.43566,0.00777
1382.37549,0.00769
1380.31532,0.00761
1378.25515,0.00761
1376.19497,0.00771
1374.13480,0.00784
1372.07463,0.00778
1370.01446,0.00758
1367.95429,0.00738
1365.89411,0.00709
1363.83394,0.00671
1361.77377,0.00645
1359.71360,0.00631
1357.65343,0.00624
1355.59325,0.00626
1353.53308,0.00628
1351.47291,0.00617
1349.41274,0.00597
1347.35256,0.00583
1345.29239,0.00578
1343.23222,0.00568
1341.17205,0.00538
1339.11188,0.00516
1337.05170,0.00533
1334.99153,0.00566
1332.93136,0.00576
1330.87119,0.00556
1328.81102,0.00530
1326.75084,0.00519
1324.69067,0.00521
1322.63050,0.00519
1320.57033,0.00517
1318.51015,0.00526
1316.44998,0.00535
1314.38981,0.00528
1312.32964,0.00513
1310.26947,0.00507
1308.20929,0.00503
1306.14912,0.00493
1304.08895,0.00492
1302.02878,0.00499
1299.96861,0.00498
1297.90843,0.00485
1295.84826,0.00482
1293.78809,0.00499
1291.72792,0.00522
1289.66775,0.00537
1287.60757,0.00541
1285.54740,0.00545
1283.48723,0.00559
1281.42706,0.00570
1279.36688,0.00571
1277.30671,0.00572
1275.24654,0.00576
1273.18637,0.00588
1271.12620,0.00610
1269.06602,0.00636
1267.00585,0.00654
1264.94568,0.00656
1262.88551,0.00655
1260.82534,0.00656
1258.76516,0.00655
1256.70499,0.00653
1254.64482,0.00650
1252.58465,0.00649
1250.52447,0.00648
1248.46430,0.00638
1246.40413,0.00621
1244.34396,0.00613
1242.28379,0.00605
1240.22361,0.00585
1238.16344,0.00550
1236.10327,0.00518
1234.04310,0.00502
1231.98293,0.00487
1229.92275,0.00467
1227.86258,0.00446
1225.80241,0.00425
1223.74224,0.00403
1221.68207,0.00370
1219.62189,0.00341
1217.56172,0.00329
1215.50155,0.00322
1213.44138,0.00308
1211.38120,0.00284
1209.32103,0.00255
1207.26086,0.00224
1205.20069,0.00209
1203.14052,0.00215
1201.08034,0.00228
1199.02017,0.00223
1196.96000,0.00195
1194.89983,0.00183
1192.83966,0.00211
1190.77948,0.00259
1188.71931,0.00301
1186.65914,0.00337
1184.59897,0.00378
1182.53880,0.00430
1180.47862,0.00494
1178.41845,0.00571
1176.35828,0.00653
1174.29811,0.00726
1172.23793,0.00818
1170.17776,0.00938
1168.11759,0.01068
1166.05742,0.01196
1163.99725,0.01299
1161.93707,0.01375
1159.87690,0.01458
1157.81673,0.01559
1155.75656,0.01654
1153.69639,0.01742
1151.63621,0.01836
1149.57604,0.01922
1147.51587,0.02003
1145.45570,0.02092
1143.39552,0.02180
1141.33535,0.02272
1139.27518,0.02382
1137.21501,0.02497
1135.15484,0.02600
1133.09466,0.02694
1131.03449,0.02799
1128.97432,0.02924
1126.91415,0.03062
1124.85398,0.03194
1122.79380,0.03319
1120.73363,0.03443
1118.67346,0.03570
1116.61329,0.03722
1114.55312,0.03883
1112.49294,0.04027
1110.43277,0.04185
1108.37260,0.04373
1106.31243,0.04551
1104.25225,0.04699
1102.19208,0.04844
1100.13191,0.04983
1098.07174,0.05102
1096.01157,0.05220
1093.95139,0.05361
1091.89122,0.05544
1089.83105,0.05735
1087.77088,0.05892
1085.71071,0.06038
1083.65053,0.06168
1081.59036,0.06280
1079.53019,0.06399
1077.47002,0.06521
1075.40985,0.06632
1073.34967,0.06722
1071.28950,0.06785
1069.22933,0.06827
1067.16916,0.06856
1065.10898,0.06872
1063.04881,0.06882
1060.98864,0.06886
1058.92847,0.06862
1056.86830,0.06825
1054.80812,0.06768
1052.74795,0.06686
1050.68778,0.06621
1048.62761,0.06559
1046.56744,0.06468
1044.50726,0.06361
1042.44709,0.06247
1040.38692,0.06122
1038.32675,0.05987
1036.26657,0.05857
1034.20640,0.05746
1032.14623,0.05629
1030.08606,0.05474
1028.02589,0.05313
1025.96571,0.05183
1023.90554,0.05070
1021.84537,0.04964
1019.78520,0.04852
1017.72503,0.04716
1015.66485,0.04582
1013.60468,0.04488
1011.54451,0.04409
1009.48434,0.04305
1007.42417,0.04191
1005.36399,0.04121
1003.30382,0.04114
1001.24365,0.04131
999.18348,0.04161
997.12330,0.04225
995.06313,0.04309
993.00296,0.04401
990.94279,0.04493
988.88262,0.04567
986.82244,0.04613
984.76227,0.04615
982.70210,0.04582
980.64193,0.04523
978.58176,0.04441
976.52158,0.04329
974.46141,0.04166
972.40124,0.03965
970.34107,0.03761
968.28089,0.03564
966.22072,0.03384
964.16055,0.03217
962.10038,0.03045
960.04021,0.02851
957.98003,0.02664
955.91986,0.02528
953.85969,0.02426
951.79952,0.02333
949.73935,0.02243
947.67917,0.02145
945.61900,0.02056
943.55883,0.02010
941.49866,0.01989
939.43849,0.01967
937.37831,0.01946
935.31814,0.01933
933.25797,0.01916
931.19780,0.01889
929.13762,0.01863
927.07745,0.01826
925.01728,0.01760
922.95711,0.01679
920.89694,0.01619
918.83676,0.01592
916.77659,0.01553
914.71642,0.01467
912.65625,0.01374
910.59608,0.01320
908.53590,0.01270
906.47573,0.01196
904.41556,0.01129
902.35539,0.01095
900.29522,0.01093
898.23504,0.01121
896.17487,0.01152
894.11470,0.01168
892.05453,0.01194
889.99435,0.01248
887.93418,0.01311
885.87401,0.01358
883.81384,0.01384
881.75367,0.01416
879.69349,0.01466
877.63332,0.01504
875.57315,0.01540
873.51298,0.01597
871.45281,0.01634
869.39263,0.01650
867.33246,0.01670
865.27229,0.01668
863.21212,0.01649
861.15194,0.01634
859.09177,0.01612
857.03160,0.01623
854.97143,0.01678
852.91126,0.01674
850.85108,0.01600
848.79091,0.01520
846.73074,0.01438
844.67057,0.01385
842.61040,0.01379
840.55022,0.01378
838.49005,0.01354
836.42988,0.01281
834.36971,0.01185
832.30954,0.01128
830.24936,0.01091
828.18919,0.01036
826.12902,0.00974
824.06885,0.00920
822.00867,0.00887
819.94850,0.00872
817.88833,0.00860
815.82816,0.00824
813.76799,0.00766
811.70781,0.00723
809.64764,0.00703
807.58747,0.00695
805.52730,0.00678
803.46713,0.00634
801.40695,0.00572
799.34678,0.00532
797.28661,0.00526
795.22644,0.00525
793.16627,0.00521
791.10609,0.00525
789.04592,0.00525
786.98575,0.00501
784.92558,0.00487
782.86540,0.00524
780.80523,0.00572
778.74506,0.00576
776.68489,0.00539
774.62472,0.00511
772.56454,0.00523
770.50437,0.00560
768.44420,0.00588
766.38403,0.00568
764.32386,0.00529
762.26368,0.00510
760.20351,0.00482
758.14334,0.00444
756.08317,0.00373
754.02299,0.00293
751.96282,0.00268
749.90265,0.00287
747.84248,0.00316
745.78231,0.00326
743.72213,0.00314
741.66196,0.00290
739.60179,0.00259
737.54162,0.00260
735.48145,0.00315
733.42127,0.00360
731.36110,0.00366
729.30093,0.00368
727.24076,0.00381
725.18059,0.00418
723.12041,0.00452
721.06024,0.00478
719.00007,0.00445
716.93990,0.00423
714.87972,0.00431
712.81955,0.00446
710.75938,0.00501
708.69921,0.00574
706.63904,0.00571
704.57886,0.00485
702.51869,0.00420
700.45852,0.00450
698.39835,0.00529
696.33818,0.00598
694.27800,0.00654
692.21783,0.00692
690.15766,0.00676
688.09749,0.00575
686.03731,0.00401
683.97714,0.00255
681.91697,0.00234
679.85680,0.00273
677.79663,0.00258
675.73645,0.00223
673.67628,0.00230
671.61611,0.00267
669.55594,0.00472
667.49577,0.00594
665.43559,0.00211
663.37542,0.00191
661.31525,0.00351
659.25508,0.00467
657.19491,0.00480
655.13473,0.00461
653.07456,0.00423
651.01439,0.00418
648.95422,0.00575
646.89404,0.00797
644.83387,0.00860
642.77370,0.00745
640.71353,0.00646
638.65336,0.00649
636.59318,0.00733
634.53301,0.00804
632.47284,0.00665
630.41267,0.00367
628.35250,0.00220
626.29232,0.00263
624.23215,0.00338
622.17198,0.00482
620.11181,0.00692
618.05164,0.00791
615.99146,0.00726
613.93129,0.00716
611.87112,0.00635
609.81095,0.00386
607.75077,0.00177
605.69060,0.00052
603.63043,0.00000
601.57026,0.00028
599.51009,0.00000
