3996.73391,0.00067
3994.67373,0.00072
3992.61356,0.00057
3990.55339,0.00050
3988.49322,0.00062
3986.43305,0.00061
3984.37287,0.00045
3982.31270,0.00040
3980.25253,0.00037
3978.19236,0.00020
3976.13219,0.00002
3974.07201,0.00000
3972.01184,0.00021
3969.95167,0.00046
3967.89150,0.00056
3965.83133,0.00048
3963.77115,0.00035
3961.71098,0.00029
3959.65081,0.00030
3957.59064,0.00038
3955.53046,0.00052
3953.47029,0.00058
3951.41012,0.00050
3949.34995,0.00046
3947.28978,0.00053
3945.22960,0.00056
3943.16943,0.00049
3941.10926,0.00032
3939.04909,0.00021
3936.98892,0.00024
3934.92874,0.00025
3932.86857,0.00019
3930.80840,0.00032
3928.74823,0.00054
3926.68805,0.00049
3924.62788,0.00029
3922.56771,0.00023
3920.50754,0.00030
3918.44737,0.00047
3916.38719,0.00073
3914.32702,0.00084
3912.26685,0.00078
3910.20668,0.00069
3908.14651,0.00053
3906.08633,0.00038
3904.02616,0.00043
3901.96599,0.00057
3899.90582,0.00062
3897.84565,0.00078
3895.78547,0.00097
3893.72530,0.00094
3891.66513,0.00073
3889.60496,0.00054
3887.54478,0.00050
3885.48461,0.00056
3883.42444,0.00069
3881.36427,0.00084
3879.30410,0.00087
3877.24392,0.00081
3875.18375,0.00081
3873.12358,0.00097
3871.06341,0.00127
3869.00324,0.00141
3866.94306,0.00114
3864.88289,0.00076
3862.82272,0.00068
3860.76255,0.00084
3858.70237,0.00096
3856.64220,0.00095
3854.58203,0.00087
3852.52186,0.00083
3850.46169,0.00095
3848.40151,0.00102
3846.34134,0.00090
3844.28117,0.00086
3842.22100,0.00119
3840.16083,0.00155
3838.10065,0.00132
3836.04048,0.00061
3833.98031,0.00019
3831.92014,0.00034
3829.85997,0.00069
3827.79979,0.00086
3825.73962,0.00086
3823.67945,0.00078
3821.61928,0.00066
3819.55910,0.00064
3817.49893,0.00068
3815.43876,0.00072
3813.37859,0.00087
3811.31842,0.00102
3809.25824,0.00101
3807.19807,0.00087
3805.13790,0.00070
3803.07773,0.00055
3801.01756,0.00045
3798.95738,0.00043
3796.89721,0.00056
3794.83704,0.00073
3792.77687,0.00075
3790.71670,0.00066
3788.65652,0.00069
3786.59635,0.00084
3784.53618,0.00089
3782.47601,0.00080
3780.41583,0.00080
3778.35566,0.00105
3776.29549,0.00126
3774.23532,0.00124
3772.17515,0.00116
3770.11497,0.00122
3768.05480,0.00130
3765.99463,0.00124
3763.93446,0.00112
3761.87429,0.00115
3759.81411,0.00132
3757.75394,0.00136
3755.69377,0.00119
3753.63360,0.00085
3751.57342,0.00038
3749.51325,0.00009
3747.45308,0.00006
3745.39291,0.00000
3743.33274,0.00002
3741.27256,0.00017
3739.21239,0.00028
3737.15222,0.00033
3735.09205,0.00035
3733.03188,0.00044
3730.97170,0.00047
3728.91153,0.00037
3726.85136,0.00039
3724.79119,0.00068
3722.73102,0.00097
3720.67084,0.00121
3718.61067,0.00157
3716.55050,0.00168
3714.49033,0.00130
3712.43015,0.00077
3710.36998,0.00050
3708.30981,0.00061
3706.24964,0.00063
3704.18947,0.00046
3702.12929,0.00046
3700.06912,0.00091
3698.00895,0.00149
3695.94878,0.00159
3693.88861,0.00122
3691.82843,0.00093
3689.76826,0.00104
3687.70809,0.00115
3685.64792,0.00108
3683.58775,0.00117
3681.52757,0.00163
3679.46740,0.00201
3677.40723,0.00185
3675.34706,0.00131
3673.28688,0.00093
3671.22671,0.00082
3669.16654,0.00102
3667.10637,0.00145
3665.04620,0.00180
3662.98602,0.00192
3660.92585,0.00202
3658.86568,0.00224
3656.80551,0.00252
3654.74534,0.00268
3652.68516,0.00283
3650.62499,0.00328
3648.56482,0.00382
3646.50465,0.00401
3644.44447,0.00407
3642.38430,0.00400
3640.32413,0.00379
3638.26396,0.00388
3636.20379,0.00435
3634.14361,0.00471
3632.08344,0.00470
3630.02327,0.00467
3627.96310,0.00492
3625.90293,0.00544
3623.84275,0.00603
3621.78258,0.00644
3619.72241,0.00663
3617.66224,0.00690
3615.60207,0.00729
3613.54189,0.00746
3611.48172,0.00742
3609.42155,0.00741
3607.36138,0.00784
3605.30120,0.00866
3603.24103,0.00916
3601.18086,0.00922
3599.12069,0.00938
3597.06052,0.00990
3595.00034,0.01035
3592.94017,0.01051
3590.88000,0.01056
3588.81983,0.01077
3586.75966,0.01112
3584.69948,0.01149
3582.63931,0.01186
3580.57914,0.01223
3578.51897,0.01256
3576.45879,0.01289
3574.39862,0.01337
3572.33845,0.01384
3570.27828,0.01410
3568.21811,0.01435
3566.15793,0.01494
3564.09776,0.01571
3562.03759,0.01624
3559.97742,0.01649
3557.91725,0.01684
3555.85707,0.01753
3553.79690,0.01818
3551.73673,0.01845
3549.67656,0.01856
3547.61639,0.01890
3545.55621,0.01949
3543.49604,0.02005
3541.43587,0.02049
3539.37570,0.02100
3537.31552,0.02164
3535.25535,0.02219
3533.19518,0.02252
3531.13501,0.02275
3529.07484,0.02298
3527.01466,0.02328
3524.95449,0.02371
3522.89432,0.02428
3520.83415,0.02495
3518.77398,0.02549
3516.71380,0.02576
3514.65363,0.02603
3512.59346,0.02646
3510.53329,0.02695
3508.47312,0.02750
3506.41294,0.02804
3504.35277,0.02842
3502.29260,0.02870
3500.23243,0.02904
3498.17225,0.02942
3496.11208,0.02983
3494.05191,0.03038
3491.99174,0.03096
3489.93157,0.03136
3487.87139,0.03170
3485.81122,0.03213
3483.75105,0.03266
3481.69088,0.03328
3479.63071,0.03373
3477.57053,0.03389
3475.51036,0.03418
3473.45019,0.03472
3471.39002,0.03523
3469.32984,0.03559
3467.26967,0.03593
3465.20950,0.03639
3463.14933,0.03697
3461.08916,0.03751
3459.02898,0.03795
3456.96881,0.03829
3454.90864,0.03863
3452.84847,0.03904
3450.78830,0.03951
3448.72812,0.03993
3446.66795,0.04029
3444.60778,0.04067
3442.54761,0.04112
3440.48744,0.04153
3438.42726,0.04187
3436.36709,0.04224
3434.30692,0.04281
3432.24675,0.04341
3430.18657,0.04387
3428.12640,0.04423
3426.06623,0.04449
3424.00606,0.04481
3421.94589,0.04524
3419.88571,0.04563
3417.82554,0.04596
3415.76537,0.04620
3413.70520,0.04646
3411.64503,0.04691
3409.58485,0.04740
3407.52468,0.04771
3405.46451,0.04782
3403.40434,0.04796
3401.34416,0.04832
3399.28399,0.04880
3397.22382,0.04908
3395.16365,0.04922
3393.10348,0.04946
3391.04330,0.04973
3388.98313,0.04994
3386.92296,0.05032
3384.86279,0.05087
3382.80262,0.05127
3380.74244,0.05145
3378.68227,0.05164
3376.62210,0.05187
3374.56193,0.05212
3372.50176,0.05251
3370.44158,0.05286
3368.38141,0.05305
3366.32124,0.05324
3364.26107,0.05342
3362.20089,0.05355
3360.14072,0.05377
3358.08055,0.05403
3356.02038,0.05419
3353.96021,0.05433
3351.90003,0.05462
3349.83986,0.05501
3347.77969,0.05531
3345.71952,0.05545
3343.65935,0.05546
3341.59917,0.05541
3339.53900,0.05539
3337.47883,0.05560
3335.41866,0.05599
3333.35849,0.05625
3331.29831,0.05621
3329.23814,0.05620
3327.17797,0.05638
3325.11780,0.05658
3323.05762,0.05664
3320.99745,0.05667
3318.93728,0.05677
3316.87711,0.05690
3314.81694,0.05703
3312.75676,0.05716
3310.69659,0.05731
3308.63642,0.05746
3306.57625,0.05748
3304.51608,0.05731
3302.45590,0.05720
3300.39573,0.05736
3298.33556,0.05762
3296.27539,0.05783
3294.21521,0.05798
3292.15504,0.05793
3290.09487,0.05782
3288.03470,0.05798
3285.97453,0.05820
3283.91435,0.05811
3281.85418,0.05789
3279.79401,0.05792
3277.73384,0.05811
3275.67367,0.05825
3273.61349,0.05820
3271.55332,0.05812
3269.49315,0.05825
3267.43298,0.05827
3265.37281,0.05796
3263.31263,0.05769
3261.25246,0.05759
3259.19229,0.05753
3257.13212,0.05766
3255.07194,0.05793
3253.01177,0.05793
3250.95160,0.05767
3248.89143,0.05745
3246.83126,0.05720
3244.77108,0.05685
3242.71091,0.05671
3240.65074,0.05677
3238.59057,0.05667
3236.53040,0.05643
3234.47022,0.05617
3232.41005,0.05593
3230.34988,0.05584
3228.28971,0.05587
3226.22954,0.05592
3224.16936,0.05589
3222.10919,0.05570
3220.04902,0.05550
3217.98885,0.05536
3215.92867,0.05518
3213.86850,0.05486
3211.80833,0.05446
3209.74816,0.05418
3207.68799,0.05407
3205.62781,0.05407
3203.56764,0.05398
3201.50747,0.05374
3199.44730,0.05348
3197.38713,0.05332
3195.32695,0.05329
3193.26678,0.05333
3191.20661,0.05325
3189.14644,0.05288
3187.08626,0.05251
3185.02609,0.05237
3182.96592,0.05224
3180.90575,0.05202
3178.84558,0.05178
3176.78540,0.05146
3174.72523,0.05116
3172.66506,0.05092
3170.60489,0.05065
3168.54472,0.05027
3166.48454,0.04982
3164.42437,0.04960
3162.36420,0.04958
3160.30403,0.04943
3158.24386,0.04916
3156.18368,0.04892
3154.12351,0.04869
3152.06334,0.04839
3150.00317,0.04800
3147.94299,0.04765
3145.88282,0.04738
3143.82265,0.04716
3141.76248,0.04710
3139.70231,0.04706
3137.64213,0.04686
3135.58196,0.04660
3133.52179,0.04628
3131.46162,0.04581
3129.40145,0.04531
3127.34127,0.04499
3125.28110,0.04483
3123.22093,0.04465
3121.16076,0.04450
3119.10058,0.04439
3117.04041,0.04421
3114.98024,0.04397
3112.92007,0.04369
3110.85990,0.04330
3108.79972,0.04285
3106.73955,0.04247
3104.67938,0.04221
3102.61921,0.04213
3100.55904,0.04203
3098.49886,0.04182
3096.43869,0.04164
3094.37852,0.04145
3092.31835,0.04111
3090.25818,0.04074
3088.19800,0.04053
3086.13783,0.04047
3084.07766,0.04044
3082.01749,0.04027
3079.95731,0.03990
3077.89714,0.03955
3075.83697,0.03943
3073.77680,0.03934
3071.71663,0.03903
3069.65645,0.03866
3067.59628,0.03846
3065.53611,0.03838
3063.47594,0.03823
3061.41577,0.03790
3059.35559,0.03756
3057.29542,0.03731
3055.23525,0.03700
3053.17508,0.03658
3051.11491,0.03617
3049.05473,0.03592
3046.99456,0.03587
3044.93439,0.03580
3042.87422,0.03558
3040.81404,0.03530
3038.75387,0.03502
3036.69370,0.03468
3034.63353,0.03430
3032.57336,0.03397
3030.51318,0.03366
3028.45301,0.03334
3026.39284,0.03310
3024.33267,0.03290
3022.27250,0.03264
3020.21232,0.03235
3018.15215,0.03206
3016.09198,0.03189
3014.03181,0.03183
3011.97163,0.03174
3009.91146,0.03159
3007.85129,0.03137
3005.79112,0.03106
3003.73095,0.03079
3001.67077,0.03066
2999.61060,0.03058
2997.55043,0.03036
2995.49026,0.03011
2993.43009,0.03013
2991.36991,0.03030
2989.30974,0.03041
2987.24957,0.03044
2985.18940,0.03054
2983.12923,0.03068
2981.06905,0.03084
2979.00888,0.03119
2976.94871,0.03171
2974.88854,0.03220
2972.82836,0.03263
2970.76819,0.03322
2968.70802,0.03406
2966.64785,0.03511
2964.58768,0.03628
2962.52750,0.03736
2960.46733,0.03844
2958.40716,0.03963
2956.34699,0.04082
2954.28682,0.04195
2952.22664,0.04299
2950.16647,0.04399
2948.10630,0.04527
2946.04613,0.04700
2943.98596,0.04906
2941.92578,0.05130
2939.86561,0.05356
2937.80544,0.05575
2935.74527,0.05808
2933.68509,0.06074
2931.62492,0.06346
2929.56475,0.06583
2927.50458,0.06794
2925.44441,0.07010
2923.38423,0.07229
2921.32406,0.07436
2919.26389,0.07601
2917.20372,0.07639
2915.14355,0.07446
2913.08337,0.07033
2911.02320,0.06576
2908.96303,0.06219
2906.90286,0.05955
2904.84268,0.05743
2902.78251,0.05571
2900.72234,0.05415
2898.66217,0.05261
2896.60200,0.05123
2894.54182,0.05001
2892.48165,0.04884
2890.42148,0.04777
2888.36131,0.04671
2886.30114,0.04548
2884.24096,0.04438
2882.18079,0.04362
2880.12062,0.04307
2878.06045,0.04270
2876.00028,0.04260
2873.94010,0.04272
2871.87993,0.04291
2869.81976,0.04312
2867.75959,0.04356
2865.69941,0.04447
2863.63924,0.04593
2861.57907,0.04775
2859.51890,0.04982
2857.45873,0.05225
2855.39855,0.05507
2853.33838,0.05800
2851.27821,0.06046
2849.21804,0.06092
2847.15787,0.05795
2845.09769,0.05253
2843.03752,0.04701
2840.97735,0.04284
2838.91718,0.04008
2836.85700,0.03808
2834.79683,0.03634
2832.73666,0.03486
2830.67649,0.03383
2828.61632,0.03314
2826.55614,0.03249
2824.49597,0.03179
2822.43580,0.03122
2820.37563,0.03079
2818.31546,0.03028
2816.25528,0.02969
2814.19511,0.02921
2812.13494,0.02898
2810.07477,0.02885
2808.01460,0.02844
2805.95442,0.02797
2803.89425,0.02772
2801.83408,0.02752
2799.77391,0.02731
2797.71373,0.02710
2795.65356,0.02676
2793.59339,0.02642
2791.53322,0.02627
2789.47305,0.02615
2787.41287,0.02598
2785.35270,0.02585
2783.29253,0.02571
2781.23236,0.02548
2779.17219,0.02525
2777.11201,0.02504
2775.05184,0.02489
2772.99167,0.02473
2770.93150,0.02450
2768.87133,0.02437
2766.81115,0.02435
2764.75098,0.02428
2762.69081,0.02416
2760.63064,0.02403
2758.57046,0.02386
2756.51029,0.02375
2754.45012,0.02381
2752.38995,0.02385
2750.32978,0.02375
2748.26960,0.02362
2746.20943,0.02345
2744.14926,0.02334
2742.08909,0.02332
2740.02892,0.02329
2737.96874,0.02332
2735.90857,0.02332
2733.84840,0.02309
2731.78823,0.02285
2729.72805,0.02290
2727.66788,0.02307
2725.60771,0.02306
2723.54754,0.02287
2721.48737,0.02274
2719.42719,0.02265
2717.36702,0.02251
2715.30685,0.02232
2713.24668,0.02209
2711.18651,0.02192
2709.12633,0.02191
2707.06616,0.02189
2705.00599,0.02177
2702.94582,0.02160
2700.88565,0.02149
2698.82547,0.02149
2696.76530,0.02155
2694.70513,0.02161
2692.64496,0.02153
2690.58478,0.02129
2688.52461,0.02113
2686.46444,0.02108
2684.40427,0.02103
2682.34410,0.02099
2680.28392,0.02090
2678.22375,0.02074
2676.16358,0.02062
2674.10341,0.02049
2672.04324,0.02039
2669.98306,0.02037
2667.92289,0.02032
2665.86272,0.02028
2663.80255,0.02025
2661.74238,0.02016
2659.68220,0.02003
2657.62203,0.01990
2655.56186,0.01976
2653.50169,0.01957
2651.44151,0.01939
2649.38134,0.01920
2647.32117,0.01908
2645.26100,0.01910
2643.20083,0.01908
2641.14065,0.01893
2639.08048,0.01872
2637.02031,0.01855
2634.96014,0.01843
2632.89997,0.01829
2630.83979,0.01807
2628.77962,0.01780
2626.71945,0.01770
2624.65928,0.01772
2622.59910,0.01759
2620.53893,0.01740
2618.47876,0.01724
2616.41859,0.01705
2614.35842,0.01681
2612.29824,0.01670
2610.23807,0.01679
2608.17790,0.01683
2606.11773,0.01671
2604.05756,0.01652
2601.99738,0.01637
2599.93721,0.01625
2597.87704,0.01611
2595.81687,0.01589
2593.75670,0.01566
2591.69652,0.01554
2589.63635,0.01548
2587.57618,0.01542
2585.51601,0.01538
2583.45583,0.01527
2581.39566,0.01507
2579.33549,0.01499
2577.27532,0.01505
2575.21515,0.01504
2573.15497,0.01499
2571.09480,0.01482
2569.03463,0.01446
2566.97446,0.01415
2564.91429,0.01411
2562.85411,0.01418
2560.79394,0.01423
2558.73377,0.01434
2556.67360,0.01445
2554.61342,0.01444
2552.55325,0.01422
2550.49308,0.01390
2548.43291,0.01367
2546.37274,0.01345
2544.31256,0.01340
2542.25239,0.01348
2540.19222,0.01347
2538.13205,0.01339
2536.07188,0.01342
2534.01170,0.01340
2531.95153,0.01314
2529.89136,0.01294
2527.83119,0.01286
2525.77102,0.01277
2523.71084,0.01270
2521.65067,0.01269
2519.59050,0.01271
2517.53033,0.01267
2515.47015,0.01254
2513.40998,0.01238
2511.34981,0.01238
2509.28964,0.01257
2507.22947,0.01264
2505.16929,0.01245
2503.10912,0.01229
2501.04895,0.01215
2498.98878,0.01192
2496.92861,0.01178
2494.86843,0.01180
2492.80826,0.01182
2490.74809,0.01177
2488.68792,0.01170
2486.62775,0.01158
2484.56757,0.01152
2482.50740,0.01151
2480.44723,0.01137
2478.38706,0.01128
2476.32688,0.01134
2474.26671,0.01135
2472.20654,0.01124
2470.14637,0.01106
2468.08620,0.01079
2466.02602,0.01070
2463.96585,0.01091
2461.90568,0.01105
2459.84551,0.01106
2457.78534,0.01110
2455.72516,0.01112
2453.66499,0.01097
2451.60482,0.01070
2449.54465,0.01055
2447.48447,0.01060
2445.42430,0.01055
2443.36413,0.01031
2441.30396,0.01014
2439.24379,0.01007
2437.18361,0.01004
2435.12344,0.01003
2433.06327,0.00987
2431.00310,0.00961
2428.94293,0.00945
2426.88275,0.00945
2424.82258,0.00942
2422.76241,0.00931
2420.70224,0.00933
2418.64207,0.00938
2416.58189,0.00925
2414.52172,0.00907
2412.46155,0.00888
2410.40138,0.00875
2408.34120,0.00886
2406.28103,0.00905
2404.22086,0.00909
2402.16069,0.00899
2400.10052,0.00885
2398.04034,0.00863
2395.98017,0.00850
2393.92000,0.00856
2391.85983,0.00870
2389.79966,0.00870
2387.73948,0.00856
2385.67931,0.00832
2383.61914,0.00821
2381.55897,0.00838
2379.49880,0.00849
2377.43862,0.00815
2375.37845,0.00785
2373.31828,0.00744
2371.25811,0.00650
2369.19793,0.00556
2367.13776,0.00484
2365.07759,0.00453
2363.01742,0.00479
2360.95725,0.00297
2358.89707,0.00194
2356.83690,0.00279
2354.77673,0.00468
2352.71656,0.00608
2350.65639,0.00468
2348.59621,0.00379
2346.53604,0.00699
2344.47587,0.00730
2342.41570,0.00558
2340.35552,0.00445
2338.29535,0.00450
2336.23518,0.00516
2334.17501,0.00516
2332.11484,0.00481
2330.05466,0.00463
2327.99449,0.00567
2325.93432,0.00668
2323.87415,0.00763
2321.81398,0.00773
2319.75380,0.00764
2317.69363,0.00699
2315.63346,0.00680
2313.57329,0.00710
2311.51312,0.00743
2309.45294,0.00760
2307.39277,0.00743
2305.33260,0.00700
2303.27243,0.00658
2301.21225,0.00664
2299.15208,0.00693
2297.09191,0.00717
2295.03174,0.00715
2292.97157,0.00685
2290.91139,0.00669
2288.85122,0.00681
2286.79105,0.00698
2284.73088,0.00703
2282.67071,0.00694
2280.61053,0.00671
2278.55036,0.00643
2276.49019,0.00628
2274.43002,0.00632
2272.36984,0.00644
2270.30967,0.00646
2268.24950,0.00635
2266.18933,0.00626
2264.12916,0.00621
2262.06898,0.00615
2260.00881,0.00609
2257.94864,0.00589
2255.88847,0.00559
2253.82830,0.00547
2251.76812,0.00558
2249.70795,0.00572
2247.64778,0.00576
2245.58761,0.00568
2243.52744,0.00549
2241.46726,0.00530
2239.40709,0.00529
2237.34692,0.00521
2235.28675,0.00505
2233.22657,0.00517
2231.16640,0.00547
2229.10623,0.00552
2227.04606,0.00523
2224.98589,0.00499
2222.92571,0.00502
2220.86554,0.00514
2218.80537,0.00512
2216.74520,0.00482
2214.68503,0.00447
2212.62485,0.00435
2210.56468,0.00454
2208.50451,0.00484
2206.44434,0.00494
2204.38417,0.00501
2202.32399,0.00522
2200.26382,0.00564
2198.20365,0.00616
2196.14348,0.00601
2194.08330,0.00499
2192.02313,0.00388
2189.96296,0.00362
2187.90279,0.00404
2185.84262,0.00444
2183.78244,0.00476
2181.72227,0.00454
2179.66210,0.00378
2177.60193,0.00354
2175.54176,0.00410
2173.48158,0.00482
2171.42141,0.00505
2169.36124,0.00448
2167.30107,0.00382
2165.24089,0.00420
2163.18072,0.00478
2161.12055,0.00405
2159.06038,0.00251
2157.00021,0.00117
2154.94003,0.00084
2152.87986,0.00164
2150.81969,0.00284
2148.75952,0.00396
2146.69935,0.00419
2144.63917,0.00387
2142.57900,0.00389
2140.51883,0.00386
2138.45866,0.00344
2136.39849,0.00287
2134.33831,0.00274
2132.27814,0.00301
2130.21797,0.00302
2128.15780,0.00268
2126.09762,0.00261
2124.03745,0.00317
2121.97728,0.00382
2119.91711,0.00417
2117.85694,0.00448
2115.79676,0.00466
2113.73659,0.00449
2111.67642,0.00426
2109.61625,0.00419
2107.55608,0.00443
2105.49590,0.00473
2103.43573,0.00453
2101.37556,0.00420
2099.31539,0.00397
2097.25521,0.00362
2095.19504,0.00352
2093.13487,0.00376
2091.07470,0.00416
2089.01453,0.00458
2086.95435,0.00479
2084.89418,0.00463
2082.83401,0.00409
2080.77384,0.00377
2078.71367,0.00404
2076.65349,0.00440
2074.59332,0.00449
2072.53315,0.00434
2070.47298,0.00401
2068.41281,0.00373
2066.35263,0.00400
2064.29246,0.00465
2062.23229,0.00484
2060.17212,0.00451
2058.11194,0.00401
2056.05177,0.00345
2053.99160,0.00333
2051.93143,0.00395
2049.87126,0.00438
2047.81108,0.00383
2045.75091,0.00285
2043.69074,0.00237
2041.63057,0.00231
2039.57040,0.00200
2037.51022,0.00184
2035.45005,0.00248
2033.38988,0.00294
2031.32971,0.00248
2029.26954,0.00199
2027.20936,0.00228
2025.14919,0.00266
2023.08902,0.00250
2021.02885,0.00255
2018.96867,0.00276
2016.90850,0.00234
2014.84833,0.00196
2012.78816,0.00195
2010.72799,0.00144
2008.66781,0.00063
2006.60764,0.00017
2004.54747,0.00000
2002.48730,0.00046
2000.42713,0.00128
1998.36695,0.00166
1996.30678,0.00182
1994.24661,0.00177
1992.18644,0.00152
1990.12626,0.00179
1988.06609,0.00209
1986.00592,0.00179
1983.94575,0.00172
1981.88558,0.00207
1979.82540,0.00209
1977.76523,0.00160
1975.70506,0.00111
1973.64489,0.00136
1971.58472,0.00201
1969.52454,0.00237
1967.46437,0.00246
1965.40420,0.00203
1963.34403,0.00135
1961.28386,0.00110
1959.22368,0.00138
1957.16351,0.00187
1955.10334,0.00203
1953.04317,0.00194
1950.98299,0.00184
1948.92282,0.00145
1946.86265,0.00080
1944.80248,0.00051
1942.74231,0.00098
1940.68213,0.00170
1938.62196,0.00184
1936.56179,0.00167
1934.50162,0.00199
1932.44145,0.00247
1930.38127,0.00244
1928.32110,0.00199
1926.26093,0.00154
1924.20076,0.00129
1922.14059,0.00123
1920.08041,0.00134
1918.02024,0.00176
1915.96007,0.00225
1913.89990,0.00224
1911.83972,0.00173
1909.77955,0.00125
1907.71938,0.00112
1905.65921,0.00128
1903.59904,0.00147
1901.53886,0.00152
1899.47869,0.00162
1897.41852,0.00183
1895.35835,0.00185
1893.29818,0.00159
1891.23800,0.00129
1889.17783,0.00122
1887.11766,0.00130
1885.05749,0.00117
1882.99731,0.00099
1880.93714,0.00103
1878.87697,0.00112
1876.81680,0.00116
1874.75663,0.00126
1872.69645,0.00134
1870.63628,0.00132
1868.57611,0.00120
1866.51594,0.00105
1864.45577,0.00093
1862.39559,0.00083
1860.33542,0.00070
1858.27525,0.00066
1856.21508,0.00076
1854.15491,0.00076
1852.09473,0.00060
1850.03456,0.00045
1847.97439,0.00037
1845.91422,0.00030
1843.85404,0.00028
1841.79387,0.00045
1839.73370,0.00075
1837.67353,0.00091
1835.61336,0.00090
1833.55318,0.00080
1831.49301,0.00065
1829.43284,0.00060
1827.37267,0.00077
1825.31250,0.00085
1823.25232,0.00061
1821.19215,0.00022
1819.13198,0.00000
1817.07181,-0.00001
1815.01163,0.00008
1812.95146,0.00006
1810.89129,-0.00003
1808.83112,-0.00001
1806.77095,0.00014
1804.71077,0.00031
1802.65060,0.00033
1800.59043,0.00021
1798.53026,0.00012
1796.47009,0.00005
1794.40991,-0.00010
1792.34974,-0.00026
1790.28957,-0.00031
1788.22940,-0.00030
1786.16923,-0.00024
1784.10905,-0.00009
1782.04888,0.00000
1779.98871,-0.00010
1777.92854,-0.00021
1775.86836,-0.00033
1773.80819,-0.00045
1771.74802,-0.00034
1769.68785,0.00016
1767.62768,0.00073
1765.56750,0.00117
1763.50733,0.00163
1761.44716,0.00220
1759.38699,0.00279
1757.32682,0.00348
1755.26664,0.00434
1753.20647,0.00529
1751.14630,0.00658
1749.08613,0.00860
1747.02596,0.01126
1744.96578,0.01427
1742.90561,0.01770
1740.84544,0.02191
1738.78527,0.02657
1736.72509,0.03057
1734.66492,0.03406
1732.60475,0.03710
1730.54458,0.03877
1728.48441,0.03924
1726.42423,0.03912
1724.36406,0.03877
1722.30389,0.03837
1720.24372,0.03795
1718.18355,0.03751
1716.12337,0.03721
1714.06320,0.03710
1712.00303,0.03705
1709.94286,0.03692
1707.88268,0.03653
1705.82251,0.03585
1703.76234,0.03508
1701.70217,0.03413
1699.64200,0.03287
1697.58182,0.03181
1695.52165,0.03109
1693.46148,0.03053
1691.40131,0.02996
1689.34114,0.02934
1687.28096,0.02873
1685.22079,0.02808
1683.16062,0.02755
1681.10045,0.02746
1679.04028,0.02755
1676.98010,0.02761
1674.91993,0.02763
1672.85976,0.02768
1670.79959,0.02785
1668.73941,0.02840
1666.67924,0.02935
1664.61907,0.03033
1662.55890,0.03132
1660.49873,0.03241
1658.43855,0.03357
1656.37838,0.03459
1654.31821,0.03530
1652.25804,0.03579
1650.19787,0.03624
1648.13769,0.03665
1646.07752,0.03709
1644.01735,0.03761
1641.95718,0.03812
1639.89701,0.03858
1637.83683,0.03902
1635.77666,0.03954
1633.71649,0.04031
1631.65632,0.04122
1629.59614,0.04201
1627.53597,0.04256
1625.47580,0.04309
1623.41563,0.04380
1621.35546,0.04460
1619.29528,0.04537
1617.23511,0.04621
1615.17494,0.04717
1613.11477,0.04812
1611.05460,0.04889
1608.99442,0.04942
1606.93425,0.04967
1604.87408,0.04957
1602.81391,0.04906
1600.75373,0.04824
1598.69356,0.04726
1596.63339,0.04602
1594.57322,0.04437
1592.51305,0.04250
1590.45287,0.04065
1588.39270,0.03888
1586.33253,0.03717
1584.27236,0.03545
1582.21219,0.03376
1580.15201,0.03221
1578.09184,0.03061
1576.03167,0.02871
1573.97150,0.02708
1571.91133,0.02595
1569.85115,0.02481
1567.79098,0.02374
1565.73081,0.02311
1563.67064,0.02272
1561.61046,0.02226
1559.55029,0.02147
1557.49012,0.02083
1555.42995,0.02081
1553.36978,0.02108
1551.30960,0.02140
1549.24943,0.02165
1547.18926,0.02170
1545.12909,0.02146
1543.06892,0.02101
1541.00874,0.02069
1538.94857,0.02089
1536.88840,0.02125
1534.82823,0.02115
1532.76805,0.02053
1530.70788,0.01983
1528.64771,0.01918
1526.58754,0.01847
1524.52737,0.01773
1522.46719,0.01703
1520.40702,0.01659
1518.34685,0.01657
1516.28668,0.01668
1514.22651,0.01655
1512.16633,0.01597
1510.10616,0.01478
1508.04599,0.01279
1505.98582,0.01060
1503.92565,0.00954
1501.86547,0.00908
1499.80530,0.00841
1497.74513,0.00733
1495.68496,0.00615
1493.62478,0.00520
1491.56461,0.00427
1489.50444,0.00326
1487.44427,0.00257
1485.38410,0.00241
1483.32392,0.00256
1481.26375,0.00288
1479.20358,0.00345
1477.14341,0.00457
1475.08324,0.00664
1473.02306,0.00965
1470.96289,0.01285
1468.90272,0.01553
1466.84255,0.01801
1464.78238,0.02059
1462.72220,0.02264
1460.66203,0.02378
1458.60186,0.02479
1456.54169,0.02648
1454.48151,0.02829
1452.42134,0.02963
1450.36117,0.03067
1448.30100,0.03169
1446.24083,0.03269
1444.18065,0.03335
1442.12048,0.03353
1440.06031,0.03325
1438.00014,0.03224
1435.93997,0.03047
1433.87979,0.02874
1431.81962,0.02742
1429.75945,0.02623
1427.69928,0.02515
1425.63910,0.02431
1423.57893,0.02378
1421.51876,0.02351
1419.45859,0.02341
1417.39842,0.02351
1415.33824,0.02368
1413.27807,0.02362
1411.21790,0.02330
1409.15773,0.02294
1407.09756,0.02268
1405.03738,0.02251
1402.97721,0.02247
1400.91704,0.02258
1398.85687,0.02279
1396.79670,0.02305
1394.73652,0.02333
1392.67635,0.02378
1390.61618,0.02438
1388.55601,0.02494
1386.49583,0.02545
1384.43566,0.02605
1382.37549,0.02682
1380.31532,0.02772
1378.25515,0.02862
1376.19497,0.02943
1374.13480,0.03018
1372.07463,0.03085
1370.01446,0.03141
1367.95429,0.03188
1365.89411,0.03221
1363.83394,0.03240
1361.77377,0.03264
1359.71360,0.03306
1357.65343,0.03355
1355.59325,0.03398
1353.53308,0.03442
1351.47291,0.03492
1349.41274,0.03541
1347.35256,0.03588
1345.29239,0.03636
1343.23222,0.03688
1341.17205,0.03738
1339.11188,0.03775
1337.05170,0.03803
1334.99153,0.03847
1332.93136,0.03910
1330.87119,0.03979
1328.81102,0.04051
1326.75084,0.04127
1324.69067,0.04203
1322.63050,0.04266
1320.57033,0.04310
1318.51015,0.04338
1316.44998,0.04342
1314.38981,0.04308
1312.32964,0.04243
1310.26947,0.04158
1308.20929,0.04046
1306.14912,0.03899
1304.08895,0.03718
1302.02878,0.03512
1299.96861,0.03302
1297.90843,0.03096
1295.84826,0.02903
1293.78809,0.02739
1291.72792,0.02608
1289.66775,0.02500
1287.60757,0.02411
1285.54740,0.02341
1283.48723,0.02295
1281.42706,0.02266
1279.36688,0.02242
1277.30671,0.02223
1275.24654,0.02233
1273.18637,0.02273
1271.12620,0.02324
1269.06602,0.02377
1267.00585,0.02442
1264.94568,0.02514
1262.88551,0.02579
1260.82534,0.02634
1258.76516,0.02693
1256.70499,0.02760
1254.64482,0.02830
1252.58465,0.02900
1250.52447,0.02975
1248.46430,0.03048
1246.40413,0.03114
1244.34396,0.03190
1242.28379,0.03276
1240.22361,0.03356
1238.16344,0.03434
1236.10327,0.03512
1234.04310,0.03594
1231.98293,0.03685
1229.92275,0.03777
1227.86258,0.03870
1225.80241,0.03969
1223.74224,0.04074
1221.68207,0.04174
1219.62189,0.04259
1217.56172,0.04345
1215.50155,0.04451
1213.44138,0.04566
1211.38120,0.04666
1209.32103,0.04759
1207.26086,0.04870
1205.20069,0.04994
1203.14052,0.05111
1201.08034,0.05220
1199.02017,0.05309
1196.96000,0.05364
1194.89983,0.05387
1192.83966,0.05390
1190.77948,0.05359
1188.71931,0.05282
1186.65914,0.05182
1184.59897,0.05089
1182.53880,0.05009
1180.47862,0.04940
1178.41845,0.04876
1176.35828,0.04810
1174.29811,0.04750
1172.23793,0.04717
1170.17776,0.04703
1168.11759,0.04676
1166.05742,0.04624
1163.99725,0.04546
1161.93707,0.04443
1159.87690,0.04333
1157.81673,0.04225
1155.75656,0.04117
1153.69639,0.04020
1151.63621,0.03943
1149.57604,0.03876
1147.51587,0.03811
1145.45570,0.03735
1143.39552,0.03634
1141.33535,0.03520
1139.27518,0.03416
1137.21501,0.03324
1135.15484,0.03249
1133.09466,0.03201
1131.03449,0.03190
1128.97432,0.03220
1126.91415,0.03290
1124.85398,0.03399
1122.79380,0.03532
1120.73363,0.03681
1118.67346,0.03856
1116.61329,0.04074
1114.55312,0.04332
1112.49294,0.04618
1110.43277,0.04924
1108.37260,0.05226
1106.31243,0.05504
1104.25225,0.05759
1102.19208,0.05977
1100.13191,0.06144
1098.07174,0.06278
1096.01157,0.06396
1093.95139,0.06518
1091.89122,0.06657
1089.83105,0.06809
1087.77088,0.06991
1085.71071,0.07199
1083.65053,0.07399
1081.59036,0.07596
1079.53019,0.07811
1077.47002,0.08024
1075.40985,0.08206
1073.34967,0.08358
1071.28950,0.08498
1069.22933,0.08631
1067.16916,0.08757
1065.10898,0.08897
1063.04881,0.09035
1060.98864,0.09153
1058.92847,0.09273
1056.86830,0.09415
1054.80812,0.09573
1052.74795,0.09736
1050.68778,0.09884
1048.62761,0.10010
1046.56744,0.10142
1044.50726,0.10312
1042.44709,0.10506
1040.38692,0.10699
1038.32675,0.10896
1036.26657,0.11090
1034.20640,0.11280
1032.14623,0.11461
1030.08606,0.11606
1028.02589,0.11704
1025.96571,0.11762
1023.90554,0.11780
1021.84537,0.11756
1019.78520,0.11711
1017.72503,0.11667
1015.66485,0.11627
1013.60468,0.11566
1011.54451,0.11463
1009.48434,0.11316
1007.42417,0.11139
1005.36399,0.10941
1003.30382,0.10724
1001.24365,0.10490
999.18348,0.10238
997.12330,0.09969
995.06313,0.09706
993.00296,0.09464
990.94279,0.09231
988.88262,0.08976
986.82244,0.08668
984.76227,0.08316
982.70210,0.07964
980.64193,0.07643
978.58176,0.07345
976.52158,0.07041
974.46141,0.06729
972.40124,0.06438
970.34107,0.06181
968.28089,0.05966
966.22072,0.05805
964.16055,0.05672
962.10038,0.05503
960.04021,0.05280
957.98003,0.05044
955.91986,0.04816
953.85969,0.04589
951.79952,0.04358
949.73935,0.04126
947.67917,0.03901
945.61900,0.03684
943.55883,0.03477
941.49866,0.03297
939.43849,0.03152
937.37831,0.03032
935.31814,0.02938
933.25797,0.02860
931.19780,0.02789
929.13762,0.02738
927.07745,0.02683
925.01728,0.02589
922.95711,0.02474
920.89694,0.02364
918.83676,0.02245
916.77659,0.02100
914.71642,0.01954
912.65625,0.01823
910.59608,0.01682
908.53590,0.01543
906.47573,0.01418
904.41556,0.01298
902.35539,0.01213
900.29522,0.01189
898.23504,0.01200
896.17487,0.01219
894.11470,0.01233
892.05453,0.01208
889.99435,0.01137
887.93418,0.01069
885.87401,0.01021
883.81384,0.00987
881.75367,0.00976
879.69349,0.00997
877.63332,0.01041
875.57315,0.01087
873.51298,0.01125
871.45281,0.01145
869.39263,0.01132
867.33246,0.01076
865.27229,0.00968
863.21212,0.00831
861.15194,0.00681
859.09177,0.00517
857.03160,0.00366
854.97143,0.00253
852.91126,0.00167
850.85108,0.00091
848.79091,0.00027
846.73074,0.00000
844.67057,0.00001
842.61040,0.00013
840.55022,0.00043
838.49005,0.00101
836.42988,0.00160
834.36971,0.00211
832.30954,0.00259
830.24936,0.00276
828.18919,0.00271
826.12902,0.00289
824.06885,0.00323
822.00867,0.00346
819.94850,0.00368
817.88833,0.00395
815.82816,0.00407
813.76799,0.00389
811.70781,0.00351
809.64764,0.00319
807.58747,0.00301
805.52730,0.00269
803.46713,0.00195
801.40695,0.00087
799.34678,0.00000
797.28661,-0.00057
795.22644,-0.00067
793.16627,-0.00075
791.10609,-0.00069
789.04592,-0.00016
786.98575,0.00059
784.92558,0.00147
782.86540,0.00272
780.80523,0.00381
778.74506,0.00407
776.68489,0.00372
774.62472,0.00388
772.56454,0.00509
770.50437,0.00649
768.44420,0.00752
766.38403,0.00863
764.32386,0.01032
762.26368,0.01232
760.20351,0.01406
758.14334,0.01515
756.08317,0.01546
754.02299,0.01519
751.96282,0.01450
749.90265,0.01326
747.84248,0.01154
745.78231,0.00991
743.72213,0.00856
741.66196,0.00753
739.60179,0.00698
737.54162,0.00645
735.48145,0.00587
733.42127,0.00556
731.36110,0.00549
729.30093,0.00579
727.24076,0.00619
725.18059,0.00602
723.12041,0.00543
721.06024,0.00536
719.00007,0.00497
716.93990,0.00452
714.87972,0.00422
712.81955,0.00383
710.75938,0.00344
708.69921,0.00341
706.63904,0.00390
704.57886,0.00441
702.51869,0.00458
700.45852,0.00449
698.39835,0.00409
696.33818,0.00355
694.27800,0.00318
692.21783,0.00272
690.15766,0.00185
688.09749,0.00079
686.03731,0.00000
683.97714,-0.00041
681.91697,-0.00039
679.85680,0.00021
677.79663,0.00119
675.73645,0.00164
673.67628,0.00043
671.61611,-0.00157
669.55594,0.00185
667.49577,0.00637
665.43559,0.00143
663.37542,0.00168
661.31525,0.00203
659.25508,0.00111
657.19491,0.00034
655.13473,-0.00039
653.07456,-0.00092
651.01439,-0.00067
648.95422,0.00000
646.89404,-0.00007
644.83387,0.00013
642.77370,0.00109
640.71353,0.00228
638.65336,0.00265
636.59318,0.00214
634.53301,0.00143
632.47284,0.00048
630.41267,-0.00038
628.35250,-0.00038
626.29232,-0.00013
624.23215,-0.00009
622.17198,0.00054
620.11181,0.00061
618.05164,0.00012
615.99146,-0.00007
613.93129,-0.00073
611.87112,-0.00100
609.81095,0.00016
607.75077,0.00135
605.69060,0.00188
603.63043,0.00225
601.57026,0.00149
599.51009,0.00000
