3996.73391,0.00062
3994.67373,0.00053
3992.61356,0.00036
3990.55339,0.00038
3988.49322,0.00063
3986.43305,0.00071
3984.37287,0.00056
3982.31270,0.00041
3980.25253,0.00028
3978.19236,0.00009
3976.13219,0.00000
3974.07201,0.00019
3972.01184,0.00049
3969.95167,0.00059
3967.89150,0.00053
3965.83133,0.00048
3963.77115,0.00051
3961.71098,0.00052
3959.65081,0.00049
3957.59064,0.00051
3955.53046,0.00058
3953.47029,0.00061
3951.41012,0.00057
3949.34995,0.00044
3947.28978,0.00031
3945.22960,0.00028
3943.16943,0.00025
3941.10926,0.00015
3939.04909,0.00014
3936.98892,0.00037
3934.92874,0.00055
3932.86857,0.00050
3930.80840,0.00046
3928.74823,0.00052
3926.68805,0.00049
3924.62788,0.00041
3922.56771,0.00053
3920.50754,0.00081
3918.44737,0.00092
3916.38719,0.00075
3914.32702,0.00046
3912.26685,0.00029
3910.20668,0.00034
3908.14651,0.00047
3906.08633,0.00046
3904.02616,0.00037
3901.96599,0.00042
3899.90582,0.00071
3897.84565,0.00100
3895.78547,0.00109
3893.72530,0.00106
3891.66513,0.00096
3889.60496,0.00089
3887.54478,0.00101
3885.48461,0.00118
3883.42444,0.00116
3881.36427,0.00110
3879.30410,0.00103
3877.24392,0.00080
3875.18375,0.00052
3873.12358,0.00051
3871.06341,0.00083
3869.00324,0.00105
3866.94306,0.00103
3864.88289,0.00102
3862.82272,0.00098
3860.76255,0.00093
3858.70237,0.00108
3856.64220,0.00132
3854.58203,0.00129
3852.52186,0.00106
3850.46169,0.00097
3848.40151,0.00087
3846.34134,0.00064
3844.28117,0.00051
3842.22100,0.00060
3840.16083,0.00068
3838.10065,0.00051
3836.04048,0.00026
3833.98031,0.00024
3831.92014,0.00038
3829.85997,0.00047
3827.79979,0.00067
3825.73962,0.00104
3823.67945,0.00123
3821.61928,0.00102
3819.55910,0.00077
3817.49893,0.00080
3815.43876,0.00093
3813.37859,0.00108
3811.31842,0.00123
3809.25824,0.00126
3807.19807,0.00109
3805.13790,0.00085
3803.07773,0.00065
3801.01756,0.00048
3798.95738,0.00046
3796.89721,0.00061
3794.83704,0.00074
3792.77687,0.00071
3790.71670,0.00063
3788.65652,0.00068
3786.59635,0.00079
3784.53618,0.00077
3782.47601,0.00054
3780.41583,0.00035
3778.35566,0.00044
3776.29549,0.00058
3774.23532,0.00065
3772.17515,0.00088
3770.11497,0.00118
3768.05480,0.00122
3765.99463,0.00100
3763.93446,0.00083
3761.87429,0.00086
3759.81411,0.00102
3757.75394,0.00117
3755.69377,0.00119
3753.63360,0.00093
3751.57342,0.00037
3749.51325,0.00000
3747.45308,0.00017
3745.39291,0.00048
3743.33274,0.00058
3741.27256,0.00059
3739.21239,0.00071
3737.15222,0.00081
3735.09205,0.00069
3733.03188,0.00044
3730.97170,0.00033
3728.91153,0.00032
3726.85136,0.00039
3724.79119,0.00057
3722.73102,0.00081
3720.67084,0.00108
3718.61067,0.00128
3716.55050,0.00113
3714.49033,0.00067
3712.43015,0.00027
3710.36998,0.00009
3708.30981,0.00019
3706.24964,0.00033
3704.18947,0.00048
3702.12929,0.00068
3700.06912,0.00099
3698.00895,0.00138
3695.94878,0.00149
3693.88861,0.00129
3691.82843,0.00113
3689.76826,0.00117
3687.70809,0.00118
3685.64792,0.00110
3683.58775,0.00114
3681.52757,0.00132
3679.46740,0.00139
3677.40723,0.00122
3675.34706,0.00103
3673.28688,0.00103
3671.22671,0.00104
3669.16654,0.00111
3667.10637,0.00140
3665.04620,0.00175
3662.98602,0.00202
3660.92585,0.00209
3658.86568,0.00198
3656.80551,0.00199
3654.74534,0.00228
3652.68516,0.00269
3650.62499,0.00303
3648.56482,0.00303
3646.50465,0.00290
3644.44447,0.00304
3642.38430,0.00326
3640.32413,0.00353
3638.26396,0.00413
3636.20379,0.00486
3634.14361,0.00520
3632.08344,0.00516
3630.02327,0.00527
3627.96310,0.00559
3625.90293,0.00577
3623.84275,0.00586
3621.78258,0.00596
3619.72241,0.00603
3617.66224,0.00618
3615.60207,0.00663
3613.54189,0.00719
3611.48172,0.00757
3609.42155,0.00781
3607.36138,0.00824
3605.30120,0.00885
3603.24103,0.00925
3601.18086,0.00938
3599.12069,0.00960
3597.06052,0.01005
3595.00034,0.01038
3592.94017,0.01059
3590.88000,0.01100
3588.81983,0.01153
3586.75966,0.01178
3584.69948,0.01188
3582.63931,0.01219
3580.57914,0.01268
3578.51897,0.01316
3576.45879,0.01352
3574.39862,0.01386
3572.33845,0.01426
3570.27828,0.01472
3568.21811,0.01516
3566.15793,0.01563
3564.09776,0.01633
3562.03759,0.01718
3559.97742,0.01788
3557.91725,0.01838
3555.85707,0.01882
3553.79690,0.01919
3551.73673,0.01944
3549.67656,0.01966
3547.61639,0.01993
3545.55621,0.02033
3543.49604,0.02094
3541.43587,0.02168
3539.37570,0.02239
3537.31552,0.02299
3535.25535,0.02348
3533.19518,0.02388
3531.13501,0.02432
3529.07484,0.02478
3527.01466,0.02511
3524.95449,0.02541
3522.89432,0.02585
3520.83415,0.02642
3518.77398,0.02701
3516.71380,0.02756
3514.65363,0.02810
3512.59346,0.02864
3510.53329,0.02915
3508.47312,0.02960
3506.41294,0.03000
3504.35277,0.03029
3502.29260,0.03057
3500.23243,0.03104
3498.17225,0.03166
3496.11208,0.03228
3494.05191,0.03291
3491.99174,0.03352
3489.93157,0.03401
3487.87139,0.03448
3485.81122,0.03503
3483.75105,0.03551
3481.69088,0.03585
3479.63071,0.03621
3477.57053,0.03660
3475.51036,0.03706
3473.45019,0.03771
3471.39002,0.03839
3469.32984,0.03892
3467.26967,0.03925
3465.20950,0.03956
3463.14933,0.04008
3461.08916,0.04075
3459.02898,0.04124
3456.96881,0.04152
3454.90864,0.04187
3452.84847,0.04239
3450.78830,0.04298
3448.72812,0.04349
3446.66795,0.04381
3444.60778,0.04407
3442.54761,0.04446
3440.48744,0.04500
3438.42726,0.04552
3436.36709,0.04594
3434.30692,0.04653
3432.24675,0.04725
3430.18657,0.04779
3428.12640,0.04808
3426.06623,0.04824
3424.00606,0.04845
3421.94589,0.04868
3419.88571,0.04892
3417.82554,0.04955
3415.76537,0.05041
3413.70520,0.05098
3411.64503,0.05125
3409.58485,0.05139
3407.52468,0.05160
3405.46451,0.05190
3403.40434,0.05238
3401.34416,0.05301
3399.28399,0.05349
3397.22382,0.05374
3395.16365,0.05397
3393.10348,0.05431
3391.04330,0.05460
3388.98313,0.05472
3386.92296,0.05493
3384.86279,0.05531
3382.80262,0.05563
3380.74244,0.05592
3378.68227,0.05642
3376.62210,0.05693
3374.56193,0.05720
3372.50176,0.05730
3370.44158,0.05740
3368.38141,0.05763
3366.32124,0.05801
3364.26107,0.05837
3362.20089,0.05857
3360.14072,0.05869
3358.08055,0.05888
3356.02038,0.05908
3353.96021,0.05919
3351.90003,0.05938
3349.83986,0.05977
3347.77969,0.06018
3345.71952,0.06040
3343.65935,0.06051
3341.59917,0.06057
3339.53900,0.06062
3337.47883,0.06079
3335.41866,0.06113
3333.35849,0.06147
3331.29831,0.06162
3329.23814,0.06171
3327.17797,0.06186
3325.11780,0.06198
3323.05762,0.06203
3320.99745,0.06202
3318.93728,0.06194
3316.87711,0.06187
3314.81694,0.06188
3312.75676,0.06205
3310.69659,0.06240
3308.63642,0.06264
3306.57625,0.06264
3304.51608,0.06254
3302.45590,0.06244
3300.39573,0.06251
3298.33556,0.06282
3296.27539,0.06317
3294.21521,0.06331
3292.15504,0.06340
3290.09487,0.06361
3288.03470,0.06370
3285.97453,0.06359
3283.91435,0.06347
3281.85418,0.06341
3279.79401,0.06352
3277.73384,0.06379
3275.67367,0.06390
3273.61349,0.06369
3271.55332,0.06346
3269.49315,0.06354
3267.43298,0.06367
3265.37281,0.06356
3263.31263,0.06331
3261.25246,0.06309
3259.19229,0.06308
3257.13212,0.06322
3255.07194,0.06311
3253.01177,0.06277
3250.95160,0.06257
3248.89143,0.06245
3246.83126,0.06218
3244.77108,0.06186
3242.71091,0.06174
3240.65074,0.06179
3238.59057,0.06175
3236.53040,0.06155
3234.47022,0.06130
3232.41005,0.06103
3230.34988,0.06085
3228.28971,0.06089
3226.22954,0.06107
3224.16936,0.06106
3222.10919,0.06072
3220.04902,0.06033
3217.98885,0.06011
3215.92867,0.05992
3213.86850,0.05969
3211.80833,0.05952
3209.74816,0.05928
3207.68799,0.05894
3205.62781,0.05871
3203.56764,0.05862
3201.50747,0.05846
3199.44730,0.05815
3197.38713,0.05792
3195.32695,0.05793
3193.26678,0.05800
3191.20661,0.05782
3189.14644,0.05741
3187.08626,0.05702
3185.02609,0.05686
3182.96592,0.05684
3180.90575,0.05669
3178.84558,0.05633
3176.78540,0.05595
3174.72523,0.05566
3172.66506,0.05538
3170.60489,0.05510
3168.54472,0.05478
3166.48454,0.05443
3164.42437,0.05433
3162.36420,0.05437
3160.30403,0.05414
3158.24386,0.05359
3156.18368,0.05298
3154.12351,0.05255
3152.06334,0.05228
3150.00317,0.05201
3147.94299,0.05162
3145.88282,0.05121
3143.82265,0.05093
3141.76248,0.05083
3139.70231,0.05070
3137.64213,0.05041
3135.58196,0.05013
3133.52179,0.04996
3131.46162,0.04977
3129.40145,0.04932
3127.34127,0.04873
3125.28110,0.04826
3123.22093,0.04799
3121.16076,0.04794
3119.10058,0.04789
3117.04041,0.04763
3114.98024,0.04739
3112.92007,0.04717
3110.85990,0.04679
3108.79972,0.04643
3106.73955,0.04615
3104.67938,0.04584
3102.61921,0.04554
3100.55904,0.04524
3098.49886,0.04486
3096.43869,0.04457
3094.37852,0.04448
3092.31835,0.04439
3090.25818,0.04411
3088.19800,0.04380
3086.13783,0.04359
3084.07766,0.04346
3082.01749,0.04331
3079.95731,0.04312
3077.89714,0.04291
3075.83697,0.04268
3073.77680,0.04230
3071.71663,0.04180
3069.65645,0.04142
3067.59628,0.04117
3065.53611,0.04087
3063.47594,0.04050
3061.41577,0.04021
3059.35559,0.04007
3057.29542,0.03990
3055.23525,0.03955
3053.17508,0.03921
3051.11491,0.03891
3049.05473,0.03863
3046.99456,0.03842
3044.93439,0.03825
3042.87422,0.03803
3040.81404,0.03767
3038.75387,0.03722
3036.69370,0.03684
3034.63353,0.03654
3032.57336,0.03612
3030.51318,0.03566
3028.45301,0.03537
3026.39284,0.03523
3024.33267,0.03499
3022.27250,0.03469
3020.21232,0.03455
3018.15215,0.03448
3016.09198,0.03428
3014.03181,0.03396
3011.97163,0.03359
3009.91146,0.03325
3007.85129,0.03294
3005.79112,0.03267
3003.73095,0.03262
3001.67077,0.03272
2999.61060,0.03264
2997.55043,0.03229
2995.49026,0.03205
2993.43009,0.03209
2991.36991,0.03212
2989.30974,0.03211
2987.24957,0.03224
2985.18940,0.03248
2983.12923,0.03274
2981.06905,0.03299
2979.00888,0.03330
2976.94871,0.03370
2974.88854,0.03421
2972.82836,0.03483
2970.76819,0.03565
2968.70802,0.03664
2966.64785,0.03776
2964.58768,0.03895
2962.52750,0.04007
2960.46733,0.04127
2958.40716,0.04262
2956.34699,0.04390
2954.28682,0.04513
2952.22664,0.04643
2950.16647,0.04777
2948.10630,0.04922
2946.04613,0.05095
2943.98596,0.05305
2941.92578,0.05537
2939.86561,0.05775
2937.80544,0.06025
2935.74527,0.06295
2933.68509,0.06581
2931.62492,0.06857
2929.56475,0.07110
2927.50458,0.07346
2925.44441,0.07568
2923.38423,0.07781
2921.32406,0.07988
2919.26389,0.08165
2917.20372,0.08209
2915.14355,0.08005
2913.08337,0.07581
2911.02320,0.07105
2908.96303,0.06718
2906.90286,0.06422
2904.84268,0.06170
2902.78251,0.05967
2900.72234,0.05807
2898.66217,0.05665
2896.60200,0.05529
2894.54182,0.05384
2892.48165,0.05239
2890.42148,0.05117
2888.36131,0.05004
2886.30114,0.04887
2884.24096,0.04788
2882.18079,0.04714
2880.12062,0.04651
2878.06045,0.04600
2876.00028,0.04586
2873.94010,0.04606
2871.87993,0.04629
2869.81976,0.04656
2867.75959,0.04703
2865.69941,0.04790
2863.63924,0.04945
2861.57907,0.05152
2859.51890,0.05376
2857.45873,0.05627
2855.39855,0.05906
2853.33838,0.06200
2851.27821,0.06454
2849.21804,0.06504
2847.15787,0.06194
2845.09769,0.05621
2843.03752,0.05042
2840.97735,0.04609
2838.91718,0.04306
2836.85700,0.04073
2834.79683,0.03890
2832.73666,0.03738
2830.67649,0.03606
2828.61632,0.03501
2826.55614,0.03424
2824.49597,0.03366
2822.43580,0.03316
2820.37563,0.03270
2818.31546,0.03230
2816.25528,0.03198
2814.19511,0.03161
2812.13494,0.03130
2810.07477,0.03109
2808.01460,0.03065
2805.95442,0.03009
2803.89425,0.02973
2801.83408,0.02943
2799.77391,0.02916
2797.71373,0.02897
2795.65356,0.02873
2793.59339,0.02845
2791.53322,0.02822
2789.47305,0.02800
2787.41287,0.02778
2785.35270,0.02760
2783.29253,0.02732
2781.23236,0.02695
2779.17219,0.02673
2777.11201,0.02662
2775.05184,0.02647
2772.99167,0.02629
2770.93150,0.02617
2768.87133,0.02615
2766.81115,0.02610
2764.75098,0.02593
2762.69081,0.02576
2760.63064,0.02567
2758.57046,0.02558
2756.51029,0.02547
2754.45012,0.02544
2752.38995,0.02537
2750.32978,0.02526
2748.26960,0.02521
2746.20943,0.02515
2744.14926,0.02499
2742.08909,0.02486
2740.02892,0.02477
2737.96874,0.02468
2735.90857,0.02460
2733.84840,0.02451
2731.78823,0.02446
2729.72805,0.02445
2727.66788,0.02448
2725.60771,0.02449
2723.54754,0.02438
2721.48737,0.02423
2719.42719,0.02409
2717.36702,0.02389
2715.30685,0.02367
2713.24668,0.02345
2711.18651,0.02331
2709.12633,0.02323
2707.06616,0.02313
2705.00599,0.02309
2702.94582,0.02310
2700.88565,0.02307
2698.82547,0.02303
2696.76530,0.02298
2694.70513,0.02293
2692.64496,0.02284
2690.58478,0.02268
2688.52461,0.02256
2686.46444,0.02247
2684.40427,0.02239
2682.34410,0.02228
2680.28392,0.02214
2678.22375,0.02199
2676.16358,0.02190
2674.10341,0.02178
2672.04324,0.02159
2669.98306,0.02143
2667.92289,0.02131
2665.86272,0.02128
2663.80255,0.02129
2661.74238,0.02119
2659.68220,0.02105
2657.62203,0.02092
2655.56186,0.02081
2653.50169,0.02076
2651.44151,0.02066
2649.38134,0.02040
2647.32117,0.02016
2645.26100,0.02002
2643.20083,0.01991
2641.14065,0.01985
2639.08048,0.01976
2637.02031,0.01960
2634.96014,0.01935
2632.89997,0.01909
2630.83979,0.01886
2628.77962,0.01864
2626.71945,0.01848
2624.65928,0.01847
2622.59910,0.01845
2620.53893,0.01832
2618.47876,0.01814
2616.41859,0.01796
2614.35842,0.01769
2612.29824,0.01747
2610.23807,0.01750
2608.17790,0.01762
2606.11773,0.01765
2604.05756,0.01757
2601.99738,0.01738
2599.93721,0.01715
2597.87704,0.01702
2595.81687,0.01702
2593.75670,0.01694
2591.69652,0.01672
2589.63635,0.01657
2587.57618,0.01659
2585.51601,0.01663
2583.45583,0.01646
2581.39566,0.01611
2579.33549,0.01585
2577.27532,0.01576
2575.21515,0.01572
2573.15497,0.01567
2571.09480,0.01555
2569.03463,0.01538
2566.97446,0.01523
2564.91429,0.01512
2562.85411,0.01509
2560.79394,0.01502
2558.73377,0.01505
2556.67360,0.01516
2554.61342,0.01504
2552.55325,0.01478
2550.49308,0.01452
2548.43291,0.01427
2546.37274,0.01424
2544.31256,0.01439
2542.25239,0.01421
2540.19222,0.01375
2538.13205,0.01349
2536.07188,0.01361
2534.01170,0.01383
2531.95153,0.01398
2529.89136,0.01395
2527.83119,0.01378
2525.77102,0.01376
2523.71084,0.01374
2521.65067,0.01358
2519.59050,0.01347
2517.53033,0.01342
2515.47015,0.01338
2513.40998,0.01328
2511.34981,0.01320
2509.28964,0.01320
2507.22947,0.01306
2505.16929,0.01264
2503.10912,0.01234
2501.04895,0.01238
2498.98878,0.01242
2496.92861,0.01229
2494.86843,0.01211
2492.80826,0.01194
2490.74809,0.01189
2488.68792,0.01208
2486.62775,0.01235
2484.56757,0.01241
2482.50740,0.01215
2480.44723,0.01178
2478.38706,0.01182
2476.32688,0.01216
2474.26671,0.01217
2472.20654,0.01186
2470.14637,0.01157
2468.08620,0.01129
2466.02602,0.01114
2463.96585,0.01135
2461.90568,0.01155
2459.84551,0.01146
2457.78534,0.01138
2455.72516,0.01142
2453.66499,0.01123
2451.60482,0.01087
2449.54465,0.01073
2447.48447,0.01081
2445.42430,0.01075
2443.36413,0.01063
2441.30396,0.01065
2439.24379,0.01063
2437.18361,0.01050
2435.12344,0.01038
2433.06327,0.01027
2431.00310,0.01026
2428.94293,0.01030
2426.88275,0.01024
2424.82258,0.00998
2422.76241,0.00971
2420.70224,0.00961
2418.64207,0.00961
2416.58189,0.00969
2414.52172,0.00975
2412.46155,0.00949
2410.40138,0.00902
2408.34120,0.00891
2406.28103,0.00911
2404.22086,0.00924
2402.16069,0.00922
2400.10052,0.00915
2398.04034,0.00911
2395.98017,0.00903
2393.92000,0.00898
2391.85983,0.00896
2389.79966,0.00888
2387.73948,0.00876
2385.67931,0.00873
2383.61914,0.00886
2381.55897,0.00911
2379.49880,0.00925
2377.43862,0.00911
2375.37845,0.00898
2373.31828,0.00873
2371.25811,0.00798
2369.19793,0.00710
2367.13776,0.00621
2365.07759,0.00534
2363.01742,0.00535
2360.95725,0.00548
2358.89707,0.00633
2356.83690,0.00749
2354.77673,0.00845
2352.71656,0.00884
2350.65639,0.00774
2348.59621,0.00690
2346.53604,0.00815
2344.47587,0.00834
2342.41570,0.00773
2340.35552,0.00729
2338.29535,0.00734
2336.23518,0.00758
2334.17501,0.00730
2332.11484,0.00694
2330.05466,0.00699
2327.99449,0.00824
2325.93432,0.00970
2323.87415,0.01031
2321.81398,0.00964
2319.75380,0.00883
2317.69363,0.00812
2315.63346,0.00786
2313.57329,0.00801
2311.51312,0.00825
2309.45294,0.00817
2307.39277,0.00764
2305.33260,0.00721
2303.27243,0.00726
2301.21225,0.00755
2299.15208,0.00757
2297.09191,0.00735
2295.03174,0.00718
2292.97157,0.00725
2290.91139,0.00742
2288.85122,0.00741
2286.79105,0.00719
2284.73088,0.00688
2282.67071,0.00669
2280.61053,0.00673
2278.55036,0.00674
2276.49019,0.00663
2274.43002,0.00652
2272.36984,0.00644
2270.30967,0.00630
2268.24950,0.00622
2266.18933,0.00637
2264.12916,0.00656
2262.06898,0.00651
2260.00881,0.00625
2257.94864,0.00605
2255.88847,0.00594
2253.82830,0.00570
2251.76812,0.00546
2249.70795,0.00536
2247.64778,0.00517
2245.58761,0.00485
2243.52744,0.00476
2241.46726,0.00492
2239.40709,0.00500
2237.34692,0.00499
2235.28675,0.00519
2233.22657,0.00545
2231.16640,0.00533
2229.10623,0.00471
2227.04606,0.00421
2224.98589,0.00421
2222.92571,0.00431
2220.86554,0.00459
2218.80537,0.00488
2216.74520,0.00480
2214.68503,0.00481
2212.62485,0.00495
2210.56468,0.00442
2208.50451,0.00361
2206.44434,0.00363
2204.38417,0.00413
2202.32399,0.00443
2200.26382,0.00473
2198.20365,0.00503
2196.14348,0.00500
2194.08330,0.00438
2192.02313,0.00337
2189.96296,0.00304
2187.90279,0.00342
2185.84262,0.00346
2183.78244,0.00324
2181.72227,0.00286
2179.66210,0.00213
2177.60193,0.00182
2175.54176,0.00264
2173.48158,0.00406
2171.42141,0.00494
2169.36124,0.00459
2167.30107,0.00370
2165.24089,0.00332
2163.18072,0.00262
2161.12055,0.00129
2159.06038,0.00088
2157.00021,0.00116
2154.94003,0.00141
2152.87986,0.00201
2150.81969,0.00274
2148.75952,0.00323
2146.69935,0.00343
2144.63917,0.00363
2142.57900,0.00389
2140.51883,0.00393
2138.45866,0.00353
2136.39849,0.00272
2134.33831,0.00247
2132.27814,0.00298
2130.21797,0.00330
2128.15780,0.00333
2126.09762,0.00318
2124.03745,0.00321
2121.97728,0.00390
2119.91711,0.00458
2117.85694,0.00470
2115.79676,0.00441
2113.73659,0.00400
2111.67642,0.00390
2109.61625,0.00415
2107.55608,0.00426
2105.49590,0.00411
2103.43573,0.00392
2101.37556,0.00388
2099.31539,0.00388
2097.25521,0.00371
2095.19504,0.00354
2093.13487,0.00350
2091.07470,0.00367
2089.01453,0.00393
2086.95435,0.00395
2084.89418,0.00380
2082.83401,0.00367
2080.77384,0.00365
2078.71367,0.00385
2076.65349,0.00418
2074.59332,0.00423
2072.53315,0.00410
2070.47298,0.00387
2068.41281,0.00330
2066.35263,0.00302
2064.29246,0.00332
2062.23229,0.00337
2060.17212,0.00296
2058.11194,0.00244
2056.05177,0.00174
2053.99160,0.00139
2051.93143,0.00210
2049.87126,0.00299
2047.81108,0.00277
2045.75091,0.00189
2043.69074,0.00153
2041.63057,0.00162
2039.57040,0.00155
2037.51022,0.00182
2035.45005,0.00272
2033.38988,0.00292
2031.32971,0.00221
2029.26954,0.00183
2027.20936,0.00185
2025.14919,0.00188
2023.08902,0.00161
2021.02885,0.00078
2018.96867,0.00007
2016.90850,0.00000
2014.84833,0.00045
2012.78816,0.00130
2010.72799,0.00188
2008.66781,0.00150
2006.60764,0.00065
2004.54747,0.00008
2002.48730,0.00014
2000.42713,0.00074
1998.36695,0.00096
1996.30678,0.00067
1994.24661,0.00052
1992.18644,0.00073
1990.12626,0.00150
1988.06609,0.00241
1986.00592,0.00243
1983.94575,0.00186
1981.88558,0.00167
1979.82540,0.00147
1977.76523,0.00078
1975.70506,0.00036
1973.64489,0.00027
1971.58472,0.00004
1969.52454,0.00028
1967.46437,0.00091
1965.40420,0.00081
1963.34403,0.00028
1961.28386,0.00000
1959.22368,0.00003
1957.16351,0.00038
1955.10334,0.00085
1953.04317,0.00140
1950.98299,0.00189
1948.92282,0.00199
1946.86265,0.00162
1944.80248,0.00110
1942.74231,0.00106
1940.68213,0.00174
1938.62196,0.00226
1936.56179,0.00216
1934.50162,0.00193
1932.44145,0.00172
1930.38127,0.00135
1928.32110,0.00091
1926.26093,0.00066
1924.20076,0.00074
1922.14059,0.00099
1920.08041,0.00113
1918.02024,0.00125
1915.96007,0.00156
1913.89990,0.00167
1911.83972,0.00141
1909.77955,0.00124
1907.71938,0.00137
1905.65921,0.00141
1903.59904,0.00116
1901.53886,0.00094
1899.47869,0.00098
1897.41852,0.00109
1895.35835,0.00104
1893.29818,0.00086
1891.23800,0.00075
1889.17783,0.00086
1887.11766,0.00100
1885.05749,0.00095
1882.99731,0.00092
1880.93714,0.00102
1878.87697,0.00108
1876.81680,0.00113
1874.75663,0.00125
1872.69645,0.00130
1870.63628,0.00120
1868.57611,0.00093
1866.51594,0.00067
1864.45577,0.00072
1862.39559,0.00094
1860.33542,0.00092
1858.27525,0.00063
1856.21508,0.00047
1854.15491,0.00053
1852.09473,0.00054
1850.03456,0.00034
1847.97439,0.00019
1845.91422,0.00032
1843.85404,0.00056
1841.79387,0.00068
1839.73370,0.00074
1837.67353,0.00075
1835.61336,0.00064
1833.55318,0.00046
1831.49301,0.00028
1829.43284,0.00019
1827.37267,0.00020
1825.31250,0.00022
1823.25232,0.00021
1821.19215,0.00012
1819.13198,0.00002
1817.07181,0.00000
1815.01163,0.00001
1812.95146,-0.00002
1810.89129,-0.00010
1808.83112,-0.00010
1806.77095,0.00007
1804.71077,0.00037
1802.65060,0.00049
1800.59043,0.00031
1798.53026,0.00012
1796.47009,0.00005
1794.40991,0.00001
1792.34974,-0.00007
1790.28957,-0.00013
1788.22940,-0.00017
1786.16923,-0.00017
1784.10905,-0.00009
1782.04888,0.00000
1779.98871,-0.00006
1777.92854,-0.00005
1775.86836,-0.00001
1773.80819,-0.00003
1771.74802,-0.00002
1769.68785,0.00024
1767.62768,0.00069
1765.56750,0.00118
1763.50733,0.00176
1761.44716,0.00252
1759.38699,0.00338
1757.32682,0.00438
1755.26664,0.00557
1753.20647,0.00671
1751.14630,0.00806
1749.08613,0.01016
1747.02596,0.01294
1744.96578,0.01617
1742.90561,0.02006
1740.84544,0.02478
1738.78527,0.02983
1736.72509,0.03420
1734.66492,0.03790
1732.60475,0.04089
1730.54458,0.04253
1728.48441,0.04306
1726.42423,0.04291
1724.36406,0.04240
1722.30389,0.04183
1720.24372,0.04135
1718.18355,0.04082
1716.12337,0.04023
1714.06320,0.03980
1712.00303,0.03953
1709.94286,0.03927
1707.88268,0.03878
1705.82251,0.03795
1703.76234,0.03708
1701.70217,0.03612
1699.64200,0.03468
1697.58182,0.03336
1695.52165,0.03264
1693.46148,0.03219
1691.40131,0.03172
1689.34114,0.03121
1687.28096,0.03077
1685.22079,0.03029
1683.16062,0.02980
1681.10045,0.02971
1679.04028,0.02995
1676.98010,0.03035
1674.91993,0.03082
1672.85976,0.03122
1670.79959,0.03158
1668.73941,0.03217
1666.67924,0.03314
1664.61907,0.03436
1662.55890,0.03571
1660.49873,0.03716
1658.43855,0.03862
1656.37838,0.03986
1654.31821,0.04065
1652.25804,0.04113
1650.19787,0.04170
1648.13769,0.04219
1646.07752,0.04249
1644.01735,0.04284
1641.95718,0.04334
1639.89701,0.04391
1637.83683,0.04441
1635.77666,0.04480
1633.71649,0.04534
1631.65632,0.04613
1629.59614,0.04691
1627.53597,0.04747
1625.47580,0.04797
1623.41563,0.04862
1621.35546,0.04953
1619.29528,0.05054
1617.23511,0.05144
1615.17494,0.05230
1613.11477,0.05328
1611.05460,0.05428
1608.99442,0.05506
1606.93425,0.05549
1604.87408,0.05551
1602.81391,0.05503
1600.75373,0.05415
1598.69356,0.05302
1596.63339,0.05159
1594.57322,0.04979
1592.51305,0.04782
1590.45287,0.04584
1588.39270,0.04387
1586.33253,0.04191
1584.27236,0.03994
1582.21219,0.03798
1580.15201,0.03615
1578.09184,0.03427
1576.03167,0.03213
1573.97150,0.03041
1571.91133,0.02931
1569.85115,0.02810
1567.79098,0.02688
1565.73081,0.02620
1563.67064,0.02596
1561.61046,0.02572
1559.55029,0.02495
1557.49012,0.02398
1555.42995,0.02378
1553.36978,0.02407
1551.30960,0.02441
1549.24943,0.02456
1547.18926,0.02451
1545.12909,0.02435
1543.06892,0.02404
1541.00874,0.02357
1538.94857,0.02323
1536.88840,0.02318
1534.82823,0.02299
1532.76805,0.02241
1530.70788,0.02178
1528.64771,0.02119
1526.58754,0.02047
1524.52737,0.01971
1522.46719,0.01920
1520.40702,0.01918
1518.34685,0.01957
1516.28668,0.01996
1514.22651,0.02000
1512.16633,0.01956
1510.10616,0.01859
1508.04599,0.01667
1505.98582,0.01415
1503.92565,0.01270
1501.86547,0.01205
1499.80530,0.01123
1497.74513,0.00996
1495.68496,0.00856
1493.62478,0.00745
1491.56461,0.00641
1489.50444,0.00525
1487.44427,0.00441
1485.38410,0.00407
1483.32392,0.00405
1481.26375,0.00428
1479.20358,0.00492
1477.14341,0.00621
1475.08324,0.00845
1473.02306,0.01167
1470.96289,0.01509
1468.90272,0.01795
1466.84255,0.02062
1464.78238,0.02334
1462.72220,0.02547
1460.66203,0.02669
1458.60186,0.02776
1456.54169,0.02936
1454.48151,0.03104
1452.42134,0.03239
1450.36117,0.03356
1448.30100,0.03460
1446.24083,0.03547
1444.18065,0.03612
1442.12048,0.03644
1440.06031,0.03631
1438.00014,0.03536
1435.93997,0.03356
1433.87979,0.03179
1431.81962,0.03048
1429.75945,0.02933
1427.69928,0.02834
1425.63910,0.02761
1423.57893,0.02709
1421.51876,0.02670
1419.45859,0.02641
1417.39842,0.02638
1415.33824,0.02652
1413.27807,0.02642
1411.21790,0.02608
1409.15773,0.02575
1407.09756,0.02550
1405.03738,0.02536
1402.97721,0.02536
1400.91704,0.02546
1398.85687,0.02559
1396.79670,0.02573
1394.73652,0.02588
1392.67635,0.02630
1390.61618,0.02707
1388.55601,0.02788
1386.49583,0.02857
1384.43566,0.02930
1382.37549,0.03021
1380.31532,0.03128
1378.25515,0.03238
1376.19497,0.03339
1374.13480,0.03424
1372.07463,0.03494
1370.01446,0.03556
1367.95429,0.03609
1365.89411,0.03643
1363.83394,0.03653
1361.77377,0.03658
1359.71360,0.03683
1357.65343,0.03719
1355.59325,0.03755
1353.53308,0.03794
1351.47291,0.03838
1349.41274,0.03876
1347.35256,0.03905
1345.29239,0.03938
1343.23222,0.03983
1341.17205,0.04031
1339.11188,0.04070
1337.05170,0.04103
1334.99153,0.04153
1332.93136,0.04227
1330.87119,0.04307
1328.81102,0.04389
1326.75084,0.04473
1324.69067,0.04553
1322.63050,0.04617
1320.57033,0.04659
1318.51015,0.04675
1316.44998,0.04669
1314.38981,0.04640
1312.32964,0.04583
1310.26947,0.04498
1308.20929,0.04386
1306.14912,0.04241
1304.08895,0.04058
1302.02878,0.03846
1299.96861,0.03630
1297.90843,0.03427
1295.84826,0.03241
1293.78809,0.03086
1291.72792,0.02968
1289.66775,0.02875
1287.60757,0.02797
1285.54740,0.02734
1283.48723,0.02691
1281.42706,0.02667
1279.36688,0.02660
1277.30671,0.02665
1275.24654,0.02686
1273.18637,0.02726
1271.12620,0.02786
1269.06602,0.02856
1267.00585,0.02928
1264.94568,0.03009
1262.88551,0.03091
1260.82534,0.03156
1258.76516,0.03211
1256.70499,0.03276
1254.64482,0.03348
1252.58465,0.03416
1250.52447,0.03486
1248.46430,0.03560
1246.40413,0.03632
1244.34396,0.03704
1242.28379,0.03774
1240.22361,0.03835
1238.16344,0.03896
1236.10327,0.03963
1234.04310,0.04041
1231.98293,0.04123
1229.92275,0.04202
1227.86258,0.04281
1225.80241,0.04364
1223.74224,0.04454
1221.68207,0.04546
1219.62189,0.04623
1217.56172,0.04680
1215.50155,0.04738
1213.44138,0.04811
1211.38120,0.04892
1209.32103,0.04975
1207.26086,0.05067
1205.20069,0.05167
1203.14052,0.05259
1201.08034,0.05340
1199.02017,0.05408
1196.96000,0.05446
1194.89983,0.05449
1192.83966,0.05421
1190.77948,0.05366
1188.71931,0.05291
1186.65914,0.05208
1184.59897,0.05121
1182.53880,0.05036
1180.47862,0.04968
1178.41845,0.04923
1176.35828,0.04890
1174.29811,0.04865
1172.23793,0.04863
1170.17776,0.04888
1168.11759,0.04907
1166.05742,0.04880
1163.99725,0.04813
1161.93707,0.04732
1159.87690,0.04652
1157.81673,0.04564
1155.75656,0.04464
1153.69639,0.04376
1151.63621,0.04302
1149.57604,0.04217
1147.51587,0.04114
1145.45570,0.03993
1143.39552,0.03859
1141.33535,0.03717
1139.27518,0.03585
1137.21501,0.03480
1135.15484,0.03396
1133.09466,0.03330
1131.03449,0.03315
1128.97432,0.03361
1126.91415,0.03441
1124.85398,0.03550
1122.79380,0.03695
1120.73363,0.03873
1118.67346,0.04083
1116.61329,0.04326
1114.55312,0.04595
1112.49294,0.04884
1110.43277,0.05200
1108.37260,0.05538
1106.31243,0.05857
1104.25225,0.06122
1102.19208,0.06333
1100.13191,0.06499
1098.07174,0.06631
1096.01157,0.06751
1093.95139,0.06889
1091.89122,0.07041
1089.83105,0.07206
1087.77088,0.07395
1085.71071,0.07609
1083.65053,0.07834
1081.59036,0.08069
1079.53019,0.08309
1077.47002,0.08530
1075.40985,0.08722
1073.34967,0.08889
1071.28950,0.09045
1069.22933,0.09186
1067.16916,0.09309
1065.10898,0.09444
1063.04881,0.09590
1060.98864,0.09719
1058.92847,0.09847
1056.86830,0.09998
1054.80812,0.10163
1052.74795,0.10345
1050.68778,0.10534
1048.62761,0.10698
1046.56744,0.10842
1044.50726,0.11005
1042.44709,0.11194
1040.38692,0.11391
1038.32675,0.11593
1036.26657,0.11799
1034.20640,0.12009
1032.14623,0.12222
1030.08606,0.12410
1028.02589,0.12529
1025.96571,0.12586
1023.90554,0.12622
1021.84537,0.12642
1019.78520,0.12647
1017.72503,0.12639
1015.66485,0.12601
1013.60468,0.12502
1011.54451,0.12347
1009.48434,0.12168
1007.42417,0.11971
1005.36399,0.11733
1003.30382,0.11437
1001.24365,0.11104
999.18348,0.10767
997.12330,0.10443
995.06313,0.10123
993.00296,0.09809
990.94279,0.09517
988.88262,0.09231
986.82244,0.08911
984.76227,0.08544
982.70210,0.08156
980.64193,0.07798
978.58176,0.07485
976.52158,0.07170
974.46141,0.06842
972.40124,0.06543
970.34107,0.06266
968.28089,0.06013
966.22072,0.05820
964.16055,0.05671
962.10038,0.05509
960.04021,0.05297
957.98003,0.05054
955.91986,0.04804
953.85969,0.04552
951.79952,0.04301
949.73935,0.04045
947.67917,0.03786
945.61900,0.03534
943.55883,0.03305
941.49866,0.03118
939.43849,0.02980
937.37831,0.02886
935.31814,0.02814
933.25797,0.02751
931.19780,0.02687
929.13762,0.02604
927.07745,0.02498
925.01728,0.02388
922.95711,0.02291
920.89694,0.02192
918.83676,0.02072
916.77659,0.01927
914.71642,0.01775
912.65625,0.01634
910.59608,0.01490
908.53590,0.01341
906.47573,0.01191
904.41556,0.01071
902.35539,0.01021
900.29522,0.01038
898.23504,0.01075
896.17487,0.01091
894.11470,0.01080
892.05453,0.01049
889.99435,0.01000
887.93418,0.00939
885.87401,0.00881
883.81384,0.00857
881.75367,0.00864
879.69349,0.00880
877.63332,0.00914
875.57315,0.00965
873.51298,0.01014
871.45281,0.01035
869.39263,0.01016
867.33246,0.00953
865.27229,0.00844
863.21212,0.00725
861.15194,0.00613
859.09177,0.00483
857.03160,0.00343
854.97143,0.00232
852.91126,0.00145
850.85108,0.00058
848.79091,0.00000
846.73074,-0.00011
844.67057,-0.00007
842.61040,0.00010
840.55022,0.00062
838.49005,0.00136
836.42988,0.00195
834.36971,0.00245
832.30954,0.00296
830.24936,0.00310
828.18919,0.00298
826.12902,0.00325
824.06885,0.00390
822.00867,0.00443
819.94850,0.00455
817.88833,0.00466
815.82816,0.00496
813.76799,0.00495
811.70781,0.00449
809.64764,0.00412
807.58747,0.00391
805.52730,0.00322
803.46713,0.00196
801.40695,0.00073
799.34678,0.00000
797.28661,-0.00062
795.22644,-0.00082
793.16627,-0.00093
791.10609,-0.00082
789.04592,-0.00022
786.98575,0.00044
784.92558,0.00104
782.86540,0.00204
780.80523,0.00314
778.74506,0.00373
776.68489,0.00405
774.62472,0.00436
772.56454,0.00470
770.50437,0.00550
768.44420,0.00674
766.38403,0.00807
764.32386,0.00961
762.26368,0.01120
760.20351,0.01252
758.14334,0.01346
756.08317,0.01368
754.02299,0.01310
751.96282,0.01202
749.90265,0.01046
747.84248,0.00876
745.78231,0.00754
743.72213,0.00670
741.66196,0.00572
739.60179,0.00494
737.54162,0.00469
735.48145,0.00462
733.42127,0.00487
731.36110,0.00530
729.30093,0.00539
727.24076,0.00549
725.18059,0.00571
723.12041,0.00551
721.06024,0.00521
719.00007,0.00456
716.93990,0.00395
714.87972,0.00354
712.81955,0.00326
710.75938,0.00313
708.69921,0.00298
706.63904,0.00290
704.57886,0.00315
702.51869,0.00325
700.45852,0.00280
698.39835,0.00228
696.33818,0.00189
694.27800,0.00121
692.21783,0.00033
690.15766,-0.00016
688.09749,-0.00016
686.03731,-0.00037
683.97714,-0.00122
681.91697,-0.00198
679.85680,-0.00172
677.79663,-0.00072
675.73645,0.00013
673.67628,0.00001
671.61611,-0.00066
669.55594,0.00143
667.49577,0.00369
665.43559,0.00076
663.37542,0.00051
661.31525,0.00106
659.25508,0.00132
657.19491,0.00099
655.13473,-0.00037
653.07456,-0.00166
651.01439,-0.00141
648.95422,0.00000
646.89404,0.00092
644.83387,0.00128
642.77370,0.00154
640.71353,0.00231
638.65336,0.00325
636.59318,0.00367
634.53301,0.00364
632.47284,0.00293
630.41267,0.00118
628.35250,-0.00029
626.29232,0.00023
624.23215,0.00171
622.17198,0.00282
620.11181,0.00296
618.05164,0.00330
615.99146,0.00499
613.93129,0.00535
611.87112,0.00403
609.81095,0.00405
607.75077,0.00546
605.69060,0.00518
603.63043,0.00272
601.57026,0.00052
599.51009,0.00000
