3996.73391,0.00078
3994.67373,0.00071
3992.61356,0.00050
3990.55339,0.00034
3988.49322,0.00025
3986.43305,0.00017
3984.37287,0.00013
3982.31270,0.00019
3980.25253,0.00032
3978.19236,0.00040
3976.13219,0.00043
3974.07201,0.00045
3972.01184,0.00051
3969.95167,0.00056
3967.89150,0.00039
3965.83133,0.00007
3963.77115,0.00000
3961.71098,0.00019
3959.65081,0.00028
3957.59064,0.00021
3955.53046,0.00026
3953.47029,0.00048
3951.41012,0.00063
3949.34995,0.00058
3947.28978,0.00041
3945.22960,0.00034
3943.16943,0.00039
3941.10926,0.00042
3939.04909,0.00033
3936.98892,0.00014
3934.92874,0.00000
3932.86857,0.00011
3930.80840,0.00042
3928.74823,0.00068
3926.68805,0.00074
3924.62788,0.00060
3922.56771,0.00047
3920.50754,0.00051
3918.44737,0.00060
3916.38719,0.00054
3914.32702,0.00041
3912.26685,0.00036
3910.20668,0.00051
3908.14651,0.00076
3906.08633,0.00082
3904.02616,0.00063
3901.96599,0.00059
3899.90582,0.00071
3897.84565,0.00072
3895.78547,0.00066
3893.72530,0.00055
3891.66513,0.00038
3889.60496,0.00034
3887.54478,0.00049
3885.48461,0.00075
3883.42444,0.00095
3881.36427,0.00087
3879.30410,0.00062
3877.24392,0.00046
3875.18375,0.00032
3873.12358,0.00013
3871.06341,0.00004
3869.00324,0.00019
3866.94306,0.00051
3864.88289,0.00077
3862.82272,0.00072
3860.76255,0.00047
3858.70237,0.00047
3856.64220,0.00087
3854.58203,0.00141
3852.52186,0.00160
3850.46169,0.00133
3848.40151,0.00098
3846.34134,0.00084
3844.28117,0.00094
3842.22100,0.00107
3840.16083,0.00111
3838.10065,0.00101
3836.04048,0.00074
3833.98031,0.00050
3831.92014,0.00043
3829.85997,0.00045
3827.79979,0.00052
3825.73962,0.00058
3823.67945,0.00043
3821.61928,0.00018
3819.55910,0.00025
3817.49893,0.00059
3815.43876,0.00077
3813.37859,0.00069
3811.31842,0.00052
3809.25824,0.00033
3807.19807,0.00011
3805.13790,0.00000
3803.07773,0.00002
3801.01756,0.00026
3798.95738,0.00058
3796.89721,0.00072
3794.83704,0.00080
3792.77687,0.00101
3790.71670,0.00119
3788.65652,0.00112
3786.59635,0.00089
3784.53618,0.00069
3782.47601,0.00068
3780.41583,0.00087
3778.35566,0.00098
3776.29549,0.00085
3774.23532,0.00064
3772.17515,0.00050
3770.11497,0.00042
3768.05480,0.00039
3765.99463,0.00051
3763.93446,0.00074
3761.87429,0.00089
3759.81411,0.00098
3757.75394,0.00090
3755.69377,0.00061
3753.63360,0.00057
3751.57342,0.00107
3749.51325,0.00148
3747.45308,0.00139
3745.39291,0.00113
3743.33274,0.00097
3741.27256,0.00093
3739.21239,0.00087
3737.15222,0.00083
3735.09205,0.00097
3733.03188,0.00100
3730.97170,0.00061
3728.91153,0.00014
3726.85136,0.00000
3724.79119,0.00015
3722.73102,0.00045
3720.67084,0.00076
3718.61067,0.00087
3716.55050,0.00079
3714.49033,0.00071
3712.43015,0.00083
3710.36998,0.00096
3708.30981,0.00080
3706.24964,0.00056
3704.18947,0.00043
3702.12929,0.00026
3700.06912,0.00002
3698.00895,0.00005
3695.94878,0.00034
3693.88861,0.00051
3691.82843,0.00046
3689.76826,0.00027
3687.70809,0.00007
3685.64792,0.00011
3683.58775,0.00030
3681.52757,0.00042
3679.46740,0.00038
3677.40723,0.00033
3675.34706,0.00061
3673.28688,0.00115
3671.22671,0.00139
3669.16654,0.00122
3667.10637,0.00092
3665.04620,0.00075
3662.98602,0.00080
3660.92585,0.00107
3658.86568,0.00126
3656.80551,0.00121
3654.74534,0.00119
3652.68516,0.00136
3650.62499,0.00155
3648.56482,0.00168
3646.50465,0.00185
3644.44447,0.00213
3642.38430,0.00242
3640.32413,0.00264
3638.26396,0.00282
3636.20379,0.00312
3634.14361,0.00359
3632.08344,0.00403
3630.02327,0.00420
3627.96310,0.00418
3625.90293,0.00432
3623.84275,0.00467
3621.78258,0.00500
3619.72241,0.00522
3617.66224,0.00535
3615.60207,0.00552
3613.54189,0.00585
3611.48172,0.00619
3609.42155,0.00637
3607.36138,0.00654
3605.30120,0.00684
3603.24103,0.00714
3601.18086,0.00726
3599.12069,0.00732
3597.06052,0.00758
3595.00034,0.00789
3592.94017,0.00807
3590.88000,0.00829
3588.81983,0.00870
3586.75966,0.00918
3584.69948,0.00959
3582.63931,0.01002
3580.57914,0.01050
3578.51897,0.01082
3576.45879,0.01101
3574.39862,0.01135
3572.33845,0.01190
3570.27828,0.01248
3568.21811,0.01294
3566.15793,0.01324
3564.09776,0.01346
3562.03759,0.01360
3559.97742,0.01378
3557.91725,0.01411
3555.85707,0.01457
3553.79690,0.01505
3551.73673,0.01553
3549.67656,0.01599
3547.61639,0.01639
3545.55621,0.01684
3543.49604,0.01727
3541.43587,0.01755
3539.37570,0.01781
3537.31552,0.01816
3535.25535,0.01854
3533.19518,0.01896
3531.13501,0.01949
3529.07484,0.02009
3527.01466,0.02065
3524.95449,0.02109
3522.89432,0.02134
3520.83415,0.02147
3518.77398,0.02186
3516.71380,0.02261
3514.65363,0.02335
3512.59346,0.02373
3510.53329,0.02393
3508.47312,0.02431
3506.41294,0.02484
3504.35277,0.02527
3502.29260,0.02558
3500.23243,0.02588
3498.17225,0.02621
3496.11208,0.02660
3494.05191,0.02702
3491.99174,0.02737
3489.93157,0.02769
3487.87139,0.02819
3485.81122,0.02886
3483.75105,0.02948
3481.69088,0.02993
3479.63071,0.03035
3477.57053,0.03078
3475.51036,0.03107
3473.45019,0.03120
3471.39002,0.03141
3469.32984,0.03193
3467.26967,0.03259
3465.20950,0.03313
3463.14933,0.03351
3461.08916,0.03375
3459.02898,0.03396
3456.96881,0.03420
3454.90864,0.03444
3452.84847,0.03464
3450.78830,0.03503
3448.72812,0.03581
3446.66795,0.03655
3444.60778,0.03684
3442.54761,0.03712
3440.48744,0.03769
3438.42726,0.03814
3436.36709,0.03840
3434.30692,0.03873
3432.24675,0.03903
3430.18657,0.03932
3428.12640,0.03977
3426.06623,0.04019
3424.00606,0.04052
3421.94589,0.04087
3419.88571,0.04118
3417.82554,0.04130
3415.76537,0.04143
3413.70520,0.04176
3411.64503,0.04217
3409.58485,0.04252
3407.52468,0.04286
3405.46451,0.04340
3403.40434,0.04397
3401.34416,0.04430
3399.28399,0.04446
3397.22382,0.04462
3395.16365,0.04482
3393.10348,0.04510
3391.04330,0.04539
3388.98313,0.04567
3386.92296,0.04594
3384.86279,0.04613
3382.80262,0.04625
3380.74244,0.04636
3378.68227,0.04667
3376.62210,0.04710
3374.56193,0.04740
3372.50176,0.04761
3370.44158,0.04789
3368.38141,0.04820
3366.32124,0.04842
3364.26107,0.04856
3362.20089,0.04870
3360.14072,0.04891
3358.08055,0.04926
3356.02038,0.04954
3353.96021,0.04966
3351.90003,0.04987
3349.83986,0.05018
3347.77969,0.05037
3345.71952,0.05048
3343.65935,0.05062
3341.59917,0.05068
3339.53900,0.05063
3337.47883,0.05070
3335.41866,0.05099
3333.35849,0.05129
3331.29831,0.05140
3329.23814,0.05141
3327.17797,0.05151
3325.11780,0.05179
3323.05762,0.05199
3320.99745,0.05192
3318.93728,0.05181
3316.87711,0.05182
3314.81694,0.05183
3312.75676,0.05189
3310.69659,0.05221
3308.63642,0.05270
3306.57625,0.05298
3304.51608,0.05287
3302.45590,0.05268
3300.39573,0.05271
3298.33556,0.05286
3296.27539,0.05293
3294.21521,0.05291
3292.15504,0.05293
3290.09487,0.05314
3288.03470,0.05329
3285.97453,0.05307
3283.91435,0.05282
3281.85418,0.05305
3279.79401,0.05353
3277.73384,0.05371
3275.67367,0.05346
3273.61349,0.05308
3271.55332,0.05280
3269.49315,0.05275
3267.43298,0.05288
3265.37281,0.05284
3263.31263,0.05257
3261.25246,0.05242
3259.19229,0.05249
3257.13212,0.05267
3255.07194,0.05277
3253.01177,0.05267
3250.95160,0.05251
3248.89143,0.05233
3246.83126,0.05209
3244.77108,0.05181
3242.71091,0.05164
3240.65074,0.05156
3238.59057,0.05155
3236.53040,0.05169
3234.47022,0.05171
3232.41005,0.05137
3230.34988,0.05099
3228.28971,0.05079
3226.22954,0.05071
3224.16936,0.05074
3222.10919,0.05082
3220.04902,0.05085
3217.98885,0.05083
3215.92867,0.05084
3213.86850,0.05073
3211.80833,0.05036
3209.74816,0.04989
3207.68799,0.04947
3205.62781,0.04924
3203.56764,0.04922
3201.50747,0.04932
3199.44730,0.04937
3197.38713,0.04927
3195.32695,0.04904
3193.26678,0.04873
3191.20661,0.04846
3189.14644,0.04836
3187.08626,0.04826
3185.02609,0.04801
3182.96592,0.04776
3180.90575,0.04758
3178.84558,0.04739
3176.78540,0.04708
3174.72523,0.04665
3172.66506,0.04640
3170.60489,0.04643
3168.54472,0.04632
3166.48454,0.04597
3164.42437,0.04566
3162.36420,0.04542
3160.30403,0.04517
3158.24386,0.04494
3156.18368,0.04484
3154.12351,0.04486
3152.06334,0.04479
3150.00317,0.04444
3147.94299,0.04409
3145.88282,0.04395
3143.82265,0.04373
3141.76248,0.04329
3139.70231,0.04291
3137.64213,0.04267
3135.58196,0.04249
3133.52179,0.04235
3131.46162,0.04211
3129.40145,0.04164
3127.34127,0.04128
3125.28110,0.04129
3123.22093,0.04136
3121.16076,0.04112
3119.10058,0.04072
3117.04041,0.04048
3114.98024,0.04035
3112.92007,0.04022
3110.85990,0.04011
3108.79972,0.03995
3106.73955,0.03961
3104.67938,0.03916
3102.61921,0.03883
3100.55904,0.03873
3098.49886,0.03872
3096.43869,0.03855
3094.37852,0.03820
3092.31835,0.03784
3090.25818,0.03753
3088.19800,0.03730
3086.13783,0.03722
3084.07766,0.03726
3082.01749,0.03710
3079.95731,0.03664
3077.89714,0.03627
3075.83697,0.03623
3073.77680,0.03623
3071.71663,0.03608
3069.65645,0.03590
3067.59628,0.03581
3065.53611,0.03561
3063.47594,0.03518
3061.41577,0.03476
3059.35559,0.03455
3057.29542,0.03444
3055.23525,0.03433
3053.17508,0.03418
3051.11491,0.03399
3049.05473,0.03363
3046.99456,0.03310
3044.93439,0.03273
3042.87422,0.03262
3040.81404,0.03249
3038.75387,0.03234
3036.69370,0.03221
3034.63353,0.03199
3032.57336,0.03168
3030.51318,0.03130
3028.45301,0.03090
3026.39284,0.03062
3024.33267,0.03040
3022.27250,0.03013
3020.21232,0.02987
3018.15215,0.02971
3016.09198,0.02964
3014.03181,0.02959
3011.97163,0.02944
3009.91146,0.02919
3007.85129,0.02891
3005.79112,0.02861
3003.73095,0.02837
3001.67077,0.02821
2999.61060,0.02809
2997.55043,0.02807
2995.49026,0.02816
2993.43009,0.02835
2991.36991,0.02841
2989.30974,0.02820
2987.24957,0.02810
2985.18940,0.02829
2983.12923,0.02843
2981.06905,0.02860
2979.00888,0.02899
2976.94871,0.02942
2974.88854,0.02983
2972.82836,0.03028
2970.76819,0.03082
2968.70802,0.03152
2966.64785,0.03236
2964.58768,0.03335
2962.52750,0.03438
2960.46733,0.03536
2958.40716,0.03632
2956.34699,0.03731
2954.28682,0.03839
2952.22664,0.03946
2950.16647,0.04050
2948.10630,0.04174
2946.04613,0.04327
2943.98596,0.04497
2941.92578,0.04674
2939.86561,0.04865
2937.80544,0.05086
2935.74527,0.05338
2933.68509,0.05591
2931.62492,0.05812
2929.56475,0.06002
2927.50458,0.06198
2925.44441,0.06405
2923.38423,0.06617
2921.32406,0.06834
2919.26389,0.07009
2917.20372,0.07064
2915.14355,0.06911
2913.08337,0.06541
2911.02320,0.06112
2908.96303,0.05777
2906.90286,0.05538
2904.84268,0.05346
2902.78251,0.05183
2900.72234,0.05042
2898.66217,0.04924
2896.60200,0.04818
2894.54182,0.04704
2892.48165,0.04586
2890.42148,0.04476
2888.36131,0.04365
2886.30114,0.04257
2884.24096,0.04162
2882.18079,0.04081
2880.12062,0.04017
2878.06045,0.03974
2876.00028,0.03955
2873.94010,0.03968
2871.87993,0.04012
2869.81976,0.04062
2867.75959,0.04102
2865.69941,0.04162
2863.63924,0.04275
2861.57907,0.04439
2859.51890,0.04637
2857.45873,0.04854
2855.39855,0.05088
2853.33838,0.05357
2851.27821,0.05626
2849.21804,0.05719
2847.15787,0.05465
2845.09769,0.04952
2843.03752,0.04430
2840.97735,0.04037
2838.91718,0.03775
2836.85700,0.03596
2834.79683,0.03459
2832.73666,0.03341
2830.67649,0.03238
2828.61632,0.03150
2826.55614,0.03071
2824.49597,0.03011
2822.43580,0.02977
2820.37563,0.02948
2818.31546,0.02905
2816.25528,0.02853
2814.19511,0.02806
2812.13494,0.02771
2810.07477,0.02736
2808.01460,0.02704
2805.95442,0.02681
2803.89425,0.02659
2801.83408,0.02633
2799.77391,0.02612
2797.71373,0.02597
2795.65356,0.02585
2793.59339,0.02570
2791.53322,0.02551
2789.47305,0.02524
2787.41287,0.02489
2785.35270,0.02459
2783.29253,0.02443
2781.23236,0.02433
2779.17219,0.02427
2777.11201,0.02423
2775.05184,0.02413
2772.99167,0.02388
2770.93150,0.02363
2768.87133,0.02353
2766.81115,0.02346
2764.75098,0.02336
2762.69081,0.02325
2760.63064,0.02316
2758.57046,0.02309
2756.51029,0.02300
2754.45012,0.02288
2752.38995,0.02271
2750.32978,0.02259
2748.26960,0.02260
2746.20943,0.02260
2744.14926,0.02252
2742.08909,0.02244
2740.02892,0.02245
2737.96874,0.02242
2735.90857,0.02226
2733.84840,0.02213
2731.78823,0.02217
2729.72805,0.02225
2727.66788,0.02228
2725.60771,0.02226
2723.54754,0.02217
2721.48737,0.02200
2719.42719,0.02181
2717.36702,0.02166
2715.30685,0.02161
2713.24668,0.02160
2711.18651,0.02154
2709.12633,0.02153
2707.06616,0.02153
2705.00599,0.02143
2702.94582,0.02131
2700.88565,0.02125
2698.82547,0.02117
2696.76530,0.02106
2694.70513,0.02093
2692.64496,0.02079
2690.58478,0.02064
2688.52461,0.02053
2686.46444,0.02050
2684.40427,0.02052
2682.34410,0.02051
2680.28392,0.02041
2678.22375,0.02023
2676.16358,0.02006
2674.10341,0.01996
2672.04324,0.01990
2669.98306,0.01981
2667.92289,0.01967
2665.86272,0.01963
2663.80255,0.01973
2661.74238,0.01972
2659.68220,0.01954
2657.62203,0.01935
2655.56186,0.01922
2653.50169,0.01912
2651.44151,0.01905
2649.38134,0.01891
2647.32117,0.01864
2645.26100,0.01834
2643.20083,0.01820
2641.14065,0.01832
2639.08048,0.01848
2637.02031,0.01833
2634.96014,0.01799
2632.89997,0.01786
2630.83979,0.01794
2628.77962,0.01794
2626.71945,0.01780
2624.65928,0.01760
2622.59910,0.01748
2620.53893,0.01741
2618.47876,0.01723
2616.41859,0.01712
2614.35842,0.01718
2612.29824,0.01714
2610.23807,0.01692
2608.17790,0.01670
2606.11773,0.01656
2604.05756,0.01657
2601.99738,0.01665
2599.93721,0.01654
2597.87704,0.01634
2595.81687,0.01622
2593.75670,0.01611
2591.69652,0.01591
2589.63635,0.01577
2587.57618,0.01564
2585.51601,0.01546
2583.45583,0.01534
2581.39566,0.01531
2579.33549,0.01525
2577.27532,0.01510
2575.21515,0.01496
2573.15497,0.01488
2571.09480,0.01483
2569.03463,0.01482
2566.97446,0.01478
2564.91429,0.01474
2562.85411,0.01470
2560.79394,0.01457
2558.73377,0.01434
2556.67360,0.01422
2554.61342,0.01425
2552.55325,0.01424
2550.49308,0.01413
2548.43291,0.01387
2546.37274,0.01365
2544.31256,0.01366
2542.25239,0.01373
2540.19222,0.01366
2538.13205,0.01352
2536.07188,0.01336
2534.01170,0.01304
2531.95153,0.01276
2529.89136,0.01284
2527.83119,0.01301
2525.77102,0.01293
2523.71084,0.01280
2521.65067,0.01277
2519.59050,0.01268
2517.53033,0.01256
2515.47015,0.01248
2513.40998,0.01243
2511.34981,0.01249
2509.28964,0.01240
2507.22947,0.01211
2505.16929,0.01208
2503.10912,0.01214
2501.04895,0.01200
2498.98878,0.01200
2496.92861,0.01217
2494.86843,0.01230
2492.80826,0.01232
2490.74809,0.01221
2488.68792,0.01195
2486.62775,0.01159
2484.56757,0.01146
2482.50740,0.01161
2480.44723,0.01162
2478.38706,0.01133
2476.32688,0.01100
2474.26671,0.01092
2472.20654,0.01103
2470.14637,0.01112
2468.08620,0.01118
2466.02602,0.01112
2463.96585,0.01099
2461.90568,0.01087
2459.84551,0.01073
2457.78534,0.01072
2455.72516,0.01082
2453.66499,0.01093
2451.60482,0.01105
2449.54465,0.01097
2447.48447,0.01071
2445.42430,0.01049
2443.36413,0.01029
2441.30396,0.01013
2439.24379,0.01008
2437.18361,0.01027
2435.12344,0.01050
2433.06327,0.01056
2431.00310,0.01052
2428.94293,0.01050
2426.88275,0.01037
2424.82258,0.01006
2422.76241,0.00986
2420.70224,0.00977
2418.64207,0.00959
2416.58189,0.00956
2414.52172,0.00967
2412.46155,0.00953
2410.40138,0.00923
2408.34120,0.00905
2406.28103,0.00895
2404.22086,0.00900
2402.16069,0.00918
2400.10052,0.00915
2398.04034,0.00885
2395.98017,0.00869
2393.92000,0.00877
2391.85983,0.00887
2389.79966,0.00882
2387.73948,0.00868
2385.67931,0.00869
2383.61914,0.00892
2381.55897,0.00898
2379.49880,0.00861
2377.43862,0.00815
2375.37845,0.00806
2373.31828,0.00792
2371.25811,0.00690
2369.19793,0.00552
2367.13776,0.00473
2365.07759,0.00404
2363.01742,0.00365
2360.95725,0.00441
2358.89707,0.00597
2356.83690,0.00766
2354.77673,0.00876
2352.71656,0.00896
2350.65639,0.00869
2348.59621,0.00833
2346.53604,0.00795
2344.47587,0.00787
2342.41570,0.00823
2340.35552,0.00819
2338.29535,0.00746
2336.23518,0.00674
2334.17501,0.00615
2332.11484,0.00568
2330.05466,0.00570
2327.99449,0.00642
2325.93432,0.00758
2323.87415,0.00820
2321.81398,0.00788
2319.75380,0.00761
2317.69363,0.00782
2315.63346,0.00810
2313.57329,0.00825
2311.51312,0.00814
2309.45294,0.00788
2307.39277,0.00760
2305.33260,0.00720
2303.27243,0.00686
2301.21225,0.00690
2299.15208,0.00718
2297.09191,0.00734
2295.03174,0.00738
2292.97157,0.00751
2290.91139,0.00774
2288.85122,0.00789
2286.79105,0.00788
2284.73088,0.00772
2282.67071,0.00748
2280.61053,0.00724
2278.55036,0.00694
2276.49019,0.00661
2274.43002,0.00635
2272.36984,0.00627
2270.30967,0.00645
2268.24950,0.00669
2266.18933,0.00664
2264.12916,0.00634
2262.06898,0.00616
2260.00881,0.00616
2257.94864,0.00618
2255.88847,0.00613
2253.82830,0.00594
2251.76812,0.00574
2249.70795,0.00562
2247.64778,0.00568
2245.58761,0.00591
2243.52744,0.00571
2241.46726,0.00526
2239.40709,0.00528
2237.34692,0.00581
2235.28675,0.00634
2233.22657,0.00634
2231.16640,0.00599
2229.10623,0.00544
2227.04606,0.00497
2224.98589,0.00485
2222.92571,0.00475
2220.86554,0.00492
2218.80537,0.00554
2216.74520,0.00608
2214.68503,0.00638
2212.62485,0.00629
2210.56468,0.00564
2208.50451,0.00506
2206.44434,0.00474
2204.38417,0.00410
2202.32399,0.00357
2200.26382,0.00388
2198.20365,0.00446
2196.14348,0.00472
2194.08330,0.00477
2192.02313,0.00452
2189.96296,0.00378
2187.90279,0.00269
2185.84262,0.00205
2183.78244,0.00229
2181.72227,0.00255
2179.66210,0.00269
2177.60193,0.00308
2175.54176,0.00350
2173.48158,0.00392
2171.42141,0.00407
2169.36124,0.00392
2167.30107,0.00420
2165.24089,0.00485
2163.18072,0.00484
2161.12055,0.00419
2159.06038,0.00364
2157.00021,0.00311
2154.94003,0.00294
2152.87986,0.00348
2150.81969,0.00403
2148.75952,0.00365
2146.69935,0.00251
2144.63917,0.00202
2142.57900,0.00259
2140.51883,0.00334
2138.45866,0.00337
2136.39849,0.00283
2134.33831,0.00300
2132.27814,0.00375
2130.21797,0.00403
2128.15780,0.00400
2126.09762,0.00397
2124.03745,0.00398
2121.97728,0.00432
2119.91711,0.00479
2117.85694,0.00498
2115.79676,0.00506
2113.73659,0.00512
2111.67642,0.00503
2109.61625,0.00473
2107.55608,0.00414
2105.49590,0.00350
2103.43573,0.00341
2101.37556,0.00375
2099.31539,0.00384
2097.25521,0.00375
2095.19504,0.00392
2093.13487,0.00419
2091.07470,0.00432
2089.01453,0.00435
2086.95435,0.00437
2084.89418,0.00434
2082.83401,0.00421
2080.77384,0.00403
2078.71367,0.00404
2076.65349,0.00438
2074.59332,0.00473
2072.53315,0.00463
2070.47298,0.00425
2068.41281,0.00410
2066.35263,0.00419
2064.29246,0.00392
2062.23229,0.00344
2060.17212,0.00336
2058.11194,0.00362
2056.05177,0.00363
2053.99160,0.00324
2051.93143,0.00323
2049.87126,0.00377
2047.81108,0.00408
2045.75091,0.00396
2043.69074,0.00370
2041.63057,0.00311
2039.57040,0.00206
2037.51022,0.00104
2035.45005,0.00029
2033.38988,0.00000
2031.32971,0.00074
2029.26954,0.00170
2027.20936,0.00189
2025.14919,0.00232
2023.08902,0.00298
2021.02885,0.00265
2018.96867,0.00160
2016.90850,0.00062
2014.84833,0.00017
2012.78816,0.00025
2010.72799,0.00027
2008.66781,0.00046
2006.60764,0.00094
2004.54747,0.00118
2002.48730,0.00155
2000.42713,0.00231
1998.36695,0.00271
1996.30678,0.00262
1994.24661,0.00262
1992.18644,0.00224
1990.12626,0.00139
1988.06609,0.00089
1986.00592,0.00073
1983.94575,0.00075
1981.88558,0.00081
1979.82540,0.00080
1977.76523,0.00107
1975.70506,0.00152
1973.64489,0.00140
1971.58472,0.00071
1969.52454,0.00030
1967.46437,0.00058
1965.40420,0.00114
1963.34403,0.00160
1961.28386,0.00183
1959.22368,0.00174
1957.16351,0.00141
1955.10334,0.00106
1953.04317,0.00088
1950.98299,0.00110
1948.92282,0.00167
1946.86265,0.00193
1944.80248,0.00166
1942.74231,0.00147
1940.68213,0.00161
1938.62196,0.00178
1936.56179,0.00168
1934.50162,0.00147
1932.44145,0.00147
1930.38127,0.00149
1928.32110,0.00137
1926.26093,0.00153
1924.20076,0.00206
1922.14059,0.00249
1920.08041,0.00262
1918.02024,0.00250
1915.96007,0.00218
1913.89990,0.00180
1911.83972,0.00150
1909.77955,0.00134
1907.71938,0.00119
1905.65921,0.00090
1903.59904,0.00068
1901.53886,0.00087
1899.47869,0.00133
1897.41852,0.00154
1895.35835,0.00139
1893.29818,0.00134
1891.23800,0.00161
1889.17783,0.00172
1887.11766,0.00143
1885.05749,0.00118
1882.99731,0.00114
1880.93714,0.00106
1878.87697,0.00094
1876.81680,0.00099
1874.75663,0.00113
1872.69645,0.00117
1870.63628,0.00117
1868.57611,0.00116
1866.51594,0.00105
1864.45577,0.00101
1862.39559,0.00103
1860.33542,0.00095
1858.27525,0.00090
1856.21508,0.00097
1854.15491,0.00093
1852.09473,0.00066
1850.03456,0.00044
1847.97439,0.00051
1845.91422,0.00062
1843.85404,0.00040
1841.79387,0.00005
1839.73370,0.00000
1837.67353,0.00024
1835.61336,0.00046
1833.55318,0.00060
1831.49301,0.00075
1829.43284,0.00074
1827.37267,0.00047
1825.31250,0.00018
1823.25232,0.00005
1821.19215,0.00000
1819.13198,-0.00003
1817.07181,-0.00004
1815.01163,-0.00009
1812.95146,-0.00007
1810.89129,0.00009
1808.83112,0.00022
1806.77095,0.00023
1804.71077,0.00028
1802.65060,0.00035
1800.59043,0.00032
1798.53026,0.00021
1796.47009,0.00011
1794.40991,0.00004
1792.34974,0.00005
1790.28957,0.00007
1788.22940,0.00006
1786.16923,0.00001
1784.10905,-0.00003
1782.04888,0.00000
1779.98871,-0.00004
1777.92854,-0.00013
1775.86836,-0.00018
1773.80819,-0.00011
1771.74802,0.00008
1769.68785,0.00024
1767.62768,0.00039
1765.56750,0.00065
1763.50733,0.00113
1761.44716,0.00190
1759.38699,0.00282
1757.32682,0.00363
1755.26664,0.00439
1753.20647,0.00539
1751.14630,0.00700
1749.08613,0.00918
1747.02596,0.01151
1744.96578,0.01412
1742.90561,0.01745
1740.84544,0.02153
1738.78527,0.02582
1736.72509,0.02968
1734.66492,0.03343
1732.60475,0.03678
1730.54458,0.03858
1728.48441,0.03914
1726.42423,0.03914
1724.36406,0.03881
1722.30389,0.03833
1720.24372,0.03792
1718.18355,0.03760
1716.12337,0.03734
1714.06320,0.03721
1712.00303,0.03712
1709.94286,0.03696
1707.88268,0.03669
1705.82251,0.03624
1703.76234,0.03558
1701.70217,0.03467
1699.64200,0.03358
1697.58182,0.03264
1695.52165,0.03181
1693.46148,0.03104
1691.40131,0.03048
1689.34114,0.03009
1687.28096,0.02988
1685.22079,0.02964
1683.16062,0.02900
1681.10045,0.02836
1679.04028,0.02814
1676.98010,0.02817
1674.91993,0.02822
1672.85976,0.02829
1670.79959,0.02852
1668.73941,0.02900
1666.67924,0.02966
1664.61907,0.03048
1662.55890,0.03157
1660.49873,0.03285
1658.43855,0.03406
1656.37838,0.03507
1654.31821,0.03594
1652.25804,0.03677
1650.19787,0.03743
1648.13769,0.03767
1646.07752,0.03749
1644.01735,0.03751
1641.95718,0.03799
1639.89701,0.03868
1637.83683,0.03937
1635.77666,0.03996
1633.71649,0.04043
1631.65632,0.04101
1629.59614,0.04170
1627.53597,0.04239
1625.47580,0.04318
1623.41563,0.04409
1621.35546,0.04496
1619.29528,0.04579
1617.23511,0.04670
1615.17494,0.04768
1613.11477,0.04870
1611.05460,0.04971
1608.99442,0.05056
1606.93425,0.05110
1604.87408,0.05120
1602.81391,0.05085
1600.75373,0.05009
1598.69356,0.04898
1596.63339,0.04751
1594.57322,0.04577
1592.51305,0.04395
1590.45287,0.04212
1588.39270,0.04023
1586.33253,0.03828
1584.27236,0.03633
1582.21219,0.03450
1580.15201,0.03297
1578.09184,0.03155
1576.03167,0.02981
1573.97150,0.02813
1571.91133,0.02689
1569.85115,0.02561
1567.79098,0.02427
1565.73081,0.02333
1563.67064,0.02285
1561.61046,0.02273
1559.55029,0.02261
1557.49012,0.02210
1555.42995,0.02178
1553.36978,0.02179
1551.30960,0.02186
1549.24943,0.02192
1547.18926,0.02210
1545.12909,0.02243
1543.06892,0.02271
1541.00874,0.02262
1538.94857,0.02225
1536.88840,0.02200
1534.82823,0.02173
1532.76805,0.02119
1530.70788,0.02056
1528.64771,0.01998
1526.58754,0.01936
1524.52737,0.01881
1522.46719,0.01855
1520.40702,0.01865
1518.34685,0.01908
1516.28668,0.01953
1514.22651,0.01959
1512.16633,0.01920
1510.10616,0.01840
1508.04599,0.01675
1505.98582,0.01437
1503.92565,0.01268
1501.86547,0.01178
1499.80530,0.01101
1497.74513,0.00994
1495.68496,0.00851
1493.62478,0.00718
1491.56461,0.00608
1489.50444,0.00499
1487.44427,0.00410
1485.38410,0.00364
1483.32392,0.00349
1481.26375,0.00353
1479.20358,0.00394
1477.14341,0.00517
1475.08324,0.00745
1473.02306,0.01043
1470.96289,0.01324
1468.90272,0.01558
1466.84255,0.01793
1464.78238,0.02032
1462.72220,0.02209
1460.66203,0.02315
1458.60186,0.02435
1456.54169,0.02623
1454.48151,0.02800
1452.42134,0.02916
1450.36117,0.03006
1448.30100,0.03105
1446.24083,0.03202
1444.18065,0.03265
1442.12048,0.03278
1440.06031,0.03238
1438.00014,0.03130
1435.93997,0.02965
1433.87979,0.02809
1431.81962,0.02667
1429.75945,0.02513
1427.69928,0.02382
1425.63910,0.02307
1423.57893,0.02267
1421.51876,0.02246
1419.45859,0.02237
1417.39842,0.02225
1415.33824,0.02206
1413.27807,0.02181
1411.21790,0.02146
1409.15773,0.02108
1407.09756,0.02087
1405.03738,0.02090
1402.97721,0.02106
1400.91704,0.02127
1398.85687,0.02153
1396.79670,0.02181
1394.73652,0.02211
1392.67635,0.02253
1390.61618,0.02316
1388.55601,0.02395
1386.49583,0.02476
1384.43566,0.02561
1382.37549,0.02660
1380.31532,0.02777
1378.25515,0.02901
1376.19497,0.03012
1374.13480,0.03101
1372.07463,0.03166
1370.01446,0.03219
1367.95429,0.03273
1365.89411,0.03327
1363.83394,0.03374
1361.77377,0.03409
1359.71360,0.03431
1357.65343,0.03450
1355.59325,0.03478
1353.53308,0.03518
1351.47291,0.03566
1349.41274,0.03614
1347.35256,0.03657
1345.29239,0.03698
1343.23222,0.03743
1341.17205,0.03794
1339.11188,0.03841
1337.05170,0.03885
1334.99153,0.03939
1332.93136,0.04010
1330.87119,0.04083
1328.81102,0.04153
1326.75084,0.04223
1324.69067,0.04295
1322.63050,0.04361
1320.57033,0.04419
1318.51015,0.04469
1316.44998,0.04498
1314.38981,0.04487
1312.32964,0.04432
1310.26947,0.04340
1308.20929,0.04226
1306.14912,0.04089
1304.08895,0.03917
1302.02878,0.03709
1299.96861,0.03488
1297.90843,0.03284
1295.84826,0.03103
1293.78809,0.02938
1291.72792,0.02792
1289.66775,0.02679
1287.60757,0.02612
1285.54740,0.02570
1283.48723,0.02525
1281.42706,0.02485
1279.36688,0.02468
1277.30671,0.02462
1275.24654,0.02469
1273.18637,0.02498
1271.12620,0.02539
1269.06602,0.02583
1267.00585,0.02630
1264.94568,0.02687
1262.88551,0.02764
1260.82534,0.02846
1258.76516,0.02913
1256.70499,0.02970
1254.64482,0.03028
1252.58465,0.03084
1250.52447,0.03152
1248.46430,0.03242
1246.40413,0.03342
1244.34396,0.03434
1242.28379,0.03512
1240.22361,0.03592
1238.16344,0.03686
1236.10327,0.03784
1234.04310,0.03874
1231.98293,0.03958
1229.92275,0.04049
1227.86258,0.04144
1225.80241,0.04236
1223.74224,0.04329
1221.68207,0.04427
1219.62189,0.04523
1217.56172,0.04609
1215.50155,0.04693
1213.44138,0.04780
1211.38120,0.04877
1209.32103,0.04990
1207.26086,0.05117
1205.20069,0.05243
1203.14052,0.05354
1201.08034,0.05449
1199.02017,0.05520
1196.96000,0.05558
1194.89983,0.05566
1192.83966,0.05549
1190.77948,0.05504
1188.71931,0.05435
1186.65914,0.05352
1184.59897,0.05263
1182.53880,0.05178
1180.47862,0.05101
1178.41845,0.05042
1176.35828,0.05009
1174.29811,0.04998
1172.23793,0.05009
1170.17776,0.05033
1168.11759,0.05038
1166.05742,0.05001
1163.99725,0.04930
1161.93707,0.04846
1159.87690,0.04747
1157.81673,0.04625
1155.75656,0.04495
1153.69639,0.04368
1151.63621,0.04237
1149.57604,0.04104
1147.51587,0.03985
1145.45570,0.03878
1143.39552,0.03766
1141.33535,0.03649
1139.27518,0.03535
1137.21501,0.03428
1135.15484,0.03341
1133.09466,0.03282
1131.03449,0.03256
1128.97432,0.03285
1126.91415,0.03372
1124.85398,0.03485
1122.79380,0.03607
1120.73363,0.03759
1118.67346,0.03953
1116.61329,0.04189
1114.55312,0.04459
1112.49294,0.04747
1110.43277,0.05046
1108.37260,0.05346
1106.31243,0.05635
1104.25225,0.05896
1102.19208,0.06114
1100.13191,0.06290
1098.07174,0.06424
1096.01157,0.06534
1093.95139,0.06655
1091.89122,0.06780
1089.83105,0.06901
1087.77088,0.07053
1085.71071,0.07250
1083.65053,0.07467
1081.59036,0.07680
1079.53019,0.07888
1077.47002,0.08094
1075.40985,0.08292
1073.34967,0.08456
1071.28950,0.08582
1069.22933,0.08699
1067.16916,0.08826
1065.10898,0.08961
1063.04881,0.09084
1060.98864,0.09184
1058.92847,0.09281
1056.86830,0.09403
1054.80812,0.09534
1052.74795,0.09654
1050.68778,0.09788
1048.62761,0.09952
1046.56744,0.10115
1044.50726,0.10263
1042.44709,0.10422
1040.38692,0.10617
1038.32675,0.10842
1036.26657,0.11077
1034.20640,0.11304
1032.14623,0.11500
1030.08606,0.11644
1028.02589,0.11734
1025.96571,0.11787
1023.90554,0.11824
1021.84537,0.11841
1019.78520,0.11845
1017.72503,0.11845
1015.66485,0.11815
1013.60468,0.11733
1011.54451,0.11606
1009.48434,0.11430
1007.42417,0.11195
1005.36399,0.10913
1003.30382,0.10604
1001.24365,0.10271
999.18348,0.09927
997.12330,0.09615
995.06313,0.09348
993.00296,0.09090
990.94279,0.08816
988.88262,0.08530
986.82244,0.08233
984.76227,0.07914
982.70210,0.07573
980.64193,0.07228
978.58176,0.06884
976.52158,0.06563
974.46141,0.06284
972.40124,0.06036
970.34107,0.05820
968.28089,0.05640
966.22072,0.05480
964.16055,0.05316
962.10038,0.05141
960.04021,0.04938
957.98003,0.04701
955.91986,0.04463
953.85969,0.04237
951.79952,0.04006
949.73935,0.03771
947.67917,0.03546
945.61900,0.03335
943.55883,0.03129
941.49866,0.02930
939.43849,0.02757
937.37831,0.02620
935.31814,0.02525
933.25797,0.02453
931.19780,0.02376
929.13762,0.02292
927.07745,0.02210
925.01728,0.02125
922.95711,0.02030
920.89694,0.01924
918.83676,0.01802
916.77659,0.01676
914.71642,0.01563
912.65625,0.01430
910.59608,0.01268
908.53590,0.01128
906.47573,0.01036
904.41556,0.00982
902.35539,0.00943
900.29522,0.00902
898.23504,0.00860
896.17487,0.00838
894.11470,0.00837
892.05453,0.00846
889.99435,0.00846
887.93418,0.00813
885.87401,0.00776
883.81384,0.00765
881.75367,0.00769
879.69349,0.00783
877.63332,0.00794
875.57315,0.00821
873.51298,0.00866
871.45281,0.00893
869.39263,0.00897
867.33246,0.00843
865.27229,0.00733
863.21212,0.00626
861.15194,0.00498
859.09177,0.00335
857.03160,0.00193
854.97143,0.00095
852.91126,0.00050
850.85108,0.00048
848.79091,0.00036
846.73074,0.00000
844.67057,-0.00019
842.61040,0.00001
840.55022,0.00038
838.49005,0.00100
836.42988,0.00180
834.36971,0.00242
832.30954,0.00280
830.24936,0.00305
828.18919,0.00318
826.12902,0.00313
824.06885,0.00320
822.00867,0.00362
819.94850,0.00412
817.88833,0.00430
815.82816,0.00387
813.76799,0.00314
811.70781,0.00277
809.64764,0.00267
807.58747,0.00248
805.52730,0.00214
803.46713,0.00162
801.40695,0.00101
799.34678,0.00042
797.28661,0.00000
795.22644,-0.00048
793.16627,-0.00043
791.10609,0.00005
789.04592,0.00066
786.98575,0.00114
784.92558,0.00156
782.86540,0.00200
780.80523,0.00243
778.74506,0.00282
776.68489,0.00313
774.62472,0.00338
772.56454,0.00377
770.50437,0.00463
768.44420,0.00623
766.38403,0.00832
764.32386,0.01021
762.26368,0.01177
760.20351,0.01319
758.14334,0.01412
756.08317,0.01422
754.02299,0.01375
751.96282,0.01296
749.90265,0.01146
747.84248,0.00954
745.78231,0.00816
743.72213,0.00747
741.66196,0.00672
739.60179,0.00577
737.54162,0.00514
735.48145,0.00464
733.42127,0.00421
731.36110,0.00419
729.30093,0.00424
727.24076,0.00393
725.18059,0.00366
723.12041,0.00426
721.06024,0.00491
719.00007,0.00450
716.93990,0.00315
714.87972,0.00207
712.81955,0.00172
710.75938,0.00157
708.69921,0.00117
706.63904,0.00079
704.57886,0.00071
702.51869,0.00067
700.45852,0.00062
698.39835,0.00079
696.33818,0.00084
694.27800,0.00038
692.21783,-0.00027
690.15766,-0.00072
688.09749,-0.00120
686.03731,-0.00197
683.97714,-0.00268
681.91697,-0.00308
679.85680,-0.00312
677.79663,-0.00251
675.73645,-0.00134
673.67628,-0.00025
671.61611,0.00029
669.55594,0.00044
667.49577,0.00013
665.43559,-0.00046
663.37542,-0.00032
661.31525,0.00034
659.25508,0.00064
657.19491,0.00039
655.13473,-0.00002
653.07456,-0.00011
651.01439,0.00014
648.95422,0.00000
646.89404,-0.00067
644.83387,-0.00123
642.77370,-0.00138
640.71353,-0.00093
638.65336,-0.00025
636.59318,-0.00009
634.53301,-0.00024
632.47284,-0.00011
630.41267,0.00011
628.35250,-0.00021
626.29232,-0.00094
624.23215,-0.00077
622.17198,-0.00034
620.11181,-0.00020
618.05164,0.00045
615.99146,0.00090
613.93129,0.00152
611.87112,0.00319
609.81095,0.00388
607.75077,0.00200
605.69060,0.00054
603.63043,0.00077
601.57026,0.00054
599.51009,0.00000
