3996.73391,0.00158
3994.67373,0.00108
3992.61356,0.00040
3990.55339,0.00000
3988.49322,0.00014
3986.43305,0.00056
3984.37287,0.00072
3982.31270,0.00060
3980.25253,0.00057
3978.19236,0.00065
3976.13219,0.00068
3974.07201,0.00073
3972.01184,0.00086
3969.95167,0.00089
3967.89150,0.00074
3965.83133,0.00064
3963.77115,0.00079
3961.71098,0.00098
3959.65081,0.00092
3957.59064,0.00076
3955.53046,0.00072
3953.47029,0.00073
3951.41012,0.00070
3949.34995,0.00073
3947.28978,0.00096
3945.22960,0.00133
3943.16943,0.00146
3941.10926,0.00131
3939.04909,0.00120
3936.98892,0.00124
3934.92874,0.00139
3932.86857,0.00152
3930.80840,0.00145
3928.74823,0.00117
3926.68805,0.00085
3924.62788,0.00070
3922.56771,0.00067
3920.50754,0.00078
3918.44737,0.00117
3916.38719,0.00157
3914.32702,0.00159
3912.26685,0.00132
3910.20668,0.00116
3908.14651,0.00113
3906.08633,0.00093
3904.02616,0.00073
3901.96599,0.00092
3899.90582,0.00114
3897.84565,0.00102
3895.78547,0.00096
3893.72530,0.00121
3891.66513,0.00145
3889.60496,0.00139
3887.54478,0.00131
3885.48461,0.00135
3883.42444,0.00115
3881.36427,0.00066
3879.30410,0.00040
3877.24392,0.00062
3875.18375,0.00098
3873.12358,0.00105
3871.06341,0.00094
3869.00324,0.00108
3866.94306,0.00140
3864.88289,0.00150
3862.82272,0.00136
3860.76255,0.00128
3858.70237,0.00139
3856.64220,0.00171
3854.58203,0.00205
3852.52186,0.00176
3850.46169,0.00090
3848.40151,0.00042
3846.34134,0.00045
3844.28117,0.00077
3842.22100,0.00104
3840.16083,0.00083
3838.10065,0.00065
3836.04048,0.00116
3833.98031,0.00151
3831.92014,0.00099
3829.85997,0.00028
3827.79979,0.00023
3825.73962,0.00070
3823.67945,0.00117
3821.61928,0.00147
3819.55910,0.00141
3817.49893,0.00098
3815.43876,0.00058
3813.37859,0.00050
3811.31842,0.00060
3809.25824,0.00076
3807.19807,0.00088
3805.13790,0.00080
3803.07773,0.00067
3801.01756,0.00077
3798.95738,0.00098
3796.89721,0.00125
3794.83704,0.00163
3792.77687,0.00183
3790.71670,0.00173
3788.65652,0.00153
3786.59635,0.00153
3784.53618,0.00174
3782.47601,0.00184
3780.41583,0.00165
3778.35566,0.00139
3776.29549,0.00131
3774.23532,0.00144
3772.17515,0.00173
3770.11497,0.00196
3768.05480,0.00192
3765.99463,0.00178
3763.93446,0.00173
3761.87429,0.00155
3759.81411,0.00118
3757.75394,0.00091
3755.69377,0.00092
3753.63360,0.00112
3751.57342,0.00116
3749.51325,0.00078
3747.45308,0.00027
3745.39291,0.00031
3743.33274,0.00082
3741.27256,0.00084
3739.21239,0.00032
3737.15222,0.00000
3735.09205,0.00015
3733.03188,0.00039
3730.97170,0.00064
3728.91153,0.00097
3726.85136,0.00130
3724.79119,0.00151
3722.73102,0.00161
3720.67084,0.00171
3718.61067,0.00184
3716.55050,0.00196
3714.49033,0.00195
3712.43015,0.00175
3710.36998,0.00170
3708.30981,0.00186
3706.24964,0.00185
3704.18947,0.00154
3702.12929,0.00139
3700.06912,0.00169
3698.00895,0.00174
3695.94878,0.00118
3693.88861,0.00076
3691.82843,0.00100
3689.76826,0.00166
3687.70809,0.00228
3685.64792,0.00258
3683.58775,0.00256
3681.52757,0.00223
3679.46740,0.00171
3677.40723,0.00147
3675.34706,0.00174
3673.28688,0.00190
3671.22671,0.00178
3669.16654,0.00214
3667.10637,0.00287
3665.04620,0.00309
3662.98602,0.00283
3660.92585,0.00272
3658.86568,0.00285
3656.80551,0.00297
3654.74534,0.00305
3652.68516,0.00299
3650.62499,0.00282
3648.56482,0.00299
3646.50465,0.00364
3644.44447,0.00426
3642.38430,0.00463
3640.32413,0.00475
3638.26396,0.00475
3636.20379,0.00485
3634.14361,0.00513
3632.08344,0.00526
3630.02327,0.00531
3627.96310,0.00584
3625.90293,0.00653
3623.84275,0.00670
3621.78258,0.00632
3619.72241,0.00565
3617.66224,0.00532
3615.60207,0.00581
3613.54189,0.00665
3611.48172,0.00722
3609.42155,0.00751
3607.36138,0.00783
3605.30120,0.00826
3603.24103,0.00869
3601.18086,0.00893
3599.12069,0.00905
3597.06052,0.00921
3595.00034,0.00919
3592.94017,0.00901
3590.88000,0.00900
3588.81983,0.00908
3586.75966,0.00938
3584.69948,0.01003
3582.63931,0.01037
3580.57914,0.01026
3578.51897,0.01051
3576.45879,0.01113
3574.39862,0.01125
3572.33845,0.01074
3570.27828,0.01007
3568.21811,0.00969
3566.15793,0.01000
3564.09776,0.01074
3562.03759,0.01131
3559.97742,0.01166
3557.91725,0.01197
3555.85707,0.01230
3553.79690,0.01263
3551.73673,0.01290
3549.67656,0.01311
3547.61639,0.01316
3545.55621,0.01316
3543.49604,0.01340
3541.43587,0.01387
3539.37570,0.01432
3537.31552,0.01453
3535.25535,0.01461
3533.19518,0.01468
3531.13501,0.01457
3529.07484,0.01439
3527.01466,0.01438
3524.95449,0.01453
3522.89432,0.01480
3520.83415,0.01508
3518.77398,0.01519
3516.71380,0.01539
3514.65363,0.01575
3512.59346,0.01590
3510.53329,0.01589
3508.47312,0.01611
3506.41294,0.01648
3504.35277,0.01670
3502.29260,0.01688
3500.23243,0.01715
3498.17225,0.01739
3496.11208,0.01770
3494.05191,0.01798
3491.99174,0.01793
3489.93157,0.01775
3487.87139,0.01774
3485.81122,0.01800
3483.75105,0.01840
3481.69088,0.01871
3479.63071,0.01873
3477.57053,0.01850
3475.51036,0.01852
3473.45019,0.01898
3471.39002,0.01948
3469.32984,0.01980
3467.26967,0.01995
3465.20950,0.01996
3463.14933,0.01986
3461.08916,0.01976
3459.02898,0.01968
3456.96881,0.01963
3454.90864,0.01978
3452.84847,0.02012
3450.78830,0.02037
3448.72812,0.02043
3446.66795,0.02061
3444.60778,0.02089
3442.54761,0.02091
3440.48744,0.02080
3438.42726,0.02095
3436.36709,0.02141
3434.30692,0.02198
3432.24675,0.02218
3430.18657,0.02198
3428.12640,0.02192
3426.06623,0.02201
3424.00606,0.02203
3421.94589,0.02211
3419.88571,0.02212
3417.82554,0.02202
3415.76537,0.02212
3413.70520,0.02236
3411.64503,0.02247
3409.58485,0.02254
3407.52468,0.02273
3405.46451,0.02292
3403.40434,0.02302
3401.34416,0.02303
3399.28399,0.02292
3397.22382,0.02283
3395.16365,0.02300
3393.10348,0.02317
3391.04330,0.02314
3388.98313,0.02323
3386.92296,0.02359
3384.86279,0.02391
3382.80262,0.02406
3380.74244,0.02406
3378.68227,0.02402
3376.62210,0.02406
3374.56193,0.02414
3372.50176,0.02432
3370.44158,0.02456
3368.38141,0.02464
3366.32124,0.02438
3364.26107,0.02390
3362.20089,0.02358
3360.14072,0.02353
3358.08055,0.02356
3356.02038,0.02354
3353.96021,0.02351
3351.90003,0.02367
3349.83986,0.02404
3347.77969,0.02429
3345.71952,0.02434
3343.65935,0.02429
3341.59917,0.02408
3339.53900,0.02392
3337.47883,0.02396
3335.41866,0.02404
3333.35849,0.02409
3331.29831,0.02403
3329.23814,0.02389
3327.17797,0.02383
3325.11780,0.02373
3323.05762,0.02357
3320.99745,0.02360
3318.93728,0.02379
3316.87711,0.02385
3314.81694,0.02379
3312.75676,0.02377
3310.69659,0.02383
3308.63642,0.02379
3306.57625,0.02360
3304.51608,0.02335
3302.45590,0.02322
3300.39573,0.02349
3298.33556,0.02396
3296.27539,0.02441
3294.21521,0.02468
3292.15504,0.02440
3290.09487,0.02400
3288.03470,0.02409
3285.97453,0.02426
3283.91435,0.02421
3281.85418,0.02424
3279.79401,0.02437
3277.73384,0.02429
3275.67367,0.02404
3273.61349,0.02401
3271.55332,0.02416
3269.49315,0.02393
3267.43298,0.02339
3265.37281,0.02320
3263.31263,0.02350
3261.25246,0.02390
3259.19229,0.02391
3257.13212,0.02363
3255.07194,0.02346
3253.01177,0.02338
3250.95160,0.02342
3248.89143,0.02351
3246.83126,0.02340
3244.77108,0.02320
3242.71091,0.02325
3240.65074,0.02348
3238.59057,0.02358
3236.53040,0.02348
3234.47022,0.02347
3232.41005,0.02357
3230.34988,0.02353
3228.28971,0.02349
3226.22954,0.02344
3224.16936,0.02325
3222.10919,0.02321
3220.04902,0.02351
3217.98885,0.02368
3215.92867,0.02361
3213.86850,0.02358
3211.80833,0.02346
3209.74816,0.02307
3207.68799,0.02260
3205.62781,0.02233
3203.56764,0.02223
3201.50747,0.02223
3199.44730,0.02240
3197.38713,0.02254
3195.32695,0.02238
3193.26678,0.02225
3191.20661,0.02248
3189.14644,0.02261
3187.08626,0.02225
3185.02609,0.02174
3182.96592,0.02168
3180.90575,0.02196
3178.84558,0.02199
3176.78540,0.02179
3174.72523,0.02159
3172.66506,0.02134
3170.60489,0.02126
3168.54472,0.02135
3166.48454,0.02119
3164.42437,0.02093
3162.36420,0.02088
3160.30403,0.02098
3158.24386,0.02101
3156.18368,0.02083
3154.12351,0.02061
3152.06334,0.02054
3150.00317,0.02055
3147.94299,0.02060
3145.88282,0.02082
3143.82265,0.02089
3141.76248,0.02060
3139.70231,0.02025
3137.64213,0.02002
3135.58196,0.01991
3133.52179,0.01997
3131.46162,0.02007
3129.40145,0.01996
3127.34127,0.01991
3125.28110,0.02000
3123.22093,0.01979
3121.16076,0.01940
3119.10058,0.01927
3117.04041,0.01946
3114.98024,0.01971
3112.92007,0.01969
3110.85990,0.01951
3108.79972,0.01932
3106.73955,0.01913
3104.67938,0.01896
3102.61921,0.01879
3100.55904,0.01855
3098.49886,0.01834
3096.43869,0.01834
3094.37852,0.01854
3092.31835,0.01864
3090.25818,0.01851
3088.19800,0.01835
3086.13783,0.01822
3084.07766,0.01808
3082.01749,0.01783
3079.95731,0.01751
3077.89714,0.01747
3075.83697,0.01755
3073.77680,0.01750
3071.71663,0.01750
3069.65645,0.01753
3067.59628,0.01745
3065.53611,0.01722
3063.47594,0.01706
3061.41577,0.01711
3059.35559,0.01704
3057.29542,0.01682
3055.23525,0.01671
3053.17508,0.01674
3051.11491,0.01669
3049.05473,0.01645
3046.99456,0.01626
3044.93439,0.01626
3042.87422,0.01635
3040.81404,0.01634
3038.75387,0.01617
3036.69370,0.01597
3034.63353,0.01574
3032.57336,0.01543
3030.51318,0.01530
3028.45301,0.01537
3026.39284,0.01542
3024.33267,0.01538
3022.27250,0.01520
3020.21232,0.01492
3018.15215,0.01467
3016.09198,0.01451
3014.03181,0.01448
3011.97163,0.01445
3009.91146,0.01435
3007.85129,0.01441
3005.79112,0.01452
3003.73095,0.01444
3001.67077,0.01425
2999.61060,0.01404
2997.55043,0.01389
2995.49026,0.01391
2993.43009,0.01398
2991.36991,0.01392
2989.30974,0.01369
2987.24957,0.01348
2985.18940,0.01354
2983.12923,0.01362
2981.06905,0.01337
2979.00888,0.01292
2976.94871,0.01268
2974.88854,0.01277
2972.82836,0.01302
2970.76819,0.01320
2968.70802,0.01313
2966.64785,0.01294
2964.58768,0.01276
2962.52750,0.01259
2960.46733,0.01257
2958.40716,0.01275
2956.34699,0.01297
2954.28682,0.01304
2952.22664,0.01298
2950.16647,0.01302
2948.10630,0.01311
2946.04613,0.01289
2943.98596,0.01257
2941.92578,0.01265
2939.86561,0.01281
2937.80544,0.01267
2935.74527,0.01259
2933.68509,0.01267
2931.62492,0.01260
2929.56475,0.01244
2927.50458,0.01228
2925.44441,0.01207
2923.38423,0.01188
2921.32406,0.01183
2919.26389,0.01193
2917.20372,0.01191
2915.14355,0.01180
2913.08337,0.01171
2911.02320,0.01174
2908.96303,0.01191
2906.90286,0.01198
2904.84268,0.01181
2902.78251,0.01144
2900.72234,0.01110
2898.66217,0.01113
2896.60200,0.01134
2894.54182,0.01125
2892.48165,0.01094
2890.42148,0.01077
2888.36131,0.01074
2886.30114,0.01080
2884.24096,0.01086
2882.18079,0.01072
2880.12062,0.01054
2878.06045,0.01059
2876.00028,0.01064
2873.94010,0.01051
2871.87993,0.01043
2869.81976,0.01049
2867.75959,0.01053
2865.69941,0.01048
2863.63924,0.01032
2861.57907,0.01023
2859.51890,0.01033
2857.45873,0.01020
2855.39855,0.00975
2853.33838,0.00950
2851.27821,0.00960
2849.21804,0.00963
2847.15787,0.00954
2845.09769,0.00949
2843.03752,0.00946
2840.97735,0.00946
2838.91718,0.00941
2836.85700,0.00925
2834.79683,0.00908
2832.73666,0.00889
2830.67649,0.00874
2828.61632,0.00879
2826.55614,0.00895
2824.49597,0.00898
2822.43580,0.00890
2820.37563,0.00877
2818.31546,0.00866
2816.25528,0.00864
2814.19511,0.00867
2812.13494,0.00870
2810.07477,0.00870
2808.01460,0.00863
2805.95442,0.00859
2803.89425,0.00857
2801.83408,0.00850
2799.77391,0.00849
2797.71373,0.00854
2795.65356,0.00845
2793.59339,0.00813
2791.53322,0.00783
2789.47305,0.00777
2787.41287,0.00793
2785.35270,0.00808
2783.29253,0.00797
2781.23236,0.00773
2779.17219,0.00762
2777.11201,0.00775
2775.05184,0.00799
2772.99167,0.00809
2770.93150,0.00798
2768.87133,0.00776
2766.81115,0.00765
2764.75098,0.00768
2762.69081,0.00768
2760.63064,0.00749
2758.57046,0.00733
2756.51029,0.00731
2754.45012,0.00723
2752.38995,0.00708
2750.32978,0.00701
2748.26960,0.00710
2746.20943,0.00733
2744.14926,0.00746
2742.08909,0.00731
2740.02892,0.00711
2737.96874,0.00705
2735.90857,0.00693
2733.84840,0.00684
2731.78823,0.00690
2729.72805,0.00693
2727.66788,0.00688
2725.60771,0.00682
2723.54754,0.00681
2721.48737,0.00678
2719.42719,0.00667
2717.36702,0.00654
2715.30685,0.00638
2713.24668,0.00626
2711.18651,0.00627
2709.12633,0.00636
2707.06616,0.00641
2705.00599,0.00639
2702.94582,0.00638
2700.88565,0.00636
2698.82547,0.00632
2696.76530,0.00628
2694.70513,0.00618
2692.64496,0.00609
2690.58478,0.00601
2688.52461,0.00584
2686.46444,0.00565
2684.40427,0.00560
2682.34410,0.00572
2680.28392,0.00587
2678.22375,0.00585
2676.16358,0.00571
2674.10341,0.00567
2672.04324,0.00568
2669.98306,0.00561
2667.92289,0.00553
2665.86272,0.00555
2663.80255,0.00562
2661.74238,0.00567
2659.68220,0.00564
2657.62203,0.00562
2655.56186,0.00578
2653.50169,0.00610
2651.44151,0.00619
2649.38134,0.00593
2647.32117,0.00570
2645.26100,0.00570
2643.20083,0.00576
2641.14065,0.00567
2639.08048,0.00548
2637.02031,0.00543
2634.96014,0.00549
2632.89997,0.00536
2630.83979,0.00513
2628.77962,0.00509
2626.71945,0.00521
2624.65928,0.00523
2622.59910,0.00503
2620.53893,0.00486
2618.47876,0.00497
2616.41859,0.00499
2614.35842,0.00475
2612.29824,0.00463
2610.23807,0.00471
2608.17790,0.00484
2606.11773,0.00482
2604.05756,0.00468
2601.99738,0.00471
2599.93721,0.00493
2597.87704,0.00509
2595.81687,0.00500
2593.75670,0.00472
2591.69652,0.00440
2589.63635,0.00417
2587.57618,0.00424
2585.51601,0.00454
2583.45583,0.00467
2581.39566,0.00458
2579.33549,0.00447
2577.27532,0.00440
2575.21515,0.00435
2573.15497,0.00419
2571.09480,0.00411
2569.03463,0.00438
2566.97446,0.00481
2564.91429,0.00500
2562.85411,0.00476
2560.79394,0.00443
2558.73377,0.00443
2556.67360,0.00460
2554.61342,0.00444
2552.55325,0.00400
2550.49308,0.00381
2548.43291,0.00402
2546.37274,0.00452
2544.31256,0.00501
2542.25239,0.00506
2540.19222,0.00469
2538.13205,0.00440
2536.07188,0.00432
2534.01170,0.00417
2531.95153,0.00398
2529.89136,0.00385
2527.83119,0.00386
2525.77102,0.00390
2523.71084,0.00374
2521.65067,0.00375
2519.59050,0.00404
2517.53033,0.00416
2515.47015,0.00422
2513.40998,0.00439
2511.34981,0.00424
2509.28964,0.00387
2507.22947,0.00367
2505.16929,0.00386
2503.10912,0.00434
2501.04895,0.00461
2498.98878,0.00451
2496.92861,0.00433
2494.86843,0.00414
2492.80826,0.00398
2490.74809,0.00389
2488.68792,0.00374
2486.62775,0.00370
2484.56757,0.00396
2482.50740,0.00429
2480.44723,0.00438
2478.38706,0.00442
2476.32688,0.00453
2474.26671,0.00453
2472.20654,0.00451
2470.14637,0.00453
2468.08620,0.00435
2466.02602,0.00407
2463.96585,0.00409
2461.90568,0.00421
2459.84551,0.00416
2457.78534,0.00430
2455.72516,0.00476
2453.66499,0.00488
2451.60482,0.00447
2449.54465,0.00423
2447.48447,0.00430
2445.42430,0.00410
2443.36413,0.00371
2441.30396,0.00370
2439.24379,0.00414
2437.18361,0.00475
2435.12344,0.00497
2433.06327,0.00465
2431.00310,0.00447
2428.94293,0.00445
2426.88275,0.00432
2424.82258,0.00423
2422.76241,0.00436
2420.70224,0.00458
2418.64207,0.00455
2416.58189,0.00441
2414.52172,0.00442
2412.46155,0.00449
2410.40138,0.00467
2408.34120,0.00487
2406.28103,0.00476
2404.22086,0.00456
2402.16069,0.00461
2400.10052,0.00468
2398.04034,0.00444
2395.98017,0.00417
2393.92000,0.00406
2391.85983,0.00399
2389.79966,0.00383
2387.73948,0.00378
2385.67931,0.00390
2383.61914,0.00392
2381.55897,0.00377
2379.49880,0.00385
2377.43862,0.00430
2375.37845,0.00441
2373.31828,0.00382
2371.25811,0.00327
2369.19793,0.00284
2367.13776,0.00157
2365.07759,0.00032
2363.01742,0.00115
2360.95725,0.00324
2358.89707,0.00471
2356.83690,0.00478
2354.77673,0.00375
2352.71656,0.00292
2350.65639,0.00285
2348.59621,0.00311
2346.53604,0.00353
2344.47587,0.00413
2342.41570,0.00419
2340.35552,0.00351
2338.29535,0.00328
2336.23518,0.00357
2334.17501,0.00390
2332.11484,0.00458
2330.05466,0.00586
2327.99449,0.00705
2325.93432,0.00678
2323.87415,0.00515
2321.81398,0.00397
2319.75380,0.00391
2317.69363,0.00430
2315.63346,0.00490
2313.57329,0.00548
2311.51312,0.00560
2309.45294,0.00506
2307.39277,0.00413
2305.33260,0.00354
2303.27243,0.00384
2301.21225,0.00442
2299.15208,0.00462
2297.09191,0.00474
2295.03174,0.00502
2292.97157,0.00504
2290.91139,0.00471
2288.85122,0.00447
2286.79105,0.00450
2284.73088,0.00459
2282.67071,0.00459
2280.61053,0.00445
2278.55036,0.00413
2276.49019,0.00378
2274.43002,0.00377
2272.36984,0.00404
2270.30967,0.00421
2268.24950,0.00437
2266.18933,0.00452
2264.12916,0.00436
2262.06898,0.00413
2260.00881,0.00415
2257.94864,0.00425
2255.88847,0.00411
2253.82830,0.00393
2251.76812,0.00422
2249.70795,0.00449
2247.64778,0.00403
2245.58761,0.00392
2243.52744,0.00435
2241.46726,0.00418
2239.40709,0.00339
2237.34692,0.00307
2235.28675,0.00335
2233.22657,0.00348
2231.16640,0.00316
2229.10623,0.00262
2227.04606,0.00264
2224.98589,0.00327
2222.92571,0.00370
2220.86554,0.00361
2218.80537,0.00353
2216.74520,0.00370
2214.68503,0.00348
2212.62485,0.00279
2210.56468,0.00249
2208.50451,0.00283
2206.44434,0.00314
2204.38417,0.00313
2202.32399,0.00371
2200.26382,0.00505
2198.20365,0.00545
2196.14348,0.00473
2194.08330,0.00434
2192.02313,0.00445
2189.96296,0.00456
2187.90279,0.00468
2185.84262,0.00506
2183.78244,0.00476
2181.72227,0.00328
2179.66210,0.00250
2177.60193,0.00312
2175.54176,0.00420
2173.48158,0.00498
2171.42141,0.00476
2169.36124,0.00414
2167.30107,0.00383
2165.24089,0.00358
2163.18072,0.00357
2161.12055,0.00239
2159.06038,0.00047
2157.00021,0.00044
2154.94003,0.00081
2152.87986,0.00079
2150.81969,0.00128
2148.75952,0.00191
2146.69935,0.00206
2144.63917,0.00182
2142.57900,0.00198
2140.51883,0.00229
2138.45866,0.00184
2136.39849,0.00104
2134.33831,0.00088
2132.27814,0.00168
2130.21797,0.00286
2128.15780,0.00319
2126.09762,0.00254
2124.03745,0.00230
2121.97728,0.00296
2119.91711,0.00353
2117.85694,0.00345
2115.79676,0.00320
2113.73659,0.00316
2111.67642,0.00326
2109.61625,0.00332
2107.55608,0.00320
2105.49590,0.00316
2103.43573,0.00361
2101.37556,0.00427
2099.31539,0.00450
2097.25521,0.00383
2095.19504,0.00268
2093.13487,0.00220
2091.07470,0.00265
2089.01453,0.00344
2086.95435,0.00401
2084.89418,0.00413
2082.83401,0.00363
2080.77384,0.00312
2078.71367,0.00328
2076.65349,0.00333
2074.59332,0.00286
2072.53315,0.00287
2070.47298,0.00336
2068.41281,0.00321
2066.35263,0.00268
2064.29246,0.00306
2062.23229,0.00384
2060.17212,0.00347
2058.11194,0.00267
2056.05177,0.00294
2053.99160,0.00384
2051.93143,0.00364
2049.87126,0.00226
2047.81108,0.00204
2045.75091,0.00312
2043.69074,0.00306
2041.63057,0.00192
2039.57040,0.00204
2037.51022,0.00392
2035.45005,0.00530
2033.38988,0.00484
2031.32971,0.00409
2029.26954,0.00418
2027.20936,0.00431
2025.14919,0.00419
2023.08902,0.00452
2021.02885,0.00480
2018.96867,0.00394
2016.90850,0.00218
2014.84833,0.00112
2012.78816,0.00106
2010.72799,0.00064
2008.66781,0.00000
2006.60764,0.00027
2004.54747,0.00128
2002.48730,0.00160
2000.42713,0.00095
1998.36695,0.00074
1996.30678,0.00148
1994.24661,0.00235
1992.18644,0.00307
1990.12626,0.00374
1988.06609,0.00406
1986.00592,0.00419
1983.94575,0.00415
1981.88558,0.00331
1979.82540,0.00177
1977.76523,0.00056
1975.70506,0.00022
1973.64489,0.00076
1971.58472,0.00188
1969.52454,0.00299
1967.46437,0.00388
1965.40420,0.00405
1963.34403,0.00361
1961.28386,0.00306
1959.22368,0.00206
1957.16351,0.00127
1955.10334,0.00137
1953.04317,0.00203
1950.98299,0.00263
1948.92282,0.00222
1946.86265,0.00088
1944.80248,-0.00011
1942.74231,0.00014
1940.68213,0.00096
1938.62196,0.00083
1936.56179,0.00004
1934.50162,0.00017
1932.44145,0.00100
1930.38127,0.00127
1928.32110,0.00106
1926.26093,0.00111
1924.20076,0.00138
1922.14059,0.00133
1920.08041,0.00112
1918.02024,0.00120
1915.96007,0.00139
1913.89990,0.00126
1911.83972,0.00077
1909.77955,0.00037
1907.71938,0.00053
1905.65921,0.00114
1903.59904,0.00160
1901.53886,0.00152
1899.47869,0.00120
1897.41852,0.00106
1895.35835,0.00088
1893.29818,0.00048
1891.23800,0.00023
1889.17783,0.00057
1887.11766,0.00113
1885.05749,0.00125
1882.99731,0.00103
1880.93714,0.00094
1878.87697,0.00105
1876.81680,0.00104
1874.75663,0.00085
1872.69645,0.00067
1870.63628,0.00061
1868.57611,0.00069
1866.51594,0.00088
1864.45577,0.00094
1862.39559,0.00088
1860.33542,0.00092
1858.27525,0.00093
1856.21508,0.00080
1854.15491,0.00089
1852.09473,0.00127
1850.03456,0.00144
1847.97439,0.00112
1845.91422,0.00060
1843.85404,0.00046
1841.79387,0.00065
1839.73370,0.00072
1837.67353,0.00067
1835.61336,0.00073
1833.55318,0.00083
1831.49301,0.00074
1829.43284,0.00051
1827.37267,0.00033
1825.31250,0.00024
1823.25232,0.00039
1821.19215,0.00069
1819.13198,0.00070
1817.07181,0.00047
1815.01163,0.00036
1812.95146,0.00035
1810.89129,0.00039
1808.83112,0.00061
1806.77095,0.00086
1804.71077,0.00080
1802.65060,0.00056
1800.59043,0.00051
1798.53026,0.00058
1796.47009,0.00063
1794.40991,0.00060
1792.34974,0.00048
1790.28957,0.00047
1788.22940,0.00069
1786.16923,0.00097
1784.10905,0.00119
1782.04888,0.00124
1779.98871,0.00109
1777.92854,0.00089
1775.86836,0.00079
1773.80819,0.00072
1771.74802,0.00068
1769.68785,0.00070
1767.62768,0.00075
1765.56750,0.00078
1763.50733,0.00084
1761.44716,0.00098
1759.38699,0.00108
1757.32682,0.00119
1755.26664,0.00145
1753.20647,0.00166
1751.14630,0.00162
1749.08613,0.00154
1747.02596,0.00163
1744.96578,0.00181
1742.90561,0.00196
1740.84544,0.00202
1738.78527,0.00193
1736.72509,0.00177
1734.66492,0.00163
1732.60475,0.00164
1730.54458,0.00187
1728.48441,0.00219
1726.42423,0.00250
1724.36406,0.00268
1722.30389,0.00269
1720.24372,0.00256
1718.18355,0.00251
1716.12337,0.00269
1714.06320,0.00299
1712.00303,0.00332
1709.94286,0.00359
1707.88268,0.00377
1705.82251,0.00395
1703.76234,0.00415
1701.70217,0.00422
1699.64200,0.00413
1697.58182,0.00427
1695.52165,0.00472
1693.46148,0.00508
1691.40131,0.00525
1689.34114,0.00542
1687.28096,0.00556
1685.22079,0.00562
1683.16062,0.00600
1681.10045,0.00674
1679.04028,0.00731
1676.98010,0.00756
1674.91993,0.00780
1672.85976,0.00807
1670.79959,0.00817
1668.73941,0.00832
1666.67924,0.00868
1664.61907,0.00907
1662.55890,0.00940
1660.49873,0.00960
1658.43855,0.00967
1656.37838,0.00958
1654.31821,0.00945
1652.25804,0.00964
1650.19787,0.00993
1648.13769,0.00997
1646.07752,0.01006
1644.01735,0.01033
1641.95718,0.01048
1639.89701,0.01043
1637.83683,0.01028
1635.77666,0.01005
1633.71649,0.00984
1631.65632,0.00975
1629.59614,0.00975
1627.53597,0.00971
1625.47580,0.00947
1623.41563,0.00909
1621.35546,0.00883
1619.29528,0.00869
1617.23511,0.00858
1615.17494,0.00855
1613.11477,0.00849
1611.05460,0.00825
1608.99442,0.00795
1606.93425,0.00771
1604.87408,0.00748
1602.81391,0.00727
1600.75373,0.00718
1598.69356,0.00713
1596.63339,0.00692
1594.57322,0.00655
1592.51305,0.00615
1590.45287,0.00584
1588.39270,0.00570
1586.33253,0.00562
1584.27236,0.00555
1582.21219,0.00547
1580.15201,0.00525
1578.09184,0.00478
1576.03167,0.00432
1573.97150,0.00412
1571.91133,0.00395
1569.85115,0.00361
1567.79098,0.00334
1565.73081,0.00337
1563.67064,0.00348
1561.61046,0.00341
1559.55029,0.00319
1557.49012,0.00293
1555.42995,0.00260
1553.36978,0.00235
1551.30960,0.00229
1549.24943,0.00233
1547.18926,0.00220
1545.12909,0.00168
1543.06892,0.00098
1541.00874,0.00073
1538.94857,0.00110
1536.88840,0.00138
1534.82823,0.00131
1532.76805,0.00119
1530.70788,0.00122
1528.64771,0.00113
1526.58754,0.00084
1524.52737,0.00059
1522.46719,0.00055
1520.40702,0.00067
1518.34685,0.00078
1516.28668,0.00085
1514.22651,0.00090
1512.16633,0.00083
1510.10616,0.00052
1508.04599,0.00023
1505.98582,0.00045
1503.92565,0.00082
1501.86547,0.00084
1499.80530,0.00068
1497.74513,0.00058
1495.68496,0.00058
1493.62478,0.00055
1491.56461,0.00036
1489.50444,0.00016
1487.44427,0.00022
1485.38410,0.00050
1483.32392,0.00080
1481.26375,0.00091
1479.20358,0.00079
1477.14341,0.00058
1475.08324,0.00045
1473.02306,0.00064
1470.96289,0.00110
1468.90272,0.00135
1466.84255,0.00131
1464.78238,0.00127
1462.72220,0.00132
1460.66203,0.00121
1458.60186,0.00098
1456.54169,0.00110
1454.48151,0.00154
1452.42134,0.00179
1450.36117,0.00178
1448.30100,0.00167
1446.24083,0.00163
1444.18065,0.00165
1442.12048,0.00163
1440.06031,0.00149
1438.00014,0.00129
1435.93997,0.00115
1433.87979,0.00117
1431.81962,0.00130
1429.75945,0.00149
1427.69928,0.00161
1425.63910,0.00159
1423.57893,0.00159
1421.51876,0.00169
1419.45859,0.00175
1417.39842,0.00179
1415.33824,0.00195
1413.27807,0.00213
1411.21790,0.00225
1409.15773,0.00228
1407.09756,0.00219
1405.03738,0.00197
1402.97721,0.00171
1400.91704,0.00151
1398.85687,0.00144
1396.79670,0.00152
1394.73652,0.00161
1392.67635,0.00159
1390.61618,0.00148
1388.55601,0.00144
1386.49583,0.00153
1384.43566,0.00168
1382.37549,0.00177
1380.31532,0.00177
1378.25515,0.00164
1376.19497,0.00148
1374.13480,0.00150
1372.07463,0.00167
1370.01446,0.00173
1367.95429,0.00165
1365.89411,0.00153
1363.83394,0.00142
1361.77377,0.00132
1359.71360,0.00131
1357.65343,0.00135
1355.59325,0.00130
1353.53308,0.00119
1351.47291,0.00113
1349.41274,0.00113
1347.35256,0.00113
1345.29239,0.00111
1343.23222,0.00102
1341.17205,0.00086
1339.11188,0.00084
1337.05170,0.00105
1334.99153,0.00126
1332.93136,0.00130
1330.87119,0.00118
1328.81102,0.00101
1326.75084,0.00087
1324.69067,0.00089
1322.63050,0.00099
1320.57033,0.00094
1318.51015,0.00076
1316.44998,0.00068
1314.38981,0.00064
1312.32964,0.00053
1310.26947,0.00049
1308.20929,0.00057
1306.14912,0.00070
1304.08895,0.00075
1302.02878,0.00072
1299.96861,0.00070
1297.90843,0.00075
1295.84826,0.00088
1293.78809,0.00094
1291.72792,0.00094
1289.66775,0.00096
1287.60757,0.00092
1285.54740,0.00094
1283.48723,0.00102
1281.42706,0.00096
1279.36688,0.00082
1277.30671,0.00088
1275.24654,0.00107
1273.18637,0.00108
1271.12620,0.00088
1269.06602,0.00080
1267.00585,0.00092
1264.94568,0.00099
1262.88551,0.00094
1260.82534,0.00099
1258.76516,0.00116
1256.70499,0.00128
1254.64482,0.00126
1252.58465,0.00112
1250.52447,0.00098
1248.46430,0.00094
1246.40413,0.00107
1244.34396,0.00119
1242.28379,0.00121
1240.22361,0.00129
1238.16344,0.00137
1236.10327,0.00125
1234.04310,0.00104
1231.98293,0.00094
1229.92275,0.00093
1227.86258,0.00088
1225.80241,0.00080
1223.74224,0.00075
1221.68207,0.00067
1219.62189,0.00061
1217.56172,0.00061
1215.50155,0.00056
1213.44138,0.00049
1211.38120,0.00040
1209.32103,0.00019
1207.26086,0.00000
1205.20069,-0.00006
1203.14052,-0.00003
1201.08034,0.00002
1199.02017,0.00001
1196.96000,-0.00008
1194.89983,-0.00018
1192.83966,-0.00018
1190.77948,-0.00007
1188.71931,0.00009
1186.65914,0.00031
1184.59897,0.00058
1182.53880,0.00078
1180.47862,0.00092
1178.41845,0.00105
1176.35828,0.00118
1174.29811,0.00151
1172.23793,0.00196
1170.17776,0.00232
1168.11759,0.00253
1166.05742,0.00278
1163.99725,0.00310
1161.93707,0.00333
1159.87690,0.00347
1157.81673,0.00367
1155.75656,0.00389
1153.69639,0.00418
1151.63621,0.00457
1149.57604,0.00494
1147.51587,0.00533
1145.45570,0.00579
1143.39552,0.00618
1141.33535,0.00637
1139.27518,0.00644
1137.21501,0.00666
1135.15484,0.00711
1133.09466,0.00758
1131.03449,0.00792
1128.97432,0.00830
1126.91415,0.00881
1124.85398,0.00929
1122.79380,0.00973
1120.73363,0.01016
1118.67346,0.01058
1116.61329,0.01106
1114.55312,0.01151
1112.49294,0.01203
1110.43277,0.01279
1108.37260,0.01364
1106.31243,0.01448
1104.25225,0.01532
1102.19208,0.01606
1100.13191,0.01679
1098.07174,0.01764
1096.01157,0.01848
1093.95139,0.01914
1091.89122,0.01978
1089.83105,0.02057
1087.77088,0.02125
1085.71071,0.02182
1083.65053,0.02256
1081.59036,0.02338
1079.53019,0.02411
1077.47002,0.02464
1075.40985,0.02490
1073.34967,0.02509
1071.28950,0.02546
1069.22933,0.02588
1067.16916,0.02602
1065.10898,0.02602
1063.04881,0.02615
1060.98864,0.02621
1058.92847,0.02609
1056.86830,0.02593
1054.80812,0.02569
1052.74795,0.02515
1050.68778,0.02454
1048.62761,0.02427
1046.56744,0.02424
1044.50726,0.02410
1042.44709,0.02367
1040.38692,0.02303
1038.32675,0.02237
1036.26657,0.02185
1034.20640,0.02139
1032.14623,0.02093
1030.08606,0.02054
1028.02589,0.01997
1025.96571,0.01920
1023.90554,0.01853
1021.84537,0.01799
1019.78520,0.01754
1017.72503,0.01713
1015.66485,0.01672
1013.60468,0.01642
1011.54451,0.01610
1009.48434,0.01564
1007.42417,0.01520
1005.36399,0.01488
1003.30382,0.01464
1001.24365,0.01466
999.18348,0.01482
997.12330,0.01481
995.06313,0.01492
993.00296,0.01544
990.94279,0.01598
988.88262,0.01634
986.82244,0.01662
984.76227,0.01683
982.70210,0.01689
980.64193,0.01651
978.58176,0.01559
976.52158,0.01457
974.46141,0.01382
972.40124,0.01326
970.34107,0.01248
968.28089,0.01135
966.22072,0.01021
964.16055,0.00931
962.10038,0.00858
960.04021,0.00805
957.98003,0.00770
955.91986,0.00737
953.85969,0.00717
951.79952,0.00700
949.73935,0.00669
947.67917,0.00628
945.61900,0.00585
943.55883,0.00547
941.49866,0.00534
939.43849,0.00539
937.37831,0.00513
935.31814,0.00483
933.25797,0.00515
931.19780,0.00552
929.13762,0.00538
927.07745,0.00525
925.01728,0.00527
922.95711,0.00515
920.89694,0.00471
918.83676,0.00410
916.77659,0.00358
914.71642,0.00320
912.65625,0.00290
910.59608,0.00261
908.53590,0.00235
906.47573,0.00225
904.41556,0.00225
902.35539,0.00224
900.29522,0.00214
898.23504,0.00189
896.17487,0.00166
894.11470,0.00159
892.05453,0.00165
889.99435,0.00186
887.93418,0.00219
885.87401,0.00257
883.81384,0.00280
881.75367,0.00279
879.69349,0.00288
877.63332,0.00330
875.57315,0.00353
873.51298,0.00332
871.45281,0.00337
869.39263,0.00391
867.33246,0.00446
865.27229,0.00478
863.21212,0.00462
861.15194,0.00418
859.09177,0.00403
857.03160,0.00428
854.97143,0.00457
852.91126,0.00435
850.85108,0.00383
848.79091,0.00372
846.73074,0.00386
844.67057,0.00357
842.61040,0.00318
840.55022,0.00319
838.49005,0.00337
836.42988,0.00351
834.36971,0.00366
832.30954,0.00380
830.24936,0.00364
828.18919,0.00306
826.12902,0.00239
824.06885,0.00223
822.00867,0.00250
819.94850,0.00261
817.88833,0.00246
815.82816,0.00236
813.76799,0.00231
811.70781,0.00216
809.64764,0.00181
807.58747,0.00111
805.52730,0.00040
803.46713,0.00038
801.40695,0.00079
799.34678,0.00086
797.28661,0.00071
795.22644,0.00084
793.16627,0.00108
791.10609,0.00113
789.04592,0.00088
786.98575,0.00066
784.92558,0.00096
782.86540,0.00148
780.80523,0.00153
778.74506,0.00120
776.68489,0.00117
774.62472,0.00137
772.56454,0.00143
770.50437,0.00167
768.44420,0.00212
766.38403,0.00228
764.32386,0.00220
762.26368,0.00212
760.20351,0.00204
758.14334,0.00220
756.08317,0.00253
754.02299,0.00249
751.96282,0.00199
749.90265,0.00121
747.84248,0.00029
745.78231,0.00000
743.72213,0.00042
741.66196,0.00071
739.60179,0.00073
737.54162,0.00096
735.48145,0.00151
733.42127,0.00179
731.36110,0.00142
729.30093,0.00063
727.24076,0.00016
725.18059,0.00049
723.12041,0.00093
721.06024,0.00112
719.00007,0.00115
716.93990,0.00103
714.87972,0.00088
712.81955,0.00082
710.75938,0.00075
708.69921,0.00072
706.63904,0.00087
704.57886,0.00124
702.51869,0.00158
700.45852,0.00178
698.39835,0.00207
696.33818,0.00238
694.27800,0.00246
692.21783,0.00249
690.15766,0.00256
688.09749,0.00248
686.03731,0.00268
683.97714,0.00353
681.91697,0.00435
679.85680,0.00417
677.79663,0.00297
675.73645,0.00171
673.67628,0.00148
671.61611,0.00259
669.55594,0.00388
667.49577,0.00342
665.43559,0.00173
663.37542,0.00069
661.31525,0.00039
659.25508,0.00032
657.19491,0.00059
655.13473,0.00130
653.07456,0.00194
651.01439,0.00205
648.95422,0.00135
646.89404,0.00027
644.83387,0.00000
642.77370,0.00024
640.71353,0.00018
638.65336,0.00007
636.59318,0.00055
634.53301,0.00083
632.47284,0.00015
630.41267,-0.00062
628.35250,-0.00052
626.29232,-0.00019
624.23215,-0.00077
622.17198,-0.00115
620.11181,-0.00111
618.05164,-0.00049
615.99146,0.00041
613.93129,0.00001
611.87112,-0.00097
609.81095,-0.00170
607.75077,-0.00248
605.69060,-0.00328
603.63043,-0.00293
601.57026,-0.00069
599.51009,0.00000
