3996.73391,0.00093
3994.67373,0.00070
3992.61356,0.00033
3990.55339,0.00000
3988.49322,0.00002
3986.43305,0.00043
3984.37287,0.00073
3982.31270,0.00075
3980.25253,0.00082
3978.19236,0.00096
3976.13219,0.00099
3974.07201,0.00079
3972.01184,0.00056
3969.95167,0.00051
3967.89150,0.00046
3965.83133,0.00033
3963.77115,0.00041
3961.71098,0.00063
3959.65081,0.00067
3957.59064,0.00061
3955.53046,0.00066
3953.47029,0.00085
3951.41012,0.00105
3949.34995,0.00092
3947.28978,0.00055
3945.22960,0.00046
3943.16943,0.00057
3941.10926,0.00064
3939.04909,0.00076
3936.98892,0.00081
3934.92874,0.00068
3932.86857,0.00066
3930.80840,0.00082
3928.74823,0.00089
3926.68805,0.00100
3924.62788,0.00127
3922.56771,0.00140
3920.50754,0.00131
3918.44737,0.00114
3916.38719,0.00088
3914.32702,0.00067
3912.26685,0.00067
3910.20668,0.00075
3908.14651,0.00075
3906.08633,0.00061
3904.02616,0.00049
3901.96599,0.00050
3899.90582,0.00039
3897.84565,0.00032
3895.78547,0.00070
3893.72530,0.00127
3891.66513,0.00147
3889.60496,0.00124
3887.54478,0.00113
3885.48461,0.00131
3883.42444,0.00138
3881.36427,0.00114
3879.30410,0.00086
3877.24392,0.00083
3875.18375,0.00086
3873.12358,0.00078
3871.06341,0.00085
3869.00324,0.00117
3866.94306,0.00129
3864.88289,0.00084
3862.82272,0.00033
3860.76255,0.00055
3858.70237,0.00114
3856.64220,0.00154
3854.58203,0.00155
3852.52186,0.00113
3850.46169,0.00071
3848.40151,0.00060
3846.34134,0.00061
3844.28117,0.00065
3842.22100,0.00078
3840.16083,0.00077
3838.10065,0.00063
3836.04048,0.00064
3833.98031,0.00056
3831.92014,0.00029
3829.85997,0.00016
3827.79979,0.00034
3825.73962,0.00069
3823.67945,0.00105
3821.61928,0.00124
3819.55910,0.00103
3817.49893,0.00059
3815.43876,0.00037
3813.37859,0.00062
3811.31842,0.00090
3809.25824,0.00082
3807.19807,0.00062
3805.13790,0.00064
3803.07773,0.00069
3801.01756,0.00056
3798.95738,0.00065
3796.89721,0.00106
3794.83704,0.00128
3792.77687,0.00116
3790.71670,0.00113
3788.65652,0.00132
3786.59635,0.00147
3784.53618,0.00143
3782.47601,0.00119
3780.41583,0.00096
3778.35566,0.00095
3776.29549,0.00120
3774.23532,0.00151
3772.17515,0.00164
3770.11497,0.00151
3768.05480,0.00119
3765.99463,0.00093
3763.93446,0.00097
3761.87429,0.00116
3759.81411,0.00116
3757.75394,0.00105
3755.69377,0.00120
3753.63360,0.00147
3751.57342,0.00130
3749.51325,0.00070
3747.45308,0.00022
3745.39291,0.00000
3743.33274,0.00030
3741.27256,0.00099
3739.21239,0.00127
3737.15222,0.00081
3735.09205,0.00018
3733.03188,0.00000
3730.97170,0.00042
3728.91153,0.00087
3726.85136,0.00096
3724.79119,0.00073
3722.73102,0.00043
3720.67084,0.00071
3718.61067,0.00142
3716.55050,0.00198
3714.49033,0.00194
3712.43015,0.00152
3710.36998,0.00149
3708.30981,0.00154
3706.24964,0.00144
3704.18947,0.00134
3702.12929,0.00157
3700.06912,0.00198
3698.00895,0.00195
3695.94878,0.00156
3693.88861,0.00133
3691.82843,0.00166
3689.76826,0.00228
3687.70809,0.00265
3685.64792,0.00266
3683.58775,0.00277
3681.52757,0.00277
3679.46740,0.00247
3677.40723,0.00213
3675.34706,0.00191
3673.28688,0.00160
3671.22671,0.00116
3669.16654,0.00115
3667.10637,0.00182
3665.04620,0.00235
3662.98602,0.00240
3660.92585,0.00249
3658.86568,0.00276
3656.80551,0.00284
3654.74534,0.00270
3652.68516,0.00245
3650.62499,0.00214
3648.56482,0.00227
3646.50465,0.00290
3644.44447,0.00342
3642.38430,0.00377
3640.32413,0.00401
3638.26396,0.00413
3636.20379,0.00428
3634.14361,0.00460
3632.08344,0.00492
3630.02327,0.00491
3627.96310,0.00477
3625.90293,0.00485
3623.84275,0.00511
3621.78258,0.00500
3619.72241,0.00445
3617.66224,0.00428
3615.60207,0.00465
3613.54189,0.00516
3611.48172,0.00545
3609.42155,0.00568
3607.36138,0.00606
3605.30120,0.00661
3603.24103,0.00721
3601.18086,0.00740
3599.12069,0.00717
3597.06052,0.00694
3595.00034,0.00714
3592.94017,0.00781
3590.88000,0.00847
3588.81983,0.00846
3586.75966,0.00822
3584.69948,0.00826
3582.63931,0.00827
3580.57914,0.00819
3578.51897,0.00855
3576.45879,0.00926
3574.39862,0.00943
3572.33845,0.00896
3570.27828,0.00848
3568.21811,0.00842
3566.15793,0.00887
3564.09776,0.00950
3562.03759,0.00991
3559.97742,0.01005
3557.91725,0.01006
3555.85707,0.01010
3553.79690,0.01023
3551.73673,0.01044
3549.67656,0.01065
3547.61639,0.01072
3545.55621,0.01066
3543.49604,0.01086
3541.43587,0.01144
3539.37570,0.01195
3537.31552,0.01209
3535.25535,0.01219
3533.19518,0.01240
3531.13501,0.01241
3529.07484,0.01230
3527.01466,0.01245
3524.95449,0.01278
3522.89432,0.01302
3520.83415,0.01321
3518.77398,0.01328
3516.71380,0.01329
3514.65363,0.01343
3512.59346,0.01356
3510.53329,0.01355
3508.47312,0.01362
3506.41294,0.01379
3504.35277,0.01389
3502.29260,0.01424
3500.23243,0.01484
3498.17225,0.01512
3496.11208,0.01506
3494.05191,0.01500
3491.99174,0.01492
3489.93157,0.01490
3487.87139,0.01518
3485.81122,0.01570
3483.75105,0.01611
3481.69088,0.01619
3479.63071,0.01597
3477.57053,0.01575
3475.51036,0.01600
3473.45019,0.01641
3471.39002,0.01648
3469.32984,0.01649
3467.26967,0.01666
3465.20950,0.01683
3463.14933,0.01702
3461.08916,0.01723
3459.02898,0.01730
3456.96881,0.01714
3454.90864,0.01686
3452.84847,0.01693
3450.78830,0.01744
3448.72812,0.01795
3446.66795,0.01838
3444.60778,0.01848
3442.54761,0.01812
3440.48744,0.01796
3438.42726,0.01811
3436.36709,0.01831
3434.30692,0.01859
3432.24675,0.01863
3430.18657,0.01844
3428.12640,0.01842
3426.06623,0.01847
3424.00606,0.01852
3421.94589,0.01870
3419.88571,0.01890
3417.82554,0.01899
3415.76537,0.01904
3413.70520,0.01904
3411.64503,0.01914
3409.58485,0.01943
3407.52468,0.01975
3405.46451,0.01988
3403.40434,0.01972
3401.34416,0.01954
3399.28399,0.01962
3397.22382,0.01979
3395.16365,0.02001
3393.10348,0.02021
3391.04330,0.02023
3388.98313,0.02025
3386.92296,0.02038
3384.86279,0.02041
3382.80262,0.02046
3380.74244,0.02060
3378.68227,0.02058
3376.62210,0.02050
3374.56193,0.02071
3372.50176,0.02093
3370.44158,0.02077
3368.38141,0.02054
3366.32124,0.02039
3364.26107,0.02030
3362.20089,0.02056
3360.14072,0.02085
3358.08055,0.02069
3356.02038,0.02042
3353.96021,0.02038
3351.90003,0.02045
3349.83986,0.02057
3347.77969,0.02065
3345.71952,0.02070
3343.65935,0.02077
3341.59917,0.02075
3339.53900,0.02074
3337.47883,0.02068
3335.41866,0.02051
3333.35849,0.02059
3331.29831,0.02090
3329.23814,0.02099
3327.17797,0.02069
3325.11780,0.02025
3323.05762,0.02012
3320.99745,0.02030
3318.93728,0.02045
3316.87711,0.02044
3314.81694,0.02042
3312.75676,0.02046
3310.69659,0.02052
3308.63642,0.02059
3306.57625,0.02069
3304.51608,0.02072
3302.45590,0.02059
3300.39573,0.02049
3298.33556,0.02068
3296.27539,0.02103
3294.21521,0.02117
3292.15504,0.02095
3290.09487,0.02072
3288.03470,0.02089
3285.97453,0.02125
3283.91435,0.02139
3281.85418,0.02118
3279.79401,0.02095
3277.73384,0.02080
3275.67367,0.02047
3273.61349,0.02026
3271.55332,0.02049
3269.49315,0.02067
3267.43298,0.02061
3265.37281,0.02062
3263.31263,0.02083
3261.25246,0.02098
3259.19229,0.02098
3257.13212,0.02095
3255.07194,0.02085
3253.01177,0.02075
3250.95160,0.02074
3248.89143,0.02067
3246.83126,0.02058
3244.77108,0.02059
3242.71091,0.02057
3240.65074,0.02049
3238.59057,0.02052
3236.53040,0.02074
3234.47022,0.02106
3232.41005,0.02119
3230.34988,0.02096
3228.28971,0.02062
3226.22954,0.02032
3224.16936,0.02010
3222.10919,0.02005
3220.04902,0.02023
3217.98885,0.02052
3215.92867,0.02058
3213.86850,0.02050
3211.80833,0.02035
3209.74816,0.02008
3207.68799,0.01998
3205.62781,0.02016
3203.56764,0.02037
3201.50747,0.02037
3199.44730,0.02020
3197.38713,0.02002
3195.32695,0.01984
3193.26678,0.01984
3191.20661,0.02011
3189.14644,0.02019
3187.08626,0.01986
3185.02609,0.01953
3182.96592,0.01947
3180.90575,0.01954
3178.84558,0.01953
3176.78540,0.01929
3174.72523,0.01893
3172.66506,0.01877
3170.60489,0.01887
3168.54472,0.01896
3166.48454,0.01889
3164.42437,0.01888
3162.36420,0.01905
3160.30403,0.01924
3158.24386,0.01929
3156.18368,0.01910
3154.12351,0.01879
3152.06334,0.01850
3150.00317,0.01825
3147.94299,0.01809
3145.88282,0.01814
3143.82265,0.01838
3141.76248,0.01857
3139.70231,0.01852
3137.64213,0.01830
3135.58196,0.01801
3133.52179,0.01768
3131.46162,0.01752
3129.40145,0.01761
3127.34127,0.01782
3125.28110,0.01796
3123.22093,0.01790
3121.16076,0.01778
3119.10058,0.01780
3117.04041,0.01791
3114.98024,0.01796
3112.92007,0.01785
3110.85990,0.01768
3108.79972,0.01752
3106.73955,0.01735
3104.67938,0.01704
3102.61921,0.01660
3100.55904,0.01637
3098.49886,0.01651
3096.43869,0.01679
3094.37852,0.01691
3092.31835,0.01689
3090.25818,0.01681
3088.19800,0.01669
3086.13783,0.01649
3084.07766,0.01631
3082.01749,0.01618
3079.95731,0.01601
3077.89714,0.01593
3075.83697,0.01593
3073.77680,0.01596
3071.71663,0.01604
3069.65645,0.01589
3067.59628,0.01555
3065.53611,0.01541
3063.47594,0.01545
3061.41577,0.01538
3059.35559,0.01513
3057.29542,0.01491
3055.23525,0.01487
3053.17508,0.01493
3051.11491,0.01498
3049.05473,0.01493
3046.99456,0.01499
3044.93439,0.01525
3042.87422,0.01525
3040.81404,0.01484
3038.75387,0.01447
3036.69370,0.01430
3034.63353,0.01420
3032.57336,0.01409
3030.51318,0.01399
3028.45301,0.01390
3026.39284,0.01386
3024.33267,0.01393
3022.27250,0.01381
3020.21232,0.01353
3018.15215,0.01342
3016.09198,0.01343
3014.03181,0.01343
3011.97163,0.01340
3009.91146,0.01338
3007.85129,0.01340
3005.79112,0.01346
3003.73095,0.01348
3001.67077,0.01330
2999.61060,0.01284
2997.55043,0.01248
2995.49026,0.01250
2993.43009,0.01265
2991.36991,0.01269
2989.30974,0.01263
2987.24957,0.01254
2985.18940,0.01245
2983.12923,0.01228
2981.06905,0.01191
2979.00888,0.01153
2976.94871,0.01156
2974.88854,0.01183
2972.82836,0.01190
2970.76819,0.01170
2968.70802,0.01152
2966.64785,0.01153
2964.58768,0.01153
2962.52750,0.01140
2960.46733,0.01135
2958.40716,0.01146
2956.34699,0.01159
2954.28682,0.01159
2952.22664,0.01148
2950.16647,0.01136
2948.10630,0.01129
2946.04613,0.01122
2943.98596,0.01117
2941.92578,0.01124
2939.86561,0.01121
2937.80544,0.01102
2935.74527,0.01093
2933.68509,0.01099
2931.62492,0.01109
2929.56475,0.01109
2927.50458,0.01087
2925.44441,0.01057
2923.38423,0.01027
2921.32406,0.01012
2919.26389,0.01035
2917.20372,0.01066
2915.14355,0.01069
2913.08337,0.01047
2911.02320,0.01017
2908.96303,0.00996
2906.90286,0.00997
2904.84268,0.01014
2902.78251,0.01018
2900.72234,0.01003
2898.66217,0.00998
2896.60200,0.01004
2894.54182,0.01002
2892.48165,0.00976
2890.42148,0.00953
2888.36131,0.00951
2886.30114,0.00957
2884.24096,0.00957
2882.18079,0.00958
2880.12062,0.00961
2878.06045,0.00945
2876.00028,0.00923
2873.94010,0.00914
2871.87993,0.00913
2869.81976,0.00914
2867.75959,0.00914
2865.69941,0.00914
2863.63924,0.00917
2861.57907,0.00931
2859.51890,0.00947
2857.45873,0.00936
2855.39855,0.00895
2853.33838,0.00852
2851.27821,0.00835
2849.21804,0.00836
2847.15787,0.00839
2845.09769,0.00842
2843.03752,0.00850
2840.97735,0.00851
2838.91718,0.00836
2836.85700,0.00811
2834.79683,0.00786
2832.73666,0.00769
2830.67649,0.00775
2828.61632,0.00797
2826.55614,0.00805
2824.49597,0.00798
2822.43580,0.00792
2820.37563,0.00786
2818.31546,0.00788
2816.25528,0.00801
2814.19511,0.00803
2812.13494,0.00800
2810.07477,0.00796
2808.01460,0.00783
2805.95442,0.00770
2803.89425,0.00769
2801.83408,0.00772
2799.77391,0.00772
2797.71373,0.00768
2795.65356,0.00748
2793.59339,0.00713
2791.53322,0.00698
2789.47305,0.00713
2787.41287,0.00741
2785.35270,0.00758
2783.29253,0.00751
2781.23236,0.00731
2779.17219,0.00707
2777.11201,0.00697
2775.05184,0.00715
2772.99167,0.00734
2770.93150,0.00725
2768.87133,0.00712
2766.81115,0.00721
2764.75098,0.00725
2762.69081,0.00703
2760.63064,0.00674
2758.57046,0.00658
2756.51029,0.00651
2754.45012,0.00647
2752.38995,0.00646
2750.32978,0.00637
2748.26960,0.00626
2746.20943,0.00637
2744.14926,0.00652
2742.08909,0.00632
2740.02892,0.00609
2737.96874,0.00619
2735.90857,0.00631
2733.84840,0.00630
2731.78823,0.00636
2729.72805,0.00636
2727.66788,0.00611
2725.60771,0.00580
2723.54754,0.00565
2721.48737,0.00572
2719.42719,0.00588
2717.36702,0.00592
2715.30685,0.00572
2713.24668,0.00548
2711.18651,0.00540
2709.12633,0.00540
2707.06616,0.00538
2705.00599,0.00547
2702.94582,0.00573
2700.88565,0.00587
2698.82547,0.00573
2696.76530,0.00548
2694.70513,0.00529
2692.64496,0.00527
2690.58478,0.00533
2688.52461,0.00530
2686.46444,0.00511
2684.40427,0.00488
2682.34410,0.00487
2680.28392,0.00505
2678.22375,0.00501
2676.16358,0.00480
2674.10341,0.00476
2672.04324,0.00477
2669.98306,0.00476
2667.92289,0.00479
2665.86272,0.00488
2663.80255,0.00501
2661.74238,0.00505
2659.68220,0.00491
2657.62203,0.00471
2655.56186,0.00471
2653.50169,0.00487
2651.44151,0.00497
2649.38134,0.00497
2647.32117,0.00492
2645.26100,0.00492
2643.20083,0.00489
2641.14065,0.00474
2639.08048,0.00468
2637.02031,0.00481
2634.96014,0.00494
2632.89997,0.00489
2630.83979,0.00483
2628.77962,0.00484
2626.71945,0.00476
2624.65928,0.00473
2622.59910,0.00475
2620.53893,0.00462
2618.47876,0.00444
2616.41859,0.00432
2614.35842,0.00428
2612.29824,0.00448
2610.23807,0.00477
2608.17790,0.00480
2606.11773,0.00458
2604.05756,0.00435
2601.99738,0.00410
2599.93721,0.00401
2597.87704,0.00419
2595.81687,0.00437
2593.75670,0.00431
2591.69652,0.00403
2589.63635,0.00385
2587.57618,0.00411
2585.51601,0.00450
2583.45583,0.00458
2581.39566,0.00448
2579.33549,0.00436
2577.27532,0.00424
2575.21515,0.00415
2573.15497,0.00399
2571.09480,0.00381
2569.03463,0.00391
2566.97446,0.00415
2564.91429,0.00421
2562.85411,0.00403
2560.79394,0.00369
2558.73377,0.00351
2556.67360,0.00376
2554.61342,0.00405
2552.55325,0.00390
2550.49308,0.00369
2548.43291,0.00397
2546.37274,0.00450
2544.31256,0.00472
2542.25239,0.00451
2540.19222,0.00425
2538.13205,0.00420
2536.07188,0.00407
2534.01170,0.00384
2531.95153,0.00393
2529.89136,0.00422
2527.83119,0.00416
2525.77102,0.00366
2523.71084,0.00318
2521.65067,0.00324
2519.59050,0.00370
2517.53033,0.00397
2515.47015,0.00396
2513.40998,0.00392
2511.34981,0.00384
2509.28964,0.00370
2507.22947,0.00344
2505.16929,0.00316
2503.10912,0.00326
2501.04895,0.00343
2498.98878,0.00334
2496.92861,0.00343
2494.86843,0.00373
2492.80826,0.00386
2490.74809,0.00383
2488.68792,0.00376
2486.62775,0.00364
2484.56757,0.00358
2482.50740,0.00369
2480.44723,0.00392
2478.38706,0.00397
2476.32688,0.00374
2474.26671,0.00363
2472.20654,0.00383
2470.14637,0.00393
2468.08620,0.00377
2466.02602,0.00386
2463.96585,0.00424
2461.90568,0.00430
2459.84551,0.00408
2457.78534,0.00413
2455.72516,0.00431
2453.66499,0.00413
2451.60482,0.00372
2449.54465,0.00348
2447.48447,0.00356
2445.42430,0.00382
2443.36413,0.00404
2441.30396,0.00407
2439.24379,0.00410
2437.18361,0.00447
2435.12344,0.00485
2433.06327,0.00464
2431.00310,0.00414
2428.94293,0.00391
2426.88275,0.00391
2424.82258,0.00384
2422.76241,0.00381
2420.70224,0.00395
2418.64207,0.00406
2416.58189,0.00402
2414.52172,0.00396
2412.46155,0.00392
2410.40138,0.00400
2408.34120,0.00415
2406.28103,0.00396
2404.22086,0.00358
2402.16069,0.00349
2400.10052,0.00368
2398.04034,0.00378
2395.98017,0.00384
2393.92000,0.00390
2391.85983,0.00383
2389.79966,0.00369
2387.73948,0.00383
2385.67931,0.00427
2383.61914,0.00440
2381.55897,0.00407
2379.49880,0.00374
2377.43862,0.00384
2375.37845,0.00368
2373.31828,0.00365
2371.25811,0.00396
2369.19793,0.00350
2367.13776,0.00369
2365.07759,0.00474
2363.01742,0.00384
2360.95725,0.00530
2358.89707,0.00567
2356.83690,0.00510
2354.77673,0.00359
2352.71656,0.00245
2350.65639,0.00780
2348.59621,0.01094
2346.53604,0.00353
2344.47587,0.00211
2342.41570,0.00437
2340.35552,0.00522
2338.29535,0.00563
2336.23518,0.00556
2334.17501,0.00602
2332.11484,0.00608
2330.05466,0.00610
2327.99449,0.00541
2325.93432,0.00575
2323.87415,0.00519
2321.81398,0.00466
2319.75380,0.00420
2317.69363,0.00561
2315.63346,0.00634
2313.57329,0.00596
2311.51312,0.00562
2309.45294,0.00546
2307.39277,0.00495
2305.33260,0.00419
2303.27243,0.00395
2301.21225,0.00389
2299.15208,0.00399
2297.09191,0.00414
2295.03174,0.00450
2292.97157,0.00489
2290.91139,0.00482
2288.85122,0.00457
2286.79105,0.00474
2284.73088,0.00532
2282.67071,0.00567
2280.61053,0.00531
2278.55036,0.00447
2276.49019,0.00375
2274.43002,0.00356
2272.36984,0.00351
2270.30967,0.00351
2268.24950,0.00390
2266.18933,0.00437
2264.12916,0.00445
2262.06898,0.00437
2260.00881,0.00419
2257.94864,0.00381
2255.88847,0.00335
2253.82830,0.00317
2251.76812,0.00327
2249.70795,0.00342
2247.64778,0.00366
2245.58761,0.00380
2243.52744,0.00370
2241.46726,0.00379
2239.40709,0.00392
2237.34692,0.00362
2235.28675,0.00336
2233.22657,0.00334
2231.16640,0.00325
2229.10623,0.00318
2227.04606,0.00323
2224.98589,0.00313
2222.92571,0.00324
2220.86554,0.00406
2218.80537,0.00481
2216.74520,0.00473
2214.68503,0.00424
2212.62485,0.00349
2210.56468,0.00304
2208.50451,0.00356
2206.44434,0.00366
2204.38417,0.00288
2202.32399,0.00296
2200.26382,0.00398
2198.20365,0.00419
2196.14348,0.00345
2194.08330,0.00332
2192.02313,0.00413
2189.96296,0.00446
2187.90279,0.00342
2185.84262,0.00216
2183.78244,0.00161
2181.72227,0.00160
2179.66210,0.00236
2177.60193,0.00332
2175.54176,0.00329
2173.48158,0.00279
2171.42141,0.00275
2169.36124,0.00269
2167.30107,0.00239
2165.24089,0.00289
2163.18072,0.00372
2161.12055,0.00292
2159.06038,0.00157
2157.00021,0.00114
2154.94003,0.00099
2152.87986,0.00141
2150.81969,0.00191
2148.75952,0.00215
2146.69935,0.00198
2144.63917,0.00116
2142.57900,0.00103
2140.51883,0.00173
2138.45866,0.00179
2136.39849,0.00133
2134.33831,0.00090
2132.27814,0.00088
2130.21797,0.00148
2128.15780,0.00212
2126.09762,0.00266
2124.03745,0.00306
2121.97728,0.00316
2119.91711,0.00340
2117.85694,0.00387
2115.79676,0.00386
2113.73659,0.00321
2111.67642,0.00280
2109.61625,0.00292
2107.55608,0.00301
2105.49590,0.00300
2103.43573,0.00303
2101.37556,0.00303
2099.31539,0.00305
2097.25521,0.00275
2095.19504,0.00191
2093.13487,0.00135
2091.07470,0.00170
2089.01453,0.00274
2086.95435,0.00368
2084.89418,0.00381
2082.83401,0.00324
2080.77384,0.00263
2078.71367,0.00239
2076.65349,0.00236
2074.59332,0.00245
2072.53315,0.00306
2070.47298,0.00379
2068.41281,0.00361
2066.35263,0.00297
2064.29246,0.00293
2062.23229,0.00327
2060.17212,0.00341
2058.11194,0.00319
2056.05177,0.00299
2053.99160,0.00361
2051.93143,0.00411
2049.87126,0.00356
2047.81108,0.00329
2045.75091,0.00364
2043.69074,0.00314
2041.63057,0.00177
2039.57040,0.00127
2037.51022,0.00215
2035.45005,0.00297
2033.38988,0.00271
2031.32971,0.00231
2029.26954,0.00281
2027.20936,0.00335
2025.14919,0.00299
2023.08902,0.00277
2021.02885,0.00308
2018.96867,0.00290
2016.90850,0.00276
2014.84833,0.00309
2012.78816,0.00277
2010.72799,0.00201
2008.66781,0.00158
2006.60764,0.00095
2004.54747,0.00035
2002.48730,0.00052
2000.42713,0.00075
1998.36695,0.00056
1996.30678,0.00067
1994.24661,0.00133
1992.18644,0.00246
1990.12626,0.00391
1988.06609,0.00453
1986.00592,0.00433
1983.94575,0.00414
1981.88558,0.00361
1979.82540,0.00262
1977.76523,0.00169
1975.70506,0.00104
1973.64489,0.00101
1971.58472,0.00117
1969.52454,0.00089
1967.46437,0.00138
1965.40420,0.00269
1963.34403,0.00330
1961.28386,0.00281
1959.22368,0.00132
1957.16351,0.00000
1955.10334,0.00006
1953.04317,0.00111
1950.98299,0.00221
1948.92282,0.00258
1946.86265,0.00229
1944.80248,0.00201
1942.74231,0.00201
1940.68213,0.00196
1938.62196,0.00158
1936.56179,0.00120
1934.50162,0.00121
1932.44145,0.00158
1930.38127,0.00189
1928.32110,0.00174
1926.26093,0.00131
1924.20076,0.00106
1922.14059,0.00116
1920.08041,0.00131
1918.02024,0.00122
1915.96007,0.00097
1913.89990,0.00070
1911.83972,0.00058
1909.77955,0.00103
1907.71938,0.00198
1905.65921,0.00266
1903.59904,0.00267
1901.53886,0.00227
1899.47869,0.00182
1897.41852,0.00143
1895.35835,0.00115
1893.29818,0.00117
1891.23800,0.00129
1889.17783,0.00127
1887.11766,0.00128
1885.05749,0.00143
1882.99731,0.00148
1880.93714,0.00140
1878.87697,0.00141
1876.81680,0.00160
1874.75663,0.00174
1872.69645,0.00153
1870.63628,0.00090
1868.57611,0.00039
1866.51594,0.00066
1864.45577,0.00123
1862.39559,0.00140
1860.33542,0.00129
1858.27525,0.00111
1856.21508,0.00079
1854.15491,0.00064
1852.09473,0.00100
1850.03456,0.00148
1847.97439,0.00151
1845.91422,0.00116
1843.85404,0.00093
1841.79387,0.00098
1839.73370,0.00101
1837.67353,0.00095
1835.61336,0.00106
1833.55318,0.00135
1831.49301,0.00139
1829.43284,0.00108
1827.37267,0.00074
1825.31250,0.00067
1823.25232,0.00096
1821.19215,0.00138
1819.13198,0.00149
1817.07181,0.00133
1815.01163,0.00115
1812.95146,0.00103
1810.89129,0.00111
1808.83112,0.00144
1806.77095,0.00166
1804.71077,0.00156
1802.65060,0.00136
1800.59043,0.00130
1798.53026,0.00131
1796.47009,0.00127
1794.40991,0.00112
1792.34974,0.00086
1790.28957,0.00082
1788.22940,0.00109
1786.16923,0.00143
1784.10905,0.00164
1782.04888,0.00169
1779.98871,0.00160
1777.92854,0.00150
1775.86836,0.00142
1773.80819,0.00126
1771.74802,0.00106
1769.68785,0.00102
1767.62768,0.00110
1765.56750,0.00123
1763.50733,0.00140
1761.44716,0.00156
1759.38699,0.00169
1757.32682,0.00182
1755.26664,0.00197
1753.20647,0.00199
1751.14630,0.00173
1749.08613,0.00148
1747.02596,0.00164
1744.96578,0.00192
1742.90561,0.00193
1740.84544,0.00175
1738.78527,0.00173
1736.72509,0.00183
1734.66492,0.00181
1732.60475,0.00173
1730.54458,0.00183
1728.48441,0.00211
1726.42423,0.00246
1724.36406,0.00278
1722.30389,0.00301
1720.24372,0.00293
1718.18355,0.00248
1716.12337,0.00222
1714.06320,0.00244
1712.00303,0.00282
1709.94286,0.00314
1707.88268,0.00325
1705.82251,0.00329
1703.76234,0.00354
1701.70217,0.00381
1699.64200,0.00391
1697.58182,0.00399
1695.52165,0.00423
1693.46148,0.00456
1691.40131,0.00477
1689.34114,0.00486
1687.28096,0.00492
1685.22079,0.00493
1683.16062,0.00509
1681.10045,0.00553
1679.04028,0.00598
1676.98010,0.00628
1674.91993,0.00655
1672.85976,0.00675
1670.79959,0.00676
1668.73941,0.00683
1666.67924,0.00707
1664.61907,0.00735
1662.55890,0.00772
1660.49873,0.00814
1658.43855,0.00830
1656.37838,0.00807
1654.31821,0.00768
1652.25804,0.00767
1650.19787,0.00793
1648.13769,0.00799
1646.07752,0.00798
1644.01735,0.00810
1641.95718,0.00818
1639.89701,0.00801
1637.83683,0.00763
1635.77666,0.00731
1633.71649,0.00729
1631.65632,0.00738
1629.59614,0.00739
1627.53597,0.00731
1625.47580,0.00715
1623.41563,0.00698
1621.35546,0.00692
1619.29528,0.00679
1617.23511,0.00652
1615.17494,0.00643
1613.11477,0.00644
1611.05460,0.00630
1608.99442,0.00611
1606.93425,0.00605
1604.87408,0.00595
1602.81391,0.00567
1600.75373,0.00541
1598.69356,0.00535
1596.63339,0.00534
1594.57322,0.00525
1592.51305,0.00506
1590.45287,0.00477
1588.39270,0.00449
1586.33253,0.00431
1584.27236,0.00426
1582.21219,0.00431
1580.15201,0.00413
1578.09184,0.00362
1576.03167,0.00324
1573.97150,0.00343
1571.91133,0.00371
1569.85115,0.00360
1567.79098,0.00329
1565.73081,0.00312
1563.67064,0.00312
1561.61046,0.00310
1559.55029,0.00286
1557.49012,0.00244
1555.42995,0.00212
1553.36978,0.00194
1551.30960,0.00192
1549.24943,0.00210
1547.18926,0.00212
1545.12909,0.00165
1543.06892,0.00100
1541.00874,0.00078
1538.94857,0.00112
1536.88840,0.00142
1534.82823,0.00140
1532.76805,0.00135
1530.70788,0.00146
1528.64771,0.00141
1526.58754,0.00101
1524.52737,0.00060
1522.46719,0.00044
1520.40702,0.00053
1518.34685,0.00069
1516.28668,0.00084
1514.22651,0.00105
1512.16633,0.00111
1510.10616,0.00079
1508.04599,0.00041
1505.98582,0.00060
1503.92565,0.00101
1501.86547,0.00116
1499.80530,0.00108
1497.74513,0.00091
1495.68496,0.00082
1493.62478,0.00079
1491.56461,0.00063
1489.50444,0.00042
1487.44427,0.00053
1485.38410,0.00093
1483.32392,0.00129
1481.26375,0.00134
1479.20358,0.00107
1477.14341,0.00072
1475.08324,0.00053
1473.02306,0.00066
1470.96289,0.00098
1468.90272,0.00121
1466.84255,0.00126
1464.78238,0.00119
1462.72220,0.00106
1460.66203,0.00075
1458.60186,0.00037
1456.54169,0.00047
1454.48151,0.00103
1452.42134,0.00138
1450.36117,0.00139
1448.30100,0.00130
1446.24083,0.00125
1444.18065,0.00128
1442.12048,0.00129
1440.06031,0.00115
1438.00014,0.00084
1435.93997,0.00060
1433.87979,0.00071
1431.81962,0.00100
1429.75945,0.00120
1427.69928,0.00125
1425.63910,0.00122
1423.57893,0.00117
1421.51876,0.00104
1419.45859,0.00078
1417.39842,0.00072
1415.33824,0.00101
1413.27807,0.00134
1411.21790,0.00151
1409.15773,0.00151
1407.09756,0.00135
1405.03738,0.00114
1402.97721,0.00104
1400.91704,0.00099
1398.85687,0.00087
1396.79670,0.00076
1394.73652,0.00081
1392.67635,0.00094
1390.61618,0.00094
1388.55601,0.00088
1386.49583,0.00090
1384.43566,0.00104
1382.37549,0.00118
1380.31532,0.00126
1378.25515,0.00123
1376.19497,0.00104
1374.13480,0.00081
1372.07463,0.00071
1370.01446,0.00073
1367.95429,0.00078
1365.89411,0.00082
1363.83394,0.00076
1361.77377,0.00066
1359.71360,0.00066
1357.65343,0.00080
1355.59325,0.00093
1353.53308,0.00096
1351.47291,0.00095
1349.41274,0.00097
1347.35256,0.00096
1345.29239,0.00082
1343.23222,0.00062
1341.17205,0.00045
1339.11188,0.00047
1337.05170,0.00075
1334.99153,0.00099
1332.93136,0.00095
1330.87119,0.00077
1328.81102,0.00068
1326.75084,0.00067
1324.69067,0.00076
1322.63050,0.00087
1320.57033,0.00083
1318.51015,0.00067
1316.44998,0.00067
1314.38981,0.00081
1312.32964,0.00077
1310.26947,0.00059
1308.20929,0.00049
1306.14912,0.00054
1304.08895,0.00063
1302.02878,0.00066
1299.96861,0.00064
1297.90843,0.00065
1295.84826,0.00070
1293.78809,0.00076
1291.72792,0.00085
1289.66775,0.00090
1287.60757,0.00089
1285.54740,0.00093
1283.48723,0.00098
1281.42706,0.00089
1279.36688,0.00080
1277.30671,0.00086
1275.24654,0.00097
1273.18637,0.00096
1271.12620,0.00091
1269.06602,0.00099
1267.00585,0.00115
1264.94568,0.00112
1262.88551,0.00094
1260.82534,0.00094
1258.76516,0.00118
1256.70499,0.00136
1254.64482,0.00132
1252.58465,0.00114
1250.52447,0.00092
1248.46430,0.00082
1246.40413,0.00094
1244.34396,0.00104
1242.28379,0.00098
1240.22361,0.00098
1238.16344,0.00100
1236.10327,0.00086
1234.04310,0.00073
1231.98293,0.00070
1229.92275,0.00069
1227.86258,0.00061
1225.80241,0.00060
1223.74224,0.00057
1221.68207,0.00034
1219.62189,0.00016
1217.56172,0.00025
1215.50155,0.00038
1213.44138,0.00040
1211.38120,0.00035
1209.32103,0.00024
1207.26086,0.00010
1205.20069,0.00000
1203.14052,0.00001
1201.08034,0.00007
1199.02017,0.00011
1196.96000,0.00021
1194.89983,0.00026
1192.83966,0.00028
1190.77948,0.00033
1188.71931,0.00044
1186.65914,0.00062
1184.59897,0.00085
1182.53880,0.00108
1180.47862,0.00126
1178.41845,0.00131
1176.35828,0.00130
1174.29811,0.00141
1172.23793,0.00176
1170.17776,0.00214
1168.11759,0.00228
1166.05742,0.00235
1163.99725,0.00258
1161.93707,0.00284
1159.87690,0.00307
1157.81673,0.00330
1155.75656,0.00346
1153.69639,0.00364
1151.63621,0.00395
1149.57604,0.00422
1147.51587,0.00450
1145.45570,0.00498
1143.39552,0.00532
1141.33535,0.00529
1139.27518,0.00532
1137.21501,0.00569
1135.15484,0.00627
1133.09466,0.00675
1131.03449,0.00695
1128.97432,0.00715
1126.91415,0.00758
1124.85398,0.00802
1122.79380,0.00829
1120.73363,0.00853
1118.67346,0.00909
1116.61329,0.00983
1114.55312,0.01032
1112.49294,0.01074
1110.43277,0.01135
1108.37260,0.01200
1106.31243,0.01263
1104.25225,0.01329
1102.19208,0.01393
1100.13191,0.01455
1098.07174,0.01519
1096.01157,0.01581
1093.95139,0.01641
1091.89122,0.01706
1089.83105,0.01770
1087.77088,0.01820
1085.71071,0.01870
1083.65053,0.01932
1081.59036,0.01990
1079.53019,0.02032
1077.47002,0.02067
1075.40985,0.02108
1073.34967,0.02145
1071.28950,0.02167
1069.22933,0.02187
1067.16916,0.02199
1065.10898,0.02196
1063.04881,0.02209
1060.98864,0.02241
1058.92847,0.02256
1056.86830,0.02238
1054.80812,0.02205
1052.74795,0.02161
1050.68778,0.02108
1048.62761,0.02071
1046.56744,0.02043
1044.50726,0.02006
1042.44709,0.01963
1040.38692,0.01914
1038.32675,0.01856
1036.26657,0.01800
1034.20640,0.01741
1032.14623,0.01681
1030.08606,0.01640
1028.02589,0.01611
1025.96571,0.01575
1023.90554,0.01528
1021.84537,0.01482
1019.78520,0.01457
1017.72503,0.01438
1015.66485,0.01394
1013.60468,0.01350
1011.54451,0.01341
1009.48434,0.01339
1007.42417,0.01321
1005.36399,0.01300
1003.30382,0.01289
1001.24365,0.01302
999.18348,0.01334
997.12330,0.01367
995.06313,0.01409
993.00296,0.01464
990.94279,0.01506
988.88262,0.01520
986.82244,0.01535
984.76227,0.01578
982.70210,0.01627
980.64193,0.01628
978.58176,0.01563
976.52158,0.01467
974.46141,0.01409
972.40124,0.01395
970.34107,0.01364
968.28089,0.01293
966.22072,0.01199
964.16055,0.01117
962.10038,0.01057
960.04021,0.01013
957.98003,0.00984
955.91986,0.00956
953.85969,0.00932
951.79952,0.00924
949.73935,0.00919
947.67917,0.00903
945.61900,0.00872
943.55883,0.00838
941.49866,0.00834
939.43849,0.00862
937.37831,0.00865
935.31814,0.00846
933.25797,0.00850
931.19780,0.00852
929.13762,0.00840
927.07745,0.00849
925.01728,0.00858
922.95711,0.00837
920.89694,0.00800
918.83676,0.00767
916.77659,0.00733
914.71642,0.00684
912.65625,0.00646
910.59608,0.00642
908.53590,0.00651
906.47573,0.00659
904.41556,0.00671
902.35539,0.00683
900.29522,0.00679
898.23504,0.00640
896.17487,0.00605
894.11470,0.00617
892.05453,0.00643
889.99435,0.00650
887.93418,0.00656
885.87401,0.00671
883.81384,0.00693
881.75367,0.00715
879.69349,0.00744
877.63332,0.00791
875.57315,0.00821
873.51298,0.00814
871.45281,0.00820
869.39263,0.00848
867.33246,0.00875
865.27229,0.00913
863.21212,0.00931
861.15194,0.00913
859.09177,0.00899
857.03160,0.00901
854.97143,0.00894
852.91126,0.00861
850.85108,0.00845
848.79091,0.00867
846.73074,0.00887
844.67057,0.00892
842.61040,0.00898
840.55022,0.00885
838.49005,0.00843
836.42988,0.00819
834.36971,0.00826
832.30954,0.00825
830.24936,0.00807
828.18919,0.00780
826.12902,0.00742
824.06885,0.00714
822.00867,0.00706
819.94850,0.00693
817.88833,0.00698
815.82816,0.00731
813.76799,0.00721
811.70781,0.00652
809.64764,0.00606
807.58747,0.00601
805.52730,0.00604
803.46713,0.00643
801.40695,0.00675
799.34678,0.00632
797.28661,0.00566
795.22644,0.00547
793.16627,0.00577
791.10609,0.00620
789.04592,0.00617
786.98575,0.00581
784.92558,0.00582
782.86540,0.00614
780.80523,0.00624
778.74506,0.00616
776.68489,0.00617
774.62472,0.00616
772.56454,0.00629
770.50437,0.00671
768.44420,0.00690
766.38403,0.00657
764.32386,0.00615
762.26368,0.00606
760.20351,0.00613
758.14334,0.00643
756.08317,0.00684
754.02299,0.00688
751.96282,0.00657
749.90265,0.00606
747.84248,0.00537
745.78231,0.00484
743.72213,0.00471
741.66196,0.00500
739.60179,0.00556
737.54162,0.00607
735.48145,0.00661
733.42127,0.00715
731.36110,0.00721
729.30093,0.00669
727.24076,0.00626
725.18059,0.00636
723.12041,0.00704
721.06024,0.00654
719.00007,0.00691
716.93990,0.00720
714.87972,0.00665
712.81955,0.00615
710.75938,0.00582
708.69921,0.00579
706.63904,0.00632
704.57886,0.00709
702.51869,0.00739
700.45852,0.00734
698.39835,0.00773
696.33818,0.00874
694.27800,0.00981
692.21783,0.01020
690.15766,0.01000
688.09749,0.01007
686.03731,0.01068
683.97714,0.01109
681.91697,0.01107
679.85680,0.01056
677.79663,0.00899
675.73645,0.00773
673.67628,0.01052
671.61611,0.01547
669.55594,0.00718
667.49577,0.00000
665.43559,0.01398
663.37542,0.01195
661.31525,0.00771
659.25508,0.00760
657.19491,0.00853
655.13473,0.00851
653.07456,0.00792
651.01439,0.00751
648.95422,0.00704
646.89404,0.00709
644.83387,0.00678
642.77370,0.00595
640.71353,0.00496
638.65336,0.00469
636.59318,0.00519
634.53301,0.00526
632.47284,0.00381
630.41267,0.00148
628.35250,0.00000
626.29232,0.00035
624.23215,0.00109
622.17198,0.00168
620.11181,0.00219
618.05164,0.00219
615.99146,0.00220
613.93129,0.00202
611.87112,0.00087
609.81095,-0.00097
607.75077,-0.00220
605.69060,-0.00231
603.63043,-0.00174
601.57026,-0.00048
599.51009,0.00000
