3996.73391,0.00105
3994.67373,0.00059
3992.61356,0.00014
3990.55339,0.00000
3988.49322,0.00019
3986.43305,0.00047
3984.37287,0.00053
3982.31270,0.00037
3980.25253,0.00029
3978.19236,0.00043
3976.13219,0.00065
3974.07201,0.00074
3972.01184,0.00071
3969.95167,0.00092
3967.89150,0.00123
3965.83133,0.00110
3963.77115,0.00073
3961.71098,0.00065
3959.65081,0.00071
3957.59064,0.00067
3955.53046,0.00067
3953.47029,0.00072
3951.41012,0.00061
3949.34995,0.00047
3947.28978,0.00056
3945.22960,0.00065
3943.16943,0.00051
3941.10926,0.00050
3939.04909,0.00078
3936.98892,0.00087
3934.92874,0.00061
3932.86857,0.00051
3930.80840,0.00071
3928.74823,0.00083
3926.68805,0.00081
3924.62788,0.00094
3922.56771,0.00120
3920.50754,0.00118
3918.44737,0.00081
3916.38719,0.00058
3914.32702,0.00066
3912.26685,0.00074
3910.20668,0.00070
3908.14651,0.00064
3906.08633,0.00058
3904.02616,0.00052
3901.96599,0.00050
3899.90582,0.00062
3897.84565,0.00080
3895.78547,0.00076
3893.72530,0.00038
3891.66513,0.00000
3889.60496,0.00019
3887.54478,0.00077
3885.48461,0.00109
3883.42444,0.00102
3881.36427,0.00091
3879.30410,0.00097
3877.24392,0.00105
3875.18375,0.00104
3873.12358,0.00106
3871.06341,0.00110
3869.00324,0.00092
3866.94306,0.00048
3864.88289,0.00014
3862.82272,0.00031
3860.76255,0.00075
3858.70237,0.00095
3856.64220,0.00110
3854.58203,0.00152
3852.52186,0.00179
3850.46169,0.00152
3848.40151,0.00111
3846.34134,0.00089
3844.28117,0.00086
3842.22100,0.00097
3840.16083,0.00110
3838.10065,0.00106
3836.04048,0.00083
3833.98031,0.00046
3831.92014,0.00009
3829.85997,0.00017
3827.79979,0.00066
3825.73962,0.00093
3823.67945,0.00072
3821.61928,0.00031
3819.55910,0.00011
3817.49893,0.00027
3815.43876,0.00078
3813.37859,0.00143
3811.31842,0.00172
3809.25824,0.00150
3807.19807,0.00101
3805.13790,0.00076
3803.07773,0.00097
3801.01756,0.00137
3798.95738,0.00148
3796.89721,0.00128
3794.83704,0.00115
3792.77687,0.00126
3790.71670,0.00138
3788.65652,0.00138
3786.59635,0.00117
3784.53618,0.00082
3782.47601,0.00062
3780.41583,0.00054
3778.35566,0.00042
3776.29549,0.00041
3774.23532,0.00048
3772.17515,0.00049
3770.11497,0.00061
3768.05480,0.00109
3765.99463,0.00151
3763.93446,0.00145
3761.87429,0.00123
3759.81411,0.00133
3757.75394,0.00168
3755.69377,0.00189
3753.63360,0.00172
3751.57342,0.00125
3749.51325,0.00087
3747.45308,0.00090
3745.39291,0.00139
3743.33274,0.00180
3741.27256,0.00175
3739.21239,0.00168
3737.15222,0.00150
3735.09205,0.00075
3733.03188,0.00000
3730.97170,0.00031
3728.91153,0.00119
3726.85136,0.00156
3724.79119,0.00143
3722.73102,0.00149
3720.67084,0.00165
3718.61067,0.00148
3716.55050,0.00114
3714.49033,0.00103
3712.43015,0.00120
3710.36998,0.00132
3708.30981,0.00123
3706.24964,0.00124
3704.18947,0.00138
3702.12929,0.00158
3700.06912,0.00176
3698.00895,0.00192
3695.94878,0.00235
3693.88861,0.00288
3691.82843,0.00282
3689.76826,0.00230
3687.70809,0.00201
3685.64792,0.00176
3683.58775,0.00144
3681.52757,0.00125
3679.46740,0.00107
3677.40723,0.00058
3675.34706,0.00000
3673.28688,0.00008
3671.22671,0.00086
3669.16654,0.00174
3667.10637,0.00208
3665.04620,0.00184
3662.98602,0.00167
3660.92585,0.00198
3658.86568,0.00244
3656.80551,0.00275
3654.74534,0.00294
3652.68516,0.00281
3650.62499,0.00251
3648.56482,0.00269
3646.50465,0.00321
3644.44447,0.00349
3642.38430,0.00365
3640.32413,0.00398
3638.26396,0.00440
3636.20379,0.00464
3634.14361,0.00478
3632.08344,0.00499
3630.02327,0.00508
3627.96310,0.00513
3625.90293,0.00548
3623.84275,0.00597
3621.78258,0.00617
3619.72241,0.00592
3617.66224,0.00569
3615.60207,0.00592
3613.54189,0.00646
3611.48172,0.00705
3609.42155,0.00750
3607.36138,0.00763
3605.30120,0.00763
3603.24103,0.00778
3601.18086,0.00798
3599.12069,0.00801
3597.06052,0.00798
3595.00034,0.00822
3592.94017,0.00889
3590.88000,0.00967
3588.81983,0.01003
3586.75966,0.00996
3584.69948,0.01016
3582.63931,0.01084
3580.57914,0.01155
3578.51897,0.01184
3576.45879,0.01175
3574.39862,0.01165
3572.33845,0.01187
3570.27828,0.01246
3568.21811,0.01312
3566.15793,0.01336
3564.09776,0.01315
3562.03759,0.01314
3559.97742,0.01343
3557.91725,0.01367
3555.85707,0.01384
3553.79690,0.01401
3551.73673,0.01415
3549.67656,0.01419
3547.61639,0.01412
3545.55621,0.01421
3543.49604,0.01465
3541.43587,0.01523
3539.37570,0.01580
3537.31552,0.01619
3535.25535,0.01633
3533.19518,0.01638
3531.13501,0.01644
3529.07484,0.01660
3527.01466,0.01701
3524.95449,0.01755
3522.89432,0.01794
3520.83415,0.01802
3518.77398,0.01777
3516.71380,0.01760
3514.65363,0.01796
3512.59346,0.01866
3510.53329,0.01917
3508.47312,0.01932
3506.41294,0.01919
3504.35277,0.01904
3502.29260,0.01925
3500.23243,0.01971
3498.17225,0.02013
3496.11208,0.02042
3494.05191,0.02055
3491.99174,0.02074
3489.93157,0.02108
3487.87139,0.02138
3485.81122,0.02159
3483.75105,0.02176
3481.69088,0.02189
3479.63071,0.02197
3477.57053,0.02193
3475.51036,0.02179
3473.45019,0.02178
3471.39002,0.02219
3469.32984,0.02279
3467.26967,0.02319
3465.20950,0.02333
3463.14933,0.02349
3461.08916,0.02380
3459.02898,0.02397
3456.96881,0.02401
3454.90864,0.02421
3452.84847,0.02443
3450.78830,0.02451
3448.72812,0.02455
3446.66795,0.02459
3444.60778,0.02469
3442.54761,0.02506
3440.48744,0.02542
3438.42726,0.02557
3436.36709,0.02580
3434.30692,0.02601
3432.24675,0.02599
3430.18657,0.02588
3428.12640,0.02580
3426.06623,0.02592
3424.00606,0.02640
3421.94589,0.02680
3419.88571,0.02668
3417.82554,0.02637
3415.76537,0.02639
3413.70520,0.02666
3411.64503,0.02669
3409.58485,0.02666
3407.52468,0.02684
3405.46451,0.02718
3403.40434,0.02740
3401.34416,0.02748
3399.28399,0.02787
3397.22382,0.02846
3395.16365,0.02874
3393.10348,0.02855
3391.04330,0.02816
3388.98313,0.02788
3386.92296,0.02798
3384.86279,0.02826
3382.80262,0.02827
3380.74244,0.02825
3378.68227,0.02832
3376.62210,0.02824
3374.56193,0.02818
3372.50176,0.02835
3370.44158,0.02860
3368.38141,0.02878
3366.32124,0.02881
3364.26107,0.02888
3362.20089,0.02932
3360.14072,0.03000
3358.08055,0.03034
3356.02038,0.03016
3353.96021,0.02980
3351.90003,0.02952
3349.83986,0.02937
3347.77969,0.02925
3345.71952,0.02922
3343.65935,0.02940
3341.59917,0.02961
3339.53900,0.02971
3337.47883,0.02980
3335.41866,0.02994
3333.35849,0.03005
3331.29831,0.03009
3329.23814,0.03012
3327.17797,0.03004
3325.11780,0.02979
3323.05762,0.02951
3320.99745,0.02928
3318.93728,0.02919
3316.87711,0.02930
3314.81694,0.02944
3312.75676,0.02932
3310.69659,0.02906
3308.63642,0.02906
3306.57625,0.02941
3304.51608,0.02972
3302.45590,0.02976
3300.39573,0.02975
3298.33556,0.02979
3296.27539,0.02976
3294.21521,0.02978
3292.15504,0.02996
3290.09487,0.03025
3288.03470,0.03044
3285.97453,0.03027
3283.91435,0.02983
3281.85418,0.02947
3279.79401,0.02940
3277.73384,0.02956
3275.67367,0.02976
3273.61349,0.02998
3271.55332,0.03019
3269.49315,0.03021
3267.43298,0.03011
3265.37281,0.03015
3263.31263,0.03019
3261.25246,0.03017
3259.19229,0.03025
3257.13212,0.03031
3255.07194,0.03014
3253.01177,0.02986
3250.95160,0.02967
3248.89143,0.02966
3246.83126,0.02976
3244.77108,0.02997
3242.71091,0.03026
3240.65074,0.03048
3238.59057,0.03040
3236.53040,0.03019
3234.47022,0.03032
3232.41005,0.03074
3230.34988,0.03098
3228.28971,0.03073
3226.22954,0.03023
3224.16936,0.02995
3222.10919,0.02991
3220.04902,0.03000
3217.98885,0.03022
3215.92867,0.03029
3213.86850,0.03007
3211.80833,0.02982
3209.74816,0.02962
3207.68799,0.02940
3205.62781,0.02931
3203.56764,0.02935
3201.50747,0.02944
3199.44730,0.02948
3197.38713,0.02948
3195.32695,0.02966
3193.26678,0.02986
3191.20661,0.02972
3189.14644,0.02940
3187.08626,0.02918
3185.02609,0.02904
3182.96592,0.02904
3180.90575,0.02913
3178.84558,0.02901
3176.78540,0.02893
3174.72523,0.02912
3172.66506,0.02910
3170.60489,0.02890
3168.54472,0.02900
3166.48454,0.02917
3164.42437,0.02909
3162.36420,0.02866
3160.30403,0.02806
3158.24386,0.02789
3156.18368,0.02816
3154.12351,0.02841
3152.06334,0.02849
3150.00317,0.02834
3147.94299,0.02800
3145.88282,0.02771
3143.82265,0.02758
3141.76248,0.02758
3139.70231,0.02769
3137.64213,0.02780
3135.58196,0.02757
3133.52179,0.02711
3131.46162,0.02684
3129.40145,0.02680
3127.34127,0.02682
3125.28110,0.02678
3123.22093,0.02669
3121.16076,0.02664
3119.10058,0.02660
3117.04041,0.02672
3114.98024,0.02702
3112.92007,0.02688
3110.85990,0.02632
3108.79972,0.02609
3106.73955,0.02625
3104.67938,0.02638
3102.61921,0.02642
3100.55904,0.02628
3098.49886,0.02596
3096.43869,0.02576
3094.37852,0.02577
3092.31835,0.02581
3090.25818,0.02571
3088.19800,0.02553
3086.13783,0.02536
3084.07766,0.02510
3082.01749,0.02479
3079.95731,0.02457
3077.89714,0.02448
3075.83697,0.02454
3073.77680,0.02481
3071.71663,0.02489
3069.65645,0.02460
3067.59628,0.02434
3065.53611,0.02414
3063.47594,0.02391
3061.41577,0.02380
3059.35559,0.02377
3057.29542,0.02369
3055.23525,0.02357
3053.17508,0.02348
3051.11491,0.02336
3049.05473,0.02317
3046.99456,0.02300
3044.93439,0.02297
3042.87422,0.02310
3040.81404,0.02313
3038.75387,0.02284
3036.69370,0.02239
3034.63353,0.02195
3032.57336,0.02175
3030.51318,0.02188
3028.45301,0.02201
3026.39284,0.02190
3024.33267,0.02175
3022.27250,0.02171
3020.21232,0.02163
3018.15215,0.02144
3016.09198,0.02131
3014.03181,0.02137
3011.97163,0.02140
3009.91146,0.02121
3007.85129,0.02081
3005.79112,0.02050
3003.73095,0.02050
3001.67077,0.02057
2999.61060,0.02039
2997.55043,0.02009
2995.49026,0.01985
2993.43009,0.01970
2991.36991,0.01952
2989.30974,0.01926
2987.24957,0.01911
2985.18940,0.01921
2983.12923,0.01928
2981.06905,0.01899
2979.00888,0.01858
2976.94871,0.01857
2974.88854,0.01888
2972.82836,0.01908
2970.76819,0.01906
2968.70802,0.01900
2966.64785,0.01901
2964.58768,0.01904
2962.52750,0.01911
2960.46733,0.01928
2958.40716,0.01939
2956.34699,0.01927
2954.28682,0.01894
2952.22664,0.01853
2950.16647,0.01839
2948.10630,0.01860
2946.04613,0.01870
2943.98596,0.01857
2941.92578,0.01862
2939.86561,0.01890
2937.80544,0.01910
2935.74527,0.01923
2933.68509,0.01926
2931.62492,0.01913
2929.56475,0.01904
2927.50458,0.01916
2925.44441,0.01932
2923.38423,0.01927
2921.32406,0.01910
2919.26389,0.01908
2917.20372,0.01921
2915.14355,0.01903
2913.08337,0.01856
2911.02320,0.01821
2908.96303,0.01817
2906.90286,0.01823
2904.84268,0.01793
2902.78251,0.01746
2900.72234,0.01733
2898.66217,0.01740
2896.60200,0.01754
2894.54182,0.01774
2892.48165,0.01789
2890.42148,0.01789
2888.36131,0.01764
2886.30114,0.01718
2884.24096,0.01686
2882.18079,0.01677
2880.12062,0.01673
2878.06045,0.01682
2876.00028,0.01699
2873.94010,0.01699
2871.87993,0.01688
2869.81976,0.01692
2867.75959,0.01704
2865.69941,0.01694
2863.63924,0.01657
2861.57907,0.01626
2859.51890,0.01625
2857.45873,0.01638
2855.39855,0.01648
2853.33838,0.01644
2851.27821,0.01627
2849.21804,0.01600
2847.15787,0.01561
2845.09769,0.01539
2843.03752,0.01548
2840.97735,0.01555
2838.91718,0.01537
2836.85700,0.01511
2834.79683,0.01504
2832.73666,0.01504
2830.67649,0.01503
2828.61632,0.01507
2826.55614,0.01503
2824.49597,0.01492
2822.43580,0.01489
2820.37563,0.01475
2818.31546,0.01449
2816.25528,0.01430
2814.19511,0.01423
2812.13494,0.01423
2810.07477,0.01426
2808.01460,0.01423
2805.95442,0.01405
2803.89425,0.01390
2801.83408,0.01391
2799.77391,0.01389
2797.71373,0.01381
2795.65356,0.01371
2793.59339,0.01357
2791.53322,0.01345
2789.47305,0.01343
2787.41287,0.01338
2785.35270,0.01322
2783.29253,0.01306
2781.23236,0.01304
2779.17219,0.01312
2777.11201,0.01312
2775.05184,0.01296
2772.99167,0.01278
2770.93150,0.01271
2768.87133,0.01255
2766.81115,0.01246
2764.75098,0.01263
2762.69081,0.01274
2760.63064,0.01266
2758.57046,0.01268
2756.51029,0.01272
2754.45012,0.01258
2752.38995,0.01234
2750.32978,0.01211
2748.26960,0.01206
2746.20943,0.01222
2744.14926,0.01232
2742.08909,0.01228
2740.02892,0.01236
2737.96874,0.01242
2735.90857,0.01222
2733.84840,0.01198
2731.78823,0.01181
2729.72805,0.01167
2727.66788,0.01150
2725.60771,0.01136
2723.54754,0.01147
2721.48737,0.01166
2719.42719,0.01166
2717.36702,0.01163
2715.30685,0.01171
2713.24668,0.01174
2711.18651,0.01163
2709.12633,0.01133
2707.06616,0.01099
2705.00599,0.01085
2702.94582,0.01078
2700.88565,0.01061
2698.82547,0.01055
2696.76530,0.01064
2694.70513,0.01063
2692.64496,0.01054
2690.58478,0.01055
2688.52461,0.01051
2686.46444,0.01034
2684.40427,0.01030
2682.34410,0.01042
2680.28392,0.01038
2678.22375,0.01018
2676.16358,0.01002
2674.10341,0.01000
2672.04324,0.01001
2669.98306,0.00990
2667.92289,0.00973
2665.86272,0.00962
2663.80255,0.00968
2661.74238,0.00971
2659.68220,0.00947
2657.62203,0.00911
2655.56186,0.00892
2653.50169,0.00900
2651.44151,0.00912
2649.38134,0.00918
2647.32117,0.00904
2645.26100,0.00872
2643.20083,0.00864
2641.14065,0.00883
2639.08048,0.00882
2637.02031,0.00866
2634.96014,0.00867
2632.89997,0.00872
2630.83979,0.00862
2628.77962,0.00853
2626.71945,0.00864
2624.65928,0.00862
2622.59910,0.00830
2620.53893,0.00793
2618.47876,0.00766
2616.41859,0.00770
2614.35842,0.00796
2612.29824,0.00820
2610.23807,0.00837
2608.17790,0.00837
2606.11773,0.00815
2604.05756,0.00783
2601.99738,0.00768
2599.93721,0.00756
2597.87704,0.00749
2595.81687,0.00772
2593.75670,0.00784
2591.69652,0.00756
2589.63635,0.00728
2587.57618,0.00724
2585.51601,0.00739
2583.45583,0.00752
2581.39566,0.00740
2579.33549,0.00723
2577.27532,0.00741
2575.21515,0.00770
2573.15497,0.00777
2571.09480,0.00756
2569.03463,0.00714
2566.97446,0.00690
2564.91429,0.00688
2562.85411,0.00685
2560.79394,0.00683
2558.73377,0.00687
2556.67360,0.00702
2554.61342,0.00713
2552.55325,0.00708
2550.49308,0.00699
2548.43291,0.00695
2546.37274,0.00689
2544.31256,0.00680
2542.25239,0.00692
2540.19222,0.00709
2538.13205,0.00710
2536.07188,0.00705
2534.01170,0.00691
2531.95153,0.00681
2529.89136,0.00707
2527.83119,0.00746
2525.77102,0.00753
2523.71084,0.00740
2521.65067,0.00732
2519.59050,0.00726
2517.53033,0.00704
2515.47015,0.00693
2513.40998,0.00744
2511.34981,0.00809
2509.28964,0.00823
2507.22947,0.00785
2505.16929,0.00721
2503.10912,0.00671
2501.04895,0.00667
2498.98878,0.00690
2496.92861,0.00719
2494.86843,0.00746
2492.80826,0.00751
2490.74809,0.00727
2488.68792,0.00724
2486.62775,0.00756
2484.56757,0.00771
2482.50740,0.00769
2480.44723,0.00788
2478.38706,0.00803
2476.32688,0.00781
2474.26671,0.00762
2472.20654,0.00769
2470.14637,0.00769
2468.08620,0.00767
2466.02602,0.00763
2463.96585,0.00741
2461.90568,0.00723
2459.84551,0.00718
2457.78534,0.00721
2455.72516,0.00718
2453.66499,0.00721
2451.60482,0.00750
2449.54465,0.00764
2447.48447,0.00742
2445.42430,0.00731
2443.36413,0.00747
2441.30396,0.00750
2439.24379,0.00756
2437.18361,0.00803
2435.12344,0.00817
2433.06327,0.00784
2431.00310,0.00790
2428.94293,0.00815
2426.88275,0.00804
2424.82258,0.00777
2422.76241,0.00755
2420.70224,0.00756
2418.64207,0.00774
2416.58189,0.00772
2414.52172,0.00756
2412.46155,0.00748
2410.40138,0.00745
2408.34120,0.00757
2406.28103,0.00779
2404.22086,0.00804
2402.16069,0.00828
2400.10052,0.00828
2398.04034,0.00789
2395.98017,0.00754
2393.92000,0.00759
2391.85983,0.00772
2389.79966,0.00760
2387.73948,0.00749
2385.67931,0.00762
2383.61914,0.00779
2381.55897,0.00796
2379.49880,0.00809
2377.43862,0.00809
2375.37845,0.00855
2373.31828,0.00994
2371.25811,0.01120
2369.19793,0.01046
2367.13776,0.00706
2365.07759,0.00311
2363.01742,0.00163
2360.95725,0.00181
2358.89707,0.00148
2356.83690,0.00196
2354.77673,0.00369
2352.71656,0.00523
2350.65639,0.00625
2348.59621,0.00720
2346.53604,0.00798
2344.47587,0.00784
2342.41570,0.00716
2340.35552,0.00737
2338.29535,0.00793
2336.23518,0.00823
2334.17501,0.00825
2332.11484,0.00739
2330.05466,0.00583
2327.99449,0.00545
2325.93432,0.00669
2323.87415,0.00777
2321.81398,0.00795
2319.75380,0.00778
2317.69363,0.00739
2315.63346,0.00678
2313.57329,0.00645
2311.51312,0.00659
2309.45294,0.00685
2307.39277,0.00697
2305.33260,0.00700
2303.27243,0.00713
2301.21225,0.00706
2299.15208,0.00654
2297.09191,0.00631
2295.03174,0.00664
2292.97157,0.00692
2290.91139,0.00704
2288.85122,0.00717
2286.79105,0.00707
2284.73088,0.00685
2282.67071,0.00688
2280.61053,0.00691
2278.55036,0.00659
2276.49019,0.00609
2274.43002,0.00570
2272.36984,0.00566
2270.30967,0.00587
2268.24950,0.00585
2266.18933,0.00555
2264.12916,0.00524
2262.06898,0.00487
2260.00881,0.00435
2257.94864,0.00425
2255.88847,0.00490
2253.82830,0.00535
2251.76812,0.00515
2249.70795,0.00527
2247.64778,0.00611
2245.58761,0.00610
2243.52744,0.00501
2241.46726,0.00447
2239.40709,0.00503
2237.34692,0.00545
2235.28675,0.00526
2233.22657,0.00546
2231.16640,0.00561
2229.10623,0.00477
2227.04606,0.00410
2224.98589,0.00436
2222.92571,0.00435
2220.86554,0.00386
2218.80537,0.00385
2216.74520,0.00399
2214.68503,0.00424
2212.62485,0.00511
2210.56468,0.00596
2208.50451,0.00594
2206.44434,0.00502
2204.38417,0.00421
2202.32399,0.00446
2200.26382,0.00515
2198.20365,0.00527
2196.14348,0.00461
2194.08330,0.00347
2192.02313,0.00266
2189.96296,0.00271
2187.90279,0.00312
2185.84262,0.00358
2183.78244,0.00318
2181.72227,0.00207
2179.66210,0.00237
2177.60193,0.00336
2175.54176,0.00357
2173.48158,0.00393
2171.42141,0.00403
2169.36124,0.00292
2167.30107,0.00192
2165.24089,0.00240
2163.18072,0.00343
2161.12055,0.00433
2159.06038,0.00537
2157.00021,0.00583
2154.94003,0.00552
2152.87986,0.00510
2150.81969,0.00512
2148.75952,0.00492
2146.69935,0.00396
2144.63917,0.00321
2142.57900,0.00303
2140.51883,0.00279
2138.45866,0.00256
2136.39849,0.00242
2134.33831,0.00269
2132.27814,0.00355
2130.21797,0.00391
2128.15780,0.00377
2126.09762,0.00381
2124.03745,0.00384
2121.97728,0.00358
2119.91711,0.00319
2117.85694,0.00264
2115.79676,0.00229
2113.73659,0.00286
2111.67642,0.00349
2109.61625,0.00351
2107.55608,0.00364
2105.49590,0.00403
2103.43573,0.00439
2101.37556,0.00436
2099.31539,0.00382
2097.25521,0.00321
2095.19504,0.00298
2093.13487,0.00317
2091.07470,0.00312
2089.01453,0.00312
2086.95435,0.00373
2084.89418,0.00389
2082.83401,0.00323
2080.77384,0.00276
2078.71367,0.00307
2076.65349,0.00368
2074.59332,0.00374
2072.53315,0.00353
2070.47298,0.00323
2068.41281,0.00274
2066.35263,0.00279
2064.29246,0.00319
2062.23229,0.00301
2060.17212,0.00250
2058.11194,0.00225
2056.05177,0.00213
2053.99160,0.00213
2051.93143,0.00240
2049.87126,0.00222
2047.81108,0.00156
2045.75091,0.00154
2043.69074,0.00216
2041.63057,0.00295
2039.57040,0.00335
2037.51022,0.00253
2035.45005,0.00161
2033.38988,0.00183
2031.32971,0.00214
2029.26954,0.00185
2027.20936,0.00140
2025.14919,0.00067
2023.08902,0.00000
2021.02885,0.00017
2018.96867,0.00084
2016.90850,0.00152
2014.84833,0.00222
2012.78816,0.00238
2010.72799,0.00203
2008.66781,0.00199
2006.60764,0.00170
2004.54747,0.00136
2002.48730,0.00187
2000.42713,0.00224
1998.36695,0.00184
1996.30678,0.00138
1994.24661,0.00181
1992.18644,0.00282
1990.12626,0.00291
1988.06609,0.00188
1986.00592,0.00054
1983.94575,0.00015
1981.88558,0.00099
1979.82540,0.00121
1977.76523,0.00053
1975.70506,0.00059
1973.64489,0.00158
1971.58472,0.00255
1969.52454,0.00198
1967.46437,0.00044
1965.40420,0.00062
1963.34403,0.00192
1961.28386,0.00188
1959.22368,0.00075
1957.16351,0.00031
1955.10334,0.00105
1953.04317,0.00231
1950.98299,0.00309
1948.92282,0.00265
1946.86265,0.00132
1944.80248,0.00044
1942.74231,0.00081
1940.68213,0.00171
1938.62196,0.00230
1936.56179,0.00252
1934.50162,0.00231
1932.44145,0.00199
1930.38127,0.00200
1928.32110,0.00181
1926.26093,0.00139
1924.20076,0.00182
1922.14059,0.00307
1920.08041,0.00363
1918.02024,0.00297
1915.96007,0.00227
1913.89990,0.00226
1911.83972,0.00225
1909.77955,0.00183
1907.71938,0.00147
1905.65921,0.00148
1903.59904,0.00174
1901.53886,0.00181
1899.47869,0.00151
1897.41852,0.00122
1895.35835,0.00144
1893.29818,0.00226
1891.23800,0.00305
1889.17783,0.00329
1887.11766,0.00302
1885.05749,0.00254
1882.99731,0.00201
1880.93714,0.00165
1878.87697,0.00162
1876.81680,0.00179
1874.75663,0.00199
1872.69645,0.00198
1870.63628,0.00153
1868.57611,0.00108
1866.51594,0.00137
1864.45577,0.00216
1862.39559,0.00270
1860.33542,0.00280
1858.27525,0.00257
1856.21508,0.00211
1854.15491,0.00168
1852.09473,0.00158
1850.03456,0.00165
1847.97439,0.00160
1845.91422,0.00151
1843.85404,0.00162
1841.79387,0.00194
1839.73370,0.00217
1837.67353,0.00218
1835.61336,0.00211
1833.55318,0.00208
1831.49301,0.00215
1829.43284,0.00249
1827.37267,0.00287
1825.31250,0.00291
1823.25232,0.00276
1821.19215,0.00274
1819.13198,0.00280
1817.07181,0.00270
1815.01163,0.00255
1812.95146,0.00250
1810.89129,0.00237
1808.83112,0.00223
1806.77095,0.00229
1804.71077,0.00234
1802.65060,0.00225
1800.59043,0.00229
1798.53026,0.00248
1796.47009,0.00255
1794.40991,0.00248
1792.34974,0.00242
1790.28957,0.00248
1788.22940,0.00269
1786.16923,0.00284
1784.10905,0.00286
1782.04888,0.00287
1779.98871,0.00285
1777.92854,0.00274
1775.86836,0.00255
1773.80819,0.00228
1771.74802,0.00205
1769.68785,0.00211
1767.62768,0.00237
1765.56750,0.00265
1763.50733,0.00277
1761.44716,0.00278
1759.38699,0.00289
1757.32682,0.00310
1755.26664,0.00314
1753.20647,0.00290
1751.14630,0.00263
1749.08613,0.00271
1747.02596,0.00309
1744.96578,0.00341
1742.90561,0.00364
1740.84544,0.00383
1738.78527,0.00379
1736.72509,0.00347
1734.66492,0.00312
1732.60475,0.00321
1730.54458,0.00367
1728.48441,0.00398
1726.42423,0.00400
1724.36406,0.00394
1722.30389,0.00397
1720.24372,0.00384
1718.18355,0.00351
1716.12337,0.00361
1714.06320,0.00419
1712.00303,0.00467
1709.94286,0.00491
1707.88268,0.00494
1705.82251,0.00479
1703.76234,0.00477
1701.70217,0.00505
1699.64200,0.00537
1697.58182,0.00554
1695.52165,0.00583
1693.46148,0.00633
1691.40131,0.00674
1689.34114,0.00685
1687.28096,0.00668
1685.22079,0.00649
1683.16062,0.00678
1681.10045,0.00742
1679.04028,0.00785
1676.98010,0.00790
1674.91993,0.00787
1672.85976,0.00804
1670.79959,0.00832
1668.73941,0.00865
1666.67924,0.00895
1664.61907,0.00909
1662.55890,0.00922
1660.49873,0.00950
1658.43855,0.00980
1656.37838,0.00989
1654.31821,0.00963
1652.25804,0.00928
1650.19787,0.00922
1648.13769,0.00937
1646.07752,0.00970
1644.01735,0.01001
1641.95718,0.00998
1639.89701,0.00960
1637.83683,0.00919
1635.77666,0.00915
1633.71649,0.00945
1631.65632,0.00958
1629.59614,0.00953
1627.53597,0.00951
1625.47580,0.00940
1623.41563,0.00908
1621.35546,0.00889
1619.29528,0.00886
1617.23511,0.00867
1615.17494,0.00853
1613.11477,0.00865
1611.05460,0.00868
1608.99442,0.00852
1606.93425,0.00827
1604.87408,0.00789
1602.81391,0.00755
1600.75373,0.00745
1598.69356,0.00746
1596.63339,0.00739
1594.57322,0.00721
1592.51305,0.00703
1590.45287,0.00689
1588.39270,0.00684
1586.33253,0.00682
1584.27236,0.00668
1582.21219,0.00636
1580.15201,0.00598
1578.09184,0.00559
1576.03167,0.00532
1573.97150,0.00534
1571.91133,0.00530
1569.85115,0.00497
1567.79098,0.00479
1565.73081,0.00496
1563.67064,0.00508
1561.61046,0.00472
1559.55029,0.00376
1557.49012,0.00320
1555.42995,0.00354
1553.36978,0.00385
1551.30960,0.00381
1549.24943,0.00369
1547.18926,0.00354
1545.12909,0.00307
1543.06892,0.00216
1541.00874,0.00132
1538.94857,0.00137
1536.88840,0.00194
1534.82823,0.00226
1532.76805,0.00243
1530.70788,0.00255
1528.64771,0.00239
1526.58754,0.00208
1524.52737,0.00191
1522.46719,0.00184
1520.40702,0.00183
1518.34685,0.00187
1516.28668,0.00202
1514.22651,0.00223
1512.16633,0.00212
1510.10616,0.00158
1508.04599,0.00099
1505.98582,0.00097
1503.92565,0.00142
1501.86547,0.00166
1499.80530,0.00156
1497.74513,0.00137
1495.68496,0.00133
1493.62478,0.00134
1491.56461,0.00116
1489.50444,0.00098
1487.44427,0.00118
1485.38410,0.00163
1483.32392,0.00193
1481.26375,0.00200
1479.20358,0.00197
1477.14341,0.00182
1475.08324,0.00162
1473.02306,0.00170
1470.96289,0.00214
1468.90272,0.00256
1466.84255,0.00274
1464.78238,0.00272
1462.72220,0.00258
1460.66203,0.00238
1458.60186,0.00212
1456.54169,0.00187
1454.48151,0.00183
1452.42134,0.00194
1450.36117,0.00201
1448.30100,0.00197
1446.24083,0.00193
1444.18065,0.00199
1442.12048,0.00207
1440.06031,0.00200
1438.00014,0.00178
1435.93997,0.00177
1433.87979,0.00203
1431.81962,0.00222
1429.75945,0.00217
1427.69928,0.00198
1425.63910,0.00181
1423.57893,0.00180
1421.51876,0.00189
1419.45859,0.00199
1417.39842,0.00212
1415.33824,0.00225
1413.27807,0.00233
1411.21790,0.00236
1409.15773,0.00237
1407.09756,0.00230
1405.03738,0.00213
1402.97721,0.00194
1400.91704,0.00179
1398.85687,0.00174
1396.79670,0.00180
1394.73652,0.00183
1392.67635,0.00181
1390.61618,0.00181
1388.55601,0.00179
1386.49583,0.00177
1384.43566,0.00188
1382.37549,0.00200
1380.31532,0.00206
1378.25515,0.00213
1376.19497,0.00223
1374.13480,0.00230
1372.07463,0.00237
1370.01446,0.00244
1367.95429,0.00243
1365.89411,0.00227
1363.83394,0.00208
1361.77377,0.00197
1359.71360,0.00186
1357.65343,0.00166
1355.59325,0.00156
1353.53308,0.00159
1351.47291,0.00163
1349.41274,0.00162
1347.35256,0.00163
1345.29239,0.00168
1343.23222,0.00174
1341.17205,0.00176
1339.11188,0.00168
1337.05170,0.00158
1334.99153,0.00153
1332.93136,0.00149
1330.87119,0.00147
1328.81102,0.00147
1326.75084,0.00145
1324.69067,0.00144
1322.63050,0.00140
1320.57033,0.00136
1318.51015,0.00135
1316.44998,0.00132
1314.38981,0.00129
1312.32964,0.00134
1310.26947,0.00152
1308.20929,0.00170
1306.14912,0.00167
1304.08895,0.00150
1302.02878,0.00137
1299.96861,0.00132
1297.90843,0.00133
1295.84826,0.00146
1293.78809,0.00166
1291.72792,0.00172
1289.66775,0.00159
1287.60757,0.00157
1285.54740,0.00168
1283.48723,0.00166
1281.42706,0.00156
1279.36688,0.00161
1277.30671,0.00175
1275.24654,0.00183
1273.18637,0.00178
1271.12620,0.00170
1269.06602,0.00167
1267.00585,0.00162
1264.94568,0.00165
1262.88551,0.00184
1260.82534,0.00196
1258.76516,0.00187
1256.70499,0.00174
1254.64482,0.00164
1252.58465,0.00149
1250.52447,0.00135
1248.46430,0.00138
1246.40413,0.00146
1244.34396,0.00140
1242.28379,0.00132
1240.22361,0.00127
1238.16344,0.00123
1236.10327,0.00122
1234.04310,0.00113
1231.98293,0.00106
1229.92275,0.00111
1227.86258,0.00114
1225.80241,0.00102
1223.74224,0.00077
1221.68207,0.00053
1219.62189,0.00041
1217.56172,0.00041
1215.50155,0.00042
1213.44138,0.00041
1211.38120,0.00039
1209.32103,0.00026
1207.26086,0.00005
1205.20069,0.00001
1203.14052,0.00009
1201.08034,0.00007
1199.02017,0.00008
1196.96000,0.00028
1194.89983,0.00047
1192.83966,0.00054
1190.77948,0.00059
1188.71931,0.00078
1186.65914,0.00111
1184.59897,0.00129
1182.53880,0.00130
1180.47862,0.00148
1178.41845,0.00189
1176.35828,0.00233
1174.29811,0.00275
1172.23793,0.00315
1170.17776,0.00352
1168.11759,0.00395
1166.05742,0.00433
1163.99725,0.00458
1161.93707,0.00487
1159.87690,0.00527
1157.81673,0.00559
1155.75656,0.00585
1153.69639,0.00612
1151.63621,0.00633
1149.57604,0.00650
1147.51587,0.00681
1145.45570,0.00730
1143.39552,0.00788
1141.33535,0.00853
1139.27518,0.00907
1137.21501,0.00932
1135.15484,0.00953
1133.09466,0.01016
1131.03449,0.01096
1128.97432,0.01144
1126.91415,0.01169
1124.85398,0.01213
1122.79380,0.01287
1120.73363,0.01349
1118.67346,0.01379
1116.61329,0.01412
1114.55312,0.01466
1112.49294,0.01520
1110.43277,0.01560
1108.37260,0.01596
1106.31243,0.01650
1104.25225,0.01723
1102.19208,0.01791
1100.13191,0.01862
1098.07174,0.01943
1096.01157,0.02018
1093.95139,0.02076
1091.89122,0.02124
1089.83105,0.02170
1087.77088,0.02214
1085.71071,0.02255
1083.65053,0.02307
1081.59036,0.02370
1079.53019,0.02432
1077.47002,0.02489
1075.40985,0.02525
1073.34967,0.02533
1071.28950,0.02546
1069.22933,0.02573
1067.16916,0.02598
1065.10898,0.02622
1063.04881,0.02629
1060.98864,0.02612
1058.92847,0.02600
1056.86830,0.02587
1054.80812,0.02563
1052.74795,0.02549
1050.68778,0.02553
1048.62761,0.02541
1046.56744,0.02488
1044.50726,0.02416
1042.44709,0.02353
1040.38692,0.02300
1038.32675,0.02248
1036.26657,0.02196
1034.20640,0.02149
1032.14623,0.02091
1030.08606,0.02016
1028.02589,0.01956
1025.96571,0.01922
1023.90554,0.01889
1021.84537,0.01850
1019.78520,0.01807
1017.72503,0.01764
1015.66485,0.01723
1013.60468,0.01679
1011.54451,0.01645
1009.48434,0.01624
1007.42417,0.01608
1005.36399,0.01596
1003.30382,0.01577
1001.24365,0.01561
999.18348,0.01577
997.12330,0.01608
995.06313,0.01627
993.00296,0.01653
990.94279,0.01695
988.88262,0.01750
986.82244,0.01818
984.76227,0.01867
982.70210,0.01853
980.64193,0.01805
978.58176,0.01769
976.52158,0.01740
974.46141,0.01704
972.40124,0.01643
970.34107,0.01576
968.28089,0.01533
966.22072,0.01485
964.16055,0.01404
962.10038,0.01312
960.04021,0.01234
957.98003,0.01177
955.91986,0.01140
953.85969,0.01112
951.79952,0.01088
949.73935,0.01085
947.67917,0.01078
945.61900,0.01039
943.55883,0.01001
941.49866,0.00977
939.43849,0.00959
937.37831,0.00961
935.31814,0.00996
933.25797,0.01030
931.19780,0.01023
929.13762,0.00995
927.07745,0.00995
925.01728,0.01012
922.95711,0.00986
920.89694,0.00928
918.83676,0.00894
916.77659,0.00872
914.71642,0.00842
912.65625,0.00814
910.59608,0.00793
908.53590,0.00765
906.47573,0.00728
904.41556,0.00709
902.35539,0.00723
900.29522,0.00745
898.23504,0.00740
896.17487,0.00714
894.11470,0.00708
892.05453,0.00728
889.99435,0.00731
887.93418,0.00707
885.87401,0.00699
883.81384,0.00708
881.75367,0.00717
879.69349,0.00745
877.63332,0.00769
875.57315,0.00759
873.51298,0.00775
871.45281,0.00826
869.39263,0.00867
867.33246,0.00896
865.27229,0.00937
863.21212,0.00955
861.15194,0.00909
859.09177,0.00846
857.03160,0.00826
854.97143,0.00838
852.91126,0.00857
850.85108,0.00848
848.79091,0.00806
846.73074,0.00770
844.67057,0.00729
842.61040,0.00676
840.55022,0.00652
838.49005,0.00659
836.42988,0.00653
834.36971,0.00620
832.30954,0.00559
830.24936,0.00482
828.18919,0.00446
826.12902,0.00468
824.06885,0.00492
822.00867,0.00493
819.94850,0.00454
817.88833,0.00393
815.82816,0.00395
813.76799,0.00427
811.70781,0.00419
809.64764,0.00418
807.58747,0.00422
805.52730,0.00380
803.46713,0.00338
801.40695,0.00334
799.34678,0.00298
797.28661,0.00231
795.22644,0.00223
793.16627,0.00258
791.10609,0.00255
789.04592,0.00218
786.98575,0.00224
784.92558,0.00280
782.86540,0.00312
780.80523,0.00290
778.74506,0.00229
776.68489,0.00172
774.62472,0.00176
772.56454,0.00218
770.50437,0.00249
768.44420,0.00271
766.38403,0.00312
764.32386,0.00362
762.26368,0.00354
760.20351,0.00281
758.14334,0.00188
756.08317,0.00098
754.02299,0.00073
751.96282,0.00138
749.90265,0.00199
747.84248,0.00205
745.78231,0.00177
743.72213,0.00128
741.66196,0.00104
739.60179,0.00143
737.54162,0.00175
735.48145,0.00134
733.42127,0.00077
731.36110,0.00094
729.30093,0.00178
727.24076,0.00217
725.18059,0.00161
723.12041,0.00096
721.06024,0.00076
719.00007,0.00093
716.93990,0.00124
714.87972,0.00152
712.81955,0.00178
710.75938,0.00195
708.69921,0.00164
706.63904,0.00120
704.57886,0.00133
702.51869,0.00187
700.45852,0.00232
698.39835,0.00258
696.33818,0.00243
694.27800,0.00163
692.21783,0.00077
690.15766,0.00080
688.09749,0.00129
686.03731,0.00105
683.97714,0.00050
681.91697,0.00095
679.85680,0.00178
677.79663,0.00176
675.73645,0.00116
673.67628,0.00095
671.61611,0.00179
669.55594,0.00318
667.49577,0.00331
665.43559,0.00236
663.37542,0.00175
661.31525,0.00151
659.25508,0.00135
657.19491,0.00118
655.13473,0.00112
653.07456,0.00127
651.01439,0.00151
648.95422,0.00157
646.89404,0.00160
644.83387,0.00199
642.77370,0.00205
640.71353,0.00100
638.65336,0.00001
636.59318,0.00006
634.53301,0.00026
632.47284,0.00000
630.41267,0.00045
628.35250,0.00194
626.29232,0.00258
624.23215,0.00171
622.17198,0.00125
620.11181,0.00186
618.05164,0.00317
615.99146,0.00408
613.93129,0.00369
611.87112,0.00214
609.81095,0.00078
607.75077,0.00005
605.69060,0.00016
603.63043,0.00141
601.57026,0.00165
599.51009,0.00000
