3996.73391,0.00075
3994.67373,0.00056
3992.61356,0.00034
3990.55339,0.00050
3988.49322,0.00086
3986.43305,0.00089
3984.37287,0.00059
3982.31270,0.00025
3980.25253,0.00009
3978.19236,0.00020
3976.13219,0.00051
3974.07201,0.00071
3972.01184,0.00067
3969.95167,0.00067
3967.89150,0.00065
3965.83133,0.00047
3963.77115,0.00037
3961.71098,0.00041
3959.65081,0.00031
3957.59064,0.00014
3955.53046,0.00019
3953.47029,0.00031
3951.41012,0.00015
3949.34995,0.00000
3947.28978,0.00025
3945.22960,0.00064
3943.16943,0.00088
3941.10926,0.00104
3939.04909,0.00110
3936.98892,0.00085
3934.92874,0.00035
3932.86857,0.00014
3930.80840,0.00044
3928.74823,0.00067
3926.68805,0.00050
3924.62788,0.00037
3922.56771,0.00058
3920.50754,0.00087
3918.44737,0.00102
3916.38719,0.00089
3914.32702,0.00048
3912.26685,0.00015
3910.20668,0.00018
3908.14651,0.00041
3906.08633,0.00057
3904.02616,0.00069
3901.96599,0.00085
3899.90582,0.00093
3897.84565,0.00078
3895.78547,0.00041
3893.72530,0.00005
3891.66513,0.00000
3889.60496,0.00031
3887.54478,0.00071
3885.48461,0.00094
3883.42444,0.00091
3881.36427,0.00084
3879.30410,0.00087
3877.24392,0.00076
3875.18375,0.00061
3873.12358,0.00078
3871.06341,0.00113
3869.00324,0.00114
3866.94306,0.00076
3864.88289,0.00068
3862.82272,0.00118
3860.76255,0.00140
3858.70237,0.00094
3856.64220,0.00051
3854.58203,0.00092
3852.52186,0.00199
3850.46169,0.00237
3848.40151,0.00188
3846.34134,0.00109
3844.28117,0.00032
3842.22100,0.00000
3840.16083,0.00056
3838.10065,0.00163
3836.04048,0.00210
3833.98031,0.00152
3831.92014,0.00077
3829.85997,0.00055
3827.79979,0.00069
3825.73962,0.00068
3823.67945,0.00044
3821.61928,0.00034
3819.55910,0.00050
3817.49893,0.00062
3815.43876,0.00072
3813.37859,0.00086
3811.31842,0.00095
3809.25824,0.00099
3807.19807,0.00115
3805.13790,0.00128
3803.07773,0.00132
3801.01756,0.00149
3798.95738,0.00153
3796.89721,0.00124
3794.83704,0.00103
3792.77687,0.00115
3790.71670,0.00139
3788.65652,0.00163
3786.59635,0.00170
3784.53618,0.00142
3782.47601,0.00110
3780.41583,0.00109
3778.35566,0.00117
3776.29549,0.00098
3774.23532,0.00055
3772.17515,0.00015
3770.11497,0.00000
3768.05480,0.00016
3765.99463,0.00035
3763.93446,0.00047
3761.87429,0.00068
3759.81411,0.00119
3757.75394,0.00185
3755.69377,0.00206
3753.63360,0.00171
3751.57342,0.00130
3749.51325,0.00124
3747.45308,0.00132
3745.39291,0.00148
3743.33274,0.00166
3741.27256,0.00156
3739.21239,0.00113
3737.15222,0.00068
3735.09205,0.00072
3733.03188,0.00130
3730.97170,0.00186
3728.91153,0.00202
3726.85136,0.00179
3724.79119,0.00138
3722.73102,0.00120
3720.67084,0.00131
3718.61067,0.00115
3716.55050,0.00058
3714.49033,0.00001
3712.43015,0.00004
3710.36998,0.00085
3708.30981,0.00166
3706.24964,0.00201
3704.18947,0.00220
3702.12929,0.00252
3700.06912,0.00263
3698.00895,0.00228
3695.94878,0.00200
3693.88861,0.00197
3691.82843,0.00193
3689.76826,0.00204
3687.70809,0.00247
3685.64792,0.00267
3683.58775,0.00244
3681.52757,0.00208
3679.46740,0.00171
3677.40723,0.00126
3675.34706,0.00088
3673.28688,0.00097
3671.22671,0.00158
3669.16654,0.00228
3667.10637,0.00270
3665.04620,0.00287
3662.98602,0.00296
3660.92585,0.00318
3658.86568,0.00353
3656.80551,0.00404
3654.74534,0.00455
3652.68516,0.00445
3650.62499,0.00400
3648.56482,0.00429
3646.50465,0.00491
3644.44447,0.00496
3642.38430,0.00496
3640.32413,0.00539
3638.26396,0.00596
3636.20379,0.00619
3634.14361,0.00617
3632.08344,0.00632
3630.02327,0.00653
3627.96310,0.00649
3625.90293,0.00665
3623.84275,0.00739
3621.78258,0.00816
3619.72241,0.00841
3617.66224,0.00835
3615.60207,0.00835
3613.54189,0.00854
3611.48172,0.00910
3609.42155,0.00995
3607.36138,0.01051
3605.30120,0.01048
3603.24103,0.01035
3601.18086,0.01041
3599.12069,0.01053
3597.06052,0.01057
3595.00034,0.01082
3592.94017,0.01150
3590.88000,0.01212
3588.81983,0.01246
3586.75966,0.01301
3584.69948,0.01384
3582.63931,0.01441
3580.57914,0.01469
3578.51897,0.01493
3576.45879,0.01528
3574.39862,0.01565
3572.33845,0.01593
3570.27828,0.01617
3568.21811,0.01658
3566.15793,0.01703
3564.09776,0.01732
3562.03759,0.01750
3559.97742,0.01755
3557.91725,0.01751
3555.85707,0.01773
3553.79690,0.01823
3551.73673,0.01868
3549.67656,0.01895
3547.61639,0.01918
3545.55621,0.01948
3543.49604,0.01979
3541.43587,0.02015
3539.37570,0.02058
3537.31552,0.02091
3535.25535,0.02111
3533.19518,0.02135
3531.13501,0.02169
3529.07484,0.02214
3527.01466,0.02268
3524.95449,0.02311
3522.89432,0.02319
3520.83415,0.02306
3518.77398,0.02307
3516.71380,0.02331
3514.65363,0.02362
3512.59346,0.02397
3510.53329,0.02447
3508.47312,0.02506
3506.41294,0.02544
3504.35277,0.02553
3502.29260,0.02555
3500.23243,0.02576
3498.17225,0.02613
3496.11208,0.02638
3494.05191,0.02660
3491.99174,0.02698
3489.93157,0.02748
3487.87139,0.02791
3485.81122,0.02832
3483.75105,0.02873
3481.69088,0.02879
3479.63071,0.02858
3477.57053,0.02846
3475.51036,0.02841
3473.45019,0.02858
3471.39002,0.02920
3469.32984,0.03002
3467.26967,0.03064
3465.20950,0.03099
3463.14933,0.03125
3461.08916,0.03163
3459.02898,0.03200
3456.96881,0.03222
3454.90864,0.03246
3452.84847,0.03265
3450.78830,0.03250
3448.72812,0.03226
3446.66795,0.03238
3444.60778,0.03285
3442.54761,0.03321
3440.48744,0.03325
3438.42726,0.03325
3436.36709,0.03367
3434.30692,0.03429
3432.24675,0.03447
3430.18657,0.03427
3428.12640,0.03418
3426.06623,0.03428
3424.00606,0.03461
3421.94589,0.03509
3419.88571,0.03528
3417.82554,0.03500
3415.76537,0.03467
3413.70520,0.03476
3411.64503,0.03511
3409.58485,0.03550
3407.52468,0.03602
3405.46451,0.03642
3403.40434,0.03631
3401.34416,0.03608
3399.28399,0.03629
3397.22382,0.03662
3395.16365,0.03665
3393.10348,0.03655
3391.04330,0.03659
3388.98313,0.03684
3386.92296,0.03732
3384.86279,0.03769
3382.80262,0.03771
3380.74244,0.03784
3378.68227,0.03805
3376.62210,0.03793
3374.56193,0.03782
3372.50176,0.03790
3370.44158,0.03798
3368.38141,0.03808
3366.32124,0.03823
3364.26107,0.03829
3362.20089,0.03843
3360.14072,0.03894
3358.08055,0.03934
3356.02038,0.03935
3353.96021,0.03928
3351.90003,0.03919
3349.83986,0.03902
3347.77969,0.03890
3345.71952,0.03885
3343.65935,0.03889
3341.59917,0.03910
3339.53900,0.03929
3337.47883,0.03925
3335.41866,0.03919
3333.35849,0.03929
3331.29831,0.03941
3329.23814,0.03942
3327.17797,0.03943
3325.11780,0.03956
3323.05762,0.03966
3320.99745,0.03963
3318.93728,0.03957
3316.87711,0.03953
3314.81694,0.03939
3312.75676,0.03911
3310.69659,0.03896
3308.63642,0.03922
3306.57625,0.03967
3304.51608,0.03981
3302.45590,0.03969
3300.39573,0.03973
3298.33556,0.03974
3296.27539,0.03945
3294.21521,0.03933
3292.15504,0.03979
3290.09487,0.04027
3288.03470,0.04030
3285.97453,0.04018
3283.91435,0.04007
3281.85418,0.03983
3279.79401,0.03963
3277.73384,0.03975
3275.67367,0.04003
3273.61349,0.04009
3271.55332,0.04008
3269.49315,0.04027
3267.43298,0.04047
3265.37281,0.04057
3263.31263,0.04047
3261.25246,0.04015
3259.19229,0.03999
3257.13212,0.04012
3255.07194,0.04028
3253.01177,0.04023
3250.95160,0.03993
3248.89143,0.03963
3246.83126,0.03966
3244.77108,0.04006
3242.71091,0.04032
3240.65074,0.04010
3238.59057,0.03990
3236.53040,0.04026
3234.47022,0.04073
3232.41005,0.04078
3230.34988,0.04051
3228.28971,0.04013
3226.22954,0.03984
3224.16936,0.03982
3222.10919,0.03998
3220.04902,0.04026
3217.98885,0.04057
3215.92867,0.04065
3213.86850,0.04037
3211.80833,0.03998
3209.74816,0.03972
3207.68799,0.03972
3205.62781,0.03990
3203.56764,0.03996
3201.50747,0.03987
3199.44730,0.03978
3197.38713,0.03967
3195.32695,0.03969
3193.26678,0.03968
3191.20661,0.03943
3189.14644,0.03929
3187.08626,0.03929
3185.02609,0.03913
3182.96592,0.03894
3180.90575,0.03888
3178.84558,0.03883
3176.78540,0.03892
3174.72523,0.03906
3172.66506,0.03886
3170.60489,0.03848
3168.54472,0.03832
3166.48454,0.03830
3164.42437,0.03821
3162.36420,0.03796
3160.30403,0.03768
3158.24386,0.03767
3156.18368,0.03771
3154.12351,0.03748
3152.06334,0.03726
3150.00317,0.03737
3147.94299,0.03759
3145.88282,0.03762
3143.82265,0.03742
3141.76248,0.03727
3139.70231,0.03726
3137.64213,0.03712
3135.58196,0.03686
3133.52179,0.03662
3131.46162,0.03629
3129.40145,0.03601
3127.34127,0.03611
3125.28110,0.03626
3123.22093,0.03609
3121.16076,0.03593
3119.10058,0.03594
3117.04041,0.03595
3114.98024,0.03595
3112.92007,0.03567
3110.85990,0.03507
3108.79972,0.03481
3106.73955,0.03500
3104.67938,0.03506
3102.61921,0.03494
3100.55904,0.03484
3098.49886,0.03468
3096.43869,0.03440
3094.37852,0.03416
3092.31835,0.03403
3090.25818,0.03388
3088.19800,0.03379
3086.13783,0.03373
3084.07766,0.03357
3082.01749,0.03333
3079.95731,0.03299
3077.89714,0.03256
3075.83697,0.03239
3073.77680,0.03262
3071.71663,0.03285
3069.65645,0.03276
3067.59628,0.03242
3065.53611,0.03199
3063.47594,0.03167
3061.41577,0.03155
3059.35559,0.03154
3057.29542,0.03155
3055.23525,0.03138
3053.17508,0.03108
3051.11491,0.03087
3049.05473,0.03066
3046.99456,0.03038
3044.93439,0.03019
3042.87422,0.03023
3040.81404,0.03039
3038.75387,0.03035
3036.69370,0.03006
3034.63353,0.02966
3032.57336,0.02925
3030.51318,0.02891
3028.45301,0.02860
3026.39284,0.02843
3024.33267,0.02837
3022.27250,0.02819
3020.21232,0.02799
3018.15215,0.02791
3016.09198,0.02798
3014.03181,0.02811
3011.97163,0.02813
3009.91146,0.02792
3007.85129,0.02760
3005.79112,0.02737
3003.73095,0.02731
3001.67077,0.02729
2999.61060,0.02709
2997.55043,0.02667
2995.49026,0.02624
2993.43009,0.02613
2991.36991,0.02617
2989.30974,0.02605
2987.24957,0.02586
2985.18940,0.02583
2983.12923,0.02562
2981.06905,0.02512
2979.00888,0.02489
2976.94871,0.02499
2974.88854,0.02512
2972.82836,0.02525
2970.76819,0.02527
2968.70802,0.02520
2966.64785,0.02512
2964.58768,0.02503
2962.52750,0.02504
2960.46733,0.02520
2958.40716,0.02538
2956.34699,0.02549
2954.28682,0.02550
2952.22664,0.02531
2950.16647,0.02493
2948.10630,0.02471
2946.04613,0.02474
2943.98596,0.02479
2941.92578,0.02496
2939.86561,0.02514
2937.80544,0.02520
2935.74527,0.02534
2933.68509,0.02538
2931.62492,0.02519
2929.56475,0.02507
2927.50458,0.02513
2925.44441,0.02512
2923.38423,0.02492
2921.32406,0.02470
2919.26389,0.02477
2917.20372,0.02492
2915.14355,0.02463
2913.08337,0.02421
2911.02320,0.02407
2908.96303,0.02396
2906.90286,0.02374
2904.84268,0.02341
2902.78251,0.02323
2900.72234,0.02337
2898.66217,0.02347
2896.60200,0.02339
2894.54182,0.02327
2892.48165,0.02310
2890.42148,0.02303
2888.36131,0.02312
2886.30114,0.02302
2884.24096,0.02261
2882.18079,0.02224
2880.12062,0.02221
2878.06045,0.02242
2876.00028,0.02251
2873.94010,0.02234
2871.87993,0.02199
2869.81976,0.02182
2867.75959,0.02192
2865.69941,0.02196
2863.63924,0.02187
2861.57907,0.02174
2859.51890,0.02152
2857.45873,0.02138
2855.39855,0.02145
2853.33838,0.02147
2851.27821,0.02131
2849.21804,0.02102
2847.15787,0.02078
2845.09769,0.02063
2843.03752,0.02047
2840.97735,0.02024
2838.91718,0.01995
2836.85700,0.01981
2834.79683,0.01991
2832.73666,0.01993
2830.67649,0.01974
2828.61632,0.01959
2826.55614,0.01953
2824.49597,0.01956
2822.43580,0.01951
2820.37563,0.01911
2818.31546,0.01872
2816.25528,0.01865
2814.19511,0.01865
2812.13494,0.01843
2810.07477,0.01814
2808.01460,0.01802
2805.95442,0.01792
2803.89425,0.01774
2801.83408,0.01779
2799.77391,0.01812
2797.71373,0.01833
2795.65356,0.01821
2793.59339,0.01803
2791.53322,0.01795
2789.47305,0.01779
2787.41287,0.01751
2785.35270,0.01729
2783.29253,0.01714
2781.23236,0.01705
2779.17219,0.01708
2777.11201,0.01720
2775.05184,0.01723
2772.99167,0.01711
2770.93150,0.01690
2768.87133,0.01657
2766.81115,0.01629
2764.75098,0.01631
2762.69081,0.01645
2760.63064,0.01638
2758.57046,0.01624
2756.51029,0.01617
2754.45012,0.01614
2752.38995,0.01615
2750.32978,0.01607
2748.26960,0.01600
2746.20943,0.01604
2744.14926,0.01601
2742.08909,0.01596
2740.02892,0.01595
2737.96874,0.01574
2735.90857,0.01541
2733.84840,0.01540
2731.78823,0.01559
2729.72805,0.01564
2727.66788,0.01548
2725.60771,0.01520
2723.54754,0.01500
2721.48737,0.01489
2719.42719,0.01479
2717.36702,0.01476
2715.30685,0.01496
2713.24668,0.01515
2711.18651,0.01488
2709.12633,0.01421
2707.06616,0.01372
2705.00599,0.01375
2702.94582,0.01400
2700.88565,0.01413
2698.82547,0.01411
2696.76530,0.01398
2694.70513,0.01391
2692.64496,0.01398
2690.58478,0.01405
2688.52461,0.01394
2686.46444,0.01368
2684.40427,0.01338
2682.34410,0.01318
2680.28392,0.01314
2678.22375,0.01305
2676.16358,0.01294
2674.10341,0.01301
2672.04324,0.01311
2669.98306,0.01301
2667.92289,0.01274
2665.86272,0.01256
2663.80255,0.01248
2661.74238,0.01226
2659.68220,0.01192
2657.62203,0.01174
2655.56186,0.01180
2653.50169,0.01186
2651.44151,0.01180
2649.38134,0.01185
2647.32117,0.01193
2645.26100,0.01175
2643.20083,0.01160
2641.14065,0.01161
2639.08048,0.01157
2637.02031,0.01153
2634.96014,0.01148
2632.89997,0.01148
2630.83979,0.01141
2628.77962,0.01101
2626.71945,0.01063
2624.65928,0.01044
2622.59910,0.01018
2620.53893,0.01008
2618.47876,0.01013
2616.41859,0.01006
2614.35842,0.01004
2612.29824,0.01021
2610.23807,0.01035
2608.17790,0.01033
2606.11773,0.01023
2604.05756,0.01001
2601.99738,0.00972
2599.93721,0.00962
2597.87704,0.00977
2595.81687,0.00992
2593.75670,0.00971
2591.69652,0.00912
2589.63635,0.00885
2587.57618,0.00913
2585.51601,0.00939
2583.45583,0.00930
2581.39566,0.00899
2579.33549,0.00871
2577.27532,0.00874
2575.21515,0.00900
2573.15497,0.00922
2571.09480,0.00918
2569.03463,0.00893
2566.97446,0.00887
2564.91429,0.00891
2562.85411,0.00867
2560.79394,0.00827
2558.73377,0.00813
2556.67360,0.00836
2554.61342,0.00845
2552.55325,0.00834
2550.49308,0.00851
2548.43291,0.00885
2546.37274,0.00880
2544.31256,0.00838
2542.25239,0.00814
2540.19222,0.00826
2538.13205,0.00825
2536.07188,0.00806
2534.01170,0.00835
2531.95153,0.00897
2529.89136,0.00930
2527.83119,0.00931
2525.77102,0.00931
2523.71084,0.00942
2521.65067,0.00941
2519.59050,0.00925
2517.53033,0.00899
2515.47015,0.00884
2513.40998,0.00907
2511.34981,0.00930
2509.28964,0.00916
2507.22947,0.00910
2505.16929,0.00926
2503.10912,0.00925
2501.04895,0.00918
2498.98878,0.00933
2496.92861,0.00950
2494.86843,0.00946
2492.80826,0.00917
2490.74809,0.00874
2488.68792,0.00853
2486.62775,0.00861
2484.56757,0.00863
2482.50740,0.00867
2480.44723,0.00902
2478.38706,0.00944
2476.32688,0.00932
2474.26671,0.00892
2472.20654,0.00891
2470.14637,0.00902
2468.08620,0.00897
2466.02602,0.00886
2463.96585,0.00885
2461.90568,0.00907
2459.84551,0.00927
2457.78534,0.00924
2455.72516,0.00919
2453.66499,0.00929
2451.60482,0.00934
2449.54465,0.00929
2447.48447,0.00929
2445.42430,0.00930
2443.36413,0.00923
2441.30396,0.00917
2439.24379,0.00941
2437.18361,0.00975
2435.12344,0.00959
2433.06327,0.00916
2431.00310,0.00913
2428.94293,0.00937
2426.88275,0.00952
2424.82258,0.00960
2422.76241,0.00952
2420.70224,0.00913
2418.64207,0.00889
2416.58189,0.00916
2414.52172,0.00944
2412.46155,0.00926
2410.40138,0.00885
2408.34120,0.00867
2406.28103,0.00881
2404.22086,0.00906
2402.16069,0.00926
2400.10052,0.00941
2398.04034,0.00935
2395.98017,0.00925
2393.92000,0.00934
2391.85983,0.00936
2389.79966,0.00913
2387.73948,0.00887
2385.67931,0.00877
2383.61914,0.00879
2381.55897,0.00903
2379.49880,0.00950
2377.43862,0.00974
2375.37845,0.00960
2373.31828,0.00956
2371.25811,0.00988
2369.19793,0.00966
2367.13776,0.00766
2365.07759,0.00582
2363.01742,0.00641
2360.95725,0.00561
2358.89707,0.00202
2356.83690,0.00159
2354.77673,0.00468
2352.71656,0.00713
2350.65639,0.00823
2348.59621,0.00874
2346.53604,0.00882
2344.47587,0.00881
2342.41570,0.00976
2340.35552,0.01136
2338.29535,0.01130
2336.23518,0.00972
2334.17501,0.00913
2332.11484,0.00948
2330.05466,0.00877
2327.99449,0.00745
2325.93432,0.00739
2323.87415,0.00839
2321.81398,0.00890
2319.75380,0.00872
2317.69363,0.00864
2315.63346,0.00898
2313.57329,0.00924
2311.51312,0.00884
2309.45294,0.00837
2307.39277,0.00854
2305.33260,0.00909
2303.27243,0.00950
2301.21225,0.00928
2299.15208,0.00848
2297.09191,0.00787
2295.03174,0.00807
2292.97157,0.00870
2290.91139,0.00904
2288.85122,0.00900
2286.79105,0.00875
2284.73088,0.00844
2282.67071,0.00840
2280.61053,0.00850
2278.55036,0.00817
2276.49019,0.00755
2274.43002,0.00712
2272.36984,0.00717
2270.30967,0.00766
2268.24950,0.00786
2266.18933,0.00753
2264.12916,0.00726
2262.06898,0.00720
2260.00881,0.00704
2257.94864,0.00694
2255.88847,0.00697
2253.82830,0.00696
2251.76812,0.00698
2249.70795,0.00714
2247.64778,0.00718
2245.58761,0.00644
2243.52744,0.00540
2241.46726,0.00538
2239.40709,0.00561
2237.34692,0.00491
2235.28675,0.00450
2233.22657,0.00535
2231.16640,0.00596
2229.10623,0.00579
2227.04606,0.00596
2224.98589,0.00638
2222.92571,0.00660
2220.86554,0.00667
2218.80537,0.00654
2216.74520,0.00619
2214.68503,0.00580
2212.62485,0.00571
2210.56468,0.00572
2208.50451,0.00526
2206.44434,0.00421
2204.38417,0.00350
2202.32399,0.00432
2200.26382,0.00581
2198.20365,0.00618
2196.14348,0.00539
2194.08330,0.00422
2192.02313,0.00363
2189.96296,0.00404
2187.90279,0.00463
2185.84262,0.00505
2183.78244,0.00486
2181.72227,0.00442
2179.66210,0.00523
2177.60193,0.00617
2175.54176,0.00557
2173.48158,0.00439
2171.42141,0.00375
2169.36124,0.00365
2167.30107,0.00425
2165.24089,0.00528
2163.18072,0.00549
2161.12055,0.00433
2159.06038,0.00253
2157.00021,0.00145
2154.94003,0.00174
2152.87986,0.00248
2150.81969,0.00310
2148.75952,0.00366
2146.69935,0.00383
2144.63917,0.00354
2142.57900,0.00316
2140.51883,0.00317
2138.45866,0.00338
2136.39849,0.00265
2134.33831,0.00187
2132.27814,0.00269
2130.21797,0.00367
2128.15780,0.00394
2126.09762,0.00438
2124.03745,0.00459
2121.97728,0.00437
2119.91711,0.00448
2117.85694,0.00442
2115.79676,0.00393
2113.73659,0.00378
2111.67642,0.00387
2109.61625,0.00431
2107.55608,0.00462
2105.49590,0.00403
2103.43573,0.00380
2101.37556,0.00399
2099.31539,0.00364
2097.25521,0.00353
2095.19504,0.00411
2093.13487,0.00437
2091.07470,0.00358
2089.01453,0.00289
2086.95435,0.00333
2084.89418,0.00372
2082.83401,0.00322
2080.77384,0.00254
2078.71367,0.00248
2076.65349,0.00290
2074.59332,0.00292
2072.53315,0.00281
2070.47298,0.00304
2068.41281,0.00293
2066.35263,0.00244
2064.29246,0.00210
2062.23229,0.00198
2060.17212,0.00199
2058.11194,0.00217
2056.05177,0.00248
2053.99160,0.00308
2051.93143,0.00347
2049.87126,0.00291
2047.81108,0.00235
2045.75091,0.00215
2043.69074,0.00132
2041.63057,0.00018
2039.57040,0.00004
2037.51022,0.00134
2035.45005,0.00299
2033.38988,0.00352
2031.32971,0.00278
2029.26954,0.00210
2027.20936,0.00213
2025.14919,0.00199
2023.08902,0.00186
2021.02885,0.00293
2018.96867,0.00436
2016.90850,0.00421
2014.84833,0.00275
2012.78816,0.00150
2010.72799,0.00059
2008.66781,0.00006
2006.60764,0.00031
2004.54747,0.00080
2002.48730,0.00145
2000.42713,0.00252
1998.36695,0.00310
1996.30678,0.00241
1994.24661,0.00179
1992.18644,0.00232
1990.12626,0.00301
1988.06609,0.00282
1986.00592,0.00196
1983.94575,0.00148
1981.88558,0.00148
1979.82540,0.00112
1977.76523,0.00070
1975.70506,0.00085
1973.64489,0.00144
1971.58472,0.00245
1969.52454,0.00303
1967.46437,0.00223
1965.40420,0.00113
1963.34403,0.00097
1961.28386,0.00103
1959.22368,0.00044
1957.16351,0.00005
1955.10334,0.00082
1953.04317,0.00196
1950.98299,0.00241
1948.92282,0.00230
1946.86265,0.00192
1944.80248,0.00135
1942.74231,0.00080
1940.68213,0.00052
1938.62196,0.00094
1936.56179,0.00228
1934.50162,0.00326
1932.44145,0.00297
1930.38127,0.00225
1928.32110,0.00152
1926.26093,0.00093
1924.20076,0.00135
1922.14059,0.00248
1920.08041,0.00282
1918.02024,0.00214
1915.96007,0.00150
1913.89990,0.00149
1911.83972,0.00176
1909.77955,0.00198
1907.71938,0.00201
1905.65921,0.00175
1903.59904,0.00162
1901.53886,0.00177
1899.47869,0.00184
1897.41852,0.00183
1895.35835,0.00203
1893.29818,0.00238
1891.23800,0.00263
1889.17783,0.00272
1887.11766,0.00276
1885.05749,0.00272
1882.99731,0.00240
1880.93714,0.00202
1878.87697,0.00187
1876.81680,0.00194
1874.75663,0.00206
1872.69645,0.00200
1870.63628,0.00155
1868.57611,0.00096
1866.51594,0.00089
1864.45577,0.00136
1862.39559,0.00186
1860.33542,0.00212
1858.27525,0.00217
1856.21508,0.00207
1854.15491,0.00188
1852.09473,0.00166
1850.03456,0.00138
1847.97439,0.00128
1845.91422,0.00160
1843.85404,0.00219
1841.79387,0.00263
1839.73370,0.00276
1837.67353,0.00269
1835.61336,0.00253
1833.55318,0.00233
1831.49301,0.00225
1829.43284,0.00241
1827.37267,0.00268
1825.31250,0.00288
1823.25232,0.00287
1821.19215,0.00275
1819.13198,0.00272
1817.07181,0.00272
1815.01163,0.00267
1812.95146,0.00268
1810.89129,0.00269
1808.83112,0.00260
1806.77095,0.00260
1804.71077,0.00277
1802.65060,0.00283
1800.59043,0.00271
1798.53026,0.00261
1796.47009,0.00257
1794.40991,0.00249
1792.34974,0.00239
1790.28957,0.00253
1788.22940,0.00289
1786.16923,0.00313
1784.10905,0.00316
1782.04888,0.00315
1779.98871,0.00312
1777.92854,0.00306
1775.86836,0.00298
1773.80819,0.00295
1771.74802,0.00300
1769.68785,0.00312
1767.62768,0.00327
1765.56750,0.00341
1763.50733,0.00339
1761.44716,0.00319
1759.38699,0.00317
1757.32682,0.00358
1755.26664,0.00404
1753.20647,0.00415
1751.14630,0.00414
1749.08613,0.00426
1747.02596,0.00436
1744.96578,0.00441
1742.90561,0.00459
1740.84544,0.00490
1738.78527,0.00508
1736.72509,0.00510
1734.66492,0.00510
1732.60475,0.00518
1730.54458,0.00523
1728.48441,0.00515
1726.42423,0.00502
1724.36406,0.00505
1722.30389,0.00519
1720.24372,0.00516
1718.18355,0.00514
1716.12337,0.00559
1714.06320,0.00616
1712.00303,0.00644
1709.94286,0.00655
1707.88268,0.00654
1705.82251,0.00647
1703.76234,0.00648
1701.70217,0.00676
1699.64200,0.00734
1697.58182,0.00791
1695.52165,0.00829
1693.46148,0.00856
1691.40131,0.00876
1689.34114,0.00893
1687.28096,0.00922
1685.22079,0.00984
1683.16062,0.01067
1681.10045,0.01113
1679.04028,0.01118
1676.98010,0.01109
1674.91993,0.01109
1672.85976,0.01133
1670.79959,0.01179
1668.73941,0.01231
1666.67924,0.01261
1664.61907,0.01278
1662.55890,0.01301
1660.49873,0.01328
1658.43855,0.01353
1656.37838,0.01372
1654.31821,0.01363
1652.25804,0.01327
1650.19787,0.01308
1648.13769,0.01322
1646.07752,0.01364
1644.01735,0.01399
1641.95718,0.01394
1639.89701,0.01376
1637.83683,0.01373
1635.77666,0.01367
1633.71649,0.01338
1631.65632,0.01313
1629.59614,0.01297
1627.53597,0.01287
1625.47580,0.01267
1623.41563,0.01234
1621.35546,0.01219
1619.29528,0.01231
1617.23511,0.01234
1615.17494,0.01225
1613.11477,0.01222
1611.05460,0.01213
1608.99442,0.01188
1606.93425,0.01154
1604.87408,0.01119
1602.81391,0.01088
1600.75373,0.01066
1598.69356,0.01051
1596.63339,0.01030
1594.57322,0.01002
1592.51305,0.00971
1590.45287,0.00944
1588.39270,0.00927
1586.33253,0.00920
1584.27236,0.00901
1582.21219,0.00853
1580.15201,0.00806
1578.09184,0.00783
1576.03167,0.00768
1573.97150,0.00746
1571.91133,0.00725
1569.85115,0.00703
1567.79098,0.00691
1565.73081,0.00692
1563.67064,0.00687
1561.61046,0.00651
1559.55029,0.00585
1557.49012,0.00543
1555.42995,0.00554
1553.36978,0.00557
1551.30960,0.00535
1549.24943,0.00514
1547.18926,0.00504
1545.12909,0.00484
1543.06892,0.00440
1541.00874,0.00379
1538.94857,0.00348
1536.88840,0.00357
1534.82823,0.00363
1532.76805,0.00358
1530.70788,0.00358
1528.64771,0.00347
1526.58754,0.00324
1524.52737,0.00311
1522.46719,0.00308
1520.40702,0.00298
1518.34685,0.00300
1516.28668,0.00316
1514.22651,0.00323
1512.16633,0.00305
1510.10616,0.00264
1508.04599,0.00225
1505.98582,0.00222
1503.92565,0.00237
1501.86547,0.00235
1499.80530,0.00217
1497.74513,0.00199
1495.68496,0.00199
1493.62478,0.00207
1491.56461,0.00213
1489.50444,0.00218
1487.44427,0.00222
1485.38410,0.00222
1483.32392,0.00220
1481.26375,0.00228
1479.20358,0.00245
1477.14341,0.00257
1475.08324,0.00266
1473.02306,0.00279
1470.96289,0.00293
1468.90272,0.00301
1466.84255,0.00308
1464.78238,0.00312
1462.72220,0.00315
1460.66203,0.00328
1458.60186,0.00354
1456.54169,0.00376
1454.48151,0.00372
1452.42134,0.00352
1450.36117,0.00330
1448.30100,0.00317
1446.24083,0.00314
1444.18065,0.00307
1442.12048,0.00292
1440.06031,0.00272
1438.00014,0.00253
1435.93997,0.00254
1433.87979,0.00278
1431.81962,0.00301
1429.75945,0.00309
1427.69928,0.00308
1425.63910,0.00314
1423.57893,0.00325
1421.51876,0.00328
1419.45859,0.00328
1417.39842,0.00332
1415.33824,0.00332
1413.27807,0.00326
1411.21790,0.00323
1409.15773,0.00329
1407.09756,0.00328
1405.03738,0.00308
1402.97721,0.00287
1400.91704,0.00286
1398.85687,0.00289
1396.79670,0.00280
1394.73652,0.00271
1392.67635,0.00271
1390.61618,0.00277
1388.55601,0.00281
1386.49583,0.00279
1384.43566,0.00286
1382.37549,0.00308
1380.31532,0.00322
1378.25515,0.00319
1376.19497,0.00314
1374.13480,0.00316
1372.07463,0.00322
1370.01446,0.00328
1367.95429,0.00325
1365.89411,0.00306
1363.83394,0.00291
1361.77377,0.00287
1359.71360,0.00276
1357.65343,0.00259
1355.59325,0.00247
1353.53308,0.00240
1351.47291,0.00235
1349.41274,0.00236
1347.35256,0.00237
1345.29239,0.00235
1343.23222,0.00231
1341.17205,0.00231
1339.11188,0.00236
1337.05170,0.00236
1334.99153,0.00228
1332.93136,0.00221
1330.87119,0.00218
1328.81102,0.00211
1326.75084,0.00194
1324.69067,0.00175
1322.63050,0.00164
1320.57033,0.00169
1318.51015,0.00175
1316.44998,0.00166
1314.38981,0.00162
1312.32964,0.00177
1310.26947,0.00195
1308.20929,0.00196
1306.14912,0.00180
1304.08895,0.00163
1302.02878,0.00160
1299.96861,0.00170
1297.90843,0.00187
1295.84826,0.00197
1293.78809,0.00198
1291.72792,0.00193
1289.66775,0.00182
1287.60757,0.00174
1285.54740,0.00177
1283.48723,0.00182
1281.42706,0.00187
1279.36688,0.00197
1277.30671,0.00219
1275.24654,0.00241
1273.18637,0.00235
1271.12620,0.00209
1269.06602,0.00198
1267.00585,0.00207
1264.94568,0.00210
1262.88551,0.00204
1260.82534,0.00208
1258.76516,0.00220
1256.70499,0.00234
1254.64482,0.00236
1252.58465,0.00217
1250.52447,0.00194
1248.46430,0.00180
1246.40413,0.00175
1244.34396,0.00182
1242.28379,0.00188
1240.22361,0.00177
1238.16344,0.00152
1236.10327,0.00128
1234.04310,0.00104
1231.98293,0.00088
1229.92275,0.00087
1227.86258,0.00092
1225.80241,0.00088
1223.74224,0.00076
1221.68207,0.00063
1219.62189,0.00057
1217.56172,0.00058
1215.50155,0.00058
1213.44138,0.00056
1211.38120,0.00049
1209.32103,0.00027
1207.26086,0.00006
1205.20069,0.00003
1203.14052,0.00006
1201.08034,0.00000
1199.02017,0.00001
1196.96000,0.00017
1194.89983,0.00033
1192.83966,0.00037
1190.77948,0.00035
1188.71931,0.00055
1186.65914,0.00094
1184.59897,0.00117
1182.53880,0.00131
1180.47862,0.00175
1178.41845,0.00251
1176.35828,0.00318
1174.29811,0.00351
1172.23793,0.00375
1170.17776,0.00424
1168.11759,0.00497
1166.05742,0.00555
1163.99725,0.00586
1161.93707,0.00628
1159.87690,0.00687
1157.81673,0.00732
1155.75656,0.00761
1153.69639,0.00794
1151.63621,0.00831
1149.57604,0.00863
1147.51587,0.00907
1145.45570,0.00975
1143.39552,0.01050
1141.33535,0.01120
1139.27518,0.01184
1137.21501,0.01231
1135.15484,0.01272
1133.09466,0.01332
1131.03449,0.01404
1128.97432,0.01469
1126.91415,0.01532
1124.85398,0.01610
1122.79380,0.01690
1120.73363,0.01745
1118.67346,0.01784
1116.61329,0.01845
1114.55312,0.01925
1112.49294,0.01998
1110.43277,0.02073
1108.37260,0.02157
1106.31243,0.02247
1104.25225,0.02336
1102.19208,0.02409
1100.13191,0.02491
1098.07174,0.02583
1096.01157,0.02651
1093.95139,0.02706
1091.89122,0.02776
1089.83105,0.02855
1087.77088,0.02928
1085.71071,0.02999
1083.65053,0.03069
1081.59036,0.03128
1079.53019,0.03183
1077.47002,0.03244
1075.40985,0.03302
1073.34967,0.03348
1071.28950,0.03400
1069.22933,0.03463
1067.16916,0.03509
1065.10898,0.03543
1063.04881,0.03565
1060.98864,0.03545
1058.92847,0.03506
1056.86830,0.03486
1054.80812,0.03476
1052.74795,0.03461
1050.68778,0.03438
1048.62761,0.03400
1046.56744,0.03342
1044.50726,0.03280
1042.44709,0.03223
1040.38692,0.03156
1038.32675,0.03086
1036.26657,0.03018
1034.20640,0.02936
1032.14623,0.02852
1030.08606,0.02788
1028.02589,0.02736
1025.96571,0.02668
1023.90554,0.02596
1021.84537,0.02548
1019.78520,0.02494
1017.72503,0.02415
1015.66485,0.02351
1013.60468,0.02325
1011.54451,0.02298
1009.48434,0.02245
1007.42417,0.02190
1005.36399,0.02153
1003.30382,0.02127
1001.24365,0.02121
999.18348,0.02150
997.12330,0.02202
995.06313,0.02250
993.00296,0.02296
990.94279,0.02343
988.88262,0.02378
986.82244,0.02417
984.76227,0.02461
982.70210,0.02478
980.64193,0.02460
978.58176,0.02431
976.52158,0.02391
974.46141,0.02329
972.40124,0.02244
970.34107,0.02149
968.28089,0.02054
966.22072,0.01940
964.16055,0.01822
962.10038,0.01729
960.04021,0.01658
957.98003,0.01600
955.91986,0.01548
953.85969,0.01483
951.79952,0.01414
949.73935,0.01377
947.67917,0.01355
945.61900,0.01332
943.55883,0.01337
941.49866,0.01364
939.43849,0.01372
937.37831,0.01357
935.31814,0.01353
933.25797,0.01363
931.19780,0.01363
929.13762,0.01327
927.07745,0.01286
925.01728,0.01286
922.95711,0.01275
920.89694,0.01206
918.83676,0.01133
916.77659,0.01102
914.71642,0.01095
912.65625,0.01073
910.59608,0.01024
908.53590,0.00984
906.47573,0.00983
904.41556,0.00994
902.35539,0.00993
900.29522,0.00986
898.23504,0.00966
896.17487,0.00934
894.11470,0.00897
892.05453,0.00887
889.99435,0.00915
887.93418,0.00928
885.87401,0.00926
883.81384,0.00942
881.75367,0.00966
879.69349,0.01010
877.63332,0.01069
875.57315,0.01100
873.51298,0.01112
871.45281,0.01133
869.39263,0.01143
867.33246,0.01122
865.27229,0.01115
863.21212,0.01155
861.15194,0.01179
859.09177,0.01151
857.03160,0.01124
854.97143,0.01119
852.91126,0.01121
850.85108,0.01115
848.79091,0.01082
846.73074,0.01038
844.67057,0.00984
842.61040,0.00942
840.55022,0.00942
838.49005,0.00937
836.42988,0.00902
834.36971,0.00863
832.30954,0.00816
830.24936,0.00768
828.18919,0.00735
826.12902,0.00696
824.06885,0.00688
822.00867,0.00725
819.94850,0.00699
817.88833,0.00593
815.82816,0.00538
813.76799,0.00553
811.70781,0.00573
809.64764,0.00584
807.58747,0.00577
805.52730,0.00532
803.46713,0.00464
801.40695,0.00410
799.34678,0.00388
797.28661,0.00369
795.22644,0.00335
793.16627,0.00301
791.10609,0.00275
789.04592,0.00273
786.98575,0.00320
784.92558,0.00394
782.86540,0.00436
780.80523,0.00422
778.74506,0.00357
776.68489,0.00302
774.62472,0.00318
772.56454,0.00351
770.50437,0.00334
768.44420,0.00311
766.38403,0.00371
764.32386,0.00473
762.26368,0.00490
760.20351,0.00390
758.14334,0.00267
756.08317,0.00224
754.02299,0.00275
751.96282,0.00340
749.90265,0.00345
747.84248,0.00304
745.78231,0.00239
743.72213,0.00130
741.66196,0.00069
739.60179,0.00142
737.54162,0.00226
735.48145,0.00209
733.42127,0.00162
731.36110,0.00176
729.30093,0.00212
727.24076,0.00179
725.18059,0.00126
723.12041,0.00152
721.06024,0.00226
719.00007,0.00282
716.93990,0.00314
714.87972,0.00335
712.81955,0.00342
710.75938,0.00305
708.69921,0.00215
706.63904,0.00166
704.57886,0.00236
702.51869,0.00327
700.45852,0.00314
698.39835,0.00248
696.33818,0.00234
694.27800,0.00251
692.21783,0.00247
690.15766,0.00254
688.09749,0.00295
686.03731,0.00291
683.97714,0.00199
681.91697,0.00099
679.85680,0.00077
677.79663,0.00155
675.73645,0.00234
673.67628,0.00223
671.61611,0.00179
669.55594,0.00217
667.49577,0.00317
665.43559,0.00334
663.37542,0.00298
661.31525,0.00277
659.25508,0.00261
657.19491,0.00262
655.13473,0.00281
653.07456,0.00296
651.01439,0.00316
648.95422,0.00353
646.89404,0.00379
644.83387,0.00330
642.77370,0.00170
640.71353,0.00006
638.65336,0.00036
636.59318,0.00267
634.53301,0.00415
632.47284,0.00355
630.41267,0.00293
628.35250,0.00370
626.29232,0.00470
624.23215,0.00441
622.17198,0.00347
620.11181,0.00276
618.05164,0.00323
615.99146,0.00450
613.93129,0.00332
611.87112,0.00034
609.81095,0.00000
607.75077,0.00097
605.69060,0.00046
603.63043,0.00000
601.57026,0.00021
599.51009,0.00000
