Created as New Dataset,Sample 378 By Analyst Date Monday, February 10 2025
cm-1,%T
4000.00,120.45
3999.00,120.45
3998.00,120.45
3997.00,120.44
3996.00,120.44
3995.00,120.43
3994.00,120.43
3993.00,120.42
3992.00,120.41
3991.00,120.41
3990.00,120.40
3989.00,120.40
3988.00,120.39
3987.00,120.39
3986.00,120.38
3985.00,120.38
3984.00,120.38
3983.00,120.37
3982.00,120.37
3981.00,120.36
3980.00,120.36
3979.00,120.35
3978.00,120.35
3977.00,120.34
3976.00,120.34
3975.00,120.33
3974.00,120.33
3973.00,120.33
3972.00,120.32
3971.00,120.32
3970.00,120.32
3969.00,120.32
3968.00,120.32
3967.00,120.32
3966.00,120.32
3965.00,120.32
3964.00,120.32
3963.00,120.32
3962.00,120.32
3961.00,120.32
3960.00,120.32
3959.00,120.32
3958.00,120.32
3957.00,120.32
3956.00,120.33
3955.00,120.33
3954.00,120.33
3953.00,120.33
3952.00,120.33
3951.00,120.33
3950.00,120.34
3949.00,120.34
3948.00,120.34
3947.00,120.34
3946.00,120.33
3945.00,120.33
3944.00,120.33
3943.00,120.33
3942.00,120.33
3941.00,120.33
3940.00,120.32
3939.00,120.31
3938.00,120.31
3937.00,120.31
3936.00,120.30
3935.00,120.30
3934.00,120.29
3933.00,120.28
3932.00,120.28
3931.00,120.28
3930.00,120.27
3929.00,120.27
3928.00,120.27
3927.00,120.26
3926.00,120.26
3925.00,120.25
3924.00,120.25
3923.00,120.25
3922.00,120.24
3921.00,120.24
3920.00,120.23
3919.00,120.23
3918.00,120.23
3917.00,120.22
3916.00,120.22
3915.00,120.22
3914.00,120.22
3913.00,120.22
3912.00,120.22
3911.00,120.22
3910.00,120.22
3909.00,120.22
3908.00,120.22
3907.00,120.22
3906.00,120.22
3905.00,120.23
3904.00,120.24
3903.00,120.24
3902.00,120.24
3901.00,120.24
3900.00,120.24
3899.00,120.25
3898.00,120.25
3897.00,120.25
3896.00,120.25
3895.00,120.25
3894.00,120.25
3893.00,120.25
3892.00,120.25
3891.00,120.25
3890.00,120.25
3889.00,120.25
3888.00,120.23
3887.00,120.22
3886.00,120.22
3885.00,120.23
3884.00,120.24
3883.00,120.22
3882.00,120.21
3881.00,120.22
3880.00,120.23
3879.00,120.23
3878.00,120.22
3877.00,120.21
3876.00,120.20
3875.00,120.20
3874.00,120.21
3873.00,120.21
3872.00,120.20
3871.00,120.18
3870.00,120.18
3869.00,120.20
3868.00,120.20
3867.00,120.19
3866.00,120.18
3865.00,120.18
3864.00,120.19
3863.00,120.19
3862.00,120.18
3861.00,120.17
3860.00,120.18
3859.00,120.18
3858.00,120.19
3857.00,120.20
3856.00,120.21
3855.00,120.20
3854.00,120.20
3853.00,120.20
3852.00,120.21
3851.00,120.20
3850.00,120.19
3849.00,120.20
3848.00,120.21
3847.00,120.20
3846.00,120.20
3845.00,120.19
3844.00,120.18
3843.00,120.18
3842.00,120.19
3841.00,120.19
3840.00,120.18
3839.00,120.18
3838.00,120.18
3837.00,120.18
3836.00,120.18
3835.00,120.17
3834.00,120.17
3833.00,120.17
3832.00,120.16
3831.00,120.16
3830.00,120.15
3829.00,120.14
3828.00,120.12
3827.00,120.11
3826.00,120.11
3825.00,120.12
3824.00,120.11
3823.00,120.09
3822.00,120.08
3821.00,120.09
3820.00,120.10
3819.00,120.10
3818.00,120.07
3817.00,120.06
3816.00,120.06
3815.00,120.07
3814.00,120.06
3813.00,120.04
3812.00,120.04
3811.00,120.05
3810.00,120.06
3809.00,120.05
3808.00,120.03
3807.00,120.03
3806.00,120.04
3805.00,120.05
3804.00,120.04
3803.00,120.03
3802.00,120.04
3801.00,120.06
3800.00,120.06
3799.00,120.05
3798.00,120.04
3797.00,120.05
3796.00,120.07
3795.00,120.07
3794.00,120.06
3793.00,120.05
3792.00,120.04
3791.00,120.05
3790.00,120.05
3789.00,120.05
3788.00,120.05
3787.00,120.04
3786.00,120.04
3785.00,120.04
3784.00,120.04
3783.00,120.05
3782.00,120.04
3781.00,120.04
3780.00,120.04
3779.00,120.04
3778.00,120.05
3777.00,120.04
3776.00,120.03
3775.00,120.03
3774.00,120.03
3773.00,120.03
3772.00,120.02
3771.00,120.02
3770.00,120.02
3769.00,120.03
3768.00,120.03
3767.00,120.02
3766.00,120.02
3765.00,120.02
3764.00,120.03
3763.00,120.02
3762.00,120.02
3761.00,120.01
3760.00,120.02
3759.00,120.02
3758.00,120.02
3757.00,120.01
3756.00,120.01
3755.00,120.01
3754.00,120.00
3753.00,119.99
3752.00,119.99
3751.00,119.98
3750.00,119.98
3749.00,119.99
3748.00,120.00
3747.00,120.00
3746.00,119.99
3745.00,119.98
3744.00,119.99
3743.00,119.99
3742.00,119.97
3741.00,119.95
3740.00,119.95
3739.00,119.96
3738.00,119.95
3737.00,119.93
3736.00,119.92
3735.00,119.92
3734.00,119.92
3733.00,119.91
3732.00,119.90
3731.00,119.90
3730.00,119.90
3729.00,119.89
3728.00,119.87
3727.00,119.86
3726.00,119.86
3725.00,119.86
3724.00,119.85
3723.00,119.84
3722.00,119.84
3721.00,119.85
3720.00,119.84
3719.00,119.84
3718.00,119.84
3717.00,119.84
3716.00,119.84
3715.00,119.84
3714.00,119.84
3713.00,119.84
3712.00,119.85
3711.00,119.86
3710.00,119.86
3709.00,119.87
3708.00,119.87
3707.00,119.88
3706.00,119.89
3705.00,119.90
3704.00,119.91
3703.00,119.91
3702.00,119.93
3701.00,119.94
3700.00,119.96
3699.00,119.97
3698.00,119.98
3697.00,120.00
3696.00,120.02
3695.00,120.04
3694.00,120.06
3693.00,120.07
3692.00,120.09
3691.00,120.11
3690.00,120.12
3689.00,120.13
3688.00,120.15
3687.00,120.16
3686.00,120.17
3685.00,120.18
3684.00,120.19
3683.00,120.20
3682.00,120.20
3681.00,120.20
3680.00,120.20
3679.00,120.21
3678.00,120.21
3677.00,120.20
3676.00,120.20
3675.00,120.22
3674.00,120.23
3673.00,120.22
3672.00,120.20
3671.00,120.20
3670.00,120.21
3669.00,120.21
3668.00,120.20
3667.00,120.19
3666.00,120.18
3665.00,120.17
3664.00,120.16
3663.00,120.15
3662.00,120.14
3661.00,120.13
3660.00,120.12
3659.00,120.12
3658.00,120.11
3657.00,120.10
3656.00,120.10
3655.00,120.10
3654.00,120.10
3653.00,120.08
3652.00,120.07
3651.00,120.08
3650.00,120.08
3649.00,120.08
3648.00,120.07
3647.00,120.07
3646.00,120.07
3645.00,120.07
3644.00,120.06
3643.00,120.06
3642.00,120.06
3641.00,120.05
3640.00,120.05
3639.00,120.04
3638.00,120.04
3637.00,120.04
3636.00,120.04
3635.00,120.03
3634.00,120.04
3633.00,120.05
3632.00,120.05
3631.00,120.05
3630.00,120.05
3629.00,120.06
3628.00,120.08
3627.00,120.08
3626.00,120.07
3625.00,120.07
3624.00,120.08
3623.00,120.09
3622.00,120.09
3621.00,120.08
3620.00,120.08
3619.00,120.09
3618.00,120.09
3617.00,120.09
3616.00,120.09
3615.00,120.08
3614.00,120.08
3613.00,120.09
3612.00,120.08
3611.00,120.08
3610.00,120.07
3609.00,120.07
3608.00,120.07
3607.00,120.07
3606.00,120.07
3605.00,120.07
3604.00,120.07
3603.00,120.07
3602.00,120.07
3601.00,120.07
3600.00,120.07
3599.00,120.07
3598.00,120.07
3597.00,120.07
3596.00,120.08
3595.00,120.08
3594.00,120.08
3593.00,120.08
3592.00,120.09
3591.00,120.09
3590.00,120.09
3589.00,120.10
3588.00,120.10
3587.00,120.11
3586.00,120.12
3585.00,120.12
3584.00,120.13
3583.00,120.13
3582.00,120.14
3581.00,120.14
3580.00,120.15
3579.00,120.15
3578.00,120.15
3577.00,120.16
3576.00,120.16
3575.00,120.17
3574.00,120.17
3573.00,120.18
3572.00,120.18
3571.00,120.18
3570.00,120.18
3569.00,120.18
3568.00,120.18
3567.00,120.19
3566.00,120.20
3565.00,120.20
3564.00,120.20
3563.00,120.20
3562.00,120.20
3561.00,120.20
3560.00,120.20
3559.00,120.20
3558.00,120.20
3557.00,120.20
3556.00,120.20
3555.00,120.20
3554.00,120.19
3553.00,120.19
3552.00,120.19
3551.00,120.20
3550.00,120.19
3549.00,120.19
3548.00,120.19
3547.00,120.20
3546.00,120.20
3545.00,120.20
3544.00,120.20
3543.00,120.20
3542.00,120.20
3541.00,120.21
3540.00,120.21
3539.00,120.21
3538.00,120.21
3537.00,120.21
3536.00,120.21
3535.00,120.22
3534.00,120.22
3533.00,120.22
3532.00,120.22
3531.00,120.23
3530.00,120.23
3529.00,120.23
3528.00,120.23
3527.00,120.23
3526.00,120.23
3525.00,120.23
3524.00,120.23
3523.00,120.23
3522.00,120.23
3521.00,120.23
3520.00,120.23
3519.00,120.23
3518.00,120.23
3517.00,120.22
3516.00,120.22
3515.00,120.21
3514.00,120.21
3513.00,120.21
3512.00,120.21
3511.00,120.20
3510.00,120.20
3509.00,120.20
3508.00,120.19
3507.00,120.19
3506.00,120.18
3505.00,120.18
3504.00,120.18
3503.00,120.18
3502.00,120.17
3501.00,120.17
3500.00,120.17
3499.00,120.17
3498.00,120.17
3497.00,120.17
3496.00,120.17
3495.00,120.17
3494.00,120.18
3493.00,120.18
3492.00,120.18
3491.00,120.18
3490.00,120.18
3489.00,120.19
3488.00,120.19
3487.00,120.20
3486.00,120.21
3485.00,120.22
3484.00,120.22
3483.00,120.23
3482.00,120.24
3481.00,120.24
3480.00,120.25
3479.00,120.25
3478.00,120.26
3477.00,120.27
3476.00,120.28
3475.00,120.28
3474.00,120.29
3473.00,120.29
3472.00,120.30
3471.00,120.30
3470.00,120.31
3469.00,120.31
3468.00,120.32
3467.00,120.32
3466.00,120.33
3465.00,120.33
3464.00,120.33
3463.00,120.33
3462.00,120.33
3461.00,120.34
3460.00,120.34
3459.00,120.34
3458.00,120.35
3457.00,120.35
3456.00,120.35
3455.00,120.35
3454.00,120.35
3453.00,120.35
3452.00,120.35
3451.00,120.36
3450.00,120.36
3449.00,120.36
3448.00,120.36
3447.00,120.37
3446.00,120.37
3445.00,120.38
3444.00,120.38
3443.00,120.38
3442.00,120.39
3441.00,120.39
3440.00,120.40
3439.00,120.40
3438.00,120.40
3437.00,120.41
3436.00,120.41
3435.00,120.42
3434.00,120.43
3433.00,120.43
3432.00,120.44
3431.00,120.44
3430.00,120.44
3429.00,120.44
3428.00,120.45
3427.00,120.45
3426.00,120.45
3425.00,120.45
3424.00,120.45
3423.00,120.45
3422.00,120.45
3421.00,120.45
3420.00,120.45
3419.00,120.44
3418.00,120.44
3417.00,120.43
3416.00,120.42
3415.00,120.41
3414.00,120.40
3413.00,120.40
3412.00,120.39
3411.00,120.38
3410.00,120.36
3409.00,120.35
3408.00,120.34
3407.00,120.33
3406.00,120.31
3405.00,120.30
3404.00,120.29
3403.00,120.28
3402.00,120.26
3401.00,120.25
3400.00,120.24
3399.00,120.23
3398.00,120.22
3397.00,120.21
3396.00,120.20
3395.00,120.19
3394.00,120.18
3393.00,120.17
3392.00,120.17
3391.00,120.16
3390.00,120.16
3389.00,120.16
3388.00,120.15
3387.00,120.15
3386.00,120.15
3385.00,120.14
3384.00,120.14
3383.00,120.14
3382.00,120.14
3381.00,120.14
3380.00,120.14
3379.00,120.14
3378.00,120.14
3377.00,120.14
3376.00,120.14
3375.00,120.14
3374.00,120.14
3373.00,120.14
3372.00,120.14
3371.00,120.14
3370.00,120.14
3369.00,120.14
3368.00,120.14
3367.00,120.14
3366.00,120.14
3365.00,120.14
3364.00,120.13
3363.00,120.13
3362.00,120.13
3361.00,120.13
3360.00,120.13
3359.00,120.12
3358.00,120.12
3357.00,120.12
3356.00,120.11
3355.00,120.11
3354.00,120.11
3353.00,120.10
3352.00,120.10
3351.00,120.10
3350.00,120.10
3349.00,120.10
3348.00,120.10
3347.00,120.10
3346.00,120.10
3345.00,120.10
3344.00,120.10
3343.00,120.10
3342.00,120.10
3341.00,120.10
3340.00,120.10
3339.00,120.10
3338.00,120.11
3337.00,120.11
3336.00,120.12
3335.00,120.12
3334.00,120.13
3333.00,120.13
3332.00,120.14
3331.00,120.14
3330.00,120.15
3329.00,120.15
3328.00,120.16
3327.00,120.17
3326.00,120.17
3325.00,120.18
3324.00,120.19
3323.00,120.19
3322.00,120.20
3321.00,120.21
3320.00,120.21
3319.00,120.22
3318.00,120.23
3317.00,120.24
3316.00,120.24
3315.00,120.25
3314.00,120.26
3313.00,120.27
3312.00,120.28
3311.00,120.29
3310.00,120.30
3309.00,120.31
3308.00,120.32
3307.00,120.33
3306.00,120.35
3305.00,120.36
3304.00,120.37
3303.00,120.37
3302.00,120.37
3301.00,120.36
3300.00,120.36
3299.00,120.34
3298.00,120.33
3297.00,120.31
3296.00,120.30
3295.00,120.28
3294.00,120.26
3293.00,120.25
3292.00,120.23
3291.00,120.22
3290.00,120.20
3289.00,120.19
3288.00,120.17
3287.00,120.16
3286.00,120.15
3285.00,120.14
3284.00,120.13
3283.00,120.13
3282.00,120.12
3281.00,120.11
3280.00,120.10
3279.00,120.10
3278.00,120.09
3277.00,120.09
3276.00,120.08
3275.00,120.08
3274.00,120.07
3273.00,120.07
3272.00,120.07
3271.00,120.07
3270.00,120.07
3269.00,120.07
3268.00,120.07
3267.00,120.07
3266.00,120.07
3265.00,120.07
3264.00,120.07
3263.00,120.07
3262.00,120.07
3261.00,120.07
3260.00,120.07
3259.00,120.07
3258.00,120.07
3257.00,120.07
3256.00,120.07
3255.00,120.07
3254.00,120.07
3253.00,120.07
3252.00,120.07
3251.00,120.07
3250.00,120.07
3249.00,120.07
3248.00,120.06
3247.00,120.06
3246.00,120.06
3245.00,120.06
3244.00,120.06
3243.00,120.06
3242.00,120.06
3241.00,120.06
3240.00,120.06
3239.00,120.05
3238.00,120.05
3237.00,120.05
3236.00,120.05
3235.00,120.05
3234.00,120.05
3233.00,120.06
3232.00,120.06
3231.00,120.06
3230.00,120.07
3229.00,120.07
3228.00,120.08
3227.00,120.08
3226.00,120.09
3225.00,120.09
3224.00,120.10
3223.00,120.10
3222.00,120.11
3221.00,120.12
3220.00,120.12
3219.00,120.13
3218.00,120.14
3217.00,120.14
3216.00,120.15
3215.00,120.15
3214.00,120.16
3213.00,120.17
3212.00,120.18
3211.00,120.18
3210.00,120.19
3209.00,120.19
3208.00,120.20
3207.00,120.20
3206.00,120.20
3205.00,120.21
3204.00,120.21
3203.00,120.22
3202.00,120.22
3201.00,120.22
3200.00,120.22
3199.00,120.21
3198.00,120.21
3197.00,120.21
3196.00,120.21
3195.00,120.21
3194.00,120.21
3193.00,120.20
3192.00,120.20
3191.00,120.19
3190.00,120.19
3189.00,120.19
3188.00,120.19
3187.00,120.19
3186.00,120.19
3185.00,120.19
3184.00,120.18
3183.00,120.18
3182.00,120.18
3181.00,120.18
3180.00,120.18
3179.00,120.18
3178.00,120.18
3177.00,120.18
3176.00,120.18
3175.00,120.18
3174.00,120.17
3173.00,120.17
3172.00,120.17
3171.00,120.17
3170.00,120.18
3169.00,120.18
3168.00,120.18
3167.00,120.19
3166.00,120.19
3165.00,120.20
3164.00,120.20
3163.00,120.21
3162.00,120.21
3161.00,120.22
3160.00,120.22
3159.00,120.23
3158.00,120.23
3157.00,120.23
3156.00,120.23
3155.00,120.23
3154.00,120.23
3153.00,120.23
3152.00,120.23
3151.00,120.23
3150.00,120.23
3149.00,120.23
3148.00,120.23
3147.00,120.22
3146.00,120.22
3145.00,120.22
3144.00,120.22
3143.00,120.21
3142.00,120.21
3141.00,120.21
3140.00,120.20
3139.00,120.20
3138.00,120.20
3137.00,120.20
3136.00,120.20
3135.00,120.20
3134.00,120.20
3133.00,120.20
3132.00,120.20
3131.00,120.19
3130.00,120.19
3129.00,120.19
3128.00,120.19
3127.00,120.20
3126.00,120.20
3125.00,120.20
3124.00,120.21
3123.00,120.22
3122.00,120.22
3121.00,120.22
3120.00,120.23
3119.00,120.23
3118.00,120.24
3117.00,120.25
3116.00,120.26
3115.00,120.27
3114.00,120.28
3113.00,120.28
3112.00,120.29
3111.00,120.30
3110.00,120.31
3109.00,120.32
3108.00,120.33
3107.00,120.34
3106.00,120.35
3105.00,120.36
3104.00,120.36
3103.00,120.36
3102.00,120.36
3101.00,120.37
3100.00,120.37
3099.00,120.37
3098.00,120.37
3097.00,120.37
3096.00,120.37
3095.00,120.37
3094.00,120.37
3093.00,120.37
3092.00,120.37
3091.00,120.37
3090.00,120.37
3089.00,120.37
3088.00,120.37
3087.00,120.37
3086.00,120.37
3085.00,120.37
3084.00,120.38
3083.00,120.38
3082.00,120.38
3081.00,120.39
3080.00,120.39
3079.00,120.39
3078.00,120.39
3077.00,120.39
3076.00,120.40
3075.00,120.40
3074.00,120.40
3073.00,120.40
3072.00,120.40
3071.00,120.40
3070.00,120.40
3069.00,120.40
3068.00,120.40
3067.00,120.41
3066.00,120.41
3065.00,120.41
3064.00,120.42
3063.00,120.42
3062.00,120.42
3061.00,120.43
3060.00,120.43
3059.00,120.43
3058.00,120.43
3057.00,120.43
3056.00,120.43
3055.00,120.44
3054.00,120.44
3053.00,120.44
3052.00,120.44
3051.00,120.45
3050.00,120.45
3049.00,120.45
3048.00,120.45
3047.00,120.45
3046.00,120.45
3045.00,120.45
3044.00,120.45
3043.00,120.45
3042.00,120.45
3041.00,120.45
3040.00,120.45
3039.00,120.45
3038.00,120.45
3037.00,120.44
3036.00,120.44
3035.00,120.44
3034.00,120.43
3033.00,120.43
3032.00,120.43
3031.00,120.42
3030.00,120.42
3029.00,120.42
3028.00,120.41
3027.00,120.41
3026.00,120.41
3025.00,120.41
3024.00,120.40
3023.00,120.40
3022.00,120.40
3021.00,120.40
3020.00,120.40
3019.00,120.40
3018.00,120.40
3017.00,120.40
3016.00,120.40
3015.00,120.40
3014.00,120.40
3013.00,120.41
3012.00,120.41
3011.00,120.42
3010.00,120.42
3009.00,120.42
3008.00,120.42
3007.00,120.42
3006.00,120.43
3005.00,120.43
3004.00,120.43
3003.00,120.43
3002.00,120.43
3001.00,120.43
3000.00,120.43
2999.00,120.43
2998.00,120.43
2997.00,120.43
2996.00,120.43
2995.00,120.43
2994.00,120.43
2993.00,120.43
2992.00,120.43
2991.00,120.43
2990.00,120.43
2989.00,120.43
2988.00,120.43
2987.00,120.43
2986.00,120.42
2985.00,120.42
2984.00,120.42
2983.00,120.42
2982.00,120.41
2981.00,120.41
2980.00,120.40
2979.00,120.40
2978.00,120.40
2977.00,120.39
2976.00,120.39
2975.00,120.39
2974.00,120.39
2973.00,120.39
2972.00,120.39
2971.00,120.39
2970.00,120.39
2969.00,120.39
2968.00,120.39
2967.00,120.39
2966.00,120.39
2965.00,120.39
2964.00,120.39
2963.00,120.40
2962.00,120.40
2961.00,120.40
2960.00,120.41
2959.00,120.41
2958.00,120.41
2957.00,120.42
2956.00,120.42
2955.00,120.42
2954.00,120.42
2953.00,120.42
2952.00,120.43
2951.00,120.43
2950.00,120.43
2949.00,120.43
2948.00,120.43
2947.00,120.43
2946.00,120.44
2945.00,120.44
2944.00,120.44
2943.00,120.44
2942.00,120.44
2941.00,120.44
2940.00,120.44
2939.00,120.44
2938.00,120.44
2937.00,120.44
2936.00,120.44
2935.00,120.44
2934.00,120.44
2933.00,120.44
2932.00,120.44
2931.00,120.44
2930.00,120.43
2929.00,120.43
2928.00,120.43
2927.00,120.43
2926.00,120.43
2925.00,120.43
2924.00,120.42
2923.00,120.42
2922.00,120.42
2921.00,120.42
2920.00,120.42
2919.00,120.42
2918.00,120.41
2917.00,120.41
2916.00,120.40
2915.00,120.40
2914.00,120.39
2913.00,120.39
2912.00,120.38
2911.00,120.38
2910.00,120.38
2909.00,120.38
2908.00,120.38
2907.00,120.38
2906.00,120.38
2905.00,120.38
2904.00,120.38
2903.00,120.38
2902.00,120.38
2901.00,120.39
2900.00,120.39
2899.00,120.39
2898.00,120.40
2897.00,120.40
2896.00,120.40
2895.00,120.41
2894.00,120.41
2893.00,120.41
2892.00,120.42
2891.00,120.42
2890.00,120.42
2889.00,120.42
2888.00,120.42
2887.00,120.42
2886.00,120.42
2885.00,120.42
2884.00,120.42
2883.00,120.41
2882.00,120.41
2881.00,120.41
2880.00,120.41
2879.00,120.40
2878.00,120.40
2877.00,120.39
2876.00,120.39
2875.00,120.38
2874.00,120.38
2873.00,120.37
2872.00,120.37
2871.00,120.37
2870.00,120.37
2869.00,120.36
2868.00,120.36
2867.00,120.35
2866.00,120.35
2865.00,120.35
2864.00,120.35
2863.00,120.35
2862.00,120.35
2861.00,120.35
2860.00,120.35
2859.00,120.36
2858.00,120.36
2857.00,120.37
2856.00,120.37
2855.00,120.38
2854.00,120.39
2853.00,120.39
2852.00,120.40
2851.00,120.40
2850.00,120.40
2849.00,120.40
2848.00,120.40
2847.00,120.40
2846.00,120.41
2845.00,120.41
2844.00,120.41
2843.00,120.41
2842.00,120.41
2841.00,120.41
2840.00,120.41
2839.00,120.41
2838.00,120.41
2837.00,120.41
2836.00,120.41
2835.00,120.41
2834.00,120.41
2833.00,120.41
2832.00,120.40
2831.00,120.40
2830.00,120.40
2829.00,120.39
2828.00,120.39
2827.00,120.39
2826.00,120.38
2825.00,120.38
2824.00,120.37
2823.00,120.36
2822.00,120.36
2821.00,120.35
2820.00,120.35
2819.00,120.34
2818.00,120.34
2817.00,120.33
2816.00,120.33
2815.00,120.32
2814.00,120.32
2813.00,120.31
2812.00,120.31
2811.00,120.30
2810.00,120.30
2809.00,120.30
2808.00,120.30
2807.00,120.31
2806.00,120.31
2805.00,120.31
2804.00,120.31
2803.00,120.31
2802.00,120.32
2801.00,120.32
2800.00,120.32
2799.00,120.33
2798.00,120.33
2797.00,120.33
2796.00,120.34
2795.00,120.34
2794.00,120.34
2793.00,120.35
2792.00,120.35
2791.00,120.35
2790.00,120.35
2789.00,120.36
2788.00,120.36
2787.00,120.36
2786.00,120.36
2785.00,120.36
2784.00,120.35
2783.00,120.35
2782.00,120.35
2781.00,120.35
2780.00,120.35
2779.00,120.34
2778.00,120.34
2777.00,120.33
2776.00,120.33
2775.00,120.32
2774.00,120.32
2773.00,120.32
2772.00,120.31
2771.00,120.31
2770.00,120.30
2769.00,120.30
2768.00,120.29
2767.00,120.29
2766.00,120.28
2765.00,120.28
2764.00,120.28
2763.00,120.27
2762.00,120.27
2761.00,120.27
2760.00,120.26
2759.00,120.26
2758.00,120.26
2757.00,120.26
2756.00,120.26
2755.00,120.26
2754.00,120.26
2753.00,120.26
2752.00,120.26
2751.00,120.26
2750.00,120.27
2749.00,120.27
2748.00,120.27
2747.00,120.28
2746.00,120.28
2745.00,120.29
2744.00,120.29
2743.00,120.30
2742.00,120.30
2741.00,120.30
2740.00,120.31
2739.00,120.31
2738.00,120.32
2737.00,120.32
2736.00,120.32
2735.00,120.32
2734.00,120.32
2733.00,120.32
2732.00,120.32
2731.00,120.32
2730.00,120.31
2729.00,120.31
2728.00,120.31
2727.00,120.30
2726.00,120.29
2725.00,120.29
2724.00,120.28
2723.00,120.27
2722.00,120.26
2721.00,120.26
2720.00,120.25
2719.00,120.24
2718.00,120.23
2717.00,120.23
2716.00,120.22
2715.00,120.21
2714.00,120.21
2713.00,120.20
2712.00,120.20
2711.00,120.19
2710.00,120.19
2709.00,120.18
2708.00,120.17
2707.00,120.17
2706.00,120.17
2705.00,120.17
2704.00,120.16
2703.00,120.16
2702.00,120.16
2701.00,120.16
2700.00,120.16
2699.00,120.16
2698.00,120.16
2697.00,120.16
2696.00,120.17
2695.00,120.17
2694.00,120.17
2693.00,120.17
2692.00,120.17
2691.00,120.18
2690.00,120.18
2689.00,120.19
2688.00,120.19
2687.00,120.19
2686.00,120.20
2685.00,120.20
2684.00,120.21
2683.00,120.21
2682.00,120.22
2681.00,120.22
2680.00,120.22
2679.00,120.23
2678.00,120.23
2677.00,120.23
2676.00,120.23
2675.00,120.23
2674.00,120.23
2673.00,120.23
2672.00,120.22
2671.00,120.22
2670.00,120.22
2669.00,120.21
2668.00,120.21
2667.00,120.20
2666.00,120.19
2665.00,120.18
2664.00,120.17
2663.00,120.17
2662.00,120.16
2661.00,120.15
2660.00,120.14
2659.00,120.13
2658.00,120.12
2657.00,120.11
2656.00,120.11
2655.00,120.10
2654.00,120.09
2653.00,120.09
2652.00,120.08
2651.00,120.08
2650.00,120.07
2649.00,120.07
2648.00,120.07
2647.00,120.07
2646.00,120.07
2645.00,120.06
2644.00,120.06
2643.00,120.07
2642.00,120.07
2641.00,120.07
2640.00,120.07
2639.00,120.07
2638.00,120.08
2637.00,120.08
2636.00,120.08
2635.00,120.09
2634.00,120.09
2633.00,120.09
2632.00,120.10
2631.00,120.10
2630.00,120.10
2629.00,120.11
2628.00,120.11
2627.00,120.11
2626.00,120.12
2625.00,120.12
2624.00,120.13
2623.00,120.13
2622.00,120.13
2621.00,120.13
2620.00,120.13
2619.00,120.13
2618.00,120.13
2617.00,120.13
2616.00,120.13
2615.00,120.13
2614.00,120.13
2613.00,120.12
2612.00,120.12
2611.00,120.12
2610.00,120.11
2609.00,120.11
2608.00,120.11
2607.00,120.10
2606.00,120.10
2605.00,120.10
2604.00,120.09
2603.00,120.09
2602.00,120.08
2601.00,120.08
2600.00,120.08
2599.00,120.08
2598.00,120.07
2597.00,120.07
2596.00,120.07
2595.00,120.07
2594.00,120.07
2593.00,120.07
2592.00,120.08
2591.00,120.08
2590.00,120.08
2589.00,120.08
2588.00,120.09
2587.00,120.09
2586.00,120.10
2585.00,120.10
2584.00,120.10
2583.00,120.11
2582.00,120.11
2581.00,120.11
2580.00,120.12
2579.00,120.12
2578.00,120.12
2577.00,120.12
2576.00,120.12
2575.00,120.12
2574.00,120.12
2573.00,120.12
2572.00,120.12
2571.00,120.12
2570.00,120.11
2569.00,120.11
2568.00,120.11
2567.00,120.10
2566.00,120.10
2565.00,120.10
2564.00,120.09
2563.00,120.09
2562.00,120.08
2561.00,120.08
2560.00,120.07
2559.00,120.06
2558.00,120.05
2557.00,120.04
2556.00,120.04
2555.00,120.03
2554.00,120.02
2553.00,120.02
2552.00,120.01
2551.00,120.00
2550.00,119.99
2549.00,119.99
2548.00,119.98
2547.00,119.97
2546.00,119.97
2545.00,119.96
2544.00,119.96
2543.00,119.95
2542.00,119.95
2541.00,119.95
2540.00,119.95
2539.00,119.95
2538.00,119.95
2537.00,119.95
2536.00,119.96
2535.00,119.96
2534.00,119.96
2533.00,119.97
2532.00,119.97
2531.00,119.97
2530.00,119.98
2529.00,119.98
2528.00,119.98
2527.00,119.98
2526.00,119.99
2525.00,119.99
2524.00,119.99
2523.00,119.99
2522.00,119.99
2521.00,119.98
2520.00,119.98
2519.00,119.98
2518.00,119.97
2517.00,119.97
2516.00,119.96
2515.00,119.96
2514.00,119.95
2513.00,119.94
2512.00,119.93
2511.00,119.93
2510.00,119.92
2509.00,119.91
2508.00,119.90
2507.00,119.89
2506.00,119.88
2505.00,119.87
2504.00,119.86
2503.00,119.85
2502.00,119.84
2501.00,119.84
2500.00,119.83
2499.00,119.82
2498.00,119.81
2497.00,119.80
2496.00,119.80
2495.00,119.79
2494.00,119.79
2493.00,119.78
2492.00,119.78
2491.00,119.78
2490.00,119.78
2489.00,119.78
2488.00,119.77
2487.00,119.77
2486.00,119.77
2485.00,119.77
2484.00,119.77
2483.00,119.77
2482.00,119.78
2481.00,119.78
2480.00,119.78
2479.00,119.78
2478.00,119.78
2477.00,119.78
2476.00,119.78
2475.00,119.78
2474.00,119.78
2473.00,119.78
2472.00,119.78
2471.00,119.78
2470.00,119.79
2469.00,119.79
2468.00,119.79
2467.00,119.79
2466.00,119.79
2465.00,119.78
2464.00,119.78
2463.00,119.78
2462.00,119.78
2461.00,119.77
2460.00,119.77
2459.00,119.77
2458.00,119.76
2457.00,119.76
2456.00,119.76
2455.00,119.75
2454.00,119.75
2453.00,119.74
2452.00,119.74
2451.00,119.74
2450.00,119.74
2449.00,119.74
2448.00,119.74
2447.00,119.74
2446.00,119.74
2445.00,119.74
2444.00,119.74
2443.00,119.74
2442.00,119.74
2441.00,119.75
2440.00,119.75
2439.00,119.76
2438.00,119.76
2437.00,119.77
2436.00,119.77
2435.00,119.78
2434.00,119.79
2433.00,119.79
2432.00,119.80
2431.00,119.81
2430.00,119.82
2429.00,119.83
2428.00,119.84
2427.00,119.85
2426.00,119.86
2425.00,119.87
2424.00,119.89
2423.00,119.90
2422.00,119.91
2421.00,119.91
2420.00,119.92
2419.00,119.92
2418.00,119.93
2417.00,119.94
2416.00,119.94
2415.00,119.95
2414.00,119.95
2413.00,119.96
2412.00,119.96
2411.00,119.96
2410.00,119.95
2409.00,119.95
2408.00,119.94
2407.00,119.94
2406.00,119.93
2405.00,119.93
2404.00,119.92
2403.00,119.91
2402.00,119.90
2401.00,119.89
2400.00,119.88
2399.00,119.87
2398.00,119.87
2397.00,119.86
2396.00,119.85
2395.00,119.84
2394.00,119.83
2393.00,119.83
2392.00,119.83
2391.00,119.82
2390.00,119.82
2389.00,119.82
2388.00,119.81
2387.00,119.81
2386.00,119.81
2385.00,119.81
2384.00,119.81
2383.00,119.80
2382.00,119.80
2381.00,119.80
2380.00,119.80
2379.00,119.80
2378.00,119.80
2377.00,119.80
2376.00,119.80
2375.00,119.79
2374.00,119.79
2373.00,119.79
2372.00,119.79
2371.00,119.79
2370.00,119.78
2369.00,119.78
2368.00,119.78
2367.00,119.77
2366.00,119.77
2365.00,119.77
2364.00,119.77
2363.00,119.77
2362.00,119.77
2361.00,119.77
2360.00,119.77
2359.00,119.77
2358.00,119.77
2357.00,119.78
2356.00,119.78
2355.00,119.78
2354.00,119.78
2353.00,119.77
2352.00,119.76
2351.00,119.75
2350.00,119.74
2349.00,119.76
2348.00,119.77
2347.00,119.78
2346.00,119.77
2345.00,119.75
2344.00,119.73
2343.00,119.72
2342.00,119.73
2341.00,119.73
2340.00,119.73
2339.00,119.73
2338.00,119.73
2337.00,119.74
2336.00,119.74
2335.00,119.74
2334.00,119.75
2333.00,119.75
2332.00,119.75
2331.00,119.74
2330.00,119.74
2329.00,119.73
2328.00,119.73
2327.00,119.72
2326.00,119.72
2325.00,119.71
2324.00,119.71
2323.00,119.70
2322.00,119.69
2321.00,119.69
2320.00,119.68
2319.00,119.68
2318.00,119.68
2317.00,119.68
2316.00,119.68
2315.00,119.68
2314.00,119.68
2313.00,119.68
2312.00,119.68
2311.00,119.68
2310.00,119.68
2309.00,119.69
2308.00,119.69
2307.00,119.69
2306.00,119.69
2305.00,119.69
2304.00,119.70
2303.00,119.69
2302.00,119.69
2301.00,119.69
2300.00,119.69
2299.00,119.69
2298.00,119.69
2297.00,119.68
2296.00,119.68
2295.00,119.68
2294.00,119.68
2293.00,119.67
2292.00,119.67
2291.00,119.67
2290.00,119.66
2289.00,119.66
2288.00,119.66
2287.00,119.65
2286.00,119.65
2285.00,119.65
2284.00,119.65
2283.00,119.64
2282.00,119.64
2281.00,119.64
2280.00,119.64
2279.00,119.63
2278.00,119.63
2277.00,119.63
2276.00,119.63
2275.00,119.63
2274.00,119.63
2273.00,119.64
2272.00,119.64
2271.00,119.64
2270.00,119.65
2269.00,119.65
2268.00,119.66
2267.00,119.67
2266.00,119.67
2265.00,119.67
2264.00,119.68
2263.00,119.68
2262.00,119.69
2261.00,119.69
2260.00,119.69
2259.00,119.70
2258.00,119.70
2257.00,119.70
2256.00,119.70
2255.00,119.71
2254.00,119.71
2253.00,119.71
2252.00,119.71
2251.00,119.71
2250.00,119.70
2249.00,119.70
2248.00,119.70
2247.00,119.70
2246.00,119.69
2245.00,119.69
2244.00,119.68
2243.00,119.67
2242.00,119.66
2241.00,119.66
2240.00,119.65
2239.00,119.64
2238.00,119.63
2237.00,119.62
2236.00,119.61
2235.00,119.60
2234.00,119.59
2233.00,119.58
2232.00,119.57
2231.00,119.56
2230.00,119.55
2229.00,119.55
2228.00,119.54
2227.00,119.53
2226.00,119.53
2225.00,119.52
2224.00,119.52
2223.00,119.51
2222.00,119.51
2221.00,119.51
2220.00,119.51
2219.00,119.51
2218.00,119.52
2217.00,119.52
2216.00,119.52
2215.00,119.52
2214.00,119.52
2213.00,119.53
2212.00,119.53
2211.00,119.54
2210.00,119.54
2209.00,119.54
2208.00,119.54
2207.00,119.55
2206.00,119.55
2205.00,119.55
2204.00,119.54
2203.00,119.54
2202.00,119.54
2201.00,119.53
2200.00,119.53
2199.00,119.52
2198.00,119.52
2197.00,119.51
2196.00,119.50
2195.00,119.49
2194.00,119.49
2193.00,119.48
2192.00,119.47
2191.00,119.46
2190.00,119.45
2189.00,119.44
2188.00,119.43
2187.00,119.42
2186.00,119.41
2185.00,119.41
2184.00,119.40
2183.00,119.39
2182.00,119.39
2181.00,119.38
2180.00,119.38
2179.00,119.37
2178.00,119.37
2177.00,119.37
2176.00,119.37
2175.00,119.37
2174.00,119.37
2173.00,119.37
2172.00,119.37
2171.00,119.38
2170.00,119.38
2169.00,119.39
2168.00,119.39
2167.00,119.40
2166.00,119.41
2165.00,119.42
2164.00,119.43
2163.00,119.44
2162.00,119.44
2161.00,119.45
2160.00,119.46
2159.00,119.47
2158.00,119.48
2157.00,119.48
2156.00,119.49
2155.00,119.49
2154.00,119.50
2153.00,119.50
2152.00,119.50
2151.00,119.50
2150.00,119.50
2149.00,119.50
2148.00,119.50
2147.00,119.50
2146.00,119.50
2145.00,119.49
2144.00,119.49
2143.00,119.48
2142.00,119.48
2141.00,119.47
2140.00,119.46
2139.00,119.45
2138.00,119.44
2137.00,119.43
2136.00,119.42
2135.00,119.42
2134.00,119.41
2133.00,119.40
2132.00,119.39
2131.00,119.38
2130.00,119.37
2129.00,119.37
2128.00,119.36
2127.00,119.36
2126.00,119.35
2125.00,119.35
2124.00,119.35
2123.00,119.35
2122.00,119.34
2121.00,119.34
2120.00,119.34
2119.00,119.34
2118.00,119.34
2117.00,119.35
2116.00,119.35
2115.00,119.35
2114.00,119.36
2113.00,119.36
2112.00,119.36
2111.00,119.36
2110.00,119.37
2109.00,119.37
2108.00,119.37
2107.00,119.38
2106.00,119.38
2105.00,119.39
2104.00,119.39
2103.00,119.39
2102.00,119.39
2101.00,119.40
2100.00,119.40
2099.00,119.41
2098.00,119.41
2097.00,119.41
2096.00,119.41
2095.00,119.41
2094.00,119.42
2093.00,119.42
2092.00,119.42
2091.00,119.42
2090.00,119.42
2089.00,119.42
2088.00,119.42
2087.00,119.42
2086.00,119.42
2085.00,119.42
2084.00,119.42
2083.00,119.42
2082.00,119.41
2081.00,119.41
2080.00,119.41
2079.00,119.40
2078.00,119.40
2077.00,119.39
2076.00,119.39
2075.00,119.38
2074.00,119.38
2073.00,119.37
2072.00,119.37
2071.00,119.37
2070.00,119.37
2069.00,119.37
2068.00,119.36
2067.00,119.36
2066.00,119.36
2065.00,119.35
2064.00,119.35
2063.00,119.34
2062.00,119.34
2061.00,119.34
2060.00,119.35
2059.00,119.35
2058.00,119.35
2057.00,119.35
2056.00,119.35
2055.00,119.35
2054.00,119.36
2053.00,119.36
2052.00,119.37
2051.00,119.37
2050.00,119.37
2049.00,119.38
2048.00,119.39
2047.00,119.39
2046.00,119.40
2045.00,119.40
2044.00,119.41
2043.00,119.41
2042.00,119.42
2041.00,119.42
2040.00,119.43
2039.00,119.44
2038.00,119.44
2037.00,119.44
2036.00,119.45
2035.00,119.45
2034.00,119.44
2033.00,119.44
2032.00,119.44
2031.00,119.44
2030.00,119.43
2029.00,119.43
2028.00,119.42
2027.00,119.41
2026.00,119.41
2025.00,119.40
2024.00,119.39
2023.00,119.38
2022.00,119.37
2021.00,119.36
2020.00,119.36
2019.00,119.35
2018.00,119.34
2017.00,119.34
2016.00,119.33
2015.00,119.33
2014.00,119.32
2013.00,119.32
2012.00,119.32
2011.00,119.32
2010.00,119.33
2009.00,119.33
2008.00,119.34
2007.00,119.34
2006.00,119.35
2005.00,119.36
2004.00,119.38
2003.00,119.39
2002.00,119.40
2001.00,119.41
2000.00,119.43
1999.00,119.44
1998.00,119.45
1997.00,119.47
1996.00,119.48
1995.00,119.50
1994.00,119.52
1993.00,119.53
1992.00,119.55
1991.00,119.56
1990.00,119.57
1989.00,119.58
1988.00,119.60
1987.00,119.61
1986.00,119.62
1985.00,119.63
1984.00,119.64
1983.00,119.65
1982.00,119.66
1981.00,119.66
1980.00,119.67
1979.00,119.67
1978.00,119.67
1977.00,119.67
1976.00,119.66
1975.00,119.66
1974.00,119.65
1973.00,119.64
1972.00,119.63
1971.00,119.61
1970.00,119.60
1969.00,119.59
1968.00,119.58
1967.00,119.57
1966.00,119.56
1965.00,119.55
1964.00,119.55
1963.00,119.55
1962.00,119.55
1961.00,119.56
1960.00,119.58
1959.00,119.59
1958.00,119.61
1957.00,119.62
1956.00,119.64
1955.00,119.67
1954.00,119.69
1953.00,119.71
1952.00,119.73
1951.00,119.75
1950.00,119.76
1949.00,119.78
1948.00,119.79
1947.00,119.80
1946.00,119.80
1945.00,119.81
1944.00,119.81
1943.00,119.81
1942.00,119.80
1941.00,119.79
1940.00,119.78
1939.00,119.77
1938.00,119.75
1937.00,119.73
1936.00,119.71
1935.00,119.70
1934.00,119.68
1933.00,119.66
1932.00,119.65
1931.00,119.63
1930.00,119.62
1929.00,119.60
1928.00,119.59
1927.00,119.59
1926.00,119.58
1925.00,119.58
1924.00,119.57
1923.00,119.57
1922.00,119.57
1921.00,119.56
1920.00,119.56
1919.00,119.55
1918.00,119.55
1917.00,119.55
1916.00,119.54
1915.00,119.54
1914.00,119.53
1913.00,119.53
1912.00,119.52
1911.00,119.51
1910.00,119.50
1909.00,119.50
1908.00,119.50
1907.00,119.49
1906.00,119.49
1905.00,119.49
1904.00,119.48
1903.00,119.48
1902.00,119.48
1901.00,119.49
1900.00,119.49
1899.00,119.50
1898.00,119.50
1897.00,119.51
1896.00,119.52
1895.00,119.53
1894.00,119.53
1893.00,119.54
1892.00,119.55
1891.00,119.56
1890.00,119.57
1889.00,119.58
1888.00,119.59
1887.00,119.60
1886.00,119.61
1885.00,119.62
1884.00,119.63
1883.00,119.64
1882.00,119.65
1881.00,119.66
1880.00,119.66
1879.00,119.67
1878.00,119.68
1877.00,119.68
1876.00,119.69
1875.00,119.69
1874.00,119.69
1873.00,119.69
1872.00,119.69
1871.00,119.69
1870.00,119.69
1869.00,119.68
1868.00,119.67
1867.00,119.67
1866.00,119.66
1865.00,119.65
1864.00,119.64
1863.00,119.64
1862.00,119.63
1861.00,119.63
1860.00,119.64
1859.00,119.64
1858.00,119.64
1857.00,119.65
1856.00,119.66
1855.00,119.68
1854.00,119.69
1853.00,119.71
1852.00,119.72
1851.00,119.74
1850.00,119.75
1849.00,119.77
1848.00,119.79
1847.00,119.80
1846.00,119.81
1845.00,119.83
1844.00,119.84
1843.00,119.85
1842.00,119.86
1841.00,119.87
1840.00,119.88
1839.00,119.89
1838.00,119.89
1837.00,119.89
1836.00,119.90
1835.00,119.90
1834.00,119.90
1833.00,119.90
1832.00,119.90
1831.00,119.90
1830.00,119.90
1829.00,119.90
1828.00,119.90
1827.00,119.91
1826.00,119.91
1825.00,119.92
1824.00,119.92
1823.00,119.92
1822.00,119.92
1821.00,119.93
1820.00,119.93
1819.00,119.94
1818.00,119.94
1817.00,119.94
1816.00,119.95
1815.00,119.95
1814.00,119.95
1813.00,119.95
1812.00,119.95
1811.00,119.96
1810.00,119.96
1809.00,119.96
1808.00,119.97
1807.00,119.97
1806.00,119.97
1805.00,119.97
1804.00,119.98
1803.00,119.99
1802.00,119.99
1801.00,120.00
1800.00,120.01
1799.00,120.02
1798.00,120.03
1797.00,120.04
1796.00,120.05
1795.00,120.05
1794.00,120.06
1793.00,120.07
1792.00,120.08
1791.00,120.10
1790.00,120.11
1789.00,120.12
1788.00,120.13
1787.00,120.13
1786.00,120.14
1785.00,120.15
1784.00,120.16
1783.00,120.17
1782.00,120.18
1781.00,120.18
1780.00,120.18
1779.00,120.19
1778.00,120.19
1777.00,120.19
1776.00,120.19
1775.00,120.19
1774.00,120.20
1773.00,120.20
1772.00,120.20
1771.00,120.20
1770.00,120.20
1769.00,120.20
1768.00,120.19
1767.00,120.19
1766.00,120.18
1765.00,120.18
1764.00,120.17
1763.00,120.17
1762.00,120.16
1761.00,120.15
1760.00,120.15
1759.00,120.15
1758.00,120.14
1757.00,120.14
1756.00,120.13
1755.00,120.12
1754.00,120.12
1753.00,120.11
1752.00,120.11
1751.00,120.11
1750.00,120.11
1749.00,120.11
1748.00,120.12
1747.00,120.13
1746.00,120.13
1745.00,120.13
1744.00,120.13
1743.00,120.14
1742.00,120.15
1741.00,120.15
1740.00,120.16
1739.00,120.16
1738.00,120.16
1737.00,120.17
1736.00,120.17
1735.00,120.17
1734.00,120.17
1733.00,120.17
1732.00,120.18
1731.00,120.20
1730.00,120.21
1729.00,120.21
1728.00,120.21
1727.00,120.21
1726.00,120.22
1725.00,120.22
1724.00,120.22
1723.00,120.22
1722.00,120.22
1721.00,120.22
1720.00,120.22
1719.00,120.22
1718.00,120.21
1717.00,120.21
1716.00,120.21
1715.00,120.21
1714.00,120.21
1713.00,120.21
1712.00,120.20
1711.00,120.19
1710.00,120.18
1709.00,120.18
1708.00,120.17
1707.00,120.17
1706.00,120.16
1705.00,120.16
1704.00,120.15
1703.00,120.15
1702.00,120.15
1701.00,120.14
1700.00,120.13
1699.00,120.13
1698.00,120.12
1697.00,120.12
1696.00,120.12
1695.00,120.13
1694.00,120.13
1693.00,120.13
1692.00,120.13
1691.00,120.13
1690.00,120.12
1689.00,120.12
1688.00,120.13
1687.00,120.13
1686.00,120.14
1685.00,120.14
1684.00,120.15
1683.00,120.15
1682.00,120.15
1681.00,120.16
1680.00,120.16
1679.00,120.16
1678.00,120.16
1677.00,120.16
1676.00,120.16
1675.00,120.16
1674.00,120.16
1673.00,120.17
1672.00,120.17
1671.00,120.17
1670.00,120.17
1669.00,120.17
1668.00,120.17
1667.00,120.18
1666.00,120.18
1665.00,120.17
1664.00,120.16
1663.00,120.16
1662.00,120.15
1661.00,120.15
1660.00,120.14
1659.00,120.14
1658.00,120.13
1657.00,120.12
1656.00,120.11
1655.00,120.11
1654.00,120.10
1653.00,120.09
1652.00,120.09
1651.00,120.09
1650.00,120.10
1649.00,120.09
1648.00,120.08
1647.00,120.07
1646.00,120.07
1645.00,120.07
1644.00,120.08
1643.00,120.08
1642.00,120.09
1641.00,120.09
1640.00,120.09
1639.00,120.09
1638.00,120.09
1637.00,120.10
1636.00,120.10
1635.00,120.10
1634.00,120.11
1633.00,120.12
1632.00,120.12
1631.00,120.12
1630.00,120.12
1629.00,120.12
1628.00,120.12
1627.00,120.12
1626.00,120.13
1625.00,120.13
1624.00,120.14
1623.00,120.14
1622.00,120.14
1621.00,120.14
1620.00,120.15
1619.00,120.15
1618.00,120.15
1617.00,120.15
1616.00,120.15
1615.00,120.16
1614.00,120.16
1613.00,120.16
1612.00,120.16
1611.00,120.16
1610.00,120.16
1609.00,120.16
1608.00,120.17
1607.00,120.17
1606.00,120.17
1605.00,120.17
1604.00,120.17
1603.00,120.16
1602.00,120.16
1601.00,120.15
1600.00,120.15
1599.00,120.15
1598.00,120.14
1597.00,120.14
1596.00,120.13
1595.00,120.12
1594.00,120.11
1593.00,120.11
1592.00,120.11
1591.00,120.11
1590.00,120.11
1589.00,120.11
1588.00,120.11
1587.00,120.11
1586.00,120.11
1585.00,120.12
1584.00,120.12
1583.00,120.13
1582.00,120.13
1581.00,120.14
1580.00,120.15
1579.00,120.16
1578.00,120.16
1577.00,120.17
1576.00,120.18
1575.00,120.18
1574.00,120.18
1573.00,120.19
1572.00,120.19
1571.00,120.19
1570.00,120.19
1569.00,120.19
1568.00,120.19
1567.00,120.19
1566.00,120.19
1565.00,120.19
1564.00,120.19
1563.00,120.19
1562.00,120.19
1561.00,120.19
1560.00,120.18
1559.00,120.17
1558.00,120.17
1557.00,120.17
1556.00,120.17
1555.00,120.16
1554.00,120.16
1553.00,120.15
1552.00,120.15
1551.00,120.15
1550.00,120.14
1549.00,120.14
1548.00,120.13
1547.00,120.13
1546.00,120.14
1545.00,120.14
1544.00,120.15
1543.00,120.15
1542.00,120.15
1541.00,120.15
1540.00,120.16
1539.00,120.16
1538.00,120.15
1537.00,120.15
1536.00,120.14
1535.00,120.13
1534.00,120.11
1533.00,120.10
1532.00,120.10
1531.00,120.10
1530.00,120.10
1529.00,120.10
1528.00,120.10
1527.00,120.10
1526.00,120.10
1525.00,120.10
1524.00,120.10
1523.00,120.11
1522.00,120.11
1521.00,120.11
1520.00,120.12
1519.00,120.13
1518.00,120.14
1517.00,120.14
1516.00,120.14
1515.00,120.14
1514.00,120.15
1513.00,120.15
1512.00,120.15
1511.00,120.16
1510.00,120.17
1509.00,120.17
1508.00,120.17
1507.00,120.17
1506.00,120.17
1505.00,120.18
1504.00,120.18
1503.00,120.18
1502.00,120.17
1501.00,120.16
1500.00,120.15
1499.00,120.15
1498.00,120.14
1497.00,120.13
1496.00,120.13
1495.00,120.13
1494.00,120.13
1493.00,120.13
1492.00,120.13
1491.00,120.13
1490.00,120.13
1489.00,120.13
1488.00,120.13
1487.00,120.13
1486.00,120.13
1485.00,120.14
1484.00,120.14
1483.00,120.14
1482.00,120.14
1481.00,120.14
1480.00,120.14
1479.00,120.14
1478.00,120.14
1477.00,120.15
1476.00,120.16
1475.00,120.17
1474.00,120.17
1473.00,120.17
1472.00,120.17
1471.00,120.18
1470.00,120.19
1469.00,120.20
1468.00,120.21
1467.00,120.22
1466.00,120.22
1465.00,120.22
1464.00,120.23
1463.00,120.22
1462.00,120.22
1461.00,120.22
1460.00,120.23
1459.00,120.23
1458.00,120.23
1457.00,120.23
1456.00,120.22
1455.00,120.22
1454.00,120.22
1453.00,120.21
1452.00,120.21
1451.00,120.21
1450.00,120.21
1449.00,120.21
1448.00,120.21
1447.00,120.20
1446.00,120.19
1445.00,120.19
1444.00,120.18
1443.00,120.17
1442.00,120.16
1441.00,120.16
1440.00,120.15
1439.00,120.15
1438.00,120.14
1437.00,120.13
1436.00,120.12
1435.00,120.12
1434.00,120.12
1433.00,120.12
1432.00,120.12
1431.00,120.12
1430.00,120.12
1429.00,120.12
1428.00,120.12
1427.00,120.12
1426.00,120.12
1425.00,120.12
1424.00,120.13
1423.00,120.13
1422.00,120.14
1421.00,120.15
1420.00,120.15
1419.00,120.15
1418.00,120.16
1417.00,120.17
1416.00,120.17
1415.00,120.18
1414.00,120.19
1413.00,120.19
1412.00,120.20
1411.00,120.20
1410.00,120.20
1409.00,120.20
1408.00,120.20
1407.00,120.20
1406.00,120.21
1405.00,120.21
1404.00,120.20
1403.00,120.20
1402.00,120.20
1401.00,120.21
1400.00,120.21
1399.00,120.21
1398.00,120.20
1397.00,120.20
1396.00,120.20
1395.00,120.20
1394.00,120.20
1393.00,120.20
1392.00,120.19
1391.00,120.19
1390.00,120.19
1389.00,120.18
1388.00,120.18
1387.00,120.18
1386.00,120.18
1385.00,120.17
1384.00,120.16
1383.00,120.16
1382.00,120.15
1381.00,120.15
1380.00,120.15
1379.00,120.15
1378.00,120.15
1377.00,120.15
1376.00,120.15
1375.00,120.15
1374.00,120.15
1373.00,120.15
1372.00,120.15
1371.00,120.16
1370.00,120.16
1369.00,120.16
1368.00,120.16
1367.00,120.16
1366.00,120.16
1365.00,120.17
1364.00,120.17
1363.00,120.18
1362.00,120.18
1361.00,120.19
1360.00,120.19
1359.00,120.19
1358.00,120.19
1357.00,120.19
1356.00,120.19
1355.00,120.19
1354.00,120.20
1353.00,120.20
1352.00,120.21
1351.00,120.21
1350.00,120.21
1349.00,120.21
1348.00,120.20
1347.00,120.20
1346.00,120.20
1345.00,120.20
1344.00,120.20
1343.00,120.19
1342.00,120.19
1341.00,120.18
1340.00,120.18
1339.00,120.18
1338.00,120.17
1337.00,120.17
1336.00,120.16
1335.00,120.16
1334.00,120.15
1333.00,120.15
1332.00,120.14
1331.00,120.14
1330.00,120.14
1329.00,120.14
1328.00,120.14
1327.00,120.14
1326.00,120.13
1325.00,120.13
1324.00,120.13
1323.00,120.13
1322.00,120.13
1321.00,120.13
1320.00,120.13
1319.00,120.14
1318.00,120.14
1317.00,120.14
1316.00,120.15
1315.00,120.15
1314.00,120.15
1313.00,120.16
1312.00,120.16
1311.00,120.17
1310.00,120.17
1309.00,120.17
1308.00,120.17
1307.00,120.18
1306.00,120.18
1305.00,120.18
1304.00,120.19
1303.00,120.19
1302.00,120.19
1301.00,120.19
1300.00,120.19
1299.00,120.19
1298.00,120.19
1297.00,120.19
1296.00,120.18
1295.00,120.18
1294.00,120.18
1293.00,120.17
1292.00,120.17
1291.00,120.17
1290.00,120.16
1289.00,120.16
1288.00,120.15
1287.00,120.14
1286.00,120.13
1285.00,120.13
1284.00,120.12
1283.00,120.12
1282.00,120.11
1281.00,120.11
1280.00,120.10
1279.00,120.09
1278.00,120.08
1277.00,120.08
1276.00,120.08
1275.00,120.08
1274.00,120.07
1273.00,120.07
1272.00,120.07
1271.00,120.07
1270.00,120.07
1269.00,120.07
1268.00,120.07
1267.00,120.07
1266.00,120.07
1265.00,120.07
1264.00,120.08
1263.00,120.09
1262.00,120.09
1261.00,120.10
1260.00,120.11
1259.00,120.12
1258.00,120.13
1257.00,120.13
1256.00,120.14
1255.00,120.14
1254.00,120.14
1253.00,120.14
1252.00,120.14
1251.00,120.14
1250.00,120.15
1249.00,120.15
1248.00,120.15
1247.00,120.15
1246.00,120.15
1245.00,120.15
1244.00,120.15
1243.00,120.15
1242.00,120.15
1241.00,120.15
1240.00,120.15
1239.00,120.15
1238.00,120.15
1237.00,120.14
1236.00,120.13
1235.00,120.13
1234.00,120.12
1233.00,120.11
1232.00,120.10
1231.00,120.10
1230.00,120.09
1229.00,120.09
1228.00,120.08
1227.00,120.08
1226.00,120.07
1225.00,120.06
1224.00,120.05
1223.00,120.04
1222.00,120.04
1221.00,120.04
1220.00,120.03
1219.00,120.03
1218.00,120.03
1217.00,120.02
1216.00,120.02
1215.00,120.01
1214.00,120.01
1213.00,120.01
1212.00,120.01
1211.00,120.01
1210.00,120.01
1209.00,120.01
1208.00,120.01
1207.00,120.01
1206.00,120.02
1205.00,120.02
1204.00,120.03
1203.00,120.03
1202.00,120.03
1201.00,120.04
1200.00,120.04
1199.00,120.04
1198.00,120.04
1197.00,120.04
1196.00,120.04
1195.00,120.04
1194.00,120.04
1193.00,120.05
1192.00,120.05
1191.00,120.04
1190.00,120.04
1189.00,120.04
1188.00,120.04
1187.00,120.03
1186.00,120.03
1185.00,120.03
1184.00,120.03
1183.00,120.03
1182.00,120.02
1181.00,120.01
1180.00,120.01
1179.00,120.00
1178.00,119.99
1177.00,119.99
1176.00,119.99
1175.00,119.98
1174.00,119.98
1173.00,119.97
1172.00,119.96
1171.00,119.95
1170.00,119.94
1169.00,119.93
1168.00,119.93
1167.00,119.93
1166.00,119.94
1165.00,119.94
1164.00,119.93
1163.00,119.92
1162.00,119.92
1161.00,119.92
1160.00,119.93
1159.00,119.93
1158.00,119.93
1157.00,119.93
1156.00,119.93
1155.00,119.93
1154.00,119.93
1153.00,119.93
1152.00,119.92
1151.00,119.92
1150.00,119.93
1149.00,119.93
1148.00,119.94
1147.00,119.95
1146.00,119.96
1145.00,119.96
1144.00,119.96
1143.00,119.96
1142.00,119.96
1141.00,119.96
1140.00,119.97
1139.00,119.97
1138.00,119.97
1137.00,119.97
1136.00,119.97
1135.00,119.97
1134.00,119.97
1133.00,119.98
1132.00,119.98
1131.00,119.98
1130.00,119.97
1129.00,119.96
1128.00,119.96
1127.00,119.95
1126.00,119.94
1125.00,119.94
1124.00,119.93
1123.00,119.93
1122.00,119.92
1121.00,119.92
1120.00,119.91
1119.00,119.91
1118.00,119.90
1117.00,119.90
1116.00,119.90
1115.00,119.91
1114.00,119.91
1113.00,119.91
1112.00,119.90
1111.00,119.90
1110.00,119.90
1109.00,119.90
1108.00,119.90
1107.00,119.90
1106.00,119.90
1105.00,119.91
1104.00,119.91
1103.00,119.91
1102.00,119.91
1101.00,119.92
1100.00,119.93
1099.00,119.93
1098.00,119.93
1097.00,119.93
1096.00,119.94
1095.00,119.95
1094.00,119.96
1093.00,119.96
1092.00,119.95
1091.00,119.95
1090.00,119.95
1089.00,119.95
1088.00,119.95
1087.00,119.94
1086.00,119.94
1085.00,119.94
1084.00,119.94
1083.00,119.94
1082.00,119.93
1081.00,119.92
1080.00,119.92
1079.00,119.91
1078.00,119.91
1077.00,119.92
1076.00,119.92
1075.00,119.92
1074.00,119.91
1073.00,119.91
1072.00,119.90
1071.00,119.89
1070.00,119.87
1069.00,119.85
1068.00,119.84
1067.00,119.84
1066.00,119.83
1065.00,119.83
1064.00,119.84
1063.00,119.84
1062.00,119.83
1061.00,119.83
1060.00,119.83
1059.00,119.82
1058.00,119.82
1057.00,119.82
1056.00,119.82
1055.00,119.82
1054.00,119.82
1053.00,119.83
1052.00,119.83
1051.00,119.84
1050.00,119.85
1049.00,119.86
1048.00,119.87
1047.00,119.88
1046.00,119.88
1045.00,119.90
1044.00,119.91
1043.00,119.92
1042.00,119.92
1041.00,119.93
1040.00,119.93
1039.00,119.93
1038.00,119.94
1037.00,119.95
1036.00,119.97
1035.00,119.98
1034.00,119.98
1033.00,119.98
1032.00,119.99
1031.00,120.00
1030.00,120.01
1029.00,120.01
1028.00,120.01
1027.00,120.01
1026.00,120.01
1025.00,120.02
1024.00,120.03
1023.00,120.04
1022.00,120.05
1021.00,120.05
1020.00,120.05
1019.00,120.05
1018.00,120.05
1017.00,120.05
1016.00,120.04
1015.00,120.05
1014.00,120.06
1013.00,120.07
1012.00,120.08
1011.00,120.09
1010.00,120.09
1009.00,120.08
1008.00,120.07
1007.00,120.06
1006.00,120.06
1005.00,120.06
1004.00,120.08
1003.00,120.10
1002.00,120.11
1001.00,120.12
1000.00,120.12
999.00,120.12
998.00,120.12
997.00,120.13
996.00,120.14
995.00,120.16
994.00,120.18
993.00,120.18
992.00,120.18
991.00,120.18
990.00,120.18
989.00,120.18
988.00,120.19
987.00,120.21
986.00,120.22
985.00,120.24
984.00,120.24
983.00,120.24
982.00,120.24
981.00,120.24
980.00,120.24
979.00,120.25
978.00,120.25
977.00,120.26
976.00,120.27
975.00,120.27
974.00,120.28
973.00,120.28
972.00,120.28
971.00,120.27
970.00,120.26
969.00,120.26
968.00,120.27
967.00,120.28
966.00,120.29
965.00,120.28
964.00,120.28
963.00,120.27
962.00,120.27
961.00,120.27
960.00,120.27
959.00,120.28
958.00,120.28
957.00,120.28
956.00,120.28
955.00,120.28
954.00,120.27
953.00,120.27
952.00,120.28
951.00,120.29
950.00,120.31
949.00,120.32
948.00,120.33
947.00,120.34
946.00,120.34
945.00,120.34
944.00,120.34
943.00,120.34
942.00,120.34
941.00,120.34
940.00,120.35
939.00,120.35
938.00,120.36
937.00,120.36
936.00,120.37
935.00,120.38
934.00,120.39
933.00,120.40
932.00,120.40
931.00,120.40
930.00,120.40
929.00,120.41
928.00,120.41
927.00,120.42
926.00,120.42
925.00,120.42
924.00,120.42
923.00,120.43
922.00,120.43
921.00,120.44
920.00,120.43
919.00,120.43
918.00,120.42
917.00,120.41
916.00,120.41
915.00,120.41
914.00,120.41
913.00,120.41
912.00,120.40
911.00,120.39
910.00,120.39
909.00,120.38
908.00,120.38
907.00,120.38
906.00,120.38
905.00,120.38
904.00,120.39
903.00,120.39
902.00,120.39
901.00,120.39
900.00,120.38
899.00,120.38
898.00,120.37
897.00,120.37
896.00,120.37
895.00,120.37
894.00,120.38
893.00,120.40
892.00,120.42
891.00,120.42
890.00,120.42
889.00,120.41
888.00,120.42
887.00,120.42
886.00,120.42
885.00,120.42
884.00,120.42
883.00,120.42
882.00,120.43
881.00,120.44
880.00,120.44
879.00,120.45
878.00,120.46
877.00,120.45
876.00,120.45
875.00,120.45
874.00,120.45
873.00,120.45
872.00,120.45
871.00,120.45
870.00,120.45
869.00,120.45
868.00,120.45
867.00,120.45
866.00,120.45
865.00,120.45
864.00,120.45
863.00,120.45
862.00,120.44
861.00,120.45
860.00,120.45
859.00,120.45
858.00,120.45
857.00,120.44
856.00,120.43
855.00,120.42
854.00,120.41
853.00,120.41
852.00,120.42
851.00,120.42
850.00,120.41
849.00,120.40
848.00,120.39
847.00,120.39
846.00,120.40
845.00,120.40
844.00,120.41
843.00,120.41
842.00,120.41
841.00,120.41
840.00,120.41
839.00,120.41
838.00,120.41
837.00,120.41
836.00,120.42
835.00,120.42
834.00,120.42
833.00,120.42
832.00,120.42
831.00,120.42
830.00,120.42
829.00,120.41
828.00,120.42
827.00,120.42
826.00,120.42
825.00,120.42
824.00,120.42
823.00,120.42
822.00,120.42
821.00,120.42
820.00,120.43
819.00,120.44
818.00,120.44
817.00,120.44
816.00,120.44
815.00,120.43
814.00,120.43
813.00,120.43
812.00,120.43
811.00,120.43
810.00,120.44
809.00,120.44
808.00,120.44
807.00,120.44
806.00,120.44
805.00,120.44
804.00,120.45
803.00,120.45
802.00,120.45
801.00,120.45
800.00,120.45
799.00,120.45
798.00,120.45
797.00,120.45
796.00,120.45
795.00,120.44
794.00,120.44
793.00,120.44
792.00,120.44
791.00,120.45
790.00,120.45
789.00,120.44
788.00,120.44
787.00,120.43
786.00,120.44
785.00,120.44
784.00,120.44
783.00,120.44
782.00,120.44
781.00,120.43
780.00,120.43
779.00,120.43
778.00,120.43
777.00,120.43
776.00,120.43
775.00,120.43
774.00,120.43
773.00,120.43
772.00,120.44
771.00,120.44
770.00,120.43
769.00,120.43
768.00,120.42
767.00,120.42
766.00,120.42
765.00,120.42
764.00,120.42
763.00,120.42
762.00,120.42
761.00,120.41
760.00,120.41
759.00,120.40
758.00,120.39
757.00,120.39
756.00,120.39
755.00,120.39
754.00,120.38
753.00,120.38
752.00,120.37
751.00,120.37
750.00,120.37
749.00,120.36
748.00,120.36
747.00,120.35
746.00,120.34
745.00,120.34
744.00,120.34
743.00,120.34
742.00,120.34
741.00,120.34
740.00,120.33
739.00,120.33
738.00,120.33
737.00,120.33
736.00,120.33
735.00,120.33
734.00,120.33
733.00,120.33
732.00,120.33
731.00,120.34
730.00,120.35
729.00,120.35
728.00,120.35
727.00,120.35
726.00,120.35
725.00,120.35
724.00,120.36
723.00,120.36
722.00,120.36
721.00,120.36
720.00,120.36
719.00,120.35
718.00,120.35
717.00,120.35
716.00,120.34
715.00,120.34
714.00,120.34
713.00,120.34
712.00,120.33
711.00,120.33
710.00,120.33
709.00,120.33
708.00,120.33
707.00,120.32
706.00,120.31
705.00,120.31
704.00,120.31
703.00,120.31
702.00,120.31
701.00,120.31
700.00,120.30
699.00,120.29
698.00,120.28
697.00,120.28
696.00,120.27
695.00,120.27
694.00,120.27
693.00,120.26
692.00,120.25
691.00,120.23
690.00,120.22
689.00,120.22
688.00,120.22
687.00,120.22
686.00,120.21
685.00,120.21
684.00,120.20
683.00,120.20
682.00,120.20
681.00,120.19
680.00,120.19
679.00,120.19
678.00,120.20
677.00,120.20
676.00,120.21
675.00,120.21
674.00,120.21
673.00,120.21
672.00,120.20
671.00,120.19
670.00,120.18
669.00,120.15
668.00,120.11
667.00,120.10
666.00,120.11
665.00,120.14
664.00,120.17
663.00,120.19
662.00,120.19
661.00,120.19
660.00,120.18
659.00,120.18
658.00,120.17
657.00,120.16
656.00,120.16
655.00,120.15
654.00,120.14
653.00,120.13
652.00,120.12
651.00,120.11
650.00,120.11
649.00,120.11
648.00,120.10
647.00,120.10
646.00,120.09
645.00,120.08
644.00,120.07
643.00,120.07
642.00,120.06
641.00,120.05
640.00,120.05
639.00,120.04
638.00,120.03
637.00,120.03
636.00,120.02
635.00,120.03
634.00,120.02
633.00,120.02
632.00,120.01
631.00,120.00
630.00,120.00
629.00,120.01
628.00,120.01
627.00,120.01
626.00,120.01
625.00,120.01
624.00,120.01
623.00,120.01
622.00,120.01
621.00,120.00
620.00,120.01
619.00,120.01
618.00,120.01
617.00,120.02
616.00,120.02
615.00,120.01
614.00,120.01
613.00,120.00
612.00,120.00
611.00,120.00
610.00,120.00
609.00,120.00
608.00,120.00
607.00,120.00
606.00,120.00
605.00,120.00
604.00,120.01
603.00,120.01
602.00,120.00
601.00,120.00
600.00,120.00
599.00,119.99
598.00,119.98
597.00,119.97
596.00,119.97
595.00,119.96
594.00,119.96
593.00,119.96
592.00,119.97
591.00,119.97
590.00,119.97
589.00,119.97
588.00,119.97
587.00,119.96
586.00,119.95
585.00,119.95
584.00,119.94
583.00,119.93
582.00,119.91
581.00,119.89
580.00,119.87
579.00,119.87
578.00,119.88
577.00,119.89
576.00,119.89
575.00,119.90
574.00,119.90
573.00,119.91
572.00,119.91
571.00,119.92
570.00,119.92
569.00,119.92
568.00,119.92
567.00,119.91
566.00,119.91
565.00,119.92
564.00,119.93
563.00,119.93
562.00,119.93
561.00,119.93
560.00,119.95
559.00,119.96
558.00,119.96
557.00,119.96
556.00,119.96
555.00,119.95
554.00,119.94
553.00,119.94
552.00,119.94
551.00,119.95
550.00,119.96
549.00,119.97
548.00,119.99
547.00,120.00
546.00,120.01
545.00,120.02
544.00,120.03
543.00,120.03
542.00,120.03
541.00,120.04
540.00,120.04
539.00,120.05
538.00,120.07
537.00,120.08
536.00,120.10
535.00,120.11
534.00,120.11
533.00,120.11
532.00,120.12
531.00,120.15
530.00,120.17
529.00,120.20
528.00,120.22
527.00,120.23
526.00,120.23
525.00,120.24
524.00,120.25
523.00,120.26
522.00,120.28
521.00,120.30
520.00,120.32
519.00,120.34
518.00,120.34
517.00,120.34
516.00,120.34
515.00,120.35
514.00,120.36
513.00,120.38
512.00,120.40
511.00,120.41
510.00,120.41
509.00,120.41
508.00,120.40
507.00,120.39
506.00,120.39
505.00,120.40
504.00,120.42
503.00,120.43
502.00,120.45
501.00,120.46
500.00,120.46
