Created as New Dataset,Sample 383 By Analyst Date Monday, February 10 2025
cm-1,%T
4000.00,100.97
3999.00,100.97
3998.00,100.97
3997.00,100.97
3996.00,100.97
3995.00,100.97
3994.00,100.97
3993.00,100.97
3992.00,100.97
3991.00,100.97
3990.00,100.97
3989.00,100.97
3988.00,100.97
3987.00,100.97
3986.00,100.97
3985.00,100.97
3984.00,100.97
3983.00,100.97
3982.00,100.97
3981.00,100.97
3980.00,100.97
3979.00,100.97
3978.00,100.97
3977.00,100.97
3976.00,100.97
3975.00,100.97
3974.00,100.97
3973.00,100.97
3972.00,100.97
3971.00,100.97
3970.00,100.97
3969.00,100.97
3968.00,100.97
3967.00,100.97
3966.00,100.96
3965.00,100.96
3964.00,100.96
3963.00,100.96
3962.00,100.96
3961.00,100.96
3960.00,100.96
3959.00,100.96
3958.00,100.96
3957.00,100.96
3956.00,100.96
3955.00,100.96
3954.00,100.96
3953.00,100.96
3952.00,100.96
3951.00,100.96
3950.00,100.96
3949.00,100.96
3948.00,100.96
3947.00,100.96
3946.00,100.96
3945.00,100.96
3944.00,100.95
3943.00,100.95
3942.00,100.95
3941.00,100.96
3940.00,100.96
3939.00,100.96
3938.00,100.96
3937.00,100.96
3936.00,100.96
3935.00,100.96
3934.00,100.96
3933.00,100.95
3932.00,100.95
3931.00,100.96
3930.00,100.96
3929.00,100.96
3928.00,100.96
3927.00,100.96
3926.00,100.96
3925.00,100.96
3924.00,100.96
3923.00,100.96
3922.00,100.96
3921.00,100.95
3920.00,100.95
3919.00,100.95
3918.00,100.95
3917.00,100.95
3916.00,100.95
3915.00,100.95
3914.00,100.95
3913.00,100.96
3912.00,100.96
3911.00,100.96
3910.00,100.96
3909.00,100.96
3908.00,100.96
3907.00,100.96
3906.00,100.96
3905.00,100.96
3904.00,100.96
3903.00,100.96
3902.00,100.96
3901.00,100.96
3900.00,100.96
3899.00,100.96
3898.00,100.97
3897.00,100.97
3896.00,100.97
3895.00,100.96
3894.00,100.96
3893.00,100.96
3892.00,100.96
3891.00,100.96
3890.00,100.96
3889.00,100.97
3888.00,100.97
3887.00,100.96
3886.00,100.96
3885.00,100.96
3884.00,100.97
3883.00,100.97
3882.00,100.96
3881.00,100.95
3880.00,100.95
3879.00,100.96
3878.00,100.97
3877.00,100.96
3876.00,100.95
3875.00,100.95
3874.00,100.96
3873.00,100.97
3872.00,100.97
3871.00,100.96
3870.00,100.96
3869.00,100.96
3868.00,100.97
3867.00,100.98
3866.00,100.97
3865.00,100.96
3864.00,100.96
3863.00,100.97
3862.00,100.97
3861.00,100.96
3860.00,100.96
3859.00,100.96
3858.00,100.97
3857.00,100.99
3856.00,101.01
3855.00,101.02
3854.00,101.02
3853.00,101.02
3852.00,101.03
3851.00,101.04
3850.00,101.02
3849.00,100.99
3848.00,100.97
3847.00,100.97
3846.00,100.96
3845.00,100.95
3844.00,100.95
3843.00,100.94
3842.00,100.95
3841.00,100.96
3840.00,100.96
3839.00,100.97
3838.00,100.97
3837.00,100.98
3836.00,100.98
3835.00,100.98
3834.00,100.98
3833.00,100.97
3832.00,100.97
3831.00,100.96
3830.00,100.96
3829.00,100.96
3828.00,100.95
3827.00,100.94
3826.00,100.95
3825.00,100.95
3824.00,100.96
3823.00,100.96
3822.00,100.96
3821.00,100.96
3820.00,100.97
3819.00,100.98
3818.00,100.98
3817.00,100.97
3816.00,100.97
3815.00,100.98
3814.00,100.98
3813.00,100.98
3812.00,100.96
3811.00,100.96
3810.00,100.96
3809.00,100.97
3808.00,100.97
3807.00,100.96
3806.00,100.97
3805.00,100.98
3804.00,100.98
3803.00,100.98
3802.00,100.97
3801.00,100.97
3800.00,100.98
3799.00,100.98
3798.00,100.96
3797.00,100.95
3796.00,100.95
3795.00,100.95
3794.00,100.95
3793.00,100.94
3792.00,100.94
3791.00,100.93
3790.00,100.94
3789.00,100.94
3788.00,100.93
3787.00,100.93
3786.00,100.93
3785.00,100.93
3784.00,100.93
3783.00,100.93
3782.00,100.93
3781.00,100.93
3780.00,100.93
3779.00,100.94
3778.00,100.94
3777.00,100.94
3776.00,100.94
3775.00,100.94
3774.00,100.94
3773.00,100.94
3772.00,100.95
3771.00,100.94
3770.00,100.94
3769.00,100.94
3768.00,100.95
3767.00,100.94
3766.00,100.94
3765.00,100.94
3764.00,100.94
3763.00,100.94
3762.00,100.94
3761.00,100.94
3760.00,100.94
3759.00,100.94
3758.00,100.94
3757.00,100.94
3756.00,100.94
3755.00,100.95
3754.00,100.97
3753.00,100.98
3752.00,100.99
3751.00,100.99
3750.00,100.99
3749.00,101.00
3748.00,101.01
3747.00,101.01
3746.00,101.01
3745.00,101.00
3744.00,101.00
3743.00,101.01
3742.00,101.01
3741.00,100.99
3740.00,100.97
3739.00,100.96
3738.00,100.96
3737.00,100.95
3736.00,100.94
3735.00,100.94
3734.00,100.95
3733.00,100.95
3732.00,100.95
3731.00,100.96
3730.00,100.96
3729.00,100.96
3728.00,100.95
3727.00,100.94
3726.00,100.94
3725.00,100.94
3724.00,100.93
3723.00,100.93
3722.00,100.93
3721.00,100.93
3720.00,100.94
3719.00,100.94
3718.00,100.94
3717.00,100.94
3716.00,100.94
3715.00,100.95
3714.00,100.96
3713.00,100.96
3712.00,100.96
3711.00,100.96
3710.00,100.96
3709.00,100.96
3708.00,100.95
3707.00,100.95
3706.00,100.95
3705.00,100.95
3704.00,100.94
3703.00,100.94
3702.00,100.94
3701.00,100.94
3700.00,100.94
3699.00,100.94
3698.00,100.93
3697.00,100.93
3696.00,100.94
3695.00,100.94
3694.00,100.94
3693.00,100.94
3692.00,100.95
3691.00,100.96
3690.00,100.96
3689.00,100.96
3688.00,100.97
3687.00,100.97
3686.00,100.97
3685.00,100.96
3684.00,100.95
3683.00,100.94
3682.00,100.94
3681.00,100.94
3680.00,100.94
3679.00,100.95
3678.00,100.96
3677.00,100.96
3676.00,100.96
3675.00,100.96
3674.00,100.98
3673.00,100.99
3672.00,100.98
3671.00,100.97
3670.00,100.97
3669.00,100.97
3668.00,100.97
3667.00,100.97
3666.00,100.95
3665.00,100.95
3664.00,100.94
3663.00,100.94
3662.00,100.94
3661.00,100.93
3660.00,100.94
3659.00,100.94
3658.00,100.94
3657.00,100.94
3656.00,100.94
3655.00,100.95
3654.00,100.95
3653.00,100.95
3652.00,100.95
3651.00,100.95
3650.00,100.96
3649.00,100.96
3648.00,100.95
3647.00,100.95
3646.00,100.95
3645.00,100.95
3644.00,100.95
3643.00,100.94
3642.00,100.94
3641.00,100.94
3640.00,100.93
3639.00,100.93
3638.00,100.93
3637.00,100.93
3636.00,100.93
3635.00,100.93
3634.00,100.93
3633.00,100.94
3632.00,100.95
3631.00,100.95
3630.00,100.95
3629.00,100.95
3628.00,100.95
3627.00,100.96
3626.00,100.96
3625.00,100.95
3624.00,100.95
3623.00,100.95
3622.00,100.95
3621.00,100.94
3620.00,100.94
3619.00,100.93
3618.00,100.93
3617.00,100.94
3616.00,100.93
3615.00,100.93
3614.00,100.93
3613.00,100.94
3612.00,100.94
3611.00,100.94
3610.00,100.94
3609.00,100.94
3608.00,100.94
3607.00,100.94
3606.00,100.94
3605.00,100.94
3604.00,100.94
3603.00,100.94
3602.00,100.94
3601.00,100.93
3600.00,100.93
3599.00,100.93
3598.00,100.93
3597.00,100.92
3596.00,100.92
3595.00,100.92
3594.00,100.92
3593.00,100.93
3592.00,100.93
3591.00,100.93
3590.00,100.93
3589.00,100.92
3588.00,100.92
3587.00,100.92
3586.00,100.92
3585.00,100.93
3584.00,100.93
3583.00,100.93
3582.00,100.93
3581.00,100.93
3580.00,100.93
3579.00,100.93
3578.00,100.93
3577.00,100.93
3576.00,100.93
3575.00,100.93
3574.00,100.92
3573.00,100.92
3572.00,100.92
3571.00,100.92
3570.00,100.92
3569.00,100.92
3568.00,100.91
3567.00,100.91
3566.00,100.91
3565.00,100.91
3564.00,100.92
3563.00,100.92
3562.00,100.93
3561.00,100.93
3560.00,100.93
3559.00,100.93
3558.00,100.93
3557.00,100.93
3556.00,100.93
3555.00,100.93
3554.00,100.93
3553.00,100.93
3552.00,100.93
3551.00,100.93
3550.00,100.93
3549.00,100.93
3548.00,100.92
3547.00,100.92
3546.00,100.92
3545.00,100.92
3544.00,100.93
3543.00,100.93
3542.00,100.93
3541.00,100.93
3540.00,100.93
3539.00,100.93
3538.00,100.93
3537.00,100.93
3536.00,100.93
3535.00,100.93
3534.00,100.93
3533.00,100.93
3532.00,100.93
3531.00,100.93
3530.00,100.93
3529.00,100.93
3528.00,100.93
3527.00,100.92
3526.00,100.92
3525.00,100.92
3524.00,100.92
3523.00,100.92
3522.00,100.92
3521.00,100.93
3520.00,100.93
3519.00,100.93
3518.00,100.93
3517.00,100.93
3516.00,100.93
3515.00,100.93
3514.00,100.93
3513.00,100.93
3512.00,100.93
3511.00,100.93
3510.00,100.93
3509.00,100.93
3508.00,100.93
3507.00,100.93
3506.00,100.93
3505.00,100.93
3504.00,100.93
3503.00,100.93
3502.00,100.93
3501.00,100.93
3500.00,100.93
3499.00,100.93
3498.00,100.93
3497.00,100.94
3496.00,100.94
3495.00,100.93
3494.00,100.93
3493.00,100.93
3492.00,100.93
3491.00,100.93
3490.00,100.93
3489.00,100.93
3488.00,100.93
3487.00,100.93
3486.00,100.93
3485.00,100.93
3484.00,100.93
3483.00,100.93
3482.00,100.93
3481.00,100.93
3480.00,100.93
3479.00,100.93
3478.00,100.93
3477.00,100.93
3476.00,100.93
3475.00,100.93
3474.00,100.93
3473.00,100.93
3472.00,100.93
3471.00,100.93
3470.00,100.93
3469.00,100.93
3468.00,100.93
3467.00,100.93
3466.00,100.93
3465.00,100.93
3464.00,100.93
3463.00,100.93
3462.00,100.93
3461.00,100.93
3460.00,100.93
3459.00,100.93
3458.00,100.93
3457.00,100.93
3456.00,100.93
3455.00,100.94
3454.00,100.94
3453.00,100.94
3452.00,100.94
3451.00,100.94
3450.00,100.94
3449.00,100.94
3448.00,100.94
3447.00,100.94
3446.00,100.94
3445.00,100.94
3444.00,100.94
3443.00,100.94
3442.00,100.94
3441.00,100.94
3440.00,100.94
3439.00,100.94
3438.00,100.94
3437.00,100.94
3436.00,100.94
3435.00,100.94
3434.00,100.94
3433.00,100.94
3432.00,100.94
3431.00,100.94
3430.00,100.94
3429.00,100.93
3428.00,100.93
3427.00,100.93
3426.00,100.93
3425.00,100.93
3424.00,100.93
3423.00,100.93
3422.00,100.93
3421.00,100.93
3420.00,100.93
3419.00,100.93
3418.00,100.93
3417.00,100.93
3416.00,100.93
3415.00,100.93
3414.00,100.93
3413.00,100.93
3412.00,100.93
3411.00,100.93
3410.00,100.93
3409.00,100.93
3408.00,100.93
3407.00,100.93
3406.00,100.94
3405.00,100.94
3404.00,100.94
3403.00,100.94
3402.00,100.94
3401.00,100.94
3400.00,100.93
3399.00,100.93
3398.00,100.94
3397.00,100.94
3396.00,100.94
3395.00,100.94
3394.00,100.94
3393.00,100.94
3392.00,100.94
3391.00,100.94
3390.00,100.94
3389.00,100.93
3388.00,100.93
3387.00,100.93
3386.00,100.93
3385.00,100.94
3384.00,100.94
3383.00,100.94
3382.00,100.94
3381.00,100.94
3380.00,100.93
3379.00,100.93
3378.00,100.93
3377.00,100.93
3376.00,100.93
3375.00,100.93
3374.00,100.93
3373.00,100.93
3372.00,100.93
3371.00,100.93
3370.00,100.93
3369.00,100.93
3368.00,100.93
3367.00,100.93
3366.00,100.93
3365.00,100.93
3364.00,100.93
3363.00,100.93
3362.00,100.93
3361.00,100.93
3360.00,100.93
3359.00,100.93
3358.00,100.93
3357.00,100.93
3356.00,100.93
3355.00,100.94
3354.00,100.94
3353.00,100.94
3352.00,100.94
3351.00,100.94
3350.00,100.94
3349.00,100.94
3348.00,100.94
3347.00,100.94
3346.00,100.94
3345.00,100.94
3344.00,100.94
3343.00,100.94
3342.00,100.94
3341.00,100.94
3340.00,100.94
3339.00,100.94
3338.00,100.94
3337.00,100.94
3336.00,100.94
3335.00,100.94
3334.00,100.94
3333.00,100.94
3332.00,100.94
3331.00,100.94
3330.00,100.94
3329.00,100.94
3328.00,100.94
3327.00,100.94
3326.00,100.94
3325.00,100.94
3324.00,100.94
3323.00,100.94
3322.00,100.94
3321.00,100.94
3320.00,100.94
3319.00,100.94
3318.00,100.94
3317.00,100.93
3316.00,100.93
3315.00,100.93
3314.00,100.93
3313.00,100.93
3312.00,100.93
3311.00,100.93
3310.00,100.94
3309.00,100.94
3308.00,100.94
3307.00,100.94
3306.00,100.94
3305.00,100.94
3304.00,100.94
3303.00,100.94
3302.00,100.94
3301.00,100.94
3300.00,100.94
3299.00,100.94
3298.00,100.94
3297.00,100.94
3296.00,100.94
3295.00,100.94
3294.00,100.94
3293.00,100.94
3292.00,100.94
3291.00,100.94
3290.00,100.94
3289.00,100.94
3288.00,100.94
3287.00,100.94
3286.00,100.94
3285.00,100.94
3284.00,100.94
3283.00,100.94
3282.00,100.94
3281.00,100.94
3280.00,100.94
3279.00,100.94
3278.00,100.94
3277.00,100.94
3276.00,100.94
3275.00,100.94
3274.00,100.94
3273.00,100.94
3272.00,100.94
3271.00,100.94
3270.00,100.94
3269.00,100.94
3268.00,100.94
3267.00,100.94
3266.00,100.94
3265.00,100.94
3264.00,100.94
3263.00,100.94
3262.00,100.94
3261.00,100.94
3260.00,100.94
3259.00,100.94
3258.00,100.94
3257.00,100.94
3256.00,100.94
3255.00,100.94
3254.00,100.94
3253.00,100.94
3252.00,100.94
3251.00,100.94
3250.00,100.94
3249.00,100.94
3248.00,100.94
3247.00,100.94
3246.00,100.94
3245.00,100.94
3244.00,100.94
3243.00,100.94
3242.00,100.94
3241.00,100.94
3240.00,100.94
3239.00,100.94
3238.00,100.94
3237.00,100.94
3236.00,100.94
3235.00,100.94
3234.00,100.94
3233.00,100.94
3232.00,100.94
3231.00,100.94
3230.00,100.94
3229.00,100.94
3228.00,100.94
3227.00,100.94
3226.00,100.94
3225.00,100.94
3224.00,100.94
3223.00,100.94
3222.00,100.94
3221.00,100.94
3220.00,100.94
3219.00,100.94
3218.00,100.94
3217.00,100.94
3216.00,100.94
3215.00,100.94
3214.00,100.94
3213.00,100.94
3212.00,100.94
3211.00,100.94
3210.00,100.94
3209.00,100.94
3208.00,100.94
3207.00,100.94
3206.00,100.94
3205.00,100.94
3204.00,100.93
3203.00,100.93
3202.00,100.93
3201.00,100.93
3200.00,100.93
3199.00,100.93
3198.00,100.93
3197.00,100.94
3196.00,100.94
3195.00,100.94
3194.00,100.94
3193.00,100.94
3192.00,100.94
3191.00,100.94
3190.00,100.94
3189.00,100.94
3188.00,100.94
3187.00,100.94
3186.00,100.94
3185.00,100.94
3184.00,100.94
3183.00,100.94
3182.00,100.94
3181.00,100.94
3180.00,100.94
3179.00,100.94
3178.00,100.94
3177.00,100.94
3176.00,100.94
3175.00,100.94
3174.00,100.94
3173.00,100.94
3172.00,100.94
3171.00,100.94
3170.00,100.94
3169.00,100.94
3168.00,100.94
3167.00,100.94
3166.00,100.94
3165.00,100.94
3164.00,100.94
3163.00,100.94
3162.00,100.94
3161.00,100.94
3160.00,100.94
3159.00,100.94
3158.00,100.94
3157.00,100.94
3156.00,100.94
3155.00,100.94
3154.00,100.94
3153.00,100.94
3152.00,100.94
3151.00,100.94
3150.00,100.94
3149.00,100.94
3148.00,100.94
3147.00,100.94
3146.00,100.94
3145.00,100.94
3144.00,100.94
3143.00,100.94
3142.00,100.94
3141.00,100.94
3140.00,100.94
3139.00,100.94
3138.00,100.94
3137.00,100.94
3136.00,100.94
3135.00,100.94
3134.00,100.94
3133.00,100.94
3132.00,100.94
3131.00,100.94
3130.00,100.94
3129.00,100.94
3128.00,100.94
3127.00,100.94
3126.00,100.94
3125.00,100.94
3124.00,100.94
3123.00,100.94
3122.00,100.94
3121.00,100.94
3120.00,100.94
3119.00,100.94
3118.00,100.94
3117.00,100.94
3116.00,100.94
3115.00,100.94
3114.00,100.94
3113.00,100.94
3112.00,100.94
3111.00,100.94
3110.00,100.94
3109.00,100.94
3108.00,100.94
3107.00,100.94
3106.00,100.94
3105.00,100.94
3104.00,100.94
3103.00,100.94
3102.00,100.94
3101.00,100.93
3100.00,100.93
3099.00,100.93
3098.00,100.93
3097.00,100.93
3096.00,100.94
3095.00,100.94
3094.00,100.94
3093.00,100.94
3092.00,100.94
3091.00,100.94
3090.00,100.94
3089.00,100.94
3088.00,100.94
3087.00,100.94
3086.00,100.94
3085.00,100.94
3084.00,100.94
3083.00,100.94
3082.00,100.94
3081.00,100.94
3080.00,100.94
3079.00,100.94
3078.00,100.94
3077.00,100.94
3076.00,100.94
3075.00,100.94
3074.00,100.94
3073.00,100.94
3072.00,100.94
3071.00,100.94
3070.00,100.95
3069.00,100.95
3068.00,100.95
3067.00,100.95
3066.00,100.94
3065.00,100.94
3064.00,100.94
3063.00,100.94
3062.00,100.94
3061.00,100.94
3060.00,100.94
3059.00,100.94
3058.00,100.94
3057.00,100.94
3056.00,100.94
3055.00,100.94
3054.00,100.94
3053.00,100.94
3052.00,100.94
3051.00,100.94
3050.00,100.94
3049.00,100.94
3048.00,100.94
3047.00,100.94
3046.00,100.94
3045.00,100.94
3044.00,100.94
3043.00,100.94
3042.00,100.94
3041.00,100.94
3040.00,100.94
3039.00,100.94
3038.00,100.94
3037.00,100.94
3036.00,100.94
3035.00,100.94
3034.00,100.94
3033.00,100.94
3032.00,100.94
3031.00,100.94
3030.00,100.94
3029.00,100.94
3028.00,100.94
3027.00,100.94
3026.00,100.94
3025.00,100.94
3024.00,100.94
3023.00,100.94
3022.00,100.94
3021.00,100.94
3020.00,100.94
3019.00,100.94
3018.00,100.94
3017.00,100.94
3016.00,100.94
3015.00,100.94
3014.00,100.94
3013.00,100.94
3012.00,100.94
3011.00,100.94
3010.00,100.94
3009.00,100.94
3008.00,100.94
3007.00,100.94
3006.00,100.94
3005.00,100.94
3004.00,100.94
3003.00,100.94
3002.00,100.94
3001.00,100.94
3000.00,100.94
2999.00,100.94
2998.00,100.94
2997.00,100.94
2996.00,100.94
2995.00,100.94
2994.00,100.94
2993.00,100.94
2992.00,100.94
2991.00,100.94
2990.00,100.94
2989.00,100.94
2988.00,100.94
2987.00,100.94
2986.00,100.94
2985.00,100.94
2984.00,100.94
2983.00,100.94
2982.00,100.94
2981.00,100.94
2980.00,100.94
2979.00,100.94
2978.00,100.94
2977.00,100.94
2976.00,100.94
2975.00,100.94
2974.00,100.94
2973.00,100.94
2972.00,100.94
2971.00,100.94
2970.00,100.95
2969.00,100.95
2968.00,100.95
2967.00,100.95
2966.00,100.95
2965.00,100.95
2964.00,100.95
2963.00,100.95
2962.00,100.95
2961.00,100.94
2960.00,100.94
2959.00,100.94
2958.00,100.94
2957.00,100.94
2956.00,100.94
2955.00,100.94
2954.00,100.94
2953.00,100.94
2952.00,100.94
2951.00,100.94
2950.00,100.94
2949.00,100.94
2948.00,100.94
2947.00,100.94
2946.00,100.94
2945.00,100.94
2944.00,100.94
2943.00,100.94
2942.00,100.94
2941.00,100.94
2940.00,100.94
2939.00,100.94
2938.00,100.94
2937.00,100.94
2936.00,100.94
2935.00,100.94
2934.00,100.94
2933.00,100.94
2932.00,100.94
2931.00,100.94
2930.00,100.94
2929.00,100.94
2928.00,100.94
2927.00,100.94
2926.00,100.94
2925.00,100.94
2924.00,100.94
2923.00,100.94
2922.00,100.94
2921.00,100.94
2920.00,100.94
2919.00,100.94
2918.00,100.94
2917.00,100.94
2916.00,100.94
2915.00,100.94
2914.00,100.94
2913.00,100.94
2912.00,100.94
2911.00,100.94
2910.00,100.94
2909.00,100.94
2908.00,100.94
2907.00,100.94
2906.00,100.94
2905.00,100.94
2904.00,100.94
2903.00,100.94
2902.00,100.94
2901.00,100.94
2900.00,100.94
2899.00,100.94
2898.00,100.94
2897.00,100.94
2896.00,100.94
2895.00,100.94
2894.00,100.94
2893.00,100.94
2892.00,100.94
2891.00,100.94
2890.00,100.94
2889.00,100.94
2888.00,100.94
2887.00,100.94
2886.00,100.94
2885.00,100.94
2884.00,100.94
2883.00,100.94
2882.00,100.94
2881.00,100.94
2880.00,100.94
2879.00,100.94
2878.00,100.94
2877.00,100.94
2876.00,100.94
2875.00,100.94
2874.00,100.94
2873.00,100.95
2872.00,100.95
2871.00,100.95
2870.00,100.94
2869.00,100.95
2868.00,100.95
2867.00,100.95
2866.00,100.95
2865.00,100.95
2864.00,100.95
2863.00,100.94
2862.00,100.94
2861.00,100.95
2860.00,100.95
2859.00,100.95
2858.00,100.94
2857.00,100.94
2856.00,100.94
2855.00,100.94
2854.00,100.94
2853.00,100.94
2852.00,100.94
2851.00,100.94
2850.00,100.94
2849.00,100.94
2848.00,100.94
2847.00,100.94
2846.00,100.94
2845.00,100.94
2844.00,100.94
2843.00,100.94
2842.00,100.94
2841.00,100.94
2840.00,100.94
2839.00,100.94
2838.00,100.94
2837.00,100.94
2836.00,100.94
2835.00,100.94
2834.00,100.94
2833.00,100.94
2832.00,100.94
2831.00,100.94
2830.00,100.94
2829.00,100.94
2828.00,100.94
2827.00,100.94
2826.00,100.94
2825.00,100.94
2824.00,100.94
2823.00,100.94
2822.00,100.94
2821.00,100.94
2820.00,100.94
2819.00,100.94
2818.00,100.94
2817.00,100.94
2816.00,100.94
2815.00,100.95
2814.00,100.95
2813.00,100.95
2812.00,100.95
2811.00,100.95
2810.00,100.95
2809.00,100.95
2808.00,100.95
2807.00,100.95
2806.00,100.95
2805.00,100.95
2804.00,100.95
2803.00,100.95
2802.00,100.95
2801.00,100.95
2800.00,100.95
2799.00,100.95
2798.00,100.95
2797.00,100.95
2796.00,100.95
2795.00,100.95
2794.00,100.95
2793.00,100.95
2792.00,100.95
2791.00,100.95
2790.00,100.95
2789.00,100.95
2788.00,100.95
2787.00,100.95
2786.00,100.94
2785.00,100.94
2784.00,100.94
2783.00,100.94
2782.00,100.94
2781.00,100.94
2780.00,100.94
2779.00,100.94
2778.00,100.94
2777.00,100.94
2776.00,100.94
2775.00,100.94
2774.00,100.94
2773.00,100.94
2772.00,100.94
2771.00,100.94
2770.00,100.94
2769.00,100.94
2768.00,100.94
2767.00,100.94
2766.00,100.94
2765.00,100.94
2764.00,100.94
2763.00,100.95
2762.00,100.95
2761.00,100.95
2760.00,100.95
2759.00,100.95
2758.00,100.95
2757.00,100.95
2756.00,100.95
2755.00,100.95
2754.00,100.95
2753.00,100.95
2752.00,100.95
2751.00,100.95
2750.00,100.95
2749.00,100.95
2748.00,100.95
2747.00,100.95
2746.00,100.95
2745.00,100.95
2744.00,100.95
2743.00,100.95
2742.00,100.95
2741.00,100.95
2740.00,100.95
2739.00,100.95
2738.00,100.95
2737.00,100.95
2736.00,100.95
2735.00,100.94
2734.00,100.94
2733.00,100.94
2732.00,100.94
2731.00,100.94
2730.00,100.94
2729.00,100.94
2728.00,100.94
2727.00,100.94
2726.00,100.94
2725.00,100.94
2724.00,100.94
2723.00,100.94
2722.00,100.94
2721.00,100.94
2720.00,100.94
2719.00,100.94
2718.00,100.94
2717.00,100.94
2716.00,100.94
2715.00,100.94
2714.00,100.95
2713.00,100.95
2712.00,100.95
2711.00,100.95
2710.00,100.95
2709.00,100.95
2708.00,100.95
2707.00,100.95
2706.00,100.95
2705.00,100.95
2704.00,100.95
2703.00,100.95
2702.00,100.95
2701.00,100.95
2700.00,100.95
2699.00,100.95
2698.00,100.95
2697.00,100.95
2696.00,100.95
2695.00,100.95
2694.00,100.95
2693.00,100.95
2692.00,100.95
2691.00,100.95
2690.00,100.95
2689.00,100.95
2688.00,100.95
2687.00,100.95
2686.00,100.95
2685.00,100.95
2684.00,100.95
2683.00,100.95
2682.00,100.94
2681.00,100.94
2680.00,100.94
2679.00,100.94
2678.00,100.94
2677.00,100.94
2676.00,100.94
2675.00,100.94
2674.00,100.94
2673.00,100.94
2672.00,100.94
2671.00,100.94
2670.00,100.94
2669.00,100.94
2668.00,100.94
2667.00,100.94
2666.00,100.94
2665.00,100.94
2664.00,100.94
2663.00,100.94
2662.00,100.94
2661.00,100.94
2660.00,100.94
2659.00,100.94
2658.00,100.94
2657.00,100.94
2656.00,100.95
2655.00,100.95
2654.00,100.95
2653.00,100.95
2652.00,100.95
2651.00,100.95
2650.00,100.95
2649.00,100.95
2648.00,100.95
2647.00,100.95
2646.00,100.95
2645.00,100.95
2644.00,100.95
2643.00,100.95
2642.00,100.95
2641.00,100.95
2640.00,100.95
2639.00,100.95
2638.00,100.95
2637.00,100.95
2636.00,100.95
2635.00,100.95
2634.00,100.95
2633.00,100.95
2632.00,100.95
2631.00,100.95
2630.00,100.95
2629.00,100.95
2628.00,100.95
2627.00,100.95
2626.00,100.94
2625.00,100.94
2624.00,100.94
2623.00,100.94
2622.00,100.94
2621.00,100.94
2620.00,100.94
2619.00,100.94
2618.00,100.94
2617.00,100.94
2616.00,100.94
2615.00,100.94
2614.00,100.94
2613.00,100.94
2612.00,100.94
2611.00,100.94
2610.00,100.94
2609.00,100.94
2608.00,100.94
2607.00,100.94
2606.00,100.94
2605.00,100.95
2604.00,100.95
2603.00,100.95
2602.00,100.95
2601.00,100.95
2600.00,100.95
2599.00,100.95
2598.00,100.95
2597.00,100.95
2596.00,100.95
2595.00,100.95
2594.00,100.95
2593.00,100.95
2592.00,100.95
2591.00,100.95
2590.00,100.95
2589.00,100.95
2588.00,100.95
2587.00,100.95
2586.00,100.95
2585.00,100.95
2584.00,100.95
2583.00,100.95
2582.00,100.95
2581.00,100.95
2580.00,100.95
2579.00,100.95
2578.00,100.95
2577.00,100.94
2576.00,100.94
2575.00,100.94
2574.00,100.94
2573.00,100.94
2572.00,100.94
2571.00,100.94
2570.00,100.94
2569.00,100.94
2568.00,100.94
2567.00,100.94
2566.00,100.94
2565.00,100.94
2564.00,100.94
2563.00,100.94
2562.00,100.94
2561.00,100.94
2560.00,100.94
2559.00,100.94
2558.00,100.94
2557.00,100.94
2556.00,100.94
2555.00,100.94
2554.00,100.94
2553.00,100.94
2552.00,100.94
2551.00,100.94
2550.00,100.94
2549.00,100.94
2548.00,100.95
2547.00,100.95
2546.00,100.95
2545.00,100.95
2544.00,100.95
2543.00,100.95
2542.00,100.95
2541.00,100.95
2540.00,100.95
2539.00,100.95
2538.00,100.95
2537.00,100.95
2536.00,100.95
2535.00,100.95
2534.00,100.95
2533.00,100.95
2532.00,100.95
2531.00,100.95
2530.00,100.95
2529.00,100.95
2528.00,100.95
2527.00,100.95
2526.00,100.95
2525.00,100.95
2524.00,100.95
2523.00,100.95
2522.00,100.95
2521.00,100.95
2520.00,100.95
2519.00,100.95
2518.00,100.94
2517.00,100.94
2516.00,100.94
2515.00,100.94
2514.00,100.94
2513.00,100.94
2512.00,100.94
2511.00,100.94
2510.00,100.94
2509.00,100.94
2508.00,100.94
2507.00,100.94
2506.00,100.94
2505.00,100.94
2504.00,100.94
2503.00,100.94
2502.00,100.94
2501.00,100.94
2500.00,100.94
2499.00,100.95
2498.00,100.95
2497.00,100.95
2496.00,100.95
2495.00,100.95
2494.00,100.95
2493.00,100.95
2492.00,100.95
2491.00,100.95
2490.00,100.95
2489.00,100.95
2488.00,100.95
2487.00,100.95
2486.00,100.95
2485.00,100.95
2484.00,100.95
2483.00,100.95
2482.00,100.95
2481.00,100.95
2480.00,100.95
2479.00,100.95
2478.00,100.95
2477.00,100.95
2476.00,100.95
2475.00,100.95
2474.00,100.95
2473.00,100.95
2472.00,100.95
2471.00,100.95
2470.00,100.95
2469.00,100.95
2468.00,100.95
2467.00,100.95
2466.00,100.94
2465.00,100.94
2464.00,100.94
2463.00,100.94
2462.00,100.94
2461.00,100.94
2460.00,100.94
2459.00,100.94
2458.00,100.94
2457.00,100.94
2456.00,100.94
2455.00,100.94
2454.00,100.94
2453.00,100.94
2452.00,100.94
2451.00,100.94
2450.00,100.94
2449.00,100.94
2448.00,100.94
2447.00,100.95
2446.00,100.95
2445.00,100.95
2444.00,100.95
2443.00,100.95
2442.00,100.95
2441.00,100.95
2440.00,100.95
2439.00,100.95
2438.00,100.95
2437.00,100.95
2436.00,100.95
2435.00,100.95
2434.00,100.95
2433.00,100.95
2432.00,100.95
2431.00,100.95
2430.00,100.95
2429.00,100.95
2428.00,100.95
2427.00,100.95
2426.00,100.95
2425.00,100.95
2424.00,100.95
2423.00,100.95
2422.00,100.95
2421.00,100.95
2420.00,100.95
2419.00,100.95
2418.00,100.95
2417.00,100.95
2416.00,100.95
2415.00,100.95
2414.00,100.94
2413.00,100.94
2412.00,100.94
2411.00,100.94
2410.00,100.94
2409.00,100.94
2408.00,100.94
2407.00,100.94
2406.00,100.94
2405.00,100.94
2404.00,100.94
2403.00,100.94
2402.00,100.94
2401.00,100.94
2400.00,100.94
2399.00,100.94
2398.00,100.94
2397.00,100.94
2396.00,100.94
2395.00,100.94
2394.00,100.94
2393.00,100.94
2392.00,100.94
2391.00,100.94
2390.00,100.94
2389.00,100.94
2388.00,100.94
2387.00,100.94
2386.00,100.94
2385.00,100.94
2384.00,100.94
2383.00,100.94
2382.00,100.94
2381.00,100.94
2380.00,100.94
2379.00,100.94
2378.00,100.94
2377.00,100.94
2376.00,100.94
2375.00,100.94
2374.00,100.94
2373.00,100.94
2372.00,100.94
2371.00,100.94
2370.00,100.94
2369.00,100.94
2368.00,100.94
2367.00,100.94
2366.00,100.94
2365.00,100.94
2364.00,100.95
2363.00,100.95
2362.00,100.95
2361.00,100.95
2360.00,100.95
2359.00,100.95
2358.00,100.95
2357.00,100.95
2356.00,100.95
2355.00,100.95
2354.00,100.94
2353.00,100.94
2352.00,100.93
2351.00,100.93
2350.00,100.93
2349.00,100.94
2348.00,100.95
2347.00,100.96
2346.00,100.97
2345.00,100.96
2344.00,100.95
2343.00,100.94
2342.00,100.95
2341.00,100.95
2340.00,100.95
2339.00,100.95
2338.00,100.95
2337.00,100.95
2336.00,100.95
2335.00,100.95
2334.00,100.95
2333.00,100.95
2332.00,100.95
2331.00,100.95
2330.00,100.94
2329.00,100.94
2328.00,100.94
2327.00,100.95
2326.00,100.95
2325.00,100.95
2324.00,100.95
2323.00,100.94
2322.00,100.94
2321.00,100.94
2320.00,100.94
2319.00,100.94
2318.00,100.94
2317.00,100.94
2316.00,100.94
2315.00,100.94
2314.00,100.93
2313.00,100.93
2312.00,100.93
2311.00,100.93
2310.00,100.93
2309.00,100.93
2308.00,100.93
2307.00,100.93
2306.00,100.93
2305.00,100.93
2304.00,100.93
2303.00,100.93
2302.00,100.93
2301.00,100.93
2300.00,100.93
2299.00,100.93
2298.00,100.93
2297.00,100.93
2296.00,100.93
2295.00,100.93
2294.00,100.93
2293.00,100.93
2292.00,100.94
2291.00,100.94
2290.00,100.94
2289.00,100.94
2288.00,100.94
2287.00,100.94
2286.00,100.94
2285.00,100.94
2284.00,100.94
2283.00,100.94
2282.00,100.94
2281.00,100.94
2280.00,100.95
2279.00,100.95
2278.00,100.95
2277.00,100.95
2276.00,100.95
2275.00,100.95
2274.00,100.95
2273.00,100.95
2272.00,100.95
2271.00,100.95
2270.00,100.95
2269.00,100.95
2268.00,100.95
2267.00,100.95
2266.00,100.95
2265.00,100.95
2264.00,100.95
2263.00,100.95
2262.00,100.95
2261.00,100.95
2260.00,100.95
2259.00,100.95
2258.00,100.95
2257.00,100.95
2256.00,100.95
2255.00,100.95
2254.00,100.95
2253.00,100.95
2252.00,100.95
2251.00,100.94
2250.00,100.94
2249.00,100.94
2248.00,100.94
2247.00,100.94
2246.00,100.94
2245.00,100.94
2244.00,100.94
2243.00,100.94
2242.00,100.94
2241.00,100.94
2240.00,100.94
2239.00,100.94
2238.00,100.94
2237.00,100.94
2236.00,100.94
2235.00,100.94
2234.00,100.94
2233.00,100.94
2232.00,100.94
2231.00,100.94
2230.00,100.94
2229.00,100.94
2228.00,100.95
2227.00,100.95
2226.00,100.95
2225.00,100.95
2224.00,100.95
2223.00,100.95
2222.00,100.95
2221.00,100.95
2220.00,100.95
2219.00,100.95
2218.00,100.95
2217.00,100.95
2216.00,100.95
2215.00,100.95
2214.00,100.95
2213.00,100.95
2212.00,100.95
2211.00,100.95
2210.00,100.95
2209.00,100.95
2208.00,100.95
2207.00,100.95
2206.00,100.95
2205.00,100.95
2204.00,100.95
2203.00,100.95
2202.00,100.94
2201.00,100.94
2200.00,100.94
2199.00,100.94
2198.00,100.94
2197.00,100.94
2196.00,100.94
2195.00,100.94
2194.00,100.94
2193.00,100.94
2192.00,100.94
2191.00,100.94
2190.00,100.94
2189.00,100.94
2188.00,100.94
2187.00,100.94
2186.00,100.94
2185.00,100.94
2184.00,100.94
2183.00,100.94
2182.00,100.94
2181.00,100.94
2180.00,100.95
2179.00,100.95
2178.00,100.95
2177.00,100.95
2176.00,100.95
2175.00,100.95
2174.00,100.95
2173.00,100.95
2172.00,100.95
2171.00,100.95
2170.00,100.95
2169.00,100.95
2168.00,100.95
2167.00,100.95
2166.00,100.95
2165.00,100.95
2164.00,100.95
2163.00,100.95
2162.00,100.95
2161.00,100.95
2160.00,100.95
2159.00,100.95
2158.00,100.95
2157.00,100.95
2156.00,100.95
2155.00,100.95
2154.00,100.95
2153.00,100.95
2152.00,100.95
2151.00,100.95
2150.00,100.95
2149.00,100.95
2148.00,100.94
2147.00,100.94
2146.00,100.94
2145.00,100.94
2144.00,100.94
2143.00,100.94
2142.00,100.94
2141.00,100.94
2140.00,100.94
2139.00,100.94
2138.00,100.94
2137.00,100.94
2136.00,100.94
2135.00,100.94
2134.00,100.94
2133.00,100.94
2132.00,100.94
2131.00,100.94
2130.00,100.94
2129.00,100.94
2128.00,100.94
2127.00,100.94
2126.00,100.94
2125.00,100.94
2124.00,100.94
2123.00,100.94
2122.00,100.94
2121.00,100.94
2120.00,100.95
2119.00,100.95
2118.00,100.95
2117.00,100.95
2116.00,100.95
2115.00,100.95
2114.00,100.95
2113.00,100.95
2112.00,100.95
2111.00,100.95
2110.00,100.95
2109.00,100.95
2108.00,100.95
2107.00,100.95
2106.00,100.95
2105.00,100.95
2104.00,100.95
2103.00,100.95
2102.00,100.95
2101.00,100.95
2100.00,100.95
2099.00,100.95
2098.00,100.95
2097.00,100.95
2096.00,100.95
2095.00,100.95
2094.00,100.95
2093.00,100.95
2092.00,100.95
2091.00,100.95
2090.00,100.94
2089.00,100.94
2088.00,100.94
2087.00,100.94
2086.00,100.94
2085.00,100.94
2084.00,100.94
2083.00,100.94
2082.00,100.94
2081.00,100.94
2080.00,100.94
2079.00,100.94
2078.00,100.94
2077.00,100.94
2076.00,100.95
2075.00,100.95
2074.00,100.95
2073.00,100.95
2072.00,100.95
2071.00,100.95
2070.00,100.95
2069.00,100.95
2068.00,100.94
2067.00,100.94
2066.00,100.95
2065.00,100.95
2064.00,100.95
2063.00,100.95
2062.00,100.95
2061.00,100.95
2060.00,100.95
2059.00,100.95
2058.00,100.95
2057.00,100.95
2056.00,100.95
2055.00,100.95
2054.00,100.95
2053.00,100.95
2052.00,100.95
2051.00,100.95
2050.00,100.95
2049.00,100.95
2048.00,100.95
2047.00,100.95
2046.00,100.95
2045.00,100.95
2044.00,100.95
2043.00,100.95
2042.00,100.95
2041.00,100.95
2040.00,100.95
2039.00,100.95
2038.00,100.95
2037.00,100.95
2036.00,100.94
2035.00,100.94
2034.00,100.94
2033.00,100.94
2032.00,100.94
2031.00,100.94
2030.00,100.94
2029.00,100.94
2028.00,100.94
2027.00,100.94
2026.00,100.94
2025.00,100.94
2024.00,100.94
2023.00,100.94
2022.00,100.94
2021.00,100.94
2020.00,100.94
2019.00,100.94
2018.00,100.94
2017.00,100.94
2016.00,100.95
2015.00,100.95
2014.00,100.95
2013.00,100.95
2012.00,100.95
2011.00,100.95
2010.00,100.95
2009.00,100.95
2008.00,100.95
2007.00,100.95
2006.00,100.95
2005.00,100.95
2004.00,100.95
2003.00,100.96
2002.00,100.96
2001.00,100.96
2000.00,100.95
1999.00,100.95
1998.00,100.95
1997.00,100.95
1996.00,100.95
1995.00,100.95
1994.00,100.95
1993.00,100.95
1992.00,100.95
1991.00,100.95
1990.00,100.95
1989.00,100.95
1988.00,100.95
1987.00,100.95
1986.00,100.95
1985.00,100.95
1984.00,100.95
1983.00,100.95
1982.00,100.94
1981.00,100.94
1980.00,100.94
1979.00,100.94
1978.00,100.94
1977.00,100.94
1976.00,100.94
1975.00,100.94
1974.00,100.94
1973.00,100.94
1972.00,100.94
1971.00,100.94
1970.00,100.94
1969.00,100.94
1968.00,100.94
1967.00,100.94
1966.00,100.94
1965.00,100.95
1964.00,100.95
1963.00,100.95
1962.00,100.95
1961.00,100.95
1960.00,100.95
1959.00,100.95
1958.00,100.94
1957.00,100.94
1956.00,100.95
1955.00,100.95
1954.00,100.95
1953.00,100.95
1952.00,100.95
1951.00,100.95
1950.00,100.95
1949.00,100.95
1948.00,100.95
1947.00,100.95
1946.00,100.95
1945.00,100.95
1944.00,100.95
1943.00,100.95
1942.00,100.95
1941.00,100.95
1940.00,100.95
1939.00,100.95
1938.00,100.95
1937.00,100.95
1936.00,100.95
1935.00,100.95
1934.00,100.95
1933.00,100.95
1932.00,100.95
1931.00,100.95
1930.00,100.95
1929.00,100.94
1928.00,100.94
1927.00,100.94
1926.00,100.94
1925.00,100.94
1924.00,100.94
1923.00,100.94
1922.00,100.94
1921.00,100.94
1920.00,100.94
1919.00,100.94
1918.00,100.94
1917.00,100.94
1916.00,100.94
1915.00,100.94
1914.00,100.95
1913.00,100.95
1912.00,100.95
1911.00,100.95
1910.00,100.95
1909.00,100.95
1908.00,100.95
1907.00,100.95
1906.00,100.95
1905.00,100.95
1904.00,100.95
1903.00,100.95
1902.00,100.95
1901.00,100.95
1900.00,100.95
1899.00,100.95
1898.00,100.95
1897.00,100.95
1896.00,100.95
1895.00,100.95
1894.00,100.95
1893.00,100.95
1892.00,100.95
1891.00,100.95
1890.00,100.95
1889.00,100.95
1888.00,100.95
1887.00,100.95
1886.00,100.95
1885.00,100.95
1884.00,100.95
1883.00,100.95
1882.00,100.95
1881.00,100.95
1880.00,100.95
1879.00,100.95
1878.00,100.95
1877.00,100.94
1876.00,100.94
1875.00,100.94
1874.00,100.94
1873.00,100.94
1872.00,100.94
1871.00,100.94
1870.00,100.94
1869.00,100.94
1868.00,100.94
1867.00,100.94
1866.00,100.94
1865.00,100.94
1864.00,100.94
1863.00,100.94
1862.00,100.94
1861.00,100.94
1860.00,100.94
1859.00,100.94
1858.00,100.95
1857.00,100.95
1856.00,100.95
1855.00,100.95
1854.00,100.95
1853.00,100.95
1852.00,100.95
1851.00,100.95
1850.00,100.95
1849.00,100.95
1848.00,100.95
1847.00,100.95
1846.00,100.95
1845.00,100.95
1844.00,100.95
1843.00,100.96
1842.00,100.96
1841.00,100.96
1840.00,100.96
1839.00,100.96
1838.00,100.96
1837.00,100.96
1836.00,100.96
1835.00,100.96
1834.00,100.96
1833.00,100.95
1832.00,100.95
1831.00,100.95
1830.00,100.95
1829.00,100.95
1828.00,100.95
1827.00,100.95
1826.00,100.95
1825.00,100.95
1824.00,100.95
1823.00,100.95
1822.00,100.95
1821.00,100.95
1820.00,100.95
1819.00,100.94
1818.00,100.94
1817.00,100.94
1816.00,100.94
1815.00,100.94
1814.00,100.94
1813.00,100.94
1812.00,100.94
1811.00,100.94
1810.00,100.94
1809.00,100.94
1808.00,100.94
1807.00,100.95
1806.00,100.95
1805.00,100.95
1804.00,100.94
1803.00,100.94
1802.00,100.94
1801.00,100.95
1800.00,100.95
1799.00,100.95
1798.00,100.95
1797.00,100.95
1796.00,100.95
1795.00,100.95
1794.00,100.95
1793.00,100.95
1792.00,100.95
1791.00,100.95
1790.00,100.96
1789.00,100.96
1788.00,100.96
1787.00,100.95
1786.00,100.95
1785.00,100.95
1784.00,100.95
1783.00,100.95
1782.00,100.95
1781.00,100.95
1780.00,100.95
1779.00,100.95
1778.00,100.95
1777.00,100.95
1776.00,100.95
1775.00,100.95
1774.00,100.95
1773.00,100.94
1772.00,100.94
1771.00,100.94
1770.00,100.94
1769.00,100.94
1768.00,100.94
1767.00,100.95
1766.00,100.94
1765.00,100.94
1764.00,100.94
1763.00,100.94
1762.00,100.94
1761.00,100.94
1760.00,100.94
1759.00,100.94
1758.00,100.94
1757.00,100.94
1756.00,100.94
1755.00,100.94
1754.00,100.94
1753.00,100.94
1752.00,100.94
1751.00,100.93
1750.00,100.93
1749.00,100.93
1748.00,100.94
1747.00,100.94
1746.00,100.94
1745.00,100.94
1744.00,100.94
1743.00,100.95
1742.00,100.95
1741.00,100.95
1740.00,100.95
1739.00,100.95
1738.00,100.95
1737.00,100.95
1736.00,100.96
1735.00,100.95
1734.00,100.95
1733.00,100.94
1732.00,100.94
1731.00,100.94
1730.00,100.95
1729.00,100.95
1728.00,100.95
1727.00,100.95
1726.00,100.95
1725.00,100.95
1724.00,100.95
1723.00,100.95
1722.00,100.95
1721.00,100.95
1720.00,100.95
1719.00,100.95
1718.00,100.94
1717.00,100.93
1716.00,100.93
1715.00,100.93
1714.00,100.94
1713.00,100.94
1712.00,100.94
1711.00,100.94
1710.00,100.94
1709.00,100.94
1708.00,100.94
1707.00,100.93
1706.00,100.94
1705.00,100.94
1704.00,100.94
1703.00,100.95
1702.00,100.95
1701.00,100.95
1700.00,100.95
1699.00,100.95
1698.00,100.94
1697.00,100.94
1696.00,100.95
1695.00,100.95
1694.00,100.95
1693.00,100.94
1692.00,100.94
1691.00,100.94
1690.00,100.94
1689.00,100.94
1688.00,100.95
1687.00,100.95
1686.00,100.95
1685.00,100.95
1684.00,100.94
1683.00,100.95
1682.00,100.95
1681.00,100.95
1680.00,100.95
1679.00,100.96
1678.00,100.95
1677.00,100.96
1676.00,100.96
1675.00,100.96
1674.00,100.95
1673.00,100.95
1672.00,100.95
1671.00,100.95
1670.00,100.95
1669.00,100.95
1668.00,100.95
1667.00,100.95
1666.00,100.95
1665.00,100.95
1664.00,100.95
1663.00,100.95
1662.00,100.94
1661.00,100.94
1660.00,100.95
1659.00,100.95
1658.00,100.95
1657.00,100.95
1656.00,100.96
1655.00,100.96
1654.00,100.96
1653.00,100.96
1652.00,100.95
1651.00,100.94
1650.00,100.93
1649.00,100.94
1648.00,100.94
1647.00,100.94
1646.00,100.94
1645.00,100.94
1644.00,100.94
1643.00,100.94
1642.00,100.95
1641.00,100.95
1640.00,100.95
1639.00,100.95
1638.00,100.95
1637.00,100.95
1636.00,100.95
1635.00,100.95
1634.00,100.95
1633.00,100.95
1632.00,100.95
1631.00,100.96
1630.00,100.95
1629.00,100.95
1628.00,100.95
1627.00,100.95
1626.00,100.95
1625.00,100.95
1624.00,100.95
1623.00,100.95
1622.00,100.95
1621.00,100.95
1620.00,100.96
1619.00,100.96
1618.00,100.96
1617.00,100.95
1616.00,100.95
1615.00,100.94
1614.00,100.94
1613.00,100.95
1612.00,100.95
1611.00,100.95
1610.00,100.94
1609.00,100.94
1608.00,100.94
1607.00,100.94
1606.00,100.94
1605.00,100.94
1604.00,100.94
1603.00,100.94
1602.00,100.94
1601.00,100.94
1600.00,100.94
1599.00,100.94
1598.00,100.94
1597.00,100.94
1596.00,100.94
1595.00,100.94
1594.00,100.94
1593.00,100.94
1592.00,100.94
1591.00,100.95
1590.00,100.95
1589.00,100.95
1588.00,100.95
1587.00,100.95
1586.00,100.95
1585.00,100.95
1584.00,100.95
1583.00,100.95
1582.00,100.95
1581.00,100.95
1580.00,100.96
1579.00,100.96
1578.00,100.96
1577.00,100.96
1576.00,100.96
1575.00,100.95
1574.00,100.95
1573.00,100.95
1572.00,100.95
1571.00,100.95
1570.00,100.95
1569.00,100.95
1568.00,100.95
1567.00,100.95
1566.00,100.95
1565.00,100.95
1564.00,100.95
1563.00,100.95
1562.00,100.96
1561.00,100.96
1560.00,100.95
1559.00,100.94
1558.00,100.95
1557.00,100.95
1556.00,100.94
1555.00,100.94
1554.00,100.94
1553.00,100.94
1552.00,100.94
1551.00,100.93
1550.00,100.94
1549.00,100.94
1548.00,100.94
1547.00,100.94
1546.00,100.93
1545.00,100.93
1544.00,100.94
1543.00,100.94
1542.00,100.94
1541.00,100.94
1540.00,100.94
1539.00,100.95
1538.00,100.94
1537.00,100.94
1536.00,100.94
1535.00,100.94
1534.00,100.94
1533.00,100.94
1532.00,100.94
1531.00,100.95
1530.00,100.95
1529.00,100.94
1528.00,100.94
1527.00,100.95
1526.00,100.95
1525.00,100.95
1524.00,100.95
1523.00,100.95
1522.00,100.95
1521.00,100.95
1520.00,100.95
1519.00,100.94
1518.00,100.94
1517.00,100.95
1516.00,100.95
1515.00,100.95
1514.00,100.95
1513.00,100.95
1512.00,100.95
1511.00,100.94
1510.00,100.94
1509.00,100.94
1508.00,100.94
1507.00,100.95
1506.00,100.96
1505.00,100.96
1504.00,100.95
1503.00,100.95
1502.00,100.95
1501.00,100.95
1500.00,100.94
1499.00,100.94
1498.00,100.94
1497.00,100.94
1496.00,100.94
1495.00,100.94
1494.00,100.94
1493.00,100.93
1492.00,100.93
1491.00,100.93
1490.00,100.93
1489.00,100.93
1488.00,100.93
1487.00,100.94
1486.00,100.94
1485.00,100.94
1484.00,100.95
1483.00,100.95
1482.00,100.95
1481.00,100.95
1480.00,100.95
1479.00,100.95
1478.00,100.95
1477.00,100.95
1476.00,100.95
1475.00,100.95
1474.00,100.95
1473.00,100.95
1472.00,100.95
1471.00,100.96
1470.00,100.96
1469.00,100.96
1468.00,100.96
1467.00,100.96
1466.00,100.95
1465.00,100.95
1464.00,100.95
1463.00,100.95
1462.00,100.95
1461.00,100.95
1460.00,100.95
1459.00,100.95
1458.00,100.95
1457.00,100.95
1456.00,100.95
1455.00,100.95
1454.00,100.95
1453.00,100.95
1452.00,100.95
1451.00,100.94
1450.00,100.94
1449.00,100.94
1448.00,100.94
1447.00,100.94
1446.00,100.94
1445.00,100.94
1444.00,100.94
1443.00,100.94
1442.00,100.94
1441.00,100.95
1440.00,100.95
1439.00,100.95
1438.00,100.95
1437.00,100.95
1436.00,100.95
1435.00,100.95
1434.00,100.95
1433.00,100.95
1432.00,100.95
1431.00,100.95
1430.00,100.95
1429.00,100.95
1428.00,100.95
1427.00,100.95
1426.00,100.95
1425.00,100.95
1424.00,100.95
1423.00,100.95
1422.00,100.95
1421.00,100.96
1420.00,100.96
1419.00,100.96
1418.00,100.96
1417.00,100.96
1416.00,100.96
1415.00,100.96
1414.00,100.96
1413.00,100.96
1412.00,100.96
1411.00,100.96
1410.00,100.96
1409.00,100.96
1408.00,100.96
1407.00,100.95
1406.00,100.95
1405.00,100.95
1404.00,100.95
1403.00,100.95
1402.00,100.95
1401.00,100.94
1400.00,100.94
1399.00,100.94
1398.00,100.94
1397.00,100.94
1396.00,100.94
1395.00,100.94
1394.00,100.95
1393.00,100.95
1392.00,100.95
1391.00,100.94
1390.00,100.94
1389.00,100.94
1388.00,100.94
1387.00,100.94
1386.00,100.94
1385.00,100.94
1384.00,100.94
1383.00,100.94
1382.00,100.94
1381.00,100.94
1380.00,100.94
1379.00,100.94
1378.00,100.94
1377.00,100.94
1376.00,100.94
1375.00,100.94
1374.00,100.94
1373.00,100.95
1372.00,100.95
1371.00,100.95
1370.00,100.95
1369.00,100.95
1368.00,100.95
1367.00,100.95
1366.00,100.95
1365.00,100.95
1364.00,100.94
1363.00,100.95
1362.00,100.95
1361.00,100.95
1360.00,100.96
1359.00,100.96
1358.00,100.96
1357.00,100.95
1356.00,100.95
1355.00,100.95
1354.00,100.95
1353.00,100.95
1352.00,100.95
1351.00,100.95
1350.00,100.95
1349.00,100.95
1348.00,100.95
1347.00,100.95
1346.00,100.95
1345.00,100.95
1344.00,100.95
1343.00,100.95
1342.00,100.94
1341.00,100.94
1340.00,100.94
1339.00,100.94
1338.00,100.94
1337.00,100.95
1336.00,100.95
1335.00,100.95
1334.00,100.95
1333.00,100.95
1332.00,100.95
1331.00,100.95
1330.00,100.95
1329.00,100.95
1328.00,100.95
1327.00,100.95
1326.00,100.95
1325.00,100.95
1324.00,100.95
1323.00,100.95
1322.00,100.95
1321.00,100.95
1320.00,100.95
1319.00,100.95
1318.00,100.95
1317.00,100.95
1316.00,100.95
1315.00,100.95
1314.00,100.95
1313.00,100.95
1312.00,100.95
1311.00,100.96
1310.00,100.96
1309.00,100.96
1308.00,100.96
1307.00,100.96
1306.00,100.95
1305.00,100.95
1304.00,100.95
1303.00,100.95
1302.00,100.95
1301.00,100.95
1300.00,100.95
1299.00,100.95
1298.00,100.95
1297.00,100.95
1296.00,100.95
1295.00,100.95
1294.00,100.95
1293.00,100.95
1292.00,100.95
1291.00,100.94
1290.00,100.94
1289.00,100.94
1288.00,100.94
1287.00,100.94
1286.00,100.94
1285.00,100.94
1284.00,100.94
1283.00,100.94
1282.00,100.94
1281.00,100.94
1280.00,100.94
1279.00,100.94
1278.00,100.94
1277.00,100.94
1276.00,100.94
1275.00,100.94
1274.00,100.94
1273.00,100.94
1272.00,100.94
1271.00,100.94
1270.00,100.94
1269.00,100.95
1268.00,100.95
1267.00,100.95
1266.00,100.95
1265.00,100.95
1264.00,100.95
1263.00,100.95
1262.00,100.95
1261.00,100.95
1260.00,100.95
1259.00,100.95
1258.00,100.95
1257.00,100.95
1256.00,100.95
1255.00,100.95
1254.00,100.95
1253.00,100.95
1252.00,100.95
1251.00,100.95
1250.00,100.95
1249.00,100.95
1248.00,100.95
1247.00,100.95
1246.00,100.95
1245.00,100.95
1244.00,100.95
1243.00,100.95
1242.00,100.95
1241.00,100.95
1240.00,100.95
1239.00,100.95
1238.00,100.94
1237.00,100.94
1236.00,100.94
1235.00,100.94
1234.00,100.94
1233.00,100.94
1232.00,100.94
1231.00,100.94
1230.00,100.94
1229.00,100.94
1228.00,100.94
1227.00,100.93
1226.00,100.93
1225.00,100.93
1224.00,100.93
1223.00,100.93
1222.00,100.94
1221.00,100.94
1220.00,100.94
1219.00,100.94
1218.00,100.94
1217.00,100.94
1216.00,100.94
1215.00,100.94
1214.00,100.94
1213.00,100.94
1212.00,100.94
1211.00,100.94
1210.00,100.94
1209.00,100.94
1208.00,100.94
1207.00,100.94
1206.00,100.94
1205.00,100.94
1204.00,100.94
1203.00,100.94
1202.00,100.94
1201.00,100.94
1200.00,100.95
1199.00,100.95
1198.00,100.95
1197.00,100.95
1196.00,100.95
1195.00,100.95
1194.00,100.95
1193.00,100.95
1192.00,100.94
1191.00,100.94
1190.00,100.94
1189.00,100.94
1188.00,100.94
1187.00,100.94
1186.00,100.94
1185.00,100.94
1184.00,100.94
1183.00,100.94
1182.00,100.94
1181.00,100.94
1180.00,100.94
1179.00,100.94
1178.00,100.93
1177.00,100.94
1176.00,100.94
1175.00,100.94
1174.00,100.94
1173.00,100.94
1172.00,100.93
1171.00,100.93
1170.00,100.93
1169.00,100.93
1168.00,100.94
1167.00,100.94
1166.00,100.94
1165.00,100.93
1164.00,100.93
1163.00,100.93
1162.00,100.93
1161.00,100.93
1160.00,100.93
1159.00,100.94
1158.00,100.94
1157.00,100.94
1156.00,100.94
1155.00,100.94
1154.00,100.94
1153.00,100.94
1152.00,100.94
1151.00,100.94
1150.00,100.94
1149.00,100.94
1148.00,100.94
1147.00,100.94
1146.00,100.94
1145.00,100.94
1144.00,100.94
1143.00,100.94
1142.00,100.94
1141.00,100.94
1140.00,100.94
1139.00,100.94
1138.00,100.94
1137.00,100.93
1136.00,100.94
1135.00,100.94
1134.00,100.94
1133.00,100.94
1132.00,100.94
1131.00,100.94
1130.00,100.93
1129.00,100.93
1128.00,100.94
1127.00,100.94
1126.00,100.94
1125.00,100.94
1124.00,100.93
1123.00,100.93
1122.00,100.93
1121.00,100.93
1120.00,100.93
1119.00,100.93
1118.00,100.93
1117.00,100.93
1116.00,100.93
1115.00,100.93
1114.00,100.93
1113.00,100.93
1112.00,100.93
1111.00,100.93
1110.00,100.93
1109.00,100.93
1108.00,100.93
1107.00,100.93
1106.00,100.93
1105.00,100.93
1104.00,100.93
1103.00,100.93
1102.00,100.93
1101.00,100.93
1100.00,100.93
1099.00,100.93
1098.00,100.93
1097.00,100.93
1096.00,100.93
1095.00,100.93
1094.00,100.93
1093.00,100.93
1092.00,100.93
1091.00,100.93
1090.00,100.93
1089.00,100.93
1088.00,100.93
1087.00,100.93
1086.00,100.93
1085.00,100.93
1084.00,100.93
1083.00,100.93
1082.00,100.93
1081.00,100.93
1080.00,100.92
1079.00,100.92
1078.00,100.93
1077.00,100.93
1076.00,100.93
1075.00,100.92
1074.00,100.92
1073.00,100.92
1072.00,100.92
1071.00,100.92
1070.00,100.92
1069.00,100.92
1068.00,100.92
1067.00,100.91
1066.00,100.92
1065.00,100.92
1064.00,100.92
1063.00,100.92
1062.00,100.92
1061.00,100.92
1060.00,100.91
1059.00,100.91
1058.00,100.92
1057.00,100.92
1056.00,100.92
1055.00,100.92
1054.00,100.92
1053.00,100.92
1052.00,100.92
1051.00,100.92
1050.00,100.92
1049.00,100.92
1048.00,100.92
1047.00,100.92
1046.00,100.92
1045.00,100.92
1044.00,100.92
1043.00,100.93
1042.00,100.93
1041.00,100.93
1040.00,100.93
1039.00,100.93
1038.00,100.93
1037.00,100.93
1036.00,100.93
1035.00,100.93
1034.00,100.93
1033.00,100.93
1032.00,100.93
1031.00,100.93
1030.00,100.93
1029.00,100.93
1028.00,100.93
1027.00,100.93
1026.00,100.93
1025.00,100.93
1024.00,100.93
1023.00,100.93
1022.00,100.93
1021.00,100.93
1020.00,100.93
1019.00,100.93
1018.00,100.93
1017.00,100.93
1016.00,100.93
1015.00,100.93
1014.00,100.93
1013.00,100.93
1012.00,100.93
1011.00,100.93
1010.00,100.93
1009.00,100.93
1008.00,100.94
1007.00,100.94
1006.00,100.94
1005.00,100.94
1004.00,100.94
1003.00,100.94
1002.00,100.95
1001.00,100.95
1000.00,100.94
999.00,100.94
998.00,100.94
997.00,100.95
996.00,100.95
995.00,100.95
994.00,100.95
993.00,100.95
992.00,100.95
991.00,100.95
990.00,100.95
989.00,100.95
988.00,100.96
987.00,100.96
986.00,100.96
985.00,100.96
984.00,100.96
983.00,100.96
982.00,100.96
981.00,100.96
980.00,100.96
979.00,100.96
978.00,100.96
977.00,100.96
976.00,100.96
975.00,100.95
974.00,100.95
973.00,100.95
972.00,100.96
971.00,100.96
970.00,100.96
969.00,100.96
968.00,100.96
967.00,100.95
966.00,100.95
965.00,100.95
964.00,100.95
963.00,100.95
962.00,100.95
961.00,100.96
960.00,100.96
959.00,100.96
958.00,100.96
957.00,100.96
956.00,100.96
955.00,100.96
954.00,100.96
953.00,100.96
952.00,100.96
951.00,100.96
950.00,100.96
949.00,100.96
948.00,100.96
947.00,100.97
946.00,100.97
945.00,100.97
944.00,100.97
943.00,100.97
942.00,100.97
941.00,100.97
940.00,100.97
939.00,100.97
938.00,100.97
937.00,100.97
936.00,100.97
935.00,100.97
934.00,100.97
933.00,100.98
932.00,100.98
931.00,100.98
930.00,100.98
929.00,100.97
928.00,100.97
927.00,100.97
926.00,100.97
925.00,100.97
924.00,100.97
923.00,100.97
922.00,100.97
921.00,100.97
920.00,100.97
919.00,100.97
918.00,100.97
917.00,100.97
916.00,100.96
915.00,100.96
914.00,100.96
913.00,100.96
912.00,100.96
911.00,100.96
910.00,100.96
909.00,100.96
908.00,100.96
907.00,100.96
906.00,100.96
905.00,100.97
904.00,100.97
903.00,100.96
902.00,100.96
901.00,100.96
900.00,100.96
899.00,100.96
898.00,100.97
897.00,100.97
896.00,100.97
895.00,100.97
894.00,100.97
893.00,100.97
892.00,100.97
891.00,100.97
890.00,100.97
889.00,100.97
888.00,100.97
887.00,100.97
886.00,100.97
885.00,100.98
884.00,100.98
883.00,100.98
882.00,100.98
881.00,100.97
880.00,100.97
879.00,100.97
878.00,100.96
877.00,100.96
876.00,100.96
875.00,100.96
874.00,100.96
873.00,100.96
872.00,100.96
871.00,100.96
870.00,100.96
869.00,100.96
868.00,100.96
867.00,100.96
866.00,100.96
865.00,100.96
864.00,100.96
863.00,100.95
862.00,100.95
861.00,100.96
860.00,100.96
859.00,100.96
858.00,100.96
857.00,100.97
856.00,100.97
855.00,100.97
854.00,100.97
853.00,100.97
852.00,100.97
851.00,100.97
850.00,100.97
849.00,100.97
848.00,100.97
847.00,100.97
846.00,100.97
845.00,100.97
844.00,100.97
843.00,100.97
842.00,100.96
841.00,100.96
840.00,100.96
839.00,100.96
838.00,100.96
837.00,100.97
836.00,100.97
835.00,100.97
834.00,100.97
833.00,100.97
832.00,100.97
831.00,100.97
830.00,100.97
829.00,100.97
828.00,100.97
827.00,100.96
826.00,100.96
825.00,100.96
824.00,100.96
823.00,100.96
822.00,100.96
821.00,100.96
820.00,100.96
819.00,100.96
818.00,100.96
817.00,100.96
816.00,100.96
815.00,100.96
814.00,100.96
813.00,100.96
812.00,100.96
811.00,100.96
810.00,100.96
809.00,100.96
808.00,100.96
807.00,100.96
806.00,100.96
805.00,100.96
804.00,100.95
803.00,100.95
802.00,100.95
801.00,100.95
800.00,100.95
799.00,100.95
798.00,100.95
797.00,100.95
796.00,100.95
795.00,100.96
794.00,100.96
793.00,100.96
792.00,100.96
791.00,100.96
790.00,100.96
789.00,100.97
788.00,100.97
787.00,100.97
786.00,100.97
785.00,100.97
784.00,100.97
783.00,100.97
782.00,100.97
781.00,100.97
780.00,100.97
779.00,100.97
778.00,100.97
777.00,100.97
776.00,100.97
775.00,100.97
774.00,100.97
773.00,100.97
772.00,100.97
771.00,100.97
770.00,100.97
769.00,100.97
768.00,100.97
767.00,100.97
766.00,100.97
765.00,100.97
764.00,100.97
763.00,100.97
762.00,100.97
761.00,100.97
760.00,100.97
759.00,100.97
758.00,100.97
757.00,100.96
756.00,100.96
755.00,100.96
754.00,100.96
753.00,100.96
752.00,100.96
751.00,100.96
750.00,100.96
749.00,100.96
748.00,100.96
747.00,100.96
746.00,100.97
745.00,100.97
744.00,100.97
743.00,100.97
742.00,100.97
741.00,100.97
740.00,100.97
739.00,100.97
738.00,100.97
737.00,100.97
736.00,100.97
735.00,100.97
734.00,100.97
733.00,100.97
732.00,100.97
731.00,100.97
730.00,100.97
729.00,100.97
728.00,100.97
727.00,100.97
726.00,100.97
725.00,100.98
724.00,100.98
723.00,100.97
722.00,100.97
721.00,100.97
720.00,100.97
719.00,100.97
718.00,100.97
717.00,100.98
716.00,100.98
715.00,100.98
714.00,100.98
713.00,100.97
712.00,100.97
711.00,100.97
710.00,100.97
709.00,100.97
708.00,100.97
707.00,100.97
706.00,100.97
705.00,100.97
704.00,100.97
703.00,100.97
702.00,100.97
701.00,100.97
700.00,100.97
699.00,100.97
698.00,100.97
697.00,100.97
696.00,100.97
695.00,100.97
694.00,100.97
693.00,100.97
692.00,100.97
691.00,100.97
690.00,100.96
689.00,100.96
688.00,100.96
687.00,100.96
686.00,100.96
685.00,100.97
684.00,100.97
683.00,100.97
682.00,100.97
681.00,100.97
680.00,100.97
679.00,100.97
678.00,100.97
677.00,100.97
676.00,100.97
675.00,100.97
674.00,100.98
673.00,100.98
672.00,100.98
671.00,100.97
670.00,100.97
669.00,100.96
668.00,100.95
667.00,100.95
666.00,100.96
665.00,100.96
664.00,100.97
663.00,100.98
662.00,100.98
661.00,100.98
660.00,100.98
659.00,100.97
658.00,100.97
657.00,100.97
656.00,100.97
655.00,100.97
654.00,100.96
653.00,100.97
652.00,100.97
651.00,100.97
650.00,100.96
649.00,100.96
648.00,100.96
647.00,100.96
646.00,100.96
645.00,100.96
644.00,100.96
643.00,100.96
642.00,100.96
641.00,100.96
640.00,100.96
639.00,100.96
638.00,100.96
637.00,100.96
636.00,100.96
635.00,100.96
634.00,100.96
633.00,100.96
632.00,100.97
631.00,100.97
630.00,100.97
629.00,100.97
628.00,100.97
627.00,100.96
626.00,100.96
625.00,100.96
624.00,100.96
623.00,100.97
622.00,100.97
621.00,100.97
620.00,100.96
619.00,100.96
618.00,100.95
617.00,100.95
616.00,100.95
615.00,100.95
614.00,100.95
613.00,100.95
612.00,100.96
611.00,100.96
610.00,100.96
609.00,100.96
608.00,100.96
607.00,100.96
606.00,100.95
605.00,100.95
604.00,100.96
603.00,100.96
602.00,100.96
601.00,100.96
600.00,100.95
599.00,100.95
598.00,100.94
597.00,100.94
596.00,100.95
595.00,100.95
594.00,100.95
593.00,100.95
592.00,100.95
591.00,100.95
590.00,100.95
589.00,100.94
588.00,100.94
587.00,100.94
586.00,100.94
585.00,100.94
584.00,100.94
583.00,100.94
582.00,100.94
581.00,100.94
580.00,100.94
579.00,100.94
578.00,100.94
577.00,100.93
576.00,100.93
575.00,100.93
574.00,100.93
573.00,100.93
572.00,100.93
571.00,100.93
570.00,100.93
569.00,100.93
568.00,100.93
567.00,100.94
566.00,100.94
565.00,100.94
564.00,100.94
563.00,100.95
562.00,100.95
561.00,100.95
560.00,100.95
559.00,100.95
558.00,100.95
557.00,100.95
556.00,100.95
555.00,100.95
554.00,100.95
553.00,100.95
552.00,100.94
551.00,100.93
550.00,100.92
549.00,100.92
548.00,100.93
547.00,100.94
546.00,100.94
545.00,100.95
544.00,100.96
543.00,100.96
542.00,100.95
541.00,100.95
540.00,100.94
539.00,100.94
538.00,100.94
537.00,100.94
536.00,100.94
535.00,100.94
534.00,100.95
533.00,100.96
532.00,100.97
531.00,100.98
530.00,100.97
529.00,100.96
528.00,100.95
527.00,100.95
526.00,100.95
525.00,100.96
524.00,100.97
523.00,100.98
522.00,100.97
521.00,100.97
520.00,100.96
519.00,100.96
518.00,100.96
517.00,100.96
516.00,100.96
515.00,100.96
514.00,100.96
513.00,100.97
512.00,100.98
511.00,100.98
510.00,100.98
509.00,100.98
508.00,100.97
507.00,100.97
506.00,100.98
505.00,100.98
504.00,100.98
503.00,100.98
502.00,100.97
501.00,100.97
500.00,100.97
