Created as New Dataset,Sample 385 By Analyst Date Monday, February 10 2025
cm-1,%T
4000.00,93.36
3999.00,93.36
3998.00,93.36
3997.00,93.36
3996.00,93.36
3995.00,93.36
3994.00,93.36
3993.00,93.36
3992.00,93.36
3991.00,93.36
3990.00,93.36
3989.00,93.36
3988.00,93.35
3987.00,93.35
3986.00,93.35
3985.00,93.35
3984.00,93.35
3983.00,93.35
3982.00,93.35
3981.00,93.35
3980.00,93.34
3979.00,93.34
3978.00,93.34
3977.00,93.34
3976.00,93.34
3975.00,93.35
3974.00,93.35
3973.00,93.35
3972.00,93.35
3971.00,93.35
3970.00,93.35
3969.00,93.35
3968.00,93.35
3967.00,93.35
3966.00,93.34
3965.00,93.35
3964.00,93.35
3963.00,93.35
3962.00,93.35
3961.00,93.35
3960.00,93.35
3959.00,93.36
3958.00,93.36
3957.00,93.36
3956.00,93.36
3955.00,93.36
3954.00,93.36
3953.00,93.36
3952.00,93.36
3951.00,93.36
3950.00,93.35
3949.00,93.35
3948.00,93.35
3947.00,93.34
3946.00,93.34
3945.00,93.35
3944.00,93.36
3943.00,93.36
3942.00,93.35
3941.00,93.35
3940.00,93.35
3939.00,93.36
3938.00,93.36
3937.00,93.35
3936.00,93.34
3935.00,93.34
3934.00,93.34
3933.00,93.34
3932.00,93.34
3931.00,93.34
3930.00,93.33
3929.00,93.33
3928.00,93.33
3927.00,93.33
3926.00,93.34
3925.00,93.33
3924.00,93.32
3923.00,93.31
3922.00,93.30
3921.00,93.30
3920.00,93.30
3919.00,93.30
3918.00,93.31
3917.00,93.31
3916.00,93.31
3915.00,93.32
3914.00,93.33
3913.00,93.34
3912.00,93.34
3911.00,93.34
3910.00,93.33
3909.00,93.31
3908.00,93.29
3907.00,93.28
3906.00,93.26
3905.00,93.25
3904.00,93.22
3903.00,93.21
3902.00,93.21
3901.00,93.24
3900.00,93.27
3899.00,93.28
3898.00,93.27
3897.00,93.27
3896.00,93.28
3895.00,93.28
3894.00,93.29
3893.00,93.30
3892.00,93.31
3891.00,93.29
3890.00,93.26
3889.00,93.24
3888.00,93.26
3887.00,93.29
3886.00,93.29
3885.00,93.26
3884.00,93.24
3883.00,93.26
3882.00,93.30
3881.00,93.32
3880.00,93.30
3879.00,93.26
3878.00,93.25
3877.00,93.27
3876.00,93.30
3875.00,93.29
3874.00,93.25
3873.00,93.21
3872.00,93.21
3871.00,93.25
3870.00,93.25
3869.00,93.21
3868.00,93.19
3867.00,93.22
3866.00,93.26
3865.00,93.27
3864.00,93.26
3863.00,93.26
3862.00,93.26
3861.00,93.27
3860.00,93.27
3859.00,93.24
3858.00,93.18
3857.00,93.11
3856.00,93.06
3855.00,93.07
3854.00,93.13
3853.00,93.15
3852.00,93.11
3851.00,93.12
3850.00,93.20
3849.00,93.26
3848.00,93.29
3847.00,93.29
3846.00,93.29
3845.00,93.30
3844.00,93.29
3843.00,93.27
3842.00,93.24
3841.00,93.22
3840.00,93.22
3839.00,93.22
3838.00,93.23
3837.00,93.22
3836.00,93.22
3835.00,93.24
3834.00,93.27
3833.00,93.29
3832.00,93.29
3831.00,93.28
3830.00,93.28
3829.00,93.30
3828.00,93.32
3827.00,93.32
3826.00,93.28
3825.00,93.24
3824.00,93.22
3823.00,93.25
3822.00,93.27
3821.00,93.25
3820.00,93.18
3819.00,93.16
3818.00,93.20
3817.00,93.25
3816.00,93.26
3815.00,93.24
3814.00,93.23
3813.00,93.26
3812.00,93.29
3811.00,93.28
3810.00,93.25
3809.00,93.25
3808.00,93.27
3807.00,93.26
3806.00,93.22
3805.00,93.19
3804.00,93.21
3803.00,93.25
3802.00,93.27
3801.00,93.24
3800.00,93.21
3799.00,93.23
3798.00,93.28
3797.00,93.32
3796.00,93.31
3795.00,93.30
3794.00,93.31
3793.00,93.33
3792.00,93.35
3791.00,93.36
3790.00,93.35
3789.00,93.35
3788.00,93.35
3787.00,93.35
3786.00,93.36
3785.00,93.35
3784.00,93.34
3783.00,93.33
3782.00,93.33
3781.00,93.34
3780.00,93.35
3779.00,93.35
3778.00,93.33
3777.00,93.33
3776.00,93.34
3775.00,93.34
3774.00,93.32
3773.00,93.31
3772.00,93.31
3771.00,93.32
3770.00,93.31
3769.00,93.29
3768.00,93.29
3767.00,93.30
3766.00,93.32
3765.00,93.31
3764.00,93.29
3763.00,93.28
3762.00,93.29
3761.00,93.31
3760.00,93.30
3759.00,93.29
3758.00,93.28
3757.00,93.25
3756.00,93.22
3755.00,93.19
3754.00,93.15
3753.00,93.12
3752.00,93.12
3751.00,93.14
3750.00,93.14
3749.00,93.10
3748.00,93.07
3747.00,93.09
3746.00,93.14
3745.00,93.18
3744.00,93.17
3743.00,93.13
3742.00,93.15
3741.00,93.21
3740.00,93.24
3739.00,93.21
3738.00,93.19
3737.00,93.19
3736.00,93.20
3735.00,93.21
3734.00,93.23
3733.00,93.25
3732.00,93.26
3731.00,93.25
3730.00,93.25
3729.00,93.27
3728.00,93.30
3727.00,93.30
3726.00,93.29
3725.00,93.28
3724.00,93.29
3723.00,93.30
3722.00,93.30
3721.00,93.29
3720.00,93.29
3719.00,93.30
3718.00,93.31
3717.00,93.30
3716.00,93.28
3715.00,93.26
3714.00,93.24
3713.00,93.24
3712.00,93.25
3711.00,93.26
3710.00,93.26
3709.00,93.27
3708.00,93.28
3707.00,93.29
3706.00,93.29
3705.00,93.29
3704.00,93.30
3703.00,93.32
3702.00,93.32
3701.00,93.32
3700.00,93.31
3699.00,93.31
3698.00,93.33
3697.00,93.33
3696.00,93.32
3695.00,93.30
3694.00,93.28
3693.00,93.26
3692.00,93.24
3691.00,93.22
3690.00,93.23
3689.00,93.25
3688.00,93.24
3687.00,93.24
3686.00,93.27
3685.00,93.31
3684.00,93.33
3683.00,93.32
3682.00,93.31
3681.00,93.30
3680.00,93.26
3679.00,93.22
3678.00,93.19
3677.00,93.21
3676.00,93.23
3675.00,93.20
3674.00,93.15
3673.00,93.15
3672.00,93.20
3671.00,93.24
3670.00,93.25
3669.00,93.23
3668.00,93.23
3667.00,93.27
3666.00,93.31
3665.00,93.32
3664.00,93.33
3663.00,93.33
3662.00,93.33
3661.00,93.32
3660.00,93.30
3659.00,93.28
3658.00,93.29
3657.00,93.30
3656.00,93.28
3655.00,93.24
3654.00,93.21
3653.00,93.20
3652.00,93.18
3651.00,93.17
3650.00,93.17
3649.00,93.18
3648.00,93.19
3647.00,93.20
3646.00,93.22
3645.00,93.24
3644.00,93.28
3643.00,93.30
3642.00,93.32
3641.00,93.32
3640.00,93.33
3639.00,93.34
3638.00,93.34
3637.00,93.34
3636.00,93.34
3635.00,93.33
3634.00,93.30
3633.00,93.26
3632.00,93.21
3631.00,93.21
3630.00,93.23
3629.00,93.25
3628.00,93.23
3627.00,93.22
3626.00,93.26
3625.00,93.29
3624.00,93.30
3623.00,93.28
3622.00,93.27
3621.00,93.27
3620.00,93.27
3619.00,93.27
3618.00,93.25
3617.00,93.24
3616.00,93.25
3615.00,93.27
3614.00,93.27
3613.00,93.25
3612.00,93.23
3611.00,93.23
3610.00,93.25
3609.00,93.27
3608.00,93.28
3607.00,93.28
3606.00,93.29
3605.00,93.30
3604.00,93.31
3603.00,93.31
3602.00,93.31
3601.00,93.31
3600.00,93.31
3599.00,93.30
3598.00,93.30
3597.00,93.30
3596.00,93.30
3595.00,93.30
3594.00,93.30
3593.00,93.28
3592.00,93.27
3591.00,93.26
3590.00,93.26
3589.00,93.27
3588.00,93.28
3587.00,93.28
3586.00,93.28
3585.00,93.29
3584.00,93.31
3583.00,93.32
3582.00,93.33
3581.00,93.34
3580.00,93.34
3579.00,93.35
3578.00,93.35
3577.00,93.35
3576.00,93.35
3575.00,93.36
3574.00,93.35
3573.00,93.34
3572.00,93.32
3571.00,93.30
3570.00,93.29
3569.00,93.28
3568.00,93.29
3567.00,93.29
3566.00,93.28
3565.00,93.28
3564.00,93.30
3563.00,93.31
3562.00,93.31
3561.00,93.32
3560.00,93.32
3559.00,93.33
3558.00,93.33
3557.00,93.33
3556.00,93.33
3555.00,93.32
3554.00,93.32
3553.00,93.32
3552.00,93.32
3551.00,93.31
3550.00,93.30
3549.00,93.30
3548.00,93.30
3547.00,93.29
3546.00,93.29
3545.00,93.29
3544.00,93.30
3543.00,93.31
3542.00,93.31
3541.00,93.32
3540.00,93.32
3539.00,93.32
3538.00,93.32
3537.00,93.32
3536.00,93.32
3535.00,93.32
3534.00,93.32
3533.00,93.33
3532.00,93.33
3531.00,93.33
3530.00,93.33
3529.00,93.32
3528.00,93.32
3527.00,93.32
3526.00,93.32
3525.00,93.32
3524.00,93.33
3523.00,93.33
3522.00,93.33
3521.00,93.34
3520.00,93.34
3519.00,93.34
3518.00,93.34
3517.00,93.34
3516.00,93.34
3515.00,93.34
3514.00,93.34
3513.00,93.34
3512.00,93.34
3511.00,93.33
3510.00,93.33
3509.00,93.33
3508.00,93.32
3507.00,93.32
3506.00,93.32
3505.00,93.32
3504.00,93.32
3503.00,93.32
3502.00,93.31
3501.00,93.31
3500.00,93.32
3499.00,93.32
3498.00,93.32
3497.00,93.32
3496.00,93.32
3495.00,93.32
3494.00,93.33
3493.00,93.33
3492.00,93.33
3491.00,93.33
3490.00,93.33
3489.00,93.33
3488.00,93.33
3487.00,93.33
3486.00,93.33
3485.00,93.33
3484.00,93.33
3483.00,93.34
3482.00,93.34
3481.00,93.34
3480.00,93.34
3479.00,93.34
3478.00,93.34
3477.00,93.35
3476.00,93.35
3475.00,93.35
3474.00,93.35
3473.00,93.35
3472.00,93.35
3471.00,93.35
3470.00,93.35
3469.00,93.35
3468.00,93.35
3467.00,93.35
3466.00,93.35
3465.00,93.35
3464.00,93.35
3463.00,93.35
3462.00,93.35
3461.00,93.34
3460.00,93.34
3459.00,93.34
3458.00,93.34
3457.00,93.34
3456.00,93.34
3455.00,93.34
3454.00,93.34
3453.00,93.33
3452.00,93.33
3451.00,93.32
3450.00,93.32
3449.00,93.32
3448.00,93.32
3447.00,93.31
3446.00,93.31
3445.00,93.31
3444.00,93.31
3443.00,93.31
3442.00,93.31
3441.00,93.31
3440.00,93.31
3439.00,93.32
3438.00,93.32
3437.00,93.32
3436.00,93.32
3435.00,93.32
3434.00,93.33
3433.00,93.33
3432.00,93.33
3431.00,93.33
3430.00,93.33
3429.00,93.34
3428.00,93.34
3427.00,93.34
3426.00,93.34
3425.00,93.34
3424.00,93.34
3423.00,93.34
3422.00,93.34
3421.00,93.35
3420.00,93.35
3419.00,93.35
3418.00,93.35
3417.00,93.35
3416.00,93.35
3415.00,93.35
3414.00,93.35
3413.00,93.36
3412.00,93.36
3411.00,93.36
3410.00,93.36
3409.00,93.36
3408.00,93.35
3407.00,93.35
3406.00,93.35
3405.00,93.35
3404.00,93.35
3403.00,93.35
3402.00,93.34
3401.00,93.34
3400.00,93.34
3399.00,93.34
3398.00,93.34
3397.00,93.34
3396.00,93.34
3395.00,93.34
3394.00,93.34
3393.00,93.34
3392.00,93.34
3391.00,93.34
3390.00,93.34
3389.00,93.34
3388.00,93.34
3387.00,93.34
3386.00,93.34
3385.00,93.34
3384.00,93.34
3383.00,93.34
3382.00,93.35
3381.00,93.35
3380.00,93.35
3379.00,93.35
3378.00,93.35
3377.00,93.36
3376.00,93.36
3375.00,93.36
3374.00,93.36
3373.00,93.36
3372.00,93.36
3371.00,93.36
3370.00,93.36
3369.00,93.36
3368.00,93.36
3367.00,93.36
3366.00,93.36
3365.00,93.36
3364.00,93.36
3363.00,93.36
3362.00,93.36
3361.00,93.36
3360.00,93.36
3359.00,93.36
3358.00,93.36
3357.00,93.36
3356.00,93.35
3355.00,93.35
3354.00,93.35
3353.00,93.35
3352.00,93.35
3351.00,93.34
3350.00,93.34
3349.00,93.34
3348.00,93.34
3347.00,93.34
3346.00,93.34
3345.00,93.34
3344.00,93.34
3343.00,93.33
3342.00,93.33
3341.00,93.33
3340.00,93.33
3339.00,93.33
3338.00,93.33
3337.00,93.33
3336.00,93.33
3335.00,93.33
3334.00,93.33
3333.00,93.33
3332.00,93.33
3331.00,93.33
3330.00,93.33
3329.00,93.34
3328.00,93.34
3327.00,93.34
3326.00,93.34
3325.00,93.34
3324.00,93.35
3323.00,93.35
3322.00,93.35
3321.00,93.35
3320.00,93.35
3319.00,93.36
3318.00,93.36
3317.00,93.36
3316.00,93.36
3315.00,93.36
3314.00,93.36
3313.00,93.36
3312.00,93.36
3311.00,93.36
3310.00,93.36
3309.00,93.36
3308.00,93.36
3307.00,93.36
3306.00,93.36
3305.00,93.36
3304.00,93.36
3303.00,93.36
3302.00,93.36
3301.00,93.36
3300.00,93.36
3299.00,93.35
3298.00,93.35
3297.00,93.35
3296.00,93.35
3295.00,93.35
3294.00,93.35
3293.00,93.34
3292.00,93.34
3291.00,93.34
3290.00,93.34
3289.00,93.34
3288.00,93.34
3287.00,93.34
3286.00,93.34
3285.00,93.34
3284.00,93.34
3283.00,93.34
3282.00,93.34
3281.00,93.34
3280.00,93.34
3279.00,93.34
3278.00,93.34
3277.00,93.34
3276.00,93.34
3275.00,93.34
3274.00,93.34
3273.00,93.34
3272.00,93.34
3271.00,93.35
3270.00,93.35
3269.00,93.35
3268.00,93.35
3267.00,93.35
3266.00,93.35
3265.00,93.35
3264.00,93.35
3263.00,93.35
3262.00,93.36
3261.00,93.36
3260.00,93.36
3259.00,93.36
3258.00,93.36
3257.00,93.36
3256.00,93.36
3255.00,93.36
3254.00,93.36
3253.00,93.36
3252.00,93.36
3251.00,93.36
3250.00,93.36
3249.00,93.35
3248.00,93.35
3247.00,93.35
3246.00,93.35
3245.00,93.35
3244.00,93.35
3243.00,93.35
3242.00,93.34
3241.00,93.34
3240.00,93.34
3239.00,93.34
3238.00,93.34
3237.00,93.34
3236.00,93.33
3235.00,93.33
3234.00,93.33
3233.00,93.33
3232.00,93.33
3231.00,93.33
3230.00,93.33
3229.00,93.33
3228.00,93.33
3227.00,93.34
3226.00,93.34
3225.00,93.34
3224.00,93.34
3223.00,93.34
3222.00,93.34
3221.00,93.34
3220.00,93.34
3219.00,93.35
3218.00,93.35
3217.00,93.35
3216.00,93.35
3215.00,93.35
3214.00,93.35
3213.00,93.36
3212.00,93.36
3211.00,93.36
3210.00,93.36
3209.00,93.36
3208.00,93.36
3207.00,93.36
3206.00,93.36
3205.00,93.36
3204.00,93.36
3203.00,93.36
3202.00,93.36
3201.00,93.36
3200.00,93.36
3199.00,93.36
3198.00,93.36
3197.00,93.36
3196.00,93.36
3195.00,93.36
3194.00,93.36
3193.00,93.36
3192.00,93.35
3191.00,93.35
3190.00,93.35
3189.00,93.35
3188.00,93.35
3187.00,93.34
3186.00,93.34
3185.00,93.34
3184.00,93.34
3183.00,93.33
3182.00,93.33
3181.00,93.33
3180.00,93.33
3179.00,93.33
3178.00,93.33
3177.00,93.33
3176.00,93.33
3175.00,93.33
3174.00,93.33
3173.00,93.33
3172.00,93.33
3171.00,93.33
3170.00,93.33
3169.00,93.33
3168.00,93.33
3167.00,93.33
3166.00,93.34
3165.00,93.34
3164.00,93.34
3163.00,93.34
3162.00,93.34
3161.00,93.34
3160.00,93.35
3159.00,93.35
3158.00,93.35
3157.00,93.35
3156.00,93.35
3155.00,93.35
3154.00,93.35
3153.00,93.35
3152.00,93.35
3151.00,93.35
3150.00,93.36
3149.00,93.35
3148.00,93.35
3147.00,93.35
3146.00,93.35
3145.00,93.35
3144.00,93.35
3143.00,93.35
3142.00,93.35
3141.00,93.35
3140.00,93.35
3139.00,93.35
3138.00,93.34
3137.00,93.34
3136.00,93.34
3135.00,93.34
3134.00,93.34
3133.00,93.33
3132.00,93.33
3131.00,93.33
3130.00,93.33
3129.00,93.33
3128.00,93.33
3127.00,93.33
3126.00,93.33
3125.00,93.33
3124.00,93.33
3123.00,93.33
3122.00,93.33
3121.00,93.33
3120.00,93.33
3119.00,93.33
3118.00,93.33
3117.00,93.33
3116.00,93.33
3115.00,93.33
3114.00,93.33
3113.00,93.34
3112.00,93.34
3111.00,93.34
3110.00,93.34
3109.00,93.34
3108.00,93.35
3107.00,93.35
3106.00,93.35
3105.00,93.35
3104.00,93.35
3103.00,93.35
3102.00,93.35
3101.00,93.35
3100.00,93.35
3099.00,93.35
3098.00,93.35
3097.00,93.35
3096.00,93.35
3095.00,93.35
3094.00,93.35
3093.00,93.35
3092.00,93.35
3091.00,93.35
3090.00,93.35
3089.00,93.34
3088.00,93.34
3087.00,93.34
3086.00,93.34
3085.00,93.33
3084.00,93.33
3083.00,93.33
3082.00,93.32
3081.00,93.32
3080.00,93.32
3079.00,93.31
3078.00,93.31
3077.00,93.31
3076.00,93.31
3075.00,93.31
3074.00,93.31
3073.00,93.31
3072.00,93.31
3071.00,93.31
3070.00,93.31
3069.00,93.31
3068.00,93.31
3067.00,93.31
3066.00,93.32
3065.00,93.32
3064.00,93.32
3063.00,93.32
3062.00,93.32
3061.00,93.32
3060.00,93.33
3059.00,93.33
3058.00,93.33
3057.00,93.33
3056.00,93.34
3055.00,93.34
3054.00,93.34
3053.00,93.34
3052.00,93.34
3051.00,93.34
3050.00,93.34
3049.00,93.35
3048.00,93.35
3047.00,93.35
3046.00,93.35
3045.00,93.35
3044.00,93.35
3043.00,93.35
3042.00,93.35
3041.00,93.35
3040.00,93.35
3039.00,93.35
3038.00,93.34
3037.00,93.34
3036.00,93.34
3035.00,93.34
3034.00,93.33
3033.00,93.33
3032.00,93.33
3031.00,93.33
3030.00,93.33
3029.00,93.33
3028.00,93.33
3027.00,93.33
3026.00,93.33
3025.00,93.32
3024.00,93.32
3023.00,93.32
3022.00,93.32
3021.00,93.32
3020.00,93.32
3019.00,93.32
3018.00,93.32
3017.00,93.32
3016.00,93.32
3015.00,93.32
3014.00,93.32
3013.00,93.33
3012.00,93.33
3011.00,93.33
3010.00,93.33
3009.00,93.33
3008.00,93.33
3007.00,93.33
3006.00,93.33
3005.00,93.33
3004.00,93.33
3003.00,93.33
3002.00,93.34
3001.00,93.34
3000.00,93.34
2999.00,93.34
2998.00,93.34
2997.00,93.34
2996.00,93.34
2995.00,93.34
2994.00,93.34
2993.00,93.34
2992.00,93.34
2991.00,93.33
2990.00,93.33
2989.00,93.33
2988.00,93.33
2987.00,93.33
2986.00,93.33
2985.00,93.33
2984.00,93.33
2983.00,93.32
2982.00,93.32
2981.00,93.32
2980.00,93.32
2979.00,93.32
2978.00,93.31
2977.00,93.31
2976.00,93.31
2975.00,93.30
2974.00,93.30
2973.00,93.30
2972.00,93.30
2971.00,93.30
2970.00,93.29
2969.00,93.29
2968.00,93.29
2967.00,93.30
2966.00,93.30
2965.00,93.30
2964.00,93.31
2963.00,93.31
2962.00,93.31
2961.00,93.32
2960.00,93.32
2959.00,93.32
2958.00,93.32
2957.00,93.33
2956.00,93.33
2955.00,93.33
2954.00,93.33
2953.00,93.33
2952.00,93.34
2951.00,93.34
2950.00,93.34
2949.00,93.34
2948.00,93.34
2947.00,93.34
2946.00,93.34
2945.00,93.34
2944.00,93.34
2943.00,93.34
2942.00,93.34
2941.00,93.34
2940.00,93.34
2939.00,93.34
2938.00,93.34
2937.00,93.34
2936.00,93.35
2935.00,93.35
2934.00,93.35
2933.00,93.35
2932.00,93.34
2931.00,93.34
2930.00,93.34
2929.00,93.35
2928.00,93.35
2927.00,93.35
2926.00,93.35
2925.00,93.36
2924.00,93.36
2923.00,93.36
2922.00,93.36
2921.00,93.37
2920.00,93.37
2919.00,93.37
2918.00,93.37
2917.00,93.36
2916.00,93.36
2915.00,93.36
2914.00,93.35
2913.00,93.35
2912.00,93.34
2911.00,93.34
2910.00,93.34
2909.00,93.33
2908.00,93.33
2907.00,93.33
2906.00,93.33
2905.00,93.33
2904.00,93.33
2903.00,93.33
2902.00,93.33
2901.00,93.33
2900.00,93.33
2899.00,93.33
2898.00,93.33
2897.00,93.33
2896.00,93.33
2895.00,93.33
2894.00,93.33
2893.00,93.34
2892.00,93.34
2891.00,93.34
2890.00,93.34
2889.00,93.34
2888.00,93.34
2887.00,93.34
2886.00,93.34
2885.00,93.34
2884.00,93.33
2883.00,93.33
2882.00,93.33
2881.00,93.33
2880.00,93.33
2879.00,93.33
2878.00,93.32
2877.00,93.32
2876.00,93.32
2875.00,93.32
2874.00,93.31
2873.00,93.31
2872.00,93.31
2871.00,93.31
2870.00,93.31
2869.00,93.31
2868.00,93.31
2867.00,93.30
2866.00,93.30
2865.00,93.30
2864.00,93.30
2863.00,93.30
2862.00,93.30
2861.00,93.30
2860.00,93.30
2859.00,93.31
2858.00,93.31
2857.00,93.31
2856.00,93.32
2855.00,93.32
2854.00,93.32
2853.00,93.33
2852.00,93.33
2851.00,93.34
2850.00,93.34
2849.00,93.35
2848.00,93.35
2847.00,93.35
2846.00,93.35
2845.00,93.35
2844.00,93.35
2843.00,93.35
2842.00,93.35
2841.00,93.35
2840.00,93.35
2839.00,93.35
2838.00,93.35
2837.00,93.35
2836.00,93.35
2835.00,93.35
2834.00,93.35
2833.00,93.35
2832.00,93.34
2831.00,93.34
2830.00,93.34
2829.00,93.34
2828.00,93.34
2827.00,93.34
2826.00,93.34
2825.00,93.33
2824.00,93.33
2823.00,93.33
2822.00,93.33
2821.00,93.32
2820.00,93.32
2819.00,93.32
2818.00,93.31
2817.00,93.31
2816.00,93.31
2815.00,93.30
2814.00,93.30
2813.00,93.30
2812.00,93.30
2811.00,93.30
2810.00,93.29
2809.00,93.29
2808.00,93.29
2807.00,93.29
2806.00,93.29
2805.00,93.29
2804.00,93.29
2803.00,93.29
2802.00,93.29
2801.00,93.29
2800.00,93.29
2799.00,93.29
2798.00,93.30
2797.00,93.30
2796.00,93.30
2795.00,93.30
2794.00,93.30
2793.00,93.30
2792.00,93.31
2791.00,93.31
2790.00,93.31
2789.00,93.32
2788.00,93.32
2787.00,93.32
2786.00,93.32
2785.00,93.32
2784.00,93.33
2783.00,93.33
2782.00,93.33
2781.00,93.33
2780.00,93.33
2779.00,93.33
2778.00,93.33
2777.00,93.33
2776.00,93.33
2775.00,93.33
2774.00,93.33
2773.00,93.32
2772.00,93.32
2771.00,93.32
2770.00,93.32
2769.00,93.32
2768.00,93.32
2767.00,93.31
2766.00,93.31
2765.00,93.31
2764.00,93.31
2763.00,93.31
2762.00,93.31
2761.00,93.31
2760.00,93.30
2759.00,93.30
2758.00,93.30
2757.00,93.30
2756.00,93.30
2755.00,93.30
2754.00,93.29
2753.00,93.29
2752.00,93.29
2751.00,93.29
2750.00,93.29
2749.00,93.29
2748.00,93.30
2747.00,93.30
2746.00,93.30
2745.00,93.30
2744.00,93.30
2743.00,93.31
2742.00,93.31
2741.00,93.31
2740.00,93.31
2739.00,93.31
2738.00,93.31
2737.00,93.32
2736.00,93.32
2735.00,93.32
2734.00,93.32
2733.00,93.32
2732.00,93.32
2731.00,93.32
2730.00,93.32
2729.00,93.32
2728.00,93.32
2727.00,93.32
2726.00,93.32
2725.00,93.32
2724.00,93.32
2723.00,93.32
2722.00,93.32
2721.00,93.32
2720.00,93.31
2719.00,93.31
2718.00,93.31
2717.00,93.31
2716.00,93.31
2715.00,93.30
2714.00,93.30
2713.00,93.30
2712.00,93.30
2711.00,93.30
2710.00,93.30
2709.00,93.29
2708.00,93.29
2707.00,93.29
2706.00,93.29
2705.00,93.29
2704.00,93.29
2703.00,93.29
2702.00,93.29
2701.00,93.29
2700.00,93.29
2699.00,93.29
2698.00,93.29
2697.00,93.29
2696.00,93.29
2695.00,93.29
2694.00,93.29
2693.00,93.29
2692.00,93.29
2691.00,93.30
2690.00,93.30
2689.00,93.30
2688.00,93.30
2687.00,93.30
2686.00,93.30
2685.00,93.30
2684.00,93.31
2683.00,93.31
2682.00,93.31
2681.00,93.31
2680.00,93.32
2679.00,93.32
2678.00,93.32
2677.00,93.32
2676.00,93.32
2675.00,93.32
2674.00,93.32
2673.00,93.33
2672.00,93.33
2671.00,93.33
2670.00,93.32
2669.00,93.32
2668.00,93.32
2667.00,93.32
2666.00,93.32
2665.00,93.32
2664.00,93.32
2663.00,93.32
2662.00,93.31
2661.00,93.31
2660.00,93.31
2659.00,93.31
2658.00,93.31
2657.00,93.30
2656.00,93.30
2655.00,93.30
2654.00,93.30
2653.00,93.30
2652.00,93.29
2651.00,93.29
2650.00,93.29
2649.00,93.29
2648.00,93.29
2647.00,93.29
2646.00,93.29
2645.00,93.29
2644.00,93.29
2643.00,93.29
2642.00,93.29
2641.00,93.29
2640.00,93.29
2639.00,93.29
2638.00,93.29
2637.00,93.29
2636.00,93.29
2635.00,93.30
2634.00,93.30
2633.00,93.30
2632.00,93.30
2631.00,93.30
2630.00,93.30
2629.00,93.30
2628.00,93.31
2627.00,93.31
2626.00,93.31
2625.00,93.31
2624.00,93.31
2623.00,93.31
2622.00,93.31
2621.00,93.31
2620.00,93.31
2619.00,93.32
2618.00,93.31
2617.00,93.31
2616.00,93.31
2615.00,93.31
2614.00,93.31
2613.00,93.31
2612.00,93.31
2611.00,93.31
2610.00,93.31
2609.00,93.31
2608.00,93.30
2607.00,93.30
2606.00,93.30
2605.00,93.30
2604.00,93.29
2603.00,93.29
2602.00,93.29
2601.00,93.29
2600.00,93.29
2599.00,93.29
2598.00,93.28
2597.00,93.28
2596.00,93.28
2595.00,93.28
2594.00,93.28
2593.00,93.28
2592.00,93.28
2591.00,93.28
2590.00,93.28
2589.00,93.28
2588.00,93.29
2587.00,93.29
2586.00,93.29
2585.00,93.29
2584.00,93.29
2583.00,93.30
2582.00,93.30
2581.00,93.30
2580.00,93.30
2579.00,93.30
2578.00,93.31
2577.00,93.31
2576.00,93.31
2575.00,93.31
2574.00,93.31
2573.00,93.31
2572.00,93.32
2571.00,93.32
2570.00,93.32
2569.00,93.32
2568.00,93.32
2567.00,93.32
2566.00,93.32
2565.00,93.32
2564.00,93.32
2563.00,93.32
2562.00,93.32
2561.00,93.32
2560.00,93.32
2559.00,93.32
2558.00,93.31
2557.00,93.31
2556.00,93.31
2555.00,93.31
2554.00,93.30
2553.00,93.30
2552.00,93.30
2551.00,93.30
2550.00,93.29
2549.00,93.29
2548.00,93.29
2547.00,93.29
2546.00,93.28
2545.00,93.28
2544.00,93.28
2543.00,93.28
2542.00,93.28
2541.00,93.28
2540.00,93.27
2539.00,93.27
2538.00,93.27
2537.00,93.28
2536.00,93.28
2535.00,93.28
2534.00,93.28
2533.00,93.28
2532.00,93.28
2531.00,93.28
2530.00,93.29
2529.00,93.29
2528.00,93.29
2527.00,93.29
2526.00,93.30
2525.00,93.30
2524.00,93.30
2523.00,93.30
2522.00,93.30
2521.00,93.31
2520.00,93.31
2519.00,93.31
2518.00,93.31
2517.00,93.31
2516.00,93.31
2515.00,93.32
2514.00,93.32
2513.00,93.32
2512.00,93.32
2511.00,93.32
2510.00,93.32
2509.00,93.32
2508.00,93.31
2507.00,93.31
2506.00,93.31
2505.00,93.31
2504.00,93.31
2503.00,93.31
2502.00,93.30
2501.00,93.30
2500.00,93.30
2499.00,93.30
2498.00,93.30
2497.00,93.29
2496.00,93.29
2495.00,93.29
2494.00,93.29
2493.00,93.29
2492.00,93.29
2491.00,93.29
2490.00,93.29
2489.00,93.29
2488.00,93.29
2487.00,93.29
2486.00,93.29
2485.00,93.29
2484.00,93.29
2483.00,93.29
2482.00,93.29
2481.00,93.29
2480.00,93.29
2479.00,93.29
2478.00,93.30
2477.00,93.30
2476.00,93.30
2475.00,93.30
2474.00,93.30
2473.00,93.31
2472.00,93.31
2471.00,93.31
2470.00,93.31
2469.00,93.32
2468.00,93.32
2467.00,93.32
2466.00,93.32
2465.00,93.32
2464.00,93.32
2463.00,93.32
2462.00,93.32
2461.00,93.32
2460.00,93.32
2459.00,93.32
2458.00,93.32
2457.00,93.32
2456.00,93.32
2455.00,93.31
2454.00,93.31
2453.00,93.31
2452.00,93.31
2451.00,93.31
2450.00,93.30
2449.00,93.30
2448.00,93.30
2447.00,93.29
2446.00,93.29
2445.00,93.29
2444.00,93.29
2443.00,93.29
2442.00,93.29
2441.00,93.28
2440.00,93.28
2439.00,93.28
2438.00,93.28
2437.00,93.28
2436.00,93.28
2435.00,93.28
2434.00,93.28
2433.00,93.28
2432.00,93.28
2431.00,93.28
2430.00,93.28
2429.00,93.28
2428.00,93.28
2427.00,93.28
2426.00,93.28
2425.00,93.29
2424.00,93.29
2423.00,93.29
2422.00,93.29
2421.00,93.30
2420.00,93.30
2419.00,93.30
2418.00,93.30
2417.00,93.31
2416.00,93.31
2415.00,93.31
2414.00,93.31
2413.00,93.31
2412.00,93.31
2411.00,93.32
2410.00,93.32
2409.00,93.32
2408.00,93.32
2407.00,93.32
2406.00,93.32
2405.00,93.32
2404.00,93.32
2403.00,93.32
2402.00,93.32
2401.00,93.32
2400.00,93.31
2399.00,93.31
2398.00,93.31
2397.00,93.31
2396.00,93.31
2395.00,93.30
2394.00,93.30
2393.00,93.30
2392.00,93.29
2391.00,93.28
2390.00,93.28
2389.00,93.27
2388.00,93.26
2387.00,93.25
2386.00,93.24
2385.00,93.23
2384.00,93.22
2383.00,93.22
2382.00,93.22
2381.00,93.23
2380.00,93.24
2379.00,93.25
2378.00,93.27
2377.00,93.28
2376.00,93.29
2375.00,93.30
2374.00,93.31
2373.00,93.31
2372.00,93.31
2371.00,93.32
2370.00,93.32
2369.00,93.32
2368.00,93.32
2367.00,93.33
2366.00,93.34
2365.00,93.36
2364.00,93.37
2363.00,93.39
2362.00,93.41
2361.00,93.44
2360.00,93.48
2359.00,93.52
2358.00,93.55
2357.00,93.57
2356.00,93.55
2355.00,93.47
2354.00,93.37
2353.00,93.32
2352.00,93.38
2351.00,93.53
2350.00,93.67
2349.00,93.71
2348.00,93.62
2347.00,93.46
2346.00,93.35
2345.00,93.32
2344.00,93.33
2343.00,93.35
2342.00,93.35
2341.00,93.34
2340.00,93.34
2339.00,93.33
2338.00,93.32
2337.00,93.32
2336.00,93.32
2335.00,93.33
2334.00,93.31
2333.00,93.29
2332.00,93.26
2331.00,93.25
2330.00,93.25
2329.00,93.27
2328.00,93.29
2327.00,93.30
2326.00,93.29
2325.00,93.27
2324.00,93.25
2323.00,93.24
2322.00,93.23
2321.00,93.23
2320.00,93.23
2319.00,93.24
2318.00,93.24
2317.00,93.24
2316.00,93.23
2315.00,93.21
2314.00,93.20
2313.00,93.19
2312.00,93.19
2311.00,93.19
2310.00,93.20
2309.00,93.20
2308.00,93.21
2307.00,93.22
2306.00,93.22
2305.00,93.23
2304.00,93.24
2303.00,93.25
2302.00,93.25
2301.00,93.26
2300.00,93.27
2299.00,93.27
2298.00,93.28
2297.00,93.28
2296.00,93.28
2295.00,93.29
2294.00,93.29
2293.00,93.29
2292.00,93.29
2291.00,93.29
2290.00,93.29
2289.00,93.29
2288.00,93.29
2287.00,93.28
2286.00,93.29
2285.00,93.29
2284.00,93.29
2283.00,93.29
2282.00,93.29
2281.00,93.28
2280.00,93.28
2279.00,93.28
2278.00,93.28
2277.00,93.28
2276.00,93.28
2275.00,93.28
2274.00,93.28
2273.00,93.28
2272.00,93.28
2271.00,93.28
2270.00,93.28
2269.00,93.28
2268.00,93.28
2267.00,93.28
2266.00,93.28
2265.00,93.28
2264.00,93.29
2263.00,93.29
2262.00,93.29
2261.00,93.29
2260.00,93.29
2259.00,93.30
2258.00,93.30
2257.00,93.30
2256.00,93.30
2255.00,93.31
2254.00,93.31
2253.00,93.31
2252.00,93.31
2251.00,93.31
2250.00,93.31
2249.00,93.31
2248.00,93.31
2247.00,93.31
2246.00,93.31
2245.00,93.31
2244.00,93.31
2243.00,93.31
2242.00,93.31
2241.00,93.31
2240.00,93.31
2239.00,93.31
2238.00,93.31
2237.00,93.31
2236.00,93.30
2235.00,93.30
2234.00,93.30
2233.00,93.30
2232.00,93.30
2231.00,93.29
2230.00,93.29
2229.00,93.29
2228.00,93.29
2227.00,93.29
2226.00,93.29
2225.00,93.29
2224.00,93.29
2223.00,93.28
2222.00,93.28
2221.00,93.28
2220.00,93.28
2219.00,93.29
2218.00,93.29
2217.00,93.29
2216.00,93.29
2215.00,93.29
2214.00,93.29
2213.00,93.29
2212.00,93.30
2211.00,93.30
2210.00,93.30
2209.00,93.30
2208.00,93.30
2207.00,93.30
2206.00,93.31
2205.00,93.31
2204.00,93.31
2203.00,93.31
2202.00,93.31
2201.00,93.32
2200.00,93.32
2199.00,93.32
2198.00,93.32
2197.00,93.32
2196.00,93.32
2195.00,93.32
2194.00,93.32
2193.00,93.32
2192.00,93.32
2191.00,93.32
2190.00,93.32
2189.00,93.32
2188.00,93.31
2187.00,93.31
2186.00,93.31
2185.00,93.31
2184.00,93.30
2183.00,93.30
2182.00,93.30
2181.00,93.30
2180.00,93.29
2179.00,93.29
2178.00,93.29
2177.00,93.29
2176.00,93.28
2175.00,93.28
2174.00,93.28
2173.00,93.28
2172.00,93.28
2171.00,93.28
2170.00,93.28
2169.00,93.28
2168.00,93.28
2167.00,93.28
2166.00,93.28
2165.00,93.28
2164.00,93.28
2163.00,93.28
2162.00,93.29
2161.00,93.29
2160.00,93.29
2159.00,93.29
2158.00,93.29
2157.00,93.30
2156.00,93.30
2155.00,93.30
2154.00,93.30
2153.00,93.31
2152.00,93.31
2151.00,93.31
2150.00,93.31
2149.00,93.31
2148.00,93.32
2147.00,93.32
2146.00,93.32
2145.00,93.32
2144.00,93.32
2143.00,93.32
2142.00,93.32
2141.00,93.32
2140.00,93.33
2139.00,93.32
2138.00,93.32
2137.00,93.32
2136.00,93.32
2135.00,93.32
2134.00,93.32
2133.00,93.32
2132.00,93.32
2131.00,93.31
2130.00,93.31
2129.00,93.31
2128.00,93.31
2127.00,93.31
2126.00,93.30
2125.00,93.30
2124.00,93.30
2123.00,93.30
2122.00,93.30
2121.00,93.29
2120.00,93.29
2119.00,93.29
2118.00,93.29
2117.00,93.29
2116.00,93.29
2115.00,93.28
2114.00,93.28
2113.00,93.28
2112.00,93.28
2111.00,93.28
2110.00,93.28
2109.00,93.29
2108.00,93.29
2107.00,93.29
2106.00,93.29
2105.00,93.29
2104.00,93.29
2103.00,93.29
2102.00,93.29
2101.00,93.29
2100.00,93.30
2099.00,93.30
2098.00,93.30
2097.00,93.30
2096.00,93.30
2095.00,93.30
2094.00,93.30
2093.00,93.31
2092.00,93.31
2091.00,93.31
2090.00,93.31
2089.00,93.31
2088.00,93.31
2087.00,93.31
2086.00,93.31
2085.00,93.31
2084.00,93.31
2083.00,93.31
2082.00,93.31
2081.00,93.31
2080.00,93.30
2079.00,93.30
2078.00,93.30
2077.00,93.30
2076.00,93.29
2075.00,93.29
2074.00,93.29
2073.00,93.29
2072.00,93.28
2071.00,93.28
2070.00,93.28
2069.00,93.28
2068.00,93.28
2067.00,93.28
2066.00,93.28
2065.00,93.28
2064.00,93.28
2063.00,93.28
2062.00,93.28
2061.00,93.28
2060.00,93.28
2059.00,93.28
2058.00,93.28
2057.00,93.28
2056.00,93.28
2055.00,93.29
2054.00,93.29
2053.00,93.29
2052.00,93.29
2051.00,93.29
2050.00,93.29
2049.00,93.30
2048.00,93.30
2047.00,93.30
2046.00,93.30
2045.00,93.31
2044.00,93.31
2043.00,93.31
2042.00,93.31
2041.00,93.31
2040.00,93.31
2039.00,93.31
2038.00,93.31
2037.00,93.31
2036.00,93.32
2035.00,93.32
2034.00,93.32
2033.00,93.32
2032.00,93.32
2031.00,93.31
2030.00,93.31
2029.00,93.31
2028.00,93.31
2027.00,93.31
2026.00,93.31
2025.00,93.31
2024.00,93.30
2023.00,93.30
2022.00,93.30
2021.00,93.30
2020.00,93.30
2019.00,93.29
2018.00,93.29
2017.00,93.29
2016.00,93.28
2015.00,93.28
2014.00,93.28
2013.00,93.28
2012.00,93.28
2011.00,93.27
2010.00,93.27
2009.00,93.27
2008.00,93.27
2007.00,93.27
2006.00,93.27
2005.00,93.27
2004.00,93.27
2003.00,93.27
2002.00,93.28
2001.00,93.28
2000.00,93.28
1999.00,93.28
1998.00,93.28
1997.00,93.28
1996.00,93.29
1995.00,93.29
1994.00,93.29
1993.00,93.30
1992.00,93.30
1991.00,93.29
1990.00,93.30
1989.00,93.30
1988.00,93.30
1987.00,93.30
1986.00,93.30
1985.00,93.31
1984.00,93.31
1983.00,93.31
1982.00,93.31
1981.00,93.31
1980.00,93.31
1979.00,93.31
1978.00,93.31
1977.00,93.31
1976.00,93.31
1975.00,93.30
1974.00,93.30
1973.00,93.30
1972.00,93.30
1971.00,93.30
1970.00,93.30
1969.00,93.30
1968.00,93.29
1967.00,93.29
1966.00,93.28
1965.00,93.28
1964.00,93.28
1963.00,93.28
1962.00,93.27
1961.00,93.27
1960.00,93.27
1959.00,93.27
1958.00,93.28
1957.00,93.29
1956.00,93.29
1955.00,93.28
1954.00,93.28
1953.00,93.27
1952.00,93.27
1951.00,93.27
1950.00,93.27
1949.00,93.28
1948.00,93.28
1947.00,93.28
1946.00,93.28
1945.00,93.29
1944.00,93.29
1943.00,93.29
1942.00,93.29
1941.00,93.29
1940.00,93.29
1939.00,93.29
1938.00,93.30
1937.00,93.30
1936.00,93.30
1935.00,93.30
1934.00,93.30
1933.00,93.30
1932.00,93.30
1931.00,93.30
1930.00,93.30
1929.00,93.30
1928.00,93.30
1927.00,93.30
1926.00,93.30
1925.00,93.30
1924.00,93.30
1923.00,93.30
1922.00,93.29
1921.00,93.29
1920.00,93.29
1919.00,93.29
1918.00,93.29
1917.00,93.28
1916.00,93.28
1915.00,93.28
1914.00,93.28
1913.00,93.28
1912.00,93.28
1911.00,93.27
1910.00,93.27
1909.00,93.27
1908.00,93.26
1907.00,93.26
1906.00,93.26
1905.00,93.26
1904.00,93.26
1903.00,93.26
1902.00,93.26
1901.00,93.26
1900.00,93.27
1899.00,93.27
1898.00,93.27
1897.00,93.27
1896.00,93.27
1895.00,93.27
1894.00,93.27
1893.00,93.27
1892.00,93.28
1891.00,93.28
1890.00,93.28
1889.00,93.28
1888.00,93.28
1887.00,93.28
1886.00,93.28
1885.00,93.29
1884.00,93.29
1883.00,93.29
1882.00,93.29
1881.00,93.30
1880.00,93.30
1879.00,93.30
1878.00,93.30
1877.00,93.30
1876.00,93.30
1875.00,93.30
1874.00,93.29
1873.00,93.30
1872.00,93.30
1871.00,93.30
1870.00,93.30
1869.00,93.30
1868.00,93.29
1867.00,93.28
1866.00,93.27
1865.00,93.28
1864.00,93.28
1863.00,93.28
1862.00,93.28
1861.00,93.28
1860.00,93.28
1859.00,93.28
1858.00,93.27
1857.00,93.27
1856.00,93.27
1855.00,93.26
1854.00,93.26
1853.00,93.26
1852.00,93.26
1851.00,93.26
1850.00,93.26
1849.00,93.26
1848.00,93.26
1847.00,93.26
1846.00,93.26
1845.00,93.26
1844.00,93.26
1843.00,93.25
1842.00,93.25
1841.00,93.25
1840.00,93.25
1839.00,93.25
1838.00,93.25
1837.00,93.26
1836.00,93.26
1835.00,93.26
1834.00,93.26
1833.00,93.27
1832.00,93.28
1831.00,93.28
1830.00,93.27
1829.00,93.27
1828.00,93.27
1827.00,93.27
1826.00,93.27
1825.00,93.27
1824.00,93.27
1823.00,93.27
1822.00,93.27
1821.00,93.27
1820.00,93.28
1819.00,93.28
1818.00,93.27
1817.00,93.27
1816.00,93.27
1815.00,93.27
1814.00,93.27
1813.00,93.27
1812.00,93.27
1811.00,93.27
1810.00,93.26
1809.00,93.26
1808.00,93.26
1807.00,93.25
1806.00,93.25
1805.00,93.25
1804.00,93.25
1803.00,93.25
1802.00,93.25
1801.00,93.25
1800.00,93.25
1799.00,93.24
1798.00,93.24
1797.00,93.24
1796.00,93.24
1795.00,93.24
1794.00,93.24
1793.00,93.24
1792.00,93.25
1791.00,93.24
1790.00,93.24
1789.00,93.24
1788.00,93.24
1787.00,93.25
1786.00,93.25
1785.00,93.25
1784.00,93.26
1783.00,93.26
1782.00,93.26
1781.00,93.26
1780.00,93.26
1779.00,93.26
1778.00,93.26
1777.00,93.27
1776.00,93.27
1775.00,93.27
1774.00,93.27
1773.00,93.28
1772.00,93.27
1771.00,93.27
1770.00,93.26
1769.00,93.26
1768.00,93.26
1767.00,93.26
1766.00,93.26
1765.00,93.26
1764.00,93.26
1763.00,93.26
1762.00,93.26
1761.00,93.25
1760.00,93.25
1759.00,93.25
1758.00,93.25
1757.00,93.24
1756.00,93.23
1755.00,93.23
1754.00,93.23
1753.00,93.22
1752.00,93.22
1751.00,93.24
1750.00,93.25
1749.00,93.24
1748.00,93.22
1747.00,93.22
1746.00,93.21
1745.00,93.22
1744.00,93.22
1743.00,93.22
1742.00,93.22
1741.00,93.22
1740.00,93.21
1739.00,93.21
1738.00,93.21
1737.00,93.21
1736.00,93.20
1735.00,93.21
1734.00,93.23
1733.00,93.24
1732.00,93.24
1731.00,93.24
1730.00,93.23
1729.00,93.23
1728.00,93.23
1727.00,93.24
1726.00,93.24
1725.00,93.24
1724.00,93.25
1723.00,93.24
1722.00,93.24
1721.00,93.25
1720.00,93.25
1719.00,93.25
1718.00,93.25
1717.00,93.26
1716.00,93.27
1715.00,93.25
1714.00,93.24
1713.00,93.24
1712.00,93.25
1711.00,93.24
1710.00,93.24
1709.00,93.24
1708.00,93.25
1707.00,93.25
1706.00,93.24
1705.00,93.23
1704.00,93.23
1703.00,93.22
1702.00,93.21
1701.00,93.22
1700.00,93.23
1699.00,93.23
1698.00,93.23
1697.00,93.22
1696.00,93.22
1695.00,93.21
1694.00,93.22
1693.00,93.23
1692.00,93.22
1691.00,93.22
1690.00,93.22
1689.00,93.21
1688.00,93.21
1687.00,93.20
1686.00,93.20
1685.00,93.22
1684.00,93.23
1683.00,93.21
1682.00,93.22
1681.00,93.21
1680.00,93.21
1679.00,93.21
1678.00,93.22
1677.00,93.22
1676.00,93.22
1675.00,93.23
1674.00,93.24
1673.00,93.24
1672.00,93.23
1671.00,93.23
1670.00,93.23
1669.00,93.22
1668.00,93.22
1667.00,93.22
1666.00,93.23
1665.00,93.23
1664.00,93.23
1663.00,93.23
1662.00,93.23
1661.00,93.23
1660.00,93.22
1659.00,93.23
1658.00,93.23
1657.00,93.22
1656.00,93.20
1655.00,93.19
1654.00,93.21
1653.00,93.22
1652.00,93.20
1651.00,93.21
1650.00,93.23
1649.00,93.21
1648.00,93.20
1647.00,93.19
1646.00,93.19
1645.00,93.20
1644.00,93.20
1643.00,93.20
1642.00,93.20
1641.00,93.20
1640.00,93.20
1639.00,93.20
1638.00,93.20
1637.00,93.19
1636.00,93.20
1635.00,93.20
1634.00,93.20
1633.00,93.20
1632.00,93.20
1631.00,93.20
1630.00,93.20
1629.00,93.21
1628.00,93.21
1627.00,93.21
1626.00,93.21
1625.00,93.21
1624.00,93.21
1623.00,93.21
1622.00,93.21
1621.00,93.21
1620.00,93.21
1619.00,93.21
1618.00,93.21
1617.00,93.23
1616.00,93.23
1615.00,93.23
1614.00,93.23
1613.00,93.23
1612.00,93.23
1611.00,93.23
1610.00,93.24
1609.00,93.24
1608.00,93.24
1607.00,93.24
1606.00,93.24
1605.00,93.24
1604.00,93.24
1603.00,93.23
1602.00,93.23
1601.00,93.23
1600.00,93.22
1599.00,93.22
1598.00,93.22
1597.00,93.22
1596.00,93.21
1595.00,93.21
1594.00,93.21
1593.00,93.20
1592.00,93.20
1591.00,93.20
1590.00,93.20
1589.00,93.19
1588.00,93.19
1587.00,93.19
1586.00,93.19
1585.00,93.19
1584.00,93.18
1583.00,93.18
1582.00,93.19
1581.00,93.19
1580.00,93.18
1579.00,93.18
1578.00,93.18
1577.00,93.18
1576.00,93.18
1575.00,93.18
1574.00,93.19
1573.00,93.20
1572.00,93.19
1571.00,93.19
1570.00,93.20
1569.00,93.20
1568.00,93.19
1567.00,93.20
1566.00,93.21
1565.00,93.20
1564.00,93.20
1563.00,93.19
1562.00,93.19
1561.00,93.19
1560.00,93.21
1559.00,93.23
1558.00,93.21
1557.00,93.20
1556.00,93.20
1555.00,93.20
1554.00,93.20
1553.00,93.21
1552.00,93.22
1551.00,93.22
1550.00,93.21
1549.00,93.21
1548.00,93.20
1547.00,93.20
1546.00,93.21
1545.00,93.20
1544.00,93.20
1543.00,93.20
1542.00,93.19
1541.00,93.19
1540.00,93.18
1539.00,93.17
1538.00,93.17
1537.00,93.19
1536.00,93.19
1535.00,93.18
1534.00,93.18
1533.00,93.18
1532.00,93.18
1531.00,93.18
1530.00,93.18
1529.00,93.18
1528.00,93.18
1527.00,93.18
1526.00,93.18
1525.00,93.18
1524.00,93.18
1523.00,93.18
1522.00,93.17
1521.00,93.18
1520.00,93.19
1519.00,93.19
1518.00,93.19
1517.00,93.18
1516.00,93.18
1515.00,93.18
1514.00,93.18
1513.00,93.19
1512.00,93.20
1511.00,93.20
1510.00,93.19
1509.00,93.19
1508.00,93.19
1507.00,93.19
1506.00,93.18
1505.00,93.17
1504.00,93.19
1503.00,93.19
1502.00,93.19
1501.00,93.18
1500.00,93.18
1499.00,93.18
1498.00,93.18
1497.00,93.19
1496.00,93.20
1495.00,93.22
1494.00,93.23
1493.00,93.23
1492.00,93.23
1491.00,93.23
1490.00,93.22
1489.00,93.22
1488.00,93.21
1487.00,93.19
1486.00,93.18
1485.00,93.18
1484.00,93.18
1483.00,93.18
1482.00,93.17
1481.00,93.17
1480.00,93.17
1479.00,93.17
1478.00,93.17
1477.00,93.17
1476.00,93.17
1475.00,93.16
1474.00,93.16
1473.00,93.17
1472.00,93.17
1471.00,93.17
1470.00,93.17
1469.00,93.17
1468.00,93.17
1467.00,93.17
1466.00,93.17
1465.00,93.18
1464.00,93.18
1463.00,93.18
1462.00,93.18
1461.00,93.18
1460.00,93.18
1459.00,93.18
1458.00,93.18
1457.00,93.19
1456.00,93.19
1455.00,93.20
1454.00,93.20
1453.00,93.20
1452.00,93.20
1451.00,93.21
1450.00,93.21
1449.00,93.21
1448.00,93.21
1447.00,93.21
1446.00,93.21
1445.00,93.20
1444.00,93.19
1443.00,93.19
1442.00,93.19
1441.00,93.18
1440.00,93.18
1439.00,93.17
1438.00,93.17
1437.00,93.17
1436.00,93.18
1435.00,93.18
1434.00,93.17
1433.00,93.16
1432.00,93.16
1431.00,93.16
1430.00,93.16
1429.00,93.15
1428.00,93.15
1427.00,93.15
1426.00,93.15
1425.00,93.15
1424.00,93.15
1423.00,93.15
1422.00,93.15
1421.00,93.14
1420.00,93.15
1419.00,93.16
1418.00,93.16
1417.00,93.15
1416.00,93.15
1415.00,93.15
1414.00,93.16
1413.00,93.15
1412.00,93.16
1411.00,93.16
1410.00,93.16
1409.00,93.16
1408.00,93.16
1407.00,93.17
1406.00,93.17
1405.00,93.17
1404.00,93.17
1403.00,93.18
1402.00,93.18
1401.00,93.18
1400.00,93.18
1399.00,93.19
1398.00,93.19
1397.00,93.19
1396.00,93.18
1395.00,93.18
1394.00,93.18
1393.00,93.17
1392.00,93.17
1391.00,93.17
1390.00,93.17
1389.00,93.16
1388.00,93.16
1387.00,93.16
1386.00,93.16
1385.00,93.16
1384.00,93.16
1383.00,93.16
1382.00,93.16
1381.00,93.16
1380.00,93.16
1379.00,93.16
1378.00,93.16
1377.00,93.16
1376.00,93.15
1375.00,93.15
1374.00,93.15
1373.00,93.15
1372.00,93.15
1371.00,93.15
1370.00,93.15
1369.00,93.14
1368.00,93.14
1367.00,93.15
1366.00,93.15
1365.00,93.15
1364.00,93.15
1363.00,93.15
1362.00,93.15
1361.00,93.15
1360.00,93.15
1359.00,93.15
1358.00,93.15
1357.00,93.15
1356.00,93.16
1355.00,93.16
1354.00,93.16
1353.00,93.16
1352.00,93.16
1351.00,93.16
1350.00,93.16
1349.00,93.16
1348.00,93.16
1347.00,93.16
1346.00,93.16
1345.00,93.16
1344.00,93.16
1343.00,93.16
1342.00,93.17
1341.00,93.17
1340.00,93.17
1339.00,93.17
1338.00,93.17
1337.00,93.17
1336.00,93.16
1335.00,93.16
1334.00,93.16
1333.00,93.16
1332.00,93.15
1331.00,93.15
1330.00,93.15
1329.00,93.15
1328.00,93.15
1327.00,93.15
1326.00,93.15
1325.00,93.14
1324.00,93.14
1323.00,93.14
1322.00,93.15
1321.00,93.15
1320.00,93.14
1319.00,93.14
1318.00,93.14
1317.00,93.14
1316.00,93.14
1315.00,93.15
1314.00,93.15
1313.00,93.15
1312.00,93.15
1311.00,93.15
1310.00,93.15
1309.00,93.15
1308.00,93.15
1307.00,93.15
1306.00,93.16
1305.00,93.16
1304.00,93.16
1303.00,93.16
1302.00,93.16
1301.00,93.17
1300.00,93.17
1299.00,93.17
1298.00,93.17
1297.00,93.17
1296.00,93.17
1295.00,93.17
1294.00,93.17
1293.00,93.17
1292.00,93.17
1291.00,93.17
1290.00,93.17
1289.00,93.17
1288.00,93.17
1287.00,93.17
1286.00,93.17
1285.00,93.16
1284.00,93.16
1283.00,93.16
1282.00,93.16
1281.00,93.15
1280.00,93.15
1279.00,93.15
1278.00,93.15
1277.00,93.15
1276.00,93.15
1275.00,93.15
1274.00,93.15
1273.00,93.14
1272.00,93.14
1271.00,93.14
1270.00,93.14
1269.00,93.15
1268.00,93.15
1267.00,93.15
1266.00,93.16
1265.00,93.16
1264.00,93.17
1263.00,93.18
1262.00,93.19
1261.00,93.20
1260.00,93.20
1259.00,93.20
1258.00,93.20
1257.00,93.20
1256.00,93.19
1255.00,93.19
1254.00,93.18
1253.00,93.17
1252.00,93.17
1251.00,93.17
1250.00,93.16
1249.00,93.16
1248.00,93.16
1247.00,93.16
1246.00,93.16
1245.00,93.16
1244.00,93.16
1243.00,93.16
1242.00,93.17
1241.00,93.17
1240.00,93.17
1239.00,93.17
1238.00,93.17
1237.00,93.17
1236.00,93.17
1235.00,93.17
1234.00,93.17
1233.00,93.17
1232.00,93.16
1231.00,93.16
1230.00,93.16
1229.00,93.16
1228.00,93.16
1227.00,93.16
1226.00,93.16
1225.00,93.16
1224.00,93.16
1223.00,93.16
1222.00,93.16
1221.00,93.15
1220.00,93.15
1219.00,93.15
1218.00,93.15
1217.00,93.14
1216.00,93.14
1215.00,93.14
1214.00,93.14
1213.00,93.14
1212.00,93.14
1211.00,93.14
1210.00,93.15
1209.00,93.15
1208.00,93.15
1207.00,93.15
1206.00,93.15
1205.00,93.15
1204.00,93.15
1203.00,93.15
1202.00,93.15
1201.00,93.15
1200.00,93.15
1199.00,93.16
1198.00,93.16
1197.00,93.16
1196.00,93.16
1195.00,93.16
1194.00,93.16
1193.00,93.16
1192.00,93.16
1191.00,93.16
1190.00,93.16
1189.00,93.17
1188.00,93.16
1187.00,93.17
1186.00,93.17
1185.00,93.16
1184.00,93.16
1183.00,93.16
1182.00,93.17
1181.00,93.17
1180.00,93.17
1179.00,93.17
1178.00,93.17
1177.00,93.16
1176.00,93.16
1175.00,93.16
1174.00,93.16
1173.00,93.16
1172.00,93.16
1171.00,93.16
1170.00,93.16
1169.00,93.16
1168.00,93.15
1167.00,93.15
1166.00,93.15
1165.00,93.15
1164.00,93.15
1163.00,93.15
1162.00,93.15
1161.00,93.15
1160.00,93.15
1159.00,93.15
1158.00,93.15
1157.00,93.15
1156.00,93.15
1155.00,93.15
1154.00,93.15
1153.00,93.15
1152.00,93.15
1151.00,93.16
1150.00,93.16
1149.00,93.16
1148.00,93.16
1147.00,93.16
1146.00,93.16
1145.00,93.16
1144.00,93.16
1143.00,93.16
1142.00,93.17
1141.00,93.17
1140.00,93.17
1139.00,93.17
1138.00,93.17
1137.00,93.17
1136.00,93.17
1135.00,93.17
1134.00,93.17
1133.00,93.17
1132.00,93.17
1131.00,93.17
1130.00,93.17
1129.00,93.17
1128.00,93.17
1127.00,93.17
1126.00,93.17
1125.00,93.17
1124.00,93.17
1123.00,93.17
1122.00,93.17
1121.00,93.17
1120.00,93.17
1119.00,93.17
1118.00,93.17
1117.00,93.17
1116.00,93.17
1115.00,93.17
1114.00,93.17
1113.00,93.18
1112.00,93.18
1111.00,93.18
1110.00,93.18
1109.00,93.18
1108.00,93.19
1107.00,93.19
1106.00,93.19
1105.00,93.19
1104.00,93.19
1103.00,93.19
1102.00,93.20
1101.00,93.20
1100.00,93.20
1099.00,93.20
1098.00,93.20
1097.00,93.20
1096.00,93.20
1095.00,93.20
1094.00,93.20
1093.00,93.21
1092.00,93.21
1091.00,93.21
1090.00,93.21
1089.00,93.21
1088.00,93.21
1087.00,93.21
1086.00,93.21
1085.00,93.21
1084.00,93.21
1083.00,93.20
1082.00,93.20
1081.00,93.20
1080.00,93.20
1079.00,93.20
1078.00,93.21
1077.00,93.20
1076.00,93.20
1075.00,93.20
1074.00,93.20
1073.00,93.20
1072.00,93.19
1071.00,93.19
1070.00,93.19
1069.00,93.19
1068.00,93.19
1067.00,93.19
1066.00,93.19
1065.00,93.19
1064.00,93.19
1063.00,93.19
1062.00,93.19
1061.00,93.18
1060.00,93.18
1059.00,93.18
1058.00,93.18
1057.00,93.17
1056.00,93.17
1055.00,93.17
1054.00,93.17
1053.00,93.18
1052.00,93.18
1051.00,93.19
1050.00,93.20
1049.00,93.20
1048.00,93.20
1047.00,93.20
1046.00,93.20
1045.00,93.19
1044.00,93.19
1043.00,93.19
1042.00,93.19
1041.00,93.19
1040.00,93.18
1039.00,93.19
1038.00,93.19
1037.00,93.19
1036.00,93.19
1035.00,93.19
1034.00,93.19
1033.00,93.19
1032.00,93.19
1031.00,93.19
1030.00,93.19
1029.00,93.19
1028.00,93.20
1027.00,93.20
1026.00,93.20
1025.00,93.20
1024.00,93.20
1023.00,93.20
1022.00,93.20
1021.00,93.20
1020.00,93.20
1019.00,93.20
1018.00,93.20
1017.00,93.20
1016.00,93.19
1015.00,93.19
1014.00,93.19
1013.00,93.19
1012.00,93.18
1011.00,93.18
1010.00,93.17
1009.00,93.16
1008.00,93.16
1007.00,93.15
1006.00,93.15
1005.00,93.14
1004.00,93.14
1003.00,93.13
1002.00,93.13
1001.00,93.13
1000.00,93.13
999.00,93.13
998.00,93.13
997.00,93.12
996.00,93.12
995.00,93.12
994.00,93.12
993.00,93.11
992.00,93.11
991.00,93.12
990.00,93.12
989.00,93.12
988.00,93.12
987.00,93.12
986.00,93.12
985.00,93.12
984.00,93.12
983.00,93.12
982.00,93.12
981.00,93.12
980.00,93.12
979.00,93.12
978.00,93.12
977.00,93.12
976.00,93.12
975.00,93.12
974.00,93.12
973.00,93.12
972.00,93.12
971.00,93.11
970.00,93.11
969.00,93.11
968.00,93.11
967.00,93.11
966.00,93.10
965.00,93.10
964.00,93.10
963.00,93.11
962.00,93.11
961.00,93.10
960.00,93.10
959.00,93.10
958.00,93.10
957.00,93.10
956.00,93.09
955.00,93.09
954.00,93.09
953.00,93.09
952.00,93.09
951.00,93.09
950.00,93.09
949.00,93.09
948.00,93.09
947.00,93.09
946.00,93.09
945.00,93.09
944.00,93.09
943.00,93.09
942.00,93.09
941.00,93.09
940.00,93.09
939.00,93.09
938.00,93.09
937.00,93.09
936.00,93.10
935.00,93.10
934.00,93.11
933.00,93.11
932.00,93.10
931.00,93.10
930.00,93.10
929.00,93.10
928.00,93.10
927.00,93.10
926.00,93.11
925.00,93.11
924.00,93.10
923.00,93.10
922.00,93.10
921.00,93.10
920.00,93.10
919.00,93.10
918.00,93.10
917.00,93.10
916.00,93.10
915.00,93.10
914.00,93.10
913.00,93.11
912.00,93.11
911.00,93.11
910.00,93.11
909.00,93.11
908.00,93.10
907.00,93.10
906.00,93.10
905.00,93.09
904.00,93.09
903.00,93.08
902.00,93.08
901.00,93.09
900.00,93.09
899.00,93.10
898.00,93.10
897.00,93.10
896.00,93.10
895.00,93.10
894.00,93.09
893.00,93.09
892.00,93.08
891.00,93.09
890.00,93.09
889.00,93.10
888.00,93.10
887.00,93.10
886.00,93.10
885.00,93.11
884.00,93.11
883.00,93.11
882.00,93.11
881.00,93.12
880.00,93.12
879.00,93.13
878.00,93.13
877.00,93.14
876.00,93.14
875.00,93.15
874.00,93.15
873.00,93.14
872.00,93.13
871.00,93.13
870.00,93.13
869.00,93.13
868.00,93.14
867.00,93.14
866.00,93.15
865.00,93.15
864.00,93.14
863.00,93.14
862.00,93.14
861.00,93.13
860.00,93.13
859.00,93.13
858.00,93.13
857.00,93.13
856.00,93.14
855.00,93.14
854.00,93.14
853.00,93.14
852.00,93.13
851.00,93.13
850.00,93.13
849.00,93.14
848.00,93.14
847.00,93.14
846.00,93.14
845.00,93.14
844.00,93.14
843.00,93.14
842.00,93.15
841.00,93.15
840.00,93.15
839.00,93.16
838.00,93.16
837.00,93.16
836.00,93.17
835.00,93.17
834.00,93.17
833.00,93.17
832.00,93.17
831.00,93.17
830.00,93.18
829.00,93.18
828.00,93.19
827.00,93.20
826.00,93.21
825.00,93.22
824.00,93.22
823.00,93.23
822.00,93.23
821.00,93.24
820.00,93.23
819.00,93.23
818.00,93.23
817.00,93.23
816.00,93.23
815.00,93.23
814.00,93.23
813.00,93.23
812.00,93.23
811.00,93.23
810.00,93.24
809.00,93.24
808.00,93.24
807.00,93.24
806.00,93.23
805.00,93.24
804.00,93.24
803.00,93.24
802.00,93.25
801.00,93.25
800.00,93.25
799.00,93.25
798.00,93.25
797.00,93.25
796.00,93.24
795.00,93.24
794.00,93.23
793.00,93.23
792.00,93.22
791.00,93.22
790.00,93.22
789.00,93.22
788.00,93.21
787.00,93.21
786.00,93.20
785.00,93.20
784.00,93.20
783.00,93.20
782.00,93.19
781.00,93.19
780.00,93.19
779.00,93.19
778.00,93.19
777.00,93.19
776.00,93.19
775.00,93.19
774.00,93.18
773.00,93.18
772.00,93.18
771.00,93.18
770.00,93.19
769.00,93.18
768.00,93.18
767.00,93.18
766.00,93.19
765.00,93.19
764.00,93.19
763.00,93.19
762.00,93.19
761.00,93.19
760.00,93.19
759.00,93.19
758.00,93.19
757.00,93.19
756.00,93.19
755.00,93.19
754.00,93.19
753.00,93.19
752.00,93.18
751.00,93.18
750.00,93.18
749.00,93.18
748.00,93.18
747.00,93.18
746.00,93.18
745.00,93.19
744.00,93.19
743.00,93.19
742.00,93.18
741.00,93.18
740.00,93.18
739.00,93.19
738.00,93.19
737.00,93.19
736.00,93.19
735.00,93.19
734.00,93.18
733.00,93.18
732.00,93.19
731.00,93.19
730.00,93.20
729.00,93.20
728.00,93.20
727.00,93.20
726.00,93.20
725.00,93.20
724.00,93.20
723.00,93.20
722.00,93.20
721.00,93.19
720.00,93.19
719.00,93.19
718.00,93.20
717.00,93.20
716.00,93.20
715.00,93.20
714.00,93.20
713.00,93.20
712.00,93.20
711.00,93.20
710.00,93.20
709.00,93.20
708.00,93.20
707.00,93.20
706.00,93.20
705.00,93.20
704.00,93.20
703.00,93.21
702.00,93.21
701.00,93.21
700.00,93.21
699.00,93.21
698.00,93.21
697.00,93.21
696.00,93.21
695.00,93.21
694.00,93.21
693.00,93.21
692.00,93.22
691.00,93.22
690.00,93.23
689.00,93.24
688.00,93.25
687.00,93.26
686.00,93.27
685.00,93.27
684.00,93.27
683.00,93.27
682.00,93.27
681.00,93.27
680.00,93.27
679.00,93.27
678.00,93.27
677.00,93.27
676.00,93.27
675.00,93.27
674.00,93.27
673.00,93.27
672.00,93.28
671.00,93.32
670.00,93.40
669.00,93.45
668.00,93.44
667.00,93.42
666.00,93.38
665.00,93.34
664.00,93.30
663.00,93.28
662.00,93.28
661.00,93.29
660.00,93.29
659.00,93.29
658.00,93.30
657.00,93.30
656.00,93.30
655.00,93.30
654.00,93.29
653.00,93.29
652.00,93.28
651.00,93.28
650.00,93.28
649.00,93.27
648.00,93.27
647.00,93.27
646.00,93.27
645.00,93.27
644.00,93.27
643.00,93.27
642.00,93.27
641.00,93.27
640.00,93.27
639.00,93.27
638.00,93.27
637.00,93.27
636.00,93.27
635.00,93.28
634.00,93.29
633.00,93.29
632.00,93.29
631.00,93.29
630.00,93.30
629.00,93.30
628.00,93.30
627.00,93.30
626.00,93.30
625.00,93.30
624.00,93.31
623.00,93.31
622.00,93.32
621.00,93.32
620.00,93.31
619.00,93.31
618.00,93.31
617.00,93.31
616.00,93.32
615.00,93.32
614.00,93.32
613.00,93.32
612.00,93.32
611.00,93.31
610.00,93.31
609.00,93.31
608.00,93.31
607.00,93.31
606.00,93.31
605.00,93.31
604.00,93.32
603.00,93.33
602.00,93.33
601.00,93.33
600.00,93.33
599.00,93.34
598.00,93.35
597.00,93.35
596.00,93.34
595.00,93.34
594.00,93.33
593.00,93.33
592.00,93.32
591.00,93.32
590.00,93.33
589.00,93.33
588.00,93.33
587.00,93.33
586.00,93.34
585.00,93.34
584.00,93.35
583.00,93.35
582.00,93.36
581.00,93.36
580.00,93.35
579.00,93.35
578.00,93.36
577.00,93.36
576.00,93.36
575.00,93.37
574.00,93.37
573.00,93.36
572.00,93.36
571.00,93.36
570.00,93.36
569.00,93.35
568.00,93.35
567.00,93.35
566.00,93.35
565.00,93.35
564.00,93.35
563.00,93.35
562.00,93.36
561.00,93.36
560.00,93.37
559.00,93.37
558.00,93.37
557.00,93.37
556.00,93.36
555.00,93.36
554.00,93.36
553.00,93.36
552.00,93.36
551.00,93.36
550.00,93.36
549.00,93.35
548.00,93.34
547.00,93.34
546.00,93.35
545.00,93.35
544.00,93.36
543.00,93.37
542.00,93.37
541.00,93.37
540.00,93.37
539.00,93.36
538.00,93.36
537.00,93.36
536.00,93.35
535.00,93.35
534.00,93.34
533.00,93.35
532.00,93.35
531.00,93.35
530.00,93.34
529.00,93.34
528.00,93.34
527.00,93.34
526.00,93.35
525.00,93.35
524.00,93.35
523.00,93.34
522.00,93.34
521.00,93.33
520.00,93.33
519.00,93.33
518.00,93.34
517.00,93.34
516.00,93.34
515.00,93.35
514.00,93.35
513.00,93.35
512.00,93.36
511.00,93.36
510.00,93.36
509.00,93.36
508.00,93.35
507.00,93.35
506.00,93.36
505.00,93.37
504.00,93.38
503.00,93.38
502.00,93.38
501.00,93.36
500.00,93.35
