Created as New Dataset,Sample 388 By Analyst Date Monday, February 10 2025
cm-1,%T
4000.00,100.37
3999.00,100.37
3998.00,100.37
3997.00,100.37
3996.00,100.37
3995.00,100.37
3994.00,100.37
3993.00,100.37
3992.00,100.37
3991.00,100.37
3990.00,100.37
3989.00,100.37
3988.00,100.37
3987.00,100.37
3986.00,100.37
3985.00,100.36
3984.00,100.36
3983.00,100.36
3982.00,100.36
3981.00,100.37
3980.00,100.37
3979.00,100.37
3978.00,100.37
3977.00,100.37
3976.00,100.37
3975.00,100.36
3974.00,100.36
3973.00,100.36
3972.00,100.36
3971.00,100.37
3970.00,100.37
3969.00,100.37
3968.00,100.37
3967.00,100.37
3966.00,100.36
3965.00,100.36
3964.00,100.36
3963.00,100.36
3962.00,100.36
3961.00,100.36
3960.00,100.36
3959.00,100.36
3958.00,100.36
3957.00,100.36
3956.00,100.36
3955.00,100.36
3954.00,100.36
3953.00,100.36
3952.00,100.36
3951.00,100.36
3950.00,100.36
3949.00,100.36
3948.00,100.36
3947.00,100.37
3946.00,100.37
3945.00,100.36
3944.00,100.36
3943.00,100.36
3942.00,100.36
3941.00,100.36
3940.00,100.36
3939.00,100.35
3938.00,100.35
3937.00,100.36
3936.00,100.36
3935.00,100.36
3934.00,100.36
3933.00,100.36
3932.00,100.36
3931.00,100.36
3930.00,100.36
3929.00,100.36
3928.00,100.36
3927.00,100.36
3926.00,100.36
3925.00,100.36
3924.00,100.36
3923.00,100.36
3922.00,100.36
3921.00,100.36
3920.00,100.36
3919.00,100.36
3918.00,100.36
3917.00,100.36
3916.00,100.36
3915.00,100.36
3914.00,100.36
3913.00,100.36
3912.00,100.36
3911.00,100.36
3910.00,100.35
3909.00,100.35
3908.00,100.35
3907.00,100.35
3906.00,100.36
3905.00,100.37
3904.00,100.38
3903.00,100.39
3902.00,100.39
3901.00,100.39
3900.00,100.38
3899.00,100.38
3898.00,100.38
3897.00,100.37
3896.00,100.37
3895.00,100.37
3894.00,100.36
3893.00,100.36
3892.00,100.36
3891.00,100.36
3890.00,100.36
3889.00,100.36
3888.00,100.36
3887.00,100.36
3886.00,100.37
3885.00,100.37
3884.00,100.37
3883.00,100.37
3882.00,100.36
3881.00,100.36
3880.00,100.37
3879.00,100.37
3878.00,100.37
3877.00,100.37
3876.00,100.36
3875.00,100.36
3874.00,100.37
3873.00,100.37
3872.00,100.37
3871.00,100.36
3870.00,100.37
3869.00,100.37
3868.00,100.38
3867.00,100.37
3866.00,100.37
3865.00,100.37
3864.00,100.37
3863.00,100.37
3862.00,100.37
3861.00,100.37
3860.00,100.36
3859.00,100.36
3858.00,100.36
3857.00,100.35
3856.00,100.34
3855.00,100.34
3854.00,100.35
3853.00,100.36
3852.00,100.37
3851.00,100.37
3850.00,100.37
3849.00,100.37
3848.00,100.37
3847.00,100.37
3846.00,100.36
3845.00,100.36
3844.00,100.35
3843.00,100.35
3842.00,100.36
3841.00,100.36
3840.00,100.36
3839.00,100.36
3838.00,100.36
3837.00,100.37
3836.00,100.37
3835.00,100.37
3834.00,100.37
3833.00,100.37
3832.00,100.37
3831.00,100.37
3830.00,100.36
3829.00,100.36
3828.00,100.35
3827.00,100.35
3826.00,100.35
3825.00,100.36
3824.00,100.36
3823.00,100.36
3822.00,100.36
3821.00,100.37
3820.00,100.37
3819.00,100.37
3818.00,100.37
3817.00,100.36
3816.00,100.36
3815.00,100.36
3814.00,100.36
3813.00,100.35
3812.00,100.34
3811.00,100.35
3810.00,100.35
3809.00,100.35
3808.00,100.34
3807.00,100.35
3806.00,100.35
3805.00,100.35
3804.00,100.35
3803.00,100.35
3802.00,100.35
3801.00,100.36
3800.00,100.36
3799.00,100.36
3798.00,100.35
3797.00,100.35
3796.00,100.35
3795.00,100.35
3794.00,100.34
3793.00,100.33
3792.00,100.33
3791.00,100.33
3790.00,100.32
3789.00,100.32
3788.00,100.32
3787.00,100.32
3786.00,100.32
3785.00,100.32
3784.00,100.32
3783.00,100.33
3782.00,100.33
3781.00,100.33
3780.00,100.33
3779.00,100.33
3778.00,100.33
3777.00,100.33
3776.00,100.32
3775.00,100.32
3774.00,100.33
3773.00,100.33
3772.00,100.33
3771.00,100.33
3770.00,100.33
3769.00,100.34
3768.00,100.34
3767.00,100.34
3766.00,100.33
3765.00,100.34
3764.00,100.34
3763.00,100.34
3762.00,100.34
3761.00,100.34
3760.00,100.34
3759.00,100.34
3758.00,100.34
3757.00,100.34
3756.00,100.34
3755.00,100.35
3754.00,100.35
3753.00,100.35
3752.00,100.35
3751.00,100.36
3750.00,100.37
3749.00,100.37
3748.00,100.37
3747.00,100.37
3746.00,100.37
3745.00,100.37
3744.00,100.37
3743.00,100.37
3742.00,100.37
3741.00,100.36
3740.00,100.37
3739.00,100.38
3738.00,100.38
3737.00,100.38
3736.00,100.37
3735.00,100.37
3734.00,100.37
3733.00,100.37
3732.00,100.36
3731.00,100.36
3730.00,100.36
3729.00,100.36
3728.00,100.35
3727.00,100.35
3726.00,100.35
3725.00,100.34
3724.00,100.34
3723.00,100.34
3722.00,100.34
3721.00,100.34
3720.00,100.34
3719.00,100.34
3718.00,100.33
3717.00,100.33
3716.00,100.33
3715.00,100.34
3714.00,100.34
3713.00,100.34
3712.00,100.34
3711.00,100.35
3710.00,100.35
3709.00,100.35
3708.00,100.35
3707.00,100.34
3706.00,100.34
3705.00,100.34
3704.00,100.33
3703.00,100.33
3702.00,100.33
3701.00,100.33
3700.00,100.33
3699.00,100.32
3698.00,100.32
3697.00,100.32
3696.00,100.32
3695.00,100.32
3694.00,100.33
3693.00,100.33
3692.00,100.33
3691.00,100.33
3690.00,100.33
3689.00,100.34
3688.00,100.34
3687.00,100.34
3686.00,100.34
3685.00,100.33
3684.00,100.33
3683.00,100.33
3682.00,100.33
3681.00,100.33
3680.00,100.33
3679.00,100.34
3678.00,100.34
3677.00,100.35
3676.00,100.35
3675.00,100.36
3674.00,100.36
3673.00,100.36
3672.00,100.36
3671.00,100.36
3670.00,100.36
3669.00,100.36
3668.00,100.35
3667.00,100.34
3666.00,100.34
3665.00,100.33
3664.00,100.33
3663.00,100.32
3662.00,100.32
3661.00,100.32
3660.00,100.32
3659.00,100.32
3658.00,100.32
3657.00,100.32
3656.00,100.33
3655.00,100.34
3654.00,100.34
3653.00,100.35
3652.00,100.35
3651.00,100.36
3650.00,100.37
3649.00,100.37
3648.00,100.37
3647.00,100.37
3646.00,100.36
3645.00,100.36
3644.00,100.35
3643.00,100.34
3642.00,100.33
3641.00,100.33
3640.00,100.32
3639.00,100.32
3638.00,100.32
3637.00,100.32
3636.00,100.32
3635.00,100.32
3634.00,100.33
3633.00,100.33
3632.00,100.34
3631.00,100.34
3630.00,100.34
3629.00,100.35
3628.00,100.35
3627.00,100.35
3626.00,100.35
3625.00,100.34
3624.00,100.35
3623.00,100.35
3622.00,100.34
3621.00,100.34
3620.00,100.34
3619.00,100.34
3618.00,100.34
3617.00,100.35
3616.00,100.35
3615.00,100.35
3614.00,100.35
3613.00,100.35
3612.00,100.35
3611.00,100.35
3610.00,100.35
3609.00,100.35
3608.00,100.34
3607.00,100.34
3606.00,100.34
3605.00,100.33
3604.00,100.33
3603.00,100.33
3602.00,100.33
3601.00,100.33
3600.00,100.33
3599.00,100.33
3598.00,100.33
3597.00,100.33
3596.00,100.33
3595.00,100.33
3594.00,100.33
3593.00,100.33
3592.00,100.33
3591.00,100.33
3590.00,100.33
3589.00,100.34
3588.00,100.34
3587.00,100.34
3586.00,100.34
3585.00,100.34
3584.00,100.33
3583.00,100.33
3582.00,100.33
3581.00,100.33
3580.00,100.32
3579.00,100.32
3578.00,100.31
3577.00,100.31
3576.00,100.31
3575.00,100.31
3574.00,100.31
3573.00,100.32
3572.00,100.32
3571.00,100.32
3570.00,100.33
3569.00,100.33
3568.00,100.33
3567.00,100.34
3566.00,100.34
3565.00,100.34
3564.00,100.34
3563.00,100.34
3562.00,100.33
3561.00,100.33
3560.00,100.33
3559.00,100.32
3558.00,100.32
3557.00,100.32
3556.00,100.32
3555.00,100.32
3554.00,100.32
3553.00,100.32
3552.00,100.32
3551.00,100.32
3550.00,100.32
3549.00,100.32
3548.00,100.33
3547.00,100.33
3546.00,100.33
3545.00,100.33
3544.00,100.33
3543.00,100.33
3542.00,100.33
3541.00,100.32
3540.00,100.32
3539.00,100.32
3538.00,100.32
3537.00,100.32
3536.00,100.32
3535.00,100.32
3534.00,100.32
3533.00,100.32
3532.00,100.32
3531.00,100.32
3530.00,100.32
3529.00,100.32
3528.00,100.32
3527.00,100.32
3526.00,100.32
3525.00,100.32
3524.00,100.32
3523.00,100.32
3522.00,100.32
3521.00,100.32
3520.00,100.32
3519.00,100.32
3518.00,100.32
3517.00,100.32
3516.00,100.32
3515.00,100.32
3514.00,100.32
3513.00,100.32
3512.00,100.32
3511.00,100.32
3510.00,100.32
3509.00,100.32
3508.00,100.32
3507.00,100.32
3506.00,100.32
3505.00,100.32
3504.00,100.32
3503.00,100.32
3502.00,100.32
3501.00,100.32
3500.00,100.32
3499.00,100.32
3498.00,100.32
3497.00,100.32
3496.00,100.32
3495.00,100.32
3494.00,100.31
3493.00,100.32
3492.00,100.32
3491.00,100.32
3490.00,100.32
3489.00,100.31
3488.00,100.31
3487.00,100.31
3486.00,100.32
3485.00,100.32
3484.00,100.32
3483.00,100.32
3482.00,100.32
3481.00,100.32
3480.00,100.32
3479.00,100.32
3478.00,100.32
3477.00,100.32
3476.00,100.32
3475.00,100.31
3474.00,100.31
3473.00,100.32
3472.00,100.32
3471.00,100.32
3470.00,100.32
3469.00,100.32
3468.00,100.32
3467.00,100.32
3466.00,100.31
3465.00,100.31
3464.00,100.31
3463.00,100.31
3462.00,100.32
3461.00,100.32
3460.00,100.32
3459.00,100.32
3458.00,100.32
3457.00,100.32
3456.00,100.32
3455.00,100.32
3454.00,100.32
3453.00,100.32
3452.00,100.32
3451.00,100.32
3450.00,100.32
3449.00,100.32
3448.00,100.32
3447.00,100.32
3446.00,100.32
3445.00,100.32
3444.00,100.32
3443.00,100.32
3442.00,100.32
3441.00,100.32
3440.00,100.32
3439.00,100.32
3438.00,100.32
3437.00,100.32
3436.00,100.32
3435.00,100.32
3434.00,100.32
3433.00,100.32
3432.00,100.32
3431.00,100.32
3430.00,100.32
3429.00,100.32
3428.00,100.32
3427.00,100.32
3426.00,100.32
3425.00,100.32
3424.00,100.32
3423.00,100.32
3422.00,100.32
3421.00,100.32
3420.00,100.32
3419.00,100.32
3418.00,100.32
3417.00,100.32
3416.00,100.32
3415.00,100.32
3414.00,100.32
3413.00,100.32
3412.00,100.32
3411.00,100.32
3410.00,100.32
3409.00,100.32
3408.00,100.32
3407.00,100.32
3406.00,100.32
3405.00,100.32
3404.00,100.32
3403.00,100.32
3402.00,100.32
3401.00,100.32
3400.00,100.32
3399.00,100.32
3398.00,100.32
3397.00,100.32
3396.00,100.32
3395.00,100.32
3394.00,100.32
3393.00,100.32
3392.00,100.32
3391.00,100.32
3390.00,100.32
3389.00,100.32
3388.00,100.32
3387.00,100.32
3386.00,100.32
3385.00,100.32
3384.00,100.32
3383.00,100.32
3382.00,100.32
3381.00,100.32
3380.00,100.32
3379.00,100.32
3378.00,100.31
3377.00,100.31
3376.00,100.31
3375.00,100.31
3374.00,100.31
3373.00,100.31
3372.00,100.32
3371.00,100.32
3370.00,100.32
3369.00,100.32
3368.00,100.32
3367.00,100.32
3366.00,100.32
3365.00,100.32
3364.00,100.32
3363.00,100.32
3362.00,100.32
3361.00,100.32
3360.00,100.32
3359.00,100.32
3358.00,100.32
3357.00,100.32
3356.00,100.32
3355.00,100.32
3354.00,100.32
3353.00,100.32
3352.00,100.32
3351.00,100.32
3350.00,100.32
3349.00,100.32
3348.00,100.32
3347.00,100.31
3346.00,100.31
3345.00,100.32
3344.00,100.32
3343.00,100.32
3342.00,100.32
3341.00,100.32
3340.00,100.32
3339.00,100.32
3338.00,100.32
3337.00,100.32
3336.00,100.32
3335.00,100.32
3334.00,100.32
3333.00,100.32
3332.00,100.32
3331.00,100.32
3330.00,100.32
3329.00,100.32
3328.00,100.32
3327.00,100.32
3326.00,100.32
3325.00,100.32
3324.00,100.31
3323.00,100.31
3322.00,100.31
3321.00,100.31
3320.00,100.31
3319.00,100.31
3318.00,100.32
3317.00,100.32
3316.00,100.32
3315.00,100.32
3314.00,100.32
3313.00,100.32
3312.00,100.32
3311.00,100.32
3310.00,100.32
3309.00,100.32
3308.00,100.32
3307.00,100.32
3306.00,100.32
3305.00,100.32
3304.00,100.32
3303.00,100.32
3302.00,100.32
3301.00,100.31
3300.00,100.31
3299.00,100.31
3298.00,100.31
3297.00,100.32
3296.00,100.32
3295.00,100.32
3294.00,100.32
3293.00,100.32
3292.00,100.32
3291.00,100.32
3290.00,100.32
3289.00,100.32
3288.00,100.32
3287.00,100.32
3286.00,100.32
3285.00,100.32
3284.00,100.32
3283.00,100.32
3282.00,100.32
3281.00,100.32
3280.00,100.32
3279.00,100.32
3278.00,100.32
3277.00,100.32
3276.00,100.32
3275.00,100.32
3274.00,100.32
3273.00,100.32
3272.00,100.32
3271.00,100.32
3270.00,100.32
3269.00,100.32
3268.00,100.32
3267.00,100.32
3266.00,100.31
3265.00,100.31
3264.00,100.31
3263.00,100.31
3262.00,100.32
3261.00,100.32
3260.00,100.32
3259.00,100.32
3258.00,100.32
3257.00,100.32
3256.00,100.32
3255.00,100.32
3254.00,100.32
3253.00,100.32
3252.00,100.32
3251.00,100.32
3250.00,100.32
3249.00,100.32
3248.00,100.32
3247.00,100.32
3246.00,100.32
3245.00,100.32
3244.00,100.32
3243.00,100.32
3242.00,100.32
3241.00,100.32
3240.00,100.32
3239.00,100.32
3238.00,100.32
3237.00,100.32
3236.00,100.32
3235.00,100.32
3234.00,100.32
3233.00,100.32
3232.00,100.32
3231.00,100.32
3230.00,100.32
3229.00,100.32
3228.00,100.32
3227.00,100.32
3226.00,100.32
3225.00,100.32
3224.00,100.32
3223.00,100.32
3222.00,100.32
3221.00,100.32
3220.00,100.32
3219.00,100.32
3218.00,100.32
3217.00,100.32
3216.00,100.32
3215.00,100.32
3214.00,100.32
3213.00,100.32
3212.00,100.32
3211.00,100.32
3210.00,100.32
3209.00,100.32
3208.00,100.32
3207.00,100.32
3206.00,100.31
3205.00,100.31
3204.00,100.31
3203.00,100.31
3202.00,100.31
3201.00,100.31
3200.00,100.31
3199.00,100.31
3198.00,100.31
3197.00,100.31
3196.00,100.31
3195.00,100.31
3194.00,100.31
3193.00,100.31
3192.00,100.31
3191.00,100.31
3190.00,100.31
3189.00,100.31
3188.00,100.31
3187.00,100.31
3186.00,100.31
3185.00,100.32
3184.00,100.32
3183.00,100.32
3182.00,100.32
3181.00,100.32
3180.00,100.32
3179.00,100.32
3178.00,100.32
3177.00,100.32
3176.00,100.32
3175.00,100.32
3174.00,100.32
3173.00,100.32
3172.00,100.32
3171.00,100.32
3170.00,100.32
3169.00,100.32
3168.00,100.32
3167.00,100.32
3166.00,100.32
3165.00,100.32
3164.00,100.32
3163.00,100.32
3162.00,100.32
3161.00,100.32
3160.00,100.32
3159.00,100.32
3158.00,100.32
3157.00,100.32
3156.00,100.32
3155.00,100.32
3154.00,100.31
3153.00,100.32
3152.00,100.32
3151.00,100.32
3150.00,100.32
3149.00,100.32
3148.00,100.32
3147.00,100.32
3146.00,100.31
3145.00,100.31
3144.00,100.31
3143.00,100.32
3142.00,100.32
3141.00,100.32
3140.00,100.32
3139.00,100.32
3138.00,100.32
3137.00,100.32
3136.00,100.32
3135.00,100.32
3134.00,100.32
3133.00,100.32
3132.00,100.32
3131.00,100.32
3130.00,100.32
3129.00,100.32
3128.00,100.32
3127.00,100.32
3126.00,100.32
3125.00,100.32
3124.00,100.32
3123.00,100.32
3122.00,100.32
3121.00,100.32
3120.00,100.32
3119.00,100.32
3118.00,100.32
3117.00,100.32
3116.00,100.32
3115.00,100.32
3114.00,100.32
3113.00,100.32
3112.00,100.31
3111.00,100.31
3110.00,100.31
3109.00,100.32
3108.00,100.32
3107.00,100.32
3106.00,100.31
3105.00,100.31
3104.00,100.31
3103.00,100.31
3102.00,100.32
3101.00,100.32
3100.00,100.32
3099.00,100.32
3098.00,100.32
3097.00,100.32
3096.00,100.31
3095.00,100.31
3094.00,100.32
3093.00,100.32
3092.00,100.32
3091.00,100.32
3090.00,100.32
3089.00,100.32
3088.00,100.32
3087.00,100.32
3086.00,100.32
3085.00,100.32
3084.00,100.32
3083.00,100.32
3082.00,100.32
3081.00,100.32
3080.00,100.32
3079.00,100.32
3078.00,100.32
3077.00,100.32
3076.00,100.32
3075.00,100.32
3074.00,100.32
3073.00,100.32
3072.00,100.32
3071.00,100.32
3070.00,100.32
3069.00,100.32
3068.00,100.32
3067.00,100.32
3066.00,100.32
3065.00,100.32
3064.00,100.32
3063.00,100.32
3062.00,100.32
3061.00,100.32
3060.00,100.32
3059.00,100.32
3058.00,100.32
3057.00,100.32
3056.00,100.32
3055.00,100.32
3054.00,100.32
3053.00,100.32
3052.00,100.32
3051.00,100.32
3050.00,100.32
3049.00,100.32
3048.00,100.32
3047.00,100.32
3046.00,100.32
3045.00,100.32
3044.00,100.32
3043.00,100.32
3042.00,100.32
3041.00,100.32
3040.00,100.32
3039.00,100.32
3038.00,100.32
3037.00,100.32
3036.00,100.32
3035.00,100.32
3034.00,100.32
3033.00,100.32
3032.00,100.32
3031.00,100.32
3030.00,100.32
3029.00,100.32
3028.00,100.32
3027.00,100.32
3026.00,100.32
3025.00,100.32
3024.00,100.32
3023.00,100.32
3022.00,100.32
3021.00,100.32
3020.00,100.32
3019.00,100.32
3018.00,100.32
3017.00,100.32
3016.00,100.32
3015.00,100.32
3014.00,100.32
3013.00,100.32
3012.00,100.32
3011.00,100.32
3010.00,100.32
3009.00,100.32
3008.00,100.32
3007.00,100.32
3006.00,100.32
3005.00,100.31
3004.00,100.31
3003.00,100.31
3002.00,100.31
3001.00,100.31
3000.00,100.32
2999.00,100.32
2998.00,100.32
2997.00,100.32
2996.00,100.32
2995.00,100.32
2994.00,100.32
2993.00,100.32
2992.00,100.32
2991.00,100.32
2990.00,100.32
2989.00,100.32
2988.00,100.32
2987.00,100.32
2986.00,100.32
2985.00,100.32
2984.00,100.32
2983.00,100.32
2982.00,100.32
2981.00,100.32
2980.00,100.32
2979.00,100.32
2978.00,100.32
2977.00,100.32
2976.00,100.32
2975.00,100.32
2974.00,100.32
2973.00,100.32
2972.00,100.32
2971.00,100.32
2970.00,100.32
2969.00,100.32
2968.00,100.32
2967.00,100.32
2966.00,100.32
2965.00,100.32
2964.00,100.32
2963.00,100.32
2962.00,100.32
2961.00,100.32
2960.00,100.32
2959.00,100.32
2958.00,100.32
2957.00,100.32
2956.00,100.32
2955.00,100.32
2954.00,100.32
2953.00,100.32
2952.00,100.32
2951.00,100.32
2950.00,100.32
2949.00,100.32
2948.00,100.32
2947.00,100.32
2946.00,100.32
2945.00,100.32
2944.00,100.31
2943.00,100.31
2942.00,100.31
2941.00,100.31
2940.00,100.31
2939.00,100.31
2938.00,100.31
2937.00,100.31
2936.00,100.31
2935.00,100.31
2934.00,100.31
2933.00,100.31
2932.00,100.31
2931.00,100.31
2930.00,100.31
2929.00,100.32
2928.00,100.31
2927.00,100.31
2926.00,100.31
2925.00,100.31
2924.00,100.31
2923.00,100.31
2922.00,100.31
2921.00,100.31
2920.00,100.31
2919.00,100.31
2918.00,100.31
2917.00,100.31
2916.00,100.32
2915.00,100.32
2914.00,100.32
2913.00,100.32
2912.00,100.32
2911.00,100.32
2910.00,100.32
2909.00,100.32
2908.00,100.32
2907.00,100.32
2906.00,100.32
2905.00,100.32
2904.00,100.32
2903.00,100.32
2902.00,100.32
2901.00,100.32
2900.00,100.32
2899.00,100.32
2898.00,100.32
2897.00,100.32
2896.00,100.32
2895.00,100.32
2894.00,100.32
2893.00,100.32
2892.00,100.32
2891.00,100.32
2890.00,100.32
2889.00,100.32
2888.00,100.32
2887.00,100.32
2886.00,100.32
2885.00,100.32
2884.00,100.32
2883.00,100.32
2882.00,100.32
2881.00,100.32
2880.00,100.32
2879.00,100.32
2878.00,100.32
2877.00,100.32
2876.00,100.32
2875.00,100.32
2874.00,100.32
2873.00,100.32
2872.00,100.32
2871.00,100.32
2870.00,100.32
2869.00,100.32
2868.00,100.32
2867.00,100.32
2866.00,100.32
2865.00,100.32
2864.00,100.32
2863.00,100.32
2862.00,100.32
2861.00,100.32
2860.00,100.32
2859.00,100.32
2858.00,100.32
2857.00,100.32
2856.00,100.32
2855.00,100.32
2854.00,100.32
2853.00,100.32
2852.00,100.32
2851.00,100.32
2850.00,100.32
2849.00,100.32
2848.00,100.31
2847.00,100.31
2846.00,100.31
2845.00,100.31
2844.00,100.31
2843.00,100.31
2842.00,100.31
2841.00,100.31
2840.00,100.31
2839.00,100.31
2838.00,100.31
2837.00,100.31
2836.00,100.31
2835.00,100.31
2834.00,100.31
2833.00,100.31
2832.00,100.31
2831.00,100.31
2830.00,100.31
2829.00,100.31
2828.00,100.31
2827.00,100.31
2826.00,100.31
2825.00,100.31
2824.00,100.31
2823.00,100.32
2822.00,100.32
2821.00,100.32
2820.00,100.32
2819.00,100.32
2818.00,100.32
2817.00,100.32
2816.00,100.32
2815.00,100.32
2814.00,100.32
2813.00,100.32
2812.00,100.32
2811.00,100.32
2810.00,100.32
2809.00,100.32
2808.00,100.32
2807.00,100.32
2806.00,100.32
2805.00,100.32
2804.00,100.32
2803.00,100.32
2802.00,100.32
2801.00,100.32
2800.00,100.32
2799.00,100.32
2798.00,100.32
2797.00,100.32
2796.00,100.32
2795.00,100.32
2794.00,100.32
2793.00,100.32
2792.00,100.32
2791.00,100.32
2790.00,100.32
2789.00,100.32
2788.00,100.32
2787.00,100.32
2786.00,100.32
2785.00,100.32
2784.00,100.32
2783.00,100.32
2782.00,100.32
2781.00,100.32
2780.00,100.32
2779.00,100.32
2778.00,100.32
2777.00,100.32
2776.00,100.32
2775.00,100.32
2774.00,100.32
2773.00,100.32
2772.00,100.32
2771.00,100.32
2770.00,100.32
2769.00,100.32
2768.00,100.32
2767.00,100.32
2766.00,100.32
2765.00,100.32
2764.00,100.32
2763.00,100.32
2762.00,100.32
2761.00,100.32
2760.00,100.32
2759.00,100.32
2758.00,100.32
2757.00,100.32
2756.00,100.32
2755.00,100.32
2754.00,100.32
2753.00,100.32
2752.00,100.32
2751.00,100.32
2750.00,100.32
2749.00,100.32
2748.00,100.32
2747.00,100.32
2746.00,100.32
2745.00,100.32
2744.00,100.32
2743.00,100.32
2742.00,100.32
2741.00,100.32
2740.00,100.32
2739.00,100.32
2738.00,100.32
2737.00,100.32
2736.00,100.32
2735.00,100.32
2734.00,100.32
2733.00,100.32
2732.00,100.32
2731.00,100.32
2730.00,100.32
2729.00,100.32
2728.00,100.32
2727.00,100.32
2726.00,100.32
2725.00,100.32
2724.00,100.32
2723.00,100.32
2722.00,100.32
2721.00,100.32
2720.00,100.32
2719.00,100.32
2718.00,100.32
2717.00,100.32
2716.00,100.32
2715.00,100.32
2714.00,100.32
2713.00,100.32
2712.00,100.32
2711.00,100.32
2710.00,100.32
2709.00,100.32
2708.00,100.32
2707.00,100.32
2706.00,100.32
2705.00,100.32
2704.00,100.32
2703.00,100.32
2702.00,100.32
2701.00,100.32
2700.00,100.32
2699.00,100.32
2698.00,100.32
2697.00,100.32
2696.00,100.32
2695.00,100.32
2694.00,100.32
2693.00,100.32
2692.00,100.32
2691.00,100.32
2690.00,100.32
2689.00,100.32
2688.00,100.32
2687.00,100.32
2686.00,100.32
2685.00,100.32
2684.00,100.32
2683.00,100.32
2682.00,100.32
2681.00,100.32
2680.00,100.32
2679.00,100.32
2678.00,100.32
2677.00,100.31
2676.00,100.31
2675.00,100.31
2674.00,100.31
2673.00,100.31
2672.00,100.31
2671.00,100.31
2670.00,100.31
2669.00,100.31
2668.00,100.31
2667.00,100.31
2666.00,100.31
2665.00,100.31
2664.00,100.31
2663.00,100.32
2662.00,100.32
2661.00,100.32
2660.00,100.32
2659.00,100.32
2658.00,100.32
2657.00,100.32
2656.00,100.32
2655.00,100.32
2654.00,100.32
2653.00,100.32
2652.00,100.32
2651.00,100.32
2650.00,100.32
2649.00,100.32
2648.00,100.32
2647.00,100.32
2646.00,100.32
2645.00,100.32
2644.00,100.32
2643.00,100.32
2642.00,100.32
2641.00,100.32
2640.00,100.32
2639.00,100.32
2638.00,100.32
2637.00,100.32
2636.00,100.32
2635.00,100.32
2634.00,100.32
2633.00,100.32
2632.00,100.32
2631.00,100.32
2630.00,100.32
2629.00,100.32
2628.00,100.32
2627.00,100.32
2626.00,100.32
2625.00,100.32
2624.00,100.32
2623.00,100.32
2622.00,100.32
2621.00,100.32
2620.00,100.32
2619.00,100.32
2618.00,100.32
2617.00,100.32
2616.00,100.32
2615.00,100.32
2614.00,100.32
2613.00,100.32
2612.00,100.32
2611.00,100.32
2610.00,100.32
2609.00,100.32
2608.00,100.32
2607.00,100.32
2606.00,100.32
2605.00,100.32
2604.00,100.32
2603.00,100.32
2602.00,100.32
2601.00,100.32
2600.00,100.32
2599.00,100.32
2598.00,100.32
2597.00,100.32
2596.00,100.32
2595.00,100.32
2594.00,100.32
2593.00,100.32
2592.00,100.32
2591.00,100.32
2590.00,100.32
2589.00,100.32
2588.00,100.32
2587.00,100.32
2586.00,100.32
2585.00,100.32
2584.00,100.32
2583.00,100.32
2582.00,100.32
2581.00,100.32
2580.00,100.32
2579.00,100.32
2578.00,100.32
2577.00,100.32
2576.00,100.32
2575.00,100.32
2574.00,100.32
2573.00,100.32
2572.00,100.32
2571.00,100.32
2570.00,100.32
2569.00,100.31
2568.00,100.31
2567.00,100.31
2566.00,100.31
2565.00,100.32
2564.00,100.32
2563.00,100.31
2562.00,100.31
2561.00,100.31
2560.00,100.32
2559.00,100.32
2558.00,100.32
2557.00,100.32
2556.00,100.32
2555.00,100.32
2554.00,100.32
2553.00,100.32
2552.00,100.32
2551.00,100.32
2550.00,100.32
2549.00,100.32
2548.00,100.32
2547.00,100.32
2546.00,100.32
2545.00,100.32
2544.00,100.32
2543.00,100.32
2542.00,100.32
2541.00,100.32
2540.00,100.32
2539.00,100.32
2538.00,100.32
2537.00,100.32
2536.00,100.32
2535.00,100.32
2534.00,100.32
2533.00,100.32
2532.00,100.32
2531.00,100.32
2530.00,100.32
2529.00,100.32
2528.00,100.32
2527.00,100.32
2526.00,100.32
2525.00,100.32
2524.00,100.32
2523.00,100.32
2522.00,100.32
2521.00,100.32
2520.00,100.32
2519.00,100.32
2518.00,100.32
2517.00,100.32
2516.00,100.32
2515.00,100.32
2514.00,100.32
2513.00,100.32
2512.00,100.32
2511.00,100.32
2510.00,100.32
2509.00,100.32
2508.00,100.32
2507.00,100.32
2506.00,100.32
2505.00,100.32
2504.00,100.32
2503.00,100.32
2502.00,100.32
2501.00,100.32
2500.00,100.32
2499.00,100.32
2498.00,100.32
2497.00,100.32
2496.00,100.32
2495.00,100.32
2494.00,100.32
2493.00,100.32
2492.00,100.32
2491.00,100.32
2490.00,100.32
2489.00,100.32
2488.00,100.32
2487.00,100.32
2486.00,100.32
2485.00,100.32
2484.00,100.32
2483.00,100.32
2482.00,100.32
2481.00,100.32
2480.00,100.32
2479.00,100.32
2478.00,100.32
2477.00,100.32
2476.00,100.32
2475.00,100.32
2474.00,100.32
2473.00,100.32
2472.00,100.32
2471.00,100.32
2470.00,100.32
2469.00,100.32
2468.00,100.32
2467.00,100.32
2466.00,100.32
2465.00,100.32
2464.00,100.32
2463.00,100.32
2462.00,100.32
2461.00,100.32
2460.00,100.32
2459.00,100.32
2458.00,100.32
2457.00,100.32
2456.00,100.32
2455.00,100.32
2454.00,100.32
2453.00,100.32
2452.00,100.32
2451.00,100.32
2450.00,100.32
2449.00,100.32
2448.00,100.32
2447.00,100.32
2446.00,100.32
2445.00,100.32
2444.00,100.32
2443.00,100.32
2442.00,100.32
2441.00,100.32
2440.00,100.32
2439.00,100.32
2438.00,100.32
2437.00,100.32
2436.00,100.32
2435.00,100.32
2434.00,100.32
2433.00,100.32
2432.00,100.32
2431.00,100.32
2430.00,100.32
2429.00,100.32
2428.00,100.32
2427.00,100.32
2426.00,100.32
2425.00,100.32
2424.00,100.32
2423.00,100.32
2422.00,100.32
2421.00,100.32
2420.00,100.32
2419.00,100.32
2418.00,100.32
2417.00,100.32
2416.00,100.32
2415.00,100.32
2414.00,100.32
2413.00,100.32
2412.00,100.32
2411.00,100.32
2410.00,100.32
2409.00,100.32
2408.00,100.32
2407.00,100.32
2406.00,100.32
2405.00,100.32
2404.00,100.32
2403.00,100.32
2402.00,100.32
2401.00,100.32
2400.00,100.32
2399.00,100.32
2398.00,100.32
2397.00,100.32
2396.00,100.32
2395.00,100.32
2394.00,100.32
2393.00,100.32
2392.00,100.32
2391.00,100.32
2390.00,100.32
2389.00,100.32
2388.00,100.32
2387.00,100.32
2386.00,100.32
2385.00,100.31
2384.00,100.31
2383.00,100.31
2382.00,100.31
2381.00,100.31
2380.00,100.31
2379.00,100.31
2378.00,100.31
2377.00,100.31
2376.00,100.31
2375.00,100.31
2374.00,100.31
2373.00,100.31
2372.00,100.31
2371.00,100.31
2370.00,100.31
2369.00,100.31
2368.00,100.31
2367.00,100.31
2366.00,100.31
2365.00,100.31
2364.00,100.31
2363.00,100.31
2362.00,100.31
2361.00,100.31
2360.00,100.31
2359.00,100.30
2358.00,100.30
2357.00,100.30
2356.00,100.30
2355.00,100.30
2354.00,100.30
2353.00,100.30
2352.00,100.30
2351.00,100.31
2350.00,100.31
2349.00,100.31
2348.00,100.31
2347.00,100.31
2346.00,100.30
2345.00,100.30
2344.00,100.30
2343.00,100.31
2342.00,100.31
2341.00,100.31
2340.00,100.31
2339.00,100.31
2338.00,100.31
2337.00,100.31
2336.00,100.31
2335.00,100.31
2334.00,100.31
2333.00,100.31
2332.00,100.31
2331.00,100.31
2330.00,100.31
2329.00,100.31
2328.00,100.31
2327.00,100.31
2326.00,100.31
2325.00,100.31
2324.00,100.31
2323.00,100.31
2322.00,100.31
2321.00,100.31
2320.00,100.32
2319.00,100.32
2318.00,100.32
2317.00,100.32
2316.00,100.32
2315.00,100.32
2314.00,100.32
2313.00,100.31
2312.00,100.32
2311.00,100.32
2310.00,100.32
2309.00,100.32
2308.00,100.32
2307.00,100.32
2306.00,100.32
2305.00,100.32
2304.00,100.32
2303.00,100.32
2302.00,100.32
2301.00,100.32
2300.00,100.32
2299.00,100.32
2298.00,100.32
2297.00,100.32
2296.00,100.32
2295.00,100.32
2294.00,100.32
2293.00,100.32
2292.00,100.32
2291.00,100.32
2290.00,100.32
2289.00,100.32
2288.00,100.32
2287.00,100.33
2286.00,100.33
2285.00,100.33
2284.00,100.33
2283.00,100.33
2282.00,100.33
2281.00,100.33
2280.00,100.33
2279.00,100.33
2278.00,100.33
2277.00,100.33
2276.00,100.33
2275.00,100.33
2274.00,100.33
2273.00,100.33
2272.00,100.33
2271.00,100.33
2270.00,100.33
2269.00,100.33
2268.00,100.33
2267.00,100.33
2266.00,100.33
2265.00,100.33
2264.00,100.33
2263.00,100.33
2262.00,100.33
2261.00,100.33
2260.00,100.33
2259.00,100.33
2258.00,100.33
2257.00,100.33
2256.00,100.32
2255.00,100.32
2254.00,100.32
2253.00,100.32
2252.00,100.32
2251.00,100.32
2250.00,100.32
2249.00,100.32
2248.00,100.32
2247.00,100.32
2246.00,100.32
2245.00,100.32
2244.00,100.32
2243.00,100.32
2242.00,100.32
2241.00,100.32
2240.00,100.32
2239.00,100.32
2238.00,100.32
2237.00,100.32
2236.00,100.32
2235.00,100.32
2234.00,100.32
2233.00,100.32
2232.00,100.32
2231.00,100.32
2230.00,100.32
2229.00,100.32
2228.00,100.32
2227.00,100.32
2226.00,100.32
2225.00,100.32
2224.00,100.32
2223.00,100.32
2222.00,100.32
2221.00,100.33
2220.00,100.33
2219.00,100.32
2218.00,100.32
2217.00,100.32
2216.00,100.32
2215.00,100.32
2214.00,100.33
2213.00,100.33
2212.00,100.33
2211.00,100.33
2210.00,100.33
2209.00,100.32
2208.00,100.32
2207.00,100.32
2206.00,100.32
2205.00,100.32
2204.00,100.32
2203.00,100.32
2202.00,100.32
2201.00,100.32
2200.00,100.32
2199.00,100.32
2198.00,100.32
2197.00,100.32
2196.00,100.32
2195.00,100.32
2194.00,100.32
2193.00,100.32
2192.00,100.32
2191.00,100.32
2190.00,100.32
2189.00,100.32
2188.00,100.32
2187.00,100.32
2186.00,100.32
2185.00,100.32
2184.00,100.32
2183.00,100.32
2182.00,100.32
2181.00,100.32
2180.00,100.33
2179.00,100.33
2178.00,100.33
2177.00,100.32
2176.00,100.33
2175.00,100.33
2174.00,100.33
2173.00,100.33
2172.00,100.33
2171.00,100.33
2170.00,100.32
2169.00,100.32
2168.00,100.33
2167.00,100.33
2166.00,100.33
2165.00,100.33
2164.00,100.33
2163.00,100.33
2162.00,100.33
2161.00,100.33
2160.00,100.32
2159.00,100.32
2158.00,100.32
2157.00,100.32
2156.00,100.32
2155.00,100.32
2154.00,100.32
2153.00,100.32
2152.00,100.32
2151.00,100.32
2150.00,100.32
2149.00,100.32
2148.00,100.32
2147.00,100.32
2146.00,100.32
2145.00,100.32
2144.00,100.32
2143.00,100.32
2142.00,100.32
2141.00,100.32
2140.00,100.32
2139.00,100.32
2138.00,100.32
2137.00,100.32
2136.00,100.32
2135.00,100.32
2134.00,100.32
2133.00,100.32
2132.00,100.32
2131.00,100.32
2130.00,100.32
2129.00,100.32
2128.00,100.32
2127.00,100.32
2126.00,100.32
2125.00,100.32
2124.00,100.32
2123.00,100.32
2122.00,100.32
2121.00,100.32
2120.00,100.32
2119.00,100.33
2118.00,100.33
2117.00,100.33
2116.00,100.33
2115.00,100.33
2114.00,100.33
2113.00,100.33
2112.00,100.33
2111.00,100.33
2110.00,100.33
2109.00,100.33
2108.00,100.33
2107.00,100.33
2106.00,100.33
2105.00,100.33
2104.00,100.33
2103.00,100.33
2102.00,100.33
2101.00,100.33
2100.00,100.33
2099.00,100.33
2098.00,100.33
2097.00,100.33
2096.00,100.33
2095.00,100.33
2094.00,100.33
2093.00,100.33
2092.00,100.33
2091.00,100.33
2090.00,100.33
2089.00,100.33
2088.00,100.33
2087.00,100.33
2086.00,100.33
2085.00,100.33
2084.00,100.32
2083.00,100.32
2082.00,100.32
2081.00,100.32
2080.00,100.32
2079.00,100.32
2078.00,100.32
2077.00,100.32
2076.00,100.32
2075.00,100.32
2074.00,100.32
2073.00,100.32
2072.00,100.33
2071.00,100.33
2070.00,100.33
2069.00,100.33
2068.00,100.33
2067.00,100.33
2066.00,100.33
2065.00,100.33
2064.00,100.33
2063.00,100.33
2062.00,100.33
2061.00,100.33
2060.00,100.33
2059.00,100.33
2058.00,100.33
2057.00,100.33
2056.00,100.33
2055.00,100.33
2054.00,100.33
2053.00,100.33
2052.00,100.33
2051.00,100.33
2050.00,100.33
2049.00,100.33
2048.00,100.33
2047.00,100.33
2046.00,100.32
2045.00,100.32
2044.00,100.32
2043.00,100.32
2042.00,100.32
2041.00,100.32
2040.00,100.32
2039.00,100.32
2038.00,100.32
2037.00,100.32
2036.00,100.32
2035.00,100.32
2034.00,100.32
2033.00,100.32
2032.00,100.32
2031.00,100.32
2030.00,100.32
2029.00,100.32
2028.00,100.32
2027.00,100.32
2026.00,100.32
2025.00,100.32
2024.00,100.32
2023.00,100.32
2022.00,100.32
2021.00,100.32
2020.00,100.32
2019.00,100.32
2018.00,100.32
2017.00,100.32
2016.00,100.32
2015.00,100.33
2014.00,100.33
2013.00,100.33
2012.00,100.33
2011.00,100.33
2010.00,100.33
2009.00,100.33
2008.00,100.33
2007.00,100.33
2006.00,100.33
2005.00,100.33
2004.00,100.33
2003.00,100.33
2002.00,100.33
2001.00,100.33
2000.00,100.33
1999.00,100.33
1998.00,100.33
1997.00,100.33
1996.00,100.33
1995.00,100.33
1994.00,100.33
1993.00,100.33
1992.00,100.33
1991.00,100.32
1990.00,100.33
1989.00,100.33
1988.00,100.33
1987.00,100.33
1986.00,100.32
1985.00,100.32
1984.00,100.32
1983.00,100.32
1982.00,100.32
1981.00,100.32
1980.00,100.32
1979.00,100.32
1978.00,100.32
1977.00,100.32
1976.00,100.32
1975.00,100.32
1974.00,100.32
1973.00,100.32
1972.00,100.32
1971.00,100.32
1970.00,100.32
1969.00,100.32
1968.00,100.32
1967.00,100.32
1966.00,100.32
1965.00,100.32
1964.00,100.33
1963.00,100.33
1962.00,100.33
1961.00,100.32
1960.00,100.32
1959.00,100.32
1958.00,100.32
1957.00,100.32
1956.00,100.32
1955.00,100.33
1954.00,100.33
1953.00,100.33
1952.00,100.33
1951.00,100.32
1950.00,100.32
1949.00,100.32
1948.00,100.32
1947.00,100.32
1946.00,100.32
1945.00,100.32
1944.00,100.32
1943.00,100.32
1942.00,100.32
1941.00,100.32
1940.00,100.32
1939.00,100.32
1938.00,100.32
1937.00,100.32
1936.00,100.32
1935.00,100.32
1934.00,100.32
1933.00,100.32
1932.00,100.32
1931.00,100.32
1930.00,100.32
1929.00,100.32
1928.00,100.32
1927.00,100.32
1926.00,100.32
1925.00,100.32
1924.00,100.32
1923.00,100.32
1922.00,100.32
1921.00,100.32
1920.00,100.32
1919.00,100.33
1918.00,100.32
1917.00,100.32
1916.00,100.32
1915.00,100.33
1914.00,100.33
1913.00,100.33
1912.00,100.33
1911.00,100.33
1910.00,100.32
1909.00,100.32
1908.00,100.32
1907.00,100.33
1906.00,100.33
1905.00,100.33
1904.00,100.33
1903.00,100.33
1902.00,100.33
1901.00,100.33
1900.00,100.33
1899.00,100.33
1898.00,100.33
1897.00,100.33
1896.00,100.33
1895.00,100.33
1894.00,100.33
1893.00,100.33
1892.00,100.33
1891.00,100.33
1890.00,100.33
1889.00,100.33
1888.00,100.32
1887.00,100.33
1886.00,100.33
1885.00,100.33
1884.00,100.32
1883.00,100.33
1882.00,100.33
1881.00,100.33
1880.00,100.32
1879.00,100.32
1878.00,100.32
1877.00,100.32
1876.00,100.32
1875.00,100.32
1874.00,100.32
1873.00,100.32
1872.00,100.32
1871.00,100.32
1870.00,100.32
1869.00,100.32
1868.00,100.32
1867.00,100.32
1866.00,100.33
1865.00,100.33
1864.00,100.33
1863.00,100.32
1862.00,100.32
1861.00,100.32
1860.00,100.32
1859.00,100.32
1858.00,100.33
1857.00,100.33
1856.00,100.32
1855.00,100.32
1854.00,100.33
1853.00,100.33
1852.00,100.33
1851.00,100.33
1850.00,100.33
1849.00,100.33
1848.00,100.33
1847.00,100.33
1846.00,100.33
1845.00,100.33
1844.00,100.33
1843.00,100.33
1842.00,100.33
1841.00,100.33
1840.00,100.33
1839.00,100.33
1838.00,100.33
1837.00,100.33
1836.00,100.33
1835.00,100.33
1834.00,100.33
1833.00,100.33
1832.00,100.33
1831.00,100.33
1830.00,100.33
1829.00,100.33
1828.00,100.33
1827.00,100.33
1826.00,100.33
1825.00,100.33
1824.00,100.33
1823.00,100.33
1822.00,100.33
1821.00,100.33
1820.00,100.32
1819.00,100.32
1818.00,100.32
1817.00,100.32
1816.00,100.32
1815.00,100.32
1814.00,100.32
1813.00,100.33
1812.00,100.33
1811.00,100.33
1810.00,100.33
1809.00,100.33
1808.00,100.33
1807.00,100.33
1806.00,100.33
1805.00,100.33
1804.00,100.33
1803.00,100.33
1802.00,100.33
1801.00,100.33
1800.00,100.33
1799.00,100.33
1798.00,100.33
1797.00,100.33
1796.00,100.33
1795.00,100.33
1794.00,100.33
1793.00,100.33
1792.00,100.33
1791.00,100.33
1790.00,100.33
1789.00,100.34
1788.00,100.34
1787.00,100.33
1786.00,100.33
1785.00,100.33
1784.00,100.33
1783.00,100.33
1782.00,100.33
1781.00,100.33
1780.00,100.33
1779.00,100.33
1778.00,100.33
1777.00,100.33
1776.00,100.33
1775.00,100.33
1774.00,100.33
1773.00,100.33
1772.00,100.33
1771.00,100.33
1770.00,100.33
1769.00,100.34
1768.00,100.34
1767.00,100.33
1766.00,100.33
1765.00,100.33
1764.00,100.33
1763.00,100.33
1762.00,100.33
1761.00,100.33
1760.00,100.33
1759.00,100.33
1758.00,100.33
1757.00,100.34
1756.00,100.33
1755.00,100.34
1754.00,100.34
1753.00,100.35
1752.00,100.35
1751.00,100.35
1750.00,100.35
1749.00,100.35
1748.00,100.35
1747.00,100.35
1746.00,100.35
1745.00,100.35
1744.00,100.35
1743.00,100.34
1742.00,100.34
1741.00,100.34
1740.00,100.34
1739.00,100.34
1738.00,100.34
1737.00,100.34
1736.00,100.35
1735.00,100.35
1734.00,100.35
1733.00,100.35
1732.00,100.35
1731.00,100.35
1730.00,100.35
1729.00,100.34
1728.00,100.34
1727.00,100.34
1726.00,100.34
1725.00,100.34
1724.00,100.34
1723.00,100.34
1722.00,100.33
1721.00,100.33
1720.00,100.33
1719.00,100.34
1718.00,100.34
1717.00,100.34
1716.00,100.34
1715.00,100.34
1714.00,100.35
1713.00,100.34
1712.00,100.34
1711.00,100.34
1710.00,100.34
1709.00,100.34
1708.00,100.33
1707.00,100.33
1706.00,100.34
1705.00,100.33
1704.00,100.33
1703.00,100.33
1702.00,100.34
1701.00,100.34
1700.00,100.34
1699.00,100.34
1698.00,100.35
1697.00,100.35
1696.00,100.35
1695.00,100.34
1694.00,100.34
1693.00,100.34
1692.00,100.35
1691.00,100.35
1690.00,100.34
1689.00,100.34
1688.00,100.34
1687.00,100.34
1686.00,100.34
1685.00,100.34
1684.00,100.34
1683.00,100.34
1682.00,100.35
1681.00,100.35
1680.00,100.35
1679.00,100.35
1678.00,100.34
1677.00,100.34
1676.00,100.34
1675.00,100.34
1674.00,100.34
1673.00,100.34
1672.00,100.35
1671.00,100.35
1670.00,100.34
1669.00,100.34
1668.00,100.34
1667.00,100.34
1666.00,100.34
1665.00,100.34
1664.00,100.34
1663.00,100.34
1662.00,100.34
1661.00,100.34
1660.00,100.34
1659.00,100.34
1658.00,100.34
1657.00,100.33
1656.00,100.33
1655.00,100.33
1654.00,100.33
1653.00,100.33
1652.00,100.33
1651.00,100.34
1650.00,100.35
1649.00,100.35
1648.00,100.36
1647.00,100.35
1646.00,100.35
1645.00,100.35
1644.00,100.35
1643.00,100.35
1642.00,100.35
1641.00,100.35
1640.00,100.34
1639.00,100.34
1638.00,100.34
1637.00,100.34
1636.00,100.35
1635.00,100.35
1634.00,100.35
1633.00,100.35
1632.00,100.35
1631.00,100.35
1630.00,100.35
1629.00,100.34
1628.00,100.34
1627.00,100.34
1626.00,100.34
1625.00,100.34
1624.00,100.34
1623.00,100.34
1622.00,100.34
1621.00,100.34
1620.00,100.34
1619.00,100.34
1618.00,100.34
1617.00,100.33
1616.00,100.33
1615.00,100.33
1614.00,100.34
1613.00,100.34
1612.00,100.34
1611.00,100.34
1610.00,100.33
1609.00,100.33
1608.00,100.33
1607.00,100.33
1606.00,100.33
1605.00,100.33
1604.00,100.33
1603.00,100.33
1602.00,100.33
1601.00,100.33
1600.00,100.33
1599.00,100.33
1598.00,100.33
1597.00,100.33
1596.00,100.33
1595.00,100.33
1594.00,100.33
1593.00,100.33
1592.00,100.33
1591.00,100.33
1590.00,100.33
1589.00,100.33
1588.00,100.33
1587.00,100.34
1586.00,100.34
1585.00,100.34
1584.00,100.34
1583.00,100.34
1582.00,100.34
1581.00,100.33
1580.00,100.33
1579.00,100.33
1578.00,100.33
1577.00,100.33
1576.00,100.34
1575.00,100.34
1574.00,100.34
1573.00,100.34
1572.00,100.34
1571.00,100.34
1570.00,100.34
1569.00,100.34
1568.00,100.34
1567.00,100.35
1566.00,100.35
1565.00,100.34
1564.00,100.34
1563.00,100.33
1562.00,100.33
1561.00,100.33
1560.00,100.34
1559.00,100.34
1558.00,100.35
1557.00,100.35
1556.00,100.36
1555.00,100.36
1554.00,100.35
1553.00,100.35
1552.00,100.35
1551.00,100.35
1550.00,100.34
1549.00,100.34
1548.00,100.34
1547.00,100.34
1546.00,100.34
1545.00,100.34
1544.00,100.34
1543.00,100.35
1542.00,100.35
1541.00,100.35
1540.00,100.36
1539.00,100.36
1538.00,100.35
1537.00,100.35
1536.00,100.35
1535.00,100.35
1534.00,100.35
1533.00,100.35
1532.00,100.35
1531.00,100.35
1530.00,100.35
1529.00,100.35
1528.00,100.35
1527.00,100.35
1526.00,100.35
1525.00,100.35
1524.00,100.35
1523.00,100.35
1522.00,100.35
1521.00,100.35
1520.00,100.35
1519.00,100.35
1518.00,100.36
1517.00,100.36
1516.00,100.35
1515.00,100.35
1514.00,100.35
1513.00,100.35
1512.00,100.35
1511.00,100.35
1510.00,100.35
1509.00,100.35
1508.00,100.35
1507.00,100.36
1506.00,100.36
1505.00,100.36
1504.00,100.35
1503.00,100.35
1502.00,100.35
1501.00,100.35
1500.00,100.34
1499.00,100.34
1498.00,100.34
1497.00,100.34
1496.00,100.34
1495.00,100.34
1494.00,100.34
1493.00,100.34
1492.00,100.34
1491.00,100.34
1490.00,100.34
1489.00,100.34
1488.00,100.34
1487.00,100.34
1486.00,100.34
1485.00,100.34
1484.00,100.34
1483.00,100.34
1482.00,100.34
1481.00,100.34
1480.00,100.34
1479.00,100.34
1478.00,100.34
1477.00,100.34
1476.00,100.34
1475.00,100.35
1474.00,100.35
1473.00,100.36
1472.00,100.35
1471.00,100.35
1470.00,100.35
1469.00,100.35
1468.00,100.35
1467.00,100.34
1466.00,100.34
1465.00,100.34
1464.00,100.34
1463.00,100.34
1462.00,100.35
1461.00,100.34
1460.00,100.34
1459.00,100.34
1458.00,100.34
1457.00,100.35
1456.00,100.35
1455.00,100.35
1454.00,100.35
1453.00,100.35
1452.00,100.34
1451.00,100.34
1450.00,100.34
1449.00,100.34
1448.00,100.34
1447.00,100.34
1446.00,100.34
1445.00,100.34
1444.00,100.34
1443.00,100.34
1442.00,100.33
1441.00,100.34
1440.00,100.34
1439.00,100.34
1438.00,100.34
1437.00,100.34
1436.00,100.34
1435.00,100.34
1434.00,100.34
1433.00,100.35
1432.00,100.34
1431.00,100.34
1430.00,100.34
1429.00,100.34
1428.00,100.34
1427.00,100.34
1426.00,100.34
1425.00,100.35
1424.00,100.35
1423.00,100.34
1422.00,100.34
1421.00,100.34
1420.00,100.34
1419.00,100.34
1418.00,100.35
1417.00,100.35
1416.00,100.35
1415.00,100.35
1414.00,100.34
1413.00,100.34
1412.00,100.34
1411.00,100.34
1410.00,100.34
1409.00,100.34
1408.00,100.34
1407.00,100.34
1406.00,100.34
1405.00,100.34
1404.00,100.34
1403.00,100.34
1402.00,100.34
1401.00,100.34
1400.00,100.34
1399.00,100.34
1398.00,100.34
1397.00,100.34
1396.00,100.34
1395.00,100.34
1394.00,100.34
1393.00,100.34
1392.00,100.34
1391.00,100.34
1390.00,100.34
1389.00,100.34
1388.00,100.34
1387.00,100.34
1386.00,100.34
1385.00,100.34
1384.00,100.34
1383.00,100.34
1382.00,100.34
1381.00,100.34
1380.00,100.34
1379.00,100.34
1378.00,100.34
1377.00,100.34
1376.00,100.34
1375.00,100.34
1374.00,100.34
1373.00,100.34
1372.00,100.34
1371.00,100.35
1370.00,100.34
1369.00,100.34
1368.00,100.34
1367.00,100.34
1366.00,100.34
1365.00,100.34
1364.00,100.34
1363.00,100.34
1362.00,100.34
1361.00,100.34
1360.00,100.34
1359.00,100.35
1358.00,100.34
1357.00,100.34
1356.00,100.34
1355.00,100.34
1354.00,100.34
1353.00,100.34
1352.00,100.34
1351.00,100.34
1350.00,100.34
1349.00,100.34
1348.00,100.34
1347.00,100.34
1346.00,100.34
1345.00,100.34
1344.00,100.34
1343.00,100.34
1342.00,100.34
1341.00,100.34
1340.00,100.34
1339.00,100.34
1338.00,100.34
1337.00,100.34
1336.00,100.34
1335.00,100.34
1334.00,100.34
1333.00,100.34
1332.00,100.34
1331.00,100.34
1330.00,100.34
1329.00,100.34
1328.00,100.34
1327.00,100.34
1326.00,100.34
1325.00,100.34
1324.00,100.34
1323.00,100.34
1322.00,100.34
1321.00,100.34
1320.00,100.34
1319.00,100.34
1318.00,100.34
1317.00,100.34
1316.00,100.34
1315.00,100.34
1314.00,100.34
1313.00,100.34
1312.00,100.34
1311.00,100.34
1310.00,100.34
1309.00,100.34
1308.00,100.34
1307.00,100.34
1306.00,100.34
1305.00,100.34
1304.00,100.35
1303.00,100.34
1302.00,100.34
1301.00,100.34
1300.00,100.34
1299.00,100.34
1298.00,100.34
1297.00,100.34
1296.00,100.34
1295.00,100.34
1294.00,100.34
1293.00,100.34
1292.00,100.34
1291.00,100.34
1290.00,100.34
1289.00,100.34
1288.00,100.34
1287.00,100.34
1286.00,100.34
1285.00,100.34
1284.00,100.34
1283.00,100.34
1282.00,100.34
1281.00,100.34
1280.00,100.34
1279.00,100.34
1278.00,100.34
1277.00,100.34
1276.00,100.34
1275.00,100.34
1274.00,100.34
1273.00,100.34
1272.00,100.34
1271.00,100.34
1270.00,100.34
1269.00,100.34
1268.00,100.34
1267.00,100.34
1266.00,100.34
1265.00,100.34
1264.00,100.34
1263.00,100.34
1262.00,100.34
1261.00,100.35
1260.00,100.35
1259.00,100.35
1258.00,100.34
1257.00,100.34
1256.00,100.34
1255.00,100.34
1254.00,100.35
1253.00,100.35
1252.00,100.35
1251.00,100.35
1250.00,100.35
1249.00,100.35
1248.00,100.35
1247.00,100.35
1246.00,100.35
1245.00,100.34
1244.00,100.35
1243.00,100.35
1242.00,100.35
1241.00,100.35
1240.00,100.35
1239.00,100.35
1238.00,100.35
1237.00,100.35
1236.00,100.35
1235.00,100.35
1234.00,100.35
1233.00,100.35
1232.00,100.35
1231.00,100.35
1230.00,100.35
1229.00,100.35
1228.00,100.35
1227.00,100.34
1226.00,100.34
1225.00,100.34
1224.00,100.34
1223.00,100.34
1222.00,100.35
1221.00,100.35
1220.00,100.35
1219.00,100.35
1218.00,100.35
1217.00,100.35
1216.00,100.35
1215.00,100.35
1214.00,100.34
1213.00,100.34
1212.00,100.35
1211.00,100.35
1210.00,100.35
1209.00,100.35
1208.00,100.35
1207.00,100.35
1206.00,100.35
1205.00,100.35
1204.00,100.35
1203.00,100.35
1202.00,100.35
1201.00,100.35
1200.00,100.35
1199.00,100.35
1198.00,100.35
1197.00,100.35
1196.00,100.35
1195.00,100.35
1194.00,100.35
1193.00,100.35
1192.00,100.35
1191.00,100.35
1190.00,100.35
1189.00,100.35
1188.00,100.35
1187.00,100.35
1186.00,100.34
1185.00,100.34
1184.00,100.34
1183.00,100.34
1182.00,100.34
1181.00,100.34
1180.00,100.34
1179.00,100.34
1178.00,100.34
1177.00,100.34
1176.00,100.34
1175.00,100.34
1174.00,100.34
1173.00,100.34
1172.00,100.34
1171.00,100.34
1170.00,100.34
1169.00,100.35
1168.00,100.35
1167.00,100.35
1166.00,100.35
1165.00,100.35
1164.00,100.34
1163.00,100.34
1162.00,100.34
1161.00,100.34
1160.00,100.34
1159.00,100.34
1158.00,100.34
1157.00,100.34
1156.00,100.34
1155.00,100.35
1154.00,100.35
1153.00,100.35
1152.00,100.35
1151.00,100.35
1150.00,100.34
1149.00,100.34
1148.00,100.34
1147.00,100.34
1146.00,100.34
1145.00,100.34
1144.00,100.34
1143.00,100.34
1142.00,100.34
1141.00,100.34
1140.00,100.34
1139.00,100.34
1138.00,100.34
1137.00,100.34
1136.00,100.34
1135.00,100.34
1134.00,100.34
1133.00,100.34
1132.00,100.34
1131.00,100.34
1130.00,100.34
1129.00,100.34
1128.00,100.34
1127.00,100.34
1126.00,100.34
1125.00,100.34
1124.00,100.34
1123.00,100.34
1122.00,100.34
1121.00,100.34
1120.00,100.34
1119.00,100.34
1118.00,100.34
1117.00,100.34
1116.00,100.34
1115.00,100.34
1114.00,100.33
1113.00,100.33
1112.00,100.33
1111.00,100.34
1110.00,100.34
1109.00,100.34
1108.00,100.34
1107.00,100.34
1106.00,100.34
1105.00,100.34
1104.00,100.34
1103.00,100.34
1102.00,100.34
1101.00,100.34
1100.00,100.34
1099.00,100.34
1098.00,100.34
1097.00,100.34
1096.00,100.34
1095.00,100.34
1094.00,100.34
1093.00,100.34
1092.00,100.34
1091.00,100.34
1090.00,100.34
1089.00,100.34
1088.00,100.34
1087.00,100.34
1086.00,100.34
1085.00,100.34
1084.00,100.34
1083.00,100.34
1082.00,100.34
1081.00,100.33
1080.00,100.33
1079.00,100.33
1078.00,100.33
1077.00,100.33
1076.00,100.33
1075.00,100.33
1074.00,100.33
1073.00,100.33
1072.00,100.33
1071.00,100.33
1070.00,100.33
1069.00,100.33
1068.00,100.33
1067.00,100.33
1066.00,100.33
1065.00,100.33
1064.00,100.33
1063.00,100.33
1062.00,100.33
1061.00,100.33
1060.00,100.32
1059.00,100.32
1058.00,100.33
1057.00,100.33
1056.00,100.33
1055.00,100.33
1054.00,100.33
1053.00,100.33
1052.00,100.33
1051.00,100.33
1050.00,100.33
1049.00,100.33
1048.00,100.33
1047.00,100.33
1046.00,100.33
1045.00,100.33
1044.00,100.33
1043.00,100.33
1042.00,100.33
1041.00,100.33
1040.00,100.33
1039.00,100.33
1038.00,100.33
1037.00,100.33
1036.00,100.33
1035.00,100.33
1034.00,100.34
1033.00,100.34
1032.00,100.34
1031.00,100.34
1030.00,100.33
1029.00,100.33
1028.00,100.33
1027.00,100.33
1026.00,100.33
1025.00,100.33
1024.00,100.33
1023.00,100.33
1022.00,100.33
1021.00,100.33
1020.00,100.33
1019.00,100.33
1018.00,100.33
1017.00,100.33
1016.00,100.34
1015.00,100.34
1014.00,100.34
1013.00,100.34
1012.00,100.34
1011.00,100.34
1010.00,100.34
1009.00,100.34
1008.00,100.34
1007.00,100.34
1006.00,100.34
1005.00,100.34
1004.00,100.34
1003.00,100.34
1002.00,100.34
1001.00,100.34
1000.00,100.34
999.00,100.34
998.00,100.35
997.00,100.35
996.00,100.35
995.00,100.35
994.00,100.35
993.00,100.35
992.00,100.35
991.00,100.35
990.00,100.35
989.00,100.35
988.00,100.35
987.00,100.35
986.00,100.35
985.00,100.35
984.00,100.35
983.00,100.35
982.00,100.35
981.00,100.35
980.00,100.35
979.00,100.35
978.00,100.35
977.00,100.35
976.00,100.35
975.00,100.35
974.00,100.35
973.00,100.35
972.00,100.35
971.00,100.35
970.00,100.35
969.00,100.35
968.00,100.35
967.00,100.35
966.00,100.35
965.00,100.35
964.00,100.35
963.00,100.35
962.00,100.35
961.00,100.35
960.00,100.35
959.00,100.35
958.00,100.35
957.00,100.35
956.00,100.35
955.00,100.36
954.00,100.35
953.00,100.35
952.00,100.35
951.00,100.35
950.00,100.35
949.00,100.35
948.00,100.35
947.00,100.35
946.00,100.35
945.00,100.35
944.00,100.35
943.00,100.35
942.00,100.35
941.00,100.36
940.00,100.36
939.00,100.36
938.00,100.36
937.00,100.36
936.00,100.36
935.00,100.36
934.00,100.36
933.00,100.36
932.00,100.36
931.00,100.36
930.00,100.36
929.00,100.36
928.00,100.36
927.00,100.36
926.00,100.36
925.00,100.36
924.00,100.36
923.00,100.36
922.00,100.36
921.00,100.36
920.00,100.36
919.00,100.36
918.00,100.36
917.00,100.36
916.00,100.36
915.00,100.35
914.00,100.35
913.00,100.36
912.00,100.36
911.00,100.36
910.00,100.36
909.00,100.36
908.00,100.36
907.00,100.36
906.00,100.37
905.00,100.36
904.00,100.36
903.00,100.36
902.00,100.36
901.00,100.36
900.00,100.36
899.00,100.36
898.00,100.36
897.00,100.36
896.00,100.36
895.00,100.36
894.00,100.36
893.00,100.36
892.00,100.37
891.00,100.37
890.00,100.37
889.00,100.37
888.00,100.37
887.00,100.37
886.00,100.37
885.00,100.37
884.00,100.37
883.00,100.37
882.00,100.37
881.00,100.37
880.00,100.37
879.00,100.36
878.00,100.36
877.00,100.36
876.00,100.37
875.00,100.36
874.00,100.36
873.00,100.36
872.00,100.36
871.00,100.36
870.00,100.36
869.00,100.36
868.00,100.36
867.00,100.36
866.00,100.36
865.00,100.36
864.00,100.36
863.00,100.36
862.00,100.36
861.00,100.36
860.00,100.36
859.00,100.36
858.00,100.36
857.00,100.37
856.00,100.37
855.00,100.36
854.00,100.36
853.00,100.36
852.00,100.37
851.00,100.37
850.00,100.37
849.00,100.37
848.00,100.37
847.00,100.37
846.00,100.37
845.00,100.37
844.00,100.37
843.00,100.36
842.00,100.36
841.00,100.37
840.00,100.37
839.00,100.37
838.00,100.37
837.00,100.37
836.00,100.37
835.00,100.37
834.00,100.37
833.00,100.37
832.00,100.37
831.00,100.37
830.00,100.37
829.00,100.37
828.00,100.37
827.00,100.36
826.00,100.36
825.00,100.36
824.00,100.36
823.00,100.36
822.00,100.36
821.00,100.36
820.00,100.36
819.00,100.36
818.00,100.36
817.00,100.36
816.00,100.36
815.00,100.36
814.00,100.36
813.00,100.36
812.00,100.37
811.00,100.37
810.00,100.36
809.00,100.36
808.00,100.36
807.00,100.36
806.00,100.36
805.00,100.36
804.00,100.36
803.00,100.36
802.00,100.36
801.00,100.36
800.00,100.36
799.00,100.36
798.00,100.36
797.00,100.36
796.00,100.36
795.00,100.36
794.00,100.36
793.00,100.35
792.00,100.35
791.00,100.36
790.00,100.36
789.00,100.36
788.00,100.36
787.00,100.37
786.00,100.37
785.00,100.37
784.00,100.37
783.00,100.36
782.00,100.36
781.00,100.36
780.00,100.36
779.00,100.36
778.00,100.37
777.00,100.37
776.00,100.37
775.00,100.37
774.00,100.37
773.00,100.37
772.00,100.37
771.00,100.37
770.00,100.37
769.00,100.37
768.00,100.37
767.00,100.37
766.00,100.37
765.00,100.37
764.00,100.37
763.00,100.37
762.00,100.36
761.00,100.36
760.00,100.36
759.00,100.36
758.00,100.36
757.00,100.36
756.00,100.36
755.00,100.36
754.00,100.36
753.00,100.36
752.00,100.36
751.00,100.36
750.00,100.36
749.00,100.36
748.00,100.36
747.00,100.36
746.00,100.36
745.00,100.36
744.00,100.37
743.00,100.37
742.00,100.37
741.00,100.37
740.00,100.37
739.00,100.36
738.00,100.36
737.00,100.37
736.00,100.37
735.00,100.37
734.00,100.36
733.00,100.36
732.00,100.36
731.00,100.36
730.00,100.36
729.00,100.36
728.00,100.37
727.00,100.37
726.00,100.37
725.00,100.36
724.00,100.36
723.00,100.36
722.00,100.36
721.00,100.36
720.00,100.36
719.00,100.36
718.00,100.36
717.00,100.36
716.00,100.36
715.00,100.36
714.00,100.36
713.00,100.36
712.00,100.36
711.00,100.36
710.00,100.36
709.00,100.36
708.00,100.36
707.00,100.36
706.00,100.36
705.00,100.36
704.00,100.36
703.00,100.36
702.00,100.36
701.00,100.36
700.00,100.36
699.00,100.36
698.00,100.36
697.00,100.36
696.00,100.36
695.00,100.36
694.00,100.36
693.00,100.36
692.00,100.37
691.00,100.37
690.00,100.37
689.00,100.37
688.00,100.37
687.00,100.37
686.00,100.37
685.00,100.37
684.00,100.37
683.00,100.37
682.00,100.37
681.00,100.37
680.00,100.37
679.00,100.37
678.00,100.37
677.00,100.37
676.00,100.37
675.00,100.37
674.00,100.37
673.00,100.37
672.00,100.36
671.00,100.35
670.00,100.34
669.00,100.34
668.00,100.34
667.00,100.35
666.00,100.35
665.00,100.36
664.00,100.36
663.00,100.36
662.00,100.36
661.00,100.36
660.00,100.36
659.00,100.37
658.00,100.37
657.00,100.37
656.00,100.37
655.00,100.37
654.00,100.36
653.00,100.36
652.00,100.36
651.00,100.36
650.00,100.36
649.00,100.36
648.00,100.36
647.00,100.36
646.00,100.36
645.00,100.35
644.00,100.35
643.00,100.35
642.00,100.35
641.00,100.35
640.00,100.35
639.00,100.35
638.00,100.35
637.00,100.35
636.00,100.35
635.00,100.35
634.00,100.35
633.00,100.35
632.00,100.35
631.00,100.36
630.00,100.36
629.00,100.36
628.00,100.36
627.00,100.36
626.00,100.36
625.00,100.37
624.00,100.37
623.00,100.36
622.00,100.36
621.00,100.35
620.00,100.35
619.00,100.35
618.00,100.35
617.00,100.35
616.00,100.36
615.00,100.36
614.00,100.36
613.00,100.36
612.00,100.35
611.00,100.35
610.00,100.35
609.00,100.34
608.00,100.34
607.00,100.34
606.00,100.34
605.00,100.34
604.00,100.34
603.00,100.35
602.00,100.35
601.00,100.36
600.00,100.36
599.00,100.36
598.00,100.36
597.00,100.36
596.00,100.36
595.00,100.35
594.00,100.35
593.00,100.34
592.00,100.34
591.00,100.34
590.00,100.35
589.00,100.35
588.00,100.35
587.00,100.35
586.00,100.34
585.00,100.35
584.00,100.35
583.00,100.35
582.00,100.35
581.00,100.35
580.00,100.35
579.00,100.35
578.00,100.35
577.00,100.35
576.00,100.35
575.00,100.35
574.00,100.35
573.00,100.35
572.00,100.35
571.00,100.35
570.00,100.35
569.00,100.34
568.00,100.34
567.00,100.33
566.00,100.33
565.00,100.33
564.00,100.33
563.00,100.34
562.00,100.35
561.00,100.35
560.00,100.35
559.00,100.35
558.00,100.35
557.00,100.34
556.00,100.35
555.00,100.35
554.00,100.36
553.00,100.37
552.00,100.37
551.00,100.36
550.00,100.36
549.00,100.36
548.00,100.35
547.00,100.35
546.00,100.35
545.00,100.35
544.00,100.35
543.00,100.35
542.00,100.35
541.00,100.35
540.00,100.36
539.00,100.36
538.00,100.36
537.00,100.36
536.00,100.36
535.00,100.36
534.00,100.35
533.00,100.35
532.00,100.34
531.00,100.34
530.00,100.34
529.00,100.35
528.00,100.35
527.00,100.36
526.00,100.36
525.00,100.36
524.00,100.35
523.00,100.35
522.00,100.35
521.00,100.36
520.00,100.37
519.00,100.37
518.00,100.37
517.00,100.37
516.00,100.37
515.00,100.37
514.00,100.37
513.00,100.37
512.00,100.38
511.00,100.38
510.00,100.37
509.00,100.37
508.00,100.37
507.00,100.37
506.00,100.37
505.00,100.37
504.00,100.37
503.00,100.37
502.00,100.37
501.00,100.37
500.00,100.37
