Created as New Dataset,Sample 380 By Analyst Date Monday, February 10 2025
cm-1,%T
4000.00,131.16
3999.00,131.16
3998.00,131.16
3997.00,131.15
3996.00,131.15
3995.00,131.15
3994.00,131.14
3993.00,131.14
3992.00,131.13
3991.00,131.13
3990.00,131.12
3989.00,131.12
3988.00,131.11
3987.00,131.11
3986.00,131.10
3985.00,131.10
3984.00,131.09
3983.00,131.08
3982.00,131.08
3981.00,131.07
3980.00,131.06
3979.00,131.06
3978.00,131.05
3977.00,131.05
3976.00,131.04
3975.00,131.03
3974.00,131.03
3973.00,131.02
3972.00,131.02
3971.00,131.01
3970.00,131.01
3969.00,131.00
3968.00,131.00
3967.00,131.00
3966.00,130.99
3965.00,130.99
3964.00,130.99
3963.00,130.99
3962.00,130.99
3961.00,130.99
3960.00,130.98
3959.00,130.98
3958.00,130.98
3957.00,130.98
3956.00,130.98
3955.00,130.99
3954.00,130.99
3953.00,130.99
3952.00,131.00
3951.00,131.00
3950.00,131.00
3949.00,131.00
3948.00,131.01
3947.00,131.01
3946.00,131.01
3945.00,131.00
3944.00,131.00
3943.00,131.01
3942.00,131.01
3941.00,131.00
3940.00,130.99
3939.00,130.98
3938.00,130.98
3937.00,130.98
3936.00,130.97
3935.00,130.96
3934.00,130.96
3933.00,130.96
3932.00,130.96
3931.00,130.96
3930.00,130.95
3929.00,130.95
3928.00,130.95
3927.00,130.94
3926.00,130.93
3925.00,130.93
3924.00,130.93
3923.00,130.92
3922.00,130.91
3921.00,130.90
3920.00,130.90
3919.00,130.90
3918.00,130.89
3917.00,130.89
3916.00,130.88
3915.00,130.88
3914.00,130.88
3913.00,130.87
3912.00,130.87
3911.00,130.87
3910.00,130.87
3909.00,130.87
3908.00,130.88
3907.00,130.88
3906.00,130.89
3905.00,130.90
3904.00,130.92
3903.00,130.93
3902.00,130.94
3901.00,130.94
3900.00,130.95
3899.00,130.96
3898.00,130.96
3897.00,130.95
3896.00,130.94
3895.00,130.94
3894.00,130.93
3893.00,130.93
3892.00,130.92
3891.00,130.93
3890.00,130.94
3889.00,130.93
3888.00,130.91
3887.00,130.91
3886.00,130.93
3885.00,130.95
3884.00,130.95
3883.00,130.93
3882.00,130.92
3881.00,130.93
3880.00,130.94
3879.00,130.93
3878.00,130.91
3877.00,130.89
3876.00,130.89
3875.00,130.90
3874.00,130.92
3873.00,130.92
3872.00,130.89
3871.00,130.88
3870.00,130.90
3869.00,130.92
3868.00,130.92
3867.00,130.90
3866.00,130.89
3865.00,130.90
3864.00,130.91
3863.00,130.89
3862.00,130.86
3861.00,130.85
3860.00,130.85
3859.00,130.87
3858.00,130.88
3857.00,130.90
3856.00,130.91
3855.00,130.92
3854.00,130.94
3853.00,130.96
3852.00,130.96
3851.00,130.95
3850.00,130.93
3849.00,130.93
3848.00,130.91
3847.00,130.88
3846.00,130.85
3845.00,130.83
3844.00,130.82
3843.00,130.83
3842.00,130.84
3841.00,130.85
3840.00,130.85
3839.00,130.87
3838.00,130.88
3837.00,130.88
3836.00,130.88
3835.00,130.87
3834.00,130.86
3833.00,130.86
3832.00,130.84
3831.00,130.83
3830.00,130.80
3829.00,130.78
3828.00,130.76
3827.00,130.75
3826.00,130.76
3825.00,130.77
3824.00,130.75
3823.00,130.73
3822.00,130.74
3821.00,130.77
3820.00,130.79
3819.00,130.77
3818.00,130.75
3817.00,130.74
3816.00,130.76
3815.00,130.76
3814.00,130.73
3813.00,130.69
3812.00,130.68
3811.00,130.69
3810.00,130.68
3809.00,130.66
3808.00,130.64
3807.00,130.65
3806.00,130.68
3805.00,130.68
3804.00,130.68
3803.00,130.68
3802.00,130.71
3801.00,130.73
3800.00,130.73
3799.00,130.69
3798.00,130.67
3797.00,130.67
3796.00,130.68
3795.00,130.66
3794.00,130.63
3793.00,130.61
3792.00,130.60
3791.00,130.60
3790.00,130.60
3789.00,130.59
3788.00,130.59
3787.00,130.59
3786.00,130.59
3785.00,130.59
3784.00,130.60
3783.00,130.61
3782.00,130.60
3781.00,130.60
3780.00,130.60
3779.00,130.61
3778.00,130.61
3777.00,130.60
3776.00,130.60
3775.00,130.60
3774.00,130.61
3773.00,130.61
3772.00,130.60
3771.00,130.60
3770.00,130.61
3769.00,130.62
3768.00,130.62
3767.00,130.61
3766.00,130.61
3765.00,130.62
3764.00,130.63
3763.00,130.61
3762.00,130.60
3761.00,130.60
3760.00,130.61
3759.00,130.61
3758.00,130.60
3757.00,130.60
3756.00,130.61
3755.00,130.62
3754.00,130.62
3753.00,130.64
3752.00,130.64
3751.00,130.65
3750.00,130.66
3749.00,130.68
3748.00,130.70
3747.00,130.69
3746.00,130.67
3745.00,130.67
3744.00,130.68
3743.00,130.66
3742.00,130.60
3741.00,130.57
3740.00,130.56
3739.00,130.56
3738.00,130.53
3737.00,130.51
3736.00,130.50
3735.00,130.50
3734.00,130.50
3733.00,130.48
3732.00,130.48
3731.00,130.48
3730.00,130.47
3729.00,130.44
3728.00,130.42
3727.00,130.41
3726.00,130.40
3725.00,130.39
3724.00,130.37
3723.00,130.36
3722.00,130.36
3721.00,130.36
3720.00,130.35
3719.00,130.34
3718.00,130.34
3717.00,130.35
3716.00,130.35
3715.00,130.36
3714.00,130.37
3713.00,130.38
3712.00,130.41
3711.00,130.42
3710.00,130.43
3709.00,130.43
3708.00,130.44
3707.00,130.45
3706.00,130.45
3705.00,130.45
3704.00,130.45
3703.00,130.45
3702.00,130.46
3701.00,130.48
3700.00,130.50
3699.00,130.51
3698.00,130.52
3697.00,130.55
3696.00,130.58
3695.00,130.60
3694.00,130.63
3693.00,130.67
3692.00,130.70
3691.00,130.73
3690.00,130.75
3689.00,130.78
3688.00,130.80
3687.00,130.82
3686.00,130.84
3685.00,130.84
3684.00,130.85
3683.00,130.85
3682.00,130.85
3681.00,130.85
3680.00,130.86
3679.00,130.88
3678.00,130.89
3677.00,130.89
3676.00,130.91
3675.00,130.95
3674.00,130.97
3673.00,130.97
3672.00,130.96
3671.00,130.96
3670.00,130.97
3669.00,130.95
3668.00,130.91
3667.00,130.87
3666.00,130.85
3665.00,130.84
3664.00,130.81
3663.00,130.78
3662.00,130.75
3661.00,130.74
3660.00,130.73
3659.00,130.72
3658.00,130.71
3657.00,130.71
3656.00,130.72
3655.00,130.73
3654.00,130.72
3653.00,130.72
3652.00,130.72
3651.00,130.74
3650.00,130.75
3649.00,130.74
3648.00,130.73
3647.00,130.72
3646.00,130.72
3645.00,130.71
3644.00,130.69
3643.00,130.67
3642.00,130.64
3641.00,130.62
3640.00,130.60
3639.00,130.59
3638.00,130.59
3637.00,130.58
3636.00,130.58
3635.00,130.59
3634.00,130.61
3633.00,130.63
3632.00,130.64
3631.00,130.65
3630.00,130.67
3629.00,130.69
3628.00,130.71
3627.00,130.71
3626.00,130.70
3625.00,130.71
3624.00,130.73
3623.00,130.73
3622.00,130.72
3621.00,130.71
3620.00,130.72
3619.00,130.73
3618.00,130.73
3617.00,130.74
3616.00,130.74
3615.00,130.74
3614.00,130.75
3613.00,130.75
3612.00,130.74
3611.00,130.73
3610.00,130.72
3609.00,130.72
3608.00,130.72
3607.00,130.71
3606.00,130.70
3605.00,130.69
3604.00,130.69
3603.00,130.68
3602.00,130.67
3601.00,130.66
3600.00,130.66
3599.00,130.66
3598.00,130.66
3597.00,130.66
3596.00,130.67
3595.00,130.67
3594.00,130.67
3593.00,130.68
3592.00,130.68
3591.00,130.69
3590.00,130.70
3589.00,130.70
3588.00,130.71
3587.00,130.72
3586.00,130.72
3585.00,130.72
3584.00,130.72
3583.00,130.73
3582.00,130.73
3581.00,130.73
3580.00,130.73
3579.00,130.73
3578.00,130.74
3577.00,130.74
3576.00,130.74
3575.00,130.75
3574.00,130.75
3573.00,130.76
3572.00,130.77
3571.00,130.78
3570.00,130.79
3569.00,130.80
3568.00,130.81
3567.00,130.83
3566.00,130.84
3565.00,130.85
3564.00,130.85
3563.00,130.85
3562.00,130.85
3561.00,130.84
3560.00,130.84
3559.00,130.83
3558.00,130.83
3557.00,130.83
3556.00,130.83
3555.00,130.83
3554.00,130.83
3553.00,130.84
3552.00,130.84
3551.00,130.84
3550.00,130.83
3549.00,130.83
3548.00,130.83
3547.00,130.83
3546.00,130.83
3545.00,130.82
3544.00,130.83
3543.00,130.83
3542.00,130.83
3541.00,130.83
3540.00,130.83
3539.00,130.83
3538.00,130.83
3537.00,130.82
3536.00,130.82
3535.00,130.83
3534.00,130.83
3533.00,130.84
3532.00,130.84
3531.00,130.85
3530.00,130.85
3529.00,130.86
3528.00,130.86
3527.00,130.86
3526.00,130.85
3525.00,130.85
3524.00,130.85
3523.00,130.85
3522.00,130.85
3521.00,130.85
3520.00,130.85
3519.00,130.85
3518.00,130.84
3517.00,130.84
3516.00,130.83
3515.00,130.82
3514.00,130.82
3513.00,130.82
3512.00,130.82
3511.00,130.81
3510.00,130.81
3509.00,130.81
3508.00,130.81
3507.00,130.81
3506.00,130.80
3505.00,130.80
3504.00,130.79
3503.00,130.79
3502.00,130.78
3501.00,130.78
3500.00,130.78
3499.00,130.78
3498.00,130.78
3497.00,130.78
3496.00,130.78
3495.00,130.78
3494.00,130.78
3493.00,130.78
3492.00,130.79
3491.00,130.79
3490.00,130.79
3489.00,130.79
3488.00,130.80
3487.00,130.80
3486.00,130.81
3485.00,130.82
3484.00,130.83
3483.00,130.84
3482.00,130.84
3481.00,130.85
3480.00,130.85
3479.00,130.86
3478.00,130.87
3477.00,130.88
3476.00,130.89
3475.00,130.90
3474.00,130.91
3473.00,130.91
3472.00,130.92
3471.00,130.92
3470.00,130.92
3469.00,130.93
3468.00,130.93
3467.00,130.94
3466.00,130.96
3465.00,130.97
3464.00,130.99
3463.00,131.00
3462.00,131.00
3461.00,131.01
3460.00,131.01
3459.00,131.02
3458.00,131.03
3457.00,131.03
3456.00,131.04
3455.00,131.05
3454.00,131.05
3453.00,131.06
3452.00,131.06
3451.00,131.07
3450.00,131.08
3449.00,131.08
3448.00,131.08
3447.00,131.09
3446.00,131.09
3445.00,131.10
3444.00,131.11
3443.00,131.12
3442.00,131.12
3441.00,131.12
3440.00,131.12
3439.00,131.12
3438.00,131.12
3437.00,131.12
3436.00,131.12
3435.00,131.13
3434.00,131.13
3433.00,131.14
3432.00,131.14
3431.00,131.14
3430.00,131.14
3429.00,131.15
3428.00,131.15
3427.00,131.16
3426.00,131.16
3425.00,131.16
3424.00,131.16
3423.00,131.16
3422.00,131.16
3421.00,131.16
3420.00,131.15
3419.00,131.15
3418.00,131.14
3417.00,131.13
3416.00,131.12
3415.00,131.10
3414.00,131.09
3413.00,131.08
3412.00,131.06
3411.00,131.05
3410.00,131.04
3409.00,131.02
3408.00,131.01
3407.00,131.00
3406.00,130.99
3405.00,130.97
3404.00,130.95
3403.00,130.92
3402.00,130.90
3401.00,130.89
3400.00,130.88
3399.00,130.87
3398.00,130.86
3397.00,130.85
3396.00,130.84
3395.00,130.82
3394.00,130.80
3393.00,130.79
3392.00,130.78
3391.00,130.77
3390.00,130.77
3389.00,130.77
3388.00,130.77
3387.00,130.76
3386.00,130.76
3385.00,130.75
3384.00,130.75
3383.00,130.74
3382.00,130.74
3381.00,130.73
3380.00,130.73
3379.00,130.72
3378.00,130.72
3377.00,130.72
3376.00,130.72
3375.00,130.72
3374.00,130.72
3373.00,130.71
3372.00,130.71
3371.00,130.70
3370.00,130.69
3369.00,130.69
3368.00,130.69
3367.00,130.70
3366.00,130.70
3365.00,130.71
3364.00,130.71
3363.00,130.71
3362.00,130.71
3361.00,130.71
3360.00,130.71
3359.00,130.72
3358.00,130.72
3357.00,130.72
3356.00,130.72
3355.00,130.72
3354.00,130.71
3353.00,130.70
3352.00,130.70
3351.00,130.70
3350.00,130.70
3349.00,130.71
3348.00,130.71
3347.00,130.72
3346.00,130.72
3345.00,130.72
3344.00,130.71
3343.00,130.71
3342.00,130.71
3341.00,130.71
3340.00,130.71
3339.00,130.71
3338.00,130.71
3337.00,130.72
3336.00,130.73
3335.00,130.74
3334.00,130.75
3333.00,130.75
3332.00,130.76
3331.00,130.76
3330.00,130.77
3329.00,130.77
3328.00,130.77
3327.00,130.78
3326.00,130.78
3325.00,130.79
3324.00,130.80
3323.00,130.81
3322.00,130.82
3321.00,130.82
3320.00,130.83
3319.00,130.84
3318.00,130.85
3317.00,130.86
3316.00,130.87
3315.00,130.89
3314.00,130.90
3313.00,130.91
3312.00,130.92
3311.00,130.94
3310.00,130.95
3309.00,130.96
3308.00,130.98
3307.00,130.99
3306.00,131.01
3305.00,131.03
3304.00,131.05
3303.00,131.07
3302.00,131.08
3301.00,131.08
3300.00,131.07
3299.00,131.05
3298.00,131.03
3297.00,131.00
3296.00,130.98
3295.00,130.95
3294.00,130.93
3293.00,130.90
3292.00,130.88
3291.00,130.86
3290.00,130.85
3289.00,130.83
3288.00,130.81
3287.00,130.80
3286.00,130.78
3285.00,130.77
3284.00,130.76
3283.00,130.75
3282.00,130.74
3281.00,130.72
3280.00,130.71
3279.00,130.70
3278.00,130.69
3277.00,130.68
3276.00,130.67
3275.00,130.66
3274.00,130.66
3273.00,130.65
3272.00,130.64
3271.00,130.64
3270.00,130.64
3269.00,130.64
3268.00,130.64
3267.00,130.64
3266.00,130.65
3265.00,130.65
3264.00,130.65
3263.00,130.65
3262.00,130.65
3261.00,130.65
3260.00,130.65
3259.00,130.65
3258.00,130.65
3257.00,130.65
3256.00,130.65
3255.00,130.65
3254.00,130.65
3253.00,130.65
3252.00,130.65
3251.00,130.65
3250.00,130.65
3249.00,130.65
3248.00,130.65
3247.00,130.65
3246.00,130.65
3245.00,130.65
3244.00,130.65
3243.00,130.65
3242.00,130.66
3241.00,130.66
3240.00,130.66
3239.00,130.66
3238.00,130.66
3237.00,130.65
3236.00,130.65
3235.00,130.65
3234.00,130.65
3233.00,130.65
3232.00,130.66
3231.00,130.66
3230.00,130.67
3229.00,130.68
3228.00,130.68
3227.00,130.69
3226.00,130.69
3225.00,130.70
3224.00,130.71
3223.00,130.71
3222.00,130.72
3221.00,130.73
3220.00,130.73
3219.00,130.74
3218.00,130.75
3217.00,130.75
3216.00,130.76
3215.00,130.77
3214.00,130.78
3213.00,130.78
3212.00,130.79
3211.00,130.80
3210.00,130.80
3209.00,130.81
3208.00,130.82
3207.00,130.83
3206.00,130.83
3205.00,130.84
3204.00,130.84
3203.00,130.85
3202.00,130.85
3201.00,130.86
3200.00,130.86
3199.00,130.86
3198.00,130.86
3197.00,130.86
3196.00,130.86
3195.00,130.86
3194.00,130.86
3193.00,130.86
3192.00,130.86
3191.00,130.85
3190.00,130.85
3189.00,130.85
3188.00,130.85
3187.00,130.85
3186.00,130.85
3185.00,130.86
3184.00,130.86
3183.00,130.86
3182.00,130.86
3181.00,130.87
3180.00,130.87
3179.00,130.87
3178.00,130.87
3177.00,130.86
3176.00,130.86
3175.00,130.86
3174.00,130.85
3173.00,130.85
3172.00,130.85
3171.00,130.85
3170.00,130.85
3169.00,130.85
3168.00,130.86
3167.00,130.86
3166.00,130.86
3165.00,130.87
3164.00,130.87
3163.00,130.88
3162.00,130.88
3161.00,130.89
3160.00,130.89
3159.00,130.89
3158.00,130.89
3157.00,130.89
3156.00,130.89
3155.00,130.89
3154.00,130.88
3153.00,130.88
3152.00,130.88
3151.00,130.89
3150.00,130.89
3149.00,130.89
3148.00,130.89
3147.00,130.89
3146.00,130.89
3145.00,130.88
3144.00,130.88
3143.00,130.88
3142.00,130.88
3141.00,130.87
3140.00,130.87
3139.00,130.86
3138.00,130.87
3137.00,130.87
3136.00,130.87
3135.00,130.88
3134.00,130.88
3133.00,130.88
3132.00,130.87
3131.00,130.87
3130.00,130.87
3129.00,130.88
3128.00,130.88
3127.00,130.88
3126.00,130.89
3125.00,130.89
3124.00,130.89
3123.00,130.89
3122.00,130.89
3121.00,130.89
3120.00,130.89
3119.00,130.90
3118.00,130.91
3117.00,130.92
3116.00,130.93
3115.00,130.94
3114.00,130.95
3113.00,130.97
3112.00,130.98
3111.00,130.99
3110.00,131.00
3109.00,131.01
3108.00,131.02
3107.00,131.03
3106.00,131.04
3105.00,131.05
3104.00,131.06
3103.00,131.06
3102.00,131.06
3101.00,131.06
3100.00,131.06
3099.00,131.07
3098.00,131.07
3097.00,131.07
3096.00,131.08
3095.00,131.08
3094.00,131.08
3093.00,131.08
3092.00,131.08
3091.00,131.08
3090.00,131.09
3089.00,131.09
3088.00,131.09
3087.00,131.10
3086.00,131.10
3085.00,131.10
3084.00,131.10
3083.00,131.11
3082.00,131.11
3081.00,131.11
3080.00,131.12
3079.00,131.12
3078.00,131.12
3077.00,131.13
3076.00,131.13
3075.00,131.14
3074.00,131.14
3073.00,131.14
3072.00,131.14
3071.00,131.14
3070.00,131.14
3069.00,131.13
3068.00,131.13
3067.00,131.13
3066.00,131.13
3065.00,131.14
3064.00,131.14
3063.00,131.14
3062.00,131.15
3061.00,131.15
3060.00,131.16
3059.00,131.16
3058.00,131.16
3057.00,131.16
3056.00,131.16
3055.00,131.16
3054.00,131.16
3053.00,131.16
3052.00,131.16
3051.00,131.16
3050.00,131.16
3049.00,131.16
3048.00,131.16
3047.00,131.16
3046.00,131.15
3045.00,131.15
3044.00,131.15
3043.00,131.15
3042.00,131.15
3041.00,131.15
3040.00,131.15
3039.00,131.16
3038.00,131.15
3037.00,131.15
3036.00,131.14
3035.00,131.14
3034.00,131.14
3033.00,131.13
3032.00,131.13
3031.00,131.13
3030.00,131.13
3029.00,131.12
3028.00,131.12
3027.00,131.12
3026.00,131.11
3025.00,131.11
3024.00,131.10
3023.00,131.10
3022.00,131.10
3021.00,131.10
3020.00,131.09
3019.00,131.09
3018.00,131.09
3017.00,131.08
3016.00,131.08
3015.00,131.08
3014.00,131.08
3013.00,131.07
3012.00,131.08
3011.00,131.08
3010.00,131.08
3009.00,131.09
3008.00,131.09
3007.00,131.09
3006.00,131.09
3005.00,131.08
3004.00,131.08
3003.00,131.09
3002.00,131.09
3001.00,131.09
3000.00,131.09
2999.00,131.09
2998.00,131.08
2997.00,131.08
2996.00,131.08
2995.00,131.08
2994.00,131.08
2993.00,131.08
2992.00,131.08
2991.00,131.09
2990.00,131.09
2989.00,131.09
2988.00,131.09
2987.00,131.09
2986.00,131.09
2985.00,131.09
2984.00,131.09
2983.00,131.09
2982.00,131.08
2981.00,131.08
2980.00,131.07
2979.00,131.07
2978.00,131.07
2977.00,131.07
2976.00,131.07
2975.00,131.07
2974.00,131.07
2973.00,131.07
2972.00,131.06
2971.00,131.06
2970.00,131.06
2969.00,131.06
2968.00,131.06
2967.00,131.06
2966.00,131.06
2965.00,131.06
2964.00,131.07
2963.00,131.07
2962.00,131.08
2961.00,131.08
2960.00,131.08
2959.00,131.09
2958.00,131.09
2957.00,131.09
2956.00,131.09
2955.00,131.09
2954.00,131.08
2953.00,131.08
2952.00,131.09
2951.00,131.09
2950.00,131.09
2949.00,131.09
2948.00,131.09
2947.00,131.08
2946.00,131.08
2945.00,131.08
2944.00,131.08
2943.00,131.08
2942.00,131.09
2941.00,131.09
2940.00,131.09
2939.00,131.10
2938.00,131.10
2937.00,131.09
2936.00,131.09
2935.00,131.09
2934.00,131.09
2933.00,131.09
2932.00,131.09
2931.00,131.09
2930.00,131.09
2929.00,131.09
2928.00,131.09
2927.00,131.09
2926.00,131.09
2925.00,131.10
2924.00,131.10
2923.00,131.10
2922.00,131.10
2921.00,131.10
2920.00,131.10
2919.00,131.09
2918.00,131.09
2917.00,131.08
2916.00,131.07
2915.00,131.07
2914.00,131.06
2913.00,131.06
2912.00,131.05
2911.00,131.05
2910.00,131.05
2909.00,131.05
2908.00,131.05
2907.00,131.05
2906.00,131.05
2905.00,131.05
2904.00,131.05
2903.00,131.05
2902.00,131.05
2901.00,131.05
2900.00,131.06
2899.00,131.06
2898.00,131.06
2897.00,131.07
2896.00,131.07
2895.00,131.07
2894.00,131.08
2893.00,131.08
2892.00,131.08
2891.00,131.08
2890.00,131.08
2889.00,131.08
2888.00,131.08
2887.00,131.08
2886.00,131.08
2885.00,131.07
2884.00,131.07
2883.00,131.07
2882.00,131.07
2881.00,131.07
2880.00,131.07
2879.00,131.06
2878.00,131.06
2877.00,131.05
2876.00,131.04
2875.00,131.04
2874.00,131.03
2873.00,131.03
2872.00,131.03
2871.00,131.03
2870.00,131.03
2869.00,131.03
2868.00,131.03
2867.00,131.02
2866.00,131.02
2865.00,131.02
2864.00,131.02
2863.00,131.02
2862.00,131.02
2861.00,131.02
2860.00,131.02
2859.00,131.02
2858.00,131.03
2857.00,131.03
2856.00,131.03
2855.00,131.04
2854.00,131.04
2853.00,131.05
2852.00,131.06
2851.00,131.06
2850.00,131.06
2849.00,131.06
2848.00,131.06
2847.00,131.06
2846.00,131.06
2845.00,131.06
2844.00,131.06
2843.00,131.06
2842.00,131.05
2841.00,131.05
2840.00,131.04
2839.00,131.04
2838.00,131.04
2837.00,131.04
2836.00,131.04
2835.00,131.04
2834.00,131.03
2833.00,131.03
2832.00,131.03
2831.00,131.03
2830.00,131.03
2829.00,131.02
2828.00,131.02
2827.00,131.02
2826.00,131.01
2825.00,131.01
2824.00,131.01
2823.00,131.00
2822.00,131.00
2821.00,130.99
2820.00,130.99
2819.00,130.98
2818.00,130.98
2817.00,130.98
2816.00,130.97
2815.00,130.97
2814.00,130.97
2813.00,130.97
2812.00,130.97
2811.00,130.97
2810.00,130.97
2809.00,130.98
2808.00,130.98
2807.00,130.99
2806.00,130.99
2805.00,130.99
2804.00,131.00
2803.00,131.00
2802.00,131.00
2801.00,131.01
2800.00,131.01
2799.00,131.01
2798.00,131.01
2797.00,131.02
2796.00,131.02
2795.00,131.02
2794.00,131.03
2793.00,131.03
2792.00,131.03
2791.00,131.03
2790.00,131.03
2789.00,131.03
2788.00,131.03
2787.00,131.04
2786.00,131.04
2785.00,131.03
2784.00,131.03
2783.00,131.03
2782.00,131.03
2781.00,131.03
2780.00,131.03
2779.00,131.02
2778.00,131.02
2777.00,131.01
2776.00,131.01
2775.00,131.01
2774.00,131.00
2773.00,131.00
2772.00,130.99
2771.00,130.99
2770.00,130.99
2769.00,130.98
2768.00,130.98
2767.00,130.98
2766.00,130.97
2765.00,130.97
2764.00,130.96
2763.00,130.96
2762.00,130.95
2761.00,130.95
2760.00,130.95
2759.00,130.95
2758.00,130.94
2757.00,130.94
2756.00,130.94
2755.00,130.94
2754.00,130.94
2753.00,130.94
2752.00,130.95
2751.00,130.95
2750.00,130.95
2749.00,130.95
2748.00,130.95
2747.00,130.95
2746.00,130.96
2745.00,130.96
2744.00,130.96
2743.00,130.96
2742.00,130.96
2741.00,130.97
2740.00,130.97
2739.00,130.98
2738.00,130.98
2737.00,130.98
2736.00,130.98
2735.00,130.98
2734.00,130.98
2733.00,130.98
2732.00,130.98
2731.00,130.98
2730.00,130.97
2729.00,130.97
2728.00,130.97
2727.00,130.96
2726.00,130.96
2725.00,130.95
2724.00,130.95
2723.00,130.94
2722.00,130.94
2721.00,130.93
2720.00,130.93
2719.00,130.92
2718.00,130.92
2717.00,130.91
2716.00,130.91
2715.00,130.90
2714.00,130.90
2713.00,130.89
2712.00,130.89
2711.00,130.88
2710.00,130.88
2709.00,130.87
2708.00,130.87
2707.00,130.86
2706.00,130.86
2705.00,130.86
2704.00,130.85
2703.00,130.85
2702.00,130.85
2701.00,130.85
2700.00,130.84
2699.00,130.84
2698.00,130.84
2697.00,130.84
2696.00,130.84
2695.00,130.85
2694.00,130.85
2693.00,130.85
2692.00,130.85
2691.00,130.85
2690.00,130.85
2689.00,130.86
2688.00,130.86
2687.00,130.86
2686.00,130.87
2685.00,130.87
2684.00,130.87
2683.00,130.88
2682.00,130.88
2681.00,130.88
2680.00,130.88
2679.00,130.88
2678.00,130.88
2677.00,130.89
2676.00,130.89
2675.00,130.89
2674.00,130.89
2673.00,130.88
2672.00,130.88
2671.00,130.88
2670.00,130.87
2669.00,130.86
2668.00,130.86
2667.00,130.85
2666.00,130.84
2665.00,130.84
2664.00,130.83
2663.00,130.82
2662.00,130.81
2661.00,130.80
2660.00,130.79
2659.00,130.78
2658.00,130.77
2657.00,130.76
2656.00,130.75
2655.00,130.74
2654.00,130.73
2653.00,130.73
2652.00,130.72
2651.00,130.72
2650.00,130.72
2649.00,130.71
2648.00,130.71
2647.00,130.71
2646.00,130.70
2645.00,130.70
2644.00,130.70
2643.00,130.70
2642.00,130.70
2641.00,130.70
2640.00,130.71
2639.00,130.71
2638.00,130.71
2637.00,130.71
2636.00,130.72
2635.00,130.72
2634.00,130.73
2633.00,130.73
2632.00,130.73
2631.00,130.74
2630.00,130.74
2629.00,130.75
2628.00,130.75
2627.00,130.76
2626.00,130.76
2625.00,130.77
2624.00,130.77
2623.00,130.77
2622.00,130.77
2621.00,130.77
2620.00,130.77
2619.00,130.78
2618.00,130.78
2617.00,130.78
2616.00,130.78
2615.00,130.78
2614.00,130.78
2613.00,130.77
2612.00,130.77
2611.00,130.77
2610.00,130.77
2609.00,130.77
2608.00,130.76
2607.00,130.76
2606.00,130.76
2605.00,130.75
2604.00,130.75
2603.00,130.75
2602.00,130.74
2601.00,130.74
2600.00,130.74
2599.00,130.73
2598.00,130.73
2597.00,130.73
2596.00,130.73
2595.00,130.73
2594.00,130.73
2593.00,130.73
2592.00,130.73
2591.00,130.74
2590.00,130.74
2589.00,130.74
2588.00,130.74
2587.00,130.74
2586.00,130.75
2585.00,130.75
2584.00,130.75
2583.00,130.75
2582.00,130.75
2581.00,130.75
2580.00,130.75
2579.00,130.75
2578.00,130.75
2577.00,130.75
2576.00,130.75
2575.00,130.75
2574.00,130.75
2573.00,130.74
2572.00,130.74
2571.00,130.74
2570.00,130.74
2569.00,130.73
2568.00,130.73
2567.00,130.72
2566.00,130.71
2565.00,130.71
2564.00,130.70
2563.00,130.69
2562.00,130.69
2561.00,130.68
2560.00,130.67
2559.00,130.67
2558.00,130.66
2557.00,130.65
2556.00,130.65
2555.00,130.64
2554.00,130.63
2553.00,130.63
2552.00,130.62
2551.00,130.61
2550.00,130.60
2549.00,130.60
2548.00,130.59
2547.00,130.58
2546.00,130.58
2545.00,130.58
2544.00,130.57
2543.00,130.57
2542.00,130.57
2541.00,130.57
2540.00,130.57
2539.00,130.57
2538.00,130.57
2537.00,130.57
2536.00,130.57
2535.00,130.58
2534.00,130.58
2533.00,130.58
2532.00,130.59
2531.00,130.59
2530.00,130.59
2529.00,130.59
2528.00,130.59
2527.00,130.59
2526.00,130.59
2525.00,130.59
2524.00,130.59
2523.00,130.59
2522.00,130.58
2521.00,130.58
2520.00,130.57
2519.00,130.56
2518.00,130.56
2517.00,130.55
2516.00,130.54
2515.00,130.54
2514.00,130.53
2513.00,130.52
2512.00,130.51
2511.00,130.50
2510.00,130.49
2509.00,130.48
2508.00,130.46
2507.00,130.45
2506.00,130.44
2505.00,130.43
2504.00,130.42
2503.00,130.41
2502.00,130.39
2501.00,130.38
2500.00,130.37
2499.00,130.36
2498.00,130.35
2497.00,130.35
2496.00,130.34
2495.00,130.34
2494.00,130.33
2493.00,130.33
2492.00,130.32
2491.00,130.32
2490.00,130.31
2489.00,130.31
2488.00,130.31
2487.00,130.31
2486.00,130.31
2485.00,130.31
2484.00,130.31
2483.00,130.31
2482.00,130.31
2481.00,130.30
2480.00,130.30
2479.00,130.30
2478.00,130.30
2477.00,130.29
2476.00,130.29
2475.00,130.29
2474.00,130.29
2473.00,130.28
2472.00,130.28
2471.00,130.28
2470.00,130.28
2469.00,130.28
2468.00,130.28
2467.00,130.28
2466.00,130.28
2465.00,130.27
2464.00,130.27
2463.00,130.27
2462.00,130.27
2461.00,130.26
2460.00,130.26
2459.00,130.26
2458.00,130.26
2457.00,130.26
2456.00,130.26
2455.00,130.25
2454.00,130.25
2453.00,130.25
2452.00,130.25
2451.00,130.25
2450.00,130.25
2449.00,130.26
2448.00,130.26
2447.00,130.26
2446.00,130.27
2445.00,130.27
2444.00,130.28
2443.00,130.28
2442.00,130.29
2441.00,130.30
2440.00,130.30
2439.00,130.31
2438.00,130.32
2437.00,130.33
2436.00,130.34
2435.00,130.35
2434.00,130.35
2433.00,130.36
2432.00,130.37
2431.00,130.38
2430.00,130.40
2429.00,130.41
2428.00,130.43
2427.00,130.44
2426.00,130.45
2425.00,130.46
2424.00,130.47
2423.00,130.48
2422.00,130.49
2421.00,130.51
2420.00,130.51
2419.00,130.52
2418.00,130.53
2417.00,130.54
2416.00,130.54
2415.00,130.55
2414.00,130.55
2413.00,130.55
2412.00,130.55
2411.00,130.54
2410.00,130.54
2409.00,130.53
2408.00,130.53
2407.00,130.52
2406.00,130.51
2405.00,130.50
2404.00,130.50
2403.00,130.49
2402.00,130.48
2401.00,130.47
2400.00,130.46
2399.00,130.44
2398.00,130.43
2397.00,130.42
2396.00,130.42
2395.00,130.41
2394.00,130.40
2393.00,130.40
2392.00,130.39
2391.00,130.39
2390.00,130.38
2389.00,130.38
2388.00,130.37
2387.00,130.37
2386.00,130.37
2385.00,130.37
2384.00,130.38
2383.00,130.38
2382.00,130.38
2381.00,130.38
2380.00,130.38
2379.00,130.38
2378.00,130.38
2377.00,130.37
2376.00,130.37
2375.00,130.37
2374.00,130.36
2373.00,130.36
2372.00,130.36
2371.00,130.36
2370.00,130.35
2369.00,130.34
2368.00,130.34
2367.00,130.34
2366.00,130.34
2365.00,130.34
2364.00,130.35
2363.00,130.34
2362.00,130.34
2361.00,130.34
2360.00,130.34
2359.00,130.34
2358.00,130.34
2357.00,130.34
2356.00,130.34
2355.00,130.34
2354.00,130.34
2353.00,130.33
2352.00,130.32
2351.00,130.30
2350.00,130.30
2349.00,130.31
2348.00,130.34
2347.00,130.36
2346.00,130.36
2345.00,130.33
2344.00,130.29
2343.00,130.27
2342.00,130.27
2341.00,130.28
2340.00,130.28
2339.00,130.29
2338.00,130.29
2337.00,130.29
2336.00,130.30
2335.00,130.30
2334.00,130.31
2333.00,130.31
2332.00,130.32
2331.00,130.32
2330.00,130.31
2329.00,130.30
2328.00,130.29
2327.00,130.28
2326.00,130.27
2325.00,130.26
2324.00,130.25
2323.00,130.23
2322.00,130.22
2321.00,130.21
2320.00,130.19
2319.00,130.18
2318.00,130.18
2317.00,130.17
2316.00,130.18
2315.00,130.18
2314.00,130.17
2313.00,130.17
2312.00,130.17
2311.00,130.17
2310.00,130.16
2309.00,130.16
2308.00,130.16
2307.00,130.16
2306.00,130.16
2305.00,130.16
2304.00,130.16
2303.00,130.16
2302.00,130.16
2301.00,130.16
2300.00,130.15
2299.00,130.15
2298.00,130.15
2297.00,130.15
2296.00,130.15
2295.00,130.14
2294.00,130.14
2293.00,130.14
2292.00,130.14
2291.00,130.13
2290.00,130.13
2289.00,130.13
2288.00,130.13
2287.00,130.13
2286.00,130.13
2285.00,130.13
2284.00,130.13
2283.00,130.13
2282.00,130.13
2281.00,130.13
2280.00,130.13
2279.00,130.13
2278.00,130.13
2277.00,130.13
2276.00,130.13
2275.00,130.13
2274.00,130.14
2273.00,130.14
2272.00,130.15
2271.00,130.15
2270.00,130.16
2269.00,130.16
2268.00,130.17
2267.00,130.17
2266.00,130.18
2265.00,130.18
2264.00,130.18
2263.00,130.19
2262.00,130.19
2261.00,130.19
2260.00,130.19
2259.00,130.20
2258.00,130.20
2257.00,130.20
2256.00,130.20
2255.00,130.20
2254.00,130.20
2253.00,130.20
2252.00,130.20
2251.00,130.20
2250.00,130.19
2249.00,130.19
2248.00,130.18
2247.00,130.18
2246.00,130.17
2245.00,130.16
2244.00,130.16
2243.00,130.15
2242.00,130.14
2241.00,130.13
2240.00,130.12
2239.00,130.11
2238.00,130.10
2237.00,130.08
2236.00,130.07
2235.00,130.06
2234.00,130.05
2233.00,130.04
2232.00,130.03
2231.00,130.02
2230.00,130.01
2229.00,130.00
2228.00,129.99
2227.00,129.98
2226.00,129.98
2225.00,129.97
2224.00,129.96
2223.00,129.96
2222.00,129.95
2221.00,129.95
2220.00,129.95
2219.00,129.95
2218.00,129.95
2217.00,129.95
2216.00,129.95
2215.00,129.95
2214.00,129.96
2213.00,129.96
2212.00,129.96
2211.00,129.97
2210.00,129.97
2209.00,129.97
2208.00,129.96
2207.00,129.96
2206.00,129.95
2205.00,129.95
2204.00,129.94
2203.00,129.94
2202.00,129.93
2201.00,129.92
2200.00,129.91
2199.00,129.91
2198.00,129.90
2197.00,129.89
2196.00,129.88
2195.00,129.87
2194.00,129.85
2193.00,129.84
2192.00,129.83
2191.00,129.82
2190.00,129.81
2189.00,129.80
2188.00,129.79
2187.00,129.78
2186.00,129.77
2185.00,129.76
2184.00,129.75
2183.00,129.75
2182.00,129.74
2181.00,129.74
2180.00,129.73
2179.00,129.73
2178.00,129.73
2177.00,129.73
2176.00,129.73
2175.00,129.73
2174.00,129.73
2173.00,129.73
2172.00,129.74
2171.00,129.74
2170.00,129.75
2169.00,129.76
2168.00,129.77
2167.00,129.79
2166.00,129.80
2165.00,129.80
2164.00,129.82
2163.00,129.83
2162.00,129.84
2161.00,129.85
2160.00,129.86
2159.00,129.87
2158.00,129.88
2157.00,129.88
2156.00,129.89
2155.00,129.89
2154.00,129.89
2153.00,129.90
2152.00,129.90
2151.00,129.90
2150.00,129.90
2149.00,129.89
2148.00,129.89
2147.00,129.88
2146.00,129.87
2145.00,129.87
2144.00,129.86
2143.00,129.85
2142.00,129.84
2141.00,129.83
2140.00,129.82
2139.00,129.81
2138.00,129.79
2137.00,129.78
2136.00,129.76
2135.00,129.75
2134.00,129.74
2133.00,129.73
2132.00,129.73
2131.00,129.72
2130.00,129.71
2129.00,129.70
2128.00,129.69
2127.00,129.69
2126.00,129.68
2125.00,129.68
2124.00,129.68
2123.00,129.68
2122.00,129.68
2121.00,129.68
2120.00,129.68
2119.00,129.68
2118.00,129.68
2117.00,129.69
2116.00,129.69
2115.00,129.69
2114.00,129.69
2113.00,129.70
2112.00,129.70
2111.00,129.71
2110.00,129.71
2109.00,129.72
2108.00,129.72
2107.00,129.72
2106.00,129.73
2105.00,129.73
2104.00,129.73
2103.00,129.73
2102.00,129.73
2101.00,129.74
2100.00,129.74
2099.00,129.74
2098.00,129.75
2097.00,129.75
2096.00,129.75
2095.00,129.75
2094.00,129.76
2093.00,129.76
2092.00,129.76
2091.00,129.76
2090.00,129.76
2089.00,129.77
2088.00,129.76
2087.00,129.76
2086.00,129.76
2085.00,129.76
2084.00,129.76
2083.00,129.76
2082.00,129.75
2081.00,129.75
2080.00,129.75
2079.00,129.74
2078.00,129.74
2077.00,129.74
2076.00,129.74
2075.00,129.73
2074.00,129.73
2073.00,129.72
2072.00,129.72
2071.00,129.71
2070.00,129.71
2069.00,129.70
2068.00,129.70
2067.00,129.70
2066.00,129.69
2065.00,129.69
2064.00,129.69
2063.00,129.69
2062.00,129.69
2061.00,129.69
2060.00,129.69
2059.00,129.68
2058.00,129.68
2057.00,129.68
2056.00,129.68
2055.00,129.68
2054.00,129.69
2053.00,129.69
2052.00,129.70
2051.00,129.70
2050.00,129.70
2049.00,129.71
2048.00,129.71
2047.00,129.71
2046.00,129.72
2045.00,129.72
2044.00,129.73
2043.00,129.74
2042.00,129.74
2041.00,129.75
2040.00,129.76
2039.00,129.76
2038.00,129.77
2037.00,129.77
2036.00,129.77
2035.00,129.78
2034.00,129.78
2033.00,129.78
2032.00,129.77
2031.00,129.77
2030.00,129.76
2029.00,129.75
2028.00,129.75
2027.00,129.74
2026.00,129.73
2025.00,129.72
2024.00,129.71
2023.00,129.70
2022.00,129.69
2021.00,129.68
2020.00,129.67
2019.00,129.66
2018.00,129.65
2017.00,129.65
2016.00,129.64
2015.00,129.64
2014.00,129.64
2013.00,129.64
2012.00,129.64
2011.00,129.65
2010.00,129.65
2009.00,129.66
2008.00,129.67
2007.00,129.68
2006.00,129.69
2005.00,129.70
2004.00,129.72
2003.00,129.73
2002.00,129.75
2001.00,129.76
2000.00,129.78
1999.00,129.80
1998.00,129.81
1997.00,129.83
1996.00,129.85
1995.00,129.87
1994.00,129.89
1993.00,129.91
1992.00,129.93
1991.00,129.95
1990.00,129.97
1989.00,129.98
1988.00,130.00
1987.00,130.02
1986.00,130.03
1985.00,130.05
1984.00,130.06
1983.00,130.07
1982.00,130.08
1981.00,130.09
1980.00,130.10
1979.00,130.10
1978.00,130.10
1977.00,130.10
1976.00,130.10
1975.00,130.09
1974.00,130.08
1973.00,130.07
1972.00,130.06
1971.00,130.04
1970.00,130.02
1969.00,130.01
1968.00,130.00
1967.00,129.98
1966.00,129.97
1965.00,129.97
1964.00,129.96
1963.00,129.97
1962.00,129.97
1961.00,129.98
1960.00,130.00
1959.00,130.02
1958.00,130.05
1957.00,130.08
1956.00,130.11
1955.00,130.15
1954.00,130.17
1953.00,130.20
1952.00,130.23
1951.00,130.25
1950.00,130.27
1949.00,130.29
1948.00,130.31
1947.00,130.31
1946.00,130.32
1945.00,130.32
1944.00,130.32
1943.00,130.32
1942.00,130.31
1941.00,130.29
1940.00,130.27
1939.00,130.24
1938.00,130.22
1937.00,130.19
1936.00,130.16
1935.00,130.13
1934.00,130.10
1933.00,130.08
1932.00,130.05
1931.00,130.03
1930.00,130.01
1929.00,129.99
1928.00,129.98
1927.00,129.96
1926.00,129.95
1925.00,129.95
1924.00,129.95
1923.00,129.95
1922.00,129.94
1921.00,129.94
1920.00,129.94
1919.00,129.94
1918.00,129.94
1917.00,129.94
1916.00,129.93
1915.00,129.92
1914.00,129.92
1913.00,129.91
1912.00,129.90
1911.00,129.89
1910.00,129.88
1909.00,129.88
1908.00,129.87
1907.00,129.87
1906.00,129.86
1905.00,129.86
1904.00,129.85
1903.00,129.85
1902.00,129.85
1901.00,129.86
1900.00,129.86
1899.00,129.87
1898.00,129.87
1897.00,129.88
1896.00,129.90
1895.00,129.90
1894.00,129.91
1893.00,129.92
1892.00,129.93
1891.00,129.94
1890.00,129.96
1889.00,129.97
1888.00,129.98
1887.00,129.99
1886.00,130.00
1885.00,130.01
1884.00,130.02
1883.00,130.03
1882.00,130.04
1881.00,130.06
1880.00,130.07
1879.00,130.08
1878.00,130.09
1877.00,130.09
1876.00,130.10
1875.00,130.10
1874.00,130.10
1873.00,130.10
1872.00,130.10
1871.00,130.10
1870.00,130.10
1869.00,130.10
1868.00,130.09
1867.00,130.08
1866.00,130.07
1865.00,130.06
1864.00,130.05
1863.00,130.05
1862.00,130.05
1861.00,130.05
1860.00,130.05
1859.00,130.06
1858.00,130.07
1857.00,130.08
1856.00,130.10
1855.00,130.12
1854.00,130.14
1853.00,130.16
1852.00,130.19
1851.00,130.21
1850.00,130.23
1849.00,130.26
1848.00,130.28
1847.00,130.30
1846.00,130.33
1845.00,130.35
1844.00,130.37
1843.00,130.38
1842.00,130.39
1841.00,130.41
1840.00,130.42
1839.00,130.42
1838.00,130.42
1837.00,130.42
1836.00,130.43
1835.00,130.42
1834.00,130.42
1833.00,130.41
1832.00,130.41
1831.00,130.41
1830.00,130.41
1829.00,130.40
1828.00,130.40
1827.00,130.40
1826.00,130.41
1825.00,130.42
1824.00,130.42
1823.00,130.43
1822.00,130.43
1821.00,130.43
1820.00,130.44
1819.00,130.45
1818.00,130.45
1817.00,130.46
1816.00,130.46
1815.00,130.47
1814.00,130.47
1813.00,130.47
1812.00,130.48
1811.00,130.49
1810.00,130.49
1809.00,130.50
1808.00,130.51
1807.00,130.51
1806.00,130.52
1805.00,130.52
1804.00,130.53
1803.00,130.54
1802.00,130.55
1801.00,130.56
1800.00,130.58
1799.00,130.59
1798.00,130.60
1797.00,130.61
1796.00,130.62
1795.00,130.63
1794.00,130.64
1793.00,130.66
1792.00,130.68
1791.00,130.69
1790.00,130.70
1789.00,130.70
1788.00,130.71
1787.00,130.73
1786.00,130.73
1785.00,130.74
1784.00,130.74
1783.00,130.75
1782.00,130.75
1781.00,130.76
1780.00,130.76
1779.00,130.76
1778.00,130.75
1777.00,130.75
1776.00,130.74
1775.00,130.74
1774.00,130.74
1773.00,130.73
1772.00,130.72
1771.00,130.71
1770.00,130.71
1769.00,130.71
1768.00,130.71
1767.00,130.70
1766.00,130.69
1765.00,130.68
1764.00,130.67
1763.00,130.67
1762.00,130.66
1761.00,130.65
1760.00,130.64
1759.00,130.63
1758.00,130.64
1757.00,130.64
1756.00,130.62
1755.00,130.61
1754.00,130.61
1753.00,130.61
1752.00,130.60
1751.00,130.60
1750.00,130.61
1749.00,130.62
1748.00,130.63
1747.00,130.63
1746.00,130.64
1745.00,130.64
1744.00,130.64
1743.00,130.64
1742.00,130.65
1741.00,130.65
1740.00,130.66
1739.00,130.66
1738.00,130.66
1737.00,130.67
1736.00,130.69
1735.00,130.69
1734.00,130.68
1733.00,130.68
1732.00,130.68
1731.00,130.70
1730.00,130.72
1729.00,130.73
1728.00,130.73
1727.00,130.72
1726.00,130.72
1725.00,130.72
1724.00,130.72
1723.00,130.72
1722.00,130.71
1721.00,130.71
1720.00,130.71
1719.00,130.71
1718.00,130.70
1717.00,130.69
1716.00,130.69
1715.00,130.70
1714.00,130.70
1713.00,130.70
1712.00,130.69
1711.00,130.69
1710.00,130.67
1709.00,130.66
1708.00,130.65
1707.00,130.65
1706.00,130.64
1705.00,130.64
1704.00,130.63
1703.00,130.64
1702.00,130.64
1701.00,130.64
1700.00,130.63
1699.00,130.61
1698.00,130.61
1697.00,130.63
1696.00,130.65
1695.00,130.64
1694.00,130.62
1693.00,130.62
1692.00,130.63
1691.00,130.63
1690.00,130.63
1689.00,130.63
1688.00,130.63
1687.00,130.64
1686.00,130.64
1685.00,130.64
1684.00,130.65
1683.00,130.65
1682.00,130.66
1681.00,130.68
1680.00,130.69
1679.00,130.68
1678.00,130.68
1677.00,130.68
1676.00,130.68
1675.00,130.68
1674.00,130.68
1673.00,130.68
1672.00,130.68
1671.00,130.69
1670.00,130.69
1669.00,130.70
1668.00,130.70
1667.00,130.70
1666.00,130.70
1665.00,130.69
1664.00,130.69
1663.00,130.67
1662.00,130.66
1661.00,130.66
1660.00,130.65
1659.00,130.64
1658.00,130.63
1657.00,130.62
1656.00,130.61
1655.00,130.60
1654.00,130.60
1653.00,130.60
1652.00,130.59
1651.00,130.57
1650.00,130.58
1649.00,130.59
1648.00,130.59
1647.00,130.58
1646.00,130.58
1645.00,130.58
1644.00,130.59
1643.00,130.60
1642.00,130.61
1641.00,130.61
1640.00,130.61
1639.00,130.60
1638.00,130.60
1637.00,130.61
1636.00,130.61
1635.00,130.63
1634.00,130.64
1633.00,130.65
1632.00,130.65
1631.00,130.65
1630.00,130.64
1629.00,130.64
1628.00,130.64
1627.00,130.64
1626.00,130.64
1625.00,130.65
1624.00,130.65
1623.00,130.66
1622.00,130.66
1621.00,130.66
1620.00,130.66
1619.00,130.67
1618.00,130.67
1617.00,130.67
1616.00,130.66
1615.00,130.66
1614.00,130.66
1613.00,130.67
1612.00,130.67
1611.00,130.66
1610.00,130.66
1609.00,130.66
1608.00,130.66
1607.00,130.66
1606.00,130.66
1605.00,130.65
1604.00,130.64
1603.00,130.63
1602.00,130.62
1601.00,130.61
1600.00,130.61
1599.00,130.60
1598.00,130.60
1597.00,130.59
1596.00,130.59
1595.00,130.58
1594.00,130.58
1593.00,130.58
1592.00,130.58
1591.00,130.58
1590.00,130.59
1589.00,130.59
1588.00,130.59
1587.00,130.59
1586.00,130.59
1585.00,130.59
1584.00,130.59
1583.00,130.59
1582.00,130.60
1581.00,130.61
1580.00,130.61
1579.00,130.62
1578.00,130.62
1577.00,130.63
1576.00,130.63
1575.00,130.63
1574.00,130.64
1573.00,130.66
1572.00,130.67
1571.00,130.67
1570.00,130.67
1569.00,130.67
1568.00,130.67
1567.00,130.67
1566.00,130.67
1565.00,130.67
1564.00,130.66
1563.00,130.66
1562.00,130.66
1561.00,130.65
1560.00,130.62
1559.00,130.61
1558.00,130.61
1557.00,130.62
1556.00,130.63
1555.00,130.64
1554.00,130.63
1553.00,130.61
1552.00,130.61
1551.00,130.61
1550.00,130.61
1549.00,130.60
1548.00,130.60
1547.00,130.59
1546.00,130.59
1545.00,130.60
1544.00,130.60
1543.00,130.60
1542.00,130.60
1541.00,130.61
1540.00,130.62
1539.00,130.63
1538.00,130.62
1537.00,130.62
1536.00,130.62
1535.00,130.60
1534.00,130.59
1533.00,130.58
1532.00,130.58
1531.00,130.58
1530.00,130.58
1529.00,130.57
1528.00,130.57
1527.00,130.57
1526.00,130.57
1525.00,130.57
1524.00,130.57
1523.00,130.57
1522.00,130.57
1521.00,130.58
1520.00,130.59
1519.00,130.60
1518.00,130.61
1517.00,130.62
1516.00,130.63
1515.00,130.62
1514.00,130.62
1513.00,130.62
1512.00,130.62
1511.00,130.62
1510.00,130.62
1509.00,130.62
1508.00,130.62
1507.00,130.64
1506.00,130.65
1505.00,130.64
1504.00,130.63
1503.00,130.63
1502.00,130.62
1501.00,130.61
1500.00,130.59
1499.00,130.58
1498.00,130.58
1497.00,130.58
1496.00,130.58
1495.00,130.57
1494.00,130.56
1493.00,130.56
1492.00,130.55
1491.00,130.55
1490.00,130.54
1489.00,130.54
1488.00,130.55
1487.00,130.56
1486.00,130.56
1485.00,130.57
1484.00,130.57
1483.00,130.57
1482.00,130.57
1481.00,130.57
1480.00,130.57
1479.00,130.57
1478.00,130.56
1477.00,130.57
1476.00,130.57
1475.00,130.58
1474.00,130.58
1473.00,130.59
1472.00,130.61
1471.00,130.62
1470.00,130.63
1469.00,130.64
1468.00,130.64
1467.00,130.64
1466.00,130.65
1465.00,130.65
1464.00,130.65
1463.00,130.65
1462.00,130.65
1461.00,130.64
1460.00,130.64
1459.00,130.64
1458.00,130.65
1457.00,130.66
1456.00,130.66
1455.00,130.66
1454.00,130.66
1453.00,130.65
1452.00,130.64
1451.00,130.63
1450.00,130.63
1449.00,130.62
1448.00,130.62
1447.00,130.61
1446.00,130.61
1445.00,130.59
1444.00,130.58
1443.00,130.57
1442.00,130.57
1441.00,130.56
1440.00,130.56
1439.00,130.56
1438.00,130.55
1437.00,130.55
1436.00,130.54
1435.00,130.54
1434.00,130.54
1433.00,130.53
1432.00,130.53
1431.00,130.53
1430.00,130.53
1429.00,130.54
1428.00,130.54
1427.00,130.54
1426.00,130.54
1425.00,130.54
1424.00,130.54
1423.00,130.55
1422.00,130.57
1421.00,130.58
1420.00,130.58
1419.00,130.59
1418.00,130.60
1417.00,130.60
1416.00,130.61
1415.00,130.62
1414.00,130.62
1413.00,130.62
1412.00,130.62
1411.00,130.62
1410.00,130.63
1409.00,130.63
1408.00,130.63
1407.00,130.63
1406.00,130.63
1405.00,130.64
1404.00,130.63
1403.00,130.63
1402.00,130.63
1401.00,130.62
1400.00,130.62
1399.00,130.61
1398.00,130.61
1397.00,130.61
1396.00,130.61
1395.00,130.61
1394.00,130.61
1393.00,130.60
1392.00,130.59
1391.00,130.58
1390.00,130.58
1389.00,130.58
1388.00,130.58
1387.00,130.58
1386.00,130.58
1385.00,130.57
1384.00,130.56
1383.00,130.56
1382.00,130.55
1381.00,130.55
1380.00,130.55
1379.00,130.55
1378.00,130.55
1377.00,130.55
1376.00,130.55
1375.00,130.55
1374.00,130.56
1373.00,130.56
1372.00,130.57
1371.00,130.57
1370.00,130.57
1369.00,130.57
1368.00,130.58
1367.00,130.58
1366.00,130.58
1365.00,130.58
1364.00,130.59
1363.00,130.60
1362.00,130.61
1361.00,130.62
1360.00,130.62
1359.00,130.62
1358.00,130.61
1357.00,130.61
1356.00,130.61
1355.00,130.61
1354.00,130.62
1353.00,130.62
1352.00,130.63
1351.00,130.63
1350.00,130.62
1349.00,130.62
1348.00,130.62
1347.00,130.61
1346.00,130.61
1345.00,130.60
1344.00,130.60
1343.00,130.59
1342.00,130.59
1341.00,130.59
1340.00,130.59
1339.00,130.59
1338.00,130.59
1337.00,130.58
1336.00,130.58
1335.00,130.57
1334.00,130.56
1333.00,130.56
1332.00,130.55
1331.00,130.55
1330.00,130.54
1329.00,130.54
1328.00,130.54
1327.00,130.54
1326.00,130.55
1325.00,130.55
1324.00,130.55
1323.00,130.55
1322.00,130.55
1321.00,130.55
1320.00,130.56
1319.00,130.57
1318.00,130.58
1317.00,130.58
1316.00,130.59
1315.00,130.60
1314.00,130.60
1313.00,130.61
1312.00,130.61
1311.00,130.61
1310.00,130.62
1309.00,130.62
1308.00,130.63
1307.00,130.63
1306.00,130.64
1305.00,130.64
1304.00,130.64
1303.00,130.64
1302.00,130.64
1301.00,130.64
1300.00,130.64
1299.00,130.64
1298.00,130.64
1297.00,130.64
1296.00,130.63
1295.00,130.62
1294.00,130.62
1293.00,130.61
1292.00,130.61
1291.00,130.60
1290.00,130.60
1289.00,130.59
1288.00,130.58
1287.00,130.57
1286.00,130.57
1285.00,130.56
1284.00,130.56
1283.00,130.55
1282.00,130.55
1281.00,130.55
1280.00,130.54
1279.00,130.54
1278.00,130.53
1277.00,130.53
1276.00,130.53
1275.00,130.53
1274.00,130.53
1273.00,130.53
1272.00,130.53
1271.00,130.53
1270.00,130.54
1269.00,130.54
1268.00,130.54
1267.00,130.55
1266.00,130.56
1265.00,130.57
1264.00,130.58
1263.00,130.59
1262.00,130.60
1261.00,130.61
1260.00,130.62
1259.00,130.62
1258.00,130.63
1257.00,130.63
1256.00,130.64
1255.00,130.63
1254.00,130.63
1253.00,130.62
1252.00,130.62
1251.00,130.62
1250.00,130.62
1249.00,130.61
1248.00,130.61
1247.00,130.61
1246.00,130.61
1245.00,130.61
1244.00,130.60
1243.00,130.60
1242.00,130.59
1241.00,130.59
1240.00,130.58
1239.00,130.58
1238.00,130.57
1237.00,130.57
1236.00,130.56
1235.00,130.55
1234.00,130.55
1233.00,130.54
1232.00,130.53
1231.00,130.53
1230.00,130.52
1229.00,130.52
1228.00,130.51
1227.00,130.51
1226.00,130.50
1225.00,130.49
1224.00,130.49
1223.00,130.49
1222.00,130.49
1221.00,130.49
1220.00,130.49
1219.00,130.49
1218.00,130.48
1217.00,130.48
1216.00,130.48
1215.00,130.49
1214.00,130.49
1213.00,130.50
1212.00,130.50
1211.00,130.51
1210.00,130.51
1209.00,130.51
1208.00,130.52
1207.00,130.52
1206.00,130.52
1205.00,130.53
1204.00,130.53
1203.00,130.54
1202.00,130.55
1201.00,130.55
1200.00,130.55
1199.00,130.55
1198.00,130.55
1197.00,130.56
1196.00,130.56
1195.00,130.57
1194.00,130.57
1193.00,130.57
1192.00,130.56
1191.00,130.56
1190.00,130.56
1189.00,130.55
1188.00,130.55
1187.00,130.55
1186.00,130.55
1185.00,130.54
1184.00,130.54
1183.00,130.53
1182.00,130.53
1181.00,130.52
1180.00,130.51
1179.00,130.50
1178.00,130.50
1177.00,130.49
1176.00,130.49
1175.00,130.49
1174.00,130.48
1173.00,130.48
1172.00,130.47
1171.00,130.47
1170.00,130.46
1169.00,130.46
1168.00,130.47
1167.00,130.47
1166.00,130.47
1165.00,130.46
1164.00,130.46
1163.00,130.46
1162.00,130.46
1161.00,130.47
1160.00,130.47
1159.00,130.48
1158.00,130.48
1157.00,130.48
1156.00,130.48
1155.00,130.48
1154.00,130.48
1153.00,130.49
1152.00,130.49
1151.00,130.50
1150.00,130.50
1149.00,130.51
1148.00,130.51
1147.00,130.51
1146.00,130.52
1145.00,130.52
1144.00,130.52
1143.00,130.52
1142.00,130.52
1141.00,130.52
1140.00,130.52
1139.00,130.52
1138.00,130.52
1137.00,130.51
1136.00,130.51
1135.00,130.51
1134.00,130.51
1133.00,130.51
1132.00,130.50
1131.00,130.50
1130.00,130.49
1129.00,130.48
1128.00,130.48
1127.00,130.48
1126.00,130.48
1125.00,130.48
1124.00,130.47
1123.00,130.47
1122.00,130.47
1121.00,130.46
1120.00,130.46
1119.00,130.46
1118.00,130.46
1117.00,130.46
1116.00,130.46
1115.00,130.46
1114.00,130.46
1113.00,130.46
1112.00,130.47
1111.00,130.47
1110.00,130.47
1109.00,130.48
1108.00,130.48
1107.00,130.48
1106.00,130.49
1105.00,130.49
1104.00,130.50
1103.00,130.50
1102.00,130.50
1101.00,130.50
1100.00,130.51
1099.00,130.51
1098.00,130.52
1097.00,130.52
1096.00,130.52
1095.00,130.51
1094.00,130.51
1093.00,130.51
1092.00,130.52
1091.00,130.52
1090.00,130.52
1089.00,130.52
1088.00,130.51
1087.00,130.51
1086.00,130.50
1085.00,130.50
1084.00,130.49
1083.00,130.49
1082.00,130.48
1081.00,130.47
1080.00,130.47
1079.00,130.46
1078.00,130.44
1077.00,130.43
1076.00,130.42
1075.00,130.42
1074.00,130.41
1073.00,130.40
1072.00,130.40
1071.00,130.39
1070.00,130.38
1069.00,130.37
1068.00,130.36
1067.00,130.36
1066.00,130.35
1065.00,130.36
1064.00,130.35
1063.00,130.35
1062.00,130.34
1061.00,130.34
1060.00,130.33
1059.00,130.33
1058.00,130.34
1057.00,130.34
1056.00,130.35
1055.00,130.35
1054.00,130.36
1053.00,130.36
1052.00,130.36
1051.00,130.37
1050.00,130.37
1049.00,130.38
1048.00,130.39
1047.00,130.40
1046.00,130.41
1045.00,130.42
1044.00,130.43
1043.00,130.44
1042.00,130.44
1041.00,130.45
1040.00,130.46
1039.00,130.46
1038.00,130.48
1037.00,130.48
1036.00,130.49
1035.00,130.49
1034.00,130.49
1033.00,130.48
1032.00,130.48
1031.00,130.48
1030.00,130.49
1029.00,130.50
1028.00,130.51
1027.00,130.51
1026.00,130.51
1025.00,130.51
1024.00,130.51
1023.00,130.52
1022.00,130.52
1021.00,130.52
1020.00,130.53
1019.00,130.53
1018.00,130.53
1017.00,130.53
1016.00,130.53
1015.00,130.52
1014.00,130.52
1013.00,130.52
1012.00,130.53
1011.00,130.53
1010.00,130.53
1009.00,130.53
1008.00,130.53
1007.00,130.52
1006.00,130.52
1005.00,130.52
1004.00,130.53
1003.00,130.54
1002.00,130.55
1001.00,130.56
1000.00,130.56
999.00,130.56
998.00,130.57
997.00,130.57
996.00,130.58
995.00,130.59
994.00,130.60
993.00,130.61
992.00,130.62
991.00,130.62
990.00,130.63
989.00,130.63
988.00,130.64
987.00,130.65
986.00,130.65
985.00,130.66
984.00,130.67
983.00,130.68
982.00,130.68
981.00,130.68
980.00,130.68
979.00,130.68
978.00,130.68
977.00,130.69
976.00,130.70
975.00,130.70
974.00,130.70
973.00,130.70
972.00,130.69
971.00,130.68
970.00,130.67
969.00,130.67
968.00,130.67
967.00,130.68
966.00,130.68
965.00,130.68
964.00,130.68
963.00,130.68
962.00,130.68
961.00,130.68
960.00,130.67
959.00,130.68
958.00,130.68
957.00,130.69
956.00,130.69
955.00,130.69
954.00,130.69
953.00,130.69
952.00,130.69
951.00,130.70
950.00,130.71
949.00,130.73
948.00,130.74
947.00,130.75
946.00,130.75
945.00,130.75
944.00,130.76
943.00,130.76
942.00,130.77
941.00,130.78
940.00,130.79
939.00,130.80
938.00,130.80
937.00,130.81
936.00,130.81
935.00,130.82
934.00,130.83
933.00,130.83
932.00,130.84
931.00,130.84
930.00,130.85
929.00,130.85
928.00,130.86
927.00,130.85
926.00,130.85
925.00,130.85
924.00,130.85
923.00,130.85
922.00,130.85
921.00,130.85
920.00,130.85
919.00,130.85
918.00,130.85
917.00,130.84
916.00,130.84
915.00,130.84
914.00,130.85
913.00,130.85
912.00,130.85
911.00,130.84
910.00,130.83
909.00,130.83
908.00,130.84
907.00,130.84
906.00,130.85
905.00,130.85
904.00,130.86
903.00,130.86
902.00,130.86
901.00,130.87
900.00,130.87
899.00,130.87
898.00,130.88
897.00,130.89
896.00,130.90
895.00,130.91
894.00,130.91
893.00,130.92
892.00,130.92
891.00,130.93
890.00,130.94
889.00,130.95
888.00,130.96
887.00,130.98
886.00,130.99
885.00,131.00
884.00,131.00
883.00,131.00
882.00,131.00
881.00,131.01
880.00,131.01
879.00,131.02
878.00,131.03
877.00,131.03
876.00,131.03
875.00,131.03
874.00,131.03
873.00,131.04
872.00,131.04
871.00,131.04
870.00,131.04
869.00,131.04
868.00,131.03
867.00,131.03
866.00,131.03
865.00,131.03
864.00,131.03
863.00,131.03
862.00,131.02
861.00,131.02
860.00,131.02
859.00,131.02
858.00,131.01
857.00,131.01
856.00,131.01
855.00,131.01
854.00,131.01
853.00,131.01
852.00,131.02
851.00,131.02
850.00,131.02
849.00,131.03
848.00,131.02
847.00,131.03
846.00,131.03
845.00,131.04
844.00,131.04
843.00,131.05
842.00,131.06
841.00,131.06
840.00,131.06
839.00,131.07
838.00,131.07
837.00,131.07
836.00,131.07
835.00,131.08
834.00,131.08
833.00,131.09
832.00,131.10
831.00,131.10
830.00,131.10
829.00,131.11
828.00,131.11
827.00,131.12
826.00,131.13
825.00,131.13
824.00,131.13
823.00,131.13
822.00,131.13
821.00,131.14
820.00,131.14
819.00,131.15
818.00,131.15
817.00,131.16
816.00,131.16
815.00,131.16
814.00,131.16
813.00,131.16
812.00,131.16
811.00,131.16
810.00,131.16
809.00,131.16
808.00,131.16
807.00,131.16
806.00,131.16
805.00,131.16
804.00,131.16
803.00,131.16
802.00,131.15
801.00,131.15
800.00,131.15
799.00,131.16
798.00,131.16
797.00,131.16
796.00,131.15
795.00,131.15
794.00,131.14
793.00,131.14
792.00,131.14
791.00,131.14
790.00,131.14
789.00,131.14
788.00,131.13
787.00,131.13
786.00,131.13
785.00,131.14
784.00,131.14
783.00,131.14
782.00,131.14
781.00,131.14
780.00,131.14
779.00,131.14
778.00,131.14
777.00,131.14
776.00,131.14
775.00,131.14
774.00,131.14
773.00,131.14
772.00,131.14
771.00,131.14
770.00,131.14
769.00,131.14
768.00,131.13
767.00,131.13
766.00,131.13
765.00,131.13
764.00,131.12
763.00,131.11
762.00,131.10
761.00,131.10
760.00,131.09
759.00,131.09
758.00,131.10
757.00,131.10
756.00,131.09
755.00,131.08
754.00,131.07
753.00,131.07
752.00,131.06
751.00,131.06
750.00,131.06
749.00,131.06
748.00,131.06
747.00,131.05
746.00,131.04
745.00,131.04
744.00,131.04
743.00,131.05
742.00,131.05
741.00,131.05
740.00,131.05
739.00,131.06
738.00,131.08
737.00,131.09
736.00,131.10
735.00,131.10
734.00,131.10
733.00,131.10
732.00,131.10
731.00,131.10
730.00,131.10
729.00,131.10
728.00,131.10
727.00,131.10
726.00,131.10
725.00,131.11
724.00,131.12
723.00,131.13
722.00,131.13
721.00,131.13
720.00,131.12
719.00,131.12
718.00,131.11
717.00,131.11
716.00,131.11
715.00,131.10
714.00,131.10
713.00,131.10
712.00,131.10
711.00,131.10
710.00,131.10
709.00,131.09
708.00,131.09
707.00,131.08
706.00,131.08
705.00,131.08
704.00,131.08
703.00,131.08
702.00,131.07
701.00,131.06
700.00,131.05
699.00,131.05
698.00,131.05
697.00,131.05
696.00,131.05
695.00,131.05
694.00,131.04
693.00,131.03
692.00,131.02
691.00,131.02
690.00,131.02
689.00,131.02
688.00,131.02
687.00,131.02
686.00,131.02
685.00,131.03
684.00,131.03
683.00,131.04
682.00,131.05
681.00,131.05
680.00,131.04
679.00,131.04
678.00,131.04
677.00,131.04
676.00,131.05
675.00,131.05
674.00,131.04
673.00,131.04
672.00,131.04
671.00,131.04
670.00,131.03
669.00,130.99
668.00,130.93
667.00,130.91
666.00,130.95
665.00,131.00
664.00,131.04
663.00,131.06
662.00,131.06
661.00,131.06
660.00,131.05
659.00,131.03
658.00,131.02
657.00,131.00
656.00,130.99
655.00,130.99
654.00,130.98
653.00,130.98
652.00,130.98
651.00,130.98
650.00,130.98
649.00,130.96
648.00,130.95
647.00,130.94
646.00,130.94
645.00,130.94
644.00,130.95
643.00,130.96
642.00,130.96
641.00,130.96
640.00,130.96
639.00,130.94
638.00,130.94
637.00,130.94
636.00,130.94
635.00,130.94
634.00,130.93
633.00,130.93
632.00,130.94
631.00,130.94
630.00,130.94
629.00,130.94
628.00,130.94
627.00,130.94
626.00,130.95
625.00,130.96
624.00,130.97
623.00,130.97
622.00,130.96
621.00,130.95
620.00,130.94
619.00,130.94
618.00,130.95
617.00,130.96
616.00,130.97
615.00,130.97
614.00,130.97
613.00,130.96
612.00,130.95
611.00,130.94
610.00,130.94
609.00,130.93
608.00,130.93
607.00,130.93
606.00,130.93
605.00,130.92
604.00,130.92
603.00,130.91
602.00,130.91
601.00,130.91
600.00,130.91
599.00,130.92
598.00,130.93
597.00,130.93
596.00,130.91
595.00,130.90
594.00,130.88
593.00,130.88
592.00,130.89
591.00,130.90
590.00,130.90
589.00,130.90
588.00,130.89
587.00,130.88
586.00,130.87
585.00,130.86
584.00,130.86
583.00,130.86
582.00,130.87
581.00,130.88
580.00,130.88
579.00,130.88
578.00,130.87
577.00,130.87
576.00,130.87
575.00,130.88
574.00,130.88
573.00,130.88
572.00,130.87
571.00,130.87
570.00,130.86
569.00,130.87
568.00,130.87
567.00,130.86
566.00,130.86
565.00,130.85
564.00,130.85
563.00,130.84
562.00,130.83
561.00,130.82
560.00,130.81
559.00,130.80
558.00,130.80
557.00,130.80
556.00,130.81
555.00,130.81
554.00,130.81
553.00,130.81
552.00,130.80
551.00,130.80
550.00,130.81
549.00,130.82
548.00,130.82
547.00,130.81
546.00,130.80
545.00,130.80
544.00,130.80
543.00,130.81
542.00,130.81
541.00,130.80
540.00,130.80
539.00,130.80
538.00,130.81
537.00,130.83
536.00,130.84
535.00,130.84
534.00,130.84
533.00,130.84
532.00,130.85
531.00,130.87
530.00,130.89
529.00,130.91
528.00,130.92
527.00,130.91
526.00,130.91
525.00,130.91
524.00,130.93
523.00,130.96
522.00,130.98
521.00,131.00
520.00,131.03
519.00,131.04
518.00,131.05
517.00,131.05
516.00,131.05
515.00,131.06
514.00,131.07
513.00,131.08
512.00,131.09
511.00,131.11
510.00,131.13
509.00,131.14
508.00,131.14
507.00,131.14
506.00,131.14
505.00,131.15
504.00,131.16
503.00,131.16
502.00,131.16
501.00,131.16
500.00,131.16
