3996.73391,0.00123
3994.67373,0.00101
3992.61356,0.00045
3990.55339,0.00026
3988.49322,0.00035
3986.43305,0.00037
3984.37287,0.00049
3982.31270,0.00070
3980.25253,0.00100
3978.19236,0.00129
3976.13219,0.00113
3974.07201,0.00062
3972.01184,0.00039
3969.95167,0.00058
3967.89150,0.00079
3965.83133,0.00089
3963.77115,0.00102
3961.71098,0.00121
3959.65081,0.00126
3957.59064,0.00118
3955.53046,0.00115
3953.47029,0.00105
3951.41012,0.00067
3949.34995,0.00018
3947.28978,0.00000
3945.22960,0.00027
3943.16943,0.00061
3941.10926,0.00072
3939.04909,0.00083
3936.98892,0.00115
3934.92874,0.00141
3932.86857,0.00130
3930.80840,0.00092
3928.74823,0.00062
3926.68805,0.00069
3924.62788,0.00105
3922.56771,0.00131
3920.50754,0.00122
3918.44737,0.00084
3916.38719,0.00040
3914.32702,0.00023
3912.26685,0.00047
3910.20668,0.00082
3908.14651,0.00080
3906.08633,0.00051
3904.02616,0.00045
3901.96599,0.00079
3899.90582,0.00121
3897.84565,0.00136
3895.78547,0.00134
3893.72530,0.00140
3891.66513,0.00145
3889.60496,0.00126
3887.54478,0.00107
3885.48461,0.00111
3883.42444,0.00105
3881.36427,0.00088
3879.30410,0.00088
3877.24392,0.00089
3875.18375,0.00089
3873.12358,0.00098
3871.06341,0.00100
3869.00324,0.00095
3866.94306,0.00105
3864.88289,0.00151
3862.82272,0.00179
3860.76255,0.00130
3858.70237,0.00045
3856.64220,0.00000
3854.58203,0.00061
3852.52186,0.00176
3850.46169,0.00185
3848.40151,0.00128
3846.34134,0.00095
3844.28117,0.00080
3842.22100,0.00057
3840.16083,0.00058
3838.10065,0.00118
3836.04048,0.00180
3833.98031,0.00193
3831.92014,0.00191
3829.85997,0.00183
3827.79979,0.00172
3825.73962,0.00180
3823.67945,0.00192
3821.61928,0.00175
3819.55910,0.00121
3817.49893,0.00109
3815.43876,0.00180
3813.37859,0.00212
3811.31842,0.00134
3809.25824,0.00032
3807.19807,0.00000
3805.13790,0.00024
3803.07773,0.00048
3801.01756,0.00093
3798.95738,0.00147
3796.89721,0.00159
3794.83704,0.00136
3792.77687,0.00118
3790.71670,0.00114
3788.65652,0.00106
3786.59635,0.00090
3784.53618,0.00072
3782.47601,0.00056
3780.41583,0.00060
3778.35566,0.00092
3776.29549,0.00108
3774.23532,0.00089
3772.17515,0.00070
3770.11497,0.00074
3768.05480,0.00090
3765.99463,0.00112
3763.93446,0.00137
3761.87429,0.00147
3759.81411,0.00134
3757.75394,0.00108
3755.69377,0.00091
3753.63360,0.00097
3751.57342,0.00114
3749.51325,0.00135
3747.45308,0.00160
3745.39291,0.00182
3743.33274,0.00200
3741.27256,0.00213
3739.21239,0.00213
3737.15222,0.00199
3735.09205,0.00160
3733.03188,0.00114
3730.97170,0.00115
3728.91153,0.00166
3726.85136,0.00201
3724.79119,0.00168
3722.73102,0.00108
3720.67084,0.00100
3718.61067,0.00131
3716.55050,0.00156
3714.49033,0.00177
3712.43015,0.00195
3710.36998,0.00176
3708.30981,0.00137
3706.24964,0.00131
3704.18947,0.00158
3702.12929,0.00191
3700.06912,0.00216
3698.00895,0.00230
3695.94878,0.00221
3693.88861,0.00175
3691.82843,0.00129
3689.76826,0.00146
3687.70809,0.00197
3685.64792,0.00199
3683.58775,0.00182
3681.52757,0.00205
3679.46740,0.00253
3677.40723,0.00289
3675.34706,0.00319
3673.28688,0.00330
3671.22671,0.00339
3669.16654,0.00383
3667.10637,0.00414
3665.04620,0.00405
3662.98602,0.00389
3660.92585,0.00386
3658.86568,0.00396
3656.80551,0.00432
3654.74534,0.00473
3652.68516,0.00491
3650.62499,0.00511
3648.56482,0.00537
3646.50465,0.00538
3644.44447,0.00545
3642.38430,0.00578
3640.32413,0.00617
3638.26396,0.00648
3636.20379,0.00683
3634.14361,0.00711
3632.08344,0.00718
3630.02327,0.00740
3627.96310,0.00816
3625.90293,0.00874
3623.84275,0.00862
3621.78258,0.00830
3619.72241,0.00851
3617.66224,0.00925
3615.60207,0.00987
3613.54189,0.01022
3611.48172,0.01050
3609.42155,0.01099
3607.36138,0.01169
3605.30120,0.01205
3603.24103,0.01201
3601.18086,0.01226
3599.12069,0.01290
3597.06052,0.01345
3595.00034,0.01394
3592.94017,0.01422
3590.88000,0.01403
3588.81983,0.01419
3586.75966,0.01508
3584.69948,0.01542
3582.63931,0.01501
3580.57914,0.01474
3578.51897,0.01500
3576.45879,0.01578
3574.39862,0.01688
3572.33845,0.01763
3570.27828,0.01762
3568.21811,0.01745
3566.15793,0.01772
3564.09776,0.01803
3562.03759,0.01807
3559.97742,0.01821
3557.91725,0.01864
3555.85707,0.01907
3553.79690,0.01942
3551.73673,0.01980
3549.67656,0.02023
3547.61639,0.02093
3545.55621,0.02177
3543.49604,0.02210
3541.43587,0.02198
3539.37570,0.02207
3537.31552,0.02248
3535.25535,0.02296
3533.19518,0.02340
3531.13501,0.02383
3529.07484,0.02417
3527.01466,0.02444
3524.95449,0.02473
3522.89432,0.02498
3520.83415,0.02515
3518.77398,0.02529
3516.71380,0.02555
3514.65363,0.02583
3512.59346,0.02594
3510.53329,0.02602
3508.47312,0.02628
3506.41294,0.02663
3504.35277,0.02700
3502.29260,0.02741
3500.23243,0.02782
3498.17225,0.02811
3496.11208,0.02821
3494.05191,0.02844
3491.99174,0.02893
3489.93157,0.02943
3487.87139,0.02982
3485.81122,0.03004
3483.75105,0.03011
3481.69088,0.03010
3479.63071,0.03018
3477.57053,0.03050
3475.51036,0.03103
3473.45019,0.03160
3471.39002,0.03206
3469.32984,0.03235
3467.26967,0.03245
3465.20950,0.03243
3463.14933,0.03241
3461.08916,0.03233
3459.02898,0.03229
3456.96881,0.03266
3454.90864,0.03342
3452.84847,0.03394
3450.78830,0.03386
3448.72812,0.03350
3446.66795,0.03336
3444.60778,0.03368
3442.54761,0.03421
3440.48744,0.03464
3438.42726,0.03490
3436.36709,0.03514
3434.30692,0.03531
3432.24675,0.03535
3430.18657,0.03537
3428.12640,0.03535
3426.06623,0.03542
3424.00606,0.03578
3421.94589,0.03622
3419.88571,0.03654
3417.82554,0.03671
3415.76537,0.03668
3413.70520,0.03663
3411.64503,0.03679
3409.58485,0.03699
3407.52468,0.03700
3405.46451,0.03719
3403.40434,0.03750
3401.34416,0.03745
3399.28399,0.03730
3397.22382,0.03738
3395.16365,0.03749
3393.10348,0.03764
3391.04330,0.03798
3388.98313,0.03836
3386.92296,0.03872
3384.86279,0.03895
3382.80262,0.03897
3380.74244,0.03899
3378.68227,0.03905
3376.62210,0.03907
3374.56193,0.03897
3372.50176,0.03884
3370.44158,0.03895
3368.38141,0.03917
3366.32124,0.03923
3364.26107,0.03913
3362.20089,0.03918
3360.14072,0.03944
3358.08055,0.03951
3356.02038,0.03943
3353.96021,0.03951
3351.90003,0.03944
3349.83986,0.03917
3347.77969,0.03928
3345.71952,0.03966
3343.65935,0.03977
3341.59917,0.03953
3339.53900,0.03926
3337.47883,0.03926
3335.41866,0.03954
3333.35849,0.03996
3331.29831,0.04016
3329.23814,0.04001
3327.17797,0.03986
3325.11780,0.03986
3323.05762,0.04007
3320.99745,0.04033
3318.93728,0.04012
3316.87711,0.03984
3314.81694,0.03998
3312.75676,0.04012
3310.69659,0.03989
3308.63642,0.03974
3306.57625,0.03991
3304.51608,0.03991
3302.45590,0.03969
3300.39573,0.03973
3298.33556,0.04002
3296.27539,0.04003
3294.21521,0.03966
3292.15504,0.03946
3290.09487,0.03953
3288.03470,0.03961
3285.97453,0.03976
3283.91435,0.03982
3281.85418,0.03960
3279.79401,0.03944
3277.73384,0.03955
3275.67367,0.03966
3273.61349,0.03969
3271.55332,0.03970
3269.49315,0.03969
3267.43298,0.03973
3265.37281,0.03984
3263.31263,0.03999
3261.25246,0.04012
3259.19229,0.04017
3257.13212,0.04015
3255.07194,0.03993
3253.01177,0.03948
3250.95160,0.03931
3248.89143,0.03962
3246.83126,0.03990
3244.77108,0.03995
3242.71091,0.03994
3240.65074,0.03995
3238.59057,0.03998
3236.53040,0.04003
3234.47022,0.04000
3232.41005,0.03971
3230.34988,0.03944
3228.28971,0.03951
3226.22954,0.03973
3224.16936,0.03970
3222.10919,0.03946
3220.04902,0.03931
3217.98885,0.03905
3215.92867,0.03857
3213.86850,0.03843
3211.80833,0.03863
3209.74816,0.03874
3207.68799,0.03891
3205.62781,0.03923
3203.56764,0.03936
3201.50747,0.03908
3199.44730,0.03849
3197.38713,0.03793
3195.32695,0.03781
3193.26678,0.03790
3191.20661,0.03780
3189.14644,0.03757
3187.08626,0.03740
3185.02609,0.03725
3182.96592,0.03716
3180.90575,0.03733
3178.84558,0.03745
3176.78540,0.03736
3174.72523,0.03740
3172.66506,0.03735
3170.60489,0.03698
3168.54472,0.03660
3166.48454,0.03643
3164.42437,0.03658
3162.36420,0.03690
3160.30403,0.03698
3158.24386,0.03665
3156.18368,0.03611
3154.12351,0.03576
3152.06334,0.03575
3150.00317,0.03559
3147.94299,0.03516
3145.88282,0.03505
3143.82265,0.03517
3141.76248,0.03514
3139.70231,0.03512
3137.64213,0.03525
3135.58196,0.03530
3133.52179,0.03513
3131.46162,0.03486
3129.40145,0.03472
3127.34127,0.03463
3125.28110,0.03441
3123.22093,0.03427
3121.16076,0.03424
3119.10058,0.03407
3117.04041,0.03389
3114.98024,0.03381
3112.92007,0.03371
3110.85990,0.03357
3108.79972,0.03347
3106.73955,0.03333
3104.67938,0.03299
3102.61921,0.03260
3100.55904,0.03243
3098.49886,0.03232
3096.43869,0.03210
3094.37852,0.03181
3092.31835,0.03155
3090.25818,0.03143
3088.19800,0.03134
3086.13783,0.03119
3084.07766,0.03093
3082.01749,0.03068
3079.95731,0.03063
3077.89714,0.03057
3075.83697,0.03041
3073.77680,0.03036
3071.71663,0.03031
3069.65645,0.03007
3067.59628,0.02985
3065.53611,0.02975
3063.47594,0.02971
3061.41577,0.02967
3059.35559,0.02957
3057.29542,0.02940
3055.23525,0.02906
3053.17508,0.02855
3051.11491,0.02813
3049.05473,0.02804
3046.99456,0.02811
3044.93439,0.02816
3042.87422,0.02826
3040.81404,0.02813
3038.75387,0.02775
3036.69370,0.02739
3034.63353,0.02704
3032.57336,0.02675
3030.51318,0.02674
3028.45301,0.02682
3026.39284,0.02659
3024.33267,0.02612
3022.27250,0.02580
3020.21232,0.02562
3018.15215,0.02553
3016.09198,0.02560
3014.03181,0.02557
3011.97163,0.02535
3009.91146,0.02518
3007.85129,0.02495
3005.79112,0.02463
3003.73095,0.02443
3001.67077,0.02431
2999.61060,0.02423
2997.55043,0.02430
2995.49026,0.02428
2993.43009,0.02412
2991.36991,0.02382
2989.30974,0.02336
2987.24957,0.02307
2985.18940,0.02302
2983.12923,0.02300
2981.06905,0.02303
2979.00888,0.02301
2976.94871,0.02275
2974.88854,0.02241
2972.82836,0.02233
2970.76819,0.02244
2968.70802,0.02249
2966.64785,0.02249
2964.58768,0.02252
2962.52750,0.02247
2960.46733,0.02230
2958.40716,0.02207
2956.34699,0.02189
2954.28682,0.02186
2952.22664,0.02184
2950.16647,0.02172
2948.10630,0.02165
2946.04613,0.02171
2943.98596,0.02171
2941.92578,0.02157
2939.86561,0.02148
2937.80544,0.02146
2935.74527,0.02155
2933.68509,0.02162
2931.62492,0.02144
2929.56475,0.02113
2927.50458,0.02102
2925.44441,0.02105
2923.38423,0.02085
2921.32406,0.02055
2919.26389,0.02037
2917.20372,0.02028
2915.14355,0.02019
2913.08337,0.02007
2911.02320,0.02005
2908.96303,0.02014
2906.90286,0.02003
2904.84268,0.01975
2902.78251,0.01947
2900.72234,0.01924
2898.66217,0.01920
2896.60200,0.01930
2894.54182,0.01924
2892.48165,0.01906
2890.42148,0.01906
2888.36131,0.01926
2886.30114,0.01925
2884.24096,0.01897
2882.18079,0.01888
2880.12062,0.01891
2878.06045,0.01871
2876.00028,0.01844
2873.94010,0.01830
2871.87993,0.01822
2869.81976,0.01805
2867.75959,0.01775
2865.69941,0.01745
2863.63924,0.01740
2861.57907,0.01754
2859.51890,0.01761
2857.45873,0.01749
2855.39855,0.01721
2853.33838,0.01699
2851.27821,0.01691
2849.21804,0.01689
2847.15787,0.01692
2845.09769,0.01686
2843.03752,0.01656
2840.97735,0.01628
2838.91718,0.01625
2836.85700,0.01631
2834.79683,0.01623
2832.73666,0.01612
2830.67649,0.01617
2828.61632,0.01615
2826.55614,0.01586
2824.49597,0.01547
2822.43580,0.01531
2820.37563,0.01536
2818.31546,0.01526
2816.25528,0.01503
2814.19511,0.01496
2812.13494,0.01497
2810.07477,0.01478
2808.01460,0.01455
2805.95442,0.01461
2803.89425,0.01480
2801.83408,0.01494
2799.77391,0.01486
2797.71373,0.01451
2795.65356,0.01425
2793.59339,0.01416
2791.53322,0.01413
2789.47305,0.01413
2787.41287,0.01405
2785.35270,0.01401
2783.29253,0.01402
2781.23236,0.01400
2779.17219,0.01396
2777.11201,0.01385
2775.05184,0.01372
2772.99167,0.01369
2770.93150,0.01370
2768.87133,0.01361
2766.81115,0.01329
2764.75098,0.01301
2762.69081,0.01314
2760.63064,0.01333
2758.57046,0.01317
2756.51029,0.01292
2754.45012,0.01280
2752.38995,0.01276
2750.32978,0.01276
2748.26960,0.01277
2746.20943,0.01276
2744.14926,0.01275
2742.08909,0.01269
2740.02892,0.01251
2737.96874,0.01231
2735.90857,0.01228
2733.84840,0.01233
2731.78823,0.01215
2729.72805,0.01190
2727.66788,0.01179
2725.60771,0.01169
2723.54754,0.01166
2721.48737,0.01178
2719.42719,0.01183
2717.36702,0.01168
2715.30685,0.01140
2713.24668,0.01115
2711.18651,0.01121
2709.12633,0.01158
2707.06616,0.01168
2705.00599,0.01134
2702.94582,0.01099
2700.88565,0.01086
2698.82547,0.01086
2696.76530,0.01082
2694.70513,0.01066
2692.64496,0.01052
2690.58478,0.01047
2688.52461,0.01051
2686.46444,0.01066
2684.40427,0.01069
2682.34410,0.01060
2680.28392,0.01048
2678.22375,0.01021
2676.16358,0.00993
2674.10341,0.00985
2672.04324,0.00979
2669.98306,0.00970
2667.92289,0.00973
2665.86272,0.00974
2663.80255,0.00970
2661.74238,0.00973
2659.68220,0.00986
2657.62203,0.00991
2655.56186,0.00973
2653.50169,0.00936
2651.44151,0.00903
2649.38134,0.00898
2647.32117,0.00909
2645.26100,0.00915
2643.20083,0.00919
2641.14065,0.00909
2639.08048,0.00883
2637.02031,0.00859
2634.96014,0.00826
2632.89997,0.00787
2630.83979,0.00794
2628.77962,0.00832
2626.71945,0.00848
2624.65928,0.00843
2622.59910,0.00844
2620.53893,0.00839
2618.47876,0.00817
2616.41859,0.00789
2614.35842,0.00766
2612.29824,0.00752
2610.23807,0.00752
2608.17790,0.00752
2606.11773,0.00756
2604.05756,0.00763
2601.99738,0.00742
2599.93721,0.00711
2597.87704,0.00712
2595.81687,0.00738
2593.75670,0.00739
2591.69652,0.00706
2589.63635,0.00713
2587.57618,0.00744
2585.51601,0.00734
2583.45583,0.00721
2581.39566,0.00721
2579.33549,0.00693
2577.27532,0.00677
2575.21515,0.00697
2573.15497,0.00704
2571.09480,0.00683
2569.03463,0.00660
2566.97446,0.00644
2564.91429,0.00630
2562.85411,0.00616
2560.79394,0.00624
2558.73377,0.00657
2556.67360,0.00688
2554.61342,0.00708
2552.55325,0.00714
2550.49308,0.00705
2548.43291,0.00668
2546.37274,0.00633
2544.31256,0.00646
2542.25239,0.00679
2540.19222,0.00691
2538.13205,0.00688
2536.07188,0.00683
2534.01170,0.00683
2531.95153,0.00679
2529.89136,0.00666
2527.83119,0.00677
2525.77102,0.00708
2523.71084,0.00708
2521.65067,0.00692
2519.59050,0.00706
2517.53033,0.00725
2515.47015,0.00721
2513.40998,0.00703
2511.34981,0.00691
2509.28964,0.00704
2507.22947,0.00717
2505.16929,0.00709
2503.10912,0.00703
2501.04895,0.00729
2498.98878,0.00755
2496.92861,0.00737
2494.86843,0.00698
2492.80826,0.00669
2490.74809,0.00669
2488.68792,0.00699
2486.62775,0.00714
2484.56757,0.00699
2482.50740,0.00701
2480.44723,0.00713
2478.38706,0.00721
2476.32688,0.00750
2474.26671,0.00764
2472.20654,0.00750
2470.14637,0.00752
2468.08620,0.00768
2466.02602,0.00773
2463.96585,0.00766
2461.90568,0.00761
2459.84551,0.00764
2457.78534,0.00765
2455.72516,0.00770
2453.66499,0.00782
2451.60482,0.00800
2449.54465,0.00813
2447.48447,0.00790
2445.42430,0.00727
2443.36413,0.00692
2441.30396,0.00723
2439.24379,0.00736
2437.18361,0.00707
2435.12344,0.00705
2433.06327,0.00738
2431.00310,0.00764
2428.94293,0.00770
2426.88275,0.00759
2424.82258,0.00723
2422.76241,0.00684
2420.70224,0.00674
2418.64207,0.00686
2416.58189,0.00720
2414.52172,0.00756
2412.46155,0.00777
2410.40138,0.00788
2408.34120,0.00763
2406.28103,0.00713
2404.22086,0.00683
2402.16069,0.00665
2400.10052,0.00655
2398.04034,0.00675
2395.98017,0.00722
2393.92000,0.00781
2391.85983,0.00818
2389.79966,0.00818
2387.73948,0.00801
2385.67931,0.00783
2383.61914,0.00759
2381.55897,0.00736
2379.49880,0.00722
2377.43862,0.00716
2375.37845,0.00727
2373.31828,0.00712
2371.25811,0.00645
2369.19793,0.00644
2367.13776,0.00781
2365.07759,0.00875
2363.01742,0.00788
2360.95725,0.00728
2358.89707,0.00876
2356.83690,0.01042
2354.77673,0.01058
2352.71656,0.01007
2350.65639,0.00966
2348.59621,0.00939
2346.53604,0.00945
2344.47587,0.00981
2342.41570,0.00979
2340.35552,0.00929
2338.29535,0.00905
2336.23518,0.00954
2334.17501,0.00966
2332.11484,0.00865
2330.05466,0.00809
2327.99449,0.00858
2325.93432,0.00849
2323.87415,0.00758
2321.81398,0.00747
2319.75380,0.00826
2317.69363,0.00826
2315.63346,0.00725
2313.57329,0.00668
2311.51312,0.00707
2309.45294,0.00758
2307.39277,0.00765
2305.33260,0.00734
2303.27243,0.00700
2301.21225,0.00694
2299.15208,0.00726
2297.09191,0.00773
2295.03174,0.00788
2292.97157,0.00776
2290.91139,0.00780
2288.85122,0.00795
2286.79105,0.00787
2284.73088,0.00766
2282.67071,0.00753
2280.61053,0.00731
2278.55036,0.00700
2276.49019,0.00689
2274.43002,0.00686
2272.36984,0.00665
2270.30967,0.00652
2268.24950,0.00647
2266.18933,0.00618
2264.12916,0.00592
2262.06898,0.00618
2260.00881,0.00673
2257.94864,0.00677
2255.88847,0.00631
2253.82830,0.00597
2251.76812,0.00589
2249.70795,0.00579
2247.64778,0.00567
2245.58761,0.00616
2243.52744,0.00674
2241.46726,0.00627
2239.40709,0.00524
2237.34692,0.00501
2235.28675,0.00528
2233.22657,0.00546
2231.16640,0.00555
2229.10623,0.00497
2227.04606,0.00440
2224.98589,0.00458
2222.92571,0.00466
2220.86554,0.00487
2218.80537,0.00557
2216.74520,0.00574
2214.68503,0.00566
2212.62485,0.00597
2210.56468,0.00563
2208.50451,0.00463
2206.44434,0.00439
2204.38417,0.00474
2202.32399,0.00449
2200.26382,0.00420
2198.20365,0.00425
2196.14348,0.00411
2194.08330,0.00421
2192.02313,0.00494
2189.96296,0.00481
2187.90279,0.00272
2185.84262,0.00121
2183.78244,0.00289
2181.72227,0.00589
2179.66210,0.00644
2177.60193,0.00466
2175.54176,0.00338
2173.48158,0.00295
2171.42141,0.00237
2169.36124,0.00235
2167.30107,0.00290
2165.24089,0.00309
2163.18072,0.00317
2161.12055,0.00252
2159.06038,0.00086
2157.00021,0.00000
2154.94003,0.00092
2152.87986,0.00262
2150.81969,0.00399
2148.75952,0.00401
2146.69935,0.00247
2144.63917,0.00103
2142.57900,0.00096
2140.51883,0.00187
2138.45866,0.00284
2136.39849,0.00309
2134.33831,0.00308
2132.27814,0.00367
2130.21797,0.00431
2128.15780,0.00463
2126.09762,0.00480
2124.03745,0.00450
2121.97728,0.00420
2119.91711,0.00426
2117.85694,0.00400
2115.79676,0.00359
2113.73659,0.00370
2111.67642,0.00406
2109.61625,0.00419
2107.55608,0.00405
2105.49590,0.00397
2103.43573,0.00398
2101.37556,0.00368
2099.31539,0.00291
2097.25521,0.00244
2095.19504,0.00309
2093.13487,0.00416
2091.07470,0.00438
2089.01453,0.00377
2086.95435,0.00322
2084.89418,0.00316
2082.83401,0.00321
2080.77384,0.00297
2078.71367,0.00302
2076.65349,0.00375
2074.59332,0.00424
2072.53315,0.00402
2070.47298,0.00401
2068.41281,0.00436
2066.35263,0.00418
2064.29246,0.00378
2062.23229,0.00372
2060.17212,0.00328
2058.11194,0.00224
2056.05177,0.00139
2053.99160,0.00137
2051.93143,0.00200
2049.87126,0.00265
2047.81108,0.00283
2045.75091,0.00260
2043.69074,0.00245
2041.63057,0.00255
2039.57040,0.00239
2037.51022,0.00187
2035.45005,0.00172
2033.38988,0.00184
2031.32971,0.00187
2029.26954,0.00229
2027.20936,0.00227
2025.14919,0.00131
2023.08902,0.00117
2021.02885,0.00189
2018.96867,0.00205
2016.90850,0.00170
2014.84833,0.00148
2012.78816,0.00103
2010.72799,0.00024
2008.66781,0.00000
2006.60764,0.00054
2004.54747,0.00076
2002.48730,0.00087
2000.42713,0.00222
1998.36695,0.00343
1996.30678,0.00306
1994.24661,0.00249
1992.18644,0.00281
1990.12626,0.00317
1988.06609,0.00293
1986.00592,0.00317
1983.94575,0.00374
1981.88558,0.00301
1979.82540,0.00161
1977.76523,0.00100
1975.70506,0.00075
1973.64489,0.00038
1971.58472,0.00059
1969.52454,0.00135
1967.46437,0.00194
1965.40420,0.00201
1963.34403,0.00153
1961.28386,0.00124
1959.22368,0.00167
1957.16351,0.00231
1955.10334,0.00229
1953.04317,0.00163
1950.98299,0.00120
1948.92282,0.00097
1946.86265,0.00056
1944.80248,0.00018
1942.74231,0.00000
1940.68213,0.00014
1938.62196,0.00059
1936.56179,0.00118
1934.50162,0.00149
1932.44145,0.00101
1930.38127,0.00012
1928.32110,0.00000
1926.26093,0.00092
1924.20076,0.00210
1922.14059,0.00265
1920.08041,0.00253
1918.02024,0.00242
1915.96007,0.00245
1913.89990,0.00227
1911.83972,0.00188
1909.77955,0.00167
1907.71938,0.00191
1905.65921,0.00221
1903.59904,0.00200
1901.53886,0.00158
1899.47869,0.00149
1897.41852,0.00136
1895.35835,0.00110
1893.29818,0.00123
1891.23800,0.00165
1889.17783,0.00199
1887.11766,0.00223
1885.05749,0.00227
1882.99731,0.00198
1880.93714,0.00159
1878.87697,0.00156
1876.81680,0.00190
1874.75663,0.00233
1872.69645,0.00269
1870.63628,0.00292
1868.57611,0.00276
1866.51594,0.00224
1864.45577,0.00188
1862.39559,0.00183
1860.33542,0.00191
1858.27525,0.00218
1856.21508,0.00270
1854.15491,0.00304
1852.09473,0.00284
1850.03456,0.00243
1847.97439,0.00232
1845.91422,0.00244
1843.85404,0.00259
1841.79387,0.00259
1839.73370,0.00243
1837.67353,0.00234
1835.61336,0.00237
1833.55318,0.00236
1831.49301,0.00227
1829.43284,0.00222
1827.37267,0.00230
1825.31250,0.00252
1823.25232,0.00267
1821.19215,0.00247
1819.13198,0.00209
1817.07181,0.00191
1815.01163,0.00211
1812.95146,0.00256
1810.89129,0.00297
1808.83112,0.00311
1806.77095,0.00301
1804.71077,0.00283
1802.65060,0.00265
1800.59043,0.00255
1798.53026,0.00260
1796.47009,0.00270
1794.40991,0.00279
1792.34974,0.00276
1790.28957,0.00257
1788.22940,0.00241
1786.16923,0.00239
1784.10905,0.00249
1782.04888,0.00268
1779.98871,0.00282
1777.92854,0.00277
1775.86836,0.00265
1773.80819,0.00272
1771.74802,0.00308
1769.68785,0.00341
1767.62768,0.00357
1765.56750,0.00354
1763.50733,0.00336
1761.44716,0.00319
1759.38699,0.00314
1757.32682,0.00319
1755.26664,0.00321
1753.20647,0.00335
1751.14630,0.00391
1749.08613,0.00457
1747.02596,0.00467
1744.96578,0.00447
1742.90561,0.00449
1740.84544,0.00462
1738.78527,0.00466
1736.72509,0.00473
1734.66492,0.00502
1732.60475,0.00542
1730.54458,0.00551
1728.48441,0.00526
1726.42423,0.00510
1724.36406,0.00537
1722.30389,0.00578
1720.24372,0.00604
1718.18355,0.00636
1716.12337,0.00672
1714.06320,0.00685
1712.00303,0.00696
1709.94286,0.00722
1707.88268,0.00752
1705.82251,0.00778
1703.76234,0.00790
1701.70217,0.00792
1699.64200,0.00816
1697.58182,0.00857
1695.52165,0.00902
1693.46148,0.00950
1691.40131,0.00995
1689.34114,0.01048
1687.28096,0.01104
1685.22079,0.01149
1683.16062,0.01183
1681.10045,0.01212
1679.04028,0.01249
1676.98010,0.01296
1674.91993,0.01353
1672.85976,0.01407
1670.79959,0.01451
1668.73941,0.01477
1666.67924,0.01481
1664.61907,0.01490
1662.55890,0.01521
1660.49873,0.01556
1658.43855,0.01579
1656.37838,0.01597
1654.31821,0.01638
1652.25804,0.01689
1650.19787,0.01696
1648.13769,0.01697
1646.07752,0.01714
1644.01735,0.01707
1641.95718,0.01679
1639.89701,0.01657
1637.83683,0.01652
1635.77666,0.01657
1633.71649,0.01643
1631.65632,0.01610
1629.59614,0.01571
1627.53597,0.01535
1625.47580,0.01505
1623.41563,0.01481
1621.35546,0.01450
1619.29528,0.01421
1617.23511,0.01402
1615.17494,0.01374
1613.11477,0.01333
1611.05460,0.01300
1608.99442,0.01285
1606.93425,0.01261
1604.87408,0.01214
1602.81391,0.01165
1600.75373,0.01126
1598.69356,0.01089
1596.63339,0.01052
1594.57322,0.01021
1592.51305,0.00997
1590.45287,0.00972
1588.39270,0.00942
1586.33253,0.00916
1584.27236,0.00895
1582.21219,0.00872
1580.15201,0.00845
1578.09184,0.00820
1576.03167,0.00797
1573.97150,0.00772
1571.91133,0.00747
1569.85115,0.00719
1567.79098,0.00686
1565.73081,0.00648
1563.67064,0.00602
1561.61046,0.00573
1559.55029,0.00596
1557.49012,0.00623
1555.42995,0.00588
1553.36978,0.00530
1551.30960,0.00487
1549.24943,0.00470
1547.18926,0.00475
1545.12909,0.00499
1543.06892,0.00512
1541.00874,0.00487
1538.94857,0.00442
1536.88840,0.00407
1534.82823,0.00400
1532.76805,0.00406
1530.70788,0.00396
1528.64771,0.00378
1526.58754,0.00372
1524.52737,0.00377
1522.46719,0.00371
1520.40702,0.00349
1518.34685,0.00346
1516.28668,0.00352
1514.22651,0.00336
1512.16633,0.00318
1510.10616,0.00315
1508.04599,0.00319
1505.98582,0.00311
1503.92565,0.00282
1501.86547,0.00246
1499.80530,0.00230
1497.74513,0.00242
1495.68496,0.00250
1493.62478,0.00235
1491.56461,0.00220
1489.50444,0.00230
1487.44427,0.00248
1485.38410,0.00248
1483.32392,0.00235
1481.26375,0.00222
1479.20358,0.00222
1477.14341,0.00238
1475.08324,0.00262
1473.02306,0.00285
1470.96289,0.00287
1468.90272,0.00266
1466.84255,0.00254
1464.78238,0.00264
1462.72220,0.00270
1460.66203,0.00267
1458.60186,0.00281
1456.54169,0.00310
1454.48151,0.00315
1452.42134,0.00301
1450.36117,0.00291
1448.30100,0.00289
1446.24083,0.00282
1444.18065,0.00269
1442.12048,0.00262
1440.06031,0.00262
1438.00014,0.00275
1435.93997,0.00305
1433.87979,0.00328
1431.81962,0.00322
1429.75945,0.00300
1427.69928,0.00291
1425.63910,0.00303
1423.57893,0.00317
1421.51876,0.00323
1419.45859,0.00332
1417.39842,0.00341
1415.33824,0.00339
1413.27807,0.00329
1411.21790,0.00320
1409.15773,0.00311
1407.09756,0.00300
1405.03738,0.00295
1402.97721,0.00298
1400.91704,0.00300
1398.85687,0.00296
1396.79670,0.00281
1394.73652,0.00253
1392.67635,0.00229
1390.61618,0.00229
1388.55601,0.00248
1386.49583,0.00255
1384.43566,0.00236
1382.37549,0.00214
1380.31532,0.00208
1378.25515,0.00216
1376.19497,0.00224
1374.13480,0.00234
1372.07463,0.00249
1370.01446,0.00257
1367.95429,0.00249
1365.89411,0.00236
1363.83394,0.00232
1361.77377,0.00228
1359.71360,0.00209
1357.65343,0.00175
1355.59325,0.00148
1353.53308,0.00145
1351.47291,0.00156
1349.41274,0.00158
1347.35256,0.00149
1345.29239,0.00142
1343.23222,0.00145
1341.17205,0.00146
1339.11188,0.00132
1337.05170,0.00107
1334.99153,0.00091
1332.93136,0.00094
1330.87119,0.00109
1328.81102,0.00122
1326.75084,0.00121
1324.69067,0.00116
1322.63050,0.00122
1320.57033,0.00141
1318.51015,0.00146
1316.44998,0.00126
1314.38981,0.00103
1312.32964,0.00100
1310.26947,0.00109
1308.20929,0.00110
1306.14912,0.00098
1304.08895,0.00090
1302.02878,0.00101
1299.96861,0.00126
1297.90843,0.00142
1295.84826,0.00137
1293.78809,0.00126
1291.72792,0.00120
1289.66775,0.00121
1287.60757,0.00127
1285.54740,0.00135
1283.48723,0.00149
1281.42706,0.00160
1279.36688,0.00151
1277.30671,0.00149
1275.24654,0.00169
1273.18637,0.00188
1271.12620,0.00190
1269.06602,0.00186
1267.00585,0.00190
1264.94568,0.00201
1262.88551,0.00206
1260.82534,0.00201
1258.76516,0.00208
1256.70499,0.00228
1254.64482,0.00234
1252.58465,0.00219
1250.52447,0.00203
1248.46430,0.00199
1246.40413,0.00205
1244.34396,0.00196
1242.28379,0.00166
1240.22361,0.00153
1238.16344,0.00156
1236.10327,0.00156
1234.04310,0.00165
1231.98293,0.00171
1229.92275,0.00154
1227.86258,0.00125
1225.80241,0.00098
1223.74224,0.00084
1221.68207,0.00075
1219.62189,0.00051
1217.56172,0.00028
1215.50155,0.00021
1213.44138,0.00018
1211.38120,0.00015
1209.32103,0.00012
1207.26086,0.00005
1205.20069,0.00000
1203.14052,0.00005
1201.08034,0.00022
1199.02017,0.00030
1196.96000,0.00023
1194.89983,0.00025
1192.83966,0.00039
1190.77948,0.00048
1188.71931,0.00057
1186.65914,0.00066
1184.59897,0.00074
1182.53880,0.00092
1180.47862,0.00130
1178.41845,0.00191
1176.35828,0.00262
1174.29811,0.00318
1172.23793,0.00356
1170.17776,0.00404
1168.11759,0.00475
1166.05742,0.00546
1163.99725,0.00602
1161.93707,0.00652
1159.87690,0.00697
1157.81673,0.00737
1155.75656,0.00778
1153.69639,0.00826
1151.63621,0.00880
1149.57604,0.00939
1147.51587,0.00993
1145.45570,0.01038
1143.39552,0.01087
1141.33535,0.01143
1139.27518,0.01190
1137.21501,0.01236
1135.15484,0.01307
1133.09466,0.01393
1131.03449,0.01464
1128.97432,0.01530
1126.91415,0.01605
1124.85398,0.01682
1122.79380,0.01768
1120.73363,0.01868
1118.67346,0.01968
1116.61329,0.02049
1114.55312,0.02131
1112.49294,0.02243
1110.43277,0.02377
1108.37260,0.02512
1106.31243,0.02635
1104.25225,0.02741
1102.19208,0.02849
1100.13191,0.02961
1098.07174,0.03068
1096.01157,0.03170
1093.95139,0.03269
1091.89122,0.03357
1089.83105,0.03431
1087.77088,0.03512
1085.71071,0.03608
1083.65053,0.03692
1081.59036,0.03754
1079.53019,0.03816
1077.47002,0.03888
1075.40985,0.03952
1073.34967,0.03987
1071.28950,0.03993
1069.22933,0.03984
1067.16916,0.03993
1065.10898,0.04029
1063.04881,0.04043
1060.98864,0.04013
1058.92847,0.03959
1056.86830,0.03891
1054.80812,0.03819
1052.74795,0.03761
1050.68778,0.03711
1048.62761,0.03637
1046.56744,0.03524
1044.50726,0.03411
1042.44709,0.03319
1040.38692,0.03223
1038.32675,0.03117
1036.26657,0.03006
1034.20640,0.02902
1032.14623,0.02808
1030.08606,0.02716
1028.02589,0.02628
1025.96571,0.02545
1023.90554,0.02454
1021.84537,0.02364
1019.78520,0.02299
1017.72503,0.02244
1015.66485,0.02187
1013.60468,0.02139
1011.54451,0.02096
1009.48434,0.02060
1007.42417,0.02044
1005.36399,0.02044
1003.30382,0.02060
1001.24365,0.02093
999.18348,0.02140
997.12330,0.02202
995.06313,0.02258
993.00296,0.02313
990.94279,0.02397
988.88262,0.02482
986.82244,0.02526
984.76227,0.02517
982.70210,0.02487
980.64193,0.02455
978.58176,0.02384
976.52158,0.02288
974.46141,0.02197
972.40124,0.02089
970.34107,0.01964
968.28089,0.01843
966.22072,0.01727
964.16055,0.01608
962.10038,0.01481
960.04021,0.01362
957.98003,0.01274
955.91986,0.01214
953.85969,0.01160
951.79952,0.01103
949.73935,0.01053
947.67917,0.01002
945.61900,0.00948
943.55883,0.00926
941.49866,0.00946
939.43849,0.00967
937.37831,0.00948
935.31814,0.00887
933.25797,0.00829
931.19780,0.00808
929.13762,0.00808
927.07745,0.00821
925.01728,0.00841
922.95711,0.00832
920.89694,0.00755
918.83676,0.00671
916.77659,0.00647
914.71642,0.00646
912.65625,0.00615
910.59608,0.00571
908.53590,0.00555
906.47573,0.00556
904.41556,0.00534
902.35539,0.00502
900.29522,0.00497
898.23504,0.00518
896.17487,0.00532
894.11470,0.00532
892.05453,0.00529
889.99435,0.00535
887.93418,0.00554
885.87401,0.00586
883.81384,0.00614
881.75367,0.00618
879.69349,0.00629
877.63332,0.00682
875.57315,0.00744
873.51298,0.00775
871.45281,0.00793
869.39263,0.00819
867.33246,0.00843
865.27229,0.00873
863.21212,0.00923
861.15194,0.00961
859.09177,0.00966
857.03160,0.00952
854.97143,0.00926
852.91126,0.00894
850.85108,0.00848
848.79091,0.00813
846.73074,0.00819
844.67057,0.00833
842.61040,0.00822
840.55022,0.00784
838.49005,0.00707
836.42988,0.00606
834.36971,0.00560
832.30954,0.00558
830.24936,0.00521
828.18919,0.00470
826.12902,0.00461
824.06885,0.00470
822.00867,0.00467
819.94850,0.00453
817.88833,0.00418
815.82816,0.00373
813.76799,0.00358
811.70781,0.00358
809.64764,0.00366
807.58747,0.00398
805.52730,0.00413
803.46713,0.00383
801.40695,0.00314
799.34678,0.00235
797.28661,0.00215
795.22644,0.00225
793.16627,0.00206
791.10609,0.00225
789.04592,0.00287
786.98575,0.00291
784.92558,0.00243
782.86540,0.00208
780.80523,0.00221
778.74506,0.00269
776.68489,0.00276
774.62472,0.00251
772.56454,0.00244
770.50437,0.00228
768.44420,0.00194
766.38403,0.00178
764.32386,0.00185
762.26368,0.00163
760.20351,0.00148
758.14334,0.00187
756.08317,0.00178
754.02299,0.00071
751.96282,0.00000
749.90265,0.00019
747.84248,0.00044
745.78231,0.00061
743.72213,0.00113
741.66196,0.00160
739.60179,0.00184
737.54162,0.00220
735.48145,0.00241
733.42127,0.00210
731.36110,0.00158
729.30093,0.00156
727.24076,0.00192
725.18059,0.00230
723.12041,0.00284
721.06024,0.00319
719.00007,0.00309
716.93990,0.00290
714.87972,0.00269
712.81955,0.00219
710.75938,0.00175
708.69921,0.00184
706.63904,0.00206
704.57886,0.00198
702.51869,0.00174
700.45852,0.00156
698.39835,0.00156
696.33818,0.00149
694.27800,0.00103
692.21783,0.00069
690.15766,0.00089
688.09749,0.00154
686.03731,0.00264
683.97714,0.00366
681.91697,0.00351
679.85680,0.00212
677.79663,0.00087
675.73645,0.00096
673.67628,0.00194
671.61611,0.00269
669.55594,0.00312
667.49577,0.00274
665.43559,0.00133
663.37542,0.00071
661.31525,0.00151
659.25508,0.00254
657.19491,0.00296
655.13473,0.00265
653.07456,0.00225
651.01439,0.00265
648.95422,0.00360
646.89404,0.00434
644.83387,0.00475
642.77370,0.00397
640.71353,0.00165
638.65336,0.00000
636.59318,0.00052
634.53301,0.00194
632.47284,0.00228
630.41267,0.00119
628.35250,0.00008
626.29232,0.00038
624.23215,0.00169
622.17198,0.00321
620.11181,0.00450
618.05164,0.00485
615.99146,0.00469
613.93129,0.00442
611.87112,0.00344
609.81095,0.00174
607.75077,0.00008
605.69060,-0.00033
603.63043,0.00050
601.57026,0.00077
599.51009,0.00000
