3996.73391,0.00095
3994.67373,0.00108
3992.61356,0.00093
3990.55339,0.00058
3988.49322,0.00043
3986.43305,0.00060
3984.37287,0.00074
3982.31270,0.00066
3980.25253,0.00076
3978.19236,0.00104
3976.13219,0.00111
3974.07201,0.00117
3972.01184,0.00126
3969.95167,0.00106
3967.89150,0.00062
3965.83133,0.00025
3963.77115,0.00003
3961.71098,0.00000
3959.65081,0.00020
3957.59064,0.00058
3955.53046,0.00091
3953.47029,0.00091
3951.41012,0.00055
3949.34995,0.00022
3947.28978,0.00025
3945.22960,0.00043
3943.16943,0.00059
3941.10926,0.00067
3939.04909,0.00048
3936.98892,0.00017
3934.92874,0.00006
3932.86857,0.00033
3930.80840,0.00101
3928.74823,0.00168
3926.68805,0.00176
3924.62788,0.00131
3922.56771,0.00084
3920.50754,0.00066
3918.44737,0.00064
3916.38719,0.00059
3914.32702,0.00060
3912.26685,0.00074
3910.20668,0.00077
3908.14651,0.00068
3906.08633,0.00077
3904.02616,0.00080
3901.96599,0.00033
3899.90582,0.00010
3897.84565,0.00064
3895.78547,0.00121
3893.72530,0.00122
3891.66513,0.00093
3889.60496,0.00086
3887.54478,0.00099
3885.48461,0.00113
3883.42444,0.00128
3881.36427,0.00122
3879.30410,0.00090
3877.24392,0.00072
3875.18375,0.00070
3873.12358,0.00061
3871.06341,0.00057
3869.00324,0.00068
3866.94306,0.00078
3864.88289,0.00087
3862.82272,0.00109
3860.76255,0.00134
3858.70237,0.00126
3856.64220,0.00076
3854.58203,0.00020
3852.52186,0.00029
3850.46169,0.00091
3848.40151,0.00128
3846.34134,0.00118
3844.28117,0.00080
3842.22100,0.00041
3840.16083,0.00048
3838.10065,0.00108
3836.04048,0.00135
3833.98031,0.00125
3831.92014,0.00137
3829.85997,0.00146
3827.79979,0.00119
3825.73962,0.00091
3823.67945,0.00084
3821.61928,0.00084
3819.55910,0.00107
3817.49893,0.00149
3815.43876,0.00175
3813.37859,0.00177
3811.31842,0.00172
3809.25824,0.00180
3807.19807,0.00191
3805.13790,0.00172
3803.07773,0.00131
3801.01756,0.00107
3798.95738,0.00080
3796.89721,0.00029
3794.83704,0.00000
3792.77687,0.00033
3790.71670,0.00107
3788.65652,0.00152
3786.59635,0.00138
3784.53618,0.00117
3782.47601,0.00126
3780.41583,0.00133
3778.35566,0.00120
3776.29549,0.00107
3774.23532,0.00106
3772.17515,0.00126
3770.11497,0.00153
3768.05480,0.00145
3765.99463,0.00109
3763.93446,0.00107
3761.87429,0.00142
3759.81411,0.00160
3757.75394,0.00155
3755.69377,0.00168
3753.63360,0.00181
3751.57342,0.00166
3749.51325,0.00186
3747.45308,0.00253
3745.39291,0.00300
3743.33274,0.00282
3741.27256,0.00229
3739.21239,0.00199
3737.15222,0.00173
3735.09205,0.00115
3733.03188,0.00073
3730.97170,0.00095
3728.91153,0.00132
3726.85136,0.00127
3724.79119,0.00099
3722.73102,0.00107
3720.67084,0.00156
3718.61067,0.00204
3716.55050,0.00223
3714.49033,0.00200
3712.43015,0.00158
3710.36998,0.00152
3708.30981,0.00187
3706.24964,0.00218
3704.18947,0.00216
3702.12929,0.00185
3700.06912,0.00154
3698.00895,0.00159
3695.94878,0.00199
3693.88861,0.00232
3691.82843,0.00208
3689.76826,0.00150
3687.70809,0.00133
3685.64792,0.00127
3683.58775,0.00111
3681.52757,0.00117
3679.46740,0.00143
3677.40723,0.00170
3675.34706,0.00203
3673.28688,0.00234
3671.22671,0.00261
3669.16654,0.00290
3667.10637,0.00309
3665.04620,0.00323
3662.98602,0.00342
3660.92585,0.00367
3658.86568,0.00386
3656.80551,0.00374
3654.74534,0.00357
3652.68516,0.00385
3650.62499,0.00444
3648.56482,0.00474
3646.50465,0.00458
3644.44447,0.00461
3642.38430,0.00515
3640.32413,0.00577
3638.26396,0.00594
3636.20379,0.00595
3634.14361,0.00632
3632.08344,0.00666
3630.02327,0.00668
3627.96310,0.00710
3625.90293,0.00788
3623.84275,0.00827
3621.78258,0.00834
3619.72241,0.00850
3617.66224,0.00870
3615.60207,0.00882
3613.54189,0.00915
3611.48172,0.00984
3609.42155,0.01082
3607.36138,0.01171
3605.30120,0.01193
3603.24103,0.01150
3601.18086,0.01104
3599.12069,0.01096
3597.06052,0.01119
3595.00034,0.01171
3592.94017,0.01232
3590.88000,0.01267
3588.81983,0.01288
3586.75966,0.01334
3584.69948,0.01401
3582.63931,0.01463
3580.57914,0.01517
3578.51897,0.01573
3576.45879,0.01619
3574.39862,0.01647
3572.33845,0.01660
3570.27828,0.01659
3568.21811,0.01659
3566.15793,0.01681
3564.09776,0.01716
3562.03759,0.01759
3559.97742,0.01814
3557.91725,0.01862
3555.85707,0.01890
3553.79690,0.01916
3551.73673,0.01975
3549.67656,0.02048
3547.61639,0.02101
3545.55621,0.02144
3543.49604,0.02185
3541.43587,0.02207
3539.37570,0.02208
3537.31552,0.02223
3535.25535,0.02269
3533.19518,0.02312
3531.13501,0.02325
3529.07484,0.02328
3527.01466,0.02333
3524.95449,0.02335
3522.89432,0.02352
3520.83415,0.02405
3518.77398,0.02481
3516.71380,0.02543
3514.65363,0.02561
3512.59346,0.02562
3510.53329,0.02591
3508.47312,0.02646
3506.41294,0.02702
3504.35277,0.02742
3502.29260,0.02765
3500.23243,0.02778
3498.17225,0.02804
3496.11208,0.02859
3494.05191,0.02909
3491.99174,0.02922
3489.93157,0.02927
3487.87139,0.02964
3485.81122,0.03022
3483.75105,0.03070
3481.69088,0.03098
3479.63071,0.03108
3477.57053,0.03112
3475.51036,0.03141
3473.45019,0.03189
3471.39002,0.03217
3469.32984,0.03228
3467.26967,0.03246
3465.20950,0.03271
3463.14933,0.03290
3461.08916,0.03311
3459.02898,0.03326
3456.96881,0.03322
3454.90864,0.03334
3452.84847,0.03398
3450.78830,0.03466
3448.72812,0.03483
3446.66795,0.03452
3444.60778,0.03439
3442.54761,0.03483
3440.48744,0.03533
3438.42726,0.03543
3436.36709,0.03542
3434.30692,0.03573
3432.24675,0.03617
3430.18657,0.03631
3428.12640,0.03629
3426.06623,0.03664
3424.00606,0.03739
3421.94589,0.03804
3419.88571,0.03810
3417.82554,0.03767
3415.76537,0.03753
3413.70520,0.03796
3411.64503,0.03837
3409.58485,0.03845
3407.52468,0.03842
3405.46451,0.03835
3403.40434,0.03845
3401.34416,0.03874
3399.28399,0.03904
3397.22382,0.03929
3395.16365,0.03941
3393.10348,0.03933
3391.04330,0.03939
3388.98313,0.03981
3386.92296,0.04028
3384.86279,0.04043
3382.80262,0.04045
3380.74244,0.04061
3378.68227,0.04082
3376.62210,0.04083
3374.56193,0.04058
3372.50176,0.04049
3370.44158,0.04076
3368.38141,0.04095
3366.32124,0.04075
3364.26107,0.04059
3362.20089,0.04077
3360.14072,0.04111
3358.08055,0.04152
3356.02038,0.04192
3353.96021,0.04201
3351.90003,0.04187
3349.83986,0.04192
3347.77969,0.04196
3345.71952,0.04173
3343.65935,0.04167
3341.59917,0.04197
3339.53900,0.04235
3337.47883,0.04257
3335.41866,0.04236
3333.35849,0.04199
3331.29831,0.04205
3329.23814,0.04231
3327.17797,0.04237
3325.11780,0.04250
3323.05762,0.04275
3320.99745,0.04273
3318.93728,0.04236
3316.87711,0.04202
3314.81694,0.04216
3312.75676,0.04267
3310.69659,0.04309
3308.63642,0.04319
3306.57625,0.04305
3304.51608,0.04300
3302.45590,0.04302
3300.39573,0.04286
3298.33556,0.04266
3296.27539,0.04263
3294.21521,0.04283
3292.15504,0.04314
3290.09487,0.04344
3288.03470,0.04367
3285.97453,0.04370
3283.91435,0.04337
3281.85418,0.04284
3279.79401,0.04260
3277.73384,0.04273
3275.67367,0.04302
3273.61349,0.04329
3271.55332,0.04338
3269.49315,0.04327
3267.43298,0.04335
3265.37281,0.04378
3263.31263,0.04405
3261.25246,0.04384
3259.19229,0.04358
3257.13212,0.04356
3255.07194,0.04352
3253.01177,0.04324
3250.95160,0.04306
3248.89143,0.04317
3246.83126,0.04326
3244.77108,0.04327
3242.71091,0.04326
3240.65074,0.04322
3238.59057,0.04332
3236.53040,0.04350
3234.47022,0.04343
3232.41005,0.04324
3230.34988,0.04332
3228.28971,0.04359
3226.22954,0.04373
3224.16936,0.04339
3222.10919,0.04283
3220.04902,0.04277
3217.98885,0.04320
3215.92867,0.04352
3213.86850,0.04345
3211.80833,0.04330
3209.74816,0.04325
3207.68799,0.04309
3205.62781,0.04289
3203.56764,0.04289
3201.50747,0.04309
3199.44730,0.04338
3197.38713,0.04354
3195.32695,0.04335
3193.26678,0.04297
3191.20661,0.04264
3189.14644,0.04244
3187.08626,0.04228
3185.02609,0.04198
3182.96592,0.04174
3180.90575,0.04187
3178.84558,0.04224
3176.78540,0.04240
3174.72523,0.04219
3172.66506,0.04180
3170.60489,0.04145
3168.54472,0.04122
3166.48454,0.04112
3164.42437,0.04119
3162.36420,0.04116
3160.30403,0.04089
3158.24386,0.04068
3156.18368,0.04063
3154.12351,0.04062
3152.06334,0.04065
3150.00317,0.04076
3147.94299,0.04070
3145.88282,0.04043
3143.82265,0.04029
3141.76248,0.04026
3139.70231,0.04023
3137.64213,0.04022
3135.58196,0.03999
3133.52179,0.03953
3131.46162,0.03930
3129.40145,0.03922
3127.34127,0.03875
3125.28110,0.03813
3123.22093,0.03800
3121.16076,0.03821
3119.10058,0.03811
3117.04041,0.03779
3114.98024,0.03764
3112.92007,0.03766
3110.85990,0.03776
3108.79972,0.03768
3106.73955,0.03732
3104.67938,0.03699
3102.61921,0.03681
3100.55904,0.03660
3098.49886,0.03640
3096.43869,0.03628
3094.37852,0.03613
3092.31835,0.03589
3090.25818,0.03563
3088.19800,0.03558
3086.13783,0.03571
3084.07766,0.03569
3082.01749,0.03552
3079.95731,0.03524
3077.89714,0.03484
3075.83697,0.03448
3073.77680,0.03429
3071.71663,0.03426
3069.65645,0.03415
3067.59628,0.03387
3065.53611,0.03355
3063.47594,0.03328
3061.41577,0.03322
3059.35559,0.03336
3057.29542,0.03341
3055.23525,0.03319
3053.17508,0.03282
3051.11491,0.03257
3049.05473,0.03232
3046.99456,0.03198
3044.93439,0.03171
3042.87422,0.03153
3040.81404,0.03145
3038.75387,0.03147
3036.69370,0.03133
3034.63353,0.03109
3032.57336,0.03096
3030.51318,0.03084
3028.45301,0.03075
3026.39284,0.03074
3024.33267,0.03046
3022.27250,0.02991
3020.21232,0.02942
3018.15215,0.02924
3016.09198,0.02931
3014.03181,0.02916
3011.97163,0.02886
3009.91146,0.02884
3007.85129,0.02905
3005.79112,0.02897
3003.73095,0.02848
3001.67077,0.02808
2999.61060,0.02796
2997.55043,0.02790
2995.49026,0.02770
2993.43009,0.02746
2991.36991,0.02741
2989.30974,0.02739
2987.24957,0.02704
2985.18940,0.02665
2983.12923,0.02640
2981.06905,0.02622
2979.00888,0.02632
2976.94871,0.02645
2974.88854,0.02618
2972.82836,0.02591
2970.76819,0.02605
2968.70802,0.02624
2966.64785,0.02607
2964.58768,0.02583
2962.52750,0.02581
2960.46733,0.02580
2958.40716,0.02572
2956.34699,0.02567
2954.28682,0.02550
2952.22664,0.02532
2950.16647,0.02543
2948.10630,0.02559
2946.04613,0.02555
2943.98596,0.02544
2941.92578,0.02532
2939.86561,0.02514
2937.80544,0.02498
2935.74527,0.02478
2933.68509,0.02454
2931.62492,0.02439
2929.56475,0.02439
2927.50458,0.02450
2925.44441,0.02447
2923.38423,0.02430
2921.32406,0.02427
2919.26389,0.02432
2917.20372,0.02433
2915.14355,0.02419
2913.08337,0.02376
2911.02320,0.02335
2908.96303,0.02317
2906.90286,0.02314
2904.84268,0.02320
2902.78251,0.02317
2900.72234,0.02295
2898.66217,0.02277
2896.60200,0.02283
2894.54182,0.02287
2892.48165,0.02264
2890.42148,0.02233
2888.36131,0.02225
2886.30114,0.02228
2884.24096,0.02219
2882.18079,0.02209
2880.12062,0.02215
2878.06045,0.02231
2876.00028,0.02236
2873.94010,0.02218
2871.87993,0.02185
2869.81976,0.02155
2867.75959,0.02141
2865.69941,0.02133
2863.63924,0.02127
2861.57907,0.02122
2859.51890,0.02124
2857.45873,0.02142
2855.39855,0.02161
2853.33838,0.02155
2851.27821,0.02119
2849.21804,0.02081
2847.15787,0.02071
2845.09769,0.02077
2843.03752,0.02058
2840.97735,0.02019
2838.91718,0.02010
2836.85700,0.02029
2834.79683,0.02019
2832.73666,0.01973
2830.67649,0.01942
2828.61632,0.01955
2826.55614,0.01978
2824.49597,0.01963
2822.43580,0.01923
2820.37563,0.01915
2818.31546,0.01928
2816.25528,0.01909
2814.19511,0.01885
2812.13494,0.01895
2810.07477,0.01902
2808.01460,0.01883
2805.95442,0.01869
2803.89425,0.01863
2801.83408,0.01852
2799.77391,0.01839
2797.71373,0.01821
2795.65356,0.01809
2793.59339,0.01808
2791.53322,0.01819
2789.47305,0.01822
2787.41287,0.01801
2785.35270,0.01771
2783.29253,0.01753
2781.23236,0.01756
2779.17219,0.01759
2777.11201,0.01745
2775.05184,0.01730
2772.99167,0.01714
2770.93150,0.01695
2768.87133,0.01690
2766.81115,0.01687
2764.75098,0.01682
2762.69081,0.01679
2760.63064,0.01667
2758.57046,0.01647
2756.51029,0.01633
2754.45012,0.01640
2752.38995,0.01651
2750.32978,0.01637
2748.26960,0.01615
2746.20943,0.01604
2744.14926,0.01587
2742.08909,0.01571
2740.02892,0.01573
2737.96874,0.01578
2735.90857,0.01570
2733.84840,0.01553
2731.78823,0.01546
2729.72805,0.01552
2727.66788,0.01547
2725.60771,0.01521
2723.54754,0.01507
2721.48737,0.01521
2719.42719,0.01532
2717.36702,0.01507
2715.30685,0.01464
2713.24668,0.01450
2711.18651,0.01462
2709.12633,0.01471
2707.06616,0.01466
2705.00599,0.01461
2702.94582,0.01466
2700.88565,0.01468
2698.82547,0.01445
2696.76530,0.01394
2694.70513,0.01348
2692.64496,0.01339
2690.58478,0.01353
2688.52461,0.01350
2686.46444,0.01330
2684.40427,0.01316
2682.34410,0.01309
2680.28392,0.01306
2678.22375,0.01303
2676.16358,0.01303
2674.10341,0.01296
2672.04324,0.01272
2669.98306,0.01259
2667.92289,0.01260
2665.86272,0.01252
2663.80255,0.01232
2661.74238,0.01212
2659.68220,0.01202
2657.62203,0.01193
2655.56186,0.01191
2653.50169,0.01196
2651.44151,0.01192
2649.38134,0.01186
2647.32117,0.01181
2645.26100,0.01172
2643.20083,0.01159
2641.14065,0.01147
2639.08048,0.01143
2637.02031,0.01144
2634.96014,0.01133
2632.89997,0.01115
2630.83979,0.01114
2628.77962,0.01105
2626.71945,0.01066
2624.65928,0.01032
2622.59910,0.01027
2620.53893,0.01026
2618.47876,0.01003
2616.41859,0.00978
2614.35842,0.00978
2612.29824,0.01004
2610.23807,0.01019
2608.17790,0.01003
2606.11773,0.01003
2604.05756,0.01006
2601.99738,0.00975
2599.93721,0.00963
2597.87704,0.00970
2595.81687,0.00961
2593.75670,0.00949
2591.69652,0.00966
2589.63635,0.01013
2587.57618,0.01035
2585.51601,0.00993
2583.45583,0.00912
2581.39566,0.00859
2579.33549,0.00859
2577.27532,0.00888
2575.21515,0.00923
2573.15497,0.00956
2571.09480,0.00966
2569.03463,0.00952
2566.97446,0.00939
2564.91429,0.00932
2562.85411,0.00930
2560.79394,0.00914
2558.73377,0.00887
2556.67360,0.00891
2554.61342,0.00903
2552.55325,0.00902
2550.49308,0.00912
2548.43291,0.00906
2546.37274,0.00892
2544.31256,0.00909
2542.25239,0.00922
2540.19222,0.00893
2538.13205,0.00877
2536.07188,0.00910
2534.01170,0.00931
2531.95153,0.00912
2529.89136,0.00898
2527.83119,0.00893
2525.77102,0.00882
2523.71084,0.00887
2521.65067,0.00912
2519.59050,0.00906
2517.53033,0.00862
2515.47015,0.00838
2513.40998,0.00834
2511.34981,0.00824
2509.28964,0.00854
2507.22947,0.00925
2505.16929,0.00933
2503.10912,0.00876
2501.04895,0.00865
2498.98878,0.00908
2496.92861,0.00927
2494.86843,0.00906
2492.80826,0.00912
2490.74809,0.00955
2488.68792,0.00989
2486.62775,0.01021
2484.56757,0.01066
2482.50740,0.01078
2480.44723,0.01036
2478.38706,0.00963
2476.32688,0.00892
2474.26671,0.00877
2472.20654,0.00932
2470.14637,0.00992
2468.08620,0.00998
2466.02602,0.00975
2463.96585,0.00984
2461.90568,0.01024
2459.84551,0.01045
2457.78534,0.01056
2455.72516,0.01082
2453.66499,0.01097
2451.60482,0.01085
2449.54465,0.01063
2447.48447,0.01044
2445.42430,0.01034
2443.36413,0.01032
2441.30396,0.01017
2439.24379,0.00984
2437.18361,0.00972
2435.12344,0.01010
2433.06327,0.01063
2431.00310,0.01065
2428.94293,0.01030
2426.88275,0.01022
2424.82258,0.01030
2422.76241,0.01020
2420.70224,0.01006
2418.64207,0.00987
2416.58189,0.00979
2414.52172,0.01012
2412.46155,0.01057
2410.40138,0.01051
2408.34120,0.01015
2406.28103,0.01005
2404.22086,0.01006
2402.16069,0.00998
2400.10052,0.00972
2398.04034,0.00935
2395.98017,0.00937
2393.92000,0.00963
2391.85983,0.00996
2389.79966,0.01020
2387.73948,0.01003
2385.67931,0.00964
2383.61914,0.00956
2381.55897,0.00968
2379.49880,0.00973
2377.43862,0.00976
2375.37845,0.00971
2373.31828,0.00915
2371.25811,0.00774
2369.19793,0.00636
2367.13776,0.00694
2365.07759,0.01004
2363.01742,0.01298
2360.95725,0.01304
2358.89707,0.01163
2356.83690,0.01086
2354.77673,0.01006
2352.71656,0.00890
2350.65639,0.00850
2348.59621,0.00908
2346.53604,0.00974
2344.47587,0.00960
2342.41570,0.00914
2340.35552,0.00930
2338.29535,0.00919
2336.23518,0.00870
2334.17501,0.00922
2332.11484,0.01042
2330.05466,0.01079
2327.99449,0.01036
2325.93432,0.01016
2323.87415,0.01069
2321.81398,0.01144
2319.75380,0.01163
2317.69363,0.01133
2315.63346,0.01075
2313.57329,0.00985
2311.51312,0.00913
2309.45294,0.00890
2307.39277,0.00884
2305.33260,0.00876
2303.27243,0.00855
2301.21225,0.00836
2299.15208,0.00860
2297.09191,0.00927
2295.03174,0.00965
2292.97157,0.00937
2290.91139,0.00918
2288.85122,0.00943
2286.79105,0.00948
2284.73088,0.00930
2282.67071,0.00926
2280.61053,0.00907
2278.55036,0.00865
2276.49019,0.00845
2274.43002,0.00860
2272.36984,0.00885
2270.30967,0.00887
2268.24950,0.00838
2266.18933,0.00796
2264.12916,0.00829
2262.06898,0.00883
2260.00881,0.00879
2257.94864,0.00832
2255.88847,0.00808
2253.82830,0.00791
2251.76812,0.00763
2249.70795,0.00755
2247.64778,0.00737
2245.58761,0.00673
2243.52744,0.00639
2241.46726,0.00680
2239.40709,0.00724
2237.34692,0.00762
2235.28675,0.00830
2233.22657,0.00853
2231.16640,0.00807
2229.10623,0.00757
2227.04606,0.00725
2224.98589,0.00730
2222.92571,0.00779
2220.86554,0.00802
2218.80537,0.00722
2216.74520,0.00648
2214.68503,0.00716
2212.62485,0.00807
2210.56468,0.00821
2208.50451,0.00843
2206.44434,0.00865
2204.38417,0.00789
2202.32399,0.00691
2200.26382,0.00657
2198.20365,0.00620
2196.14348,0.00558
2194.08330,0.00501
2192.02313,0.00471
2189.96296,0.00554
2187.90279,0.00738
2185.84262,0.00767
2183.78244,0.00617
2181.72227,0.00503
2179.66210,0.00444
2177.60193,0.00412
2175.54176,0.00444
2173.48158,0.00462
2171.42141,0.00445
2169.36124,0.00522
2167.30107,0.00614
2165.24089,0.00553
2163.18072,0.00422
2161.12055,0.00296
2159.06038,0.00106
2157.00021,0.00016
2154.94003,0.00149
2152.87986,0.00289
2150.81969,0.00337
2148.75952,0.00366
2146.69935,0.00368
2144.63917,0.00332
2142.57900,0.00323
2140.51883,0.00386
2138.45866,0.00447
2136.39849,0.00436
2134.33831,0.00430
2132.27814,0.00413
2130.21797,0.00296
2128.15780,0.00218
2126.09762,0.00319
2124.03745,0.00458
2121.97728,0.00460
2119.91711,0.00390
2117.85694,0.00396
2115.79676,0.00485
2113.73659,0.00550
2111.67642,0.00531
2109.61625,0.00481
2107.55608,0.00429
2105.49590,0.00371
2103.43573,0.00342
2101.37556,0.00343
2099.31539,0.00366
2097.25521,0.00406
2095.19504,0.00404
2093.13487,0.00379
2091.07470,0.00443
2089.01453,0.00552
2086.95435,0.00557
2084.89418,0.00464
2082.83401,0.00371
2080.77384,0.00347
2078.71367,0.00362
2076.65349,0.00308
2074.59332,0.00242
2072.53315,0.00285
2070.47298,0.00357
2068.41281,0.00316
2066.35263,0.00191
2064.29246,0.00138
2062.23229,0.00243
2060.17212,0.00399
2058.11194,0.00455
2056.05177,0.00423
2053.99160,0.00442
2051.93143,0.00491
2049.87126,0.00452
2047.81108,0.00375
2045.75091,0.00342
2043.69074,0.00366
2041.63057,0.00421
2039.57040,0.00454
2037.51022,0.00436
2035.45005,0.00330
2033.38988,0.00242
2031.32971,0.00308
2029.26954,0.00322
2027.20936,0.00146
2025.14919,0.00000
2023.08902,0.00027
2021.02885,0.00154
2018.96867,0.00242
2016.90850,0.00214
2014.84833,0.00180
2012.78816,0.00284
2010.72799,0.00404
2008.66781,0.00368
2006.60764,0.00274
2004.54747,0.00254
2002.48730,0.00249
2000.42713,0.00295
1998.36695,0.00446
1996.30678,0.00514
1994.24661,0.00418
1992.18644,0.00347
1990.12626,0.00397
1988.06609,0.00449
1986.00592,0.00408
1983.94575,0.00288
1981.88558,0.00158
1979.82540,0.00087
1977.76523,0.00053
1975.70506,0.00029
1973.64489,0.00069
1971.58472,0.00082
1969.52454,0.00000
1967.46437,0.00011
1965.40420,0.00172
1963.34403,0.00240
1961.28386,0.00119
1959.22368,0.00007
1957.16351,0.00047
1955.10334,0.00143
1953.04317,0.00135
1950.98299,0.00039
1948.92282,0.00000
1946.86265,0.00025
1944.80248,0.00040
1942.74231,0.00049
1940.68213,0.00065
1938.62196,0.00099
1936.56179,0.00156
1934.50162,0.00177
1932.44145,0.00109
1930.38127,0.00055
1928.32110,0.00098
1926.26093,0.00158
1924.20076,0.00191
1922.14059,0.00211
1920.08041,0.00196
1918.02024,0.00159
1915.96007,0.00160
1913.89990,0.00209
1911.83972,0.00246
1909.77955,0.00236
1907.71938,0.00207
1905.65921,0.00188
1903.59904,0.00172
1901.53886,0.00164
1899.47869,0.00177
1897.41852,0.00192
1895.35835,0.00189
1893.29818,0.00170
1891.23800,0.00152
1889.17783,0.00149
1887.11766,0.00160
1885.05749,0.00175
1882.99731,0.00187
1880.93714,0.00192
1878.87697,0.00201
1876.81680,0.00216
1874.75663,0.00224
1872.69645,0.00216
1870.63628,0.00196
1868.57611,0.00191
1866.51594,0.00222
1864.45577,0.00241
1862.39559,0.00222
1860.33542,0.00199
1858.27525,0.00204
1856.21508,0.00214
1854.15491,0.00205
1852.09473,0.00205
1850.03456,0.00226
1847.97439,0.00237
1845.91422,0.00216
1843.85404,0.00193
1841.79387,0.00205
1839.73370,0.00229
1837.67353,0.00239
1835.61336,0.00244
1833.55318,0.00245
1831.49301,0.00233
1829.43284,0.00230
1827.37267,0.00263
1825.31250,0.00309
1823.25232,0.00316
1821.19215,0.00283
1819.13198,0.00263
1817.07181,0.00275
1815.01163,0.00294
1812.95146,0.00301
1810.89129,0.00305
1808.83112,0.00304
1806.77095,0.00292
1804.71077,0.00278
1802.65060,0.00270
1800.59043,0.00270
1798.53026,0.00278
1796.47009,0.00272
1794.40991,0.00242
1792.34974,0.00234
1790.28957,0.00272
1788.22940,0.00310
1786.16923,0.00328
1784.10905,0.00332
1782.04888,0.00326
1779.98871,0.00318
1777.92854,0.00318
1775.86836,0.00316
1773.80819,0.00298
1771.74802,0.00287
1769.68785,0.00314
1767.62768,0.00352
1765.56750,0.00374
1763.50733,0.00381
1761.44716,0.00380
1759.38699,0.00378
1757.32682,0.00388
1755.26664,0.00407
1753.20647,0.00403
1751.14630,0.00373
1749.08613,0.00357
1747.02596,0.00365
1744.96578,0.00382
1742.90561,0.00413
1740.84544,0.00460
1738.78527,0.00498
1736.72509,0.00506
1734.66492,0.00495
1732.60475,0.00481
1730.54458,0.00485
1728.48441,0.00524
1726.42423,0.00582
1724.36406,0.00623
1722.30389,0.00631
1720.24372,0.00612
1718.18355,0.00575
1716.12337,0.00557
1714.06320,0.00605
1712.00303,0.00686
1709.94286,0.00734
1707.88268,0.00733
1705.82251,0.00735
1703.76234,0.00776
1701.70217,0.00805
1699.64200,0.00787
1697.58182,0.00793
1695.52165,0.00870
1693.46148,0.00952
1691.40131,0.00988
1689.34114,0.01001
1687.28096,0.01011
1685.22079,0.01009
1683.16062,0.01024
1681.10045,0.01067
1679.04028,0.01102
1676.98010,0.01117
1674.91993,0.01121
1672.85976,0.01138
1670.79959,0.01197
1668.73941,0.01294
1666.67924,0.01354
1664.61907,0.01348
1662.55890,0.01333
1660.49873,0.01346
1658.43855,0.01366
1656.37838,0.01369
1654.31821,0.01340
1652.25804,0.01300
1650.19787,0.01279
1648.13769,0.01270
1646.07752,0.01289
1644.01735,0.01336
1641.95718,0.01374
1639.89701,0.01373
1637.83683,0.01322
1635.77666,0.01269
1633.71649,0.01280
1631.65632,0.01305
1629.59614,0.01291
1627.53597,0.01249
1625.47580,0.01208
1623.41563,0.01178
1621.35546,0.01165
1619.29528,0.01159
1617.23511,0.01141
1615.17494,0.01113
1613.11477,0.01086
1611.05460,0.01066
1608.99442,0.01054
1606.93425,0.01050
1604.87408,0.01037
1602.81391,0.01002
1600.75373,0.00960
1598.69356,0.00922
1596.63339,0.00889
1594.57322,0.00867
1592.51305,0.00848
1590.45287,0.00819
1588.39270,0.00785
1586.33253,0.00751
1584.27236,0.00716
1582.21219,0.00684
1580.15201,0.00662
1578.09184,0.00645
1576.03167,0.00619
1573.97150,0.00586
1571.91133,0.00555
1569.85115,0.00520
1567.79098,0.00491
1565.73081,0.00476
1563.67064,0.00459
1561.61046,0.00429
1559.55029,0.00385
1557.49012,0.00359
1555.42995,0.00363
1553.36978,0.00371
1551.30960,0.00374
1549.24943,0.00380
1547.18926,0.00368
1545.12909,0.00315
1543.06892,0.00245
1541.00874,0.00220
1538.94857,0.00261
1536.88840,0.00287
1534.82823,0.00266
1532.76805,0.00242
1530.70788,0.00244
1528.64771,0.00239
1526.58754,0.00209
1524.52737,0.00166
1522.46719,0.00122
1520.40702,0.00097
1518.34685,0.00098
1516.28668,0.00108
1514.22651,0.00120
1512.16633,0.00121
1510.10616,0.00101
1508.04599,0.00078
1505.98582,0.00100
1503.92565,0.00147
1501.86547,0.00164
1499.80530,0.00150
1497.74513,0.00133
1495.68496,0.00127
1493.62478,0.00114
1491.56461,0.00092
1489.50444,0.00094
1487.44427,0.00130
1485.38410,0.00159
1483.32392,0.00166
1481.26375,0.00170
1479.20358,0.00185
1477.14341,0.00191
1475.08324,0.00167
1473.02306,0.00137
1470.96289,0.00147
1468.90272,0.00177
1466.84255,0.00190
1464.78238,0.00188
1462.72220,0.00189
1460.66203,0.00177
1458.60186,0.00145
1456.54169,0.00130
1454.48151,0.00150
1452.42134,0.00173
1450.36117,0.00178
1448.30100,0.00177
1446.24083,0.00188
1444.18065,0.00199
1442.12048,0.00199
1440.06031,0.00191
1438.00014,0.00167
1435.93997,0.00137
1433.87979,0.00133
1431.81962,0.00147
1429.75945,0.00161
1427.69928,0.00170
1425.63910,0.00181
1423.57893,0.00199
1421.51876,0.00209
1419.45859,0.00193
1417.39842,0.00174
1415.33824,0.00185
1413.27807,0.00200
1411.21790,0.00195
1409.15773,0.00177
1407.09756,0.00163
1405.03738,0.00162
1402.97721,0.00165
1400.91704,0.00156
1398.85687,0.00136
1396.79670,0.00114
1394.73652,0.00107
1392.67635,0.00128
1390.61618,0.00150
1388.55601,0.00150
1386.49583,0.00149
1384.43566,0.00167
1382.37549,0.00182
1380.31532,0.00182
1378.25515,0.00167
1376.19497,0.00144
1374.13480,0.00131
1372.07463,0.00139
1370.01446,0.00149
1367.95429,0.00150
1365.89411,0.00138
1363.83394,0.00118
1361.77377,0.00105
1359.71360,0.00098
1357.65343,0.00088
1355.59325,0.00086
1353.53308,0.00092
1351.47291,0.00098
1349.41274,0.00109
1347.35256,0.00118
1345.29239,0.00107
1343.23222,0.00088
1341.17205,0.00074
1339.11188,0.00072
1337.05170,0.00086
1334.99153,0.00108
1332.93136,0.00123
1330.87119,0.00127
1328.81102,0.00120
1326.75084,0.00110
1324.69067,0.00100
1322.63050,0.00092
1320.57033,0.00079
1318.51015,0.00070
1316.44998,0.00078
1314.38981,0.00092
1312.32964,0.00102
1310.26947,0.00104
1308.20929,0.00101
1306.14912,0.00107
1304.08895,0.00131
1302.02878,0.00150
1299.96861,0.00143
1297.90843,0.00131
1295.84826,0.00139
1293.78809,0.00162
1291.72792,0.00185
1289.66775,0.00200
1287.60757,0.00203
1285.54740,0.00197
1283.48723,0.00193
1281.42706,0.00193
1279.36688,0.00196
1277.30671,0.00212
1275.24654,0.00235
1273.18637,0.00241
1271.12620,0.00228
1269.06602,0.00222
1267.00585,0.00231
1264.94568,0.00236
1262.88551,0.00227
1260.82534,0.00214
1258.76516,0.00209
1256.70499,0.00217
1254.64482,0.00229
1252.58465,0.00238
1250.52447,0.00231
1248.46430,0.00209
1246.40413,0.00189
1244.34396,0.00181
1242.28379,0.00173
1240.22361,0.00152
1238.16344,0.00139
1236.10327,0.00144
1234.04310,0.00144
1231.98293,0.00129
1229.92275,0.00111
1227.86258,0.00099
1225.80241,0.00093
1223.74224,0.00078
1221.68207,0.00056
1219.62189,0.00046
1217.56172,0.00043
1215.50155,0.00037
1213.44138,0.00029
1211.38120,0.00021
1209.32103,0.00008
1207.26086,0.00000
1205.20069,0.00004
1203.14052,0.00020
1201.08034,0.00040
1199.02017,0.00052
1196.96000,0.00056
1194.89983,0.00059
1192.83966,0.00073
1190.77948,0.00103
1188.71931,0.00139
1186.65914,0.00182
1184.59897,0.00242
1182.53880,0.00306
1180.47862,0.00355
1178.41845,0.00408
1176.35828,0.00489
1174.29811,0.00571
1172.23793,0.00638
1170.17776,0.00705
1168.11759,0.00771
1166.05742,0.00838
1163.99725,0.00905
1161.93707,0.00958
1159.87690,0.01014
1157.81673,0.01084
1155.75656,0.01159
1153.69639,0.01243
1151.63621,0.01329
1149.57604,0.01397
1147.51587,0.01470
1145.45570,0.01578
1143.39552,0.01691
1141.33535,0.01790
1139.27518,0.01890
1137.21501,0.01980
1135.15484,0.02052
1133.09466,0.02145
1131.03449,0.02271
1128.97432,0.02385
1126.91415,0.02482
1124.85398,0.02598
1122.79380,0.02725
1120.73363,0.02828
1118.67346,0.02921
1116.61329,0.03043
1114.55312,0.03176
1112.49294,0.03298
1110.43277,0.03410
1108.37260,0.03507
1106.31243,0.03602
1104.25225,0.03707
1102.19208,0.03807
1100.13191,0.03902
1098.07174,0.03993
1096.01157,0.04092
1093.95139,0.04202
1091.89122,0.04299
1089.83105,0.04370
1087.77088,0.04427
1085.71071,0.04493
1083.65053,0.04565
1081.59036,0.04628
1079.53019,0.04692
1077.47002,0.04763
1075.40985,0.04824
1073.34967,0.04873
1071.28950,0.04931
1069.22933,0.04982
1067.16916,0.04969
1065.10898,0.04900
1063.04881,0.04846
1060.98864,0.04828
1058.92847,0.04804
1056.86830,0.04742
1054.80812,0.04644
1052.74795,0.04546
1050.68778,0.04470
1048.62761,0.04388
1046.56744,0.04274
1044.50726,0.04132
1042.44709,0.03975
1040.38692,0.03828
1038.32675,0.03710
1036.26657,0.03601
1034.20640,0.03477
1032.14623,0.03352
1030.08606,0.03245
1028.02589,0.03141
1025.96571,0.03052
1023.90554,0.02991
1021.84537,0.02910
1019.78520,0.02805
1017.72503,0.02718
1015.66485,0.02654
1013.60468,0.02598
1011.54451,0.02566
1009.48434,0.02572
1007.42417,0.02597
1005.36399,0.02628
1003.30382,0.02664
1001.24365,0.02711
999.18348,0.02774
997.12330,0.02849
995.06313,0.02938
993.00296,0.03031
990.94279,0.03100
988.88262,0.03140
986.82244,0.03188
984.76227,0.03261
982.70210,0.03299
980.64193,0.03264
978.58176,0.03197
976.52158,0.03133
974.46141,0.03068
972.40124,0.02984
970.34107,0.02874
968.28089,0.02751
966.22072,0.02616
964.16055,0.02474
962.10038,0.02339
960.04021,0.02229
957.98003,0.02167
955.91986,0.02107
953.85969,0.02004
951.79952,0.01924
949.73935,0.01895
947.67917,0.01860
945.61900,0.01808
943.55883,0.01763
941.49866,0.01740
939.43849,0.01745
937.37831,0.01758
935.31814,0.01749
933.25797,0.01728
931.19780,0.01690
929.13762,0.01639
927.07745,0.01633
925.01728,0.01658
922.95711,0.01642
920.89694,0.01595
918.83676,0.01547
916.77659,0.01503
914.71642,0.01449
912.65625,0.01378
910.59608,0.01314
908.53590,0.01284
906.47573,0.01288
904.41556,0.01315
902.35539,0.01330
900.29522,0.01311
898.23504,0.01287
896.17487,0.01277
894.11470,0.01290
892.05453,0.01327
889.99435,0.01337
887.93418,0.01324
885.87401,0.01374
883.81384,0.01493
881.75367,0.01566
879.69349,0.01567
877.63332,0.01579
875.57315,0.01609
873.51298,0.01634
871.45281,0.01693
869.39263,0.01769
867.33246,0.01798
865.27229,0.01766
863.21212,0.01711
861.15194,0.01676
859.09177,0.01682
857.03160,0.01716
854.97143,0.01762
852.91126,0.01770
850.85108,0.01690
848.79091,0.01583
846.73074,0.01527
844.67057,0.01484
842.61040,0.01385
840.55022,0.01274
838.49005,0.01232
836.42988,0.01210
834.36971,0.01148
832.30954,0.01073
830.24936,0.01002
828.18919,0.00948
826.12902,0.00904
824.06885,0.00860
822.00867,0.00839
819.94850,0.00842
817.88833,0.00828
815.82816,0.00780
813.76799,0.00706
811.70781,0.00664
809.64764,0.00676
807.58747,0.00659
805.52730,0.00590
803.46713,0.00540
801.40695,0.00528
799.34678,0.00540
797.28661,0.00590
795.22644,0.00625
793.16627,0.00624
791.10609,0.00635
789.04592,0.00601
786.98575,0.00502
784.92558,0.00470
782.86540,0.00489
780.80523,0.00467
778.74506,0.00447
776.68489,0.00477
774.62472,0.00497
772.56454,0.00453
770.50437,0.00399
768.44420,0.00382
766.38403,0.00368
764.32386,0.00306
762.26368,0.00235
760.20351,0.00239
758.14334,0.00305
756.08317,0.00369
754.02299,0.00415
751.96282,0.00405
749.90265,0.00331
747.84248,0.00274
745.78231,0.00258
743.72213,0.00292
741.66196,0.00338
739.60179,0.00309
737.54162,0.00242
735.48145,0.00221
733.42127,0.00253
731.36110,0.00288
729.30093,0.00261
727.24076,0.00212
725.18059,0.00205
723.12041,0.00244
721.06024,0.00319
719.00007,0.00379
716.93990,0.00362
714.87972,0.00308
712.81955,0.00267
710.75938,0.00236
708.69921,0.00210
706.63904,0.00212
704.57886,0.00239
702.51869,0.00246
700.45852,0.00220
698.39835,0.00212
696.33818,0.00237
694.27800,0.00262
692.21783,0.00271
690.15766,0.00237
688.09749,0.00183
686.03731,0.00180
683.97714,0.00182
681.91697,0.00126
679.85680,0.00083
677.79663,0.00114
675.73645,0.00181
673.67628,0.00217
671.61611,0.00223
669.55594,0.00271
667.49577,0.00373
665.43559,0.00442
663.37542,0.00464
661.31525,0.00429
659.25508,0.00358
657.19491,0.00339
655.13473,0.00445
653.07456,0.00558
651.01439,0.00537
648.95422,0.00508
646.89404,0.00599
644.83387,0.00679
642.77370,0.00620
640.71353,0.00421
638.65336,0.00161
636.59318,0.00000
634.53301,0.00019
632.47284,0.00157
630.41267,0.00298
628.35250,0.00357
626.29232,0.00326
624.23215,0.00291
622.17198,0.00298
620.11181,0.00384
618.05164,0.00562
615.99146,0.00603
613.93129,0.00344
611.87112,0.00064
609.81095,-0.00022
607.75077,0.00024
605.69060,0.00054
603.63043,0.00013
601.57026,0.00008
599.51009,0.00000
