3996.73391,-0.00030
3994.67373,-0.00011
3992.61356,-0.00015
3990.55339,-0.00024
3988.49322,-0.00029
3986.43305,-0.00037
3984.37287,-0.00054
3982.31270,-0.00068
3980.25253,-0.00062
3978.19236,-0.00048
3976.13219,-0.00045
3974.07201,-0.00048
3972.01184,-0.00044
3969.95167,-0.00021
3967.89150,0.00015
3965.83133,0.00043
3963.77115,0.00050
3961.71098,0.00042
3959.65081,0.00028
3957.59064,0.00010
3955.53046,-0.00004
3953.47029,0.00000
3951.41012,0.00020
3949.34995,0.00039
3947.28978,0.00054
3945.22960,0.00077
3943.16943,0.00104
3941.10926,0.00109
3939.04909,0.00086
3936.98892,0.00063
3934.92874,0.00060
3932.86857,0.00062
3930.80840,0.00058
3928.74823,0.00038
3926.68805,0.00010
3924.62788,0.00000
3922.56771,0.00017
3920.50754,0.00053
3918.44737,0.00087
3916.38719,0.00102
3914.32702,0.00097
3912.26685,0.00079
3910.20668,0.00065
3908.14651,0.00074
3906.08633,0.00105
3904.02616,0.00118
3901.96599,0.00113
3899.90582,0.00124
3897.84565,0.00121
3895.78547,0.00090
3893.72530,0.00066
3891.66513,0.00062
3889.60496,0.00060
3887.54478,0.00060
3885.48461,0.00069
3883.42444,0.00080
3881.36427,0.00088
3879.30410,0.00092
3877.24392,0.00086
3875.18375,0.00076
3873.12358,0.00085
3871.06341,0.00123
3869.00324,0.00148
3866.94306,0.00126
3864.88289,0.00102
3862.82272,0.00106
3860.76255,0.00117
3858.70237,0.00125
3856.64220,0.00128
3854.58203,0.00110
3852.52186,0.00079
3850.46169,0.00078
3848.40151,0.00093
3846.34134,0.00103
3844.28117,0.00093
3842.22100,0.00058
3840.16083,0.00022
3838.10065,0.00025
3836.04048,0.00047
3833.98031,0.00045
3831.92014,0.00025
3829.85997,0.00023
3827.79979,0.00038
3825.73962,0.00050
3823.67945,0.00054
3821.61928,0.00059
3819.55910,0.00076
3817.49893,0.00092
3815.43876,0.00081
3813.37859,0.00060
3811.31842,0.00058
3809.25824,0.00065
3807.19807,0.00055
3805.13790,0.00047
3803.07773,0.00072
3801.01756,0.00109
3798.95738,0.00118
3796.89721,0.00113
3794.83704,0.00116
3792.77687,0.00117
3790.71670,0.00117
3788.65652,0.00125
3786.59635,0.00131
3784.53618,0.00129
3782.47601,0.00108
3780.41583,0.00071
3778.35566,0.00041
3776.29549,0.00025
3774.23532,0.00025
3772.17515,0.00039
3770.11497,0.00046
3768.05480,0.00033
3765.99463,0.00023
3763.93446,0.00033
3761.87429,0.00042
3759.81411,0.00028
3757.75394,0.00020
3755.69377,0.00042
3753.63360,0.00074
3751.57342,0.00085
3749.51325,0.00082
3747.45308,0.00085
3745.39291,0.00079
3743.33274,0.00051
3741.27256,0.00037
3739.21239,0.00058
3737.15222,0.00092
3735.09205,0.00112
3733.03188,0.00109
3730.97170,0.00082
3728.91153,0.00065
3726.85136,0.00080
3724.79119,0.00113
3722.73102,0.00131
3720.67084,0.00109
3718.61067,0.00064
3716.55050,0.00030
3714.49033,0.00033
3712.43015,0.00068
3710.36998,0.00078
3708.30981,0.00047
3706.24964,0.00032
3704.18947,0.00045
3702.12929,0.00057
3700.06912,0.00063
3698.00895,0.00090
3695.94878,0.00129
3693.88861,0.00159
3691.82843,0.00171
3689.76826,0.00154
3687.70809,0.00131
3685.64792,0.00129
3683.58775,0.00121
3681.52757,0.00077
3679.46740,0.00014
3677.40723,0.00000
3675.34706,0.00086
3673.28688,0.00192
3671.22671,0.00216
3669.16654,0.00186
3667.10637,0.00179
3665.04620,0.00190
3662.98602,0.00175
3660.92585,0.00143
3658.86568,0.00147
3656.80551,0.00187
3654.74534,0.00210
3652.68516,0.00201
3650.62499,0.00182
3648.56482,0.00178
3646.50465,0.00224
3644.44447,0.00290
3642.38430,0.00316
3640.32413,0.00300
3638.26396,0.00281
3636.20379,0.00286
3634.14361,0.00313
3632.08344,0.00345
3630.02327,0.00383
3627.96310,0.00428
3625.90293,0.00452
3623.84275,0.00453
3621.78258,0.00459
3619.72241,0.00472
3617.66224,0.00468
3615.60207,0.00459
3613.54189,0.00497
3611.48172,0.00596
3609.42155,0.00688
3607.36138,0.00712
3605.30120,0.00689
3603.24103,0.00682
3601.18086,0.00705
3599.12069,0.00727
3597.06052,0.00737
3595.00034,0.00755
3592.94017,0.00791
3590.88000,0.00828
3588.81983,0.00851
3586.75966,0.00857
3584.69948,0.00858
3582.63931,0.00878
3580.57914,0.00923
3578.51897,0.00985
3576.45879,0.01052
3574.39862,0.01115
3572.33845,0.01164
3570.27828,0.01198
3568.21811,0.01215
3566.15793,0.01211
3564.09776,0.01219
3562.03759,0.01252
3559.97742,0.01280
3557.91725,0.01303
3555.85707,0.01335
3553.79690,0.01366
3551.73673,0.01390
3549.67656,0.01430
3547.61639,0.01495
3545.55621,0.01562
3543.49604,0.01604
3541.43587,0.01632
3539.37570,0.01657
3537.31552,0.01675
3535.25535,0.01694
3533.19518,0.01728
3531.13501,0.01766
3529.07484,0.01790
3527.01466,0.01825
3524.95449,0.01891
3522.89432,0.01955
3520.83415,0.01991
3518.77398,0.02015
3516.71380,0.02043
3514.65363,0.02074
3512.59346,0.02109
3510.53329,0.02144
3508.47312,0.02168
3506.41294,0.02190
3504.35277,0.02221
3502.29260,0.02262
3500.23243,0.02308
3498.17225,0.02345
3496.11208,0.02370
3494.05191,0.02397
3491.99174,0.02438
3489.93157,0.02481
3487.87139,0.02509
3485.81122,0.02521
3483.75105,0.02531
3481.69088,0.02565
3479.63071,0.02623
3477.57053,0.02663
3475.51036,0.02674
3473.45019,0.02687
3471.39002,0.02733
3469.32984,0.02808
3467.26967,0.02880
3465.20950,0.02929
3463.14933,0.02947
3461.08916,0.02960
3459.02898,0.02986
3456.96881,0.03010
3454.90864,0.03035
3452.84847,0.03089
3450.78830,0.03158
3448.72812,0.03200
3446.66795,0.03206
3444.60778,0.03205
3442.54761,0.03242
3440.48744,0.03320
3438.42726,0.03390
3436.36709,0.03420
3434.30692,0.03431
3432.24675,0.03441
3430.18657,0.03454
3428.12640,0.03483
3426.06623,0.03516
3424.00606,0.03541
3421.94589,0.03569
3419.88571,0.03621
3417.82554,0.03663
3415.76537,0.03667
3413.70520,0.03682
3411.64503,0.03732
3409.58485,0.03778
3407.52468,0.03786
3405.46451,0.03767
3403.40434,0.03766
3401.34416,0.03817
3399.28399,0.03876
3397.22382,0.03891
3395.16365,0.03878
3393.10348,0.03887
3391.04330,0.03937
3388.98313,0.03999
3386.92296,0.04051
3384.86279,0.04076
3382.80262,0.04078
3380.74244,0.04098
3378.68227,0.04131
3376.62210,0.04137
3374.56193,0.04134
3372.50176,0.04162
3370.44158,0.04205
3368.38141,0.04215
3366.32124,0.04189
3364.26107,0.04179
3362.20089,0.04217
3360.14072,0.04260
3358.08055,0.04273
3356.02038,0.04278
3353.96021,0.04280
3351.90003,0.04277
3349.83986,0.04294
3347.77969,0.04332
3345.71952,0.04369
3343.65935,0.04391
3341.59917,0.04396
3339.53900,0.04393
3337.47883,0.04399
3335.41866,0.04427
3333.35849,0.04448
3331.29831,0.04455
3329.23814,0.04478
3327.17797,0.04509
3325.11780,0.04507
3323.05762,0.04468
3320.99745,0.04440
3318.93728,0.04454
3316.87711,0.04479
3314.81694,0.04498
3312.75676,0.04528
3310.69659,0.04568
3308.63642,0.04581
3306.57625,0.04557
3304.51608,0.04538
3302.45590,0.04542
3300.39573,0.04537
3298.33556,0.04525
3296.27539,0.04533
3294.21521,0.04555
3292.15504,0.04572
3290.09487,0.04576
3288.03470,0.04570
3285.97453,0.04579
3283.91435,0.04607
3281.85418,0.04620
3279.79401,0.04612
3277.73384,0.04607
3275.67367,0.04615
3273.61349,0.04617
3271.55332,0.04601
3269.49315,0.04573
3267.43298,0.04551
3265.37281,0.04541
3263.31263,0.04546
3261.25246,0.04546
3259.19229,0.04536
3257.13212,0.04543
3255.07194,0.04551
3253.01177,0.04532
3250.95160,0.04504
3248.89143,0.04493
3246.83126,0.04489
3244.77108,0.04484
3242.71091,0.04477
3240.65074,0.04469
3238.59057,0.04457
3236.53040,0.04431
3234.47022,0.04412
3232.41005,0.04411
3230.34988,0.04405
3228.28971,0.04382
3226.22954,0.04359
3224.16936,0.04341
3222.10919,0.04310
3220.04902,0.04282
3217.98885,0.04295
3215.92867,0.04315
3213.86850,0.04295
3211.80833,0.04263
3209.74816,0.04263
3207.68799,0.04278
3205.62781,0.04260
3203.56764,0.04229
3201.50747,0.04225
3199.44730,0.04222
3197.38713,0.04194
3195.32695,0.04160
3193.26678,0.04134
3191.20661,0.04118
3189.14644,0.04116
3187.08626,0.04133
3185.02609,0.04138
3182.96592,0.04102
3180.90575,0.04059
3178.84558,0.04040
3176.78540,0.04017
3174.72523,0.03988
3172.66506,0.03994
3170.60489,0.04012
3168.54472,0.03995
3166.48454,0.03957
3164.42437,0.03929
3162.36420,0.03896
3160.30403,0.03851
3158.24386,0.03825
3156.18368,0.03831
3154.12351,0.03852
3152.06334,0.03872
3150.00317,0.03877
3147.94299,0.03846
3145.88282,0.03791
3143.82265,0.03746
3141.76248,0.03720
3139.70231,0.03697
3137.64213,0.03670
3135.58196,0.03648
3133.52179,0.03623
3131.46162,0.03595
3129.40145,0.03577
3127.34127,0.03568
3125.28110,0.03570
3123.22093,0.03581
3121.16076,0.03579
3119.10058,0.03556
3117.04041,0.03512
3114.98024,0.03464
3112.92007,0.03435
3110.85990,0.03437
3108.79972,0.03451
3106.73955,0.03439
3104.67938,0.03400
3102.61921,0.03373
3100.55904,0.03364
3098.49886,0.03344
3096.43869,0.03319
3094.37852,0.03306
3092.31835,0.03289
3090.25818,0.03260
3088.19800,0.03239
3086.13783,0.03224
3084.07766,0.03210
3082.01749,0.03202
3079.95731,0.03200
3077.89714,0.03185
3075.83697,0.03146
3073.77680,0.03108
3071.71663,0.03098
3069.65645,0.03109
3067.59628,0.03100
3065.53611,0.03053
3063.47594,0.03001
3061.41577,0.02983
3059.35559,0.03006
3057.29542,0.03029
3055.23525,0.03019
3053.17508,0.02987
3051.11491,0.02954
3049.05473,0.02929
3046.99456,0.02907
3044.93439,0.02886
3042.87422,0.02869
3040.81404,0.02846
3038.75387,0.02809
3036.69370,0.02771
3034.63353,0.02735
3032.57336,0.02713
3030.51318,0.02719
3028.45301,0.02723
3026.39284,0.02699
3024.33267,0.02667
3022.27250,0.02641
3020.21232,0.02627
3018.15215,0.02624
3016.09198,0.02613
3014.03181,0.02604
3011.97163,0.02610
3009.91146,0.02607
3007.85129,0.02582
3005.79112,0.02550
3003.73095,0.02528
3001.67077,0.02515
2999.61060,0.02497
2997.55043,0.02478
2995.49026,0.02470
2993.43009,0.02479
2991.36991,0.02494
2989.30974,0.02489
2987.24957,0.02478
2985.18940,0.02476
2983.12923,0.02493
2981.06905,0.02538
2979.00888,0.02584
2976.94871,0.02615
2974.88854,0.02666
2972.82836,0.02723
2970.76819,0.02772
2968.70802,0.02838
2966.64785,0.02912
2964.58768,0.02987
2962.52750,0.03076
2960.46733,0.03167
2958.40716,0.03250
2956.34699,0.03340
2954.28682,0.03425
2952.22664,0.03508
2950.16647,0.03597
2948.10630,0.03692
2946.04613,0.03801
2943.98596,0.03943
2941.92578,0.04115
2939.86561,0.04302
2937.80544,0.04494
2935.74527,0.04688
2933.68509,0.04878
2931.62492,0.05069
2929.56475,0.05264
2927.50458,0.05440
2925.44441,0.05602
2923.38423,0.05775
2921.32406,0.05924
2919.26389,0.06013
2917.20372,0.06032
2915.14355,0.05895
2913.08337,0.05601
2911.02320,0.05290
2908.96303,0.05038
2906.90286,0.04836
2904.84268,0.04671
2902.78251,0.04530
2900.72234,0.04412
2898.66217,0.04320
2896.60200,0.04230
2894.54182,0.04128
2892.48165,0.04047
2890.42148,0.03978
2888.36131,0.03893
2886.30114,0.03795
2884.24096,0.03707
2882.18079,0.03647
2880.12062,0.03603
2878.06045,0.03559
2876.00028,0.03536
2873.94010,0.03550
2871.87993,0.03577
2869.81976,0.03593
2867.75959,0.03606
2865.69941,0.03659
2863.63924,0.03774
2861.57907,0.03923
2859.51890,0.04094
2857.45873,0.04296
2855.39855,0.04502
2853.33838,0.04688
2851.27821,0.04849
2849.21804,0.04893
2847.15787,0.04697
2845.09769,0.04310
2843.03752,0.03909
2840.97735,0.03594
2838.91718,0.03373
2836.85700,0.03226
2834.79683,0.03117
2832.73666,0.03015
2830.67649,0.02913
2828.61632,0.02827
2826.55614,0.02758
2824.49597,0.02699
2822.43580,0.02654
2820.37563,0.02630
2818.31546,0.02604
2816.25528,0.02573
2814.19511,0.02566
2812.13494,0.02573
2810.07477,0.02551
2808.01460,0.02494
2805.95442,0.02437
2803.89425,0.02400
2801.83408,0.02391
2799.77391,0.02394
2797.71373,0.02387
2795.65356,0.02366
2793.59339,0.02338
2791.53322,0.02312
2789.47305,0.02295
2787.41287,0.02278
2785.35270,0.02258
2783.29253,0.02239
2781.23236,0.02222
2779.17219,0.02213
2777.11201,0.02202
2775.05184,0.02182
2772.99167,0.02164
2770.93150,0.02145
2768.87133,0.02128
2766.81115,0.02131
2764.75098,0.02146
2762.69081,0.02152
2760.63064,0.02146
2758.57046,0.02131
2756.51029,0.02117
2754.45012,0.02105
2752.38995,0.02085
2750.32978,0.02070
2748.26960,0.02066
2746.20943,0.02058
2744.14926,0.02051
2742.08909,0.02049
2740.02892,0.02043
2737.96874,0.02036
2735.90857,0.02039
2733.84840,0.02055
2731.78823,0.02072
2729.72805,0.02070
2727.66788,0.02047
2725.60771,0.02019
2723.54754,0.02002
2721.48737,0.02000
2719.42719,0.02004
2717.36702,0.02003
2715.30685,0.01996
2713.24668,0.01993
2711.18651,0.01993
2709.12633,0.01986
2707.06616,0.01970
2705.00599,0.01958
2702.94582,0.01954
2700.88565,0.01956
2698.82547,0.01948
2696.76530,0.01932
2694.70513,0.01920
2692.64496,0.01905
2690.58478,0.01891
2688.52461,0.01887
2686.46444,0.01889
2684.40427,0.01884
2682.34410,0.01874
2680.28392,0.01871
2678.22375,0.01875
2676.16358,0.01883
2674.10341,0.01884
2672.04324,0.01870
2669.98306,0.01853
2667.92289,0.01847
2665.86272,0.01851
2663.80255,0.01853
2661.74238,0.01844
2659.68220,0.01832
2657.62203,0.01826
2655.56186,0.01829
2653.50169,0.01817
2651.44151,0.01782
2649.38134,0.01756
2647.32117,0.01745
2645.26100,0.01729
2643.20083,0.01715
2641.14065,0.01706
2639.08048,0.01701
2637.02031,0.01705
2634.96014,0.01699
2632.89997,0.01677
2630.83979,0.01667
2628.77962,0.01678
2626.71945,0.01682
2624.65928,0.01673
2622.59910,0.01661
2620.53893,0.01648
2618.47876,0.01627
2616.41859,0.01593
2614.35842,0.01560
2612.29824,0.01547
2610.23807,0.01543
2608.17790,0.01544
2606.11773,0.01556
2604.05756,0.01557
2601.99738,0.01542
2599.93721,0.01527
2597.87704,0.01504
2595.81687,0.01479
2593.75670,0.01467
2591.69652,0.01472
2589.63635,0.01496
2587.57618,0.01528
2585.51601,0.01546
2583.45583,0.01536
2581.39566,0.01505
2579.33549,0.01483
2577.27532,0.01481
2575.21515,0.01478
2573.15497,0.01465
2571.09480,0.01460
2569.03463,0.01466
2566.97446,0.01453
2564.91429,0.01414
2562.85411,0.01384
2560.79394,0.01380
2558.73377,0.01375
2556.67360,0.01355
2554.61342,0.01344
2552.55325,0.01357
2550.49308,0.01383
2548.43291,0.01402
2546.37274,0.01391
2544.31256,0.01372
2542.25239,0.01354
2540.19222,0.01332
2538.13205,0.01332
2536.07188,0.01335
2534.01170,0.01321
2531.95153,0.01293
2529.89136,0.01261
2527.83119,0.01255
2525.77102,0.01278
2523.71084,0.01298
2521.65067,0.01301
2519.59050,0.01282
2517.53033,0.01240
2515.47015,0.01204
2513.40998,0.01194
2511.34981,0.01187
2509.28964,0.01185
2507.22947,0.01204
2505.16929,0.01238
2503.10912,0.01255
2501.04895,0.01218
2498.98878,0.01153
2496.92861,0.01130
2494.86843,0.01146
2492.80826,0.01153
2490.74809,0.01148
2488.68792,0.01148
2486.62775,0.01147
2484.56757,0.01145
2482.50740,0.01140
2480.44723,0.01144
2478.38706,0.01164
2476.32688,0.01167
2474.26671,0.01157
2472.20654,0.01143
2470.14637,0.01115
2468.08620,0.01087
2466.02602,0.01060
2463.96585,0.01047
2461.90568,0.01071
2459.84551,0.01111
2457.78534,0.01137
2455.72516,0.01129
2453.66499,0.01099
2451.60482,0.01079
2449.54465,0.01084
2447.48447,0.01085
2445.42430,0.01062
2443.36413,0.01060
2441.30396,0.01089
2439.24379,0.01104
2437.18361,0.01089
2435.12344,0.01063
2433.06327,0.01033
2431.00310,0.01005
2428.94293,0.00992
2426.88275,0.00981
2424.82258,0.00973
2422.76241,0.00983
2420.70224,0.00983
2418.64207,0.00969
2416.58189,0.00972
2414.52172,0.00990
2412.46155,0.00987
2410.40138,0.00961
2408.34120,0.00946
2406.28103,0.00956
2404.22086,0.00959
2402.16069,0.00950
2400.10052,0.00946
2398.04034,0.00933
2395.98017,0.00926
2393.92000,0.00934
2391.85983,0.00934
2389.79966,0.00917
2387.73948,0.00912
2385.67931,0.00921
2383.61914,0.00918
2381.55897,0.00894
2379.49880,0.00874
2377.43862,0.00858
2375.37845,0.00836
2373.31828,0.00816
2371.25811,0.00838
2369.19793,0.00922
2367.13776,0.00970
2365.07759,0.00908
2363.01742,0.00832
2360.95725,0.00763
2358.89707,0.00767
2356.83690,0.00822
2354.77673,0.00915
2352.71656,0.00956
2350.65639,0.00858
2348.59621,0.00787
2346.53604,0.00896
2344.47587,0.00922
2342.41570,0.00860
2340.35552,0.00785
2338.29535,0.00759
2336.23518,0.00797
2334.17501,0.00812
2332.11484,0.00786
2330.05466,0.00796
2327.99449,0.00919
2325.93432,0.01053
2323.87415,0.01111
2321.81398,0.01045
2319.75380,0.00932
2317.69363,0.00825
2315.63346,0.00804
2313.57329,0.00855
2311.51312,0.00884
2309.45294,0.00852
2307.39277,0.00811
2305.33260,0.00807
2303.27243,0.00830
2301.21225,0.00859
2299.15208,0.00870
2297.09191,0.00871
2295.03174,0.00853
2292.97157,0.00813
2290.91139,0.00783
2288.85122,0.00769
2286.79105,0.00756
2284.73088,0.00761
2282.67071,0.00794
2280.61053,0.00820
2278.55036,0.00812
2276.49019,0.00800
2274.43002,0.00809
2272.36984,0.00818
2270.30967,0.00807
2268.24950,0.00780
2266.18933,0.00756
2264.12916,0.00756
2262.06898,0.00772
2260.00881,0.00772
2257.94864,0.00735
2255.88847,0.00690
2253.82830,0.00686
2251.76812,0.00718
2249.70795,0.00727
2247.64778,0.00699
2245.58761,0.00661
2243.52744,0.00631
2241.46726,0.00641
2239.40709,0.00658
2237.34692,0.00666
2235.28675,0.00692
2233.22657,0.00673
2231.16640,0.00599
2229.10623,0.00546
2227.04606,0.00537
2224.98589,0.00538
2222.92571,0.00519
2220.86554,0.00497
2218.80537,0.00483
2216.74520,0.00488
2214.68503,0.00546
2212.62485,0.00602
2210.56468,0.00599
2208.50451,0.00617
2206.44434,0.00671
2204.38417,0.00648
2202.32399,0.00565
2200.26382,0.00534
2198.20365,0.00535
2196.14348,0.00513
2194.08330,0.00486
2192.02313,0.00488
2189.96296,0.00529
2187.90279,0.00547
2185.84262,0.00506
2183.78244,0.00426
2181.72227,0.00325
2179.66210,0.00238
2177.60193,0.00227
2175.54176,0.00318
2173.48158,0.00441
2171.42141,0.00538
2169.36124,0.00554
2167.30107,0.00485
2165.24089,0.00475
2163.18072,0.00531
2161.12055,0.00512
2159.06038,0.00422
2157.00021,0.00293
2154.94003,0.00256
2152.87986,0.00369
2150.81969,0.00417
2148.75952,0.00347
2146.69935,0.00299
2144.63917,0.00315
2142.57900,0.00347
2140.51883,0.00397
2138.45866,0.00459
2136.39849,0.00480
2134.33831,0.00457
2132.27814,0.00425
2130.21797,0.00430
2128.15780,0.00469
2126.09762,0.00490
2124.03745,0.00488
2121.97728,0.00503
2119.91711,0.00536
2117.85694,0.00574
2115.79676,0.00614
2113.73659,0.00636
2111.67642,0.00644
2109.61625,0.00646
2107.55608,0.00603
2105.49590,0.00561
2103.43573,0.00569
2101.37556,0.00550
2099.31539,0.00512
2097.25521,0.00472
2095.19504,0.00418
2093.13487,0.00413
2091.07470,0.00457
2089.01453,0.00512
2086.95435,0.00566
2084.89418,0.00565
2082.83401,0.00499
2080.77384,0.00411
2078.71367,0.00365
2076.65349,0.00391
2074.59332,0.00417
2072.53315,0.00442
2070.47298,0.00526
2068.41281,0.00589
2066.35263,0.00564
2064.29246,0.00510
2062.23229,0.00480
2060.17212,0.00484
2058.11194,0.00513
2056.05177,0.00544
2053.99160,0.00549
2051.93143,0.00469
2049.87126,0.00338
2047.81108,0.00288
2045.75091,0.00310
2043.69074,0.00284
2041.63057,0.00209
2039.57040,0.00185
2037.51022,0.00207
2035.45005,0.00201
2033.38988,0.00143
2031.32971,0.00057
2029.26954,0.00048
2027.20936,0.00146
2025.14919,0.00239
2023.08902,0.00307
2021.02885,0.00389
2018.96867,0.00417
2016.90850,0.00341
2014.84833,0.00229
2012.78816,0.00186
2010.72799,0.00198
2008.66781,0.00159
2006.60764,0.00089
2004.54747,0.00114
2002.48730,0.00216
2000.42713,0.00282
1998.36695,0.00273
1996.30678,0.00228
1994.24661,0.00215
1992.18644,0.00286
1990.12626,0.00446
1988.06609,0.00565
1986.00592,0.00550
1983.94575,0.00494
1981.88558,0.00447
1979.82540,0.00361
1977.76523,0.00320
1975.70506,0.00350
1973.64489,0.00269
1971.58472,0.00106
1969.52454,0.00010
1967.46437,0.00000
1965.40420,0.00088
1963.34403,0.00238
1961.28386,0.00327
1959.22368,0.00334
1957.16351,0.00333
1955.10334,0.00339
1953.04317,0.00336
1950.98299,0.00329
1948.92282,0.00316
1946.86265,0.00292
1944.80248,0.00267
1942.74231,0.00250
1940.68213,0.00239
1938.62196,0.00246
1936.56179,0.00262
1934.50162,0.00263
1932.44145,0.00250
1930.38127,0.00239
1928.32110,0.00231
1926.26093,0.00235
1924.20076,0.00262
1922.14059,0.00284
1920.08041,0.00279
1918.02024,0.00268
1915.96007,0.00270
1913.89990,0.00276
1911.83972,0.00281
1909.77955,0.00293
1907.71938,0.00302
1905.65921,0.00280
1903.59904,0.00227
1901.53886,0.00167
1899.47869,0.00141
1897.41852,0.00158
1895.35835,0.00174
1893.29818,0.00173
1891.23800,0.00173
1889.17783,0.00168
1887.11766,0.00149
1885.05749,0.00142
1882.99731,0.00163
1880.93714,0.00189
1878.87697,0.00180
1876.81680,0.00144
1874.75663,0.00129
1872.69645,0.00154
1870.63628,0.00189
1868.57611,0.00208
1866.51594,0.00216
1864.45577,0.00205
1862.39559,0.00165
1860.33542,0.00120
1858.27525,0.00097
1856.21508,0.00101
1854.15491,0.00118
1852.09473,0.00121
1850.03456,0.00093
1847.97439,0.00055
1845.91422,0.00041
1843.85404,0.00056
1841.79387,0.00067
1839.73370,0.00054
1837.67353,0.00033
1835.61336,0.00034
1833.55318,0.00060
1831.49301,0.00094
1829.43284,0.00122
1827.37267,0.00132
1825.31250,0.00113
1823.25232,0.00074
1821.19215,0.00046
1819.13198,0.00031
1817.07181,0.00013
1815.01163,0.00000
1812.95146,0.00002
1810.89129,0.00010
1808.83112,0.00031
1806.77095,0.00060
1804.71077,0.00065
1802.65060,0.00041
1800.59043,0.00013
1798.53026,0.00005
1796.47009,0.00019
1794.40991,0.00029
1792.34974,0.00015
1790.28957,-0.00009
1788.22940,-0.00021
1786.16923,-0.00017
1784.10905,-0.00005
1782.04888,0.00000
1779.98871,-0.00009
1777.92854,-0.00010
1775.86836,-0.00005
1773.80819,0.00008
1771.74802,0.00031
1769.68785,0.00051
1767.62768,0.00070
1765.56750,0.00104
1763.50733,0.00159
1761.44716,0.00231
1759.38699,0.00302
1757.32682,0.00382
1755.26664,0.00475
1753.20647,0.00566
1751.14630,0.00676
1749.08613,0.00838
1747.02596,0.01049
1744.96578,0.01305
1742.90561,0.01618
1740.84544,0.01987
1738.78527,0.02365
1736.72509,0.02683
1734.66492,0.02966
1732.60475,0.03218
1730.54458,0.03362
1728.48441,0.03407
1726.42423,0.03392
1724.36406,0.03344
1722.30389,0.03303
1720.24372,0.03278
1718.18355,0.03231
1716.12337,0.03170
1714.06320,0.03148
1712.00303,0.03144
1709.94286,0.03131
1707.88268,0.03097
1705.82251,0.03027
1703.76234,0.02944
1701.70217,0.02876
1699.64200,0.02800
1697.58182,0.02712
1695.52165,0.02636
1693.46148,0.02585
1691.40131,0.02555
1689.34114,0.02532
1687.28096,0.02518
1685.22079,0.02492
1683.16062,0.02442
1681.10045,0.02419
1679.04028,0.02428
1676.98010,0.02446
1674.91993,0.02463
1672.85976,0.02472
1670.79959,0.02476
1668.73941,0.02507
1666.67924,0.02579
1664.61907,0.02668
1662.55890,0.02764
1660.49873,0.02865
1658.43855,0.02967
1656.37838,0.03053
1654.31821,0.03114
1652.25804,0.03168
1650.19787,0.03237
1648.13769,0.03277
1646.07752,0.03268
1644.01735,0.03275
1641.95718,0.03324
1639.89701,0.03377
1637.83683,0.03414
1635.77666,0.03442
1633.71649,0.03481
1631.65632,0.03539
1629.59614,0.03608
1627.53597,0.03674
1625.47580,0.03728
1623.41563,0.03783
1621.35546,0.03856
1619.29528,0.03942
1617.23511,0.04020
1615.17494,0.04091
1613.11477,0.04170
1611.05460,0.04245
1608.99442,0.04301
1606.93425,0.04334
1604.87408,0.04342
1602.81391,0.04316
1600.75373,0.04266
1598.69356,0.04202
1596.63339,0.04105
1594.57322,0.03965
1592.51305,0.03808
1590.45287,0.03652
1588.39270,0.03498
1586.33253,0.03355
1584.27236,0.03223
1582.21219,0.03096
1580.15201,0.02976
1578.09184,0.02845
1576.03167,0.02684
1573.97150,0.02553
1571.91133,0.02470
1569.85115,0.02350
1567.79098,0.02199
1565.73081,0.02099
1563.67064,0.02062
1561.61046,0.02050
1559.55029,0.01996
1557.49012,0.01909
1555.42995,0.01893
1553.36978,0.01922
1551.30960,0.01947
1549.24943,0.01969
1547.18926,0.02004
1545.12909,0.02034
1543.06892,0.02039
1541.00874,0.02022
1538.94857,0.02010
1536.88840,0.02015
1534.82823,0.01996
1532.76805,0.01932
1530.70788,0.01857
1528.64771,0.01787
1526.58754,0.01706
1524.52737,0.01640
1522.46719,0.01619
1520.40702,0.01636
1518.34685,0.01658
1516.28668,0.01669
1514.22651,0.01669
1512.16633,0.01655
1510.10616,0.01598
1508.04599,0.01446
1505.98582,0.01231
1503.92565,0.01117
1501.86547,0.01072
1499.80530,0.01007
1497.74513,0.00901
1495.68496,0.00780
1493.62478,0.00673
1491.56461,0.00567
1489.50444,0.00440
1487.44427,0.00333
1485.38410,0.00281
1483.32392,0.00271
1481.26375,0.00294
1479.20358,0.00356
1477.14341,0.00462
1475.08324,0.00612
1473.02306,0.00825
1470.96289,0.01079
1468.90272,0.01305
1466.84255,0.01510
1464.78238,0.01715
1462.72220,0.01879
1460.66203,0.01981
1458.60186,0.02065
1456.54169,0.02178
1454.48151,0.02302
1452.42134,0.02418
1450.36117,0.02531
1448.30100,0.02640
1446.24083,0.02737
1444.18065,0.02810
1442.12048,0.02846
1440.06031,0.02831
1438.00014,0.02744
1435.93997,0.02587
1433.87979,0.02433
1431.81962,0.02302
1429.75945,0.02180
1427.69928,0.02092
1425.63910,0.02044
1423.57893,0.02018
1421.51876,0.02002
1419.45859,0.01976
1417.39842,0.01936
1415.33824,0.01906
1413.27807,0.01885
1411.21790,0.01857
1409.15773,0.01825
1407.09756,0.01799
1405.03738,0.01775
1402.97721,0.01761
1400.91704,0.01767
1398.85687,0.01781
1396.79670,0.01789
1394.73652,0.01799
1392.67635,0.01833
1390.61618,0.01891
1388.55601,0.01961
1386.49583,0.02036
1384.43566,0.02108
1382.37549,0.02186
1380.31532,0.02284
1378.25515,0.02393
1376.19497,0.02491
1374.13480,0.02575
1372.07463,0.02641
1370.01446,0.02685
1367.95429,0.02715
1365.89411,0.02742
1363.83394,0.02761
1361.77377,0.02758
1359.71360,0.02749
1357.65343,0.02759
1355.59325,0.02788
1353.53308,0.02825
1351.47291,0.02865
1349.41274,0.02910
1347.35256,0.02956
1345.29239,0.02996
1343.23222,0.03022
1341.17205,0.03040
1339.11188,0.03071
1337.05170,0.03127
1334.99153,0.03194
1332.93136,0.03260
1330.87119,0.03329
1328.81102,0.03408
1326.75084,0.03491
1324.69067,0.03574
1322.63050,0.03654
1320.57033,0.03717
1318.51015,0.03758
1316.44998,0.03789
1314.38981,0.03806
1312.32964,0.03784
1310.26947,0.03721
1308.20929,0.03629
1306.14912,0.03500
1304.08895,0.03337
1302.02878,0.03163
1299.96861,0.02981
1297.90843,0.02787
1295.84826,0.02602
1293.78809,0.02448
1291.72792,0.02312
1289.66775,0.02192
1287.60757,0.02095
1285.54740,0.02024
1283.48723,0.01971
1281.42706,0.01933
1279.36688,0.01918
1277.30671,0.01929
1275.24654,0.01956
1273.18637,0.01986
1271.12620,0.02017
1269.06602,0.02046
1267.00585,0.02080
1264.94568,0.02129
1262.88551,0.02185
1260.82534,0.02239
1258.76516,0.02296
1256.70499,0.02352
1254.64482,0.02399
1252.58465,0.02448
1250.52447,0.02511
1248.46430,0.02575
1246.40413,0.02632
1244.34396,0.02693
1242.28379,0.02766
1240.22361,0.02842
1238.16344,0.02910
1236.10327,0.02974
1234.04310,0.03045
1231.98293,0.03124
1229.92275,0.03205
1227.86258,0.03284
1225.80241,0.03366
1223.74224,0.03462
1221.68207,0.03573
1219.62189,0.03675
1217.56172,0.03745
1215.50155,0.03789
1213.44138,0.03839
1211.38120,0.03899
1209.32103,0.03961
1207.26086,0.04039
1205.20069,0.04136
1203.14052,0.04232
1201.08034,0.04313
1199.02017,0.04376
1196.96000,0.04407
1194.89983,0.04413
1192.83966,0.04415
1190.77948,0.04407
1188.71931,0.04374
1186.65914,0.04322
1184.59897,0.04276
1182.53880,0.04240
1180.47862,0.04197
1178.41845,0.04166
1176.35828,0.04159
1174.29811,0.04153
1172.23793,0.04162
1170.17776,0.04189
1168.11759,0.04197
1166.05742,0.04186
1163.99725,0.04161
1161.93707,0.04101
1159.87690,0.04004
1157.81673,0.03891
1155.75656,0.03769
1153.69639,0.03645
1151.63621,0.03526
1149.57604,0.03412
1147.51587,0.03302
1145.45570,0.03193
1143.39552,0.03069
1141.33535,0.02943
1139.27518,0.02850
1137.21501,0.02775
1135.15484,0.02694
1133.09466,0.02634
1131.03449,0.02613
1128.97432,0.02632
1126.91415,0.02698
1124.85398,0.02797
1122.79380,0.02916
1120.73363,0.03056
1118.67346,0.03209
1116.61329,0.03383
1114.55312,0.03586
1112.49294,0.03816
1110.43277,0.04060
1108.37260,0.04304
1106.31243,0.04531
1104.25225,0.04726
1102.19208,0.04884
1100.13191,0.05006
1098.07174,0.05120
1096.01157,0.05258
1093.95139,0.05414
1091.89122,0.05564
1089.83105,0.05700
1087.77088,0.05840
1085.71071,0.05993
1083.65053,0.06154
1081.59036,0.06323
1079.53019,0.06497
1077.47002,0.06666
1075.40985,0.06816
1073.34967,0.06956
1071.28950,0.07081
1069.22933,0.07165
1067.16916,0.07224
1065.10898,0.07298
1063.04881,0.07388
1060.98864,0.07483
1058.92847,0.07584
1056.86830,0.07687
1054.80812,0.07794
1052.74795,0.07919
1050.68778,0.08056
1048.62761,0.08187
1046.56744,0.08324
1044.50726,0.08476
1042.44709,0.08649
1040.38692,0.08835
1038.32675,0.09024
1036.26657,0.09211
1034.20640,0.09386
1032.14623,0.09541
1030.08606,0.09673
1028.02589,0.09785
1025.96571,0.09867
1023.90554,0.09912
1021.84537,0.09930
1019.78520,0.09922
1017.72503,0.09894
1015.66485,0.09846
1013.60468,0.09789
1011.54451,0.09712
1009.48434,0.09576
1007.42417,0.09377
1005.36399,0.09162
1003.30382,0.08959
1001.24365,0.08742
999.18348,0.08497
997.12330,0.08246
995.06313,0.08001
993.00296,0.07773
990.94279,0.07566
988.88262,0.07346
986.82244,0.07087
984.76227,0.06804
982.70210,0.06502
980.64193,0.06179
978.58176,0.05870
976.52158,0.05599
974.46141,0.05363
972.40124,0.05171
970.34107,0.05010
968.28089,0.04850
966.22072,0.04697
964.16055,0.04559
962.10038,0.04424
960.04021,0.04275
957.98003,0.04107
955.91986,0.03911
953.85969,0.03690
951.79952,0.03477
949.73935,0.03293
947.67917,0.03123
945.61900,0.02951
943.55883,0.02782
941.49866,0.02623
939.43849,0.02496
937.37831,0.02407
935.31814,0.02342
933.25797,0.02286
931.19780,0.02221
929.13762,0.02150
927.07745,0.02087
925.01728,0.02009
922.95711,0.01907
920.89694,0.01803
918.83676,0.01680
916.77659,0.01528
914.71642,0.01380
912.65625,0.01257
910.59608,0.01163
908.53590,0.01095
906.47573,0.01034
904.41556,0.00974
902.35539,0.00914
900.29522,0.00872
898.23504,0.00879
896.17487,0.00904
894.11470,0.00884
892.05453,0.00826
889.99435,0.00781
887.93418,0.00767
885.87401,0.00754
883.81384,0.00720
881.75367,0.00695
879.69349,0.00700
877.63332,0.00732
875.57315,0.00781
873.51298,0.00800
871.45281,0.00770
869.39263,0.00729
867.33246,0.00698
865.27229,0.00645
863.21212,0.00533
861.15194,0.00390
859.09177,0.00270
857.03160,0.00188
854.97143,0.00137
852.91126,0.00099
850.85108,0.00057
848.79091,0.00022
846.73074,0.00011
844.67057,0.00002
842.61040,0.00005
840.55022,0.00047
838.49005,0.00098
836.42988,0.00152
834.36971,0.00212
832.30954,0.00223
830.24936,0.00170
828.18919,0.00131
826.12902,0.00161
824.06885,0.00212
822.00867,0.00238
819.94850,0.00249
817.88833,0.00255
815.82816,0.00257
813.76799,0.00236
811.70781,0.00200
809.64764,0.00198
807.58747,0.00211
805.52730,0.00183
803.46713,0.00105
801.40695,0.00032
799.34678,0.00000
797.28661,-0.00040
795.22644,-0.00048
793.16627,-0.00048
791.10609,-0.00057
789.04592,-0.00045
786.98575,0.00006
784.92558,0.00052
782.86540,0.00079
780.80523,0.00114
778.74506,0.00136
776.68489,0.00140
774.62472,0.00163
772.56454,0.00209
770.50437,0.00260
768.44420,0.00340
766.38403,0.00485
764.32386,0.00687
762.26368,0.00919
760.20351,0.01143
758.14334,0.01310
756.08317,0.01389
754.02299,0.01365
751.96282,0.01241
749.90265,0.01069
747.84248,0.00922
745.78231,0.00833
743.72213,0.00779
741.66196,0.00722
739.60179,0.00649
737.54162,0.00555
735.48145,0.00467
733.42127,0.00477
731.36110,0.00574
729.30093,0.00636
727.24076,0.00645
725.18059,0.00625
723.12041,0.00573
721.06024,0.00561
719.00007,0.00584
716.93990,0.00618
714.87972,0.00624
712.81955,0.00594
710.75938,0.00544
708.69921,0.00480
706.63904,0.00410
704.57886,0.00353
702.51869,0.00332
700.45852,0.00322
698.39835,0.00269
696.33818,0.00173
694.27800,0.00071
692.21783,0.00000
690.15766,-0.00019
688.09749,0.00015
686.03731,0.00065
683.97714,0.00117
681.91697,0.00156
679.85680,0.00152
677.79663,0.00109
675.73645,0.00068
673.67628,0.00055
671.61611,0.00079
669.55594,0.00286
667.49577,0.00450
665.43559,0.00167
663.37542,0.00101
661.31525,0.00026
659.25508,-0.00039
657.19491,-0.00033
655.13473,-0.00014
653.07456,0.00042
651.01439,0.00138
648.95422,0.00133
646.89404,0.00000
644.83387,-0.00064
642.77370,0.00036
640.71353,0.00120
638.65336,0.00071
636.59318,-0.00059
634.53301,-0.00144
632.47284,-0.00115
630.41267,-0.00059
628.35250,-0.00029
626.29232,0.00013
624.23215,0.00000
622.17198,-0.00075
620.11181,-0.00007
618.05164,0.00180
615.99146,0.00245
613.93129,0.00247
611.87112,0.00272
609.81095,0.00185
607.75077,0.00088
605.69060,0.00197
603.63043,0.00308
601.57026,0.00169
599.51009,0.00000
