3996.73391,-0.00554
3994.67373,-0.00514
3992.61356,-0.00510
3990.55339,-0.00496
3988.49322,-0.00449
3986.43305,-0.00410
3984.37287,-0.00395
3982.31270,-0.00372
3980.25253,-0.00326
3978.19236,-0.00292
3976.13219,-0.00279
3974.07201,-0.00250
3972.01184,-0.00217
3969.95167,-0.00205
3967.89150,-0.00188
3965.83133,-0.00153
3963.77115,-0.00133
3961.71098,-0.00126
3959.65081,-0.00089
3957.59064,-0.00038
3955.53046,-0.00015
3953.47029,-0.00012
3951.41012,-0.00005
3949.34995,0.00000
3947.28978,0.00000
3945.22960,-0.00004
3943.16943,-0.00012
3941.10926,0.00000
3939.04909,0.00029
3936.98892,0.00070
3934.92874,0.00079
3932.86857,0.00050
3930.80840,0.00035
3928.74823,0.00074
3926.68805,0.00130
3924.62788,0.00137
3922.56771,0.00103
3920.50754,0.00098
3918.44737,0.00121
3916.38719,0.00122
3914.32702,0.00112
3912.26685,0.00117
3910.20668,0.00122
3908.14651,0.00106
3906.08633,0.00092
3904.02616,0.00098
3901.96599,0.00094
3899.90582,0.00077
3897.84565,0.00069
3895.78547,0.00058
3893.72530,0.00046
3891.66513,0.00060
3889.60496,0.00091
3887.54478,0.00094
3885.48461,0.00065
3883.42444,0.00063
3881.36427,0.00107
3879.30410,0.00135
3877.24392,0.00139
3875.18375,0.00148
3873.12358,0.00148
3871.06341,0.00132
3869.00324,0.00143
3866.94306,0.00197
3864.88289,0.00250
3862.82272,0.00255
3860.76255,0.00226
3858.70237,0.00200
3856.64220,0.00167
3854.58203,0.00090
3852.52186,0.00005
3850.46169,0.00000
3848.40151,0.00046
3846.34134,0.00089
3844.28117,0.00117
3842.22100,0.00154
3840.16083,0.00206
3838.10065,0.00232
3836.04048,0.00207
3833.98031,0.00167
3831.92014,0.00146
3829.85997,0.00163
3827.79979,0.00194
3825.73962,0.00196
3823.67945,0.00160
3821.61928,0.00100
3819.55910,0.00051
3817.49893,0.00067
3815.43876,0.00107
3813.37859,0.00119
3811.31842,0.00106
3809.25824,0.00093
3807.19807,0.00101
3805.13790,0.00121
3803.07773,0.00136
3801.01756,0.00151
3798.95738,0.00147
3796.89721,0.00121
3794.83704,0.00103
3792.77687,0.00093
3790.71670,0.00078
3788.65652,0.00062
3786.59635,0.00052
3784.53618,0.00066
3782.47601,0.00115
3780.41583,0.00148
3778.35566,0.00120
3776.29549,0.00078
3774.23532,0.00060
3772.17515,0.00056
3770.11497,0.00060
3768.05480,0.00069
3765.99463,0.00081
3763.93446,0.00092
3761.87429,0.00090
3759.81411,0.00071
3757.75394,0.00054
3755.69377,0.00051
3753.63360,0.00075
3751.57342,0.00124
3749.51325,0.00131
3747.45308,0.00071
3745.39291,0.00028
3743.33274,0.00050
3741.27256,0.00082
3739.21239,0.00083
3737.15222,0.00092
3735.09205,0.00137
3733.03188,0.00163
3730.97170,0.00140
3728.91153,0.00102
3726.85136,0.00078
3724.79119,0.00074
3722.73102,0.00079
3720.67084,0.00082
3718.61067,0.00080
3716.55050,0.00063
3714.49033,0.00051
3712.43015,0.00045
3710.36998,0.00011
3708.30981,0.00000
3706.24964,0.00041
3704.18947,0.00072
3702.12929,0.00064
3700.06912,0.00061
3698.00895,0.00089
3695.94878,0.00109
3693.88861,0.00088
3691.82843,0.00056
3689.76826,0.00046
3687.70809,0.00030
3685.64792,0.00017
3683.58775,0.00042
3681.52757,0.00111
3679.46740,0.00208
3677.40723,0.00272
3675.34706,0.00212
3673.28688,0.00102
3671.22671,0.00071
3669.16654,0.00085
3667.10637,0.00097
3665.04620,0.00120
3662.98602,0.00150
3660.92585,0.00172
3658.86568,0.00176
3656.80551,0.00172
3654.74534,0.00181
3652.68516,0.00222
3650.62499,0.00262
3648.56482,0.00262
3646.50465,0.00266
3644.44447,0.00292
3642.38430,0.00313
3640.32413,0.00327
3638.26396,0.00335
3636.20379,0.00336
3634.14361,0.00350
3632.08344,0.00371
3630.02327,0.00363
3627.96310,0.00341
3625.90293,0.00387
3623.84275,0.00472
3621.78258,0.00534
3619.72241,0.00568
3617.66224,0.00593
3615.60207,0.00608
3613.54189,0.00607
3611.48172,0.00588
3609.42155,0.00568
3607.36138,0.00595
3605.30120,0.00642
3603.24103,0.00656
3601.18086,0.00684
3599.12069,0.00766
3597.06052,0.00848
3595.00034,0.00877
3592.94017,0.00873
3590.88000,0.00885
3588.81983,0.00913
3586.75966,0.00920
3584.69948,0.00925
3582.63931,0.00963
3580.57914,0.01022
3578.51897,0.01074
3576.45879,0.01110
3574.39862,0.01131
3572.33845,0.01159
3570.27828,0.01216
3568.21811,0.01259
3566.15793,0.01241
3564.09776,0.01224
3562.03759,0.01269
3559.97742,0.01325
3557.91725,0.01343
3555.85707,0.01363
3553.79690,0.01429
3551.73673,0.01520
3549.67656,0.01584
3547.61639,0.01592
3545.55621,0.01564
3543.49604,0.01578
3541.43587,0.01665
3539.37570,0.01744
3537.31552,0.01757
3535.25535,0.01752
3533.19518,0.01795
3531.13501,0.01874
3529.07484,0.01927
3527.01466,0.01933
3524.95449,0.01936
3522.89432,0.01983
3520.83415,0.02057
3518.77398,0.02113
3516.71380,0.02144
3514.65363,0.02175
3512.59346,0.02220
3510.53329,0.02270
3508.47312,0.02324
3506.41294,0.02382
3504.35277,0.02425
3502.29260,0.02442
3500.23243,0.02444
3498.17225,0.02444
3496.11208,0.02457
3494.05191,0.02496
3491.99174,0.02538
3489.93157,0.02555
3487.87139,0.02559
3485.81122,0.02595
3483.75105,0.02681
3481.69088,0.02760
3479.63071,0.02793
3477.57053,0.02817
3475.51036,0.02856
3473.45019,0.02890
3471.39002,0.02903
3469.32984,0.02926
3467.26967,0.02986
3465.20950,0.03036
3463.14933,0.03047
3461.08916,0.03064
3459.02898,0.03117
3456.96881,0.03199
3454.90864,0.03267
3452.84847,0.03286
3450.78830,0.03289
3448.72812,0.03305
3446.66795,0.03332
3444.60778,0.03371
3442.54761,0.03407
3440.48744,0.03442
3438.42726,0.03481
3436.36709,0.03497
3434.30692,0.03478
3432.24675,0.03480
3430.18657,0.03533
3428.12640,0.03599
3426.06623,0.03649
3424.00606,0.03702
3421.94589,0.03771
3419.88571,0.03808
3417.82554,0.03786
3415.76537,0.03772
3413.70520,0.03809
3411.64503,0.03870
3409.58485,0.03914
3407.52468,0.03928
3405.46451,0.03942
3403.40434,0.03982
3401.34416,0.04013
3399.28399,0.04023
3397.22382,0.04044
3395.16365,0.04076
3393.10348,0.04120
3391.04330,0.04177
3388.98313,0.04234
3386.92296,0.04278
3384.86279,0.04289
3382.80262,0.04276
3380.74244,0.04272
3378.68227,0.04268
3376.62210,0.04256
3374.56193,0.04271
3372.50176,0.04326
3370.44158,0.04371
3368.38141,0.04388
3366.32124,0.04406
3364.26107,0.04438
3362.20089,0.04481
3360.14072,0.04514
3358.08055,0.04513
3356.02038,0.04496
3353.96021,0.04504
3351.90003,0.04560
3349.83986,0.04634
3347.77969,0.04682
3345.71952,0.04685
3343.65935,0.04671
3341.59917,0.04689
3339.53900,0.04729
3337.47883,0.04730
3335.41866,0.04687
3333.35849,0.04662
3331.29831,0.04690
3329.23814,0.04742
3327.17797,0.04769
3325.11780,0.04756
3323.05762,0.04722
3320.99745,0.04705
3318.93728,0.04723
3316.87711,0.04751
3314.81694,0.04748
3312.75676,0.04734
3310.69659,0.04752
3308.63642,0.04776
3306.57625,0.04776
3304.51608,0.04778
3302.45590,0.04810
3300.39573,0.04867
3298.33556,0.04919
3296.27539,0.04942
3294.21521,0.04941
3292.15504,0.04928
3290.09487,0.04907
3288.03470,0.04894
3285.97453,0.04906
3283.91435,0.04928
3281.85418,0.04954
3279.79401,0.04989
3277.73384,0.05006
3275.67367,0.04980
3273.61349,0.04928
3271.55332,0.04883
3269.49315,0.04867
3267.43298,0.04876
3265.37281,0.04880
3263.31263,0.04869
3261.25246,0.04869
3259.19229,0.04886
3257.13212,0.04891
3255.07194,0.04869
3253.01177,0.04838
3250.95160,0.04818
3248.89143,0.04815
3246.83126,0.04826
3244.77108,0.04817
3242.71091,0.04786
3240.65074,0.04770
3238.59057,0.04768
3236.53040,0.04749
3234.47022,0.04716
3232.41005,0.04696
3230.34988,0.04679
3228.28971,0.04673
3226.22954,0.04696
3224.16936,0.04730
3222.10919,0.04737
3220.04902,0.04710
3217.98885,0.04674
3215.92867,0.04651
3213.86850,0.04635
3211.80833,0.04616
3209.74816,0.04597
3207.68799,0.04594
3205.62781,0.04593
3203.56764,0.04565
3201.50747,0.04524
3199.44730,0.04502
3197.38713,0.04491
3195.32695,0.04471
3193.26678,0.04430
3191.20661,0.04386
3189.14644,0.04379
3187.08626,0.04398
3185.02609,0.04403
3182.96592,0.04377
3180.90575,0.04336
3178.84558,0.04310
3176.78540,0.04306
3174.72523,0.04309
3172.66506,0.04295
3170.60489,0.04270
3168.54472,0.04258
3166.48454,0.04230
3164.42437,0.04175
3162.36420,0.04136
3160.30403,0.04133
3158.24386,0.04141
3156.18368,0.04130
3154.12351,0.04105
3152.06334,0.04085
3150.00317,0.04071
3147.94299,0.04049
3145.88282,0.04005
3143.82265,0.03952
3141.76248,0.03930
3139.70231,0.03938
3137.64213,0.03949
3135.58196,0.03938
3133.52179,0.03892
3131.46162,0.03839
3129.40145,0.03809
3127.34127,0.03793
3125.28110,0.03777
3123.22093,0.03772
3121.16076,0.03784
3119.10058,0.03789
3117.04041,0.03772
3114.98024,0.03734
3112.92007,0.03691
3110.85990,0.03667
3108.79972,0.03654
3106.73955,0.03620
3104.67938,0.03567
3102.61921,0.03529
3100.55904,0.03534
3098.49886,0.03553
3096.43869,0.03548
3094.37852,0.03530
3092.31835,0.03512
3090.25818,0.03490
3088.19800,0.03463
3086.13783,0.03436
3084.07766,0.03415
3082.01749,0.03381
3079.95731,0.03341
3077.89714,0.03328
3075.83697,0.03331
3073.77680,0.03315
3071.71663,0.03285
3069.65645,0.03263
3067.59628,0.03257
3065.53611,0.03251
3063.47594,0.03233
3061.41577,0.03214
3059.35559,0.03192
3057.29542,0.03156
3055.23525,0.03136
3053.17508,0.03133
3051.11491,0.03116
3049.05473,0.03089
3046.99456,0.03069
3044.93439,0.03058
3042.87422,0.03042
3040.81404,0.03017
3038.75387,0.02992
3036.69370,0.02970
3034.63353,0.02957
3032.57336,0.02949
3030.51318,0.02937
3028.45301,0.02914
3026.39284,0.02883
3024.33267,0.02856
3022.27250,0.02830
3020.21232,0.02802
3018.15215,0.02775
3016.09198,0.02760
3014.03181,0.02756
3011.97163,0.02745
3009.91146,0.02720
3007.85129,0.02696
3005.79112,0.02684
3003.73095,0.02673
3001.67077,0.02652
2999.61060,0.02635
2997.55043,0.02636
2995.49026,0.02642
2993.43009,0.02639
2991.36991,0.02636
2989.30974,0.02643
2987.24957,0.02660
2985.18940,0.02685
2983.12923,0.02714
2981.06905,0.02734
2979.00888,0.02753
2976.94871,0.02788
2974.88854,0.02838
2972.82836,0.02893
2970.76819,0.02949
2968.70802,0.03009
2966.64785,0.03070
2964.58768,0.03148
2962.52750,0.03257
2960.46733,0.03371
2958.40716,0.03468
2956.34699,0.03546
2954.28682,0.03612
2952.22664,0.03684
2950.16647,0.03767
2948.10630,0.03867
2946.04613,0.04001
2943.98596,0.04160
2941.92578,0.04319
2939.86561,0.04484
2937.80544,0.04665
2935.74527,0.04840
2933.68509,0.04999
2931.62492,0.05169
2929.56475,0.05376
2927.50458,0.05571
2925.44441,0.05719
2923.38423,0.05860
2921.32406,0.05986
2919.26389,0.06059
2917.20372,0.06039
2915.14355,0.05878
2913.08337,0.05612
2911.02320,0.05330
2908.96303,0.05074
2906.90286,0.04855
2904.84268,0.04689
2902.78251,0.04575
2900.72234,0.04473
2898.66217,0.04358
2896.60200,0.04254
2894.54182,0.04169
2892.48165,0.04082
2890.42148,0.04001
2888.36131,0.03927
2886.30114,0.03833
2884.24096,0.03731
2882.18079,0.03664
2880.12062,0.03632
2878.06045,0.03624
2876.00028,0.03642
2873.94010,0.03662
2871.87993,0.03664
2869.81976,0.03662
2867.75959,0.03693
2865.69941,0.03757
2863.63924,0.03848
2861.57907,0.03980
2859.51890,0.04145
2857.45873,0.04328
2855.39855,0.04511
2853.33838,0.04689
2851.27821,0.04838
2849.21804,0.04847
2847.15787,0.04626
2845.09769,0.04258
2843.03752,0.03899
2840.97735,0.03610
2838.91718,0.03381
2836.85700,0.03215
2834.79683,0.03099
2832.73666,0.03018
2830.67649,0.02959
2828.61632,0.02911
2826.55614,0.02869
2824.49597,0.02824
2822.43580,0.02756
2820.37563,0.02678
2818.31546,0.02634
2816.25528,0.02620
2814.19511,0.02589
2812.13494,0.02541
2810.07477,0.02506
2808.01460,0.02483
2805.95442,0.02473
2803.89425,0.02464
2801.83408,0.02429
2799.77391,0.02397
2797.71373,0.02383
2795.65356,0.02366
2793.59339,0.02352
2791.53322,0.02344
2789.47305,0.02336
2787.41287,0.02324
2785.35270,0.02305
2783.29253,0.02286
2781.23236,0.02271
2779.17219,0.02254
2777.11201,0.02227
2775.05184,0.02204
2772.99167,0.02199
2770.93150,0.02204
2768.87133,0.02208
2766.81115,0.02203
2764.75098,0.02195
2762.69081,0.02190
2760.63064,0.02173
2758.57046,0.02154
2756.51029,0.02145
2754.45012,0.02138
2752.38995,0.02141
2750.32978,0.02148
2748.26960,0.02140
2746.20943,0.02113
2744.14926,0.02084
2742.08909,0.02070
2740.02892,0.02080
2737.96874,0.02090
2735.90857,0.02070
2733.84840,0.02044
2731.78823,0.02036
2729.72805,0.02030
2727.66788,0.02026
2725.60771,0.02038
2723.54754,0.02056
2721.48737,0.02050
2719.42719,0.02023
2717.36702,0.01994
2715.30685,0.01963
2713.24668,0.01952
2711.18651,0.01977
2709.12633,0.01989
2707.06616,0.01961
2705.00599,0.01933
2702.94582,0.01931
2700.88565,0.01944
2698.82547,0.01947
2696.76530,0.01931
2694.70513,0.01924
2692.64496,0.01931
2690.58478,0.01932
2688.52461,0.01915
2686.46444,0.01888
2684.40427,0.01870
2682.34410,0.01870
2680.28392,0.01875
2678.22375,0.01876
2676.16358,0.01861
2674.10341,0.01827
2672.04324,0.01802
2669.98306,0.01803
2667.92289,0.01818
2665.86272,0.01829
2663.80255,0.01831
2661.74238,0.01831
2659.68220,0.01832
2657.62203,0.01825
2655.56186,0.01807
2653.50169,0.01783
2651.44151,0.01762
2649.38134,0.01755
2647.32117,0.01755
2645.26100,0.01743
2643.20083,0.01726
2641.14065,0.01723
2639.08048,0.01726
2637.02031,0.01716
2634.96014,0.01684
2632.89997,0.01646
2630.83979,0.01631
2628.77962,0.01640
2626.71945,0.01640
2624.65928,0.01619
2622.59910,0.01602
2620.53893,0.01607
2618.47876,0.01607
2616.41859,0.01582
2614.35842,0.01560
2612.29824,0.01563
2610.23807,0.01572
2608.17790,0.01565
2606.11773,0.01541
2604.05756,0.01512
2601.99738,0.01497
2599.93721,0.01499
2597.87704,0.01478
2595.81687,0.01443
2593.75670,0.01440
2591.69652,0.01452
2589.63635,0.01436
2587.57618,0.01412
2585.51601,0.01421
2583.45583,0.01423
2581.39566,0.01397
2579.33549,0.01394
2577.27532,0.01418
2575.21515,0.01439
2573.15497,0.01438
2571.09480,0.01405
2569.03463,0.01381
2566.97446,0.01389
2564.91429,0.01395
2562.85411,0.01370
2560.79394,0.01323
2558.73377,0.01296
2556.67360,0.01303
2554.61342,0.01297
2552.55325,0.01276
2550.49308,0.01273
2548.43291,0.01285
2546.37274,0.01284
2544.31256,0.01245
2542.25239,0.01211
2540.19222,0.01227
2538.13205,0.01238
2536.07188,0.01222
2534.01170,0.01220
2531.95153,0.01226
2529.89136,0.01246
2527.83119,0.01283
2525.77102,0.01287
2523.71084,0.01251
2521.65067,0.01202
2519.59050,0.01170
2517.53033,0.01170
2515.47015,0.01194
2513.40998,0.01216
2511.34981,0.01187
2509.28964,0.01123
2507.22947,0.01104
2505.16929,0.01137
2503.10912,0.01168
2501.04895,0.01155
2498.98878,0.01109
2496.92861,0.01075
2494.86843,0.01057
2492.80826,0.01029
2490.74809,0.01005
2488.68792,0.00981
2486.62775,0.00980
2484.56757,0.01052
2482.50740,0.01126
2480.44723,0.01124
2478.38706,0.01099
2476.32688,0.01081
2474.26671,0.01048
2472.20654,0.01014
2470.14637,0.00996
2468.08620,0.00989
2466.02602,0.00989
2463.96585,0.00994
2461.90568,0.00992
2459.84551,0.00984
2457.78534,0.00978
2455.72516,0.00973
2453.66499,0.00974
2451.60482,0.00985
2449.54465,0.00992
2447.48447,0.00991
2445.42430,0.00986
2443.36413,0.00973
2441.30396,0.00961
2439.24379,0.00957
2437.18361,0.00961
2435.12344,0.00970
2433.06327,0.00972
2431.00310,0.00969
2428.94293,0.00957
2426.88275,0.00931
2424.82258,0.00917
2422.76241,0.00903
2420.70224,0.00877
2418.64207,0.00859
2416.58189,0.00865
2414.52172,0.00890
2412.46155,0.00908
2410.40138,0.00919
2408.34120,0.00926
2406.28103,0.00914
2404.22086,0.00910
2402.16069,0.00912
2400.10052,0.00902
2398.04034,0.00882
2395.98017,0.00866
2393.92000,0.00859
2391.85983,0.00856
2389.79966,0.00843
2387.73948,0.00814
2385.67931,0.00777
2383.61914,0.00756
2381.55897,0.00773
2379.49880,0.00823
2377.43862,0.00862
2375.37845,0.00873
2373.31828,0.00868
2371.25811,0.00867
2369.19793,0.00857
2367.13776,0.00779
2365.07759,0.00694
2363.01742,0.00767
2360.95725,0.00854
2358.89707,0.00891
2356.83690,0.00913
2354.77673,0.00905
2352.71656,0.00845
2350.65639,0.00714
2348.59621,0.00612
2346.53604,0.00645
2344.47587,0.00586
2342.41570,0.00586
2340.35552,0.00759
2338.29535,0.00919
2336.23518,0.00915
2334.17501,0.00835
2332.11484,0.00799
2330.05466,0.00789
2327.99449,0.00823
2325.93432,0.00870
2323.87415,0.00901
2321.81398,0.00835
2319.75380,0.00742
2317.69363,0.00683
2315.63346,0.00701
2313.57329,0.00741
2311.51312,0.00755
2309.45294,0.00738
2307.39277,0.00713
2305.33260,0.00712
2303.27243,0.00720
2301.21225,0.00707
2299.15208,0.00690
2297.09191,0.00711
2295.03174,0.00757
2292.97157,0.00776
2290.91139,0.00762
2288.85122,0.00742
2286.79105,0.00748
2284.73088,0.00770
2282.67071,0.00761
2280.61053,0.00715
2278.55036,0.00689
2276.49019,0.00706
2274.43002,0.00724
2272.36984,0.00708
2270.30967,0.00658
2268.24950,0.00605
2266.18933,0.00576
2264.12916,0.00584
2262.06898,0.00618
2260.00881,0.00635
2257.94864,0.00636
2255.88847,0.00636
2253.82830,0.00612
2251.76812,0.00582
2249.70795,0.00565
2247.64778,0.00559
2245.58761,0.00577
2243.52744,0.00609
2241.46726,0.00619
2239.40709,0.00569
2237.34692,0.00526
2235.28675,0.00550
2233.22657,0.00591
2231.16640,0.00616
2229.10623,0.00615
2227.04606,0.00597
2224.98589,0.00556
2222.92571,0.00485
2220.86554,0.00453
2218.80537,0.00493
2216.74520,0.00515
2214.68503,0.00463
2212.62485,0.00376
2210.56468,0.00348
2208.50451,0.00374
2206.44434,0.00410
2204.38417,0.00452
2202.32399,0.00462
2200.26382,0.00467
2198.20365,0.00436
2196.14348,0.00361
2194.08330,0.00417
2192.02313,0.00616
2189.96296,0.00736
2187.90279,0.00694
2185.84262,0.00671
2183.78244,0.00726
2181.72227,0.00724
2179.66210,0.00616
2177.60193,0.00511
2175.54176,0.00524
2173.48158,0.00574
2171.42141,0.00567
2169.36124,0.00522
2167.30107,0.00488
2165.24089,0.00483
2163.18072,0.00437
2161.12055,0.00273
2159.06038,0.00109
2157.00021,0.00121
2154.94003,0.00204
2152.87986,0.00262
2150.81969,0.00309
2148.75952,0.00369
2146.69935,0.00401
2144.63917,0.00363
2142.57900,0.00377
2140.51883,0.00467
2138.45866,0.00482
2136.39849,0.00418
2134.33831,0.00397
2132.27814,0.00437
2130.21797,0.00485
2128.15780,0.00518
2126.09762,0.00529
2124.03745,0.00482
2121.97728,0.00442
2119.91711,0.00500
2117.85694,0.00558
2115.79676,0.00520
2113.73659,0.00482
2111.67642,0.00504
2109.61625,0.00505
2107.55608,0.00480
2105.49590,0.00466
2103.43573,0.00481
2101.37556,0.00507
2099.31539,0.00480
2097.25521,0.00429
2095.19504,0.00424
2093.13487,0.00452
2091.07470,0.00482
2089.01453,0.00481
2086.95435,0.00430
2084.89418,0.00392
2082.83401,0.00387
2080.77384,0.00367
2078.71367,0.00340
2076.65349,0.00315
2074.59332,0.00290
2072.53315,0.00308
2070.47298,0.00379
2068.41281,0.00433
2066.35263,0.00446
2064.29246,0.00434
2062.23229,0.00379
2060.17212,0.00322
2058.11194,0.00317
2056.05177,0.00320
2053.99160,0.00322
2051.93143,0.00367
2049.87126,0.00405
2047.81108,0.00333
2045.75091,0.00170
2043.69074,0.00132
2041.63057,0.00325
2039.57040,0.00508
2037.51022,0.00456
2035.45005,0.00301
2033.38988,0.00219
2031.32971,0.00152
2029.26954,0.00075
2027.20936,0.00021
2025.14919,0.00000
2023.08902,0.00044
2021.02885,0.00103
2018.96867,0.00158
2016.90850,0.00289
2014.84833,0.00436
2012.78816,0.00399
2010.72799,0.00188
2008.66781,0.00066
2006.60764,0.00147
2004.54747,0.00267
2002.48730,0.00296
2000.42713,0.00305
1998.36695,0.00301
1996.30678,0.00252
1994.24661,0.00221
1992.18644,0.00222
1990.12626,0.00227
1988.06609,0.00237
1986.00592,0.00259
1983.94575,0.00265
1981.88558,0.00234
1979.82540,0.00194
1977.76523,0.00211
1975.70506,0.00309
1973.64489,0.00366
1971.58472,0.00287
1969.52454,0.00148
1967.46437,0.00076
1965.40420,0.00101
1963.34403,0.00150
1961.28386,0.00168
1959.22368,0.00164
1957.16351,0.00147
1955.10334,0.00130
1953.04317,0.00147
1950.98299,0.00191
1948.92282,0.00239
1946.86265,0.00253
1944.80248,0.00163
1942.74231,0.00045
1940.68213,0.00056
1938.62196,0.00144
1936.56179,0.00221
1934.50162,0.00288
1932.44145,0.00306
1930.38127,0.00243
1928.32110,0.00160
1926.26093,0.00121
1924.20076,0.00135
1922.14059,0.00176
1920.08041,0.00218
1918.02024,0.00229
1915.96007,0.00210
1913.89990,0.00197
1911.83972,0.00189
1909.77955,0.00180
1907.71938,0.00187
1905.65921,0.00213
1903.59904,0.00224
1901.53886,0.00204
1899.47869,0.00181
1897.41852,0.00182
1895.35835,0.00186
1893.29818,0.00152
1891.23800,0.00123
1889.17783,0.00144
1887.11766,0.00167
1885.05749,0.00159
1882.99731,0.00165
1880.93714,0.00180
1878.87697,0.00155
1876.81680,0.00119
1874.75663,0.00122
1872.69645,0.00145
1870.63628,0.00154
1868.57611,0.00139
1866.51594,0.00119
1864.45577,0.00131
1862.39559,0.00157
1860.33542,0.00151
1858.27525,0.00117
1856.21508,0.00093
1854.15491,0.00083
1852.09473,0.00078
1850.03456,0.00087
1847.97439,0.00107
1845.91422,0.00101
1843.85404,0.00065
1841.79387,0.00055
1839.73370,0.00089
1837.67353,0.00118
1835.61336,0.00114
1833.55318,0.00088
1831.49301,0.00052
1829.43284,0.00024
1827.37267,0.00040
1825.31250,0.00074
1823.25232,0.00079
1821.19215,0.00064
1819.13198,0.00064
1817.07181,0.00073
1815.01163,0.00059
1812.95146,0.00024
1810.89129,0.00000
1808.83112,-0.00006
1806.77095,-0.00002
1804.71077,0.00004
1802.65060,0.00002
1800.59043,-0.00003
1798.53026,0.00010
1796.47009,0.00028
1794.40991,0.00027
1792.34974,0.00001
1790.28957,-0.00024
1788.22940,-0.00020
1786.16923,0.00006
1784.10905,0.00021
1782.04888,0.00014
1779.98871,0.00000
1777.92854,-0.00008
1775.86836,-0.00004
1773.80819,0.00009
1771.74802,0.00020
1769.68785,0.00020
1767.62768,0.00017
1765.56750,0.00038
1763.50733,0.00097
1761.44716,0.00183
1759.38699,0.00274
1757.32682,0.00355
1755.26664,0.00432
1753.20647,0.00527
1751.14630,0.00660
1749.08613,0.00820
1747.02596,0.01000
1744.96578,0.01230
1742.90561,0.01523
1740.84544,0.01850
1738.78527,0.02162
1736.72509,0.02426
1734.66492,0.02656
1732.60475,0.02828
1730.54458,0.02892
1728.48441,0.02902
1726.42423,0.02906
1724.36406,0.02899
1722.30389,0.02882
1720.24372,0.02874
1718.18355,0.02855
1716.12337,0.02806
1714.06320,0.02767
1712.00303,0.02749
1709.94286,0.02733
1707.88268,0.02707
1705.82251,0.02670
1703.76234,0.02639
1701.70217,0.02601
1699.64200,0.02512
1697.58182,0.02409
1695.52165,0.02357
1693.46148,0.02370
1691.40131,0.02402
1689.34114,0.02405
1687.28096,0.02390
1685.22079,0.02371
1683.16062,0.02356
1681.10045,0.02367
1679.04028,0.02388
1676.98010,0.02409
1674.91993,0.02451
1672.85976,0.02522
1670.79959,0.02601
1668.73941,0.02672
1666.67924,0.02755
1664.61907,0.02860
1662.55890,0.02981
1660.49873,0.03112
1658.43855,0.03249
1656.37838,0.03385
1654.31821,0.03497
1652.25804,0.03567
1650.19787,0.03613
1648.13769,0.03644
1646.07752,0.03641
1644.01735,0.03637
1641.95718,0.03672
1639.89701,0.03731
1637.83683,0.03777
1635.77666,0.03803
1633.71649,0.03846
1631.65632,0.03918
1629.59614,0.03988
1627.53597,0.04041
1625.47580,0.04077
1623.41563,0.04104
1621.35546,0.04158
1619.29528,0.04254
1617.23511,0.04350
1615.17494,0.04412
1613.11477,0.04462
1611.05460,0.04516
1608.99442,0.04564
1606.93425,0.04593
1604.87408,0.04600
1602.81391,0.04585
1600.75373,0.04548
1598.69356,0.04484
1596.63339,0.04395
1594.57322,0.04283
1592.51305,0.04141
1590.45287,0.03975
1588.39270,0.03811
1586.33253,0.03657
1584.27236,0.03508
1582.21219,0.03376
1580.15201,0.03273
1578.09184,0.03160
1576.03167,0.02991
1573.97150,0.02832
1571.91133,0.02736
1569.85115,0.02631
1567.79098,0.02508
1565.73081,0.02425
1563.67064,0.02394
1561.61046,0.02401
1559.55029,0.02387
1557.49012,0.02317
1555.42995,0.02289
1553.36978,0.02298
1551.30960,0.02304
1549.24943,0.02303
1547.18926,0.02315
1545.12909,0.02358
1543.06892,0.02419
1541.00874,0.02418
1538.94857,0.02320
1536.88840,0.02251
1534.82823,0.02210
1532.76805,0.02142
1530.70788,0.02077
1528.64771,0.02023
1526.58754,0.01954
1524.52737,0.01893
1522.46719,0.01856
1520.40702,0.01837
1518.34685,0.01840
1516.28668,0.01837
1514.22651,0.01824
1512.16633,0.01813
1510.10616,0.01783
1508.04599,0.01644
1505.98582,0.01387
1503.92565,0.01230
1501.86547,0.01180
1499.80530,0.01119
1497.74513,0.00998
1495.68496,0.00866
1493.62478,0.00784
1491.56461,0.00716
1489.50444,0.00604
1487.44427,0.00488
1485.38410,0.00442
1483.32392,0.00449
1481.26375,0.00468
1479.20358,0.00509
1477.14341,0.00614
1475.08324,0.00803
1473.02306,0.01053
1470.96289,0.01303
1468.90272,0.01521
1466.84255,0.01737
1464.78238,0.01959
1462.72220,0.02151
1460.66203,0.02289
1458.60186,0.02382
1456.54169,0.02470
1454.48151,0.02590
1452.42134,0.02715
1450.36117,0.02823
1448.30100,0.02912
1446.24083,0.02981
1444.18065,0.03041
1442.12048,0.03088
1440.06031,0.03098
1438.00014,0.03041
1435.93997,0.02915
1433.87979,0.02783
1431.81962,0.02668
1429.75945,0.02543
1427.69928,0.02433
1425.63910,0.02367
1423.57893,0.02326
1421.51876,0.02295
1419.45859,0.02270
1417.39842,0.02250
1415.33824,0.02243
1413.27807,0.02235
1411.21790,0.02201
1409.15773,0.02148
1407.09756,0.02104
1405.03738,0.02081
1402.97721,0.02077
1400.91704,0.02086
1398.85687,0.02094
1396.79670,0.02099
1394.73652,0.02109
1392.67635,0.02130
1390.61618,0.02164
1388.55601,0.02206
1386.49583,0.02250
1384.43566,0.02313
1382.37549,0.02397
1380.31532,0.02482
1378.25515,0.02562
1376.19497,0.02637
1374.13480,0.02690
1372.07463,0.02716
1370.01446,0.02743
1367.95429,0.02774
1365.89411,0.02802
1363.83394,0.02808
1361.77377,0.02779
1359.71360,0.02752
1357.65343,0.02762
1355.59325,0.02791
1353.53308,0.02820
1351.47291,0.02850
1349.41274,0.02876
1347.35256,0.02888
1345.29239,0.02899
1343.23222,0.02926
1341.17205,0.02969
1339.11188,0.03012
1337.05170,0.03051
1334.99153,0.03101
1332.93136,0.03158
1330.87119,0.03220
1328.81102,0.03292
1326.75084,0.03384
1324.69067,0.03491
1322.63050,0.03594
1320.57033,0.03670
1318.51015,0.03706
1316.44998,0.03711
1314.38981,0.03695
1312.32964,0.03653
1310.26947,0.03582
1308.20929,0.03476
1306.14912,0.03332
1304.08895,0.03167
1302.02878,0.02998
1299.96861,0.02827
1297.90843,0.02663
1295.84826,0.02510
1293.78809,0.02362
1291.72792,0.02226
1289.66775,0.02124
1287.60757,0.02052
1285.54740,0.01998
1283.48723,0.01967
1281.42706,0.01957
1279.36688,0.01955
1277.30671,0.01960
1275.24654,0.01987
1273.18637,0.02031
1271.12620,0.02077
1269.06602,0.02115
1267.00585,0.02158
1264.94568,0.02223
1262.88551,0.02301
1260.82534,0.02372
1258.76516,0.02431
1256.70499,0.02491
1254.64482,0.02571
1252.58465,0.02659
1250.52447,0.02719
1248.46430,0.02741
1246.40413,0.02748
1244.34396,0.02755
1242.28379,0.02770
1240.22361,0.02796
1238.16344,0.02848
1236.10327,0.02912
1234.04310,0.02964
1231.98293,0.03011
1229.92275,0.03072
1227.86258,0.03150
1225.80241,0.03232
1223.74224,0.03309
1221.68207,0.03377
1219.62189,0.03429
1217.56172,0.03468
1215.50155,0.03511
1213.44138,0.03560
1211.38120,0.03605
1209.32103,0.03643
1207.26086,0.03682
1205.20069,0.03730
1203.14052,0.03769
1201.08034,0.03794
1199.02017,0.03815
1196.96000,0.03826
1194.89983,0.03815
1192.83966,0.03784
1190.77948,0.03738
1188.71931,0.03685
1186.65914,0.03635
1184.59897,0.03581
1182.53880,0.03521
1180.47862,0.03484
1178.41845,0.03493
1176.35828,0.03531
1174.29811,0.03558
1172.23793,0.03566
1170.17776,0.03574
1168.11759,0.03580
1166.05742,0.03568
1163.99725,0.03546
1161.93707,0.03527
1159.87690,0.03503
1157.81673,0.03449
1155.75656,0.03385
1153.69639,0.03351
1151.63621,0.03334
1149.57604,0.03283
1147.51587,0.03182
1145.45570,0.03052
1143.39552,0.02924
1141.33535,0.02808
1139.27518,0.02688
1137.21501,0.02578
1135.15484,0.02521
1133.09466,0.02503
1131.03449,0.02496
1128.97432,0.02512
1126.91415,0.02562
1124.85398,0.02653
1122.79380,0.02784
1120.73363,0.02934
1118.67346,0.03091
1116.61329,0.03275
1114.55312,0.03500
1112.49294,0.03751
1110.43277,0.04028
1108.37260,0.04308
1106.31243,0.04583
1104.25225,0.04852
1102.19208,0.05061
1100.13191,0.05189
1098.07174,0.05298
1096.01157,0.05445
1093.95139,0.05611
1091.89122,0.05761
1089.83105,0.05889
1087.77088,0.06018
1085.71071,0.06178
1083.65053,0.06357
1081.59036,0.06515
1079.53019,0.06642
1077.47002,0.06751
1075.40985,0.06853
1073.34967,0.06945
1071.28950,0.07007
1069.22933,0.07051
1067.16916,0.07132
1065.10898,0.07273
1063.04881,0.07426
1060.98864,0.07561
1058.92847,0.07695
1056.86830,0.07837
1054.80812,0.07995
1052.74795,0.08178
1050.68778,0.08346
1048.62761,0.08489
1046.56744,0.08613
1044.50726,0.08705
1042.44709,0.08786
1040.38692,0.08887
1038.32675,0.09000
1036.26657,0.09145
1034.20640,0.09351
1032.14623,0.09574
1030.08606,0.09761
1028.02589,0.09873
1025.96571,0.09903
1023.90554,0.09872
1021.84537,0.09807
1019.78520,0.09739
1017.72503,0.09681
1015.66485,0.09612
1013.60468,0.09518
1011.54451,0.09398
1009.48434,0.09268
1007.42417,0.09157
1005.36399,0.09047
1003.30382,0.08910
1001.24365,0.08743
999.18348,0.08537
997.12330,0.08316
995.06313,0.08108
993.00296,0.07906
990.94279,0.07679
988.88262,0.07401
986.82244,0.07082
984.76227,0.06742
982.70210,0.06422
980.64193,0.06150
978.58176,0.05884
976.52158,0.05600
974.46141,0.05335
972.40124,0.05110
970.34107,0.04902
968.28089,0.04706
966.22072,0.04534
964.16055,0.04390
962.10038,0.04242
960.04021,0.04067
957.98003,0.03890
955.91986,0.03721
953.85969,0.03534
951.79952,0.03324
949.73935,0.03096
947.67917,0.02867
945.61900,0.02689
943.55883,0.02582
941.49866,0.02496
939.43849,0.02408
937.37831,0.02340
935.31814,0.02308
933.25797,0.02282
931.19780,0.02209
929.13762,0.02098
927.07745,0.01993
925.01728,0.01916
922.95711,0.01835
920.89694,0.01717
918.83676,0.01578
916.77659,0.01443
914.71642,0.01312
912.65625,0.01184
910.59608,0.01080
908.53590,0.01025
906.47573,0.01004
904.41556,0.00986
902.35539,0.00976
900.29522,0.00993
898.23504,0.01030
896.17487,0.01058
894.11470,0.01069
892.05453,0.01075
889.99435,0.01084
887.93418,0.01060
885.87401,0.00982
883.81384,0.00891
881.75367,0.00825
879.69349,0.00799
877.63332,0.00822
875.57315,0.00850
873.51298,0.00838
871.45281,0.00814
869.39263,0.00776
867.33246,0.00720
865.27229,0.00658
863.21212,0.00570
861.15194,0.00494
859.09177,0.00441
857.03160,0.00342
854.97143,0.00221
852.91126,0.00164
850.85108,0.00154
848.79091,0.00107
846.73074,0.00026
844.67057,0.00000
842.61040,0.00027
840.55022,0.00032
838.49005,-0.00008
836.42988,-0.00010
834.36971,0.00079
832.30954,0.00187
830.24936,0.00224
828.18919,0.00184
826.12902,0.00149
824.06885,0.00178
822.00867,0.00238
819.94850,0.00286
817.88833,0.00329
815.82816,0.00348
813.76799,0.00320
811.70781,0.00303
809.64764,0.00330
807.58747,0.00323
805.52730,0.00226
803.46713,0.00101
801.40695,0.00033
799.34678,0.00000
797.28661,-0.00054
795.22644,-0.00059
793.16627,-0.00052
791.10609,-0.00079
789.04592,-0.00079
786.98575,-0.00002
784.92558,0.00083
782.86540,0.00114
780.80523,0.00132
778.74506,0.00161
776.68489,0.00168
774.62472,0.00175
772.56454,0.00221
770.50437,0.00296
768.44420,0.00398
766.38403,0.00539
764.32386,0.00685
762.26368,0.00792
760.20351,0.00875
758.14334,0.00936
756.08317,0.00938
754.02299,0.00902
751.96282,0.00837
749.90265,0.00720
747.84248,0.00599
745.78231,0.00518
743.72213,0.00487
741.66196,0.00495
739.60179,0.00466
737.54162,0.00385
735.48145,0.00315
733.42127,0.00268
731.36110,0.00273
729.30093,0.00355
727.24076,0.00438
725.18059,0.00468
723.12041,0.00470
721.06024,0.00526
719.00007,0.00577
716.93990,0.00537
714.87972,0.00430
712.81955,0.00359
710.75938,0.00342
708.69921,0.00317
706.63904,0.00266
704.57886,0.00261
702.51869,0.00354
700.45852,0.00437
698.39835,0.00407
696.33818,0.00337
694.27800,0.00297
692.21783,0.00256
690.15766,0.00175
688.09749,0.00070
686.03731,0.00000
683.97714,-0.00027
681.91697,-0.00005
679.85680,0.00075
677.79663,0.00155
675.73645,0.00186
673.67628,0.00154
671.61611,0.00112
669.55594,0.00307
667.49577,0.00527
665.43559,0.00297
663.37542,0.00369
661.31525,0.00448
659.25508,0.00398
657.19491,0.00297
655.13473,0.00215
653.07456,0.00198
651.01439,0.00194
648.95422,0.00107
646.89404,0.00000
644.83387,0.00005
642.77370,0.00121
640.71353,0.00210
638.65336,0.00130
636.59318,-0.00112
634.53301,-0.00245
632.47284,-0.00099
630.41267,0.00117
628.35250,0.00203
626.29232,0.00191
624.23215,0.00148
622.17198,0.00126
620.11181,0.00324
618.05164,0.00708
615.99146,0.00893
613.93129,0.00818
611.87112,0.00769
609.81095,0.00727
607.75077,0.00568
605.69060,0.00334
603.63043,0.00110
601.57026,-0.00009
599.51009,0.00000
