3996.73391,0.00054
3994.67373,0.00020
3992.61356,0.00000
3990.55339,0.00004
3988.49322,0.00026
3986.43305,0.00039
3984.37287,0.00038
3982.31270,0.00040
3980.25253,0.00045
3978.19236,0.00046
3976.13219,0.00048
3974.07201,0.00056
3972.01184,0.00061
3969.95167,0.00051
3967.89150,0.00039
3965.83133,0.00039
3963.77115,0.00053
3961.71098,0.00085
3959.65081,0.00117
3957.59064,0.00120
3955.53046,0.00100
3953.47029,0.00086
3951.41012,0.00086
3949.34995,0.00093
3947.28978,0.00099
3945.22960,0.00104
3943.16943,0.00092
3941.10926,0.00060
3939.04909,0.00039
3936.98892,0.00047
3934.92874,0.00058
3932.86857,0.00060
3930.80840,0.00074
3928.74823,0.00090
3926.68805,0.00080
3924.62788,0.00054
3922.56771,0.00045
3920.50754,0.00064
3918.44737,0.00101
3916.38719,0.00138
3914.32702,0.00152
3912.26685,0.00133
3910.20668,0.00086
3908.14651,0.00030
3906.08633,0.00000
3904.02616,0.00018
3901.96599,0.00068
3899.90582,0.00110
3897.84565,0.00129
3895.78547,0.00122
3893.72530,0.00106
3891.66513,0.00101
3889.60496,0.00098
3887.54478,0.00089
3885.48461,0.00100
3883.42444,0.00127
3881.36427,0.00132
3879.30410,0.00102
3877.24392,0.00069
3875.18375,0.00073
3873.12358,0.00108
3871.06341,0.00132
3869.00324,0.00131
3866.94306,0.00127
3864.88289,0.00131
3862.82272,0.00138
3860.76255,0.00143
3858.70237,0.00143
3856.64220,0.00162
3854.58203,0.00206
3852.52186,0.00200
3850.46169,0.00109
3848.40151,0.00026
3846.34134,0.00004
3844.28117,0.00044
3842.22100,0.00097
3840.16083,0.00101
3838.10065,0.00083
3836.04048,0.00104
3833.98031,0.00130
3831.92014,0.00122
3829.85997,0.00091
3827.79979,0.00076
3825.73962,0.00104
3823.67945,0.00148
3821.61928,0.00171
3819.55910,0.00159
3817.49893,0.00125
3815.43876,0.00112
3813.37859,0.00115
3811.31842,0.00106
3809.25824,0.00105
3807.19807,0.00124
3805.13790,0.00132
3803.07773,0.00123
3801.01756,0.00116
3798.95738,0.00100
3796.89721,0.00094
3794.83704,0.00122
3792.77687,0.00152
3790.71670,0.00153
3788.65652,0.00133
3786.59635,0.00115
3784.53618,0.00124
3782.47601,0.00148
3780.41583,0.00151
3778.35566,0.00111
3776.29549,0.00055
3774.23532,0.00043
3772.17515,0.00096
3770.11497,0.00149
3768.05480,0.00138
3765.99463,0.00108
3763.93446,0.00119
3761.87429,0.00155
3759.81411,0.00180
3757.75394,0.00175
3755.69377,0.00139
3753.63360,0.00089
3751.57342,0.00054
3749.51325,0.00045
3747.45308,0.00040
3745.39291,0.00037
3743.33274,0.00074
3741.27256,0.00137
3739.21239,0.00146
3737.15222,0.00075
3735.09205,0.00000
3733.03188,0.00007
3730.97170,0.00041
3728.91153,0.00049
3726.85136,0.00061
3724.79119,0.00100
3722.73102,0.00142
3720.67084,0.00150
3718.61067,0.00106
3716.55050,0.00055
3714.49033,0.00043
3712.43015,0.00065
3710.36998,0.00099
3708.30981,0.00130
3706.24964,0.00123
3704.18947,0.00084
3702.12929,0.00067
3700.06912,0.00106
3698.00895,0.00176
3695.94878,0.00228
3693.88861,0.00225
3691.82843,0.00187
3689.76826,0.00168
3687.70809,0.00179
3685.64792,0.00179
3683.58775,0.00161
3681.52757,0.00141
3679.46740,0.00115
3677.40723,0.00084
3675.34706,0.00090
3673.28688,0.00140
3671.22671,0.00197
3669.16654,0.00263
3667.10637,0.00302
3665.04620,0.00284
3662.98602,0.00238
3660.92585,0.00207
3658.86568,0.00207
3656.80551,0.00215
3654.74534,0.00206
3652.68516,0.00217
3650.62499,0.00293
3648.56482,0.00382
3646.50465,0.00389
3644.44447,0.00363
3642.38430,0.00372
3640.32413,0.00420
3638.26396,0.00484
3636.20379,0.00526
3634.14361,0.00512
3632.08344,0.00453
3630.02327,0.00386
3627.96310,0.00385
3625.90293,0.00459
3623.84275,0.00508
3621.78258,0.00522
3619.72241,0.00561
3617.66224,0.00634
3615.60207,0.00703
3613.54189,0.00758
3611.48172,0.00789
3609.42155,0.00798
3607.36138,0.00802
3605.30120,0.00802
3603.24103,0.00802
3601.18086,0.00824
3599.12069,0.00867
3597.06052,0.00900
3595.00034,0.00905
3592.94017,0.00900
3590.88000,0.00910
3588.81983,0.00953
3586.75966,0.01031
3584.69948,0.01107
3582.63931,0.01169
3580.57914,0.01216
3578.51897,0.01239
3576.45879,0.01252
3574.39862,0.01277
3572.33845,0.01323
3570.27828,0.01365
3568.21811,0.01364
3566.15793,0.01332
3564.09776,0.01335
3562.03759,0.01382
3559.97742,0.01445
3557.91725,0.01507
3555.85707,0.01564
3553.79690,0.01626
3551.73673,0.01699
3549.67656,0.01754
3547.61639,0.01767
3545.55621,0.01773
3543.49604,0.01802
3541.43587,0.01839
3539.37570,0.01870
3537.31552,0.01897
3535.25535,0.01938
3533.19518,0.01995
3531.13501,0.02045
3529.07484,0.02080
3527.01466,0.02110
3524.95449,0.02148
3522.89432,0.02176
3520.83415,0.02178
3518.77398,0.02189
3516.71380,0.02239
3514.65363,0.02308
3512.59346,0.02369
3510.53329,0.02417
3508.47312,0.02467
3506.41294,0.02521
3504.35277,0.02564
3502.29260,0.02594
3500.23243,0.02625
3498.17225,0.02650
3496.11208,0.02660
3494.05191,0.02654
3491.99174,0.02662
3489.93157,0.02714
3487.87139,0.02781
3485.81122,0.02829
3483.75105,0.02885
3481.69088,0.02959
3479.63071,0.03008
3477.57053,0.03026
3475.51036,0.03049
3473.45019,0.03091
3471.39002,0.03143
3469.32984,0.03189
3467.26967,0.03206
3465.20950,0.03201
3463.14933,0.03211
3461.08916,0.03259
3459.02898,0.03312
3456.96881,0.03335
3454.90864,0.03351
3452.84847,0.03373
3450.78830,0.03414
3448.72812,0.03487
3446.66795,0.03554
3444.60778,0.03598
3442.54761,0.03646
3440.48744,0.03703
3438.42726,0.03739
3436.36709,0.03740
3434.30692,0.03726
3432.24675,0.03736
3430.18657,0.03785
3428.12640,0.03832
3426.06623,0.03828
3424.00606,0.03807
3421.94589,0.03839
3419.88571,0.03924
3417.82554,0.04010
3415.76537,0.04055
3413.70520,0.04080
3411.64503,0.04129
3409.58485,0.04164
3407.52468,0.04148
3405.46451,0.04134
3403.40434,0.04169
3401.34416,0.04228
3399.28399,0.04285
3397.22382,0.04334
3395.16365,0.04369
3393.10348,0.04401
3391.04330,0.04424
3388.98313,0.04418
3386.92296,0.04403
3384.86279,0.04413
3382.80262,0.04454
3380.74244,0.04506
3378.68227,0.04542
3376.62210,0.04552
3374.56193,0.04546
3372.50176,0.04540
3370.44158,0.04550
3368.38141,0.04569
3366.32124,0.04596
3364.26107,0.04638
3362.20089,0.04673
3360.14072,0.04682
3358.08055,0.04678
3356.02038,0.04677
3353.96021,0.04696
3351.90003,0.04735
3349.83986,0.04778
3347.77969,0.04808
3345.71952,0.04810
3343.65935,0.04800
3341.59917,0.04825
3339.53900,0.04871
3337.47883,0.04886
3335.41866,0.04886
3333.35849,0.04903
3331.29831,0.04912
3329.23814,0.04911
3327.17797,0.04928
3325.11780,0.04957
3323.05762,0.04981
3320.99745,0.04977
3318.93728,0.04938
3316.87711,0.04904
3314.81694,0.04911
3312.75676,0.04939
3310.69659,0.04969
3308.63642,0.04988
3306.57625,0.04987
3304.51608,0.04976
3302.45590,0.04978
3300.39573,0.05011
3298.33556,0.05063
3296.27539,0.05101
3294.21521,0.05115
3292.15504,0.05113
3290.09487,0.05086
3288.03470,0.05044
3285.97453,0.05021
3283.91435,0.05041
3281.85418,0.05086
3279.79401,0.05089
3277.73384,0.05032
3275.67367,0.04989
3273.61349,0.05013
3271.55332,0.05056
3269.49315,0.05062
3267.43298,0.05040
3265.37281,0.05016
3263.31263,0.05001
3261.25246,0.04990
3259.19229,0.04972
3257.13212,0.04957
3255.07194,0.04960
3253.01177,0.04958
3250.95160,0.04938
3248.89143,0.04916
3246.83126,0.04890
3244.77108,0.04858
3242.71091,0.04838
3240.65074,0.04834
3238.59057,0.04825
3236.53040,0.04820
3234.47022,0.04828
3232.41005,0.04828
3230.34988,0.04814
3228.28971,0.04791
3226.22954,0.04747
3224.16936,0.04699
3222.10919,0.04682
3220.04902,0.04682
3217.98885,0.04690
3215.92867,0.04714
3213.86850,0.04719
3211.80833,0.04667
3209.74816,0.04594
3207.68799,0.04556
3205.62781,0.04552
3203.56764,0.04554
3201.50747,0.04555
3199.44730,0.04545
3197.38713,0.04517
3195.32695,0.04489
3193.26678,0.04470
3191.20661,0.04465
3189.14644,0.04487
3187.08626,0.04492
3185.02609,0.04448
3182.96592,0.04414
3180.90575,0.04399
3178.84558,0.04357
3176.78540,0.04289
3174.72523,0.04237
3172.66506,0.04236
3170.60489,0.04258
3168.54472,0.04246
3166.48454,0.04194
3164.42437,0.04146
3162.36420,0.04123
3160.30403,0.04111
3158.24386,0.04100
3156.18368,0.04097
3154.12351,0.04105
3152.06334,0.04098
3150.00317,0.04058
3147.94299,0.04018
3145.88282,0.03999
3143.82265,0.03970
3141.76248,0.03911
3139.70231,0.03859
3137.64213,0.03849
3135.58196,0.03864
3133.52179,0.03861
3131.46162,0.03830
3129.40145,0.03794
3127.34127,0.03775
3125.28110,0.03766
3123.22093,0.03747
3121.16076,0.03720
3119.10058,0.03690
3117.04041,0.03668
3114.98024,0.03667
3112.92007,0.03658
3110.85990,0.03627
3108.79972,0.03594
3106.73955,0.03572
3104.67938,0.03552
3102.61921,0.03514
3100.55904,0.03470
3098.49886,0.03441
3096.43869,0.03411
3094.37852,0.03372
3092.31835,0.03338
3090.25818,0.03323
3088.19800,0.03334
3086.13783,0.03350
3084.07766,0.03346
3082.01749,0.03331
3079.95731,0.03317
3077.89714,0.03303
3075.83697,0.03283
3073.77680,0.03253
3071.71663,0.03217
3069.65645,0.03186
3067.59628,0.03173
3065.53611,0.03176
3063.47594,0.03172
3061.41577,0.03149
3059.35559,0.03117
3057.29542,0.03095
3055.23525,0.03079
3053.17508,0.03063
3051.11491,0.03049
3049.05473,0.03023
3046.99456,0.02981
3044.93439,0.02935
3042.87422,0.02897
3040.81404,0.02885
3038.75387,0.02887
3036.69370,0.02875
3034.63353,0.02845
3032.57336,0.02819
3030.51318,0.02803
3028.45301,0.02781
3026.39284,0.02749
3024.33267,0.02730
3022.27250,0.02728
3020.21232,0.02731
3018.15215,0.02732
3016.09198,0.02726
3014.03181,0.02697
3011.97163,0.02664
3009.91146,0.02654
3007.85129,0.02658
3005.79112,0.02646
3003.73095,0.02612
3001.67077,0.02587
2999.61060,0.02585
2997.55043,0.02587
2995.49026,0.02582
2993.43009,0.02579
2991.36991,0.02583
2989.30974,0.02585
2987.24957,0.02569
2985.18940,0.02558
2983.12923,0.02593
2981.06905,0.02656
2979.00888,0.02694
2976.94871,0.02719
2974.88854,0.02769
2972.82836,0.02833
2970.76819,0.02894
2968.70802,0.02955
2966.64785,0.03026
2964.58768,0.03121
2962.52750,0.03219
2960.46733,0.03313
2958.40716,0.03428
2956.34699,0.03540
2954.28682,0.03608
2952.22664,0.03658
2950.16647,0.03735
2948.10630,0.03858
2946.04613,0.03992
2943.98596,0.04118
2941.92578,0.04276
2939.86561,0.04463
2937.80544,0.04658
2935.74527,0.04886
2933.68509,0.05131
2931.62492,0.05348
2929.56475,0.05526
2927.50458,0.05675
2925.44441,0.05811
2923.38423,0.05958
2921.32406,0.06098
2919.26389,0.06175
2917.20372,0.06138
2915.14355,0.05969
2913.08337,0.05705
2911.02320,0.05412
2908.96303,0.05147
2906.90286,0.04933
2904.84268,0.04749
2902.78251,0.04588
2900.72234,0.04471
2898.66217,0.04380
2896.60200,0.04282
2894.54182,0.04180
2892.48165,0.04089
2890.42148,0.04007
2888.36131,0.03919
2886.30114,0.03837
2884.24096,0.03778
2882.18079,0.03724
2880.12062,0.03663
2878.06045,0.03612
2876.00028,0.03588
2873.94010,0.03602
2871.87993,0.03641
2869.81976,0.03687
2867.75959,0.03747
2865.69941,0.03834
2863.63924,0.03937
2861.57907,0.04048
2859.51890,0.04189
2857.45873,0.04358
2855.39855,0.04531
2853.33838,0.04708
2851.27821,0.04858
2849.21804,0.04850
2847.15787,0.04603
2845.09769,0.04219
2843.03752,0.03841
2840.97735,0.03540
2838.91718,0.03325
2836.85700,0.03153
2834.79683,0.03013
2832.73666,0.02934
2830.67649,0.02893
2828.61632,0.02828
2826.55614,0.02732
2824.49597,0.02653
2822.43580,0.02598
2820.37563,0.02555
2818.31546,0.02539
2816.25528,0.02532
2814.19511,0.02507
2812.13494,0.02479
2810.07477,0.02452
2808.01460,0.02417
2805.95442,0.02381
2803.89425,0.02355
2801.83408,0.02344
2799.77391,0.02331
2797.71373,0.02307
2795.65356,0.02294
2793.59339,0.02287
2791.53322,0.02269
2789.47305,0.02238
2787.41287,0.02202
2785.35270,0.02179
2783.29253,0.02173
2781.23236,0.02175
2779.17219,0.02166
2777.11201,0.02150
2775.05184,0.02134
2772.99167,0.02115
2770.93150,0.02097
2768.87133,0.02077
2766.81115,0.02068
2764.75098,0.02073
2762.69081,0.02079
2760.63064,0.02082
2758.57046,0.02070
2756.51029,0.02045
2754.45012,0.02024
2752.38995,0.02017
2750.32978,0.02017
2748.26960,0.02009
2746.20943,0.01989
2744.14926,0.01975
2742.08909,0.01973
2740.02892,0.01975
2737.96874,0.01981
2735.90857,0.01979
2733.84840,0.01959
2731.78823,0.01953
2729.72805,0.01968
2727.66788,0.01972
2725.60771,0.01963
2723.54754,0.01959
2721.48737,0.01958
2719.42719,0.01954
2717.36702,0.01936
2715.30685,0.01901
2713.24668,0.01867
2711.18651,0.01863
2709.12633,0.01880
2707.06616,0.01873
2705.00599,0.01855
2702.94582,0.01858
2700.88565,0.01862
2698.82547,0.01839
2696.76530,0.01808
2694.70513,0.01797
2692.64496,0.01802
2690.58478,0.01811
2688.52461,0.01807
2686.46444,0.01789
2684.40427,0.01784
2682.34410,0.01795
2680.28392,0.01796
2678.22375,0.01787
2676.16358,0.01780
2674.10341,0.01767
2672.04324,0.01750
2669.98306,0.01742
2667.92289,0.01745
2665.86272,0.01756
2663.80255,0.01760
2661.74238,0.01741
2659.68220,0.01710
2657.62203,0.01697
2655.56186,0.01699
2653.50169,0.01682
2651.44151,0.01651
2649.38134,0.01637
2647.32117,0.01643
2645.26100,0.01649
2643.20083,0.01642
2641.14065,0.01634
2639.08048,0.01645
2637.02031,0.01651
2634.96014,0.01616
2632.89997,0.01567
2630.83979,0.01550
2628.77962,0.01561
2626.71945,0.01563
2624.65928,0.01545
2622.59910,0.01524
2620.53893,0.01511
2618.47876,0.01502
2616.41859,0.01497
2614.35842,0.01507
2612.29824,0.01506
2610.23807,0.01472
2608.17790,0.01447
2606.11773,0.01449
2604.05756,0.01447
2601.99738,0.01440
2599.93721,0.01425
2597.87704,0.01395
2595.81687,0.01382
2593.75670,0.01389
2591.69652,0.01362
2589.63635,0.01342
2587.57618,0.01379
2585.51601,0.01409
2583.45583,0.01411
2581.39566,0.01410
2579.33549,0.01391
2577.27532,0.01344
2575.21515,0.01303
2573.15497,0.01305
2571.09480,0.01327
2569.03463,0.01336
2566.97446,0.01328
2564.91429,0.01305
2562.85411,0.01280
2560.79394,0.01258
2558.73377,0.01258
2556.67360,0.01282
2554.61342,0.01296
2552.55325,0.01288
2550.49308,0.01275
2548.43291,0.01251
2546.37274,0.01206
2544.31256,0.01182
2542.25239,0.01188
2540.19222,0.01192
2538.13205,0.01202
2536.07188,0.01220
2534.01170,0.01227
2531.95153,0.01218
2529.89136,0.01186
2527.83119,0.01149
2525.77102,0.01124
2523.71084,0.01122
2521.65067,0.01145
2519.59050,0.01153
2517.53033,0.01121
2515.47015,0.01104
2513.40998,0.01123
2511.34981,0.01126
2509.28964,0.01103
2507.22947,0.01070
2505.16929,0.01044
2503.10912,0.01055
2501.04895,0.01094
2498.98878,0.01130
2496.92861,0.01132
2494.86843,0.01106
2492.80826,0.01092
2490.74809,0.01080
2488.68792,0.01041
2486.62775,0.00999
2484.56757,0.00986
2482.50740,0.01005
2480.44723,0.01032
2478.38706,0.01048
2476.32688,0.01047
2474.26671,0.01011
2472.20654,0.00970
2470.14637,0.00960
2468.08620,0.00965
2466.02602,0.00957
2463.96585,0.00937
2461.90568,0.00947
2459.84551,0.00987
2457.78534,0.01015
2455.72516,0.01014
2453.66499,0.01002
2451.60482,0.01001
2449.54465,0.00998
2447.48447,0.00984
2445.42430,0.00963
2443.36413,0.00929
2441.30396,0.00906
2439.24379,0.00916
2437.18361,0.00937
2435.12344,0.00936
2433.06327,0.00914
2431.00310,0.00902
2428.94293,0.00901
2426.88275,0.00895
2424.82258,0.00893
2422.76241,0.00913
2420.70224,0.00916
2418.64207,0.00867
2416.58189,0.00824
2414.52172,0.00829
2412.46155,0.00835
2410.40138,0.00825
2408.34120,0.00829
2406.28103,0.00844
2404.22086,0.00850
2402.16069,0.00839
2400.10052,0.00824
2398.04034,0.00798
2395.98017,0.00768
2393.92000,0.00754
2391.85983,0.00775
2389.79966,0.00813
2387.73948,0.00841
2385.67931,0.00848
2383.61914,0.00852
2381.55897,0.00864
2379.49880,0.00871
2377.43862,0.00852
2375.37845,0.00789
2373.31828,0.00711
2371.25811,0.00705
2369.19793,0.00796
2367.13776,0.00886
2365.07759,0.00889
2363.01742,0.00823
2360.95725,0.00735
2358.89707,0.00661
2356.83690,0.00656
2354.77673,0.00737
2352.71656,0.00806
2350.65639,0.00819
2348.59621,0.00807
2346.53604,0.00753
2344.47587,0.00655
2342.41570,0.00596
2340.35552,0.00587
2338.29535,0.00592
2336.23518,0.00631
2334.17501,0.00686
2332.11484,0.00721
2330.05466,0.00763
2327.99449,0.00797
2325.93432,0.00784
2323.87415,0.00737
2321.81398,0.00709
2319.75380,0.00731
2317.69363,0.00759
2315.63346,0.00749
2313.57329,0.00745
2311.51312,0.00782
2309.45294,0.00816
2307.39277,0.00804
2305.33260,0.00754
2303.27243,0.00717
2301.21225,0.00735
2299.15208,0.00759
2297.09191,0.00741
2295.03174,0.00717
2292.97157,0.00726
2290.91139,0.00746
2288.85122,0.00751
2286.79105,0.00741
2284.73088,0.00731
2282.67071,0.00723
2280.61053,0.00697
2278.55036,0.00660
2276.49019,0.00663
2274.43002,0.00701
2272.36984,0.00710
2270.30967,0.00665
2268.24950,0.00616
2266.18933,0.00614
2264.12916,0.00609
2262.06898,0.00556
2260.00881,0.00517
2257.94864,0.00535
2255.88847,0.00551
2253.82830,0.00518
2251.76812,0.00482
2249.70795,0.00475
2247.64778,0.00469
2245.58761,0.00456
2243.52744,0.00473
2241.46726,0.00539
2239.40709,0.00595
2237.34692,0.00583
2235.28675,0.00551
2233.22657,0.00545
2231.16640,0.00501
2229.10623,0.00402
2227.04606,0.00334
2224.98589,0.00376
2222.92571,0.00481
2220.86554,0.00474
2218.80537,0.00366
2216.74520,0.00364
2214.68503,0.00462
2212.62485,0.00502
2210.56468,0.00464
2208.50451,0.00432
2206.44434,0.00422
2204.38417,0.00379
2202.32399,0.00381
2200.26382,0.00461
2198.20365,0.00459
2196.14348,0.00399
2194.08330,0.00426
2192.02313,0.00477
2189.96296,0.00464
2187.90279,0.00454
2185.84262,0.00492
2183.78244,0.00491
2181.72227,0.00435
2179.66210,0.00385
2177.60193,0.00315
2175.54176,0.00251
2173.48158,0.00291
2171.42141,0.00386
2169.36124,0.00389
2167.30107,0.00359
2165.24089,0.00377
2163.18072,0.00373
2161.12055,0.00373
2159.06038,0.00386
2157.00021,0.00324
2154.94003,0.00161
2152.87986,0.00029
2150.81969,0.00137
2148.75952,0.00346
2146.69935,0.00324
2144.63917,0.00168
2142.57900,0.00137
2140.51883,0.00226
2138.45866,0.00306
2136.39849,0.00273
2134.33831,0.00219
2132.27814,0.00272
2130.21797,0.00331
2128.15780,0.00347
2126.09762,0.00400
2124.03745,0.00458
2121.97728,0.00461
2119.91711,0.00428
2117.85694,0.00399
2115.79676,0.00417
2113.73659,0.00463
2111.67642,0.00456
2109.61625,0.00399
2107.55608,0.00360
2105.49590,0.00330
2103.43573,0.00348
2101.37556,0.00433
2099.31539,0.00458
2097.25521,0.00422
2095.19504,0.00441
2093.13487,0.00515
2091.07470,0.00542
2089.01453,0.00481
2086.95435,0.00394
2084.89418,0.00362
2082.83401,0.00396
2080.77384,0.00429
2078.71367,0.00426
2076.65349,0.00426
2074.59332,0.00433
2072.53315,0.00405
2070.47298,0.00328
2068.41281,0.00270
2066.35263,0.00295
2064.29246,0.00345
2062.23229,0.00333
2060.17212,0.00272
2058.11194,0.00248
2056.05177,0.00277
2053.99160,0.00313
2051.93143,0.00324
2049.87126,0.00307
2047.81108,0.00264
2045.75091,0.00200
2043.69074,0.00129
2041.63057,0.00129
2039.57040,0.00255
2037.51022,0.00396
2035.45005,0.00447
2033.38988,0.00444
2031.32971,0.00403
2029.26954,0.00278
2027.20936,0.00097
2025.14919,0.00000
2023.08902,0.00033
2021.02885,0.00121
2018.96867,0.00225
2016.90850,0.00288
2014.84833,0.00266
2012.78816,0.00233
2010.72799,0.00201
2008.66781,0.00173
2006.60764,0.00207
2004.54747,0.00272
2002.48730,0.00316
2000.42713,0.00304
1998.36695,0.00235
1996.30678,0.00183
1994.24661,0.00155
1992.18644,0.00141
1990.12626,0.00203
1988.06609,0.00283
1986.00592,0.00262
1983.94575,0.00213
1981.88558,0.00301
1979.82540,0.00459
1977.76523,0.00511
1975.70506,0.00393
1973.64489,0.00184
1971.58472,0.00071
1969.52454,0.00105
1967.46437,0.00195
1965.40420,0.00219
1963.34403,0.00167
1961.28386,0.00157
1959.22368,0.00201
1957.16351,0.00234
1955.10334,0.00251
1953.04317,0.00276
1950.98299,0.00288
1948.92282,0.00238
1946.86265,0.00166
1944.80248,0.00188
1942.74231,0.00273
1940.68213,0.00275
1938.62196,0.00202
1936.56179,0.00124
1934.50162,0.00077
1932.44145,0.00087
1930.38127,0.00142
1928.32110,0.00195
1926.26093,0.00210
1924.20076,0.00178
1922.14059,0.00130
1920.08041,0.00115
1918.02024,0.00112
1915.96007,0.00081
1913.89990,0.00061
1911.83972,0.00086
1909.77955,0.00149
1907.71938,0.00219
1905.65921,0.00234
1903.59904,0.00193
1901.53886,0.00165
1899.47869,0.00172
1897.41852,0.00174
1895.35835,0.00140
1893.29818,0.00094
1891.23800,0.00083
1889.17783,0.00122
1887.11766,0.00164
1885.05749,0.00156
1882.99731,0.00112
1880.93714,0.00083
1878.87697,0.00090
1876.81680,0.00108
1874.75663,0.00117
1872.69645,0.00127
1870.63628,0.00137
1868.57611,0.00133
1866.51594,0.00122
1864.45577,0.00115
1862.39559,0.00100
1860.33542,0.00066
1858.27525,0.00051
1856.21508,0.00078
1854.15491,0.00114
1852.09473,0.00120
1850.03456,0.00102
1847.97439,0.00079
1845.91422,0.00047
1843.85404,0.00014
1841.79387,0.00009
1839.73370,0.00016
1837.67353,0.00015
1835.61336,0.00019
1833.55318,0.00035
1831.49301,0.00047
1829.43284,0.00039
1827.37267,0.00014
1825.31250,0.00000
1823.25232,0.00022
1821.19215,0.00060
1819.13198,0.00066
1817.07181,0.00037
1815.01163,0.00015
1812.95146,0.00019
1810.89129,0.00017
1808.83112,-0.00004
1806.77095,-0.00014
1804.71077,-0.00009
1802.65060,-0.00004
1800.59043,-0.00009
1798.53026,-0.00025
1796.47009,-0.00041
1794.40991,-0.00045
1792.34974,-0.00035
1790.28957,-0.00012
1788.22940,0.00014
1786.16923,0.00026
1784.10905,0.00017
1782.04888,0.00000
1779.98871,-0.00011
1777.92854,-0.00006
1775.86836,-0.00002
1773.80819,0.00002
1771.74802,0.00010
1769.68785,0.00030
1767.62768,0.00069
1765.56750,0.00113
1763.50733,0.00155
1761.44716,0.00206
1759.38699,0.00274
1757.32682,0.00368
1755.26664,0.00485
1753.20647,0.00611
1751.14630,0.00768
1749.08613,0.00980
1747.02596,0.01212
1744.96578,0.01450
1742.90561,0.01730
1740.84544,0.02069
1738.78527,0.02422
1736.72509,0.02724
1734.66492,0.02998
1732.60475,0.03242
1730.54458,0.03369
1728.48441,0.03402
1726.42423,0.03393
1724.36406,0.03358
1722.30389,0.03321
1720.24372,0.03305
1718.18355,0.03279
1716.12337,0.03233
1714.06320,0.03202
1712.00303,0.03179
1709.94286,0.03142
1707.88268,0.03094
1705.82251,0.03031
1703.76234,0.02958
1701.70217,0.02881
1699.64200,0.02793
1697.58182,0.02726
1695.52165,0.02690
1693.46148,0.02662
1691.40131,0.02638
1689.34114,0.02632
1687.28096,0.02643
1685.22079,0.02612
1683.16062,0.02527
1681.10045,0.02501
1679.04028,0.02534
1676.98010,0.02567
1674.91993,0.02595
1672.85976,0.02629
1670.79959,0.02661
1668.73941,0.02718
1666.67924,0.02820
1664.61907,0.02936
1662.55890,0.03060
1660.49873,0.03209
1658.43855,0.03372
1656.37838,0.03518
1654.31821,0.03604
1652.25804,0.03610
1650.19787,0.03617
1648.13769,0.03640
1646.07752,0.03658
1644.01735,0.03694
1641.95718,0.03742
1639.89701,0.03784
1637.83683,0.03835
1635.77666,0.03905
1633.71649,0.03956
1631.65632,0.03978
1629.59614,0.04006
1627.53597,0.04053
1625.47580,0.04101
1623.41563,0.04144
1621.35546,0.04196
1619.29528,0.04256
1617.23511,0.04308
1615.17494,0.04361
1613.11477,0.04430
1611.05460,0.04494
1608.99442,0.04533
1606.93425,0.04549
1604.87408,0.04543
1602.81391,0.04503
1600.75373,0.04434
1598.69356,0.04344
1596.63339,0.04231
1594.57322,0.04098
1592.51305,0.03962
1590.45287,0.03821
1588.39270,0.03662
1586.33253,0.03496
1584.27236,0.03343
1582.21219,0.03204
1580.15201,0.03077
1578.09184,0.02935
1576.03167,0.02758
1573.97150,0.02609
1571.91133,0.02511
1569.85115,0.02403
1567.79098,0.02296
1565.73081,0.02230
1563.67064,0.02202
1561.61046,0.02206
1559.55029,0.02182
1557.49012,0.02090
1555.42995,0.02047
1553.36978,0.02073
1551.30960,0.02113
1549.24943,0.02138
1547.18926,0.02153
1545.12909,0.02163
1543.06892,0.02150
1541.00874,0.02116
1538.94857,0.02104
1536.88840,0.02124
1534.82823,0.02120
1532.76805,0.02076
1530.70788,0.02038
1528.64771,0.01994
1526.58754,0.01900
1524.52737,0.01793
1522.46719,0.01724
1520.40702,0.01705
1518.34685,0.01738
1516.28668,0.01794
1514.22651,0.01842
1512.16633,0.01873
1510.10616,0.01859
1508.04599,0.01716
1505.98582,0.01466
1503.92565,0.01327
1501.86547,0.01277
1499.80530,0.01205
1497.74513,0.01085
1495.68496,0.00953
1493.62478,0.00850
1491.56461,0.00751
1489.50444,0.00612
1487.44427,0.00480
1485.38410,0.00427
1483.32392,0.00432
1481.26375,0.00459
1479.20358,0.00509
1477.14341,0.00598
1475.08324,0.00734
1473.02306,0.00948
1470.96289,0.01226
1468.90272,0.01486
1466.84255,0.01698
1464.78238,0.01868
1462.72220,0.01991
1460.66203,0.02092
1458.60186,0.02213
1456.54169,0.02355
1454.48151,0.02475
1452.42134,0.02571
1450.36117,0.02662
1448.30100,0.02759
1446.24083,0.02847
1444.18065,0.02905
1442.12048,0.02927
1440.06031,0.02913
1438.00014,0.02841
1435.93997,0.02709
1433.87979,0.02576
1431.81962,0.02460
1429.75945,0.02338
1427.69928,0.02232
1425.63910,0.02167
1423.57893,0.02132
1421.51876,0.02115
1419.45859,0.02103
1417.39842,0.02091
1415.33824,0.02080
1413.27807,0.02056
1411.21790,0.02015
1409.15773,0.01972
1407.09756,0.01933
1405.03738,0.01902
1402.97721,0.01897
1400.91704,0.01916
1398.85687,0.01932
1396.79670,0.01937
1394.73652,0.01949
1392.67635,0.01985
1390.61618,0.02041
1388.55601,0.02100
1386.49583,0.02171
1384.43566,0.02267
1382.37549,0.02377
1380.31532,0.02482
1378.25515,0.02569
1376.19497,0.02644
1374.13480,0.02720
1372.07463,0.02799
1370.01446,0.02870
1367.95429,0.02917
1365.89411,0.02937
1363.83394,0.02930
1361.77377,0.02908
1359.71360,0.02908
1357.65343,0.02936
1355.59325,0.02969
1353.53308,0.02994
1351.47291,0.03013
1349.41274,0.03028
1347.35256,0.03047
1345.29239,0.03075
1343.23222,0.03108
1341.17205,0.03143
1339.11188,0.03188
1337.05170,0.03248
1334.99153,0.03315
1332.93136,0.03379
1330.87119,0.03437
1328.81102,0.03500
1326.75084,0.03573
1324.69067,0.03648
1322.63050,0.03723
1320.57033,0.03791
1318.51015,0.03842
1316.44998,0.03865
1314.38981,0.03856
1312.32964,0.03812
1310.26947,0.03740
1308.20929,0.03648
1306.14912,0.03533
1304.08895,0.03383
1302.02878,0.03207
1299.96861,0.03022
1297.90843,0.02833
1295.84826,0.02653
1293.78809,0.02507
1291.72792,0.02397
1289.66775,0.02305
1287.60757,0.02225
1285.54740,0.02164
1283.48723,0.02128
1281.42706,0.02111
1279.36688,0.02103
1277.30671,0.02114
1275.24654,0.02150
1273.18637,0.02198
1271.12620,0.02233
1269.06602,0.02265
1267.00585,0.02321
1264.94568,0.02395
1262.88551,0.02465
1260.82534,0.02519
1258.76516,0.02568
1256.70499,0.02624
1254.64482,0.02678
1252.58465,0.02734
1250.52447,0.02799
1248.46430,0.02878
1246.40413,0.02965
1244.34396,0.03051
1242.28379,0.03117
1240.22361,0.03164
1238.16344,0.03225
1236.10327,0.03308
1234.04310,0.03389
1231.98293,0.03456
1229.92275,0.03526
1227.86258,0.03598
1225.80241,0.03655
1223.74224,0.03709
1221.68207,0.03768
1219.62189,0.03815
1217.56172,0.03862
1215.50155,0.03917
1213.44138,0.03969
1211.38120,0.04014
1209.32103,0.04069
1207.26086,0.04151
1205.20069,0.04220
1203.14052,0.04251
1201.08034,0.04280
1199.02017,0.04320
1196.96000,0.04335
1194.89983,0.04314
1192.83966,0.04295
1190.77948,0.04274
1188.71931,0.04217
1186.65914,0.04131
1184.59897,0.04055
1182.53880,0.04004
1180.47862,0.03972
1178.41845,0.03951
1176.35828,0.03934
1174.29811,0.03935
1172.23793,0.03961
1170.17776,0.04000
1168.11759,0.04031
1166.05742,0.04051
1163.99725,0.04056
1161.93707,0.04018
1159.87690,0.03933
1157.81673,0.03837
1155.75656,0.03736
1153.69639,0.03618
1151.63621,0.03505
1149.57604,0.03412
1147.51587,0.03320
1145.45570,0.03230
1143.39552,0.03140
1141.33535,0.03035
1139.27518,0.02924
1137.21501,0.02840
1135.15484,0.02781
1133.09466,0.02741
1131.03449,0.02745
1128.97432,0.02802
1126.91415,0.02891
1124.85398,0.02983
1122.79380,0.03100
1120.73363,0.03256
1118.67346,0.03422
1116.61329,0.03613
1114.55312,0.03862
1112.49294,0.04130
1110.43277,0.04363
1108.37260,0.04581
1106.31243,0.04825
1104.25225,0.05056
1102.19208,0.05228
1100.13191,0.05345
1098.07174,0.05430
1096.01157,0.05515
1093.95139,0.05617
1091.89122,0.05725
1089.83105,0.05835
1087.77088,0.05968
1085.71071,0.06135
1083.65053,0.06305
1081.59036,0.06471
1079.53019,0.06656
1077.47002,0.06853
1075.40985,0.07028
1073.34967,0.07164
1071.28950,0.07261
1069.22933,0.07343
1067.16916,0.07445
1065.10898,0.07563
1063.04881,0.07688
1060.98864,0.07816
1058.92847,0.07947
1056.86830,0.08075
1054.80812,0.08189
1052.74795,0.08304
1050.68778,0.08440
1048.62761,0.08582
1046.56744,0.08727
1044.50726,0.08896
1042.44709,0.09075
1040.38692,0.09246
1038.32675,0.09428
1036.26657,0.09632
1034.20640,0.09817
1032.14623,0.09950
1030.08606,0.10055
1028.02589,0.10167
1025.96571,0.10278
1023.90554,0.10348
1021.84537,0.10370
1019.78520,0.10357
1017.72503,0.10309
1015.66485,0.10238
1013.60468,0.10154
1011.54451,0.10042
1009.48434,0.09898
1007.42417,0.09725
1005.36399,0.09511
1003.30382,0.09272
1001.24365,0.09036
999.18348,0.08806
997.12330,0.08577
995.06313,0.08346
993.00296,0.08135
990.94279,0.07937
988.88262,0.07720
986.82244,0.07486
984.76227,0.07225
982.70210,0.06920
980.64193,0.06617
978.58176,0.06351
976.52158,0.06091
974.46141,0.05823
972.40124,0.05579
970.34107,0.05352
968.28089,0.05129
966.22072,0.04957
964.16055,0.04842
962.10038,0.04711
960.04021,0.04526
957.98003,0.04311
955.91986,0.04086
953.85969,0.03871
951.79952,0.03667
949.73935,0.03457
947.67917,0.03253
945.61900,0.03056
943.55883,0.02853
941.49866,0.02662
939.43849,0.02504
937.37831,0.02398
935.31814,0.02344
933.25797,0.02289
931.19780,0.02208
929.13762,0.02131
927.07745,0.02080
925.01728,0.02028
922.95711,0.01940
920.89694,0.01827
918.83676,0.01709
916.77659,0.01576
914.71642,0.01445
912.65625,0.01326
910.59608,0.01212
908.53590,0.01115
906.47573,0.01041
904.41556,0.00978
902.35539,0.00927
900.29522,0.00908
898.23504,0.00924
896.17487,0.00956
894.11470,0.00957
892.05453,0.00925
889.99435,0.00890
887.93418,0.00825
885.87401,0.00739
883.81384,0.00700
881.75367,0.00716
879.69349,0.00744
877.63332,0.00764
875.57315,0.00787
873.51298,0.00819
871.45281,0.00830
869.39263,0.00821
867.33246,0.00813
865.27229,0.00764
863.21212,0.00648
861.15194,0.00505
859.09177,0.00369
857.03160,0.00240
854.97143,0.00119
852.91126,0.00039
850.85108,0.00000
848.79091,-0.00011
846.73074,0.00022
844.67057,0.00063
842.61040,0.00056
840.55022,0.00019
838.49005,0.00014
836.42988,0.00074
834.36971,0.00156
832.30954,0.00213
830.24936,0.00240
828.18919,0.00249
826.12902,0.00249
824.06885,0.00229
822.00867,0.00208
819.94850,0.00214
817.88833,0.00219
815.82816,0.00198
813.76799,0.00194
811.70781,0.00214
809.64764,0.00204
807.58747,0.00166
805.52730,0.00162
803.46713,0.00179
801.40695,0.00153
799.34678,0.00072
797.28661,0.00000
795.22644,-0.00045
793.16627,-0.00047
791.10609,-0.00035
789.04592,0.00007
786.98575,0.00092
784.92558,0.00205
782.86540,0.00299
780.80523,0.00339
778.74506,0.00321
776.68489,0.00288
774.62472,0.00291
772.56454,0.00297
770.50437,0.00296
768.44420,0.00370
766.38403,0.00549
764.32386,0.00722
762.26368,0.00840
760.20351,0.00991
758.14334,0.01147
756.08317,0.01187
754.02299,0.01124
751.96282,0.01028
749.90265,0.00899
747.84248,0.00733
745.78231,0.00586
743.72213,0.00526
741.66196,0.00521
739.60179,0.00479
737.54162,0.00415
735.48145,0.00393
733.42127,0.00412
731.36110,0.00421
729.30093,0.00452
727.24076,0.00551
725.18059,0.00616
723.12041,0.00620
721.06024,0.00594
719.00007,0.00543
716.93990,0.00473
714.87972,0.00431
712.81955,0.00375
710.75938,0.00251
708.69921,0.00183
706.63904,0.00259
704.57886,0.00335
702.51869,0.00313
700.45852,0.00306
698.39835,0.00349
696.33818,0.00308
694.27800,0.00148
692.21783,0.00000
690.15766,-0.00016
688.09749,0.00092
686.03731,0.00190
683.97714,0.00236
681.91697,0.00261
679.85680,0.00240
677.79663,0.00210
675.73645,0.00238
673.67628,0.00231
671.61611,0.00112
669.55594,-0.00002
667.49577,0.00021
665.43559,0.00114
663.37542,0.00174
661.31525,0.00160
659.25508,0.00081
657.19491,0.00011
655.13473,0.00018
653.07456,0.00066
651.01439,0.00065
648.95422,0.00000
646.89404,-0.00086
644.83387,-0.00127
642.77370,-0.00139
640.71353,-0.00103
638.65336,-0.00016
636.59318,0.00023
634.53301,-0.00014
632.47284,-0.00066
630.41267,-0.00162
628.35250,-0.00280
626.29232,-0.00267
624.23215,-0.00151
622.17198,-0.00150
620.11181,-0.00132
618.05164,0.00028
615.99146,0.00271
613.93129,0.00454
611.87112,0.00246
609.81095,-0.00153
607.75077,-0.00221
605.69060,-0.00076
603.63043,-0.00096
601.57026,-0.00152
599.51009,0.00000
