3996.73391,0.00001
3994.67373,0.00016
3992.61356,0.00010
3990.55339,0.00011
3988.49322,0.00023
3986.43305,0.00022
3984.37287,0.00007
3982.31270,0.00000
3980.25253,0.00016
3978.19236,0.00035
3976.13219,0.00041
3974.07201,0.00049
3972.01184,0.00058
3969.95167,0.00055
3967.89150,0.00052
3965.83133,0.00057
3963.77115,0.00052
3961.71098,0.00036
3959.65081,0.00031
3957.59064,0.00040
3955.53046,0.00040
3953.47029,0.00036
3951.41012,0.00042
3949.34995,0.00053
3947.28978,0.00064
3945.22960,0.00055
3943.16943,0.00020
3941.10926,0.00007
3939.04909,0.00034
3936.98892,0.00058
3934.92874,0.00039
3932.86857,-0.00004
3930.80840,-0.00011
3928.74823,0.00033
3926.68805,0.00078
3924.62788,0.00087
3922.56771,0.00073
3920.50754,0.00050
3918.44737,0.00027
3916.38719,0.00031
3914.32702,0.00068
3912.26685,0.00097
3910.20668,0.00090
3908.14651,0.00054
3906.08633,0.00028
3904.02616,0.00030
3901.96599,0.00032
3899.90582,0.00016
3897.84565,0.00014
3895.78547,0.00028
3893.72530,0.00048
3891.66513,0.00083
3889.60496,0.00112
3887.54478,0.00094
3885.48461,0.00034
3883.42444,0.00000
3881.36427,0.00024
3879.30410,0.00068
3877.24392,0.00104
3875.18375,0.00133
3873.12358,0.00139
3871.06341,0.00120
3869.00324,0.00111
3866.94306,0.00124
3864.88289,0.00146
3862.82272,0.00164
3860.76255,0.00163
3858.70237,0.00145
3856.64220,0.00120
3854.58203,0.00097
3852.52186,0.00080
3850.46169,0.00072
3848.40151,0.00074
3846.34134,0.00080
3844.28117,0.00076
3842.22100,0.00066
3840.16083,0.00080
3838.10065,0.00105
3836.04048,0.00107
3833.98031,0.00083
3831.92014,0.00053
3829.85997,0.00057
3827.79979,0.00090
3825.73962,0.00096
3823.67945,0.00074
3821.61928,0.00064
3819.55910,0.00072
3817.49893,0.00092
3815.43876,0.00106
3813.37859,0.00088
3811.31842,0.00056
3809.25824,0.00064
3807.19807,0.00125
3805.13790,0.00166
3803.07773,0.00156
3801.01756,0.00147
3798.95738,0.00139
3796.89721,0.00121
3794.83704,0.00118
3792.77687,0.00126
3790.71670,0.00128
3788.65652,0.00127
3786.59635,0.00121
3784.53618,0.00111
3782.47601,0.00106
3780.41583,0.00095
3778.35566,0.00079
3776.29549,0.00077
3774.23532,0.00084
3772.17515,0.00074
3770.11497,0.00057
3768.05480,0.00061
3765.99463,0.00085
3763.93446,0.00103
3761.87429,0.00107
3759.81411,0.00109
3757.75394,0.00108
3755.69377,0.00097
3753.63360,0.00090
3751.57342,0.00100
3749.51325,0.00117
3747.45308,0.00111
3745.39291,0.00085
3743.33274,0.00068
3741.27256,0.00062
3739.21239,0.00062
3737.15222,0.00078
3735.09205,0.00113
3733.03188,0.00143
3730.97170,0.00146
3728.91153,0.00111
3726.85136,0.00061
3724.79119,0.00031
3722.73102,0.00023
3720.67084,0.00036
3718.61067,0.00057
3716.55050,0.00067
3714.49033,0.00075
3712.43015,0.00111
3710.36998,0.00156
3708.30981,0.00156
3706.24964,0.00137
3704.18947,0.00113
3702.12929,0.00087
3700.06912,0.00087
3698.00895,0.00102
3695.94878,0.00108
3693.88861,0.00111
3691.82843,0.00121
3689.76826,0.00098
3687.70809,0.00031
3685.64792,0.00000
3683.58775,0.00035
3681.52757,0.00096
3679.46740,0.00152
3677.40723,0.00177
3675.34706,0.00159
3673.28688,0.00146
3671.22671,0.00164
3669.16654,0.00178
3667.10637,0.00177
3665.04620,0.00163
3662.98602,0.00133
3660.92585,0.00116
3658.86568,0.00147
3656.80551,0.00206
3654.74534,0.00235
3652.68516,0.00216
3650.62499,0.00149
3648.56482,0.00075
3646.50465,0.00092
3644.44447,0.00158
3642.38430,0.00212
3640.32413,0.00250
3638.26396,0.00275
3636.20379,0.00290
3634.14361,0.00284
3632.08344,0.00258
3630.02327,0.00253
3627.96310,0.00312
3625.90293,0.00395
3623.84275,0.00443
3621.78258,0.00421
3619.72241,0.00364
3617.66224,0.00363
3615.60207,0.00408
3613.54189,0.00421
3611.48172,0.00405
3609.42155,0.00425
3607.36138,0.00495
3605.30120,0.00560
3603.24103,0.00575
3601.18086,0.00555
3599.12069,0.00540
3597.06052,0.00544
3595.00034,0.00576
3592.94017,0.00628
3590.88000,0.00684
3588.81983,0.00725
3586.75966,0.00745
3584.69948,0.00743
3582.63931,0.00736
3580.57914,0.00741
3578.51897,0.00762
3576.45879,0.00787
3574.39862,0.00803
3572.33845,0.00830
3570.27828,0.00885
3568.21811,0.00935
3566.15793,0.00949
3564.09776,0.00971
3562.03759,0.01024
3559.97742,0.01047
3557.91725,0.01023
3555.85707,0.01024
3553.79690,0.01087
3551.73673,0.01174
3549.67656,0.01237
3547.61639,0.01255
3545.55621,0.01227
3543.49604,0.01204
3541.43587,0.01239
3539.37570,0.01307
3537.31552,0.01353
3535.25535,0.01372
3533.19518,0.01406
3531.13501,0.01462
3529.07484,0.01501
3527.01466,0.01501
3524.95449,0.01497
3522.89432,0.01535
3520.83415,0.01604
3518.77398,0.01654
3516.71380,0.01673
3514.65363,0.01677
3512.59346,0.01682
3510.53329,0.01707
3508.47312,0.01762
3506.41294,0.01821
3504.35277,0.01853
3502.29260,0.01850
3500.23243,0.01825
3498.17225,0.01820
3496.11208,0.01862
3494.05191,0.01923
3491.99174,0.01944
3489.93157,0.01915
3487.87139,0.01898
3485.81122,0.01943
3483.75105,0.02016
3481.69088,0.02065
3479.63071,0.02096
3477.57053,0.02127
3475.51036,0.02150
3473.45019,0.02167
3471.39002,0.02176
3469.32984,0.02178
3467.26967,0.02200
3465.20950,0.02234
3463.14933,0.02259
3461.08916,0.02282
3459.02898,0.02327
3456.96881,0.02405
3454.90864,0.02477
3452.84847,0.02496
3450.78830,0.02488
3448.72812,0.02495
3446.66795,0.02518
3444.60778,0.02528
3442.54761,0.02509
3440.48744,0.02516
3438.42726,0.02583
3436.36709,0.02648
3434.30692,0.02679
3432.24675,0.02705
3430.18657,0.02736
3428.12640,0.02760
3426.06623,0.02777
3424.00606,0.02805
3421.94589,0.02847
3419.88571,0.02878
3417.82554,0.02888
3415.76537,0.02892
3413.70520,0.02903
3411.64503,0.02920
3409.58485,0.02937
3407.52468,0.02951
3405.46451,0.02960
3403.40434,0.02962
3401.34416,0.02961
3399.28399,0.02977
3397.22382,0.03016
3395.16365,0.03052
3393.10348,0.03085
3391.04330,0.03119
3388.98313,0.03145
3386.92296,0.03161
3384.86279,0.03160
3382.80262,0.03150
3380.74244,0.03153
3378.68227,0.03172
3376.62210,0.03188
3374.56193,0.03195
3372.50176,0.03216
3370.44158,0.03251
3368.38141,0.03258
3366.32124,0.03248
3364.26107,0.03263
3362.20089,0.03300
3360.14072,0.03319
3358.08055,0.03305
3356.02038,0.03286
3353.96021,0.03297
3351.90003,0.03339
3349.83986,0.03378
3347.77969,0.03400
3345.71952,0.03419
3343.65935,0.03440
3341.59917,0.03458
3339.53900,0.03472
3337.47883,0.03469
3335.41866,0.03443
3333.35849,0.03436
3331.29831,0.03468
3329.23814,0.03499
3327.17797,0.03510
3325.11780,0.03518
3323.05762,0.03520
3320.99745,0.03512
3318.93728,0.03508
3316.87711,0.03522
3314.81694,0.03534
3312.75676,0.03538
3310.69659,0.03547
3308.63642,0.03546
3306.57625,0.03539
3304.51608,0.03545
3302.45590,0.03551
3300.39573,0.03563
3298.33556,0.03598
3296.27539,0.03611
3294.21521,0.03599
3292.15504,0.03600
3290.09487,0.03604
3288.03470,0.03597
3285.97453,0.03592
3283.91435,0.03593
3281.85418,0.03610
3279.79401,0.03635
3277.73384,0.03627
3275.67367,0.03590
3273.61349,0.03563
3271.55332,0.03562
3269.49315,0.03565
3267.43298,0.03553
3265.37281,0.03542
3263.31263,0.03538
3261.25246,0.03536
3259.19229,0.03552
3257.13212,0.03568
3255.07194,0.03541
3253.01177,0.03507
3250.95160,0.03499
3248.89143,0.03507
3246.83126,0.03527
3244.77108,0.03514
3242.71091,0.03450
3240.65074,0.03405
3238.59057,0.03414
3236.53040,0.03429
3234.47022,0.03413
3232.41005,0.03374
3230.34988,0.03329
3228.28971,0.03302
3226.22954,0.03316
3224.16936,0.03361
3222.10919,0.03385
3220.04902,0.03355
3217.98885,0.03316
3215.92867,0.03313
3213.86850,0.03323
3211.80833,0.03317
3209.74816,0.03303
3207.68799,0.03295
3205.62781,0.03296
3203.56764,0.03281
3201.50747,0.03236
3199.44730,0.03196
3197.38713,0.03183
3195.32695,0.03180
3193.26678,0.03174
3191.20661,0.03162
3189.14644,0.03152
3187.08626,0.03150
3185.02609,0.03143
3182.96592,0.03126
3180.90575,0.03117
3178.84558,0.03109
3176.78540,0.03100
3174.72523,0.03099
3172.66506,0.03083
3170.60489,0.03049
3168.54472,0.03032
3166.48454,0.03016
3164.42437,0.02976
3162.36420,0.02938
3160.30403,0.02931
3158.24386,0.02950
3156.18368,0.02972
3154.12351,0.02968
3152.06334,0.02938
3150.00317,0.02915
3147.94299,0.02913
3145.88282,0.02899
3143.82265,0.02859
3141.76248,0.02830
3139.70231,0.02821
3137.64213,0.02801
3135.58196,0.02770
3133.52179,0.02757
3131.46162,0.02766
3129.40145,0.02771
3127.34127,0.02751
3125.28110,0.02717
3123.22093,0.02691
3121.16076,0.02681
3119.10058,0.02688
3117.04041,0.02699
3114.98024,0.02692
3112.92007,0.02660
3110.85990,0.02631
3108.79972,0.02627
3106.73955,0.02626
3104.67938,0.02604
3102.61921,0.02575
3100.55904,0.02559
3098.49886,0.02547
3096.43869,0.02524
3094.37852,0.02503
3092.31835,0.02491
3090.25818,0.02487
3088.19800,0.02493
3086.13783,0.02503
3084.07766,0.02497
3082.01749,0.02464
3079.95731,0.02424
3077.89714,0.02404
3075.83697,0.02402
3073.77680,0.02394
3071.71663,0.02381
3069.65645,0.02370
3067.59628,0.02354
3065.53611,0.02340
3063.47594,0.02326
3061.41577,0.02311
3059.35559,0.02316
3057.29542,0.02325
3055.23525,0.02306
3053.17508,0.02268
3051.11491,0.02239
3049.05473,0.02221
3046.99456,0.02197
3044.93439,0.02175
3042.87422,0.02167
3040.81404,0.02168
3038.75387,0.02169
3036.69370,0.02167
3034.63353,0.02158
3032.57336,0.02145
3030.51318,0.02130
3028.45301,0.02112
3026.39284,0.02105
3024.33267,0.02094
3022.27250,0.02067
3020.21232,0.02048
3018.15215,0.02040
3016.09198,0.02030
3014.03181,0.02025
3011.97163,0.02017
3009.91146,0.01996
3007.85129,0.01978
3005.79112,0.01977
3003.73095,0.01973
3001.67077,0.01950
2999.61060,0.01920
2997.55043,0.01912
2995.49026,0.01931
2993.43009,0.01952
2991.36991,0.01959
2989.30974,0.01952
2987.24957,0.01943
2985.18940,0.01944
2983.12923,0.01959
2981.06905,0.01993
2979.00888,0.02045
2976.94871,0.02083
2974.88854,0.02102
2972.82836,0.02131
2970.76819,0.02172
2968.70802,0.02214
2966.64785,0.02263
2964.58768,0.02344
2962.52750,0.02452
2960.46733,0.02541
2958.40716,0.02608
2956.34699,0.02692
2954.28682,0.02784
2952.22664,0.02857
2950.16647,0.02923
2948.10630,0.03003
2946.04613,0.03103
2943.98596,0.03225
2941.92578,0.03371
2939.86561,0.03542
2937.80544,0.03734
2935.74527,0.03911
2933.68509,0.04064
2931.62492,0.04227
2929.56475,0.04415
2927.50458,0.04594
2925.44441,0.04734
2923.38423,0.04842
2921.32406,0.04932
2919.26389,0.05002
2917.20372,0.05005
2915.14355,0.04877
2913.08337,0.04635
2911.02320,0.04373
2908.96303,0.04151
2906.90286,0.03977
2904.84268,0.03843
2902.78251,0.03738
2900.72234,0.03647
2898.66217,0.03552
2896.60200,0.03463
2894.54182,0.03383
2892.48165,0.03301
2890.42148,0.03216
2888.36131,0.03127
2886.30114,0.03040
2884.24096,0.02958
2882.18079,0.02889
2880.12062,0.02847
2878.06045,0.02838
2876.00028,0.02858
2873.94010,0.02873
2871.87993,0.02870
2869.81976,0.02880
2867.75959,0.02920
2865.69941,0.02984
2863.63924,0.03074
2861.57907,0.03205
2859.51890,0.03371
2857.45873,0.03556
2855.39855,0.03729
2853.33838,0.03878
2851.27821,0.03995
2849.21804,0.04006
2847.15787,0.03829
2845.09769,0.03506
2843.03752,0.03172
2840.97735,0.02916
2838.91718,0.02722
2836.85700,0.02555
2834.79683,0.02425
2832.73666,0.02343
2830.67649,0.02287
2828.61632,0.02248
2826.55614,0.02220
2824.49597,0.02180
2822.43580,0.02122
2820.37563,0.02074
2818.31546,0.02043
2816.25528,0.02022
2814.19511,0.02003
2812.13494,0.01975
2810.07477,0.01939
2808.01460,0.01911
2805.95442,0.01889
2803.89425,0.01860
2801.83408,0.01832
2799.77391,0.01821
2797.71373,0.01826
2795.65356,0.01823
2793.59339,0.01809
2791.53322,0.01792
2789.47305,0.01776
2787.41287,0.01769
2785.35270,0.01766
2783.29253,0.01765
2781.23236,0.01756
2779.17219,0.01728
2777.11201,0.01690
2775.05184,0.01660
2772.99167,0.01653
2770.93150,0.01660
2768.87133,0.01655
2766.81115,0.01643
2764.75098,0.01650
2762.69081,0.01653
2760.63064,0.01629
2758.57046,0.01615
2756.51029,0.01627
2754.45012,0.01632
2752.38995,0.01626
2750.32978,0.01629
2748.26960,0.01633
2746.20943,0.01623
2744.14926,0.01604
2742.08909,0.01581
2740.02892,0.01564
2737.96874,0.01561
2735.90857,0.01564
2733.84840,0.01588
2731.78823,0.01612
2729.72805,0.01602
2727.66788,0.01582
2725.60771,0.01579
2723.54754,0.01574
2721.48737,0.01553
2719.42719,0.01532
2717.36702,0.01510
2715.30685,0.01479
2713.24668,0.01470
2711.18651,0.01500
2709.12633,0.01526
2707.06616,0.01518
2705.00599,0.01509
2702.94582,0.01512
2700.88565,0.01500
2698.82547,0.01470
2696.76530,0.01453
2694.70513,0.01462
2692.64496,0.01473
2690.58478,0.01466
2688.52461,0.01443
2686.46444,0.01430
2684.40427,0.01443
2682.34410,0.01460
2680.28392,0.01458
2678.22375,0.01443
2676.16358,0.01423
2674.10341,0.01405
2672.04324,0.01400
2669.98306,0.01406
2667.92289,0.01406
2665.86272,0.01395
2663.80255,0.01392
2661.74238,0.01404
2659.68220,0.01414
2657.62203,0.01415
2655.56186,0.01413
2653.50169,0.01398
2651.44151,0.01364
2649.38134,0.01353
2647.32117,0.01371
2645.26100,0.01364
2643.20083,0.01342
2641.14065,0.01331
2639.08048,0.01319
2637.02031,0.01315
2634.96014,0.01305
2632.89997,0.01273
2630.83979,0.01262
2628.77962,0.01277
2626.71945,0.01285
2624.65928,0.01278
2622.59910,0.01264
2620.53893,0.01268
2618.47876,0.01279
2616.41859,0.01273
2614.35842,0.01264
2612.29824,0.01253
2610.23807,0.01232
2608.17790,0.01219
2606.11773,0.01217
2604.05756,0.01211
2601.99738,0.01205
2599.93721,0.01194
2597.87704,0.01163
2595.81687,0.01134
2593.75670,0.01127
2591.69652,0.01136
2589.63635,0.01138
2587.57618,0.01130
2585.51601,0.01135
2583.45583,0.01125
2581.39566,0.01105
2579.33549,0.01127
2577.27532,0.01165
2575.21515,0.01171
2573.15497,0.01148
2571.09480,0.01116
2569.03463,0.01099
2566.97446,0.01101
2564.91429,0.01104
2562.85411,0.01098
2560.79394,0.01080
2558.73377,0.01063
2556.67360,0.01050
2554.61342,0.01023
2552.55325,0.00996
2550.49308,0.00991
2548.43291,0.01005
2546.37274,0.01018
2544.31256,0.01005
2542.25239,0.00999
2540.19222,0.01015
2538.13205,0.01019
2536.07188,0.01015
2534.01170,0.01004
2531.95153,0.00985
2529.89136,0.01001
2527.83119,0.01025
2525.77102,0.01003
2523.71084,0.00957
2521.65067,0.00934
2519.59050,0.00947
2517.53033,0.00968
2515.47015,0.00960
2513.40998,0.00935
2511.34981,0.00910
2509.28964,0.00887
2507.22947,0.00899
2505.16929,0.00956
2503.10912,0.00994
2501.04895,0.00983
2498.98878,0.00964
2496.92861,0.00943
2494.86843,0.00904
2492.80826,0.00861
2490.74809,0.00856
2488.68792,0.00870
2486.62775,0.00850
2484.56757,0.00842
2482.50740,0.00876
2480.44723,0.00906
2478.38706,0.00909
2476.32688,0.00906
2474.26671,0.00907
2472.20654,0.00893
2470.14637,0.00878
2468.08620,0.00888
2466.02602,0.00902
2463.96585,0.00887
2461.90568,0.00856
2459.84551,0.00843
2457.78534,0.00842
2455.72516,0.00835
2453.66499,0.00826
2451.60482,0.00826
2449.54465,0.00830
2447.48447,0.00824
2445.42430,0.00811
2443.36413,0.00817
2441.30396,0.00859
2439.24379,0.00882
2437.18361,0.00869
2435.12344,0.00855
2433.06327,0.00820
2431.00310,0.00770
2428.94293,0.00740
2426.88275,0.00723
2424.82258,0.00726
2422.76241,0.00749
2420.70224,0.00752
2418.64207,0.00759
2416.58189,0.00790
2414.52172,0.00803
2412.46155,0.00779
2410.40138,0.00750
2408.34120,0.00744
2406.28103,0.00760
2404.22086,0.00787
2402.16069,0.00797
2400.10052,0.00773
2398.04034,0.00726
2395.98017,0.00699
2393.92000,0.00704
2391.85983,0.00729
2389.79966,0.00737
2387.73948,0.00721
2385.67931,0.00712
2383.61914,0.00712
2381.55897,0.00711
2379.49880,0.00716
2377.43862,0.00710
2375.37845,0.00666
2373.31828,0.00660
2371.25811,0.00709
2369.19793,0.00680
2367.13776,0.00588
2365.07759,0.00599
2363.01742,0.00666
2360.95725,0.00773
2358.89707,0.00746
2356.83690,0.00645
2354.77673,0.00536
2352.71656,0.00525
2350.65639,0.00708
2348.59621,0.00781
2346.53604,0.00456
2344.47587,0.00326
2342.41570,0.00433
2340.35552,0.00596
2338.29535,0.00651
2336.23518,0.00618
2334.17501,0.00675
2332.11484,0.00748
2330.05466,0.00749
2327.99449,0.00707
2325.93432,0.00749
2323.87415,0.00771
2321.81398,0.00765
2319.75380,0.00684
2317.69363,0.00645
2315.63346,0.00624
2313.57329,0.00626
2311.51312,0.00638
2309.45294,0.00616
2307.39277,0.00597
2305.33260,0.00626
2303.27243,0.00674
2301.21225,0.00671
2299.15208,0.00634
2297.09191,0.00611
2295.03174,0.00620
2292.97157,0.00639
2290.91139,0.00647
2288.85122,0.00645
2286.79105,0.00649
2284.73088,0.00657
2282.67071,0.00645
2280.61053,0.00608
2278.55036,0.00583
2276.49019,0.00603
2274.43002,0.00639
2272.36984,0.00622
2270.30967,0.00566
2268.24950,0.00530
2266.18933,0.00526
2264.12916,0.00562
2262.06898,0.00617
2260.00881,0.00633
2257.94864,0.00650
2255.88847,0.00691
2253.82830,0.00655
2251.76812,0.00547
2249.70795,0.00458
2247.64778,0.00417
2245.58761,0.00409
2243.52744,0.00440
2241.46726,0.00529
2239.40709,0.00639
2237.34692,0.00695
2235.28675,0.00699
2233.22657,0.00701
2231.16640,0.00699
2229.10623,0.00680
2227.04606,0.00638
2224.98589,0.00558
2222.92571,0.00462
2220.86554,0.00433
2218.80537,0.00474
2216.74520,0.00478
2214.68503,0.00450
2212.62485,0.00442
2210.56468,0.00441
2208.50451,0.00456
2206.44434,0.00479
2204.38417,0.00473
2202.32399,0.00433
2200.26382,0.00439
2198.20365,0.00452
2196.14348,0.00441
2194.08330,0.00523
2192.02313,0.00609
2189.96296,0.00593
2187.90279,0.00573
2185.84262,0.00569
2183.78244,0.00543
2181.72227,0.00531
2179.66210,0.00510
2177.60193,0.00485
2175.54176,0.00500
2173.48158,0.00467
2171.42141,0.00400
2169.36124,0.00413
2167.30107,0.00466
2165.24089,0.00481
2163.18072,0.00412
2161.12055,0.00195
2159.06038,0.00000
2157.00021,0.00028
2154.94003,0.00115
2152.87986,0.00188
2150.81969,0.00312
2148.75952,0.00430
2146.69935,0.00453
2144.63917,0.00367
2142.57900,0.00263
2140.51883,0.00253
2138.45866,0.00298
2136.39849,0.00306
2134.33831,0.00289
2132.27814,0.00340
2130.21797,0.00439
2128.15780,0.00469
2126.09762,0.00439
2124.03745,0.00420
2121.97728,0.00423
2119.91711,0.00451
2117.85694,0.00460
2115.79676,0.00424
2113.73659,0.00429
2111.67642,0.00507
2109.61625,0.00542
2107.55608,0.00486
2105.49590,0.00413
2103.43573,0.00384
2101.37556,0.00381
2099.31539,0.00370
2097.25521,0.00377
2095.19504,0.00422
2093.13487,0.00440
2091.07470,0.00418
2089.01453,0.00419
2086.95435,0.00427
2084.89418,0.00397
2082.83401,0.00350
2080.77384,0.00333
2078.71367,0.00323
2076.65349,0.00286
2074.59332,0.00273
2072.53315,0.00312
2070.47298,0.00337
2068.41281,0.00305
2066.35263,0.00291
2064.29246,0.00331
2062.23229,0.00349
2060.17212,0.00325
2058.11194,0.00298
2056.05177,0.00269
2053.99160,0.00277
2051.93143,0.00365
2049.87126,0.00400
2047.81108,0.00274
2045.75091,0.00136
2043.69074,0.00184
2041.63057,0.00386
2039.57040,0.00489
2037.51022,0.00399
2035.45005,0.00284
2033.38988,0.00224
2031.32971,0.00200
2029.26954,0.00262
2027.20936,0.00354
2025.14919,0.00355
2023.08902,0.00304
2021.02885,0.00218
2018.96867,0.00126
2016.90850,0.00172
2014.84833,0.00295
2012.78816,0.00308
2010.72799,0.00247
2008.66781,0.00216
2006.60764,0.00207
2004.54747,0.00164
2002.48730,0.00094
2000.42713,0.00071
1998.36695,0.00104
1996.30678,0.00139
1994.24661,0.00145
1992.18644,0.00135
1990.12626,0.00159
1988.06609,0.00186
1986.00592,0.00179
1983.94575,0.00226
1981.88558,0.00297
1979.82540,0.00243
1977.76523,0.00143
1975.70506,0.00165
1973.64489,0.00212
1971.58472,0.00160
1969.52454,0.00107
1967.46437,0.00151
1965.40420,0.00241
1963.34403,0.00271
1961.28386,0.00206
1959.22368,0.00119
1957.16351,0.00099
1955.10334,0.00150
1953.04317,0.00190
1950.98299,0.00167
1948.92282,0.00132
1946.86265,0.00113
1944.80248,0.00062
1942.74231,0.00017
1940.68213,0.00057
1938.62196,0.00122
1936.56179,0.00180
1934.50162,0.00234
1932.44145,0.00221
1930.38127,0.00146
1928.32110,0.00102
1926.26093,0.00126
1924.20076,0.00165
1922.14059,0.00149
1920.08041,0.00100
1918.02024,0.00095
1915.96007,0.00115
1913.89990,0.00099
1911.83972,0.00061
1909.77955,0.00043
1907.71938,0.00069
1905.65921,0.00123
1903.59904,0.00181
1901.53886,0.00236
1899.47869,0.00259
1897.41852,0.00223
1895.35835,0.00146
1893.29818,0.00084
1891.23800,0.00077
1889.17783,0.00106
1887.11766,0.00128
1885.05749,0.00134
1882.99731,0.00134
1880.93714,0.00126
1878.87697,0.00108
1876.81680,0.00101
1874.75663,0.00107
1872.69645,0.00094
1870.63628,0.00060
1868.57611,0.00040
1866.51594,0.00053
1864.45577,0.00093
1862.39559,0.00121
1860.33542,0.00101
1858.27525,0.00054
1856.21508,0.00027
1854.15491,0.00032
1852.09473,0.00053
1850.03456,0.00076
1847.97439,0.00081
1845.91422,0.00051
1843.85404,0.00012
1841.79387,0.00014
1839.73370,0.00057
1837.67353,0.00099
1835.61336,0.00102
1833.55318,0.00064
1831.49301,0.00019
1829.43284,0.00000
1827.37267,0.00014
1825.31250,0.00039
1823.25232,0.00049
1821.19215,0.00043
1819.13198,0.00038
1817.07181,0.00041
1815.01163,0.00041
1812.95146,0.00023
1810.89129,-0.00006
1808.83112,-0.00020
1806.77095,-0.00017
1804.71077,-0.00020
1802.65060,-0.00036
1800.59043,-0.00042
1798.53026,-0.00014
1796.47009,0.00031
1794.40991,0.00054
1792.34974,0.00043
1790.28957,0.00021
1788.22940,0.00009
1786.16923,0.00001
1784.10905,-0.00005
1782.04888,0.00000
1779.98871,0.00014
1777.92854,0.00023
1775.86836,0.00016
1773.80819,0.00016
1771.74802,0.00029
1769.68785,0.00029
1767.62768,0.00026
1765.56750,0.00048
1763.50733,0.00098
1761.44716,0.00153
1759.38699,0.00202
1757.32682,0.00267
1755.26664,0.00362
1753.20647,0.00469
1751.14630,0.00581
1749.08613,0.00710
1747.02596,0.00872
1744.96578,0.01092
1742.90561,0.01377
1740.84544,0.01697
1738.78527,0.01995
1736.72509,0.02221
1734.66492,0.02378
1732.60475,0.02494
1730.54458,0.02588
1728.48441,0.02642
1726.42423,0.02646
1724.36406,0.02621
1722.30389,0.02599
1720.24372,0.02596
1718.18355,0.02557
1716.12337,0.02471
1714.06320,0.02427
1712.00303,0.02435
1709.94286,0.02455
1707.88268,0.02451
1705.82251,0.02400
1703.76234,0.02333
1701.70217,0.02273
1699.64200,0.02176
1697.58182,0.02066
1695.52165,0.01997
1693.46148,0.01984
1691.40131,0.01987
1689.34114,0.01975
1687.28096,0.01966
1685.22079,0.01949
1683.16062,0.01904
1681.10045,0.01887
1679.04028,0.01901
1676.98010,0.01925
1674.91993,0.01966
1672.85976,0.02019
1670.79959,0.02049
1668.73941,0.02061
1666.67924,0.02108
1664.61907,0.02180
1662.55890,0.02244
1660.49873,0.02311
1658.43855,0.02402
1656.37838,0.02520
1654.31821,0.02621
1652.25804,0.02632
1650.19787,0.02621
1648.13769,0.02629
1646.07752,0.02624
1644.01735,0.02636
1641.95718,0.02679
1639.89701,0.02737
1637.83683,0.02785
1635.77666,0.02784
1633.71649,0.02770
1631.65632,0.02817
1629.59614,0.02890
1627.53597,0.02937
1625.47580,0.02948
1623.41563,0.02940
1621.35546,0.02960
1619.29528,0.03020
1617.23511,0.03063
1615.17494,0.03088
1613.11477,0.03147
1611.05460,0.03225
1608.99442,0.03290
1606.93425,0.03336
1604.87408,0.03355
1602.81391,0.03332
1600.75373,0.03276
1598.69356,0.03217
1596.63339,0.03155
1594.57322,0.03064
1592.51305,0.02936
1590.45287,0.02798
1588.39270,0.02680
1586.33253,0.02585
1584.27236,0.02499
1582.21219,0.02418
1580.15201,0.02351
1578.09184,0.02261
1576.03167,0.02105
1573.97150,0.01971
1571.91133,0.01915
1569.85115,0.01848
1567.79098,0.01754
1565.73081,0.01696
1563.67064,0.01680
1561.61046,0.01673
1559.55029,0.01621
1557.49012,0.01545
1555.42995,0.01560
1553.36978,0.01610
1551.30960,0.01649
1549.24943,0.01691
1547.18926,0.01743
1545.12909,0.01794
1543.06892,0.01819
1541.00874,0.01781
1538.94857,0.01707
1536.88840,0.01675
1534.82823,0.01647
1532.76805,0.01585
1530.70788,0.01541
1528.64771,0.01520
1526.58754,0.01488
1524.52737,0.01460
1522.46719,0.01443
1520.40702,0.01430
1518.34685,0.01450
1516.28668,0.01484
1514.22651,0.01501
1512.16633,0.01516
1510.10616,0.01515
1508.04599,0.01403
1505.98582,0.01163
1503.92565,0.01015
1501.86547,0.00973
1499.80530,0.00926
1497.74513,0.00829
1495.68496,0.00724
1493.62478,0.00664
1491.56461,0.00612
1489.50444,0.00512
1487.44427,0.00409
1485.38410,0.00378
1483.32392,0.00389
1481.26375,0.00395
1479.20358,0.00419
1477.14341,0.00499
1475.08324,0.00636
1473.02306,0.00816
1470.96289,0.01019
1468.90272,0.01219
1466.84255,0.01401
1464.78238,0.01553
1462.72220,0.01670
1460.66203,0.01764
1458.60186,0.01829
1456.54169,0.01868
1454.48151,0.01928
1452.42134,0.02015
1450.36117,0.02091
1448.30100,0.02139
1446.24083,0.02183
1444.18065,0.02237
1442.12048,0.02274
1440.06031,0.02277
1438.00014,0.02228
1435.93997,0.02118
1433.87979,0.02014
1431.81962,0.01938
1429.75945,0.01845
1427.69928,0.01758
1425.63910,0.01718
1423.57893,0.01714
1421.51876,0.01715
1419.45859,0.01686
1417.39842,0.01637
1415.33824,0.01622
1413.27807,0.01626
1411.21790,0.01614
1409.15773,0.01588
1407.09756,0.01563
1405.03738,0.01544
1402.97721,0.01542
1400.91704,0.01559
1398.85687,0.01572
1396.79670,0.01579
1394.73652,0.01591
1392.67635,0.01613
1390.61618,0.01655
1388.55601,0.01709
1386.49583,0.01766
1384.43566,0.01839
1382.37549,0.01931
1380.31532,0.02017
1378.25515,0.02090
1376.19497,0.02158
1374.13480,0.02201
1372.07463,0.02216
1370.01446,0.02233
1367.95429,0.02268
1365.89411,0.02307
1363.83394,0.02319
1361.77377,0.02293
1359.71360,0.02276
1357.65343,0.02296
1355.59325,0.02330
1353.53308,0.02350
1351.47291,0.02355
1349.41274,0.02362
1347.35256,0.02382
1345.29239,0.02410
1343.23222,0.02445
1341.17205,0.02485
1339.11188,0.02521
1337.05170,0.02554
1334.99153,0.02593
1332.93136,0.02631
1330.87119,0.02666
1328.81102,0.02711
1326.75084,0.02769
1324.69067,0.02829
1322.63050,0.02886
1320.57033,0.02930
1318.51015,0.02948
1316.44998,0.02944
1314.38981,0.02926
1312.32964,0.02894
1310.26947,0.02855
1308.20929,0.02797
1306.14912,0.02706
1304.08895,0.02594
1302.02878,0.02474
1299.96861,0.02348
1297.90843,0.02225
1295.84826,0.02118
1293.78809,0.02018
1291.72792,0.01931
1289.66775,0.01870
1287.60757,0.01830
1285.54740,0.01791
1283.48723,0.01753
1281.42706,0.01723
1279.36688,0.01705
1277.30671,0.01703
1275.24654,0.01715
1273.18637,0.01744
1271.12620,0.01783
1269.06602,0.01810
1267.00585,0.01838
1264.94568,0.01895
1262.88551,0.01966
1260.82534,0.02012
1258.76516,0.02028
1256.70499,0.02041
1254.64482,0.02073
1252.58465,0.02125
1250.52447,0.02179
1248.46430,0.02211
1246.40413,0.02226
1244.34396,0.02253
1242.28379,0.02307
1240.22361,0.02368
1238.16344,0.02434
1236.10327,0.02511
1234.04310,0.02569
1231.98293,0.02598
1229.92275,0.02636
1227.86258,0.02698
1225.80241,0.02755
1223.74224,0.02796
1221.68207,0.02839
1219.62189,0.02878
1217.56172,0.02901
1215.50155,0.02932
1213.44138,0.02981
1211.38120,0.03023
1209.32103,0.03058
1207.26086,0.03109
1205.20069,0.03172
1203.14052,0.03228
1201.08034,0.03278
1199.02017,0.03322
1196.96000,0.03336
1194.89983,0.03320
1192.83966,0.03302
1190.77948,0.03283
1188.71931,0.03248
1186.65914,0.03219
1184.59897,0.03205
1182.53880,0.03177
1180.47862,0.03135
1178.41845,0.03105
1176.35828,0.03097
1174.29811,0.03098
1172.23793,0.03103
1170.17776,0.03126
1168.11759,0.03169
1166.05742,0.03202
1163.99725,0.03202
1161.93707,0.03174
1159.87690,0.03124
1157.81673,0.03040
1155.75656,0.02936
1153.69639,0.02841
1151.63621,0.02753
1149.57604,0.02658
1147.51587,0.02569
1145.45570,0.02495
1143.39552,0.02424
1141.33535,0.02341
1139.27518,0.02243
1137.21501,0.02154
1135.15484,0.02094
1133.09466,0.02049
1131.03449,0.02023
1128.97432,0.02043
1126.91415,0.02099
1124.85398,0.02176
1122.79380,0.02272
1120.73363,0.02388
1118.67346,0.02521
1116.61329,0.02658
1114.55312,0.02808
1112.49294,0.02973
1110.43277,0.03136
1108.37260,0.03300
1106.31243,0.03465
1104.25225,0.03600
1102.19208,0.03685
1100.13191,0.03750
1098.07174,0.03834
1096.01157,0.03917
1093.95139,0.03981
1091.89122,0.04044
1089.83105,0.04116
1087.77088,0.04202
1085.71071,0.04313
1083.65053,0.04436
1081.59036,0.04563
1079.53019,0.04704
1077.47002,0.04840
1075.40985,0.04960
1073.34967,0.05071
1071.28950,0.05155
1069.22933,0.05199
1067.16916,0.05238
1065.10898,0.05310
1063.04881,0.05392
1060.98864,0.05454
1058.92847,0.05501
1056.86830,0.05549
1054.80812,0.05637
1052.74795,0.05750
1050.68778,0.05844
1048.62761,0.05928
1046.56744,0.06013
1044.50726,0.06084
1042.44709,0.06176
1040.38692,0.06326
1038.32675,0.06492
1036.26657,0.06626
1034.20640,0.06746
1032.14623,0.06855
1030.08606,0.06932
1028.02589,0.06980
1025.96571,0.07010
1023.90554,0.07024
1021.84537,0.07028
1019.78520,0.07024
1017.72503,0.07009
1015.66485,0.06980
1013.60468,0.06924
1011.54451,0.06838
1009.48434,0.06727
1007.42417,0.06601
1005.36399,0.06458
1003.30382,0.06296
1001.24365,0.06129
999.18348,0.05954
997.12330,0.05776
995.06313,0.05608
993.00296,0.05463
990.94279,0.05349
988.88262,0.05224
986.82244,0.05053
984.76227,0.04860
982.70210,0.04673
980.64193,0.04493
978.58176,0.04306
976.52158,0.04113
974.46141,0.03924
972.40124,0.03762
970.34107,0.03627
968.28089,0.03487
966.22072,0.03342
964.16055,0.03219
962.10038,0.03128
960.04021,0.03031
957.98003,0.02905
955.91986,0.02763
953.85969,0.02616
951.79952,0.02479
949.73935,0.02347
947.67917,0.02200
945.61900,0.02045
943.55883,0.01923
941.49866,0.01847
939.43849,0.01762
937.37831,0.01656
935.31814,0.01573
933.25797,0.01516
931.19780,0.01469
929.13762,0.01437
927.07745,0.01413
925.01728,0.01373
922.95711,0.01320
920.89694,0.01256
918.83676,0.01162
916.77659,0.01040
914.71642,0.00932
912.65625,0.00850
910.59608,0.00775
908.53590,0.00711
906.47573,0.00668
904.41556,0.00639
902.35539,0.00612
900.29522,0.00590
898.23504,0.00583
896.17487,0.00589
894.11470,0.00576
892.05453,0.00535
889.99435,0.00506
887.93418,0.00476
885.87401,0.00425
883.81384,0.00393
881.75367,0.00402
879.69349,0.00449
877.63332,0.00509
875.57315,0.00536
873.51298,0.00530
871.45281,0.00530
869.39263,0.00531
867.33246,0.00511
865.27229,0.00472
863.21212,0.00412
861.15194,0.00341
859.09177,0.00267
857.03160,0.00198
854.97143,0.00148
852.91126,0.00122
850.85108,0.00094
848.79091,0.00036
846.73074,0.00000
844.67057,0.00034
842.61040,0.00095
840.55022,0.00121
838.49005,0.00097
836.42988,0.00084
834.36971,0.00144
832.30954,0.00213
830.24936,0.00214
828.18919,0.00177
826.12902,0.00143
824.06885,0.00118
822.00867,0.00109
819.94850,0.00135
817.88833,0.00190
815.82816,0.00203
813.76799,0.00152
811.70781,0.00143
809.64764,0.00187
807.58747,0.00151
805.52730,0.00048
803.46713,0.00000
801.40695,-0.00034
799.34678,-0.00077
797.28661,-0.00117
795.22644,-0.00136
793.16627,-0.00131
791.10609,-0.00131
789.04592,-0.00146
786.98575,-0.00146
784.92558,-0.00132
782.86540,-0.00099
780.80523,-0.00045
778.74506,-0.00025
776.68489,-0.00044
774.62472,-0.00018
772.56454,0.00056
770.50437,0.00108
768.44420,0.00161
766.38403,0.00272
764.32386,0.00413
762.26368,0.00540
760.20351,0.00643
758.14334,0.00708
756.08317,0.00707
754.02299,0.00655
751.96282,0.00581
749.90265,0.00458
747.84248,0.00300
745.78231,0.00203
743.72213,0.00205
741.66196,0.00231
739.60179,0.00236
737.54162,0.00243
735.48145,0.00212
733.42127,0.00126
731.36110,0.00101
729.30093,0.00172
727.24076,0.00196
725.18059,0.00147
723.12041,0.00211
721.06024,0.00307
719.00007,0.00341
716.93990,0.00220
714.87972,0.00084
712.81955,0.00036
710.75938,0.00005
708.69921,-0.00051
706.63904,-0.00080
704.57886,-0.00056
702.51869,0.00000
700.45852,0.00047
698.39835,0.00060
696.33818,0.00068
694.27800,0.00051
692.21783,-0.00000
690.15766,-0.00019
688.09749,-0.00029
686.03731,-0.00096
683.97714,-0.00174
681.91697,-0.00173
679.85680,-0.00063
677.79663,0.00070
675.73645,0.00115
673.67628,0.00143
671.61611,0.00259
669.55594,0.00061
667.49577,-0.00228
665.43559,0.00293
663.37542,0.00274
661.31525,0.00160
659.25508,0.00098
657.19491,0.00088
655.13473,0.00138
653.07456,0.00152
651.01439,0.00090
648.95422,0.00000
646.89404,-0.00058
644.83387,-0.00032
642.77370,0.00056
640.71353,0.00171
638.65336,0.00232
636.59318,0.00106
634.53301,-0.00126
632.47284,-0.00214
630.41267,-0.00171
628.35250,-0.00172
626.29232,-0.00153
624.23215,-0.00025
622.17198,-0.00040
620.11181,-0.00060
618.05164,0.00001
615.99146,-0.00097
613.93129,-0.00120
611.87112,0.00112
609.81095,0.00181
607.75077,-0.00121
605.69060,-0.00453
603.63043,-0.00498
601.57026,-0.00253
599.51009,0.00000
