3996.73391,0.00049
3994.67373,0.00029
3992.61356,0.00012
3990.55339,0.00000
3988.49322,0.00002
3986.43305,0.00034
3984.37287,0.00076
3982.31270,0.00098
3980.25253,0.00105
3978.19236,0.00111
3976.13219,0.00107
3974.07201,0.00084
3972.01184,0.00059
3969.95167,0.00037
3967.89150,0.00027
3965.83133,0.00045
3963.77115,0.00067
3961.71098,0.00072
3959.65081,0.00078
3957.59064,0.00088
3955.53046,0.00083
3953.47029,0.00069
3951.41012,0.00064
3949.34995,0.00072
3947.28978,0.00102
3945.22960,0.00152
3943.16943,0.00167
3941.10926,0.00122
3939.04909,0.00081
3936.98892,0.00070
3934.92874,0.00067
3932.86857,0.00071
3930.80840,0.00089
3928.74823,0.00102
3926.68805,0.00092
3924.62788,0.00066
3922.56771,0.00053
3920.50754,0.00075
3918.44737,0.00100
3916.38719,0.00085
3914.32702,0.00059
3912.26685,0.00068
3910.20668,0.00090
3908.14651,0.00098
3906.08633,0.00102
3904.02616,0.00095
3901.96599,0.00066
3899.90582,0.00048
3897.84565,0.00047
3895.78547,0.00058
3893.72530,0.00078
3891.66513,0.00082
3889.60496,0.00068
3887.54478,0.00071
3885.48461,0.00091
3883.42444,0.00098
3881.36427,0.00093
3879.30410,0.00087
3877.24392,0.00074
3875.18375,0.00046
3873.12358,0.00009
3871.06341,0.00000
3869.00324,0.00034
3866.94306,0.00057
3864.88289,0.00044
3862.82272,0.00029
3860.76255,0.00038
3858.70237,0.00061
3856.64220,0.00097
3854.58203,0.00167
3852.52186,0.00216
3850.46169,0.00175
3848.40151,0.00117
3846.34134,0.00116
3844.28117,0.00167
3842.22100,0.00216
3840.16083,0.00224
3838.10065,0.00199
3836.04048,0.00162
3833.98031,0.00116
3831.92014,0.00066
3829.85997,0.00042
3827.79979,0.00047
3825.73962,0.00043
3823.67945,0.00035
3821.61928,0.00069
3819.55910,0.00133
3817.49893,0.00164
3815.43876,0.00137
3813.37859,0.00083
3811.31842,0.00058
3809.25824,0.00064
3807.19807,0.00083
3805.13790,0.00115
3803.07773,0.00157
3801.01756,0.00164
3798.95738,0.00120
3796.89721,0.00067
3794.83704,0.00045
3792.77687,0.00062
3790.71670,0.00087
3788.65652,0.00094
3786.59635,0.00076
3784.53618,0.00050
3782.47601,0.00047
3780.41583,0.00066
3778.35566,0.00090
3776.29549,0.00108
3774.23532,0.00107
3772.17515,0.00097
3770.11497,0.00099
3768.05480,0.00098
3765.99463,0.00082
3763.93446,0.00067
3761.87429,0.00071
3759.81411,0.00093
3757.75394,0.00104
3755.69377,0.00089
3753.63360,0.00075
3751.57342,0.00072
3749.51325,0.00074
3747.45308,0.00057
3745.39291,0.00013
3743.33274,0.00000
3741.27256,0.00024
3739.21239,0.00028
3737.15222,0.00017
3735.09205,0.00025
3733.03188,0.00038
3730.97170,0.00042
3728.91153,0.00044
3726.85136,0.00037
3724.79119,0.00015
3722.73102,0.00002
3720.67084,0.00028
3718.61067,0.00062
3716.55050,0.00061
3714.49033,0.00055
3712.43015,0.00081
3710.36998,0.00097
3708.30981,0.00073
3706.24964,0.00052
3704.18947,0.00056
3702.12929,0.00060
3700.06912,0.00041
3698.00895,0.00034
3695.94878,0.00050
3693.88861,0.00054
3691.82843,0.00029
3689.76826,0.00015
3687.70809,0.00049
3685.64792,0.00083
3683.58775,0.00085
3681.52757,0.00095
3679.46740,0.00129
3677.40723,0.00147
3675.34706,0.00136
3673.28688,0.00138
3671.22671,0.00163
3669.16654,0.00167
3667.10637,0.00148
3665.04620,0.00141
3662.98602,0.00151
3660.92585,0.00157
3658.86568,0.00159
3656.80551,0.00168
3654.74534,0.00180
3652.68516,0.00203
3650.62499,0.00255
3648.56482,0.00321
3646.50465,0.00362
3644.44447,0.00387
3642.38430,0.00413
3640.32413,0.00420
3638.26396,0.00401
3636.20379,0.00379
3634.14361,0.00382
3632.08344,0.00411
3630.02327,0.00449
3627.96310,0.00457
3625.90293,0.00437
3623.84275,0.00454
3621.78258,0.00527
3619.72241,0.00616
3617.66224,0.00674
3615.60207,0.00692
3613.54189,0.00685
3611.48172,0.00675
3609.42155,0.00684
3607.36138,0.00716
3605.30120,0.00766
3603.24103,0.00818
3601.18086,0.00877
3599.12069,0.00952
3597.06052,0.01007
3595.00034,0.01007
3592.94017,0.00992
3590.88000,0.01016
3588.81983,0.01069
3586.75966,0.01128
3584.69948,0.01194
3582.63931,0.01251
3580.57914,0.01272
3578.51897,0.01282
3576.45879,0.01312
3574.39862,0.01340
3572.33845,0.01368
3570.27828,0.01425
3568.21811,0.01494
3566.15793,0.01530
3564.09776,0.01529
3562.03759,0.01533
3559.97742,0.01567
3557.91725,0.01614
3555.85707,0.01653
3553.79690,0.01706
3551.73673,0.01798
3549.67656,0.01908
3547.61639,0.01983
3545.55621,0.02002
3543.49604,0.02014
3541.43587,0.02065
3539.37570,0.02137
3537.31552,0.02187
3535.25535,0.02201
3533.19518,0.02214
3531.13501,0.02249
3529.07484,0.02303
3527.01466,0.02357
3524.95449,0.02398
3522.89432,0.02432
3520.83415,0.02478
3518.77398,0.02529
3516.71380,0.02578
3514.65363,0.02637
3512.59346,0.02683
3510.53329,0.02701
3508.47312,0.02738
3506.41294,0.02800
3504.35277,0.02839
3502.29260,0.02866
3500.23243,0.02938
3498.17225,0.03039
3496.11208,0.03103
3494.05191,0.03132
3491.99174,0.03174
3489.93157,0.03222
3487.87139,0.03253
3485.81122,0.03283
3483.75105,0.03317
3481.69088,0.03341
3479.63071,0.03371
3477.57053,0.03413
3475.51036,0.03451
3473.45019,0.03492
3471.39002,0.03536
3469.32984,0.03589
3467.26967,0.03658
3465.20950,0.03709
3463.14933,0.03732
3461.08916,0.03771
3459.02898,0.03824
3456.96881,0.03861
3454.90864,0.03899
3452.84847,0.03934
3450.78830,0.03956
3448.72812,0.03995
3446.66795,0.04067
3444.60778,0.04150
3442.54761,0.04205
3440.48744,0.04249
3438.42726,0.04282
3436.36709,0.04289
3434.30692,0.04310
3432.24675,0.04346
3430.18657,0.04372
3428.12640,0.04414
3426.06623,0.04475
3424.00606,0.04535
3421.94589,0.04586
3419.88571,0.04617
3417.82554,0.04627
3415.76537,0.04648
3413.70520,0.04708
3411.64503,0.04772
3409.58485,0.04815
3407.52468,0.04851
3405.46451,0.04863
3403.40434,0.04864
3401.34416,0.04884
3399.28399,0.04897
3397.22382,0.04922
3395.16365,0.04975
3393.10348,0.04998
3391.04330,0.04982
3388.98313,0.05010
3386.92296,0.05071
3384.86279,0.05108
3382.80262,0.05138
3380.74244,0.05177
3378.68227,0.05213
3376.62210,0.05252
3374.56193,0.05283
3372.50176,0.05303
3370.44158,0.05325
3368.38141,0.05341
3366.32124,0.05346
3364.26107,0.05356
3362.20089,0.05387
3360.14072,0.05439
3358.08055,0.05479
3356.02038,0.05493
3353.96021,0.05499
3351.90003,0.05501
3349.83986,0.05506
3347.77969,0.05536
3345.71952,0.05575
3343.65935,0.05601
3341.59917,0.05617
3339.53900,0.05622
3337.47883,0.05620
3335.41866,0.05626
3333.35849,0.05623
3331.29831,0.05610
3329.23814,0.05622
3327.17797,0.05647
3325.11780,0.05659
3323.05762,0.05665
3320.99745,0.05669
3318.93728,0.05688
3316.87711,0.05732
3314.81694,0.05766
3312.75676,0.05774
3310.69659,0.05780
3308.63642,0.05801
3306.57625,0.05825
3304.51608,0.05819
3302.45590,0.05789
3300.39573,0.05781
3298.33556,0.05800
3296.27539,0.05829
3294.21521,0.05851
3292.15504,0.05855
3290.09487,0.05861
3288.03470,0.05880
3285.97453,0.05883
3283.91435,0.05853
3281.85418,0.05822
3279.79401,0.05815
3277.73384,0.05811
3275.67367,0.05816
3273.61349,0.05858
3271.55332,0.05913
3269.49315,0.05950
3267.43298,0.05950
3265.37281,0.05897
3263.31263,0.05833
3261.25246,0.05825
3259.19229,0.05830
3257.13212,0.05784
3255.07194,0.05717
3253.01177,0.05673
3250.95160,0.05663
3248.89143,0.05675
3246.83126,0.05674
3244.77108,0.05673
3242.71091,0.05680
3240.65074,0.05661
3238.59057,0.05626
3236.53040,0.05601
3234.47022,0.05576
3232.41005,0.05536
3230.34988,0.05490
3228.28971,0.05471
3226.22954,0.05499
3224.16936,0.05519
3222.10919,0.05486
3220.04902,0.05450
3217.98885,0.05445
3215.92867,0.05453
3213.86850,0.05471
3211.80833,0.05476
3209.74816,0.05438
3207.68799,0.05371
3205.62781,0.05325
3203.56764,0.05318
3201.50747,0.05331
3199.44730,0.05324
3197.38713,0.05280
3195.32695,0.05235
3193.26678,0.05203
3191.20661,0.05156
3189.14644,0.05100
3187.08626,0.05063
3185.02609,0.05049
3182.96592,0.05055
3180.90575,0.05062
3178.84558,0.05051
3176.78540,0.05031
3174.72523,0.05004
3172.66506,0.04969
3170.60489,0.04929
3168.54472,0.04894
3166.48454,0.04872
3164.42437,0.04857
3162.36420,0.04842
3160.30403,0.04815
3158.24386,0.04770
3156.18368,0.04724
3154.12351,0.04698
3152.06334,0.04684
3150.00317,0.04665
3147.94299,0.04640
3145.88282,0.04611
3143.82265,0.04567
3141.76248,0.04520
3139.70231,0.04502
3137.64213,0.04494
3135.58196,0.04469
3133.52179,0.04427
3131.46162,0.04376
3129.40145,0.04342
3127.34127,0.04336
3125.28110,0.04335
3123.22093,0.04329
3121.16076,0.04325
3119.10058,0.04315
3117.04041,0.04279
3114.98024,0.04225
3112.92007,0.04172
3110.85990,0.04144
3108.79972,0.04141
3106.73955,0.04130
3104.67938,0.04100
3102.61921,0.04078
3100.55904,0.04071
3098.49886,0.04058
3096.43869,0.04038
3094.37852,0.04031
3092.31835,0.04032
3090.25818,0.04008
3088.19800,0.03960
3086.13783,0.03915
3084.07766,0.03885
3082.01749,0.03874
3079.95731,0.03872
3077.89714,0.03855
3075.83697,0.03837
3073.77680,0.03827
3071.71663,0.03797
3069.65645,0.03754
3067.59628,0.03734
3065.53611,0.03720
3063.47594,0.03693
3061.41577,0.03668
3059.35559,0.03642
3057.29542,0.03611
3055.23525,0.03587
3053.17508,0.03559
3051.11491,0.03517
3049.05473,0.03478
3046.99456,0.03463
3044.93439,0.03458
3042.87422,0.03441
3040.81404,0.03410
3038.75387,0.03375
3036.69370,0.03347
3034.63353,0.03326
3032.57336,0.03303
3030.51318,0.03280
3028.45301,0.03261
3026.39284,0.03235
3024.33267,0.03199
3022.27250,0.03168
3020.21232,0.03156
3018.15215,0.03150
3016.09198,0.03142
3014.03181,0.03140
3011.97163,0.03128
3009.91146,0.03101
3007.85129,0.03084
3005.79112,0.03077
3003.73095,0.03048
3001.67077,0.03008
2999.61060,0.02996
2997.55043,0.02996
2995.49026,0.02970
2993.43009,0.02950
2991.36991,0.02972
2989.30974,0.03004
2987.24957,0.03017
2985.18940,0.03012
2983.12923,0.03025
2981.06905,0.03071
2979.00888,0.03112
2976.94871,0.03149
2974.88854,0.03211
2972.82836,0.03281
2970.76819,0.03340
2968.70802,0.03391
2966.64785,0.03456
2964.58768,0.03563
2962.52750,0.03702
2960.46733,0.03846
2958.40716,0.03987
2956.34699,0.04101
2954.28682,0.04189
2952.22664,0.04286
2950.16647,0.04385
2948.10630,0.04483
2946.04613,0.04627
2943.98596,0.04822
2941.92578,0.05038
2939.86561,0.05266
2937.80544,0.05499
2935.74527,0.05727
2933.68509,0.05954
2931.62492,0.06192
2929.56475,0.06425
2927.50458,0.06633
2925.44441,0.06823
2923.38423,0.06999
2921.32406,0.07154
2919.26389,0.07268
2917.20372,0.07274
2915.14355,0.07086
2913.08337,0.06732
2911.02320,0.06357
2908.96303,0.06044
2906.90286,0.05799
2904.84268,0.05610
2902.78251,0.05450
2900.72234,0.05319
2898.66217,0.05206
2896.60200,0.05073
2894.54182,0.04940
2892.48165,0.04834
2890.42148,0.04738
2888.36131,0.04629
2886.30114,0.04513
2884.24096,0.04420
2882.18079,0.04373
2880.12062,0.04339
2878.06045,0.04285
2876.00028,0.04248
2873.94010,0.04247
2871.87993,0.04261
2869.81976,0.04289
2867.75959,0.04338
2865.69941,0.04416
2863.63924,0.04530
2861.57907,0.04684
2859.51890,0.04882
2857.45873,0.05113
2855.39855,0.05350
2853.33838,0.05581
2851.27821,0.05761
2849.21804,0.05761
2847.15787,0.05481
2845.09769,0.05013
2843.03752,0.04550
2840.97735,0.04195
2838.91718,0.03931
2836.85700,0.03734
2834.79683,0.03597
2832.73666,0.03479
2830.67649,0.03366
2828.61632,0.03277
2826.55614,0.03212
2824.49597,0.03149
2822.43580,0.03092
2820.37563,0.03052
2818.31546,0.03017
2816.25528,0.02984
2814.19511,0.02952
2812.13494,0.02912
2810.07477,0.02875
2808.01460,0.02845
2805.95442,0.02818
2803.89425,0.02803
2801.83408,0.02783
2799.77391,0.02745
2797.71373,0.02704
2795.65356,0.02679
2793.59339,0.02672
2791.53322,0.02660
2789.47305,0.02642
2787.41287,0.02632
2785.35270,0.02612
2783.29253,0.02575
2781.23236,0.02545
2779.17219,0.02535
2777.11201,0.02523
2775.05184,0.02509
2772.99167,0.02515
2770.93150,0.02508
2768.87133,0.02466
2766.81115,0.02428
2764.75098,0.02419
2762.69081,0.02422
2760.63064,0.02426
2758.57046,0.02420
2756.51029,0.02400
2754.45012,0.02391
2752.38995,0.02401
2750.32978,0.02397
2748.26960,0.02370
2746.20943,0.02351
2744.14926,0.02346
2742.08909,0.02350
2740.02892,0.02364
2737.96874,0.02368
2735.90857,0.02346
2733.84840,0.02310
2731.78823,0.02282
2729.72805,0.02284
2727.66788,0.02294
2725.60771,0.02287
2723.54754,0.02278
2721.48737,0.02281
2719.42719,0.02268
2717.36702,0.02242
2715.30685,0.02238
2713.24668,0.02255
2711.18651,0.02276
2709.12633,0.02277
2707.06616,0.02245
2705.00599,0.02214
2702.94582,0.02195
2700.88565,0.02170
2698.82547,0.02150
2696.76530,0.02143
2694.70513,0.02140
2692.64496,0.02146
2690.58478,0.02144
2688.52461,0.02128
2686.46444,0.02122
2684.40427,0.02135
2682.34410,0.02142
2680.28392,0.02137
2678.22375,0.02132
2676.16358,0.02128
2674.10341,0.02116
2672.04324,0.02096
2669.98306,0.02083
2667.92289,0.02075
2665.86272,0.02053
2663.80255,0.02032
2661.74238,0.02025
2659.68220,0.02005
2657.62203,0.01980
2655.56186,0.01978
2653.50169,0.01982
2651.44151,0.01974
2649.38134,0.01976
2647.32117,0.01981
2645.26100,0.01971
2643.20083,0.01952
2641.14065,0.01928
2639.08048,0.01906
2637.02031,0.01895
2634.96014,0.01892
2632.89997,0.01888
2630.83979,0.01864
2628.77962,0.01842
2626.71945,0.01839
2624.65928,0.01822
2622.59910,0.01794
2620.53893,0.01792
2618.47876,0.01804
2616.41859,0.01809
2614.35842,0.01806
2612.29824,0.01777
2610.23807,0.01753
2608.17790,0.01748
2606.11773,0.01729
2604.05756,0.01692
2601.99738,0.01666
2599.93721,0.01653
2597.87704,0.01634
2595.81687,0.01609
2593.75670,0.01605
2591.69652,0.01616
2589.63635,0.01614
2587.57618,0.01606
2585.51601,0.01601
2583.45583,0.01603
2581.39566,0.01615
2579.33549,0.01614
2577.27532,0.01595
2575.21515,0.01574
2573.15497,0.01551
2571.09480,0.01547
2569.03463,0.01566
2566.97446,0.01564
2564.91429,0.01530
2562.85411,0.01492
2560.79394,0.01485
2558.73377,0.01494
2556.67360,0.01465
2554.61342,0.01445
2552.55325,0.01480
2550.49308,0.01504
2548.43291,0.01490
2546.37274,0.01478
2544.31256,0.01477
2542.25239,0.01471
2540.19222,0.01470
2538.13205,0.01493
2536.07188,0.01509
2534.01170,0.01480
2531.95153,0.01431
2529.89136,0.01395
2527.83119,0.01370
2525.77102,0.01376
2523.71084,0.01403
2521.65067,0.01407
2519.59050,0.01386
2517.53033,0.01344
2515.47015,0.01308
2513.40998,0.01316
2511.34981,0.01347
2509.28964,0.01346
2507.22947,0.01307
2505.16929,0.01285
2503.10912,0.01298
2501.04895,0.01306
2498.98878,0.01292
2496.92861,0.01283
2494.86843,0.01284
2492.80826,0.01286
2490.74809,0.01299
2488.68792,0.01329
2486.62775,0.01356
2484.56757,0.01351
2482.50740,0.01317
2480.44723,0.01287
2478.38706,0.01269
2476.32688,0.01249
2474.26671,0.01232
2472.20654,0.01236
2470.14637,0.01251
2468.08620,0.01231
2466.02602,0.01193
2463.96585,0.01172
2461.90568,0.01154
2459.84551,0.01138
2457.78534,0.01140
2455.72516,0.01162
2453.66499,0.01185
2451.60482,0.01188
2449.54465,0.01161
2447.48447,0.01114
2445.42430,0.01083
2443.36413,0.01082
2441.30396,0.01075
2439.24379,0.01085
2437.18361,0.01141
2435.12344,0.01159
2433.06327,0.01098
2431.00310,0.01053
2428.94293,0.01062
2426.88275,0.01068
2424.82258,0.01078
2422.76241,0.01109
2420.70224,0.01129
2418.64207,0.01122
2416.58189,0.01097
2414.52172,0.01072
2412.46155,0.01060
2410.40138,0.01068
2408.34120,0.01082
2406.28103,0.01072
2404.22086,0.01037
2402.16069,0.01027
2400.10052,0.01061
2398.04034,0.01079
2395.98017,0.01051
2393.92000,0.01010
2391.85983,0.00991
2389.79966,0.00995
2387.73948,0.01003
2385.67931,0.00994
2383.61914,0.00970
2381.55897,0.00949
2379.49880,0.00944
2377.43862,0.00937
2375.37845,0.00906
2373.31828,0.00866
2371.25811,0.00866
2369.19793,0.00889
2367.13776,0.00899
2365.07759,0.00967
2363.01742,0.01062
2360.95725,0.01007
2358.89707,0.00875
2356.83690,0.00870
2354.77673,0.00946
2352.71656,0.00995
2350.65639,0.01009
2348.59621,0.01000
2346.53604,0.00982
2344.47587,0.00966
2342.41570,0.00921
2340.35552,0.00861
2338.29535,0.00880
2336.23518,0.00959
2334.17501,0.00974
2332.11484,0.00922
2330.05466,0.00896
2327.99449,0.00911
2325.93432,0.00930
2323.87415,0.00956
2321.81398,0.00984
2319.75380,0.00970
2317.69363,0.00925
2315.63346,0.00894
2313.57329,0.00864
2311.51312,0.00828
2309.45294,0.00824
2307.39277,0.00872
2305.33260,0.00936
2303.27243,0.00965
2301.21225,0.00948
2299.15208,0.00918
2297.09191,0.00903
2295.03174,0.00897
2292.97157,0.00876
2290.91139,0.00860
2288.85122,0.00881
2286.79105,0.00905
2284.73088,0.00882
2282.67071,0.00828
2280.61053,0.00805
2278.55036,0.00826
2276.49019,0.00851
2274.43002,0.00853
2272.36984,0.00828
2270.30967,0.00777
2268.24950,0.00732
2266.18933,0.00718
2264.12916,0.00716
2262.06898,0.00711
2260.00881,0.00676
2257.94864,0.00623
2255.88847,0.00620
2253.82830,0.00652
2251.76812,0.00654
2249.70795,0.00635
2247.64778,0.00636
2245.58761,0.00663
2243.52744,0.00676
2241.46726,0.00651
2239.40709,0.00613
2237.34692,0.00572
2235.28675,0.00534
2233.22657,0.00529
2231.16640,0.00573
2229.10623,0.00665
2227.04606,0.00754
2224.98589,0.00760
2222.92571,0.00653
2220.86554,0.00555
2218.80537,0.00580
2216.74520,0.00603
2214.68503,0.00544
2212.62485,0.00488
2210.56468,0.00464
2208.50451,0.00483
2206.44434,0.00514
2204.38417,0.00530
2202.32399,0.00599
2200.26382,0.00658
2198.20365,0.00607
2196.14348,0.00507
2194.08330,0.00496
2192.02313,0.00576
2189.96296,0.00564
2187.90279,0.00494
2185.84262,0.00512
2183.78244,0.00535
2181.72227,0.00468
2179.66210,0.00423
2177.60193,0.00499
2175.54176,0.00549
2173.48158,0.00492
2171.42141,0.00486
2169.36124,0.00559
2167.30107,0.00594
2165.24089,0.00557
2163.18072,0.00456
2161.12055,0.00336
2159.06038,0.00253
2157.00021,0.00226
2154.94003,0.00242
2152.87986,0.00228
2150.81969,0.00190
2148.75952,0.00234
2146.69935,0.00339
2144.63917,0.00456
2142.57900,0.00544
2140.51883,0.00508
2138.45866,0.00441
2136.39849,0.00435
2134.33831,0.00443
2132.27814,0.00470
2130.21797,0.00533
2128.15780,0.00585
2126.09762,0.00588
2124.03745,0.00592
2121.97728,0.00603
2119.91711,0.00566
2117.85694,0.00511
2115.79676,0.00501
2113.73659,0.00520
2111.67642,0.00546
2109.61625,0.00566
2107.55608,0.00571
2105.49590,0.00563
2103.43573,0.00513
2101.37556,0.00472
2099.31539,0.00491
2097.25521,0.00526
2095.19504,0.00554
2093.13487,0.00571
2091.07470,0.00530
2089.01453,0.00449
2086.95435,0.00402
2084.89418,0.00383
2082.83401,0.00389
2080.77384,0.00457
2078.71367,0.00552
2076.65349,0.00591
2074.59332,0.00544
2072.53315,0.00476
2070.47298,0.00469
2068.41281,0.00502
2066.35263,0.00494
2064.29246,0.00458
2062.23229,0.00451
2060.17212,0.00441
2058.11194,0.00383
2056.05177,0.00335
2053.99160,0.00375
2051.93143,0.00429
2049.87126,0.00406
2047.81108,0.00393
2045.75091,0.00428
2043.69074,0.00480
2041.63057,0.00521
2039.57040,0.00447
2037.51022,0.00302
2035.45005,0.00191
2033.38988,0.00143
2031.32971,0.00175
2029.26954,0.00240
2027.20936,0.00292
2025.14919,0.00334
2023.08902,0.00375
2021.02885,0.00384
2018.96867,0.00342
2016.90850,0.00282
2014.84833,0.00231
2012.78816,0.00284
2010.72799,0.00408
2008.66781,0.00363
2006.60764,0.00175
2004.54747,0.00103
2002.48730,0.00205
2000.42713,0.00387
1998.36695,0.00523
1996.30678,0.00517
1994.24661,0.00448
1992.18644,0.00444
1990.12626,0.00453
1988.06609,0.00402
1986.00592,0.00379
1983.94575,0.00445
1981.88558,0.00503
1979.82540,0.00391
1977.76523,0.00128
1975.70506,0.00000
1973.64489,0.00084
1971.58472,0.00178
1969.52454,0.00162
1967.46437,0.00074
1965.40420,0.00073
1963.34403,0.00204
1961.28386,0.00342
1959.22368,0.00377
1957.16351,0.00302
1955.10334,0.00233
1953.04317,0.00268
1950.98299,0.00311
1948.92282,0.00237
1946.86265,0.00140
1944.80248,0.00168
1942.74231,0.00245
1940.68213,0.00233
1938.62196,0.00179
1936.56179,0.00180
1934.50162,0.00226
1932.44145,0.00258
1930.38127,0.00258
1928.32110,0.00250
1926.26093,0.00247
1924.20076,0.00257
1922.14059,0.00294
1920.08041,0.00327
1918.02024,0.00296
1915.96007,0.00219
1913.89990,0.00185
1911.83972,0.00199
1909.77955,0.00208
1907.71938,0.00205
1905.65921,0.00203
1903.59904,0.00189
1901.53886,0.00161
1899.47869,0.00153
1897.41852,0.00173
1895.35835,0.00208
1893.29818,0.00245
1891.23800,0.00256
1889.17783,0.00219
1887.11766,0.00158
1885.05749,0.00111
1882.99731,0.00075
1880.93714,0.00066
1878.87697,0.00097
1876.81680,0.00115
1874.75663,0.00092
1872.69645,0.00086
1870.63628,0.00137
1868.57611,0.00197
1866.51594,0.00223
1864.45577,0.00218
1862.39559,0.00182
1860.33542,0.00136
1858.27525,0.00125
1856.21508,0.00147
1854.15491,0.00164
1852.09473,0.00158
1850.03456,0.00139
1847.97439,0.00112
1845.91422,0.00078
1843.85404,0.00050
1841.79387,0.00034
1839.73370,0.00029
1837.67353,0.00040
1835.61336,0.00065
1833.55318,0.00098
1831.49301,0.00115
1829.43284,0.00082
1827.37267,0.00025
1825.31250,0.00000
1823.25232,0.00004
1821.19215,0.00020
1819.13198,0.00030
1817.07181,0.00038
1815.01163,0.00053
1812.95146,0.00062
1810.89129,0.00054
1808.83112,0.00029
1806.77095,0.00010
1804.71077,0.00007
1802.65060,0.00008
1800.59043,-0.00001
1798.53026,-0.00019
1796.47009,-0.00030
1794.40991,-0.00013
1792.34974,0.00007
1790.28957,-0.00012
1788.22940,-0.00046
1786.16923,-0.00044
1784.10905,-0.00014
1782.04888,0.00000
1779.98871,-0.00009
1777.92854,-0.00015
1775.86836,-0.00019
1773.80819,-0.00027
1771.74802,-0.00027
1769.68785,-0.00001
1767.62768,0.00049
1765.56750,0.00103
1763.50733,0.00159
1761.44716,0.00235
1759.38699,0.00323
1757.32682,0.00416
1755.26664,0.00529
1753.20647,0.00669
1751.14630,0.00862
1749.08613,0.01109
1747.02596,0.01375
1744.96578,0.01674
1742.90561,0.02048
1740.84544,0.02499
1738.78527,0.02961
1736.72509,0.03350
1734.66492,0.03695
1732.60475,0.03978
1730.54458,0.04109
1728.48441,0.04139
1726.42423,0.04129
1724.36406,0.04085
1722.30389,0.04032
1720.24372,0.04006
1718.18355,0.03979
1716.12337,0.03922
1714.06320,0.03874
1712.00303,0.03858
1709.94286,0.03850
1707.88268,0.03820
1705.82251,0.03748
1703.76234,0.03662
1701.70217,0.03577
1699.64200,0.03468
1697.58182,0.03359
1695.52165,0.03272
1693.46148,0.03222
1691.40131,0.03203
1689.34114,0.03193
1687.28096,0.03195
1685.22079,0.03197
1683.16062,0.03148
1681.10045,0.03087
1679.04028,0.03061
1676.98010,0.03066
1674.91993,0.03109
1672.85976,0.03187
1670.79959,0.03263
1668.73941,0.03317
1666.67924,0.03388
1664.61907,0.03509
1662.55890,0.03667
1660.49873,0.03835
1658.43855,0.04007
1656.37838,0.04180
1654.31821,0.04304
1652.25804,0.04342
1650.19787,0.04390
1648.13769,0.04452
1646.07752,0.04453
1644.01735,0.04432
1641.95718,0.04451
1639.89701,0.04516
1637.83683,0.04602
1635.77666,0.04660
1633.71649,0.04694
1631.65632,0.04761
1629.59614,0.04847
1627.53597,0.04922
1625.47580,0.04981
1623.41563,0.05011
1621.35546,0.05036
1619.29528,0.05097
1617.23511,0.05176
1615.17494,0.05249
1613.11477,0.05334
1611.05460,0.05427
1608.99442,0.05505
1606.93425,0.05548
1604.87408,0.05546
1602.81391,0.05494
1600.75373,0.05395
1598.69356,0.05260
1596.63339,0.05093
1594.57322,0.04909
1592.51305,0.04731
1590.45287,0.04551
1588.39270,0.04365
1586.33253,0.04183
1584.27236,0.04005
1582.21219,0.03820
1580.15201,0.03643
1578.09184,0.03461
1576.03167,0.03243
1573.97150,0.03064
1571.91133,0.02969
1569.85115,0.02868
1567.79098,0.02736
1565.73081,0.02631
1563.67064,0.02576
1561.61046,0.02573
1559.55029,0.02579
1557.49012,0.02545
1555.42995,0.02520
1553.36978,0.02510
1551.30960,0.02507
1549.24943,0.02523
1547.18926,0.02568
1545.12909,0.02644
1543.06892,0.02713
1541.00874,0.02708
1538.94857,0.02642
1536.88840,0.02619
1534.82823,0.02595
1532.76805,0.02503
1530.70788,0.02410
1528.64771,0.02370
1526.58754,0.02346
1524.52737,0.02308
1522.46719,0.02264
1520.40702,0.02252
1518.34685,0.02293
1516.28668,0.02325
1514.22651,0.02311
1512.16633,0.02290
1510.10616,0.02266
1508.04599,0.02135
1505.98582,0.01861
1503.92565,0.01662
1501.86547,0.01562
1499.80530,0.01448
1497.74513,0.01281
1495.68496,0.01106
1493.62478,0.00982
1491.56461,0.00879
1489.50444,0.00734
1487.44427,0.00575
1485.38410,0.00478
1483.32392,0.00456
1481.26375,0.00488
1479.20358,0.00563
1477.14341,0.00693
1475.08324,0.00917
1473.02306,0.01230
1470.96289,0.01535
1468.90272,0.01779
1466.84255,0.02012
1464.78238,0.02245
1462.72220,0.02428
1460.66203,0.02575
1458.60186,0.02749
1456.54169,0.02933
1454.48151,0.03056
1452.42134,0.03148
1450.36117,0.03248
1448.30100,0.03364
1446.24083,0.03478
1444.18065,0.03565
1442.12048,0.03599
1440.06031,0.03571
1438.00014,0.03463
1435.93997,0.03262
1433.87979,0.03061
1431.81962,0.02915
1429.75945,0.02790
1427.69928,0.02679
1425.63910,0.02602
1423.57893,0.02568
1421.51876,0.02566
1419.45859,0.02551
1417.39842,0.02494
1415.33824,0.02439
1413.27807,0.02396
1411.21790,0.02344
1409.15773,0.02297
1407.09756,0.02272
1405.03738,0.02255
1402.97721,0.02244
1400.91704,0.02246
1398.85687,0.02256
1396.79670,0.02279
1394.73652,0.02318
1392.67635,0.02372
1390.61618,0.02443
1388.55601,0.02530
1386.49583,0.02623
1384.43566,0.02718
1382.37549,0.02826
1380.31532,0.02954
1378.25515,0.03088
1376.19497,0.03208
1374.13480,0.03307
1372.07463,0.03388
1370.01446,0.03447
1367.95429,0.03482
1365.89411,0.03508
1363.83394,0.03527
1361.77377,0.03529
1359.71360,0.03536
1357.65343,0.03566
1355.59325,0.03604
1353.53308,0.03635
1351.47291,0.03667
1349.41274,0.03704
1347.35256,0.03736
1345.29239,0.03769
1343.23222,0.03820
1341.17205,0.03882
1339.11188,0.03934
1337.05170,0.03983
1334.99153,0.04053
1332.93136,0.04137
1330.87119,0.04221
1328.81102,0.04307
1326.75084,0.04403
1324.69067,0.04516
1322.63050,0.04638
1320.57033,0.04743
1318.51015,0.04811
1316.44998,0.04841
1314.38981,0.04834
1312.32964,0.04796
1310.26947,0.04735
1308.20929,0.04639
1306.14912,0.04496
1304.08895,0.04319
1302.02878,0.04115
1299.96861,0.03890
1297.90843,0.03652
1295.84826,0.03425
1293.78809,0.03231
1291.72792,0.03073
1289.66775,0.02949
1287.60757,0.02859
1285.54740,0.02789
1283.48723,0.02744
1281.42706,0.02722
1279.36688,0.02705
1277.30671,0.02701
1275.24654,0.02726
1273.18637,0.02772
1271.12620,0.02815
1269.06602,0.02867
1267.00585,0.02937
1264.94568,0.03005
1262.88551,0.03067
1260.82534,0.03144
1258.76516,0.03227
1256.70499,0.03289
1254.64482,0.03338
1252.58465,0.03389
1250.52447,0.03452
1248.46430,0.03538
1246.40413,0.03644
1244.34396,0.03745
1242.28379,0.03834
1240.22361,0.03925
1238.16344,0.04018
1236.10327,0.04103
1234.04310,0.04182
1231.98293,0.04271
1229.92275,0.04377
1227.86258,0.04479
1225.80241,0.04561
1223.74224,0.04642
1221.68207,0.04730
1219.62189,0.04812
1217.56172,0.04886
1215.50155,0.04952
1213.44138,0.05026
1211.38120,0.05128
1209.32103,0.05242
1207.26086,0.05344
1205.20069,0.05435
1203.14052,0.05518
1201.08034,0.05593
1199.02017,0.05657
1196.96000,0.05689
1194.89983,0.05689
1192.83966,0.05678
1190.77948,0.05651
1188.71931,0.05587
1186.65914,0.05501
1184.59897,0.05427
1182.53880,0.05370
1180.47862,0.05335
1178.41845,0.05318
1176.35828,0.05306
1174.29811,0.05316
1172.23793,0.05367
1170.17776,0.05432
1168.11759,0.05479
1166.05742,0.05492
1163.99725,0.05468
1161.93707,0.05405
1159.87690,0.05320
1157.81673,0.05216
1155.75656,0.05069
1153.69639,0.04899
1151.63621,0.04739
1149.57604,0.04593
1147.51587,0.04461
1145.45570,0.04353
1143.39552,0.04239
1141.33535,0.04066
1139.27518,0.03867
1137.21501,0.03729
1135.15484,0.03659
1133.09466,0.03595
1131.03449,0.03547
1128.97432,0.03570
1126.91415,0.03657
1124.85398,0.03765
1122.79380,0.03889
1120.73363,0.04067
1118.67346,0.04302
1116.61329,0.04557
1114.55312,0.04814
1112.49294,0.05093
1110.43277,0.05400
1108.37260,0.05703
1106.31243,0.05980
1104.25225,0.06226
1102.19208,0.06428
1100.13191,0.06591
1098.07174,0.06736
1096.01157,0.06869
1093.95139,0.06994
1091.89122,0.07121
1089.83105,0.07269
1087.77088,0.07440
1085.71071,0.07638
1083.65053,0.07870
1081.59036,0.08102
1079.53019,0.08301
1077.47002,0.08489
1075.40985,0.08677
1073.34967,0.08847
1071.28950,0.08998
1069.22933,0.09129
1067.16916,0.09249
1065.10898,0.09363
1063.04881,0.09476
1060.98864,0.09591
1058.92847,0.09698
1056.86830,0.09805
1054.80812,0.09923
1052.74795,0.10041
1050.68778,0.10155
1048.62761,0.10298
1046.56744,0.10468
1044.50726,0.10625
1042.44709,0.10790
1040.38692,0.11011
1038.32675,0.11270
1036.26657,0.11524
1034.20640,0.11748
1032.14623,0.11953
1030.08606,0.12159
1028.02589,0.12332
1025.96571,0.12430
1023.90554,0.12454
1021.84537,0.12461
1019.78520,0.12488
1017.72503,0.12476
1015.66485,0.12392
1013.60468,0.12266
1011.54451,0.12114
1009.48434,0.11938
1007.42417,0.11727
1005.36399,0.11449
1003.30382,0.11098
1001.24365,0.10744
999.18348,0.10442
997.12330,0.10177
995.06313,0.09911
993.00296,0.09634
990.94279,0.09374
988.88262,0.09100
986.82244,0.08764
984.76227,0.08401
982.70210,0.08054
980.64193,0.07706
978.58176,0.07326
976.52158,0.06945
974.46141,0.06619
972.40124,0.06361
970.34107,0.06146
968.28089,0.05944
966.22072,0.05753
964.16055,0.05584
962.10038,0.05413
960.04021,0.05214
957.98003,0.04995
955.91986,0.04764
953.85969,0.04524
951.79952,0.04275
949.73935,0.04011
947.67917,0.03757
945.61900,0.03536
943.55883,0.03315
941.49866,0.03095
939.43849,0.02917
937.37831,0.02784
935.31814,0.02687
933.25797,0.02605
931.19780,0.02515
929.13762,0.02419
927.07745,0.02315
925.01728,0.02206
922.95711,0.02108
920.89694,0.02006
918.83676,0.01888
916.77659,0.01734
914.71642,0.01554
912.65625,0.01393
910.59608,0.01245
908.53590,0.01099
906.47573,0.01004
904.41556,0.00965
902.35539,0.00948
900.29522,0.00944
898.23504,0.00945
896.17487,0.00947
894.11470,0.00933
892.05453,0.00894
889.99435,0.00847
887.93418,0.00794
885.87401,0.00749
883.81384,0.00740
881.75367,0.00755
879.69349,0.00791
877.63332,0.00858
875.57315,0.00923
873.51298,0.00948
871.45281,0.00933
869.39263,0.00909
867.33246,0.00844
865.27229,0.00699
863.21212,0.00547
861.15194,0.00426
859.09177,0.00302
857.03160,0.00184
854.97143,0.00110
852.91126,0.00089
850.85108,0.00073
848.79091,0.00033
846.73074,0.00000
844.67057,0.00007
842.61040,0.00075
840.55022,0.00163
838.49005,0.00229
836.42988,0.00291
834.36971,0.00340
832.30954,0.00354
830.24936,0.00335
828.18919,0.00301
826.12902,0.00267
824.06885,0.00258
822.00867,0.00316
819.94850,0.00370
817.88833,0.00353
815.82816,0.00314
813.76799,0.00299
811.70781,0.00304
809.64764,0.00281
807.58747,0.00248
805.52730,0.00234
803.46713,0.00196
801.40695,0.00148
799.34678,0.00101
797.28661,0.00038
795.22644,0.00000
793.16627,-0.00040
791.10609,-0.00031
789.04592,0.00032
786.98575,0.00111
784.92558,0.00155
782.86540,0.00149
780.80523,0.00129
778.74506,0.00169
776.68489,0.00242
774.62472,0.00270
772.56454,0.00309
770.50437,0.00411
768.44420,0.00542
766.38403,0.00684
764.32386,0.00853
762.26368,0.01080
760.20351,0.01318
758.14334,0.01479
756.08317,0.01544
754.02299,0.01509
751.96282,0.01381
749.90265,0.01238
747.84248,0.01088
745.78231,0.00901
743.72213,0.00749
741.66196,0.00678
739.60179,0.00656
737.54162,0.00632
735.48145,0.00563
733.42127,0.00487
731.36110,0.00471
729.30093,0.00505
727.24076,0.00531
725.18059,0.00540
723.12041,0.00574
721.06024,0.00656
719.00007,0.00700
716.93990,0.00618
714.87972,0.00471
712.81955,0.00366
710.75938,0.00328
708.69921,0.00350
706.63904,0.00392
704.57886,0.00401
702.51869,0.00377
700.45852,0.00363
698.39835,0.00379
696.33818,0.00369
694.27800,0.00280
692.21783,0.00136
690.15766,0.00000
688.09749,-0.00059
686.03731,-0.00029
683.97714,-0.00020
681.91697,-0.00050
679.85680,-0.00029
677.79663,0.00035
675.73645,0.00040
673.67628,-0.00017
671.61611,-0.00020
669.55594,0.00094
667.49577,0.00240
665.43559,0.00313
663.37542,0.00365
661.31525,0.00425
659.25508,0.00411
657.19491,0.00267
655.13473,0.00056
653.07456,-0.00097
651.01439,-0.00091
648.95422,0.00024
646.89404,0.00055
644.83387,-0.00031
642.77370,-0.00119
640.71353,-0.00185
638.65336,-0.00198
636.59318,-0.00116
634.53301,-0.00038
632.47284,-0.00012
630.41267,0.00061
628.35250,0.00212
626.29232,0.00347
624.23215,0.00282
622.17198,0.00055
620.11181,-0.00048
618.05164,-0.00011
615.99146,0.00024
613.93129,0.00155
611.87112,0.00332
609.81095,0.00275
607.75077,0.00101
605.69060,0.00062
603.63043,0.00059
601.57026,0.00004
599.51009,0.00000
