3996.73391,0.00090
3994.67373,0.00066
3992.61356,0.00028
3990.55339,0.00000
3988.49322,0.00008
3986.43305,0.00058
3984.37287,0.00103
3982.31270,0.00113
3980.25253,0.00121
3978.19236,0.00154
3976.13219,0.00173
3974.07201,0.00154
3972.01184,0.00123
3969.95167,0.00088
3967.89150,0.00057
3965.83133,0.00064
3963.77115,0.00103
3961.71098,0.00121
3959.65081,0.00109
3957.59064,0.00106
3955.53046,0.00103
3953.47029,0.00101
3951.41012,0.00120
3949.34995,0.00146
3947.28978,0.00138
3945.22960,0.00152
3943.16943,0.00190
3941.10926,0.00157
3939.04909,0.00118
3936.98892,0.00114
3934.92874,0.00127
3932.86857,0.00159
3930.80840,0.00152
3928.74823,0.00119
3926.68805,0.00162
3924.62788,0.00217
3922.56771,0.00176
3920.50754,0.00149
3918.44737,0.00184
3916.38719,0.00200
3914.32702,0.00185
3912.26685,0.00191
3910.20668,0.00174
3908.14651,0.00134
3906.08633,0.00155
3904.02616,0.00176
3901.96599,0.00151
3899.90582,0.00151
3897.84565,0.00089
3895.78547,0.00040
3893.72530,0.00150
3891.66513,0.00250
3889.60496,0.00163
3887.54478,0.00161
3885.48461,0.00227
3883.42444,0.00169
3881.36427,0.00196
3879.30410,0.00203
3877.24392,0.00150
3875.18375,0.00173
3873.12358,0.00164
3871.06341,0.00185
3869.00324,0.00147
3866.94306,0.00078
3864.88289,0.00155
3862.82272,0.00156
3860.76255,0.00056
3858.70237,0.00000
3856.64220,0.00108
3854.58203,0.00375
3852.52186,0.00395
3850.46169,0.00150
3848.40151,0.00053
3846.34134,0.00120
3844.28117,0.00203
3842.22100,0.00209
3840.16083,0.00244
3838.10065,0.00289
3836.04048,0.00239
3833.98031,0.00219
3831.92014,0.00224
3829.85997,0.00177
3827.79979,0.00167
3825.73962,0.00133
3823.67945,0.00137
3821.61928,0.00236
3819.55910,0.00178
3817.49893,0.00208
3815.43876,0.00267
3813.37859,0.00155
3811.31842,0.00121
3809.25824,0.00238
3807.19807,0.00323
3805.13790,0.00230
3803.07773,0.00258
3801.01756,0.00290
3798.95738,0.00147
3796.89721,0.00120
3794.83704,0.00121
3792.77687,0.00128
3790.71670,0.00169
3788.65652,0.00187
3786.59635,0.00205
3784.53618,0.00193
3782.47601,0.00162
3780.41583,0.00217
3778.35566,0.00230
3776.29549,0.00160
3774.23532,0.00133
3772.17515,0.00194
3770.11497,0.00277
3768.05480,0.00285
3765.99463,0.00294
3763.93446,0.00250
3761.87429,0.00214
3759.81411,0.00229
3757.75394,0.00145
3755.69377,0.00027
3753.63360,0.00078
3751.57342,0.00220
3749.51325,0.00137
3747.45308,0.00006
3745.39291,0.00126
3743.33274,0.00145
3741.27256,0.00015
3739.21239,0.00000
3737.15222,0.00128
3735.09205,0.00284
3733.03188,0.00288
3730.97170,0.00140
3728.91153,0.00050
3726.85136,0.00108
3724.79119,0.00136
3722.73102,0.00142
3720.67084,0.00189
3718.61067,0.00207
3716.55050,0.00144
3714.49033,0.00151
3712.43015,0.00280
3710.36998,0.00304
3708.30981,0.00187
3706.24964,0.00112
3704.18947,0.00166
3702.12929,0.00239
3700.06912,0.00185
3698.00895,0.00127
3695.94878,0.00120
3693.88861,0.00127
3691.82843,0.00220
3689.76826,0.00352
3687.70809,0.00304
3685.64792,0.00159
3683.58775,0.00106
3681.52757,0.00105
3679.46740,0.00113
3677.40723,0.00205
3675.34706,0.00252
3673.28688,0.00113
3671.22671,0.00205
3669.16654,0.00312
3667.10637,0.00194
3665.04620,0.00139
3662.98602,0.00167
3660.92585,0.00172
3658.86568,0.00189
3656.80551,0.00229
3654.74534,0.00153
3652.68516,0.00142
3650.62499,0.00305
3648.56482,0.00360
3646.50465,0.00277
3644.44447,0.00242
3642.38430,0.00302
3640.32413,0.00354
3638.26396,0.00361
3636.20379,0.00349
3634.14361,0.00339
3632.08344,0.00363
3630.02327,0.00505
3627.96310,0.00520
3625.90293,0.00355
3623.84275,0.00303
3621.78258,0.00397
3619.72241,0.00515
3617.66224,0.00493
3615.60207,0.00451
3613.54189,0.00469
3611.48172,0.00436
3609.42155,0.00449
3607.36138,0.00504
3605.30120,0.00514
3603.24103,0.00559
3601.18086,0.00638
3599.12069,0.00670
3597.06052,0.00708
3595.00034,0.00749
3592.94017,0.00701
3590.88000,0.00670
3588.81983,0.00789
3586.75966,0.00892
3584.69948,0.00884
3582.63931,0.00906
3580.57914,0.00957
3578.51897,0.00986
3576.45879,0.00992
3574.39862,0.00969
3572.33845,0.00925
3570.27828,0.00930
3568.21811,0.00999
3566.15793,0.01009
3564.09776,0.00979
3562.03759,0.01028
3559.97742,0.01081
3557.91725,0.01075
3555.85707,0.01087
3553.79690,0.01169
3551.73673,0.01242
3549.67656,0.01282
3547.61639,0.01373
3545.55621,0.01451
3543.49604,0.01427
3541.43587,0.01392
3539.37570,0.01425
3537.31552,0.01483
3535.25535,0.01493
3533.19518,0.01488
3531.13501,0.01532
3529.07484,0.01594
3527.01466,0.01627
3524.95449,0.01642
3522.89432,0.01659
3520.83415,0.01685
3518.77398,0.01731
3516.71380,0.01757
3514.65363,0.01772
3512.59346,0.01819
3510.53329,0.01877
3508.47312,0.01880
3506.41294,0.01856
3504.35277,0.01877
3502.29260,0.01906
3500.23243,0.01944
3498.17225,0.02027
3496.11208,0.02096
3494.05191,0.02118
3491.99174,0.02141
3489.93157,0.02182
3487.87139,0.02203
3485.81122,0.02210
3483.75105,0.02249
3481.69088,0.02273
3479.63071,0.02242
3477.57053,0.02236
3475.51036,0.02283
3473.45019,0.02343
3471.39002,0.02383
3469.32984,0.02400
3467.26967,0.02407
3465.20950,0.02423
3463.14933,0.02467
3461.08916,0.02518
3459.02898,0.02560
3456.96881,0.02592
3454.90864,0.02601
3452.84847,0.02577
3450.78830,0.02563
3448.72812,0.02640
3446.66795,0.02736
3444.60778,0.02767
3442.54761,0.02790
3440.48744,0.02823
3438.42726,0.02856
3436.36709,0.02866
3434.30692,0.02867
3432.24675,0.02882
3430.18657,0.02904
3428.12640,0.02954
3426.06623,0.03020
3424.00606,0.03052
3421.94589,0.03057
3419.88571,0.03052
3417.82554,0.03065
3415.76537,0.03124
3413.70520,0.03189
3411.64503,0.03216
3409.58485,0.03228
3407.52468,0.03256
3405.46451,0.03258
3403.40434,0.03237
3401.34416,0.03242
3399.28399,0.03242
3397.22382,0.03230
3395.16365,0.03266
3393.10348,0.03323
3391.04330,0.03325
3388.98313,0.03333
3386.92296,0.03381
3384.86279,0.03426
3382.80262,0.03463
3380.74244,0.03490
3378.68227,0.03494
3376.62210,0.03495
3374.56193,0.03515
3372.50176,0.03534
3370.44158,0.03531
3368.38141,0.03544
3366.32124,0.03585
3364.26107,0.03619
3362.20089,0.03640
3360.14072,0.03636
3358.08055,0.03624
3356.02038,0.03640
3353.96021,0.03667
3351.90003,0.03669
3349.83986,0.03667
3347.77969,0.03701
3345.71952,0.03725
3343.65935,0.03722
3341.59917,0.03752
3339.53900,0.03797
3337.47883,0.03798
3335.41866,0.03769
3333.35849,0.03751
3331.29831,0.03749
3329.23814,0.03765
3327.17797,0.03804
3325.11780,0.03836
3323.05762,0.03833
3320.99745,0.03814
3318.93728,0.03810
3316.87711,0.03821
3314.81694,0.03822
3312.75676,0.03818
3310.69659,0.03835
3308.63642,0.03860
3306.57625,0.03870
3304.51608,0.03869
3302.45590,0.03873
3300.39573,0.03880
3298.33556,0.03873
3296.27539,0.03862
3294.21521,0.03868
3292.15504,0.03887
3290.09487,0.03906
3288.03470,0.03925
3285.97453,0.03925
3283.91435,0.03895
3281.85418,0.03877
3279.79401,0.03895
3277.73384,0.03907
3275.67367,0.03904
3273.61349,0.03923
3271.55332,0.03938
3269.49315,0.03928
3267.43298,0.03914
3265.37281,0.03899
3263.31263,0.03891
3261.25246,0.03899
3259.19229,0.03893
3257.13212,0.03869
3255.07194,0.03850
3253.01177,0.03827
3250.95160,0.03805
3248.89143,0.03800
3246.83126,0.03801
3244.77108,0.03804
3242.71091,0.03796
3240.65074,0.03785
3238.59057,0.03787
3236.53040,0.03806
3234.47022,0.03820
3232.41005,0.03797
3230.34988,0.03748
3228.28971,0.03717
3226.22954,0.03706
3224.16936,0.03687
3222.10919,0.03663
3220.04902,0.03664
3217.98885,0.03681
3215.92867,0.03694
3213.86850,0.03713
3211.80833,0.03725
3209.74816,0.03700
3207.68799,0.03642
3205.62781,0.03603
3203.56764,0.03607
3201.50747,0.03636
3199.44730,0.03650
3197.38713,0.03626
3195.32695,0.03581
3193.26678,0.03551
3191.20661,0.03540
3189.14644,0.03522
3187.08626,0.03477
3185.02609,0.03437
3182.96592,0.03436
3180.90575,0.03459
3178.84558,0.03471
3176.78540,0.03451
3174.72523,0.03395
3172.66506,0.03343
3170.60489,0.03328
3168.54472,0.03338
3166.48454,0.03352
3164.42437,0.03357
3162.36420,0.03342
3160.30403,0.03317
3158.24386,0.03295
3156.18368,0.03281
3154.12351,0.03279
3152.06334,0.03282
3150.00317,0.03282
3147.94299,0.03268
3145.88282,0.03230
3143.82265,0.03170
3141.76248,0.03120
3139.70231,0.03114
3137.64213,0.03124
3135.58196,0.03110
3133.52179,0.03087
3131.46162,0.03060
3129.40145,0.03038
3127.34127,0.03022
3125.28110,0.03008
3123.22093,0.03014
3121.16076,0.03025
3119.10058,0.03019
3117.04041,0.03001
3114.98024,0.02964
3112.92007,0.02915
3110.85990,0.02894
3108.79972,0.02906
3106.73955,0.02917
3104.67938,0.02911
3102.61921,0.02901
3100.55904,0.02889
3098.49886,0.02870
3096.43869,0.02858
3094.37852,0.02850
3092.31835,0.02837
3090.25818,0.02807
3088.19800,0.02787
3086.13783,0.02788
3084.07766,0.02779
3082.01749,0.02764
3079.95731,0.02757
3077.89714,0.02746
3075.83697,0.02725
3073.77680,0.02701
3071.71663,0.02680
3069.65645,0.02666
3067.59628,0.02663
3065.53611,0.02660
3063.47594,0.02644
3061.41577,0.02618
3059.35559,0.02597
3057.29542,0.02594
3055.23525,0.02597
3053.17508,0.02567
3051.11491,0.02510
3049.05473,0.02469
3046.99456,0.02463
3044.93439,0.02478
3042.87422,0.02487
3040.81404,0.02473
3038.75387,0.02443
3036.69370,0.02418
3034.63353,0.02407
3032.57336,0.02409
3030.51318,0.02411
3028.45301,0.02395
3026.39284,0.02371
3024.33267,0.02337
3022.27250,0.02300
3020.21232,0.02288
3018.15215,0.02291
3016.09198,0.02287
3014.03181,0.02270
3011.97163,0.02249
3009.91146,0.02245
3007.85129,0.02252
3005.79112,0.02246
3003.73095,0.02220
3001.67077,0.02187
2999.61060,0.02171
2997.55043,0.02171
2995.49026,0.02163
2993.43009,0.02153
2991.36991,0.02166
2989.30974,0.02194
2987.24957,0.02200
2985.18940,0.02184
2983.12923,0.02182
2981.06905,0.02196
2979.00888,0.02215
2976.94871,0.02241
2974.88854,0.02277
2972.82836,0.02319
2970.76819,0.02350
2968.70802,0.02370
2966.64785,0.02418
2964.58768,0.02498
2962.52750,0.02588
2960.46733,0.02682
2958.40716,0.02774
2956.34699,0.02842
2954.28682,0.02898
2952.22664,0.02972
2950.16647,0.03042
2948.10630,0.03096
2946.04613,0.03176
2943.98596,0.03305
2941.92578,0.03450
2939.86561,0.03587
2937.80544,0.03740
2935.74527,0.03919
2933.68509,0.04084
2931.62492,0.04232
2929.56475,0.04398
2927.50458,0.04558
2925.44441,0.04691
2923.38423,0.04813
2921.32406,0.04932
2919.26389,0.05032
2917.20372,0.05051
2915.14355,0.04926
2913.08337,0.04689
2911.02320,0.04438
2908.96303,0.04243
2906.90286,0.04100
2904.84268,0.03970
2902.78251,0.03836
2900.72234,0.03725
2898.66217,0.03657
2896.60200,0.03600
2894.54182,0.03531
2892.48165,0.03468
2890.42148,0.03421
2888.36131,0.03358
2886.30114,0.03257
2884.24096,0.03158
2882.18079,0.03115
2880.12062,0.03105
2878.06045,0.03075
2876.00028,0.03048
2873.94010,0.03043
2871.87993,0.03050
2869.81976,0.03064
2867.75959,0.03090
2865.69941,0.03136
2863.63924,0.03208
2861.57907,0.03316
2859.51890,0.03459
2857.45873,0.03624
2855.39855,0.03787
2853.33838,0.03947
2851.27821,0.04084
2849.21804,0.04098
2847.15787,0.03922
2845.09769,0.03623
2843.03752,0.03330
2840.97735,0.03090
2838.91718,0.02885
2836.85700,0.02736
2834.79683,0.02654
2832.73666,0.02596
2830.67649,0.02537
2828.61632,0.02481
2826.55614,0.02424
2824.49597,0.02366
2822.43580,0.02324
2820.37563,0.02306
2818.31546,0.02283
2816.25528,0.02252
2814.19511,0.02229
2812.13494,0.02206
2810.07477,0.02184
2808.01460,0.02161
2805.95442,0.02126
2803.89425,0.02099
2801.83408,0.02087
2799.77391,0.02068
2797.71373,0.02038
2795.65356,0.02019
2793.59339,0.02022
2791.53322,0.02026
2789.47305,0.02015
2787.41287,0.01995
2785.35270,0.01967
2783.29253,0.01941
2781.23236,0.01939
2779.17219,0.01945
2777.11201,0.01929
2775.05184,0.01918
2772.99167,0.01935
2770.93150,0.01942
2768.87133,0.01917
2766.81115,0.01889
2764.75098,0.01881
2762.69081,0.01889
2760.63064,0.01891
2758.57046,0.01871
2756.51029,0.01852
2754.45012,0.01855
2752.38995,0.01861
2750.32978,0.01852
2748.26960,0.01833
2746.20943,0.01817
2744.14926,0.01817
2742.08909,0.01830
2740.02892,0.01839
2737.96874,0.01839
2735.90857,0.01836
2733.84840,0.01815
2731.78823,0.01790
2729.72805,0.01791
2727.66788,0.01807
2725.60771,0.01816
2723.54754,0.01819
2721.48737,0.01812
2719.42719,0.01787
2717.36702,0.01756
2715.30685,0.01748
2713.24668,0.01764
2711.18651,0.01776
2709.12633,0.01772
2707.06616,0.01760
2705.00599,0.01759
2702.94582,0.01764
2700.88565,0.01746
2698.82547,0.01715
2696.76530,0.01701
2694.70513,0.01695
2692.64496,0.01683
2690.58478,0.01670
2688.52461,0.01666
2686.46444,0.01682
2684.40427,0.01701
2682.34410,0.01700
2680.28392,0.01692
2678.22375,0.01688
2676.16358,0.01676
2674.10341,0.01654
2672.04324,0.01636
2669.98306,0.01629
2667.92289,0.01624
2665.86272,0.01619
2663.80255,0.01625
2661.74238,0.01633
2659.68220,0.01627
2657.62203,0.01605
2655.56186,0.01588
2653.50169,0.01582
2651.44151,0.01567
2649.38134,0.01566
2647.32117,0.01579
2645.26100,0.01567
2643.20083,0.01534
2641.14065,0.01515
2639.08048,0.01512
2637.02031,0.01505
2634.96014,0.01499
2632.89997,0.01503
2630.83979,0.01489
2628.77962,0.01446
2626.71945,0.01411
2624.65928,0.01404
2622.59910,0.01410
2620.53893,0.01429
2618.47876,0.01449
2616.41859,0.01457
2614.35842,0.01453
2612.29824,0.01439
2610.23807,0.01422
2608.17790,0.01402
2606.11773,0.01384
2604.05756,0.01368
2601.99738,0.01341
2599.93721,0.01309
2597.87704,0.01289
2595.81687,0.01272
2593.75670,0.01276
2591.69652,0.01309
2589.63635,0.01332
2587.57618,0.01320
2585.51601,0.01289
2583.45583,0.01279
2581.39566,0.01294
2579.33549,0.01308
2577.27532,0.01314
2575.21515,0.01297
2573.15497,0.01266
2571.09480,0.01257
2569.03463,0.01263
2566.97446,0.01261
2564.91429,0.01262
2562.85411,0.01251
2560.79394,0.01221
2558.73377,0.01213
2556.67360,0.01210
2554.61342,0.01195
2552.55325,0.01182
2550.49308,0.01168
2548.43291,0.01142
2546.37274,0.01141
2544.31256,0.01178
2542.25239,0.01184
2540.19222,0.01171
2538.13205,0.01194
2536.07188,0.01201
2534.01170,0.01149
2531.95153,0.01120
2529.89136,0.01144
2527.83119,0.01150
2525.77102,0.01129
2523.71084,0.01116
2521.65067,0.01120
2519.59050,0.01121
2517.53033,0.01106
2515.47015,0.01078
2513.40998,0.01052
2511.34981,0.01072
2509.28964,0.01114
2507.22947,0.01120
2505.16929,0.01101
2503.10912,0.01090
2501.04895,0.01082
2498.98878,0.01062
2496.92861,0.01032
2494.86843,0.01039
2492.80826,0.01083
2490.74809,0.01090
2488.68792,0.01062
2486.62775,0.01064
2484.56757,0.01092
2482.50740,0.01084
2480.44723,0.01042
2478.38706,0.01028
2476.32688,0.01035
2474.26671,0.01011
2472.20654,0.00984
2470.14637,0.00979
2468.08620,0.00974
2466.02602,0.00976
2463.96585,0.00983
2461.90568,0.00971
2459.84551,0.00943
2457.78534,0.00929
2455.72516,0.00962
2453.66499,0.01009
2451.60482,0.01021
2449.54465,0.01002
2447.48447,0.00957
2445.42430,0.00899
2443.36413,0.00858
2441.30396,0.00851
2439.24379,0.00882
2437.18361,0.00929
2435.12344,0.00952
2433.06327,0.00936
2431.00310,0.00916
2428.94293,0.00914
2426.88275,0.00919
2424.82258,0.00927
2422.76241,0.00932
2420.70224,0.00931
2418.64207,0.00934
2416.58189,0.00931
2414.52172,0.00912
2412.46155,0.00885
2410.40138,0.00869
2408.34120,0.00874
2406.28103,0.00890
2404.22086,0.00893
2402.16069,0.00883
2400.10052,0.00889
2398.04034,0.00908
2395.98017,0.00902
2393.92000,0.00873
2391.85983,0.00847
2389.79966,0.00844
2387.73948,0.00854
2385.67931,0.00845
2383.61914,0.00813
2381.55897,0.00796
2379.49880,0.00806
2377.43862,0.00803
2375.37845,0.00805
2373.31828,0.00811
2371.25811,0.00805
2369.19793,0.00812
2367.13776,0.00825
2365.07759,0.00901
2363.01742,0.01066
2360.95725,0.01030
2358.89707,0.00912
2356.83690,0.00852
2354.77673,0.00862
2352.71656,0.00868
2350.65639,0.00757
2348.59621,0.00719
2346.53604,0.00952
2344.47587,0.00974
2342.41570,0.00860
2340.35552,0.00786
2338.29535,0.00801
2336.23518,0.00884
2334.17501,0.00897
2332.11484,0.00852
2330.05466,0.00804
2327.99449,0.00816
2325.93432,0.00851
2323.87415,0.00941
2321.81398,0.00996
2319.75380,0.00993
2317.69363,0.00890
2315.63346,0.00827
2313.57329,0.00837
2311.51312,0.00855
2309.45294,0.00856
2307.39277,0.00826
2305.33260,0.00779
2303.27243,0.00765
2301.21225,0.00795
2299.15208,0.00798
2297.09191,0.00780
2295.03174,0.00782
2292.97157,0.00786
2290.91139,0.00784
2288.85122,0.00786
2286.79105,0.00777
2284.73088,0.00741
2282.67071,0.00692
2280.61053,0.00657
2278.55036,0.00648
2276.49019,0.00645
2274.43002,0.00634
2272.36984,0.00638
2270.30967,0.00648
2268.24950,0.00647
2266.18933,0.00651
2264.12916,0.00667
2262.06898,0.00680
2260.00881,0.00646
2257.94864,0.00573
2255.88847,0.00562
2253.82830,0.00581
2251.76812,0.00537
2249.70795,0.00499
2247.64778,0.00558
2245.58761,0.00635
2243.52744,0.00642
2241.46726,0.00615
2239.40709,0.00601
2237.34692,0.00573
2235.28675,0.00545
2233.22657,0.00552
2231.16640,0.00550
2229.10623,0.00574
2227.04606,0.00674
2224.98589,0.00708
2222.92571,0.00637
2220.86554,0.00635
2218.80537,0.00697
2216.74520,0.00662
2214.68503,0.00531
2212.62485,0.00391
2210.56468,0.00283
2208.50451,0.00307
2206.44434,0.00436
2204.38417,0.00519
2202.32399,0.00555
2200.26382,0.00536
2198.20365,0.00481
2196.14348,0.00484
2194.08330,0.00561
2192.02313,0.00615
2189.96296,0.00548
2187.90279,0.00508
2185.84262,0.00568
2183.78244,0.00563
2181.72227,0.00503
2179.66210,0.00501
2177.60193,0.00560
2175.54176,0.00563
2173.48158,0.00442
2171.42141,0.00355
2169.36124,0.00414
2167.30107,0.00533
2165.24089,0.00592
2163.18072,0.00531
2161.12055,0.00374
2159.06038,0.00245
2157.00021,0.00226
2154.94003,0.00259
2152.87986,0.00248
2150.81969,0.00194
2148.75952,0.00237
2146.69935,0.00372
2144.63917,0.00443
2142.57900,0.00391
2140.51883,0.00275
2138.45866,0.00208
2136.39849,0.00204
2134.33831,0.00244
2132.27814,0.00333
2130.21797,0.00442
2128.15780,0.00514
2126.09762,0.00508
2124.03745,0.00477
2121.97728,0.00473
2119.91711,0.00454
2117.85694,0.00395
2115.79676,0.00371
2113.73659,0.00412
2111.67642,0.00445
2109.61625,0.00456
2107.55608,0.00478
2105.49590,0.00468
2103.43573,0.00432
2101.37556,0.00442
2099.31539,0.00467
2097.25521,0.00468
2095.19504,0.00485
2093.13487,0.00515
2091.07470,0.00505
2089.01453,0.00444
2086.95435,0.00398
2084.89418,0.00385
2082.83401,0.00399
2080.77384,0.00489
2078.71367,0.00558
2076.65349,0.00495
2074.59332,0.00429
2072.53315,0.00458
2070.47298,0.00479
2068.41281,0.00430
2066.35263,0.00364
2064.29246,0.00313
2062.23229,0.00307
2060.17212,0.00367
2058.11194,0.00446
2056.05177,0.00511
2053.99160,0.00544
2051.93143,0.00504
2049.87126,0.00378
2047.81108,0.00291
2045.75091,0.00316
2043.69074,0.00358
2041.63057,0.00370
2039.57040,0.00363
2037.51022,0.00350
2035.45005,0.00316
2033.38988,0.00260
2031.32971,0.00233
2029.26954,0.00236
2027.20936,0.00236
2025.14919,0.00261
2023.08902,0.00321
2021.02885,0.00268
2018.96867,0.00081
2016.90850,0.00000
2014.84833,0.00131
2012.78816,0.00332
2010.72799,0.00406
2008.66781,0.00343
2006.60764,0.00309
2004.54747,0.00323
2002.48730,0.00314
2000.42713,0.00353
1998.36695,0.00441
1996.30678,0.00440
1994.24661,0.00375
1992.18644,0.00370
1990.12626,0.00361
1988.06609,0.00318
1986.00592,0.00325
1983.94575,0.00411
1981.88558,0.00503
1979.82540,0.00484
1977.76523,0.00319
1975.70506,0.00192
1973.64489,0.00194
1971.58472,0.00198
1969.52454,0.00159
1967.46437,0.00107
1965.40420,0.00060
1963.34403,0.00115
1961.28386,0.00245
1959.22368,0.00305
1957.16351,0.00281
1955.10334,0.00269
1953.04317,0.00292
1950.98299,0.00281
1948.92282,0.00216
1946.86265,0.00168
1944.80248,0.00229
1942.74231,0.00330
1940.68213,0.00311
1938.62196,0.00298
1936.56179,0.00386
1934.50162,0.00462
1932.44145,0.00416
1930.38127,0.00297
1928.32110,0.00211
1926.26093,0.00171
1924.20076,0.00197
1922.14059,0.00234
1920.08041,0.00247
1918.02024,0.00254
1915.96007,0.00190
1913.89990,0.00153
1911.83972,0.00191
1909.77955,0.00256
1907.71938,0.00289
1905.65921,0.00276
1903.59904,0.00251
1901.53886,0.00232
1899.47869,0.00236
1897.41852,0.00267
1895.35835,0.00283
1893.29818,0.00245
1891.23800,0.00220
1889.17783,0.00195
1887.11766,0.00138
1885.05749,0.00119
1882.99731,0.00111
1880.93714,0.00108
1878.87697,0.00146
1876.81680,0.00178
1874.75663,0.00140
1872.69645,0.00074
1870.63628,0.00100
1868.57611,0.00178
1866.51594,0.00172
1864.45577,0.00144
1862.39559,0.00139
1860.33542,0.00140
1858.27525,0.00162
1856.21508,0.00202
1854.15491,0.00223
1852.09473,0.00192
1850.03456,0.00123
1847.97439,0.00056
1845.91422,0.00057
1843.85404,0.00078
1841.79387,0.00014
1839.73370,0.00009
1837.67353,0.00079
1835.61336,0.00097
1833.55318,0.00075
1831.49301,0.00111
1829.43284,0.00110
1827.37267,0.00035
1825.31250,0.00047
1823.25232,0.00078
1821.19215,0.00105
1819.13198,0.00148
1817.07181,0.00151
1815.01163,0.00118
1812.95146,0.00124
1810.89129,0.00163
1808.83112,0.00160
1806.77095,0.00132
1804.71077,0.00111
1802.65060,0.00118
1800.59043,0.00122
1798.53026,0.00063
1796.47009,0.00000
1794.40991,0.00038
1792.34974,0.00131
1790.28957,0.00069
1788.22940,-0.00007
1786.16923,0.00035
1784.10905,0.00068
1782.04888,0.00069
1779.98871,0.00057
1777.92854,0.00008
1775.86836,0.00008
1773.80819,0.00107
1771.74802,0.00144
1769.68785,0.00066
1767.62768,0.00049
1765.56750,0.00067
1763.50733,0.00158
1761.44716,0.00240
1759.38699,0.00248
1757.32682,0.00309
1755.26664,0.00335
1753.20647,0.00416
1751.14630,0.00635
1749.08613,0.00808
1747.02596,0.00895
1744.96578,0.01039
1742.90561,0.01321
1740.84544,0.01690
1738.78527,0.01957
1736.72509,0.02204
1734.66492,0.02609
1732.60475,0.02789
1730.54458,0.02790
1728.48441,0.02835
1726.42423,0.02878
1724.36406,0.02874
1722.30389,0.02769
1720.24372,0.02747
1718.18355,0.02869
1716.12337,0.02829
1714.06320,0.02686
1712.00303,0.02612
1709.94286,0.02605
1707.88268,0.02633
1705.82251,0.02603
1703.76234,0.02461
1701.70217,0.02467
1699.64200,0.02465
1697.58182,0.02362
1695.52165,0.02334
1693.46148,0.02202
1691.40131,0.02170
1689.34114,0.02191
1687.28096,0.02211
1685.22079,0.02386
1683.16062,0.02360
1681.10045,0.02134
1679.04028,0.02068
1676.98010,0.02171
1674.91993,0.02248
1672.85976,0.02216
1670.79959,0.02331
1668.73941,0.02397
1666.67924,0.02324
1664.61907,0.02452
1662.55890,0.02677
1660.49873,0.02710
1658.43855,0.02701
1656.37838,0.02887
1654.31821,0.03252
1652.25804,0.03174
1650.19787,0.02844
1648.13769,0.02982
1646.07752,0.03147
1644.01735,0.03037
1641.95718,0.02985
1639.89701,0.03036
1637.83683,0.03209
1635.77666,0.03392
1633.71649,0.03295
1631.65632,0.03225
1629.59614,0.03337
1627.53597,0.03420
1625.47580,0.03467
1623.41563,0.03516
1621.35546,0.03431
1619.29528,0.03478
1617.23511,0.03706
1615.17494,0.03722
1613.11477,0.03673
1611.05460,0.03766
1608.99442,0.03859
1606.93425,0.03875
1604.87408,0.03884
1602.81391,0.03895
1600.75373,0.03853
1598.69356,0.03768
1596.63339,0.03679
1594.57322,0.03571
1592.51305,0.03443
1590.45287,0.03331
1588.39270,0.03224
1586.33253,0.03111
1584.27236,0.02992
1582.21219,0.02843
1580.15201,0.02700
1578.09184,0.02682
1576.03167,0.02608
1573.97150,0.02298
1571.91133,0.02189
1569.85115,0.02251
1567.79098,0.02099
1565.73081,0.01920
1563.67064,0.01813
1561.61046,0.01928
1559.55029,0.02242
1557.49012,0.02038
1555.42995,0.01789
1553.36978,0.01787
1551.30960,0.01825
1549.24943,0.01807
1547.18926,0.01756
1545.12909,0.01787
1543.06892,0.01852
1541.00874,0.01961
1538.94857,0.01855
1536.88840,0.01635
1534.82823,0.01723
1532.76805,0.01776
1530.70788,0.01607
1528.64771,0.01569
1526.58754,0.01571
1524.52737,0.01500
1522.46719,0.01534
1520.40702,0.01504
1518.34685,0.01466
1516.28668,0.01519
1514.22651,0.01457
1512.16633,0.01372
1510.10616,0.01400
1508.04599,0.01566
1505.98582,0.01441
1503.92565,0.01066
1501.86547,0.00941
1499.80530,0.01000
1497.74513,0.01004
1495.68496,0.00813
1493.62478,0.00596
1491.56461,0.00603
1489.50444,0.00624
1487.44427,0.00455
1485.38410,0.00308
1483.32392,0.00314
1481.26375,0.00383
1479.20358,0.00413
1477.14341,0.00496
1475.08324,0.00708
1473.02306,0.01002
1470.96289,0.01125
1468.90272,0.01188
1466.84255,0.01444
1464.78238,0.01688
1462.72220,0.01674
1460.66203,0.01707
1458.60186,0.02006
1456.54169,0.02193
1454.48151,0.02083
1452.42134,0.02076
1450.36117,0.02210
1448.30100,0.02352
1446.24083,0.02408
1444.18065,0.02424
1442.12048,0.02437
1440.06031,0.02441
1438.00014,0.02487
1435.93997,0.02386
1433.87979,0.02134
1431.81962,0.02042
1429.75945,0.02013
1427.69928,0.01916
1425.63910,0.01869
1423.57893,0.01840
1421.51876,0.01837
1419.45859,0.01927
1417.39842,0.01888
1415.33824,0.01798
1413.27807,0.01801
1411.21790,0.01808
1409.15773,0.01768
1407.09756,0.01755
1405.03738,0.01748
1402.97721,0.01674
1400.91704,0.01658
1398.85687,0.01703
1396.79670,0.01732
1394.73652,0.01773
1392.67635,0.01758
1390.61618,0.01786
1388.55601,0.01919
1386.49583,0.01997
1384.43566,0.02000
1382.37549,0.02059
1380.31532,0.02159
1378.25515,0.02250
1376.19497,0.02367
1374.13480,0.02485
1372.07463,0.02513
1370.01446,0.02528
1367.95429,0.02531
1365.89411,0.02523
1363.83394,0.02583
1361.77377,0.02605
1359.71360,0.02556
1357.65343,0.02557
1355.59325,0.02604
1353.53308,0.02631
1351.47291,0.02640
1349.41274,0.02654
1347.35256,0.02663
1345.29239,0.02660
1343.23222,0.02671
1341.17205,0.02736
1339.11188,0.02789
1337.05170,0.02784
1334.99153,0.02804
1332.93136,0.02872
1330.87119,0.02943
1328.81102,0.03002
1326.75084,0.03057
1324.69067,0.03108
1322.63050,0.03163
1320.57033,0.03235
1318.51015,0.03284
1316.44998,0.03275
1314.38981,0.03250
1312.32964,0.03211
1310.26947,0.03155
1308.20929,0.03088
1306.14912,0.02992
1304.08895,0.02870
1302.02878,0.02728
1299.96861,0.02573
1297.90843,0.02416
1295.84826,0.02276
1293.78809,0.02165
1291.72792,0.02069
1289.66775,0.01991
1287.60757,0.01935
1285.54740,0.01897
1283.48723,0.01880
1281.42706,0.01864
1279.36688,0.01846
1277.30671,0.01854
1275.24654,0.01886
1273.18637,0.01928
1271.12620,0.01969
1269.06602,0.02011
1267.00585,0.02068
1264.94568,0.02132
1262.88551,0.02195
1260.82534,0.02255
1258.76516,0.02300
1256.70499,0.02337
1254.64482,0.02372
1252.58465,0.02405
1250.52447,0.02457
1248.46430,0.02532
1246.40413,0.02604
1244.34396,0.02658
1242.28379,0.02704
1240.22361,0.02747
1238.16344,0.02789
1236.10327,0.02839
1234.04310,0.02895
1231.98293,0.02951
1229.92275,0.03013
1227.86258,0.03075
1225.80241,0.03135
1223.74224,0.03209
1221.68207,0.03283
1219.62189,0.03329
1217.56172,0.03358
1215.50155,0.03384
1213.44138,0.03421
1211.38120,0.03474
1209.32103,0.03527
1207.26086,0.03575
1205.20069,0.03636
1203.14052,0.03691
1201.08034,0.03714
1199.02017,0.03717
1196.96000,0.03713
1194.89983,0.03692
1192.83966,0.03667
1190.77948,0.03636
1188.71931,0.03579
1186.65914,0.03516
1184.59897,0.03460
1182.53880,0.03404
1180.47862,0.03373
1178.41845,0.03375
1176.35828,0.03392
1174.29811,0.03416
1172.23793,0.03443
1170.17776,0.03476
1168.11759,0.03503
1166.05742,0.03510
1163.99725,0.03478
1161.93707,0.03419
1159.87690,0.03370
1157.81673,0.03332
1155.75656,0.03263
1153.69639,0.03160
1151.63621,0.03057
1149.57604,0.02973
1147.51587,0.02901
1145.45570,0.02823
1143.39552,0.02741
1141.33535,0.02649
1139.27518,0.02557
1137.21501,0.02491
1135.15484,0.02446
1133.09466,0.02402
1131.03449,0.02373
1128.97432,0.02377
1126.91415,0.02417
1124.85398,0.02499
1122.79380,0.02617
1120.73363,0.02758
1118.67346,0.02916
1116.61329,0.03093
1114.55312,0.03285
1112.49294,0.03478
1110.43277,0.03672
1108.37260,0.03872
1106.31243,0.04082
1104.25225,0.04274
1102.19208,0.04411
1100.13191,0.04499
1098.07174,0.04572
1096.01157,0.04666
1093.95139,0.04786
1091.89122,0.04912
1089.83105,0.05049
1087.77088,0.05188
1085.71071,0.05312
1083.65053,0.05443
1081.59036,0.05584
1079.53019,0.05725
1077.47002,0.05879
1075.40985,0.06018
1073.34967,0.06120
1071.28950,0.06212
1069.22933,0.06308
1067.16916,0.06400
1065.10898,0.06483
1063.04881,0.06560
1060.98864,0.06650
1058.92847,0.06755
1056.86830,0.06861
1054.80812,0.06971
1052.74795,0.07086
1050.68778,0.07206
1048.62761,0.07322
1046.56744,0.07425
1044.50726,0.07535
1042.44709,0.07676
1040.38692,0.07832
1038.32675,0.07981
1036.26657,0.08122
1034.20640,0.08255
1032.14623,0.08375
1030.08606,0.08465
1028.02589,0.08531
1025.96571,0.08601
1023.90554,0.08649
1021.84537,0.08648
1019.78520,0.08620
1017.72503,0.08584
1015.66485,0.08524
1013.60468,0.08422
1011.54451,0.08298
1009.48434,0.08169
1007.42417,0.08010
1005.36399,0.07803
1003.30382,0.07570
1001.24365,0.07351
999.18348,0.07148
997.12330,0.06934
995.06313,0.06721
993.00296,0.06541
990.94279,0.06380
988.88262,0.06202
986.82244,0.06001
984.76227,0.05788
982.70210,0.05563
980.64193,0.05331
978.58176,0.05087
976.52158,0.04839
974.46141,0.04612
972.40124,0.04404
970.34107,0.04212
968.28089,0.04066
966.22072,0.03964
964.16055,0.03867
962.10038,0.03751
960.04021,0.03619
957.98003,0.03465
955.91986,0.03288
953.85969,0.03114
951.79952,0.02955
949.73935,0.02798
947.67917,0.02629
945.61900,0.02444
943.55883,0.02259
941.49866,0.02095
939.43849,0.01970
937.37831,0.01902
935.31814,0.01883
933.25797,0.01850
931.19780,0.01764
929.13762,0.01661
927.07745,0.01569
925.01728,0.01496
922.95711,0.01449
920.89694,0.01410
918.83676,0.01351
916.77659,0.01249
914.71642,0.01120
912.65625,0.01014
910.59608,0.00930
908.53590,0.00837
906.47573,0.00740
904.41556,0.00668
902.35539,0.00634
900.29522,0.00635
898.23504,0.00674
896.17487,0.00723
894.11470,0.00723
892.05453,0.00684
889.99435,0.00656
887.93418,0.00639
885.87401,0.00624
883.81384,0.00611
881.75367,0.00591
879.69349,0.00592
877.63332,0.00627
875.57315,0.00669
873.51298,0.00707
871.45281,0.00721
869.39263,0.00689
867.33246,0.00627
865.27229,0.00524
863.21212,0.00397
861.15194,0.00301
859.09177,0.00235
857.03160,0.00151
854.97143,0.00070
852.91126,0.00047
850.85108,0.00042
848.79091,0.00015
846.73074,0.00000
844.67057,0.00010
842.61040,0.00078
840.55022,0.00166
838.49005,0.00208
836.42988,0.00234
834.36971,0.00261
832.30954,0.00254
830.24936,0.00225
828.18919,0.00206
826.12902,0.00181
824.06885,0.00178
822.00867,0.00234
819.94850,0.00284
817.88833,0.00300
815.82816,0.00301
813.76799,0.00288
811.70781,0.00274
809.64764,0.00255
807.58747,0.00221
805.52730,0.00166
803.46713,0.00113
801.40695,0.00104
799.34678,0.00093
797.28661,0.00044
795.22644,0.00000
793.16627,-0.00032
791.10609,-0.00031
789.04592,-0.00005
786.98575,0.00030
784.92558,0.00047
782.86540,0.00059
780.80523,0.00125
778.74506,0.00239
776.68489,0.00293
774.62472,0.00265
772.56454,0.00261
770.50437,0.00321
768.44420,0.00403
766.38403,0.00505
764.32386,0.00619
762.26368,0.00737
760.20351,0.00857
758.14334,0.00927
756.08317,0.00912
754.02299,0.00834
751.96282,0.00760
749.90265,0.00737
747.84248,0.00731
745.78231,0.00684
743.72213,0.00551
741.66196,0.00385
739.60179,0.00300
737.54162,0.00279
735.48145,0.00261
733.42127,0.00242
731.36110,0.00213
729.30093,0.00215
727.24076,0.00254
725.18059,0.00284
723.12041,0.00304
721.06024,0.00379
719.00007,0.00413
716.93990,0.00382
714.87972,0.00298
712.81955,0.00207
710.75938,0.00166
708.69921,0.00185
706.63904,0.00215
704.57886,0.00215
702.51869,0.00205
700.45852,0.00212
698.39835,0.00247
696.33818,0.00291
694.27800,0.00268
692.21783,0.00139
690.15766,-0.00007
688.09749,-0.00071
686.03731,-0.00075
683.97714,-0.00078
681.91697,-0.00104
679.85680,-0.00147
677.79663,-0.00141
675.73645,-0.00085
673.67628,-0.00137
671.61611,-0.00287
669.55594,-0.00010
667.49577,0.00360
665.43559,-0.00053
663.37542,0.00059
661.31525,0.00238
659.25508,0.00265
657.19491,0.00213
655.13473,0.00130
653.07456,0.00025
651.01439,-0.00039
648.95422,0.00000
646.89404,0.00019
644.83387,-0.00020
642.77370,-0.00046
640.71353,-0.00025
638.65336,-0.00019
636.59318,-0.00028
634.53301,-0.00009
632.47284,0.00088
630.41267,0.00239
628.35250,0.00277
626.29232,0.00081
624.23215,-0.00055
622.17198,0.00100
620.11181,0.00297
618.05164,0.00365
615.99146,0.00447
613.93129,0.00505
611.87112,0.00383
609.81095,0.00188
607.75077,0.00078
605.69060,0.00034
603.63043,0.00035
601.57026,0.00065
599.51009,0.00000
