3996.73391,0.00077
3994.67373,0.00049
3992.61356,0.00058
3990.55339,0.00076
3988.49322,0.00055
3986.43305,0.00019
3984.37287,0.00021
3982.31270,0.00055
3980.25253,0.00080
3978.19236,0.00087
3976.13219,0.00083
3974.07201,0.00083
3972.01184,0.00089
3969.95167,0.00077
3967.89150,0.00035
3965.83133,0.00000
3963.77115,0.00005
3961.71098,0.00035
3959.65081,0.00072
3957.59064,0.00103
3955.53046,0.00111
3953.47029,0.00091
3951.41012,0.00071
3949.34995,0.00074
3947.28978,0.00095
3945.22960,0.00107
3943.16943,0.00095
3941.10926,0.00078
3939.04909,0.00072
3936.98892,0.00070
3934.92874,0.00066
3932.86857,0.00051
3930.80840,0.00029
3928.74823,0.00034
3926.68805,0.00070
3924.62788,0.00089
3922.56771,0.00084
3920.50754,0.00090
3918.44737,0.00090
3916.38719,0.00049
3914.32702,0.00013
3912.26685,0.00050
3910.20668,0.00122
3908.14651,0.00167
3906.08633,0.00167
3904.02616,0.00142
3901.96599,0.00133
3899.90582,0.00128
3897.84565,0.00104
3895.78547,0.00107
3893.72530,0.00144
3891.66513,0.00150
3889.60496,0.00124
3887.54478,0.00122
3885.48461,0.00122
3883.42444,0.00083
3881.36427,0.00021
3879.30410,0.00000
3877.24392,0.00069
3875.18375,0.00162
3873.12358,0.00199
3871.06341,0.00183
3869.00324,0.00143
3866.94306,0.00126
3864.88289,0.00120
3862.82272,0.00086
3860.76255,0.00071
3858.70237,0.00108
3856.64220,0.00163
3854.58203,0.00163
3852.52186,0.00077
3850.46169,0.00040
3848.40151,0.00098
3846.34134,0.00171
3844.28117,0.00199
3842.22100,0.00177
3840.16083,0.00126
3838.10065,0.00075
3836.04048,0.00076
3833.98031,0.00112
3831.92014,0.00117
3829.85997,0.00098
3827.79979,0.00086
3825.73962,0.00098
3823.67945,0.00155
3821.61928,0.00212
3819.55910,0.00209
3817.49893,0.00168
3815.43876,0.00115
3813.37859,0.00088
3811.31842,0.00109
3809.25824,0.00140
3807.19807,0.00148
3805.13790,0.00150
3803.07773,0.00132
3801.01756,0.00072
3798.95738,0.00045
3796.89721,0.00043
3794.83704,0.00017
3792.77687,0.00032
3790.71670,0.00101
3788.65652,0.00160
3786.59635,0.00176
3784.53618,0.00178
3782.47601,0.00181
3780.41583,0.00161
3778.35566,0.00134
3776.29549,0.00155
3774.23532,0.00203
3772.17515,0.00216
3770.11497,0.00173
3768.05480,0.00119
3765.99463,0.00102
3763.93446,0.00120
3761.87429,0.00143
3759.81411,0.00130
3757.75394,0.00099
3755.69377,0.00105
3753.63360,0.00132
3751.57342,0.00113
3749.51325,0.00037
3747.45308,0.00000
3745.39291,0.00004
3743.33274,0.00024
3741.27256,0.00099
3739.21239,0.00182
3737.15222,0.00188
3735.09205,0.00099
3733.03188,0.00002
3730.97170,0.00014
3728.91153,0.00102
3726.85136,0.00169
3724.79119,0.00175
3722.73102,0.00130
3720.67084,0.00074
3718.61067,0.00057
3716.55050,0.00104
3714.49033,0.00153
3712.43015,0.00130
3710.36998,0.00075
3708.30981,0.00069
3706.24964,0.00105
3704.18947,0.00144
3702.12929,0.00159
3700.06912,0.00157
3698.00895,0.00173
3695.94878,0.00212
3693.88861,0.00244
3691.82843,0.00252
3689.76826,0.00213
3687.70809,0.00138
3685.64792,0.00084
3683.58775,0.00080
3681.52757,0.00115
3679.46740,0.00175
3677.40723,0.00203
3675.34706,0.00172
3673.28688,0.00199
3671.22671,0.00271
3669.16654,0.00234
3667.10637,0.00141
3665.04620,0.00119
3662.98602,0.00134
3660.92585,0.00138
3658.86568,0.00156
3656.80551,0.00204
3654.74534,0.00254
3652.68516,0.00264
3650.62499,0.00199
3648.56482,0.00093
3646.50465,0.00070
3644.44447,0.00148
3642.38430,0.00229
3640.32413,0.00248
3638.26396,0.00254
3636.20379,0.00304
3634.14361,0.00372
3632.08344,0.00408
3630.02327,0.00384
3627.96310,0.00340
3625.90293,0.00360
3623.84275,0.00425
3621.78258,0.00457
3619.72241,0.00426
3617.66224,0.00393
3615.60207,0.00401
3613.54189,0.00393
3611.48172,0.00349
3609.42155,0.00344
3607.36138,0.00407
3605.30120,0.00485
3603.24103,0.00529
3601.18086,0.00540
3599.12069,0.00563
3597.06052,0.00596
3595.00034,0.00592
3592.94017,0.00556
3590.88000,0.00538
3588.81983,0.00532
3586.75966,0.00543
3584.69948,0.00592
3582.63931,0.00654
3580.57914,0.00702
3578.51897,0.00737
3576.45879,0.00755
3574.39862,0.00760
3572.33845,0.00782
3570.27828,0.00847
3568.21811,0.00918
3566.15793,0.00904
3564.09776,0.00821
3562.03759,0.00777
3559.97742,0.00802
3557.91725,0.00857
3555.85707,0.00898
3553.79690,0.00899
3551.73673,0.00878
3549.67656,0.00876
3547.61639,0.00897
3545.55621,0.00929
3543.49604,0.00970
3541.43587,0.00995
3539.37570,0.00985
3537.31552,0.00967
3535.25535,0.00988
3533.19518,0.01052
3531.13501,0.01109
3529.07484,0.01131
3527.01466,0.01136
3524.95449,0.01140
3522.89432,0.01134
3520.83415,0.01113
3518.77398,0.01104
3516.71380,0.01109
3514.65363,0.01123
3512.59346,0.01152
3510.53329,0.01183
3508.47312,0.01198
3506.41294,0.01219
3504.35277,0.01247
3502.29260,0.01253
3500.23243,0.01237
3498.17225,0.01235
3496.11208,0.01269
3494.05191,0.01312
3491.99174,0.01336
3489.93157,0.01349
3487.87139,0.01368
3485.81122,0.01381
3483.75105,0.01368
3481.69088,0.01353
3479.63071,0.01375
3477.57053,0.01424
3475.51036,0.01454
3473.45019,0.01460
3471.39002,0.01468
3469.32984,0.01479
3467.26967,0.01489
3465.20950,0.01503
3463.14933,0.01509
3461.08916,0.01498
3459.02898,0.01505
3456.96881,0.01541
3454.90864,0.01557
3452.84847,0.01540
3450.78830,0.01549
3448.72812,0.01598
3446.66795,0.01617
3444.60778,0.01579
3442.54761,0.01546
3440.48744,0.01559
3438.42726,0.01594
3436.36709,0.01634
3434.30692,0.01674
3432.24675,0.01705
3430.18657,0.01724
3428.12640,0.01726
3426.06623,0.01704
3424.00606,0.01693
3421.94589,0.01721
3419.88571,0.01753
3417.82554,0.01766
3415.76537,0.01757
3413.70520,0.01724
3411.64503,0.01711
3409.58485,0.01748
3407.52468,0.01778
3405.46451,0.01774
3403.40434,0.01792
3401.34416,0.01830
3399.28399,0.01851
3397.22382,0.01853
3395.16365,0.01849
3393.10348,0.01854
3391.04330,0.01870
3388.98313,0.01899
3386.92296,0.01928
3384.86279,0.01924
3382.80262,0.01899
3380.74244,0.01882
3378.68227,0.01885
3376.62210,0.01920
3374.56193,0.01952
3372.50176,0.01951
3370.44158,0.01953
3368.38141,0.01982
3366.32124,0.01997
3364.26107,0.01992
3362.20089,0.02005
3360.14072,0.02022
3358.08055,0.02009
3356.02038,0.01981
3353.96021,0.01974
3351.90003,0.01983
3349.83986,0.01985
3347.77969,0.01984
3345.71952,0.01989
3343.65935,0.02004
3341.59917,0.02035
3339.53900,0.02073
3337.47883,0.02109
3335.41866,0.02125
3333.35849,0.02112
3331.29831,0.02087
3329.23814,0.02066
3327.17797,0.02058
3325.11780,0.02070
3323.05762,0.02096
3320.99745,0.02113
3318.93728,0.02107
3316.87711,0.02105
3314.81694,0.02114
3312.75676,0.02113
3310.69659,0.02103
3308.63642,0.02101
3306.57625,0.02107
3304.51608,0.02105
3302.45590,0.02096
3300.39573,0.02114
3298.33556,0.02158
3296.27539,0.02174
3294.21521,0.02154
3292.15504,0.02144
3290.09487,0.02158
3288.03470,0.02167
3285.97453,0.02152
3283.91435,0.02141
3281.85418,0.02169
3279.79401,0.02210
3277.73384,0.02238
3275.67367,0.02249
3273.61349,0.02242
3271.55332,0.02245
3269.49315,0.02262
3267.43298,0.02257
3265.37281,0.02241
3263.31263,0.02254
3261.25246,0.02281
3259.19229,0.02277
3257.13212,0.02245
3255.07194,0.02233
3253.01177,0.02256
3250.95160,0.02272
3248.89143,0.02255
3246.83126,0.02227
3244.77108,0.02231
3242.71091,0.02247
3240.65074,0.02232
3238.59057,0.02203
3236.53040,0.02205
3234.47022,0.02233
3232.41005,0.02257
3230.34988,0.02274
3228.28971,0.02296
3226.22954,0.02310
3224.16936,0.02297
3222.10919,0.02273
3220.04902,0.02271
3217.98885,0.02284
3215.92867,0.02294
3213.86850,0.02302
3211.80833,0.02300
3209.74816,0.02270
3207.68799,0.02235
3205.62781,0.02233
3203.56764,0.02255
3201.50747,0.02268
3199.44730,0.02244
3197.38713,0.02222
3195.32695,0.02247
3193.26678,0.02270
3191.20661,0.02266
3189.14644,0.02268
3187.08626,0.02276
3185.02609,0.02258
3182.96592,0.02237
3180.90575,0.02239
3178.84558,0.02221
3176.78540,0.02189
3174.72523,0.02197
3172.66506,0.02229
3170.60489,0.02250
3168.54472,0.02240
3166.48454,0.02199
3164.42437,0.02173
3162.36420,0.02193
3160.30403,0.02221
3158.24386,0.02222
3156.18368,0.02209
3154.12351,0.02207
3152.06334,0.02208
3150.00317,0.02191
3147.94299,0.02177
3145.88282,0.02186
3143.82265,0.02189
3141.76248,0.02172
3139.70231,0.02161
3137.64213,0.02162
3135.58196,0.02169
3133.52179,0.02183
3131.46162,0.02185
3129.40145,0.02165
3127.34127,0.02141
3125.28110,0.02125
3123.22093,0.02129
3121.16076,0.02142
3119.10058,0.02118
3117.04041,0.02071
3114.98024,0.02063
3112.92007,0.02092
3110.85990,0.02103
3108.79972,0.02074
3106.73955,0.02036
3104.67938,0.02016
3102.61921,0.02007
3100.55904,0.02004
3098.49886,0.02008
3096.43869,0.02004
3094.37852,0.01998
3092.31835,0.02008
3090.25818,0.02011
3088.19800,0.01997
3086.13783,0.01968
3084.07766,0.01937
3082.01749,0.01931
3079.95731,0.01943
3077.89714,0.01934
3075.83697,0.01911
3073.77680,0.01911
3071.71663,0.01929
3069.65645,0.01940
3067.59628,0.01948
3065.53611,0.01954
3063.47594,0.01941
3061.41577,0.01906
3059.35559,0.01864
3057.29542,0.01840
3055.23525,0.01844
3053.17508,0.01854
3051.11491,0.01850
3049.05473,0.01830
3046.99456,0.01805
3044.93439,0.01798
3042.87422,0.01804
3040.81404,0.01797
3038.75387,0.01773
3036.69370,0.01758
3034.63353,0.01770
3032.57336,0.01788
3030.51318,0.01774
3028.45301,0.01742
3026.39284,0.01725
3024.33267,0.01733
3022.27250,0.01753
3020.21232,0.01745
3018.15215,0.01685
3016.09198,0.01629
3014.03181,0.01633
3011.97163,0.01663
3009.91146,0.01666
3007.85129,0.01639
3005.79112,0.01611
3003.73095,0.01612
3001.67077,0.01631
2999.61060,0.01650
2997.55043,0.01658
2995.49026,0.01639
2993.43009,0.01610
2991.36991,0.01593
2989.30974,0.01593
2987.24957,0.01591
2985.18940,0.01571
2983.12923,0.01549
2981.06905,0.01535
2979.00888,0.01514
2976.94871,0.01476
2974.88854,0.01458
2972.82836,0.01494
2970.76819,0.01539
2968.70802,0.01545
2966.64785,0.01512
2964.58768,0.01485
2962.52750,0.01501
2960.46733,0.01527
2958.40716,0.01527
2956.34699,0.01510
2954.28682,0.01501
2952.22664,0.01514
2950.16647,0.01534
2948.10630,0.01535
2946.04613,0.01528
2943.98596,0.01523
2941.92578,0.01510
2939.86561,0.01502
2937.80544,0.01513
2935.74527,0.01527
2933.68509,0.01522
2931.62492,0.01520
2929.56475,0.01531
2927.50458,0.01519
2925.44441,0.01494
2923.38423,0.01496
2921.32406,0.01513
2919.26389,0.01509
2917.20372,0.01483
2915.14355,0.01458
2913.08337,0.01440
2911.02320,0.01439
2908.96303,0.01453
2906.90286,0.01460
2904.84268,0.01460
2902.78251,0.01457
2900.72234,0.01444
2898.66217,0.01426
2896.60200,0.01416
2894.54182,0.01414
2892.48165,0.01399
2890.42148,0.01389
2888.36131,0.01402
2886.30114,0.01406
2884.24096,0.01404
2882.18079,0.01415
2880.12062,0.01416
2878.06045,0.01409
2876.00028,0.01418
2873.94010,0.01426
2871.87993,0.01402
2869.81976,0.01354
2867.75959,0.01333
2865.69941,0.01351
2863.63924,0.01361
2861.57907,0.01355
2859.51890,0.01349
2857.45873,0.01336
2855.39855,0.01317
2853.33838,0.01310
2851.27821,0.01323
2849.21804,0.01342
2847.15787,0.01339
2845.09769,0.01321
2843.03752,0.01312
2840.97735,0.01304
2838.91718,0.01295
2836.85700,0.01291
2834.79683,0.01286
2832.73666,0.01274
2830.67649,0.01262
2828.61632,0.01260
2826.55614,0.01270
2824.49597,0.01277
2822.43580,0.01265
2820.37563,0.01241
2818.31546,0.01221
2816.25528,0.01207
2814.19511,0.01197
2812.13494,0.01196
2810.07477,0.01199
2808.01460,0.01191
2805.95442,0.01186
2803.89425,0.01186
2801.83408,0.01182
2799.77391,0.01183
2797.71373,0.01188
2795.65356,0.01188
2793.59339,0.01187
2791.53322,0.01189
2789.47305,0.01188
2787.41287,0.01177
2785.35270,0.01164
2783.29253,0.01169
2781.23236,0.01184
2779.17219,0.01184
2777.11201,0.01169
2775.05184,0.01148
2772.99167,0.01129
2770.93150,0.01133
2768.87133,0.01150
2766.81115,0.01159
2764.75098,0.01157
2762.69081,0.01139
2760.63064,0.01121
2758.57046,0.01120
2756.51029,0.01122
2754.45012,0.01112
2752.38995,0.01096
2750.32978,0.01084
2748.26960,0.01080
2746.20943,0.01076
2744.14926,0.01067
2742.08909,0.01062
2740.02892,0.01058
2737.96874,0.01064
2735.90857,0.01081
2733.84840,0.01080
2731.78823,0.01058
2729.72805,0.01037
2727.66788,0.01029
2725.60771,0.01026
2723.54754,0.01017
2721.48737,0.01007
2719.42719,0.01005
2717.36702,0.01001
2715.30685,0.00980
2713.24668,0.00958
2711.18651,0.00955
2709.12633,0.00965
2707.06616,0.00970
2705.00599,0.00957
2702.94582,0.00934
2700.88565,0.00913
2698.82547,0.00903
2696.76530,0.00907
2694.70513,0.00910
2692.64496,0.00905
2690.58478,0.00908
2688.52461,0.00915
2686.46444,0.00914
2684.40427,0.00913
2682.34410,0.00908
2680.28392,0.00895
2678.22375,0.00889
2676.16358,0.00883
2674.10341,0.00867
2672.04324,0.00858
2669.98306,0.00868
2667.92289,0.00883
2665.86272,0.00883
2663.80255,0.00871
2661.74238,0.00841
2659.68220,0.00812
2657.62203,0.00807
2655.56186,0.00824
2653.50169,0.00841
2651.44151,0.00835
2649.38134,0.00806
2647.32117,0.00785
2645.26100,0.00782
2643.20083,0.00778
2641.14065,0.00766
2639.08048,0.00751
2637.02031,0.00735
2634.96014,0.00732
2632.89997,0.00746
2630.83979,0.00745
2628.77962,0.00724
2626.71945,0.00731
2624.65928,0.00743
2622.59910,0.00719
2620.53893,0.00697
2618.47876,0.00701
2616.41859,0.00701
2614.35842,0.00690
2612.29824,0.00693
2610.23807,0.00697
2608.17790,0.00686
2606.11773,0.00666
2604.05756,0.00635
2601.99738,0.00617
2599.93721,0.00642
2597.87704,0.00680
2595.81687,0.00681
2593.75670,0.00652
2591.69652,0.00639
2589.63635,0.00653
2587.57618,0.00654
2585.51601,0.00635
2583.45583,0.00620
2581.39566,0.00612
2579.33549,0.00611
2577.27532,0.00629
2575.21515,0.00650
2573.15497,0.00644
2571.09480,0.00642
2569.03463,0.00658
2566.97446,0.00653
2564.91429,0.00630
2562.85411,0.00607
2560.79394,0.00597
2558.73377,0.00619
2556.67360,0.00621
2554.61342,0.00580
2552.55325,0.00557
2550.49308,0.00542
2548.43291,0.00531
2546.37274,0.00557
2544.31256,0.00585
2542.25239,0.00588
2540.19222,0.00598
2538.13205,0.00615
2536.07188,0.00597
2534.01170,0.00565
2531.95153,0.00561
2529.89136,0.00567
2527.83119,0.00561
2525.77102,0.00544
2523.71084,0.00537
2521.65067,0.00550
2519.59050,0.00577
2517.53033,0.00599
2515.47015,0.00584
2513.40998,0.00549
2511.34981,0.00520
2509.28964,0.00511
2507.22947,0.00548
2505.16929,0.00610
2503.10912,0.00635
2501.04895,0.00636
2498.98878,0.00640
2496.92861,0.00649
2494.86843,0.00676
2492.80826,0.00708
2490.74809,0.00695
2488.68792,0.00650
2486.62775,0.00662
2484.56757,0.00695
2482.50740,0.00658
2480.44723,0.00607
2478.38706,0.00605
2476.32688,0.00614
2474.26671,0.00619
2472.20654,0.00633
2470.14637,0.00638
2468.08620,0.00638
2466.02602,0.00654
2463.96585,0.00668
2461.90568,0.00672
2459.84551,0.00680
2457.78534,0.00690
2455.72516,0.00693
2453.66499,0.00698
2451.60482,0.00705
2449.54465,0.00707
2447.48447,0.00698
2445.42430,0.00698
2443.36413,0.00699
2441.30396,0.00675
2439.24379,0.00659
2437.18361,0.00659
2435.12344,0.00632
2433.06327,0.00604
2431.00310,0.00616
2428.94293,0.00641
2426.88275,0.00644
2424.82258,0.00642
2422.76241,0.00648
2420.70224,0.00660
2418.64207,0.00692
2416.58189,0.00717
2414.52172,0.00703
2412.46155,0.00683
2410.40138,0.00686
2408.34120,0.00691
2406.28103,0.00693
2404.22086,0.00693
2402.16069,0.00671
2400.10052,0.00635
2398.04034,0.00617
2395.98017,0.00632
2393.92000,0.00651
2391.85983,0.00659
2389.79966,0.00676
2387.73948,0.00697
2385.67931,0.00693
2383.61914,0.00671
2381.55897,0.00657
2379.49880,0.00651
2377.43862,0.00654
2375.37845,0.00654
2373.31828,0.00679
2371.25811,0.00729
2369.19793,0.00736
2367.13776,0.00730
2365.07759,0.00756
2363.01742,0.00754
2360.95725,0.00812
2358.89707,0.00739
2356.83690,0.00657
2354.77673,0.00650
2352.71656,0.00659
2350.65639,0.00824
2348.59621,0.00942
2346.53604,0.00704
2344.47587,0.00616
2342.41570,0.00626
2340.35552,0.00659
2338.29535,0.00758
2336.23518,0.00805
2334.17501,0.00768
2332.11484,0.00712
2330.05466,0.00712
2327.99449,0.00732
2325.93432,0.00813
2323.87415,0.00842
2321.81398,0.00840
2319.75380,0.00786
2317.69363,0.00748
2315.63346,0.00713
2313.57329,0.00707
2311.51312,0.00692
2309.45294,0.00642
2307.39277,0.00613
2305.33260,0.00635
2303.27243,0.00679
2301.21225,0.00691
2299.15208,0.00685
2297.09191,0.00668
2295.03174,0.00647
2292.97157,0.00641
2290.91139,0.00648
2288.85122,0.00654
2286.79105,0.00647
2284.73088,0.00621
2282.67071,0.00593
2280.61053,0.00577
2278.55036,0.00575
2276.49019,0.00591
2274.43002,0.00615
2272.36984,0.00610
2270.30967,0.00566
2268.24950,0.00512
2266.18933,0.00476
2264.12916,0.00498
2262.06898,0.00569
2260.00881,0.00613
2257.94864,0.00585
2255.88847,0.00526
2253.82830,0.00493
2251.76812,0.00462
2249.70795,0.00377
2247.64778,0.00309
2245.58761,0.00355
2243.52744,0.00438
2241.46726,0.00477
2239.40709,0.00497
2237.34692,0.00474
2235.28675,0.00411
2233.22657,0.00401
2231.16640,0.00442
2229.10623,0.00452
2227.04606,0.00428
2224.98589,0.00417
2222.92571,0.00417
2220.86554,0.00378
2218.80537,0.00290
2216.74520,0.00232
2214.68503,0.00267
2212.62485,0.00345
2210.56468,0.00421
2208.50451,0.00476
2206.44434,0.00470
2204.38417,0.00443
2202.32399,0.00447
2200.26382,0.00427
2198.20365,0.00385
2196.14348,0.00353
2194.08330,0.00259
2192.02313,0.00165
2189.96296,0.00222
2187.90279,0.00333
2185.84262,0.00313
2183.78244,0.00228
2181.72227,0.00226
2179.66210,0.00282
2177.60193,0.00291
2175.54176,0.00275
2173.48158,0.00316
2171.42141,0.00377
2169.36124,0.00383
2167.30107,0.00369
2165.24089,0.00417
2163.18072,0.00473
2161.12055,0.00389
2159.06038,0.00160
2157.00021,0.00024
2154.94003,0.00041
2152.87986,0.00072
2150.81969,0.00101
2148.75952,0.00145
2146.69935,0.00171
2144.63917,0.00175
2142.57900,0.00177
2140.51883,0.00172
2138.45866,0.00141
2136.39849,0.00061
2134.33831,0.00014
2132.27814,0.00085
2130.21797,0.00184
2128.15780,0.00233
2126.09762,0.00238
2124.03745,0.00234
2121.97728,0.00265
2119.91711,0.00272
2117.85694,0.00235
2115.79676,0.00263
2113.73659,0.00331
2111.67642,0.00319
2109.61625,0.00278
2107.55608,0.00300
2105.49590,0.00285
2103.43573,0.00196
2101.37556,0.00199
2099.31539,0.00296
2097.25521,0.00305
2095.19504,0.00223
2093.13487,0.00192
2091.07470,0.00190
2089.01453,0.00175
2086.95435,0.00170
2084.89418,0.00146
2082.83401,0.00119
2080.77384,0.00146
2078.71367,0.00216
2076.65349,0.00261
2074.59332,0.00268
2072.53315,0.00305
2070.47298,0.00380
2068.41281,0.00409
2066.35263,0.00345
2064.29246,0.00290
2062.23229,0.00320
2060.17212,0.00321
2058.11194,0.00272
2056.05177,0.00277
2053.99160,0.00305
2051.93143,0.00284
2049.87126,0.00240
2047.81108,0.00264
2045.75091,0.00359
2043.69074,0.00442
2041.63057,0.00480
2039.57040,0.00425
2037.51022,0.00299
2035.45005,0.00250
2033.38988,0.00259
2031.32971,0.00222
2029.26954,0.00168
2027.20936,0.00093
2025.14919,0.00038
2023.08902,0.00076
2021.02885,0.00131
2018.96867,0.00131
2016.90850,0.00132
2014.84833,0.00167
2012.78816,0.00187
2010.72799,0.00149
2008.66781,0.00080
2006.60764,0.00052
2004.54747,0.00040
2002.48730,0.00000
2000.42713,0.00009
1998.36695,0.00111
1996.30678,0.00216
1994.24661,0.00245
1992.18644,0.00227
1990.12626,0.00185
1988.06609,0.00098
1986.00592,0.00049
1983.94575,0.00104
1981.88558,0.00191
1979.82540,0.00249
1977.76523,0.00233
1975.70506,0.00135
1973.64489,0.00032
1971.58472,0.00001
1969.52454,0.00051
1967.46437,0.00074
1965.40420,0.00044
1963.34403,0.00059
1961.28386,0.00077
1959.22368,0.00077
1957.16351,0.00140
1955.10334,0.00216
1953.04317,0.00226
1950.98299,0.00139
1948.92282,0.00026
1946.86265,0.00041
1944.80248,0.00119
1942.74231,0.00108
1940.68213,0.00047
1938.62196,0.00011
1936.56179,0.00000
1934.50162,0.00023
1932.44145,0.00078
1930.38127,0.00134
1928.32110,0.00169
1926.26093,0.00171
1924.20076,0.00157
1922.14059,0.00145
1920.08041,0.00109
1918.02024,0.00068
1915.96007,0.00086
1913.89990,0.00133
1911.83972,0.00148
1909.77955,0.00134
1907.71938,0.00134
1905.65921,0.00168
1903.59904,0.00202
1901.53886,0.00186
1899.47869,0.00137
1897.41852,0.00133
1895.35835,0.00186
1893.29818,0.00212
1891.23800,0.00190
1889.17783,0.00166
1887.11766,0.00167
1885.05749,0.00189
1882.99731,0.00190
1880.93714,0.00171
1878.87697,0.00181
1876.81680,0.00202
1874.75663,0.00191
1872.69645,0.00165
1870.63628,0.00148
1868.57611,0.00137
1866.51594,0.00128
1864.45577,0.00131
1862.39559,0.00144
1860.33542,0.00161
1858.27525,0.00172
1856.21508,0.00157
1854.15491,0.00122
1852.09473,0.00094
1850.03456,0.00088
1847.97439,0.00095
1845.91422,0.00101
1843.85404,0.00115
1841.79387,0.00147
1839.73370,0.00177
1837.67353,0.00186
1835.61336,0.00182
1833.55318,0.00188
1831.49301,0.00204
1829.43284,0.00221
1827.37267,0.00240
1825.31250,0.00252
1823.25232,0.00242
1821.19215,0.00218
1819.13198,0.00196
1817.07181,0.00183
1815.01163,0.00183
1812.95146,0.00188
1810.89129,0.00184
1808.83112,0.00179
1806.77095,0.00187
1804.71077,0.00210
1802.65060,0.00221
1800.59043,0.00211
1798.53026,0.00204
1796.47009,0.00209
1794.40991,0.00210
1792.34974,0.00204
1790.28957,0.00202
1788.22940,0.00210
1786.16923,0.00222
1784.10905,0.00224
1782.04888,0.00216
1779.98871,0.00215
1777.92854,0.00220
1775.86836,0.00225
1773.80819,0.00231
1771.74802,0.00227
1769.68785,0.00211
1767.62768,0.00206
1765.56750,0.00213
1763.50733,0.00220
1761.44716,0.00230
1759.38699,0.00250
1757.32682,0.00266
1755.26664,0.00272
1753.20647,0.00280
1751.14630,0.00283
1749.08613,0.00278
1747.02596,0.00286
1744.96578,0.00313
1742.90561,0.00335
1740.84544,0.00337
1738.78527,0.00327
1736.72509,0.00309
1734.66492,0.00282
1732.60475,0.00261
1730.54458,0.00268
1728.48441,0.00285
1726.42423,0.00306
1724.36406,0.00338
1722.30389,0.00366
1720.24372,0.00369
1718.18355,0.00357
1716.12337,0.00364
1714.06320,0.00392
1712.00303,0.00411
1709.94286,0.00416
1707.88268,0.00422
1705.82251,0.00430
1703.76234,0.00438
1701.70217,0.00445
1699.64200,0.00446
1697.58182,0.00443
1695.52165,0.00448
1693.46148,0.00469
1691.40131,0.00498
1689.34114,0.00529
1687.28096,0.00562
1685.22079,0.00583
1683.16062,0.00582
1681.10045,0.00585
1679.04028,0.00605
1676.98010,0.00624
1674.91993,0.00632
1672.85976,0.00637
1670.79959,0.00653
1668.73941,0.00666
1666.67924,0.00659
1664.61907,0.00653
1662.55890,0.00661
1660.49873,0.00668
1658.43855,0.00665
1656.37838,0.00668
1654.31821,0.00683
1652.25804,0.00688
1650.19787,0.00691
1648.13769,0.00685
1646.07752,0.00656
1644.01735,0.00635
1641.95718,0.00638
1639.89701,0.00643
1637.83683,0.00639
1635.77666,0.00647
1633.71649,0.00670
1631.65632,0.00678
1629.59614,0.00669
1627.53597,0.00660
1625.47580,0.00661
1623.41563,0.00664
1621.35546,0.00666
1619.29528,0.00669
1617.23511,0.00666
1615.17494,0.00649
1613.11477,0.00625
1611.05460,0.00606
1608.99442,0.00606
1606.93425,0.00623
1604.87408,0.00631
1602.81391,0.00617
1600.75373,0.00589
1598.69356,0.00562
1596.63339,0.00536
1594.57322,0.00512
1592.51305,0.00494
1590.45287,0.00472
1588.39270,0.00443
1586.33253,0.00419
1584.27236,0.00405
1582.21219,0.00396
1580.15201,0.00395
1578.09184,0.00386
1576.03167,0.00361
1573.97150,0.00339
1571.91133,0.00322
1569.85115,0.00298
1567.79098,0.00290
1565.73081,0.00301
1563.67064,0.00302
1561.61046,0.00284
1559.55029,0.00254
1557.49012,0.00231
1555.42995,0.00220
1553.36978,0.00217
1551.30960,0.00218
1549.24943,0.00213
1547.18926,0.00211
1545.12909,0.00207
1543.06892,0.00179
1541.00874,0.00140
1538.94857,0.00125
1536.88840,0.00136
1534.82823,0.00152
1532.76805,0.00153
1530.70788,0.00146
1528.64771,0.00141
1526.58754,0.00131
1524.52737,0.00117
1522.46719,0.00108
1520.40702,0.00113
1518.34685,0.00124
1516.28668,0.00121
1514.22651,0.00105
1512.16633,0.00089
1510.10616,0.00072
1508.04599,0.00037
1505.98582,0.00003
1503.92565,0.00011
1501.86547,0.00033
1499.80530,0.00044
1497.74513,0.00053
1495.68496,0.00076
1493.62478,0.00108
1491.56461,0.00122
1489.50444,0.00104
1487.44427,0.00078
1485.38410,0.00074
1483.32392,0.00085
1481.26375,0.00092
1479.20358,0.00087
1477.14341,0.00084
1475.08324,0.00095
1473.02306,0.00110
1470.96289,0.00116
1468.90272,0.00125
1466.84255,0.00135
1464.78238,0.00138
1462.72220,0.00138
1460.66203,0.00137
1458.60186,0.00130
1456.54169,0.00125
1454.48151,0.00134
1452.42134,0.00144
1450.36117,0.00148
1448.30100,0.00142
1446.24083,0.00132
1444.18065,0.00129
1442.12048,0.00131
1440.06031,0.00127
1438.00014,0.00116
1435.93997,0.00113
1433.87979,0.00124
1431.81962,0.00131
1429.75945,0.00125
1427.69928,0.00118
1425.63910,0.00124
1423.57893,0.00135
1421.51876,0.00140
1419.45859,0.00143
1417.39842,0.00148
1415.33824,0.00150
1413.27807,0.00150
1411.21790,0.00144
1409.15773,0.00141
1407.09756,0.00145
1405.03738,0.00146
1402.97721,0.00145
1400.91704,0.00147
1398.85687,0.00143
1396.79670,0.00129
1394.73652,0.00118
1392.67635,0.00118
1390.61618,0.00122
1388.55601,0.00121
1386.49583,0.00124
1384.43566,0.00135
1382.37549,0.00140
1380.31532,0.00133
1378.25515,0.00127
1376.19497,0.00132
1374.13480,0.00146
1372.07463,0.00159
1370.01446,0.00167
1367.95429,0.00175
1365.89411,0.00183
1363.83394,0.00180
1361.77377,0.00160
1359.71360,0.00143
1357.65343,0.00137
1355.59325,0.00131
1353.53308,0.00135
1351.47291,0.00151
1349.41274,0.00156
1347.35256,0.00146
1345.29239,0.00141
1343.23222,0.00142
1341.17205,0.00138
1339.11188,0.00130
1337.05170,0.00129
1334.99153,0.00134
1332.93136,0.00140
1330.87119,0.00137
1328.81102,0.00124
1326.75084,0.00113
1324.69067,0.00107
1322.63050,0.00104
1320.57033,0.00109
1318.51015,0.00124
1316.44998,0.00136
1314.38981,0.00141
1312.32964,0.00146
1310.26947,0.00144
1308.20929,0.00133
1306.14912,0.00129
1304.08895,0.00129
1302.02878,0.00127
1299.96861,0.00133
1297.90843,0.00148
1295.84826,0.00162
1293.78809,0.00168
1291.72792,0.00165
1289.66775,0.00159
1287.60757,0.00165
1285.54740,0.00176
1283.48723,0.00186
1281.42706,0.00196
1279.36688,0.00202
1277.30671,0.00203
1275.24654,0.00201
1273.18637,0.00190
1271.12620,0.00168
1269.06602,0.00158
1267.00585,0.00165
1264.94568,0.00175
1262.88551,0.00183
1260.82534,0.00183
1258.76516,0.00172
1256.70499,0.00164
1254.64482,0.00160
1252.58465,0.00154
1250.52447,0.00151
1248.46430,0.00146
1246.40413,0.00131
1244.34396,0.00117
1242.28379,0.00115
1240.22361,0.00114
1238.16344,0.00112
1236.10327,0.00105
1234.04310,0.00081
1231.98293,0.00060
1229.92275,0.00066
1227.86258,0.00078
1225.80241,0.00073
1223.74224,0.00060
1221.68207,0.00046
1219.62189,0.00029
1217.56172,0.00017
1215.50155,0.00015
1213.44138,0.00018
1211.38120,0.00021
1209.32103,0.00025
1207.26086,0.00027
1205.20069,0.00025
1203.14052,0.00023
1201.08034,0.00023
1199.02017,0.00039
1196.96000,0.00066
1194.89983,0.00083
1192.83966,0.00102
1190.77948,0.00144
1188.71931,0.00190
1186.65914,0.00223
1184.59897,0.00258
1182.53880,0.00298
1180.47862,0.00342
1178.41845,0.00397
1176.35828,0.00447
1174.29811,0.00483
1172.23793,0.00524
1170.17776,0.00579
1168.11759,0.00641
1166.05742,0.00692
1163.99725,0.00727
1161.93707,0.00764
1159.87690,0.00810
1157.81673,0.00850
1155.75656,0.00877
1153.69639,0.00902
1151.63621,0.00939
1149.57604,0.00985
1147.51587,0.01027
1145.45570,0.01063
1143.39552,0.01118
1141.33535,0.01200
1139.27518,0.01274
1137.21501,0.01334
1135.15484,0.01406
1133.09466,0.01481
1131.03449,0.01537
1128.97432,0.01581
1126.91415,0.01618
1124.85398,0.01647
1122.79380,0.01682
1120.73363,0.01731
1118.67346,0.01779
1116.61329,0.01827
1114.55312,0.01889
1112.49294,0.01957
1110.43277,0.02017
1108.37260,0.02072
1106.31243,0.02123
1104.25225,0.02169
1102.19208,0.02217
1100.13191,0.02279
1098.07174,0.02352
1096.01157,0.02415
1093.95139,0.02466
1091.89122,0.02521
1089.83105,0.02572
1087.77088,0.02610
1085.71071,0.02647
1083.65053,0.02703
1081.59036,0.02764
1079.53019,0.02821
1077.47002,0.02878
1075.40985,0.02912
1073.34967,0.02920
1071.28950,0.02945
1069.22933,0.02986
1067.16916,0.03019
1065.10898,0.03051
1063.04881,0.03076
1060.98864,0.03092
1058.92847,0.03101
1056.86830,0.03087
1054.80812,0.03037
1052.74795,0.02983
1050.68778,0.02964
1048.62761,0.02976
1046.56744,0.02979
1044.50726,0.02939
1042.44709,0.02872
1040.38692,0.02817
1038.32675,0.02767
1036.26657,0.02705
1034.20640,0.02641
1032.14623,0.02582
1030.08606,0.02519
1028.02589,0.02467
1025.96571,0.02424
1023.90554,0.02368
1021.84537,0.02319
1019.78520,0.02301
1017.72503,0.02274
1015.66485,0.02219
1013.60468,0.02171
1011.54451,0.02146
1009.48434,0.02129
1007.42417,0.02097
1005.36399,0.02068
1003.30382,0.02076
1001.24365,0.02096
999.18348,0.02103
997.12330,0.02119
995.06313,0.02149
993.00296,0.02170
990.94279,0.02185
988.88262,0.02221
986.82244,0.02287
984.76227,0.02356
982.70210,0.02386
980.64193,0.02358
978.58176,0.02312
976.52158,0.02279
974.46141,0.02257
972.40124,0.02232
970.34107,0.02171
968.28089,0.02091
966.22072,0.02030
964.16055,0.01975
962.10038,0.01913
960.04021,0.01844
957.98003,0.01769
955.91986,0.01710
953.85969,0.01682
951.79952,0.01670
949.73935,0.01652
947.67917,0.01613
945.61900,0.01568
943.55883,0.01552
941.49866,0.01563
939.43849,0.01573
937.37831,0.01577
935.31814,0.01580
933.25797,0.01582
931.19780,0.01576
929.13762,0.01563
927.07745,0.01556
925.01728,0.01543
922.95711,0.01532
920.89694,0.01535
918.83676,0.01513
916.77659,0.01465
914.71642,0.01420
912.65625,0.01373
910.59608,0.01344
908.53590,0.01344
906.47573,0.01345
904.41556,0.01331
902.35539,0.01309
900.29522,0.01294
898.23504,0.01295
896.17487,0.01299
894.11470,0.01287
892.05453,0.01289
889.99435,0.01326
887.93418,0.01354
885.87401,0.01362
883.81384,0.01375
881.75367,0.01390
879.69349,0.01420
877.63332,0.01457
875.57315,0.01473
873.51298,0.01475
871.45281,0.01467
869.39263,0.01460
867.33246,0.01478
865.27229,0.01502
863.21212,0.01493
861.15194,0.01473
859.09177,0.01473
857.03160,0.01467
854.97143,0.01443
852.91126,0.01415
850.85108,0.01391
848.79091,0.01373
846.73074,0.01327
844.67057,0.01250
842.61040,0.01191
840.55022,0.01171
838.49005,0.01167
836.42988,0.01149
834.36971,0.01113
832.30954,0.01088
830.24936,0.01080
828.18919,0.01063
826.12902,0.01021
824.06885,0.00958
822.00867,0.00891
819.94850,0.00836
817.88833,0.00800
815.82816,0.00799
813.76799,0.00836
811.70781,0.00857
809.64764,0.00822
807.58747,0.00778
805.52730,0.00746
803.46713,0.00696
801.40695,0.00639
799.34678,0.00628
797.28661,0.00672
795.22644,0.00691
793.16627,0.00690
791.10609,0.00711
789.04592,0.00688
786.98575,0.00628
784.92558,0.00605
782.86540,0.00592
780.80523,0.00571
778.74506,0.00576
776.68489,0.00593
774.62472,0.00589
772.56454,0.00557
770.50437,0.00517
768.44420,0.00494
766.38403,0.00500
764.32386,0.00509
762.26368,0.00501
760.20351,0.00504
758.14334,0.00486
756.08317,0.00455
754.02299,0.00440
751.96282,0.00414
749.90265,0.00410
747.84248,0.00446
745.78231,0.00456
743.72213,0.00428
741.66196,0.00413
739.60179,0.00413
737.54162,0.00384
735.48145,0.00341
733.42127,0.00341
731.36110,0.00353
729.30093,0.00319
727.24076,0.00277
725.18059,0.00286
723.12041,0.00324
721.06024,0.00298
719.00007,0.00316
716.93990,0.00358
714.87972,0.00401
712.81955,0.00441
710.75938,0.00447
708.69921,0.00445
706.63904,0.00451
704.57886,0.00450
702.51869,0.00420
700.45852,0.00354
698.39835,0.00292
696.33818,0.00275
694.27800,0.00296
692.21783,0.00305
690.15766,0.00266
688.09749,0.00201
686.03731,0.00194
683.97714,0.00292
681.91697,0.00433
679.85680,0.00490
677.79663,0.00430
675.73645,0.00391
673.67628,0.00495
671.61611,0.00637
669.55594,0.00326
667.49577,0.00000
665.43559,0.00490
663.37542,0.00440
661.31525,0.00323
659.25508,0.00276
657.19491,0.00235
655.13473,0.00226
653.07456,0.00243
651.01439,0.00236
648.95422,0.00194
646.89404,0.00192
644.83387,0.00235
642.77370,0.00326
640.71353,0.00420
638.65336,0.00435
636.59318,0.00380
634.53301,0.00378
632.47284,0.00466
630.41267,0.00530
628.35250,0.00410
626.29232,0.00135
624.23215,0.00000
622.17198,0.00059
620.11181,0.00134
618.05164,0.00117
615.99146,0.00066
613.93129,0.00149
611.87112,0.00285
609.81095,0.00182
607.75077,-0.00019
605.69060,-0.00065
603.63043,-0.00095
601.57026,-0.00127
599.51009,0.00000
