Created as New Dataset,Sample 348 By Analyst Date Wednesday, February 05 2025
cm-1,%T
4000.00,106.96
3999.00,106.95
3998.00,106.95
3997.00,106.95
3996.00,106.94
3995.00,106.94
3994.00,106.94
3993.00,106.94
3992.00,106.94
3991.00,106.94
3990.00,106.94
3989.00,106.94
3988.00,106.93
3987.00,106.93
3986.00,106.93
3985.00,106.93
3984.00,106.93
3983.00,106.93
3982.00,106.93
3981.00,106.92
3980.00,106.92
3979.00,106.92
3978.00,106.92
3977.00,106.92
3976.00,106.92
3975.00,106.92
3974.00,106.92
3973.00,106.92
3972.00,106.93
3971.00,106.93
3970.00,106.92
3969.00,106.92
3968.00,106.92
3967.00,106.92
3966.00,106.92
3965.00,106.92
3964.00,106.92
3963.00,106.92
3962.00,106.92
3961.00,106.92
3960.00,106.92
3959.00,106.92
3958.00,106.92
3957.00,106.92
3956.00,106.92
3955.00,106.92
3954.00,106.92
3953.00,106.92
3952.00,106.92
3951.00,106.92
3950.00,106.92
3949.00,106.92
3948.00,106.92
3947.00,106.92
3946.00,106.92
3945.00,106.91
3944.00,106.91
3943.00,106.91
3942.00,106.91
3941.00,106.91
3940.00,106.91
3939.00,106.90
3938.00,106.90
3937.00,106.91
3936.00,106.91
3935.00,106.91
3934.00,106.91
3933.00,106.91
3932.00,106.91
3931.00,106.91
3930.00,106.91
3929.00,106.90
3928.00,106.91
3927.00,106.91
3926.00,106.91
3925.00,106.91
3924.00,106.91
3923.00,106.91
3922.00,106.92
3921.00,106.92
3920.00,106.92
3919.00,106.92
3918.00,106.92
3917.00,106.92
3916.00,106.91
3915.00,106.91
3914.00,106.90
3913.00,106.89
3912.00,106.89
3911.00,106.90
3910.00,106.90
3909.00,106.90
3908.00,106.90
3907.00,106.90
3906.00,106.91
3905.00,106.92
3904.00,106.95
3903.00,106.97
3902.00,106.98
3901.00,106.96
3900.00,106.95
3899.00,106.94
3898.00,106.94
3897.00,106.94
3896.00,106.93
3895.00,106.93
3894.00,106.92
3893.00,106.91
3892.00,106.90
3891.00,106.90
3890.00,106.92
3889.00,106.93
3888.00,106.92
3887.00,106.91
3886.00,106.91
3885.00,106.93
3884.00,106.94
3883.00,106.93
3882.00,106.91
3881.00,106.90
3880.00,106.92
3879.00,106.94
3878.00,106.94
3877.00,106.93
3876.00,106.91
3875.00,106.91
3874.00,106.93
3873.00,106.95
3872.00,106.94
3871.00,106.93
3870.00,106.93
3869.00,106.96
3868.00,106.98
3867.00,106.96
3866.00,106.94
3865.00,106.95
3864.00,106.96
3863.00,106.97
3862.00,106.95
3861.00,106.94
3860.00,106.94
3859.00,106.94
3858.00,106.92
3857.00,106.91
3856.00,106.89
3855.00,106.87
3854.00,106.87
3853.00,106.91
3852.00,106.95
3851.00,106.94
3850.00,106.93
3849.00,106.94
3848.00,106.95
3847.00,106.96
3846.00,106.95
3845.00,106.94
3844.00,106.93
3843.00,106.94
3842.00,106.95
3841.00,106.95
3840.00,106.95
3839.00,106.95
3838.00,106.95
3837.00,106.96
3836.00,106.97
3835.00,106.96
3834.00,106.95
3833.00,106.95
3832.00,106.94
3831.00,106.94
3830.00,106.93
3829.00,106.92
3828.00,106.90
3827.00,106.89
3826.00,106.90
3825.00,106.93
3824.00,106.95
3823.00,106.94
3822.00,106.93
3821.00,106.94
3820.00,106.96
3819.00,106.96
3818.00,106.93
3817.00,106.90
3816.00,106.90
3815.00,106.92
3814.00,106.90
3813.00,106.87
3812.00,106.85
3811.00,106.87
3810.00,106.90
3809.00,106.89
3808.00,106.87
3807.00,106.87
3806.00,106.90
3805.00,106.92
3804.00,106.91
3803.00,106.89
3802.00,106.89
3801.00,106.91
3800.00,106.93
3799.00,106.92
3798.00,106.89
3797.00,106.88
3796.00,106.88
3795.00,106.88
3794.00,106.86
3793.00,106.83
3792.00,106.81
3791.00,106.81
3790.00,106.80
3789.00,106.80
3788.00,106.79
3787.00,106.79
3786.00,106.79
3785.00,106.79
3784.00,106.80
3783.00,106.82
3782.00,106.82
3781.00,106.82
3780.00,106.82
3779.00,106.82
3778.00,106.82
3777.00,106.81
3776.00,106.80
3775.00,106.80
3774.00,106.82
3773.00,106.83
3772.00,106.83
3771.00,106.83
3770.00,106.83
3769.00,106.85
3768.00,106.86
3767.00,106.85
3766.00,106.84
3765.00,106.85
3764.00,106.86
3763.00,106.87
3762.00,106.86
3761.00,106.86
3760.00,106.87
3759.00,106.88
3758.00,106.88
3757.00,106.88
3756.00,106.89
3755.00,106.90
3754.00,106.92
3753.00,106.93
3752.00,106.94
3751.00,106.95
3750.00,106.95
3749.00,106.97
3748.00,106.99
3747.00,106.98
3746.00,106.95
3745.00,106.93
3744.00,106.94
3743.00,106.96
3742.00,106.94
3741.00,106.91
3740.00,106.93
3739.00,106.96
3738.00,106.98
3737.00,106.97
3736.00,106.95
3735.00,106.96
3734.00,106.95
3733.00,106.93
3732.00,106.92
3731.00,106.91
3730.00,106.90
3729.00,106.87
3728.00,106.85
3727.00,106.84
3726.00,106.84
3725.00,106.84
3724.00,106.83
3723.00,106.81
3722.00,106.81
3721.00,106.81
3720.00,106.81
3719.00,106.80
3718.00,106.79
3717.00,106.79
3716.00,106.80
3715.00,106.81
3714.00,106.82
3713.00,106.83
3712.00,106.85
3711.00,106.85
3710.00,106.85
3709.00,106.85
3708.00,106.84
3707.00,106.85
3706.00,106.85
3705.00,106.85
3704.00,106.84
3703.00,106.83
3702.00,106.82
3701.00,106.82
3700.00,106.82
3699.00,106.82
3698.00,106.81
3697.00,106.82
3696.00,106.83
3695.00,106.84
3694.00,106.85
3693.00,106.86
3692.00,106.88
3691.00,106.89
3690.00,106.90
3689.00,106.91
3688.00,106.92
3687.00,106.92
3686.00,106.90
3685.00,106.88
3684.00,106.88
3683.00,106.88
3682.00,106.89
3681.00,106.88
3680.00,106.88
3679.00,106.90
3678.00,106.92
3677.00,106.92
3676.00,106.92
3675.00,106.95
3674.00,106.98
3673.00,106.98
3672.00,106.96
3671.00,106.95
3670.00,106.96
3669.00,106.95
3668.00,106.93
3667.00,106.89
3666.00,106.87
3665.00,106.87
3664.00,106.86
3663.00,106.85
3662.00,106.84
3661.00,106.84
3660.00,106.84
3659.00,106.85
3658.00,106.85
3657.00,106.85
3656.00,106.86
3655.00,106.89
3654.00,106.91
3653.00,106.93
3652.00,106.95
3651.00,106.97
3650.00,106.99
3649.00,106.99
3648.00,106.97
3647.00,106.95
3646.00,106.93
3645.00,106.92
3644.00,106.90
3643.00,106.88
3642.00,106.86
3641.00,106.84
3640.00,106.83
3639.00,106.82
3638.00,106.82
3637.00,106.83
3636.00,106.83
3635.00,106.83
3634.00,106.84
3633.00,106.86
3632.00,106.88
3631.00,106.88
3630.00,106.88
3629.00,106.89
3628.00,106.91
3627.00,106.92
3626.00,106.90
3625.00,106.89
3624.00,106.90
3623.00,106.92
3622.00,106.92
3621.00,106.91
3620.00,106.90
3619.00,106.90
3618.00,106.91
3617.00,106.91
3616.00,106.91
3615.00,106.90
3614.00,106.90
3613.00,106.91
3612.00,106.91
3611.00,106.91
3610.00,106.90
3609.00,106.90
3608.00,106.89
3607.00,106.89
3606.00,106.88
3605.00,106.88
3604.00,106.88
3603.00,106.88
3602.00,106.88
3601.00,106.88
3600.00,106.87
3599.00,106.87
3598.00,106.87
3597.00,106.87
3596.00,106.87
3595.00,106.87
3594.00,106.87
3593.00,106.88
3592.00,106.88
3591.00,106.88
3590.00,106.89
3589.00,106.89
3588.00,106.89
3587.00,106.90
3586.00,106.90
3585.00,106.89
3584.00,106.88
3583.00,106.88
3582.00,106.87
3581.00,106.86
3580.00,106.86
3579.00,106.85
3578.00,106.84
3577.00,106.84
3576.00,106.84
3575.00,106.84
3574.00,106.84
3573.00,106.85
3572.00,106.86
3571.00,106.87
3570.00,106.88
3569.00,106.89
3568.00,106.89
3567.00,106.90
3566.00,106.91
3565.00,106.91
3564.00,106.90
3563.00,106.90
3562.00,106.90
3561.00,106.89
3560.00,106.89
3559.00,106.88
3558.00,106.88
3557.00,106.87
3556.00,106.88
3555.00,106.88
3554.00,106.88
3553.00,106.88
3552.00,106.89
3551.00,106.89
3550.00,106.89
3549.00,106.90
3548.00,106.90
3547.00,106.91
3546.00,106.91
3545.00,106.91
3544.00,106.90
3543.00,106.90
3542.00,106.89
3541.00,106.89
3540.00,106.89
3539.00,106.88
3538.00,106.88
3537.00,106.88
3536.00,106.88
3535.00,106.88
3534.00,106.88
3533.00,106.88
3532.00,106.88
3531.00,106.88
3530.00,106.88
3529.00,106.88
3528.00,106.88
3527.00,106.89
3526.00,106.89
3525.00,106.89
3524.00,106.89
3523.00,106.89
3522.00,106.89
3521.00,106.88
3520.00,106.88
3519.00,106.88
3518.00,106.88
3517.00,106.88
3516.00,106.88
3515.00,106.88
3514.00,106.88
3513.00,106.88
3512.00,106.88
3511.00,106.88
3510.00,106.88
3509.00,106.88
3508.00,106.88
3507.00,106.89
3506.00,106.89
3505.00,106.89
3504.00,106.89
3503.00,106.89
3502.00,106.89
3501.00,106.89
3500.00,106.90
3499.00,106.90
3498.00,106.90
3497.00,106.90
3496.00,106.90
3495.00,106.90
3494.00,106.90
3493.00,106.90
3492.00,106.90
3491.00,106.90
3490.00,106.90
3489.00,106.90
3488.00,106.90
3487.00,106.91
3486.00,106.91
3485.00,106.91
3484.00,106.91
3483.00,106.91
3482.00,106.91
3481.00,106.91
3480.00,106.91
3479.00,106.91
3478.00,106.91
3477.00,106.91
3476.00,106.91
3475.00,106.91
3474.00,106.91
3473.00,106.91
3472.00,106.92
3471.00,106.92
3470.00,106.92
3469.00,106.93
3468.00,106.93
3467.00,106.93
3466.00,106.93
3465.00,106.92
3464.00,106.92
3463.00,106.92
3462.00,106.92
3461.00,106.92
3460.00,106.92
3459.00,106.92
3458.00,106.92
3457.00,106.92
3456.00,106.92
3455.00,106.92
3454.00,106.92
3453.00,106.93
3452.00,106.93
3451.00,106.93
3450.00,106.93
3449.00,106.94
3448.00,106.94
3447.00,106.94
3446.00,106.94
3445.00,106.95
3444.00,106.95
3443.00,106.95
3442.00,106.95
3441.00,106.95
3440.00,106.95
3439.00,106.95
3438.00,106.95
3437.00,106.96
3436.00,106.96
3435.00,106.96
3434.00,106.96
3433.00,106.96
3432.00,106.95
3431.00,106.95
3430.00,106.95
3429.00,106.95
3428.00,106.95
3427.00,106.95
3426.00,106.94
3425.00,106.94
3424.00,106.94
3423.00,106.94
3422.00,106.94
3421.00,106.94
3420.00,106.94
3419.00,106.94
3418.00,106.94
3417.00,106.93
3416.00,106.93
3415.00,106.93
3414.00,106.93
3413.00,106.93
3412.00,106.93
3411.00,106.92
3410.00,106.92
3409.00,106.92
3408.00,106.92
3407.00,106.91
3406.00,106.91
3405.00,106.91
3404.00,106.92
3403.00,106.92
3402.00,106.92
3401.00,106.92
3400.00,106.92
3399.00,106.91
3398.00,106.91
3397.00,106.91
3396.00,106.91
3395.00,106.91
3394.00,106.91
3393.00,106.91
3392.00,106.91
3391.00,106.90
3390.00,106.90
3389.00,106.90
3388.00,106.90
3387.00,106.89
3386.00,106.89
3385.00,106.89
3384.00,106.89
3383.00,106.89
3382.00,106.89
3381.00,106.89
3380.00,106.89
3379.00,106.89
3378.00,106.89
3377.00,106.89
3376.00,106.88
3375.00,106.88
3374.00,106.88
3373.00,106.88
3372.00,106.89
3371.00,106.89
3370.00,106.89
3369.00,106.89
3368.00,106.89
3367.00,106.89
3366.00,106.88
3365.00,106.88
3364.00,106.87
3363.00,106.87
3362.00,106.87
3361.00,106.87
3360.00,106.87
3359.00,106.86
3358.00,106.86
3357.00,106.86
3356.00,106.86
3355.00,106.86
3354.00,106.86
3353.00,106.86
3352.00,106.86
3351.00,106.86
3350.00,106.86
3349.00,106.86
3348.00,106.86
3347.00,106.86
3346.00,106.86
3345.00,106.86
3344.00,106.87
3343.00,106.87
3342.00,106.87
3341.00,106.87
3340.00,106.88
3339.00,106.88
3338.00,106.88
3337.00,106.88
3336.00,106.88
3335.00,106.88
3334.00,106.88
3333.00,106.88
3332.00,106.88
3331.00,106.88
3330.00,106.88
3329.00,106.88
3328.00,106.88
3327.00,106.88
3326.00,106.89
3325.00,106.88
3324.00,106.88
3323.00,106.88
3322.00,106.88
3321.00,106.88
3320.00,106.88
3319.00,106.88
3318.00,106.88
3317.00,106.88
3316.00,106.88
3315.00,106.88
3314.00,106.88
3313.00,106.88
3312.00,106.89
3311.00,106.89
3310.00,106.90
3309.00,106.90
3308.00,106.91
3307.00,106.91
3306.00,106.92
3305.00,106.92
3304.00,106.91
3303.00,106.91
3302.00,106.91
3301.00,106.91
3300.00,106.91
3299.00,106.91
3298.00,106.91
3297.00,106.91
3296.00,106.90
3295.00,106.90
3294.00,106.90
3293.00,106.90
3292.00,106.90
3291.00,106.89
3290.00,106.89
3289.00,106.88
3288.00,106.88
3287.00,106.88
3286.00,106.88
3285.00,106.87
3284.00,106.87
3283.00,106.87
3282.00,106.87
3281.00,106.87
3280.00,106.87
3279.00,106.87
3278.00,106.87
3277.00,106.87
3276.00,106.87
3275.00,106.86
3274.00,106.86
3273.00,106.86
3272.00,106.86
3271.00,106.86
3270.00,106.85
3269.00,106.85
3268.00,106.85
3267.00,106.84
3266.00,106.84
3265.00,106.84
3264.00,106.84
3263.00,106.83
3262.00,106.83
3261.00,106.83
3260.00,106.83
3259.00,106.83
3258.00,106.83
3257.00,106.83
3256.00,106.83
3255.00,106.83
3254.00,106.83
3253.00,106.83
3252.00,106.83
3251.00,106.83
3250.00,106.83
3249.00,106.84
3248.00,106.84
3247.00,106.84
3246.00,106.84
3245.00,106.84
3244.00,106.84
3243.00,106.84
3242.00,106.84
3241.00,106.84
3240.00,106.84
3239.00,106.84
3238.00,106.84
3237.00,106.85
3236.00,106.85
3235.00,106.85
3234.00,106.86
3233.00,106.86
3232.00,106.86
3231.00,106.86
3230.00,106.86
3229.00,106.85
3228.00,106.85
3227.00,106.85
3226.00,106.85
3225.00,106.85
3224.00,106.86
3223.00,106.86
3222.00,106.86
3221.00,106.86
3220.00,106.86
3219.00,106.86
3218.00,106.86
3217.00,106.86
3216.00,106.86
3215.00,106.86
3214.00,106.86
3213.00,106.86
3212.00,106.86
3211.00,106.86
3210.00,106.86
3209.00,106.86
3208.00,106.86
3207.00,106.86
3206.00,106.86
3205.00,106.86
3204.00,106.86
3203.00,106.86
3202.00,106.86
3201.00,106.86
3200.00,106.86
3199.00,106.86
3198.00,106.86
3197.00,106.86
3196.00,106.86
3195.00,106.86
3194.00,106.86
3193.00,106.86
3192.00,106.86
3191.00,106.86
3190.00,106.86
3189.00,106.86
3188.00,106.86
3187.00,106.86
3186.00,106.86
3185.00,106.86
3184.00,106.86
3183.00,106.86
3182.00,106.86
3181.00,106.87
3180.00,106.87
3179.00,106.87
3178.00,106.87
3177.00,106.87
3176.00,106.86
3175.00,106.86
3174.00,106.86
3173.00,106.86
3172.00,106.86
3171.00,106.86
3170.00,106.85
3169.00,106.85
3168.00,106.85
3167.00,106.85
3166.00,106.85
3165.00,106.85
3164.00,106.85
3163.00,106.85
3162.00,106.85
3161.00,106.85
3160.00,106.85
3159.00,106.85
3158.00,106.85
3157.00,106.85
3156.00,106.85
3155.00,106.85
3154.00,106.85
3153.00,106.85
3152.00,106.85
3151.00,106.85
3150.00,106.85
3149.00,106.84
3148.00,106.84
3147.00,106.84
3146.00,106.84
3145.00,106.84
3144.00,106.84
3143.00,106.85
3142.00,106.85
3141.00,106.85
3140.00,106.85
3139.00,106.85
3138.00,106.85
3137.00,106.85
3136.00,106.85
3135.00,106.85
3134.00,106.85
3133.00,106.86
3132.00,106.86
3131.00,106.86
3130.00,106.86
3129.00,106.86
3128.00,106.86
3127.00,106.86
3126.00,106.86
3125.00,106.86
3124.00,106.86
3123.00,106.87
3122.00,106.87
3121.00,106.88
3120.00,106.88
3119.00,106.88
3118.00,106.88
3117.00,106.88
3116.00,106.88
3115.00,106.88
3114.00,106.88
3113.00,106.88
3112.00,106.87
3111.00,106.87
3110.00,106.88
3109.00,106.88
3108.00,106.88
3107.00,106.88
3106.00,106.88
3105.00,106.88
3104.00,106.88
3103.00,106.88
3102.00,106.88
3101.00,106.88
3100.00,106.88
3099.00,106.88
3098.00,106.88
3097.00,106.88
3096.00,106.87
3095.00,106.87
3094.00,106.87
3093.00,106.87
3092.00,106.87
3091.00,106.87
3090.00,106.87
3089.00,106.88
3088.00,106.88
3087.00,106.88
3086.00,106.88
3085.00,106.88
3084.00,106.89
3083.00,106.89
3082.00,106.89
3081.00,106.89
3080.00,106.90
3079.00,106.90
3078.00,106.90
3077.00,106.90
3076.00,106.90
3075.00,106.89
3074.00,106.89
3073.00,106.89
3072.00,106.89
3071.00,106.89
3070.00,106.89
3069.00,106.90
3068.00,106.90
3067.00,106.90
3066.00,106.90
3065.00,106.89
3064.00,106.89
3063.00,106.89
3062.00,106.89
3061.00,106.89
3060.00,106.89
3059.00,106.89
3058.00,106.89
3057.00,106.89
3056.00,106.89
3055.00,106.88
3054.00,106.88
3053.00,106.88
3052.00,106.88
3051.00,106.88
3050.00,106.88
3049.00,106.88
3048.00,106.88
3047.00,106.88
3046.00,106.88
3045.00,106.88
3044.00,106.88
3043.00,106.88
3042.00,106.88
3041.00,106.88
3040.00,106.88
3039.00,106.88
3038.00,106.88
3037.00,106.88
3036.00,106.88
3035.00,106.88
3034.00,106.89
3033.00,106.89
3032.00,106.89
3031.00,106.89
3030.00,106.89
3029.00,106.88
3028.00,106.88
3027.00,106.88
3026.00,106.88
3025.00,106.88
3024.00,106.88
3023.00,106.88
3022.00,106.88
3021.00,106.88
3020.00,106.89
3019.00,106.89
3018.00,106.89
3017.00,106.89
3016.00,106.89
3015.00,106.89
3014.00,106.89
3013.00,106.89
3012.00,106.89
3011.00,106.89
3010.00,106.88
3009.00,106.88
3008.00,106.88
3007.00,106.88
3006.00,106.87
3005.00,106.87
3004.00,106.87
3003.00,106.87
3002.00,106.87
3001.00,106.87
3000.00,106.87
2999.00,106.86
2998.00,106.86
2997.00,106.86
2996.00,106.86
2995.00,106.86
2994.00,106.86
2993.00,106.86
2992.00,106.86
2991.00,106.86
2990.00,106.85
2989.00,106.85
2988.00,106.85
2987.00,106.85
2986.00,106.85
2985.00,106.85
2984.00,106.85
2983.00,106.85
2982.00,106.85
2981.00,106.85
2980.00,106.86
2979.00,106.86
2978.00,106.86
2977.00,106.86
2976.00,106.86
2975.00,106.86
2974.00,106.86
2973.00,106.86
2972.00,106.86
2971.00,106.86
2970.00,106.87
2969.00,106.87
2968.00,106.87
2967.00,106.87
2966.00,106.87
2965.00,106.87
2964.00,106.87
2963.00,106.87
2962.00,106.87
2961.00,106.87
2960.00,106.87
2959.00,106.87
2958.00,106.87
2957.00,106.87
2956.00,106.87
2955.00,106.87
2954.00,106.87
2953.00,106.87
2952.00,106.86
2951.00,106.86
2950.00,106.86
2949.00,106.86
2948.00,106.85
2947.00,106.85
2946.00,106.85
2945.00,106.85
2944.00,106.85
2943.00,106.84
2942.00,106.84
2941.00,106.84
2940.00,106.84
2939.00,106.84
2938.00,106.84
2937.00,106.84
2936.00,106.84
2935.00,106.84
2934.00,106.84
2933.00,106.84
2932.00,106.84
2931.00,106.85
2930.00,106.85
2929.00,106.85
2928.00,106.85
2927.00,106.85
2926.00,106.86
2925.00,106.86
2924.00,106.86
2923.00,106.86
2922.00,106.87
2921.00,106.87
2920.00,106.87
2919.00,106.87
2918.00,106.88
2917.00,106.88
2916.00,106.88
2915.00,106.88
2914.00,106.88
2913.00,106.87
2912.00,106.87
2911.00,106.87
2910.00,106.86
2909.00,106.86
2908.00,106.86
2907.00,106.85
2906.00,106.85
2905.00,106.85
2904.00,106.85
2903.00,106.85
2902.00,106.84
2901.00,106.84
2900.00,106.84
2899.00,106.84
2898.00,106.84
2897.00,106.84
2896.00,106.84
2895.00,106.84
2894.00,106.84
2893.00,106.84
2892.00,106.83
2891.00,106.83
2890.00,106.83
2889.00,106.83
2888.00,106.83
2887.00,106.84
2886.00,106.84
2885.00,106.83
2884.00,106.83
2883.00,106.83
2882.00,106.83
2881.00,106.83
2880.00,106.83
2879.00,106.84
2878.00,106.84
2877.00,106.84
2876.00,106.84
2875.00,106.84
2874.00,106.84
2873.00,106.84
2872.00,106.84
2871.00,106.84
2870.00,106.84
2869.00,106.84
2868.00,106.84
2867.00,106.85
2866.00,106.85
2865.00,106.85
2864.00,106.85
2863.00,106.85
2862.00,106.85
2861.00,106.85
2860.00,106.85
2859.00,106.85
2858.00,106.85
2857.00,106.85
2856.00,106.86
2855.00,106.86
2854.00,106.86
2853.00,106.86
2852.00,106.86
2851.00,106.87
2850.00,106.87
2849.00,106.87
2848.00,106.86
2847.00,106.86
2846.00,106.85
2845.00,106.85
2844.00,106.85
2843.00,106.85
2842.00,106.84
2841.00,106.84
2840.00,106.84
2839.00,106.84
2838.00,106.84
2837.00,106.84
2836.00,106.84
2835.00,106.84
2834.00,106.84
2833.00,106.84
2832.00,106.84
2831.00,106.84
2830.00,106.84
2829.00,106.84
2828.00,106.84
2827.00,106.84
2826.00,106.84
2825.00,106.84
2824.00,106.84
2823.00,106.84
2822.00,106.84
2821.00,106.84
2820.00,106.84
2819.00,106.84
2818.00,106.84
2817.00,106.84
2816.00,106.84
2815.00,106.84
2814.00,106.84
2813.00,106.84
2812.00,106.84
2811.00,106.84
2810.00,106.84
2809.00,106.84
2808.00,106.84
2807.00,106.84
2806.00,106.84
2805.00,106.84
2804.00,106.84
2803.00,106.84
2802.00,106.84
2801.00,106.84
2800.00,106.84
2799.00,106.84
2798.00,106.84
2797.00,106.83
2796.00,106.83
2795.00,106.83
2794.00,106.83
2793.00,106.83
2792.00,106.83
2791.00,106.83
2790.00,106.83
2789.00,106.82
2788.00,106.82
2787.00,106.82
2786.00,106.82
2785.00,106.82
2784.00,106.82
2783.00,106.82
2782.00,106.82
2781.00,106.82
2780.00,106.82
2779.00,106.82
2778.00,106.82
2777.00,106.82
2776.00,106.82
2775.00,106.82
2774.00,106.82
2773.00,106.82
2772.00,106.82
2771.00,106.82
2770.00,106.82
2769.00,106.82
2768.00,106.82
2767.00,106.82
2766.00,106.82
2765.00,106.82
2764.00,106.83
2763.00,106.83
2762.00,106.83
2761.00,106.83
2760.00,106.83
2759.00,106.83
2758.00,106.83
2757.00,106.83
2756.00,106.83
2755.00,106.83
2754.00,106.83
2753.00,106.83
2752.00,106.83
2751.00,106.83
2750.00,106.83
2749.00,106.83
2748.00,106.83
2747.00,106.83
2746.00,106.83
2745.00,106.83
2744.00,106.83
2743.00,106.83
2742.00,106.83
2741.00,106.83
2740.00,106.82
2739.00,106.82
2738.00,106.82
2737.00,106.82
2736.00,106.82
2735.00,106.82
2734.00,106.82
2733.00,106.82
2732.00,106.81
2731.00,106.81
2730.00,106.81
2729.00,106.81
2728.00,106.81
2727.00,106.81
2726.00,106.81
2725.00,106.80
2724.00,106.80
2723.00,106.80
2722.00,106.80
2721.00,106.80
2720.00,106.80
2719.00,106.80
2718.00,106.80
2717.00,106.80
2716.00,106.80
2715.00,106.80
2714.00,106.80
2713.00,106.80
2712.00,106.80
2711.00,106.80
2710.00,106.80
2709.00,106.80
2708.00,106.80
2707.00,106.80
2706.00,106.80
2705.00,106.80
2704.00,106.80
2703.00,106.80
2702.00,106.80
2701.00,106.80
2700.00,106.80
2699.00,106.80
2698.00,106.80
2697.00,106.80
2696.00,106.80
2695.00,106.80
2694.00,106.80
2693.00,106.80
2692.00,106.80
2691.00,106.80
2690.00,106.79
2689.00,106.79
2688.00,106.79
2687.00,106.79
2686.00,106.79
2685.00,106.79
2684.00,106.79
2683.00,106.79
2682.00,106.79
2681.00,106.79
2680.00,106.79
2679.00,106.79
2678.00,106.79
2677.00,106.79
2676.00,106.79
2675.00,106.79
2674.00,106.79
2673.00,106.79
2672.00,106.79
2671.00,106.79
2670.00,106.79
2669.00,106.79
2668.00,106.79
2667.00,106.79
2666.00,106.79
2665.00,106.79
2664.00,106.79
2663.00,106.79
2662.00,106.79
2661.00,106.79
2660.00,106.79
2659.00,106.79
2658.00,106.79
2657.00,106.79
2656.00,106.79
2655.00,106.79
2654.00,106.79
2653.00,106.79
2652.00,106.79
2651.00,106.79
2650.00,106.79
2649.00,106.79
2648.00,106.79
2647.00,106.79
2646.00,106.79
2645.00,106.79
2644.00,106.78
2643.00,106.78
2642.00,106.78
2641.00,106.78
2640.00,106.78
2639.00,106.78
2638.00,106.78
2637.00,106.77
2636.00,106.77
2635.00,106.77
2634.00,106.77
2633.00,106.77
2632.00,106.76
2631.00,106.76
2630.00,106.76
2629.00,106.76
2628.00,106.76
2627.00,106.76
2626.00,106.76
2625.00,106.76
2624.00,106.76
2623.00,106.76
2622.00,106.76
2621.00,106.76
2620.00,106.76
2619.00,106.76
2618.00,106.76
2617.00,106.76
2616.00,106.76
2615.00,106.77
2614.00,106.77
2613.00,106.77
2612.00,106.77
2611.00,106.77
2610.00,106.77
2609.00,106.77
2608.00,106.77
2607.00,106.78
2606.00,106.78
2605.00,106.78
2604.00,106.78
2603.00,106.78
2602.00,106.78
2601.00,106.78
2600.00,106.78
2599.00,106.78
2598.00,106.78
2597.00,106.78
2596.00,106.78
2595.00,106.78
2594.00,106.78
2593.00,106.78
2592.00,106.78
2591.00,106.78
2590.00,106.78
2589.00,106.78
2588.00,106.78
2587.00,106.78
2586.00,106.78
2585.00,106.78
2584.00,106.77
2583.00,106.77
2582.00,106.77
2581.00,106.77
2580.00,106.77
2579.00,106.77
2578.00,106.77
2577.00,106.76
2576.00,106.76
2575.00,106.76
2574.00,106.76
2573.00,106.76
2572.00,106.76
2571.00,106.76
2570.00,106.76
2569.00,106.76
2568.00,106.76
2567.00,106.76
2566.00,106.76
2565.00,106.76
2564.00,106.76
2563.00,106.76
2562.00,106.76
2561.00,106.77
2560.00,106.77
2559.00,106.77
2558.00,106.77
2557.00,106.77
2556.00,106.77
2555.00,106.77
2554.00,106.77
2553.00,106.77
2552.00,106.77
2551.00,106.77
2550.00,106.77
2549.00,106.77
2548.00,106.77
2547.00,106.76
2546.00,106.76
2545.00,106.76
2544.00,106.76
2543.00,106.76
2542.00,106.76
2541.00,106.76
2540.00,106.76
2539.00,106.75
2538.00,106.75
2537.00,106.75
2536.00,106.75
2535.00,106.75
2534.00,106.75
2533.00,106.74
2532.00,106.74
2531.00,106.74
2530.00,106.74
2529.00,106.74
2528.00,106.74
2527.00,106.74
2526.00,106.74
2525.00,106.73
2524.00,106.73
2523.00,106.73
2522.00,106.73
2521.00,106.72
2520.00,106.72
2519.00,106.72
2518.00,106.72
2517.00,106.72
2516.00,106.72
2515.00,106.72
2514.00,106.72
2513.00,106.72
2512.00,106.72
2511.00,106.72
2510.00,106.72
2509.00,106.72
2508.00,106.72
2507.00,106.72
2506.00,106.72
2505.00,106.72
2504.00,106.72
2503.00,106.72
2502.00,106.72
2501.00,106.72
2500.00,106.72
2499.00,106.73
2498.00,106.73
2497.00,106.73
2496.00,106.73
2495.00,106.73
2494.00,106.73
2493.00,106.72
2492.00,106.72
2491.00,106.72
2490.00,106.72
2489.00,106.72
2488.00,106.72
2487.00,106.72
2486.00,106.72
2485.00,106.72
2484.00,106.72
2483.00,106.72
2482.00,106.71
2481.00,106.71
2480.00,106.71
2479.00,106.71
2478.00,106.71
2477.00,106.70
2476.00,106.70
2475.00,106.70
2474.00,106.70
2473.00,106.70
2472.00,106.69
2471.00,106.69
2470.00,106.69
2469.00,106.69
2468.00,106.69
2467.00,106.69
2466.00,106.69
2465.00,106.69
2464.00,106.69
2463.00,106.69
2462.00,106.69
2461.00,106.69
2460.00,106.69
2459.00,106.69
2458.00,106.69
2457.00,106.69
2456.00,106.69
2455.00,106.69
2454.00,106.69
2453.00,106.69
2452.00,106.70
2451.00,106.70
2450.00,106.70
2449.00,106.70
2448.00,106.70
2447.00,106.70
2446.00,106.70
2445.00,106.71
2444.00,106.71
2443.00,106.71
2442.00,106.71
2441.00,106.71
2440.00,106.71
2439.00,106.72
2438.00,106.72
2437.00,106.72
2436.00,106.72
2435.00,106.72
2434.00,106.72
2433.00,106.72
2432.00,106.72
2431.00,106.72
2430.00,106.72
2429.00,106.72
2428.00,106.72
2427.00,106.72
2426.00,106.72
2425.00,106.72
2424.00,106.72
2423.00,106.72
2422.00,106.72
2421.00,106.72
2420.00,106.72
2419.00,106.72
2418.00,106.72
2417.00,106.72
2416.00,106.72
2415.00,106.72
2414.00,106.72
2413.00,106.72
2412.00,106.72
2411.00,106.72
2410.00,106.72
2409.00,106.72
2408.00,106.72
2407.00,106.72
2406.00,106.72
2405.00,106.72
2404.00,106.72
2403.00,106.72
2402.00,106.72
2401.00,106.72
2400.00,106.72
2399.00,106.72
2398.00,106.72
2397.00,106.72
2396.00,106.72
2395.00,106.73
2394.00,106.73
2393.00,106.73
2392.00,106.73
2391.00,106.73
2390.00,106.73
2389.00,106.73
2388.00,106.73
2387.00,106.72
2386.00,106.72
2385.00,106.72
2384.00,106.72
2383.00,106.72
2382.00,106.73
2381.00,106.73
2380.00,106.74
2379.00,106.75
2378.00,106.75
2377.00,106.75
2376.00,106.75
2375.00,106.74
2374.00,106.73
2373.00,106.72
2372.00,106.71
2371.00,106.71
2370.00,106.72
2369.00,106.73
2368.00,106.73
2367.00,106.74
2366.00,106.73
2365.00,106.72
2364.00,106.71
2363.00,106.71
2362.00,106.71
2361.00,106.72
2360.00,106.71
2359.00,106.71
2358.00,106.70
2357.00,106.68
2356.00,106.66
2355.00,106.65
2354.00,106.66
2353.00,106.69
2352.00,106.72
2351.00,106.73
2350.00,106.72
2349.00,106.70
2348.00,106.67
2347.00,106.67
2346.00,106.69
2345.00,106.71
2344.00,106.71
2343.00,106.69
2342.00,106.68
2341.00,106.68
2340.00,106.68
2339.00,106.68
2338.00,106.68
2337.00,106.69
2336.00,106.69
2335.00,106.69
2334.00,106.69
2333.00,106.68
2332.00,106.69
2331.00,106.71
2330.00,106.72
2329.00,106.71
2328.00,106.69
2327.00,106.66
2326.00,106.65
2325.00,106.65
2324.00,106.66
2323.00,106.66
2322.00,106.66
2321.00,106.65
2320.00,106.65
2319.00,106.66
2318.00,106.66
2317.00,106.65
2316.00,106.64
2315.00,106.64
2314.00,106.65
2313.00,106.67
2312.00,106.68
2311.00,106.68
2310.00,106.68
2309.00,106.68
2308.00,106.68
2307.00,106.68
2306.00,106.68
2305.00,106.68
2304.00,106.68
2303.00,106.68
2302.00,106.68
2301.00,106.68
2300.00,106.68
2299.00,106.68
2298.00,106.69
2297.00,106.69
2296.00,106.69
2295.00,106.69
2294.00,106.69
2293.00,106.70
2292.00,106.70
2291.00,106.70
2290.00,106.70
2289.00,106.70
2288.00,106.70
2287.00,106.70
2286.00,106.70
2285.00,106.70
2284.00,106.70
2283.00,106.70
2282.00,106.70
2281.00,106.70
2280.00,106.71
2279.00,106.71
2278.00,106.71
2277.00,106.71
2276.00,106.71
2275.00,106.71
2274.00,106.71
2273.00,106.71
2272.00,106.70
2271.00,106.70
2270.00,106.70
2269.00,106.70
2268.00,106.70
2267.00,106.69
2266.00,106.69
2265.00,106.69
2264.00,106.69
2263.00,106.68
2262.00,106.68
2261.00,106.68
2260.00,106.68
2259.00,106.67
2258.00,106.67
2257.00,106.67
2256.00,106.67
2255.00,106.67
2254.00,106.67
2253.00,106.67
2252.00,106.67
2251.00,106.67
2250.00,106.67
2249.00,106.67
2248.00,106.67
2247.00,106.67
2246.00,106.67
2245.00,106.67
2244.00,106.67
2243.00,106.67
2242.00,106.67
2241.00,106.68
2240.00,106.68
2239.00,106.68
2238.00,106.68
2237.00,106.68
2236.00,106.68
2235.00,106.68
2234.00,106.68
2233.00,106.68
2232.00,106.68
2231.00,106.68
2230.00,106.68
2229.00,106.68
2228.00,106.68
2227.00,106.68
2226.00,106.68
2225.00,106.68
2224.00,106.67
2223.00,106.67
2222.00,106.67
2221.00,106.67
2220.00,106.67
2219.00,106.67
2218.00,106.66
2217.00,106.66
2216.00,106.66
2215.00,106.66
2214.00,106.66
2213.00,106.65
2212.00,106.65
2211.00,106.65
2210.00,106.65
2209.00,106.65
2208.00,106.64
2207.00,106.64
2206.00,106.64
2205.00,106.64
2204.00,106.64
2203.00,106.64
2202.00,106.64
2201.00,106.63
2200.00,106.63
2199.00,106.63
2198.00,106.63
2197.00,106.63
2196.00,106.63
2195.00,106.63
2194.00,106.63
2193.00,106.63
2192.00,106.63
2191.00,106.63
2190.00,106.63
2189.00,106.63
2188.00,106.63
2187.00,106.63
2186.00,106.64
2185.00,106.64
2184.00,106.64
2183.00,106.64
2182.00,106.64
2181.00,106.64
2180.00,106.64
2179.00,106.64
2178.00,106.64
2177.00,106.64
2176.00,106.64
2175.00,106.64
2174.00,106.64
2173.00,106.65
2172.00,106.65
2171.00,106.65
2170.00,106.65
2169.00,106.65
2168.00,106.65
2167.00,106.65
2166.00,106.65
2165.00,106.65
2164.00,106.65
2163.00,106.65
2162.00,106.65
2161.00,106.64
2160.00,106.64
2159.00,106.64
2158.00,106.64
2157.00,106.64
2156.00,106.64
2155.00,106.64
2154.00,106.64
2153.00,106.63
2152.00,106.63
2151.00,106.63
2150.00,106.63
2149.00,106.63
2148.00,106.63
2147.00,106.63
2146.00,106.63
2145.00,106.63
2144.00,106.63
2143.00,106.63
2142.00,106.63
2141.00,106.63
2140.00,106.63
2139.00,106.63
2138.00,106.63
2137.00,106.63
2136.00,106.63
2135.00,106.63
2134.00,106.63
2133.00,106.63
2132.00,106.63
2131.00,106.63
2130.00,106.64
2129.00,106.64
2128.00,106.64
2127.00,106.64
2126.00,106.64
2125.00,106.64
2124.00,106.64
2123.00,106.64
2122.00,106.65
2121.00,106.65
2120.00,106.65
2119.00,106.65
2118.00,106.65
2117.00,106.65
2116.00,106.65
2115.00,106.65
2114.00,106.65
2113.00,106.65
2112.00,106.64
2111.00,106.64
2110.00,106.64
2109.00,106.64
2108.00,106.64
2107.00,106.64
2106.00,106.63
2105.00,106.63
2104.00,106.63
2103.00,106.63
2102.00,106.62
2101.00,106.62
2100.00,106.62
2099.00,106.62
2098.00,106.62
2097.00,106.61
2096.00,106.61
2095.00,106.61
2094.00,106.61
2093.00,106.62
2092.00,106.62
2091.00,106.62
2090.00,106.62
2089.00,106.62
2088.00,106.62
2087.00,106.62
2086.00,106.63
2085.00,106.63
2084.00,106.63
2083.00,106.64
2082.00,106.64
2081.00,106.64
2080.00,106.64
2079.00,106.64
2078.00,106.65
2077.00,106.65
2076.00,106.65
2075.00,106.65
2074.00,106.65
2073.00,106.65
2072.00,106.66
2071.00,106.66
2070.00,106.66
2069.00,106.66
2068.00,106.66
2067.00,106.66
2066.00,106.66
2065.00,106.66
2064.00,106.66
2063.00,106.65
2062.00,106.65
2061.00,106.65
2060.00,106.65
2059.00,106.64
2058.00,106.64
2057.00,106.64
2056.00,106.64
2055.00,106.64
2054.00,106.64
2053.00,106.63
2052.00,106.63
2051.00,106.63
2050.00,106.62
2049.00,106.62
2048.00,106.62
2047.00,106.62
2046.00,106.62
2045.00,106.62
2044.00,106.62
2043.00,106.62
2042.00,106.62
2041.00,106.62
2040.00,106.62
2039.00,106.62
2038.00,106.62
2037.00,106.63
2036.00,106.63
2035.00,106.63
2034.00,106.63
2033.00,106.64
2032.00,106.64
2031.00,106.64
2030.00,106.65
2029.00,106.65
2028.00,106.65
2027.00,106.65
2026.00,106.65
2025.00,106.65
2024.00,106.65
2023.00,106.65
2022.00,106.66
2021.00,106.66
2020.00,106.66
2019.00,106.66
2018.00,106.66
2017.00,106.66
2016.00,106.66
2015.00,106.66
2014.00,106.66
2013.00,106.66
2012.00,106.66
2011.00,106.65
2010.00,106.65
2009.00,106.65
2008.00,106.65
2007.00,106.65
2006.00,106.65
2005.00,106.65
2004.00,106.65
2003.00,106.65
2002.00,106.65
2001.00,106.65
2000.00,106.64
1999.00,106.64
1998.00,106.64
1997.00,106.64
1996.00,106.64
1995.00,106.64
1994.00,106.64
1993.00,106.65
1992.00,106.65
1991.00,106.65
1990.00,106.65
1989.00,106.66
1988.00,106.66
1987.00,106.66
1986.00,106.67
1985.00,106.67
1984.00,106.67
1983.00,106.67
1982.00,106.68
1981.00,106.68
1980.00,106.68
1979.00,106.68
1978.00,106.69
1977.00,106.69
1976.00,106.69
1975.00,106.70
1974.00,106.70
1973.00,106.70
1972.00,106.70
1971.00,106.70
1970.00,106.70
1969.00,106.70
1968.00,106.70
1967.00,106.70
1966.00,106.70
1965.00,106.70
1964.00,106.70
1963.00,106.70
1962.00,106.71
1961.00,106.72
1960.00,106.72
1959.00,106.72
1958.00,106.71
1957.00,106.71
1956.00,106.71
1955.00,106.71
1954.00,106.72
1953.00,106.72
1952.00,106.72
1951.00,106.72
1950.00,106.72
1949.00,106.72
1948.00,106.72
1947.00,106.72
1946.00,106.72
1945.00,106.71
1944.00,106.71
1943.00,106.71
1942.00,106.71
1941.00,106.71
1940.00,106.70
1939.00,106.70
1938.00,106.69
1937.00,106.69
1936.00,106.68
1935.00,106.68
1934.00,106.68
1933.00,106.67
1932.00,106.67
1931.00,106.67
1930.00,106.67
1929.00,106.66
1928.00,106.66
1927.00,106.67
1926.00,106.67
1925.00,106.67
1924.00,106.67
1923.00,106.67
1922.00,106.68
1921.00,106.68
1920.00,106.68
1919.00,106.69
1918.00,106.69
1917.00,106.69
1916.00,106.69
1915.00,106.70
1914.00,106.70
1913.00,106.70
1912.00,106.69
1911.00,106.69
1910.00,106.69
1909.00,106.69
1908.00,106.69
1907.00,106.69
1906.00,106.69
1905.00,106.69
1904.00,106.68
1903.00,106.68
1902.00,106.68
1901.00,106.68
1900.00,106.67
1899.00,106.67
1898.00,106.67
1897.00,106.67
1896.00,106.67
1895.00,106.67
1894.00,106.67
1893.00,106.66
1892.00,106.66
1891.00,106.66
1890.00,106.66
1889.00,106.66
1888.00,106.66
1887.00,106.66
1886.00,106.67
1885.00,106.66
1884.00,106.66
1883.00,106.66
1882.00,106.67
1881.00,106.67
1880.00,106.67
1879.00,106.67
1878.00,106.68
1877.00,106.68
1876.00,106.68
1875.00,106.69
1874.00,106.69
1873.00,106.70
1872.00,106.70
1871.00,106.70
1870.00,106.70
1869.00,106.70
1868.00,106.70
1867.00,106.70
1866.00,106.71
1865.00,106.72
1864.00,106.72
1863.00,106.71
1862.00,106.72
1861.00,106.71
1860.00,106.71
1859.00,106.71
1858.00,106.72
1857.00,106.72
1856.00,106.72
1855.00,106.73
1854.00,106.73
1853.00,106.74
1852.00,106.74
1851.00,106.74
1850.00,106.75
1849.00,106.75
1848.00,106.74
1847.00,106.75
1846.00,106.75
1845.00,106.76
1844.00,106.76
1843.00,106.75
1842.00,106.75
1841.00,106.75
1840.00,106.75
1839.00,106.75
1838.00,106.74
1837.00,106.73
1836.00,106.73
1835.00,106.73
1834.00,106.73
1833.00,106.72
1832.00,106.72
1831.00,106.71
1830.00,106.71
1829.00,106.71
1828.00,106.72
1827.00,106.73
1826.00,106.74
1825.00,106.74
1824.00,106.73
1823.00,106.73
1822.00,106.74
1821.00,106.75
1820.00,106.75
1819.00,106.75
1818.00,106.75
1817.00,106.76
1816.00,106.76
1815.00,106.76
1814.00,106.76
1813.00,106.77
1812.00,106.77
1811.00,106.77
1810.00,106.78
1809.00,106.79
1808.00,106.79
1807.00,106.79
1806.00,106.80
1805.00,106.80
1804.00,106.80
1803.00,106.80
1802.00,106.81
1801.00,106.81
1800.00,106.81
1799.00,106.81
1798.00,106.81
1797.00,106.82
1796.00,106.82
1795.00,106.82
1794.00,106.83
1793.00,106.83
1792.00,106.83
1791.00,106.82
1790.00,106.82
1789.00,106.82
1788.00,106.81
1787.00,106.81
1786.00,106.80
1785.00,106.80
1784.00,106.79
1783.00,106.79
1782.00,106.79
1781.00,106.80
1780.00,106.80
1779.00,106.80
1778.00,106.80
1777.00,106.80
1776.00,106.80
1775.00,106.80
1774.00,106.80
1773.00,106.81
1772.00,106.80
1771.00,106.80
1770.00,106.81
1769.00,106.82
1768.00,106.82
1767.00,106.82
1766.00,106.81
1765.00,106.81
1764.00,106.82
1763.00,106.81
1762.00,106.81
1761.00,106.81
1760.00,106.81
1759.00,106.82
1758.00,106.83
1757.00,106.84
1756.00,106.84
1755.00,106.83
1754.00,106.84
1753.00,106.85
1752.00,106.85
1751.00,106.85
1750.00,106.84
1749.00,106.85
1748.00,106.85
1747.00,106.85
1746.00,106.85
1745.00,106.84
1744.00,106.84
1743.00,106.84
1742.00,106.84
1741.00,106.84
1740.00,106.84
1739.00,106.84
1738.00,106.83
1737.00,106.83
1736.00,106.84
1735.00,106.85
1734.00,106.84
1733.00,106.83
1732.00,106.83
1731.00,106.84
1730.00,106.84
1729.00,106.83
1728.00,106.82
1727.00,106.81
1726.00,106.81
1725.00,106.81
1724.00,106.81
1723.00,106.81
1722.00,106.81
1721.00,106.82
1720.00,106.81
1719.00,106.82
1718.00,106.82
1717.00,106.82
1716.00,106.83
1715.00,106.85
1714.00,106.87
1713.00,106.86
1712.00,106.85
1711.00,106.84
1710.00,106.84
1709.00,106.84
1708.00,106.84
1707.00,106.85
1706.00,106.86
1705.00,106.87
1704.00,106.86
1703.00,106.87
1702.00,106.89
1701.00,106.89
1700.00,106.87
1699.00,106.87
1698.00,106.89
1697.00,106.92
1696.00,106.92
1695.00,106.90
1694.00,106.88
1693.00,106.87
1692.00,106.87
1691.00,106.87
1690.00,106.86
1689.00,106.85
1688.00,106.85
1687.00,106.85
1686.00,106.85
1685.00,106.84
1684.00,106.84
1683.00,106.84
1682.00,106.85
1681.00,106.85
1680.00,106.86
1679.00,106.84
1678.00,106.83
1677.00,106.83
1676.00,106.84
1675.00,106.84
1674.00,106.84
1673.00,106.84
1672.00,106.85
1671.00,106.84
1670.00,106.83
1669.00,106.83
1668.00,106.83
1667.00,106.83
1666.00,106.83
1665.00,106.83
1664.00,106.84
1663.00,106.84
1662.00,106.84
1661.00,106.84
1660.00,106.85
1659.00,106.85
1658.00,106.84
1657.00,106.83
1656.00,106.82
1655.00,106.81
1654.00,106.81
1653.00,106.82
1652.00,106.83
1651.00,106.85
1650.00,106.88
1649.00,106.90
1648.00,106.91
1647.00,106.90
1646.00,106.90
1645.00,106.90
1644.00,106.90
1643.00,106.90
1642.00,106.90
1641.00,106.89
1640.00,106.88
1639.00,106.87
1638.00,106.87
1637.00,106.87
1636.00,106.88
1635.00,106.89
1634.00,106.89
1633.00,106.89
1632.00,106.88
1631.00,106.88
1630.00,106.87
1629.00,106.86
1628.00,106.85
1627.00,106.85
1626.00,106.84
1625.00,106.84
1624.00,106.84
1623.00,106.84
1622.00,106.84
1621.00,106.83
1620.00,106.84
1619.00,106.84
1618.00,106.83
1617.00,106.82
1616.00,106.82
1615.00,106.82
1614.00,106.82
1613.00,106.82
1612.00,106.82
1611.00,106.82
1610.00,106.81
1609.00,106.81
1608.00,106.81
1607.00,106.82
1606.00,106.82
1605.00,106.82
1604.00,106.82
1603.00,106.82
1602.00,106.82
1601.00,106.82
1600.00,106.83
1599.00,106.83
1598.00,106.83
1597.00,106.83
1596.00,106.83
1595.00,106.83
1594.00,106.83
1593.00,106.83
1592.00,106.84
1591.00,106.84
1590.00,106.84
1589.00,106.84
1588.00,106.84
1587.00,106.84
1586.00,106.84
1585.00,106.84
1584.00,106.84
1583.00,106.84
1582.00,106.83
1581.00,106.82
1580.00,106.82
1579.00,106.82
1578.00,106.81
1577.00,106.81
1576.00,106.82
1575.00,106.83
1574.00,106.83
1573.00,106.83
1572.00,106.82
1571.00,106.81
1570.00,106.80
1569.00,106.80
1568.00,106.82
1567.00,106.83
1566.00,106.83
1565.00,106.83
1564.00,106.83
1563.00,106.83
1562.00,106.83
1561.00,106.83
1560.00,106.83
1559.00,106.83
1558.00,106.84
1557.00,106.85
1556.00,106.87
1555.00,106.88
1554.00,106.87
1553.00,106.86
1552.00,106.85
1551.00,106.85
1550.00,106.85
1549.00,106.85
1548.00,106.87
1547.00,106.89
1546.00,106.90
1545.00,106.89
1544.00,106.90
1543.00,106.91
1542.00,106.94
1541.00,106.96
1540.00,106.96
1539.00,106.95
1538.00,106.92
1537.00,106.91
1536.00,106.91
1535.00,106.91
1534.00,106.91
1533.00,106.90
1532.00,106.89
1531.00,106.89
1530.00,106.88
1529.00,106.87
1528.00,106.86
1527.00,106.86
1526.00,106.87
1525.00,106.87
1524.00,106.87
1523.00,106.86
1522.00,106.85
1521.00,106.84
1520.00,106.85
1519.00,106.86
1518.00,106.87
1517.00,106.87
1516.00,106.86
1515.00,106.85
1514.00,106.84
1513.00,106.84
1512.00,106.82
1511.00,106.81
1510.00,106.82
1509.00,106.83
1508.00,106.86
1507.00,106.89
1506.00,106.92
1505.00,106.91
1504.00,106.88
1503.00,106.86
1502.00,106.84
1501.00,106.84
1500.00,106.82
1499.00,106.81
1498.00,106.80
1497.00,106.80
1496.00,106.79
1495.00,106.79
1494.00,106.80
1493.00,106.80
1492.00,106.80
1491.00,106.80
1490.00,106.80
1489.00,106.81
1488.00,106.81
1487.00,106.82
1486.00,106.84
1485.00,106.84
1484.00,106.84
1483.00,106.84
1482.00,106.84
1481.00,106.84
1480.00,106.84
1479.00,106.84
1478.00,106.84
1477.00,106.84
1476.00,106.83
1475.00,106.84
1474.00,106.86
1473.00,106.89
1472.00,106.90
1471.00,106.89
1470.00,106.88
1469.00,106.86
1468.00,106.84
1467.00,106.83
1466.00,106.82
1465.00,106.83
1464.00,106.83
1463.00,106.84
1462.00,106.84
1461.00,106.83
1460.00,106.83
1459.00,106.82
1458.00,106.82
1457.00,106.84
1456.00,106.84
1455.00,106.84
1454.00,106.84
1453.00,106.84
1452.00,106.83
1451.00,106.82
1450.00,106.81
1449.00,106.80
1448.00,106.80
1447.00,106.81
1446.00,106.81
1445.00,106.82
1444.00,106.83
1443.00,106.82
1442.00,106.82
1441.00,106.82
1440.00,106.83
1439.00,106.83
1438.00,106.84
1437.00,106.85
1436.00,106.86
1435.00,106.85
1434.00,106.85
1433.00,106.85
1432.00,106.85
1431.00,106.84
1430.00,106.84
1429.00,106.84
1428.00,106.84
1427.00,106.84
1426.00,106.84
1425.00,106.85
1424.00,106.84
1423.00,106.83
1422.00,106.82
1421.00,106.81
1420.00,106.80
1419.00,106.79
1418.00,106.81
1417.00,106.83
1416.00,106.84
1415.00,106.83
1414.00,106.82
1413.00,106.81
1412.00,106.81
1411.00,106.80
1410.00,106.80
1409.00,106.79
1408.00,106.79
1407.00,106.78
1406.00,106.78
1405.00,106.78
1404.00,106.78
1403.00,106.78
1402.00,106.78
1401.00,106.77
1400.00,106.77
1399.00,106.77
1398.00,106.78
1397.00,106.79
1396.00,106.80
1395.00,106.80
1394.00,106.80
1393.00,106.81
1392.00,106.82
1391.00,106.82
1390.00,106.82
1389.00,106.82
1388.00,106.82
1387.00,106.83
1386.00,106.84
1385.00,106.85
1384.00,106.85
1383.00,106.84
1382.00,106.84
1381.00,106.84
1380.00,106.84
1379.00,106.84
1378.00,106.84
1377.00,106.84
1376.00,106.84
1375.00,106.83
1374.00,106.83
1373.00,106.83
1372.00,106.83
1371.00,106.83
1370.00,106.83
1369.00,106.82
1368.00,106.82
1367.00,106.82
1366.00,106.81
1365.00,106.81
1364.00,106.81
1363.00,106.81
1362.00,106.82
1361.00,106.82
1360.00,106.82
1359.00,106.81
1358.00,106.80
1357.00,106.80
1356.00,106.79
1355.00,106.79
1354.00,106.79
1353.00,106.79
1352.00,106.79
1351.00,106.79
1350.00,106.79
1349.00,106.79
1348.00,106.79
1347.00,106.79
1346.00,106.80
1345.00,106.80
1344.00,106.80
1343.00,106.80
1342.00,106.80
1341.00,106.81
1340.00,106.82
1339.00,106.82
1338.00,106.82
1337.00,106.82
1336.00,106.82
1335.00,106.82
1334.00,106.82
1333.00,106.82
1332.00,106.82
1331.00,106.83
1330.00,106.83
1329.00,106.83
1328.00,106.83
1327.00,106.83
1326.00,106.83
1325.00,106.83
1324.00,106.83
1323.00,106.83
1322.00,106.83
1321.00,106.83
1320.00,106.83
1319.00,106.82
1318.00,106.82
1317.00,106.82
1316.00,106.82
1315.00,106.82
1314.00,106.81
1313.00,106.81
1312.00,106.81
1311.00,106.80
1310.00,106.80
1309.00,106.80
1308.00,106.80
1307.00,106.79
1306.00,106.79
1305.00,106.79
1304.00,106.78
1303.00,106.78
1302.00,106.78
1301.00,106.78
1300.00,106.78
1299.00,106.78
1298.00,106.78
1297.00,106.78
1296.00,106.78
1295.00,106.78
1294.00,106.77
1293.00,106.77
1292.00,106.78
1291.00,106.78
1290.00,106.78
1289.00,106.78
1288.00,106.78
1287.00,106.78
1286.00,106.78
1285.00,106.79
1284.00,106.79
1283.00,106.79
1282.00,106.79
1281.00,106.80
1280.00,106.80
1279.00,106.80
1278.00,106.80
1277.00,106.80
1276.00,106.80
1275.00,106.80
1274.00,106.80
1273.00,106.80
1272.00,106.80
1271.00,106.79
1270.00,106.79
1269.00,106.79
1268.00,106.79
1267.00,106.78
1266.00,106.78
1265.00,106.77
1264.00,106.77
1263.00,106.76
1262.00,106.76
1261.00,106.76
1260.00,106.76
1259.00,106.76
1258.00,106.76
1257.00,106.77
1256.00,106.77
1255.00,106.77
1254.00,106.77
1253.00,106.77
1252.00,106.78
1251.00,106.78
1250.00,106.78
1249.00,106.78
1248.00,106.78
1247.00,106.78
1246.00,106.78
1245.00,106.78
1244.00,106.78
1243.00,106.78
1242.00,106.78
1241.00,106.78
1240.00,106.78
1239.00,106.78
1238.00,106.77
1237.00,106.77
1236.00,106.77
1235.00,106.77
1234.00,106.77
1233.00,106.77
1232.00,106.77
1231.00,106.77
1230.00,106.77
1229.00,106.77
1228.00,106.77
1227.00,106.77
1226.00,106.77
1225.00,106.77
1224.00,106.77
1223.00,106.77
1222.00,106.77
1221.00,106.77
1220.00,106.77
1219.00,106.77
1218.00,106.76
1217.00,106.76
1216.00,106.76
1215.00,106.76
1214.00,106.75
1213.00,106.75
1212.00,106.75
1211.00,106.75
1210.00,106.74
1209.00,106.74
1208.00,106.74
1207.00,106.73
1206.00,106.73
1205.00,106.73
1204.00,106.72
1203.00,106.72
1202.00,106.72
1201.00,106.72
1200.00,106.72
1199.00,106.71
1198.00,106.71
1197.00,106.71
1196.00,106.71
1195.00,106.71
1194.00,106.71
1193.00,106.71
1192.00,106.71
1191.00,106.71
1190.00,106.71
1189.00,106.71
1188.00,106.71
1187.00,106.72
1186.00,106.72
1185.00,106.72
1184.00,106.72
1183.00,106.72
1182.00,106.73
1181.00,106.73
1180.00,106.72
1179.00,106.72
1178.00,106.72
1177.00,106.72
1176.00,106.73
1175.00,106.73
1174.00,106.73
1173.00,106.73
1172.00,106.73
1171.00,106.73
1170.00,106.73
1169.00,106.73
1168.00,106.73
1167.00,106.73
1166.00,106.73
1165.00,106.72
1164.00,106.72
1163.00,106.72
1162.00,106.71
1161.00,106.71
1160.00,106.71
1159.00,106.71
1158.00,106.70
1157.00,106.70
1156.00,106.70
1155.00,106.69
1154.00,106.69
1153.00,106.69
1152.00,106.69
1151.00,106.68
1150.00,106.68
1149.00,106.68
1148.00,106.68
1147.00,106.67
1146.00,106.67
1145.00,106.67
1144.00,106.67
1143.00,106.67
1142.00,106.67
1141.00,106.67
1140.00,106.67
1139.00,106.67
1138.00,106.67
1137.00,106.67
1136.00,106.67
1135.00,106.68
1134.00,106.68
1133.00,106.68
1132.00,106.68
1131.00,106.68
1130.00,106.68
1129.00,106.68
1128.00,106.68
1127.00,106.68
1126.00,106.69
1125.00,106.69
1124.00,106.70
1123.00,106.70
1122.00,106.70
1121.00,106.70
1120.00,106.70
1119.00,106.70
1118.00,106.70
1117.00,106.70
1116.00,106.70
1115.00,106.69
1114.00,106.69
1113.00,106.69
1112.00,106.69
1111.00,106.68
1110.00,106.68
1109.00,106.68
1108.00,106.68
1107.00,106.67
1106.00,106.67
1105.00,106.66
1104.00,106.66
1103.00,106.65
1102.00,106.65
1101.00,106.64
1100.00,106.64
1099.00,106.64
1098.00,106.64
1097.00,106.64
1096.00,106.64
1095.00,106.64
1094.00,106.63
1093.00,106.63
1092.00,106.63
1091.00,106.63
1090.00,106.63
1089.00,106.63
1088.00,106.63
1087.00,106.63
1086.00,106.62
1085.00,106.62
1084.00,106.62
1083.00,106.62
1082.00,106.62
1081.00,106.62
1080.00,106.62
1079.00,106.62
1078.00,106.62
1077.00,106.63
1076.00,106.63
1075.00,106.63
1074.00,106.63
1073.00,106.63
1072.00,106.63
1071.00,106.63
1070.00,106.63
1069.00,106.64
1068.00,106.64
1067.00,106.64
1066.00,106.63
1065.00,106.63
1064.00,106.63
1063.00,106.63
1062.00,106.63
1061.00,106.63
1060.00,106.63
1059.00,106.63
1058.00,106.64
1057.00,106.64
1056.00,106.64
1055.00,106.64
1054.00,106.63
1053.00,106.63
1052.00,106.62
1051.00,106.61
1050.00,106.61
1049.00,106.60
1048.00,106.60
1047.00,106.60
1046.00,106.61
1045.00,106.62
1044.00,106.62
1043.00,106.62
1042.00,106.62
1041.00,106.63
1040.00,106.63
1039.00,106.63
1038.00,106.63
1037.00,106.63
1036.00,106.64
1035.00,106.64
1034.00,106.64
1033.00,106.64
1032.00,106.65
1031.00,106.65
1030.00,106.65
1029.00,106.66
1028.00,106.66
1027.00,106.67
1026.00,106.67
1025.00,106.67
1024.00,106.68
1023.00,106.69
1022.00,106.69
1021.00,106.70
1020.00,106.70
1019.00,106.70
1018.00,106.71
1017.00,106.72
1016.00,106.72
1015.00,106.72
1014.00,106.73
1013.00,106.73
1012.00,106.74
1011.00,106.75
1010.00,106.75
1009.00,106.75
1008.00,106.76
1007.00,106.76
1006.00,106.76
1005.00,106.77
1004.00,106.77
1003.00,106.77
1002.00,106.77
1001.00,106.78
1000.00,106.78
999.00,106.78
998.00,106.78
997.00,106.78
996.00,106.78
995.00,106.79
994.00,106.79
993.00,106.80
992.00,106.80
991.00,106.80
990.00,106.80
989.00,106.80
988.00,106.80
987.00,106.80
986.00,106.80
985.00,106.81
984.00,106.81
983.00,106.81
982.00,106.82
981.00,106.82
980.00,106.82
979.00,106.82
978.00,106.82
977.00,106.83
976.00,106.83
975.00,106.84
974.00,106.84
973.00,106.85
972.00,106.85
971.00,106.86
970.00,106.86
969.00,106.86
968.00,106.87
967.00,106.87
966.00,106.88
965.00,106.88
964.00,106.89
963.00,106.89
962.00,106.89
961.00,106.89
960.00,106.89
959.00,106.90
958.00,106.91
957.00,106.91
956.00,106.91
955.00,106.91
954.00,106.91
953.00,106.91
952.00,106.91
951.00,106.91
950.00,106.92
949.00,106.92
948.00,106.92
947.00,106.92
946.00,106.92
945.00,106.92
944.00,106.92
943.00,106.92
942.00,106.92
941.00,106.92
940.00,106.92
939.00,106.92
938.00,106.92
937.00,106.92
936.00,106.92
935.00,106.92
934.00,106.92
933.00,106.93
932.00,106.93
931.00,106.93
930.00,106.93
929.00,106.93
928.00,106.93
927.00,106.93
926.00,106.93
925.00,106.94
924.00,106.94
923.00,106.94
922.00,106.94
921.00,106.94
920.00,106.95
919.00,106.95
918.00,106.95
917.00,106.95
916.00,106.95
915.00,106.95
914.00,106.95
913.00,106.95
912.00,106.96
911.00,106.96
910.00,106.96
909.00,106.96
908.00,106.96
907.00,106.95
906.00,106.95
905.00,106.95
904.00,106.95
903.00,106.95
902.00,106.95
901.00,106.95
900.00,106.95
899.00,106.96
898.00,106.96
897.00,106.96
896.00,106.95
895.00,106.95
894.00,106.95
893.00,106.95
892.00,106.95
891.00,106.95
890.00,106.94
889.00,106.94
888.00,106.94
887.00,106.94
886.00,106.94
885.00,106.94
884.00,106.94
883.00,106.93
882.00,106.92
881.00,106.92
880.00,106.92
879.00,106.92
878.00,106.92
877.00,106.92
876.00,106.92
875.00,106.92
874.00,106.92
873.00,106.91
872.00,106.91
871.00,106.91
870.00,106.92
869.00,106.92
868.00,106.92
867.00,106.92
866.00,106.92
865.00,106.92
864.00,106.92
863.00,106.92
862.00,106.93
861.00,106.93
860.00,106.93
859.00,106.94
858.00,106.94
857.00,106.94
856.00,106.94
855.00,106.94
854.00,106.94
853.00,106.94
852.00,106.94
851.00,106.94
850.00,106.94
849.00,106.94
848.00,106.94
847.00,106.94
846.00,106.93
845.00,106.93
844.00,106.93
843.00,106.93
842.00,106.93
841.00,106.93
840.00,106.93
839.00,106.92
838.00,106.92
837.00,106.91
836.00,106.91
835.00,106.90
834.00,106.90
833.00,106.90
832.00,106.89
831.00,106.89
830.00,106.89
829.00,106.88
828.00,106.87
827.00,106.87
826.00,106.86
825.00,106.86
824.00,106.86
823.00,106.86
822.00,106.86
821.00,106.86
820.00,106.86
819.00,106.86
818.00,106.86
817.00,106.87
816.00,106.87
815.00,106.88
814.00,106.88
813.00,106.88
812.00,106.88
811.00,106.88
810.00,106.88
809.00,106.89
808.00,106.89
807.00,106.90
806.00,106.90
805.00,106.91
804.00,106.91
803.00,106.91
802.00,106.91
801.00,106.91
800.00,106.91
799.00,106.92
798.00,106.92
797.00,106.92
796.00,106.92
795.00,106.92
794.00,106.92
793.00,106.92
792.00,106.93
791.00,106.93
790.00,106.92
789.00,106.92
788.00,106.91
787.00,106.91
786.00,106.91
785.00,106.91
784.00,106.92
783.00,106.92
782.00,106.92
781.00,106.92
780.00,106.92
779.00,106.92
778.00,106.92
777.00,106.92
776.00,106.92
775.00,106.92
774.00,106.91
773.00,106.91
772.00,106.91
771.00,106.91
770.00,106.91
769.00,106.91
768.00,106.91
767.00,106.91
766.00,106.91
765.00,106.92
764.00,106.92
763.00,106.92
762.00,106.92
761.00,106.92
760.00,106.92
759.00,106.92
758.00,106.91
757.00,106.92
756.00,106.92
755.00,106.92
754.00,106.92
753.00,106.92
752.00,106.92
751.00,106.92
750.00,106.92
749.00,106.92
748.00,106.92
747.00,106.92
746.00,106.92
745.00,106.92
744.00,106.92
743.00,106.92
742.00,106.92
741.00,106.92
740.00,106.92
739.00,106.92
738.00,106.91
737.00,106.91
736.00,106.91
735.00,106.91
734.00,106.91
733.00,106.91
732.00,106.91
731.00,106.90
730.00,106.90
729.00,106.90
728.00,106.90
727.00,106.90
726.00,106.90
725.00,106.89
724.00,106.89
723.00,106.90
722.00,106.90
721.00,106.90
720.00,106.90
719.00,106.90
718.00,106.89
717.00,106.89
716.00,106.89
715.00,106.89
714.00,106.89
713.00,106.89
712.00,106.90
711.00,106.91
710.00,106.91
709.00,106.90
708.00,106.90
707.00,106.90
706.00,106.90
705.00,106.90
704.00,106.91
703.00,106.91
702.00,106.91
701.00,106.92
700.00,106.92
699.00,106.92
698.00,106.93
697.00,106.93
696.00,106.94
695.00,106.95
694.00,106.95
693.00,106.95
692.00,106.95
691.00,106.95
690.00,106.95
689.00,106.94
688.00,106.94
687.00,106.94
686.00,106.93
685.00,106.94
684.00,106.95
683.00,106.96
682.00,106.96
681.00,106.96
680.00,106.96
679.00,106.97
678.00,106.96
677.00,106.94
676.00,106.94
675.00,106.93
674.00,106.93
673.00,106.94
672.00,106.97
671.00,107.00
670.00,107.01
669.00,107.03
668.00,107.01
667.00,106.95
666.00,106.93
665.00,106.94
664.00,106.93
663.00,106.91
662.00,106.91
661.00,106.91
660.00,106.92
659.00,106.92
658.00,106.93
657.00,106.94
656.00,106.94
655.00,106.94
654.00,106.94
653.00,106.94
652.00,106.93
651.00,106.92
650.00,106.93
649.00,106.94
648.00,106.93
647.00,106.91
646.00,106.90
645.00,106.90
644.00,106.89
643.00,106.88
642.00,106.89
641.00,106.89
640.00,106.88
639.00,106.87
638.00,106.86
637.00,106.86
636.00,106.85
635.00,106.85
634.00,106.86
633.00,106.87
632.00,106.86
631.00,106.85
630.00,106.84
629.00,106.84
628.00,106.84
627.00,106.83
626.00,106.83
625.00,106.83
624.00,106.82
623.00,106.82
622.00,106.82
621.00,106.82
620.00,106.82
619.00,106.82
618.00,106.83
617.00,106.84
616.00,106.83
615.00,106.82
614.00,106.81
613.00,106.82
612.00,106.82
611.00,106.82
610.00,106.83
609.00,106.83
608.00,106.82
607.00,106.81
606.00,106.81
605.00,106.82
604.00,106.83
603.00,106.83
602.00,106.84
601.00,106.83
600.00,106.82
599.00,106.82
598.00,106.82
597.00,106.83
596.00,106.83
595.00,106.84
594.00,106.84
593.00,106.85
592.00,106.85
591.00,106.85
590.00,106.86
589.00,106.86
588.00,106.85
587.00,106.83
586.00,106.83
585.00,106.83
584.00,106.83
583.00,106.84
582.00,106.84
581.00,106.84
580.00,106.84
579.00,106.84
578.00,106.84
577.00,106.84
576.00,106.83
575.00,106.82
574.00,106.82
573.00,106.84
572.00,106.84
571.00,106.84
570.00,106.83
569.00,106.82
568.00,106.81
567.00,106.81
566.00,106.81
565.00,106.81
564.00,106.81
563.00,106.81
562.00,106.82
561.00,106.82
560.00,106.82
559.00,106.82
558.00,106.81
557.00,106.80
556.00,106.80
555.00,106.79
554.00,106.79
553.00,106.79
552.00,106.79
551.00,106.79
550.00,106.80
549.00,106.81
548.00,106.82
547.00,106.83
546.00,106.83
545.00,106.83
544.00,106.83
543.00,106.84
542.00,106.85
541.00,106.86
540.00,106.86
539.00,106.86
538.00,106.86
537.00,106.86
536.00,106.87
535.00,106.88
534.00,106.89
533.00,106.88
532.00,106.88
531.00,106.87
530.00,106.88
529.00,106.89
528.00,106.90
527.00,106.91
526.00,106.92
525.00,106.93
524.00,106.93
523.00,106.92
522.00,106.91
521.00,106.91
520.00,106.90
519.00,106.90
518.00,106.90
517.00,106.91
516.00,106.93
515.00,106.94
514.00,106.95
513.00,106.95
512.00,106.95
511.00,106.95
510.00,106.94
509.00,106.93
508.00,106.93
507.00,106.93
506.00,106.94
505.00,106.95
504.00,106.96
503.00,106.97
502.00,106.97
501.00,106.96
500.00,106.95
