Created as New Dataset,Sample 350 By Analyst Date Wednesday, February 05 2025
cm-1,%T
4000.00,129.87
3999.00,129.86
3998.00,129.86
3997.00,129.85
3996.00,129.85
3995.00,129.84
3994.00,129.84
3993.00,129.83
3992.00,129.83
3991.00,129.83
3990.00,129.82
3989.00,129.81
3988.00,129.80
3987.00,129.79
3986.00,129.78
3985.00,129.77
3984.00,129.76
3983.00,129.75
3982.00,129.74
3981.00,129.72
3980.00,129.71
3979.00,129.70
3978.00,129.69
3977.00,129.68
3976.00,129.67
3975.00,129.66
3974.00,129.65
3973.00,129.63
3972.00,129.62
3971.00,129.61
3970.00,129.60
3969.00,129.59
3968.00,129.58
3967.00,129.58
3966.00,129.57
3965.00,129.56
3964.00,129.56
3963.00,129.56
3962.00,129.55
3961.00,129.55
3960.00,129.55
3959.00,129.55
3958.00,129.55
3957.00,129.55
3956.00,129.55
3955.00,129.55
3954.00,129.56
3953.00,129.56
3952.00,129.56
3951.00,129.57
3950.00,129.57
3949.00,129.58
3948.00,129.59
3947.00,129.59
3946.00,129.59
3945.00,129.59
3944.00,129.60
3943.00,129.60
3942.00,129.60
3941.00,129.59
3940.00,129.58
3939.00,129.58
3938.00,129.57
3937.00,129.57
3936.00,129.56
3935.00,129.56
3934.00,129.55
3933.00,129.55
3932.00,129.55
3931.00,129.54
3930.00,129.53
3929.00,129.52
3928.00,129.52
3927.00,129.50
3926.00,129.50
3925.00,129.49
3924.00,129.48
3923.00,129.47
3922.00,129.47
3921.00,129.46
3920.00,129.46
3919.00,129.45
3918.00,129.45
3917.00,129.44
3916.00,129.43
3915.00,129.42
3914.00,129.40
3913.00,129.39
3912.00,129.38
3911.00,129.38
3910.00,129.38
3909.00,129.39
3908.00,129.40
3907.00,129.41
3906.00,129.43
3905.00,129.45
3904.00,129.47
3903.00,129.49
3902.00,129.49
3901.00,129.50
3900.00,129.51
3899.00,129.50
3898.00,129.49
3897.00,129.48
3896.00,129.46
3895.00,129.46
3894.00,129.45
3893.00,129.45
3892.00,129.45
3891.00,129.46
3890.00,129.46
3889.00,129.46
3888.00,129.46
3887.00,129.48
3886.00,129.49
3885.00,129.49
3884.00,129.48
3883.00,129.47
3882.00,129.47
3881.00,129.48
3880.00,129.48
3879.00,129.46
3878.00,129.44
3877.00,129.43
3876.00,129.43
3875.00,129.44
3874.00,129.45
3873.00,129.43
3872.00,129.42
3871.00,129.43
3870.00,129.45
3869.00,129.46
3868.00,129.44
3867.00,129.42
3866.00,129.41
3865.00,129.41
3864.00,129.39
3863.00,129.36
3862.00,129.34
3861.00,129.34
3860.00,129.34
3859.00,129.35
3858.00,129.36
3857.00,129.38
3856.00,129.39
3855.00,129.40
3854.00,129.43
3853.00,129.44
3852.00,129.44
3851.00,129.43
3850.00,129.41
3849.00,129.39
3848.00,129.36
3847.00,129.32
3846.00,129.29
3845.00,129.28
3844.00,129.29
3843.00,129.30
3842.00,129.31
3841.00,129.32
3840.00,129.33
3839.00,129.35
3838.00,129.36
3837.00,129.36
3836.00,129.36
3835.00,129.35
3834.00,129.33
3833.00,129.31
3832.00,129.29
3831.00,129.27
3830.00,129.24
3829.00,129.22
3828.00,129.22
3827.00,129.22
3826.00,129.22
3825.00,129.22
3824.00,129.21
3823.00,129.21
3822.00,129.22
3821.00,129.23
3820.00,129.22
3819.00,129.20
3818.00,129.18
3817.00,129.18
3816.00,129.17
3815.00,129.14
3814.00,129.11
3813.00,129.08
3812.00,129.08
3811.00,129.08
3810.00,129.06
3809.00,129.03
3808.00,129.02
3807.00,129.04
3806.00,129.05
3805.00,129.05
3804.00,129.04
3803.00,129.05
3802.00,129.07
3801.00,129.07
3800.00,129.05
3799.00,129.03
3798.00,129.02
3797.00,129.02
3796.00,129.00
3795.00,128.97
3794.00,128.95
3793.00,128.93
3792.00,128.93
3791.00,128.92
3790.00,128.92
3789.00,128.92
3788.00,128.92
3787.00,128.93
3786.00,128.94
3785.00,128.95
3784.00,128.96
3783.00,128.96
3782.00,128.97
3781.00,128.97
3780.00,128.97
3779.00,128.98
3778.00,128.97
3777.00,128.97
3776.00,128.97
3775.00,128.98
3774.00,128.99
3773.00,128.98
3772.00,128.98
3771.00,128.99
3770.00,128.99
3769.00,129.00
3768.00,128.99
3767.00,128.99
3766.00,128.99
3765.00,129.00
3764.00,128.99
3763.00,128.98
3762.00,128.97
3761.00,128.97
3760.00,128.97
3759.00,128.96
3758.00,128.95
3757.00,128.96
3756.00,128.96
3755.00,128.97
3754.00,128.98
3753.00,128.98
3752.00,128.99
3751.00,128.99
3750.00,129.01
3749.00,129.03
3748.00,129.03
3747.00,129.02
3746.00,129.00
3745.00,129.00
3744.00,128.99
3743.00,128.95
3742.00,128.91
3741.00,128.89
3740.00,128.87
3739.00,128.86
3738.00,128.83
3737.00,128.82
3736.00,128.83
3735.00,128.84
3734.00,128.83
3733.00,128.82
3732.00,128.81
3731.00,128.79
3730.00,128.75
3729.00,128.71
3728.00,128.69
3727.00,128.68
3726.00,128.67
3725.00,128.66
3724.00,128.65
3723.00,128.65
3722.00,128.65
3721.00,128.63
3720.00,128.62
3719.00,128.61
3718.00,128.61
3717.00,128.61
3716.00,128.61
3715.00,128.63
3714.00,128.64
3713.00,128.66
3712.00,128.68
3711.00,128.68
3710.00,128.69
3709.00,128.70
3708.00,128.71
3707.00,128.72
3706.00,128.72
3705.00,128.72
3704.00,128.73
3703.00,128.74
3702.00,128.75
3701.00,128.78
3700.00,128.80
3699.00,128.82
3698.00,128.85
3697.00,128.89
3696.00,128.92
3695.00,128.96
3694.00,129.01
3693.00,129.06
3692.00,129.10
3691.00,129.14
3690.00,129.18
3689.00,129.22
3688.00,129.25
3687.00,129.28
3686.00,129.29
3685.00,129.30
3684.00,129.31
3683.00,129.31
3682.00,129.32
3681.00,129.33
3680.00,129.36
3679.00,129.39
3678.00,129.41
3677.00,129.43
3676.00,129.47
3675.00,129.50
3674.00,129.51
3673.00,129.51
3672.00,129.51
3671.00,129.51
3670.00,129.50
3669.00,129.46
3668.00,129.41
3667.00,129.37
3666.00,129.35
3665.00,129.32
3664.00,129.28
3663.00,129.25
3662.00,129.22
3661.00,129.21
3660.00,129.19
3659.00,129.18
3658.00,129.17
3657.00,129.17
3656.00,129.18
3655.00,129.18
3654.00,129.18
3653.00,129.18
3652.00,129.19
3651.00,129.19
3650.00,129.18
3649.00,129.16
3648.00,129.15
3647.00,129.14
3646.00,129.11
3645.00,129.08
3644.00,129.04
3643.00,129.00
3642.00,128.97
3641.00,128.94
3640.00,128.93
3639.00,128.92
3638.00,128.92
3637.00,128.93
3636.00,128.94
3635.00,128.95
3634.00,128.98
3633.00,129.01
3632.00,129.03
3631.00,129.05
3630.00,129.08
3629.00,129.12
3628.00,129.13
3627.00,129.13
3626.00,129.14
3625.00,129.14
3624.00,129.15
3623.00,129.15
3622.00,129.15
3621.00,129.16
3620.00,129.17
3619.00,129.19
3618.00,129.19
3617.00,129.19
3616.00,129.19
3615.00,129.18
3614.00,129.18
3613.00,129.18
3612.00,129.17
3611.00,129.16
3610.00,129.16
3609.00,129.16
3608.00,129.15
3607.00,129.14
3606.00,129.12
3605.00,129.11
3604.00,129.09
3603.00,129.08
3602.00,129.06
3601.00,129.05
3600.00,129.05
3599.00,129.05
3598.00,129.05
3597.00,129.05
3596.00,129.06
3595.00,129.06
3594.00,129.06
3593.00,129.07
3592.00,129.08
3591.00,129.09
3590.00,129.10
3589.00,129.11
3588.00,129.12
3587.00,129.12
3586.00,129.12
3585.00,129.12
3584.00,129.12
3583.00,129.12
3582.00,129.12
3581.00,129.12
3580.00,129.12
3579.00,129.13
3578.00,129.14
3577.00,129.15
3576.00,129.16
3575.00,129.18
3574.00,129.19
3573.00,129.21
3572.00,129.22
3571.00,129.25
3570.00,129.27
3569.00,129.29
3568.00,129.32
3567.00,129.35
3566.00,129.36
3565.00,129.36
3564.00,129.36
3563.00,129.36
3562.00,129.35
3561.00,129.34
3560.00,129.34
3559.00,129.34
3558.00,129.34
3557.00,129.34
3556.00,129.34
3555.00,129.34
3554.00,129.34
3553.00,129.34
3552.00,129.34
3551.00,129.34
3550.00,129.34
3549.00,129.34
3548.00,129.34
3547.00,129.34
3546.00,129.33
3545.00,129.33
3544.00,129.32
3543.00,129.32
3542.00,129.32
3541.00,129.31
3540.00,129.30
3539.00,129.30
3538.00,129.29
3537.00,129.29
3536.00,129.29
3535.00,129.30
3534.00,129.30
3533.00,129.31
3532.00,129.31
3531.00,129.32
3530.00,129.32
3529.00,129.32
3528.00,129.32
3527.00,129.32
3526.00,129.32
3525.00,129.32
3524.00,129.32
3523.00,129.33
3522.00,129.33
3521.00,129.32
3520.00,129.32
3519.00,129.32
3518.00,129.31
3517.00,129.30
3516.00,129.30
3515.00,129.30
3514.00,129.29
3513.00,129.29
3512.00,129.29
3511.00,129.29
3510.00,129.29
3509.00,129.29
3508.00,129.29
3507.00,129.28
3506.00,129.27
3505.00,129.26
3504.00,129.25
3503.00,129.25
3502.00,129.24
3501.00,129.24
3500.00,129.23
3499.00,129.23
3498.00,129.22
3497.00,129.22
3496.00,129.22
3495.00,129.21
3494.00,129.21
3493.00,129.21
3492.00,129.21
3491.00,129.21
3490.00,129.22
3489.00,129.22
3488.00,129.23
3487.00,129.23
3486.00,129.24
3485.00,129.25
3484.00,129.26
3483.00,129.27
3482.00,129.27
3481.00,129.28
3480.00,129.29
3479.00,129.31
3478.00,129.33
3477.00,129.34
3476.00,129.36
3475.00,129.37
3474.00,129.39
3473.00,129.40
3472.00,129.41
3471.00,129.43
3470.00,129.44
3469.00,129.45
3468.00,129.47
3467.00,129.49
3466.00,129.51
3465.00,129.53
3464.00,129.55
3463.00,129.57
3462.00,129.58
3461.00,129.59
3460.00,129.61
3459.00,129.62
3458.00,129.63
3457.00,129.65
3456.00,129.66
3455.00,129.67
3454.00,129.68
3453.00,129.69
3452.00,129.70
3451.00,129.71
3450.00,129.72
3449.00,129.72
3448.00,129.73
3447.00,129.74
3446.00,129.75
3445.00,129.76
3444.00,129.76
3443.00,129.77
3442.00,129.78
3441.00,129.78
3440.00,129.78
3439.00,129.78
3438.00,129.77
3437.00,129.77
3436.00,129.78
3435.00,129.78
3434.00,129.79
3433.00,129.80
3432.00,129.80
3431.00,129.80
3430.00,129.80
3429.00,129.80
3428.00,129.80
3427.00,129.80
3426.00,129.81
3425.00,129.81
3424.00,129.80
3423.00,129.80
3422.00,129.79
3421.00,129.79
3420.00,129.78
3419.00,129.77
3418.00,129.76
3417.00,129.75
3416.00,129.73
3415.00,129.71
3414.00,129.69
3413.00,129.67
3412.00,129.65
3411.00,129.63
3410.00,129.61
3409.00,129.59
3408.00,129.57
3407.00,129.55
3406.00,129.52
3405.00,129.49
3404.00,129.46
3403.00,129.43
3402.00,129.40
3401.00,129.37
3400.00,129.35
3399.00,129.34
3398.00,129.32
3397.00,129.30
3396.00,129.27
3395.00,129.24
3394.00,129.22
3393.00,129.19
3392.00,129.17
3391.00,129.16
3390.00,129.15
3389.00,129.13
3388.00,129.12
3387.00,129.11
3386.00,129.09
3385.00,129.08
3384.00,129.07
3383.00,129.06
3382.00,129.05
3381.00,129.04
3380.00,129.03
3379.00,129.02
3378.00,129.02
3377.00,129.01
3376.00,129.01
3375.00,129.01
3374.00,129.01
3373.00,129.00
3372.00,129.00
3371.00,128.99
3370.00,128.99
3369.00,128.99
3368.00,128.99
3367.00,128.99
3366.00,129.00
3365.00,129.01
3364.00,129.01
3363.00,129.01
3362.00,129.01
3361.00,129.01
3360.00,129.02
3359.00,129.02
3358.00,129.03
3357.00,129.03
3356.00,129.03
3355.00,129.03
3354.00,129.03
3353.00,129.02
3352.00,129.02
3351.00,129.02
3350.00,129.02
3349.00,129.03
3348.00,129.03
3347.00,129.03
3346.00,129.03
3345.00,129.03
3344.00,129.03
3343.00,129.02
3342.00,129.02
3341.00,129.02
3340.00,129.02
3339.00,129.02
3338.00,129.02
3337.00,129.03
3336.00,129.03
3335.00,129.04
3334.00,129.04
3333.00,129.05
3332.00,129.05
3331.00,129.05
3330.00,129.06
3329.00,129.07
3328.00,129.07
3327.00,129.08
3326.00,129.09
3325.00,129.10
3324.00,129.11
3323.00,129.12
3322.00,129.14
3321.00,129.15
3320.00,129.16
3319.00,129.18
3318.00,129.19
3317.00,129.21
3316.00,129.23
3315.00,129.25
3314.00,129.27
3313.00,129.30
3312.00,129.33
3311.00,129.36
3310.00,129.39
3309.00,129.42
3308.00,129.46
3307.00,129.49
3306.00,129.53
3305.00,129.56
3304.00,129.59
3303.00,129.61
3302.00,129.62
3301.00,129.62
3300.00,129.61
3299.00,129.58
3298.00,129.55
3297.00,129.51
3296.00,129.47
3295.00,129.43
3294.00,129.39
3293.00,129.35
3292.00,129.31
3291.00,129.27
3290.00,129.24
3289.00,129.21
3288.00,129.18
3287.00,129.15
3286.00,129.12
3285.00,129.09
3284.00,129.07
3283.00,129.04
3282.00,129.02
3281.00,129.00
3280.00,128.98
3279.00,128.96
3278.00,128.94
3277.00,128.93
3276.00,128.91
3275.00,128.90
3274.00,128.88
3273.00,128.87
3272.00,128.86
3271.00,128.85
3270.00,128.84
3269.00,128.84
3268.00,128.84
3267.00,128.84
3266.00,128.84
3265.00,128.84
3264.00,128.84
3263.00,128.85
3262.00,128.85
3261.00,128.85
3260.00,128.86
3259.00,128.86
3258.00,128.86
3257.00,128.86
3256.00,128.87
3255.00,128.87
3254.00,128.88
3253.00,128.88
3252.00,128.89
3251.00,128.89
3250.00,128.89
3249.00,128.89
3248.00,128.89
3247.00,128.89
3246.00,128.89
3245.00,128.90
3244.00,128.90
3243.00,128.90
3242.00,128.91
3241.00,128.91
3240.00,128.91
3239.00,128.91
3238.00,128.90
3237.00,128.90
3236.00,128.90
3235.00,128.89
3234.00,128.89
3233.00,128.90
3232.00,128.90
3231.00,128.91
3230.00,128.92
3229.00,128.92
3228.00,128.92
3227.00,128.93
3226.00,128.93
3225.00,128.94
3224.00,128.95
3223.00,128.96
3222.00,128.96
3221.00,128.97
3220.00,128.98
3219.00,128.99
3218.00,129.00
3217.00,129.01
3216.00,129.02
3215.00,129.04
3214.00,129.05
3213.00,129.06
3212.00,129.08
3211.00,129.09
3210.00,129.11
3209.00,129.12
3208.00,129.13
3207.00,129.14
3206.00,129.16
3205.00,129.17
3204.00,129.19
3203.00,129.20
3202.00,129.21
3201.00,129.22
3200.00,129.22
3199.00,129.23
3198.00,129.24
3197.00,129.24
3196.00,129.24
3195.00,129.24
3194.00,129.25
3193.00,129.25
3192.00,129.25
3191.00,129.25
3190.00,129.25
3189.00,129.24
3188.00,129.25
3187.00,129.25
3186.00,129.25
3185.00,129.25
3184.00,129.25
3183.00,129.26
3182.00,129.26
3181.00,129.26
3180.00,129.26
3179.00,129.26
3178.00,129.25
3177.00,129.25
3176.00,129.24
3175.00,129.23
3174.00,129.22
3173.00,129.22
3172.00,129.21
3171.00,129.21
3170.00,129.20
3169.00,129.20
3168.00,129.20
3167.00,129.20
3166.00,129.20
3165.00,129.21
3164.00,129.21
3163.00,129.22
3162.00,129.23
3161.00,129.23
3160.00,129.24
3159.00,129.25
3158.00,129.25
3157.00,129.26
3156.00,129.26
3155.00,129.26
3154.00,129.26
3153.00,129.26
3152.00,129.26
3151.00,129.26
3150.00,129.27
3149.00,129.27
3148.00,129.27
3147.00,129.27
3146.00,129.27
3145.00,129.27
3144.00,129.27
3143.00,129.27
3142.00,129.27
3141.00,129.27
3140.00,129.26
3139.00,129.26
3138.00,129.27
3137.00,129.27
3136.00,129.27
3135.00,129.28
3134.00,129.28
3133.00,129.28
3132.00,129.28
3131.00,129.27
3130.00,129.27
3129.00,129.28
3128.00,129.28
3127.00,129.29
3126.00,129.29
3125.00,129.30
3124.00,129.30
3123.00,129.30
3122.00,129.30
3121.00,129.30
3120.00,129.31
3119.00,129.31
3118.00,129.32
3117.00,129.33
3116.00,129.35
3115.00,129.36
3114.00,129.38
3113.00,129.40
3112.00,129.42
3111.00,129.43
3110.00,129.45
3109.00,129.47
3108.00,129.49
3107.00,129.51
3106.00,129.53
3105.00,129.55
3104.00,129.56
3103.00,129.57
3102.00,129.58
3101.00,129.59
3100.00,129.60
3099.00,129.61
3098.00,129.62
3097.00,129.62
3096.00,129.63
3095.00,129.64
3094.00,129.64
3093.00,129.65
3092.00,129.66
3091.00,129.67
3090.00,129.69
3089.00,129.70
3088.00,129.72
3087.00,129.73
3086.00,129.75
3085.00,129.76
3084.00,129.77
3083.00,129.79
3082.00,129.80
3081.00,129.81
3080.00,129.82
3079.00,129.83
3078.00,129.83
3077.00,129.84
3076.00,129.84
3075.00,129.84
3074.00,129.84
3073.00,129.84
3072.00,129.84
3071.00,129.84
3070.00,129.84
3069.00,129.83
3068.00,129.83
3067.00,129.82
3066.00,129.82
3065.00,129.82
3064.00,129.82
3063.00,129.82
3062.00,129.82
3061.00,129.82
3060.00,129.82
3059.00,129.81
3058.00,129.81
3057.00,129.81
3056.00,129.81
3055.00,129.81
3054.00,129.81
3053.00,129.81
3052.00,129.81
3051.00,129.81
3050.00,129.82
3049.00,129.82
3048.00,129.82
3047.00,129.83
3046.00,129.83
3045.00,129.83
3044.00,129.84
3043.00,129.84
3042.00,129.85
3041.00,129.85
3040.00,129.86
3039.00,129.87
3038.00,129.87
3037.00,129.87
3036.00,129.87
3035.00,129.87
3034.00,129.87
3033.00,129.87
3032.00,129.87
3031.00,129.87
3030.00,129.86
3029.00,129.86
3028.00,129.86
3027.00,129.85
3026.00,129.85
3025.00,129.84
3024.00,129.84
3023.00,129.83
3022.00,129.83
3021.00,129.82
3020.00,129.82
3019.00,129.81
3018.00,129.81
3017.00,129.81
3016.00,129.80
3015.00,129.80
3014.00,129.79
3013.00,129.79
3012.00,129.79
3011.00,129.80
3010.00,129.80
3009.00,129.80
3008.00,129.80
3007.00,129.80
3006.00,129.80
3005.00,129.80
3004.00,129.80
3003.00,129.80
3002.00,129.80
3001.00,129.80
3000.00,129.81
2999.00,129.80
2998.00,129.81
2997.00,129.81
2996.00,129.81
2995.00,129.81
2994.00,129.82
2993.00,129.82
2992.00,129.83
2991.00,129.83
2990.00,129.84
2989.00,129.84
2988.00,129.85
2987.00,129.85
2986.00,129.85
2985.00,129.85
2984.00,129.84
2983.00,129.84
2982.00,129.84
2981.00,129.84
2980.00,129.83
2979.00,129.83
2978.00,129.83
2977.00,129.83
2976.00,129.83
2975.00,129.82
2974.00,129.81
2973.00,129.81
2972.00,129.80
2971.00,129.80
2970.00,129.79
2969.00,129.79
2968.00,129.79
2967.00,129.78
2966.00,129.78
2965.00,129.77
2964.00,129.77
2963.00,129.77
2962.00,129.77
2961.00,129.77
2960.00,129.78
2959.00,129.78
2958.00,129.78
2957.00,129.78
2956.00,129.78
2955.00,129.78
2954.00,129.79
2953.00,129.79
2952.00,129.79
2951.00,129.80
2950.00,129.80
2949.00,129.80
2948.00,129.80
2947.00,129.81
2946.00,129.81
2945.00,129.81
2944.00,129.82
2943.00,129.82
2942.00,129.83
2941.00,129.83
2940.00,129.84
2939.00,129.84
2938.00,129.85
2937.00,129.85
2936.00,129.85
2935.00,129.86
2934.00,129.86
2933.00,129.86
2932.00,129.86
2931.00,129.86
2930.00,129.86
2929.00,129.86
2928.00,129.86
2927.00,129.86
2926.00,129.87
2925.00,129.87
2924.00,129.87
2923.00,129.87
2922.00,129.87
2921.00,129.86
2920.00,129.86
2919.00,129.85
2918.00,129.84
2917.00,129.83
2916.00,129.82
2915.00,129.81
2914.00,129.80
2913.00,129.79
2912.00,129.78
2911.00,129.78
2910.00,129.77
2909.00,129.77
2908.00,129.76
2907.00,129.76
2906.00,129.76
2905.00,129.76
2904.00,129.76
2903.00,129.76
2902.00,129.76
2901.00,129.76
2900.00,129.76
2899.00,129.77
2898.00,129.77
2897.00,129.78
2896.00,129.78
2895.00,129.79
2894.00,129.79
2893.00,129.80
2892.00,129.80
2891.00,129.81
2890.00,129.81
2889.00,129.81
2888.00,129.82
2887.00,129.82
2886.00,129.82
2885.00,129.82
2884.00,129.82
2883.00,129.82
2882.00,129.82
2881.00,129.82
2880.00,129.82
2879.00,129.82
2878.00,129.82
2877.00,129.82
2876.00,129.81
2875.00,129.81
2874.00,129.80
2873.00,129.80
2872.00,129.80
2871.00,129.80
2870.00,129.80
2869.00,129.79
2868.00,129.79
2867.00,129.78
2866.00,129.78
2865.00,129.77
2864.00,129.77
2863.00,129.77
2862.00,129.77
2861.00,129.76
2860.00,129.76
2859.00,129.76
2858.00,129.76
2857.00,129.76
2856.00,129.76
2855.00,129.76
2854.00,129.76
2853.00,129.77
2852.00,129.77
2851.00,129.77
2850.00,129.77
2849.00,129.77
2848.00,129.77
2847.00,129.78
2846.00,129.77
2845.00,129.77
2844.00,129.77
2843.00,129.77
2842.00,129.77
2841.00,129.77
2840.00,129.77
2839.00,129.77
2838.00,129.77
2837.00,129.78
2836.00,129.78
2835.00,129.78
2834.00,129.78
2833.00,129.79
2832.00,129.79
2831.00,129.79
2830.00,129.79
2829.00,129.79
2828.00,129.79
2827.00,129.78
2826.00,129.78
2825.00,129.78
2824.00,129.77
2823.00,129.77
2822.00,129.77
2821.00,129.76
2820.00,129.76
2819.00,129.75
2818.00,129.75
2817.00,129.74
2816.00,129.73
2815.00,129.73
2814.00,129.72
2813.00,129.72
2812.00,129.72
2811.00,129.71
2810.00,129.71
2809.00,129.70
2808.00,129.70
2807.00,129.70
2806.00,129.70
2805.00,129.70
2804.00,129.69
2803.00,129.69
2802.00,129.69
2801.00,129.69
2800.00,129.69
2799.00,129.69
2798.00,129.69
2797.00,129.69
2796.00,129.68
2795.00,129.68
2794.00,129.68
2793.00,129.68
2792.00,129.68
2791.00,129.68
2790.00,129.68
2789.00,129.68
2788.00,129.68
2787.00,129.68
2786.00,129.68
2785.00,129.68
2784.00,129.68
2783.00,129.67
2782.00,129.67
2781.00,129.67
2780.00,129.67
2779.00,129.66
2778.00,129.66
2777.00,129.65
2776.00,129.65
2775.00,129.65
2774.00,129.64
2773.00,129.64
2772.00,129.64
2771.00,129.63
2770.00,129.63
2769.00,129.62
2768.00,129.62
2767.00,129.61
2766.00,129.61
2765.00,129.60
2764.00,129.60
2763.00,129.59
2762.00,129.59
2761.00,129.58
2760.00,129.58
2759.00,129.57
2758.00,129.57
2757.00,129.56
2756.00,129.56
2755.00,129.56
2754.00,129.56
2753.00,129.55
2752.00,129.55
2751.00,129.55
2750.00,129.55
2749.00,129.55
2748.00,129.55
2747.00,129.55
2746.00,129.56
2745.00,129.56
2744.00,129.56
2743.00,129.57
2742.00,129.57
2741.00,129.57
2740.00,129.58
2739.00,129.59
2738.00,129.59
2737.00,129.60
2736.00,129.60
2735.00,129.60
2734.00,129.61
2733.00,129.61
2732.00,129.61
2731.00,129.61
2730.00,129.61
2729.00,129.60
2728.00,129.60
2727.00,129.59
2726.00,129.58
2725.00,129.57
2724.00,129.57
2723.00,129.56
2722.00,129.55
2721.00,129.54
2720.00,129.53
2719.00,129.52
2718.00,129.52
2717.00,129.51
2716.00,129.50
2715.00,129.49
2714.00,129.48
2713.00,129.47
2712.00,129.46
2711.00,129.45
2710.00,129.44
2709.00,129.43
2708.00,129.41
2707.00,129.40
2706.00,129.39
2705.00,129.39
2704.00,129.38
2703.00,129.37
2702.00,129.37
2701.00,129.36
2700.00,129.35
2699.00,129.35
2698.00,129.34
2697.00,129.34
2696.00,129.33
2695.00,129.33
2694.00,129.33
2693.00,129.33
2692.00,129.33
2691.00,129.33
2690.00,129.33
2689.00,129.33
2688.00,129.34
2687.00,129.34
2686.00,129.35
2685.00,129.36
2684.00,129.36
2683.00,129.37
2682.00,129.38
2681.00,129.39
2680.00,129.39
2679.00,129.40
2678.00,129.41
2677.00,129.41
2676.00,129.42
2675.00,129.42
2674.00,129.43
2673.00,129.43
2672.00,129.43
2671.00,129.42
2670.00,129.42
2669.00,129.41
2668.00,129.41
2667.00,129.40
2666.00,129.39
2665.00,129.38
2664.00,129.36
2663.00,129.35
2662.00,129.33
2661.00,129.32
2660.00,129.30
2659.00,129.28
2658.00,129.27
2657.00,129.25
2656.00,129.24
2655.00,129.23
2654.00,129.21
2653.00,129.20
2652.00,129.19
2651.00,129.18
2650.00,129.17
2649.00,129.16
2648.00,129.15
2647.00,129.14
2646.00,129.13
2645.00,129.13
2644.00,129.13
2643.00,129.13
2642.00,129.12
2641.00,129.12
2640.00,129.12
2639.00,129.12
2638.00,129.12
2637.00,129.13
2636.00,129.13
2635.00,129.14
2634.00,129.14
2633.00,129.15
2632.00,129.16
2631.00,129.16
2630.00,129.17
2629.00,129.18
2628.00,129.19
2627.00,129.20
2626.00,129.20
2625.00,129.21
2624.00,129.22
2623.00,129.23
2622.00,129.24
2621.00,129.24
2620.00,129.25
2619.00,129.25
2618.00,129.26
2617.00,129.26
2616.00,129.27
2615.00,129.27
2614.00,129.27
2613.00,129.27
2612.00,129.27
2611.00,129.27
2610.00,129.27
2609.00,129.27
2608.00,129.27
2607.00,129.26
2606.00,129.26
2605.00,129.25
2604.00,129.25
2603.00,129.24
2602.00,129.24
2601.00,129.23
2600.00,129.23
2599.00,129.22
2598.00,129.21
2597.00,129.21
2596.00,129.20
2595.00,129.20
2594.00,129.20
2593.00,129.19
2592.00,129.19
2591.00,129.19
2590.00,129.19
2589.00,129.19
2588.00,129.19
2587.00,129.19
2586.00,129.19
2585.00,129.19
2584.00,129.19
2583.00,129.19
2582.00,129.19
2581.00,129.19
2580.00,129.20
2579.00,129.20
2578.00,129.20
2577.00,129.20
2576.00,129.20
2575.00,129.20
2574.00,129.20
2573.00,129.20
2572.00,129.20
2571.00,129.20
2570.00,129.19
2569.00,129.19
2568.00,129.18
2567.00,129.18
2566.00,129.18
2565.00,129.17
2564.00,129.16
2563.00,129.16
2562.00,129.15
2561.00,129.15
2560.00,129.14
2559.00,129.13
2558.00,129.12
2557.00,129.12
2556.00,129.11
2555.00,129.10
2554.00,129.09
2553.00,129.08
2552.00,129.07
2551.00,129.06
2550.00,129.04
2549.00,129.03
2548.00,129.02
2547.00,129.01
2546.00,129.00
2545.00,128.99
2544.00,128.98
2543.00,128.97
2542.00,128.96
2541.00,128.96
2540.00,128.95
2539.00,128.95
2538.00,128.94
2537.00,128.94
2536.00,128.94
2535.00,128.94
2534.00,128.94
2533.00,128.94
2532.00,128.94
2531.00,128.94
2530.00,128.94
2529.00,128.95
2528.00,128.95
2527.00,128.95
2526.00,128.94
2525.00,128.94
2524.00,128.94
2523.00,128.93
2522.00,128.93
2521.00,128.92
2520.00,128.92
2519.00,128.91
2518.00,128.90
2517.00,128.90
2516.00,128.89
2515.00,128.88
2514.00,128.87
2513.00,128.86
2512.00,128.85
2511.00,128.83
2510.00,128.82
2509.00,128.81
2508.00,128.79
2507.00,128.78
2506.00,128.76
2505.00,128.75
2504.00,128.73
2503.00,128.72
2502.00,128.70
2501.00,128.69
2500.00,128.68
2499.00,128.66
2498.00,128.65
2497.00,128.63
2496.00,128.62
2495.00,128.61
2494.00,128.60
2493.00,128.59
2492.00,128.59
2491.00,128.58
2490.00,128.57
2489.00,128.56
2488.00,128.56
2487.00,128.55
2486.00,128.55
2485.00,128.55
2484.00,128.54
2483.00,128.54
2482.00,128.53
2481.00,128.53
2480.00,128.52
2479.00,128.51
2478.00,128.51
2477.00,128.50
2476.00,128.50
2475.00,128.50
2474.00,128.49
2473.00,128.49
2472.00,128.49
2471.00,128.49
2470.00,128.49
2469.00,128.49
2468.00,128.49
2467.00,128.50
2466.00,128.50
2465.00,128.50
2464.00,128.50
2463.00,128.50
2462.00,128.50
2461.00,128.50
2460.00,128.50
2459.00,128.50
2458.00,128.50
2457.00,128.50
2456.00,128.50
2455.00,128.50
2454.00,128.50
2453.00,128.50
2452.00,128.50
2451.00,128.51
2450.00,128.51
2449.00,128.52
2448.00,128.52
2447.00,128.53
2446.00,128.53
2445.00,128.54
2444.00,128.54
2443.00,128.55
2442.00,128.56
2441.00,128.57
2440.00,128.57
2439.00,128.58
2438.00,128.59
2437.00,128.60
2436.00,128.61
2435.00,128.62
2434.00,128.63
2433.00,128.64
2432.00,128.65
2431.00,128.67
2430.00,128.68
2429.00,128.70
2428.00,128.71
2427.00,128.73
2426.00,128.75
2425.00,128.76
2424.00,128.78
2423.00,128.80
2422.00,128.82
2421.00,128.84
2420.00,128.85
2419.00,128.87
2418.00,128.88
2417.00,128.88
2416.00,128.89
2415.00,128.89
2414.00,128.90
2413.00,128.91
2412.00,128.91
2411.00,128.91
2410.00,128.91
2409.00,128.91
2408.00,128.91
2407.00,128.90
2406.00,128.89
2405.00,128.88
2404.00,128.87
2403.00,128.86
2402.00,128.85
2401.00,128.83
2400.00,128.82
2399.00,128.81
2398.00,128.80
2397.00,128.78
2396.00,128.77
2395.00,128.76
2394.00,128.75
2393.00,128.74
2392.00,128.73
2391.00,128.73
2390.00,128.72
2389.00,128.71
2388.00,128.70
2387.00,128.70
2386.00,128.69
2385.00,128.69
2384.00,128.70
2383.00,128.70
2382.00,128.71
2381.00,128.72
2380.00,128.74
2379.00,128.75
2378.00,128.75
2377.00,128.76
2376.00,128.75
2375.00,128.74
2374.00,128.73
2373.00,128.72
2372.00,128.71
2371.00,128.71
2370.00,128.70
2369.00,128.69
2368.00,128.68
2367.00,128.68
2366.00,128.68
2365.00,128.69
2364.00,128.71
2363.00,128.71
2362.00,128.70
2361.00,128.69
2360.00,128.68
2359.00,128.68
2358.00,128.68
2357.00,128.68
2356.00,128.68
2355.00,128.69
2354.00,128.71
2353.00,128.73
2352.00,128.73
2351.00,128.68
2350.00,128.63
2349.00,128.61
2348.00,128.62
2347.00,128.66
2346.00,128.68
2345.00,128.66
2344.00,128.62
2343.00,128.59
2342.00,128.57
2341.00,128.57
2340.00,128.57
2339.00,128.58
2338.00,128.59
2337.00,128.60
2336.00,128.60
2335.00,128.60
2334.00,128.61
2333.00,128.63
2332.00,128.64
2331.00,128.63
2330.00,128.62
2329.00,128.60
2328.00,128.57
2327.00,128.55
2326.00,128.53
2325.00,128.51
2324.00,128.49
2323.00,128.47
2322.00,128.45
2321.00,128.42
2320.00,128.40
2319.00,128.38
2318.00,128.37
2317.00,128.36
2316.00,128.37
2315.00,128.38
2314.00,128.39
2313.00,128.39
2312.00,128.39
2311.00,128.39
2310.00,128.38
2309.00,128.38
2308.00,128.38
2307.00,128.38
2306.00,128.38
2305.00,128.38
2304.00,128.38
2303.00,128.39
2302.00,128.39
2301.00,128.39
2300.00,128.39
2299.00,128.39
2298.00,128.39
2297.00,128.39
2296.00,128.39
2295.00,128.39
2294.00,128.39
2293.00,128.39
2292.00,128.39
2291.00,128.39
2290.00,128.39
2289.00,128.38
2288.00,128.38
2287.00,128.38
2286.00,128.38
2285.00,128.37
2284.00,128.37
2283.00,128.37
2282.00,128.37
2281.00,128.37
2280.00,128.37
2279.00,128.37
2278.00,128.37
2277.00,128.37
2276.00,128.37
2275.00,128.37
2274.00,128.37
2273.00,128.37
2272.00,128.38
2271.00,128.38
2270.00,128.38
2269.00,128.39
2268.00,128.39
2267.00,128.39
2266.00,128.40
2265.00,128.40
2264.00,128.40
2263.00,128.41
2262.00,128.41
2261.00,128.41
2260.00,128.42
2259.00,128.42
2258.00,128.42
2257.00,128.42
2256.00,128.43
2255.00,128.43
2254.00,128.43
2253.00,128.43
2252.00,128.43
2251.00,128.43
2250.00,128.43
2249.00,128.43
2248.00,128.43
2247.00,128.42
2246.00,128.42
2245.00,128.41
2244.00,128.40
2243.00,128.39
2242.00,128.38
2241.00,128.37
2240.00,128.35
2239.00,128.34
2238.00,128.32
2237.00,128.31
2236.00,128.29
2235.00,128.28
2234.00,128.26
2233.00,128.24
2232.00,128.23
2231.00,128.21
2230.00,128.20
2229.00,128.18
2228.00,128.16
2227.00,128.15
2226.00,128.14
2225.00,128.12
2224.00,128.11
2223.00,128.10
2222.00,128.09
2221.00,128.09
2220.00,128.08
2219.00,128.08
2218.00,128.08
2217.00,128.08
2216.00,128.08
2215.00,128.08
2214.00,128.09
2213.00,128.09
2212.00,128.09
2211.00,128.09
2210.00,128.09
2209.00,128.09
2208.00,128.09
2207.00,128.09
2206.00,128.09
2205.00,128.08
2204.00,128.08
2203.00,128.07
2202.00,128.07
2201.00,128.06
2200.00,128.05
2199.00,128.04
2198.00,128.03
2197.00,128.02
2196.00,128.01
2195.00,128.00
2194.00,127.99
2193.00,127.98
2192.00,127.97
2191.00,127.96
2190.00,127.94
2189.00,127.93
2188.00,127.92
2187.00,127.91
2186.00,127.90
2185.00,127.89
2184.00,127.88
2183.00,127.87
2182.00,127.86
2181.00,127.85
2180.00,127.84
2179.00,127.84
2178.00,127.83
2177.00,127.83
2176.00,127.83
2175.00,127.82
2174.00,127.82
2173.00,127.83
2172.00,127.83
2171.00,127.84
2170.00,127.84
2169.00,127.85
2168.00,127.86
2167.00,127.87
2166.00,127.88
2165.00,127.89
2164.00,127.90
2163.00,127.92
2162.00,127.93
2161.00,127.94
2160.00,127.95
2159.00,127.97
2158.00,127.98
2157.00,127.99
2156.00,127.99
2155.00,128.00
2154.00,128.00
2153.00,128.01
2152.00,128.01
2151.00,128.01
2150.00,128.01
2149.00,128.01
2148.00,128.01
2147.00,128.00
2146.00,128.00
2145.00,127.99
2144.00,127.99
2143.00,127.98
2142.00,127.97
2141.00,127.96
2140.00,127.94
2139.00,127.93
2138.00,127.92
2137.00,127.90
2136.00,127.89
2135.00,127.87
2134.00,127.86
2133.00,127.85
2132.00,127.84
2131.00,127.83
2130.00,127.82
2129.00,127.81
2128.00,127.80
2127.00,127.79
2126.00,127.79
2125.00,127.78
2124.00,127.78
2123.00,127.78
2122.00,127.77
2121.00,127.77
2120.00,127.77
2119.00,127.76
2118.00,127.76
2117.00,127.76
2116.00,127.77
2115.00,127.77
2114.00,127.77
2113.00,127.77
2112.00,127.77
2111.00,127.78
2110.00,127.78
2109.00,127.78
2108.00,127.79
2107.00,127.79
2106.00,127.79
2105.00,127.80
2104.00,127.80
2103.00,127.81
2102.00,127.81
2101.00,127.82
2100.00,127.82
2099.00,127.83
2098.00,127.84
2097.00,127.84
2096.00,127.85
2095.00,127.85
2094.00,127.86
2093.00,127.86
2092.00,127.87
2091.00,127.87
2090.00,127.88
2089.00,127.88
2088.00,127.88
2087.00,127.89
2086.00,127.89
2085.00,127.89
2084.00,127.89
2083.00,127.89
2082.00,127.88
2081.00,127.88
2080.00,127.88
2079.00,127.88
2078.00,127.87
2077.00,127.87
2076.00,127.86
2075.00,127.85
2074.00,127.84
2073.00,127.84
2072.00,127.83
2071.00,127.83
2070.00,127.82
2069.00,127.82
2068.00,127.81
2067.00,127.80
2066.00,127.79
2065.00,127.78
2064.00,127.77
2063.00,127.77
2062.00,127.77
2061.00,127.76
2060.00,127.76
2059.00,127.76
2058.00,127.75
2057.00,127.75
2056.00,127.75
2055.00,127.75
2054.00,127.75
2053.00,127.75
2052.00,127.76
2051.00,127.76
2050.00,127.77
2049.00,127.77
2048.00,127.78
2047.00,127.79
2046.00,127.80
2045.00,127.81
2044.00,127.82
2043.00,127.83
2042.00,127.85
2041.00,127.86
2040.00,127.87
2039.00,127.88
2038.00,127.89
2037.00,127.90
2036.00,127.91
2035.00,127.92
2034.00,127.92
2033.00,127.92
2032.00,127.92
2031.00,127.92
2030.00,127.91
2029.00,127.91
2028.00,127.90
2027.00,127.89
2026.00,127.88
2025.00,127.87
2024.00,127.86
2023.00,127.84
2022.00,127.83
2021.00,127.82
2020.00,127.81
2019.00,127.80
2018.00,127.78
2017.00,127.77
2016.00,127.76
2015.00,127.76
2014.00,127.75
2013.00,127.75
2012.00,127.75
2011.00,127.75
2010.00,127.76
2009.00,127.76
2008.00,127.77
2007.00,127.78
2006.00,127.80
2005.00,127.81
2004.00,127.83
2003.00,127.84
2002.00,127.86
2001.00,127.88
2000.00,127.91
1999.00,127.93
1998.00,127.95
1997.00,127.98
1996.00,128.01
1995.00,128.03
1994.00,128.06
1993.00,128.09
1992.00,128.12
1991.00,128.14
1990.00,128.17
1989.00,128.20
1988.00,128.22
1987.00,128.25
1986.00,128.28
1985.00,128.30
1984.00,128.33
1983.00,128.35
1982.00,128.36
1981.00,128.38
1980.00,128.39
1979.00,128.40
1978.00,128.41
1977.00,128.41
1976.00,128.40
1975.00,128.39
1974.00,128.38
1973.00,128.37
1972.00,128.35
1971.00,128.33
1970.00,128.31
1969.00,128.29
1968.00,128.27
1967.00,128.25
1966.00,128.23
1965.00,128.22
1964.00,128.21
1963.00,128.21
1962.00,128.22
1961.00,128.23
1960.00,128.25
1959.00,128.28
1958.00,128.32
1957.00,128.37
1956.00,128.41
1955.00,128.45
1954.00,128.49
1953.00,128.53
1952.00,128.56
1951.00,128.60
1950.00,128.63
1949.00,128.66
1948.00,128.68
1947.00,128.69
1946.00,128.70
1945.00,128.71
1944.00,128.71
1943.00,128.70
1942.00,128.67
1941.00,128.65
1940.00,128.62
1939.00,128.59
1938.00,128.55
1937.00,128.52
1936.00,128.48
1935.00,128.44
1934.00,128.41
1933.00,128.37
1932.00,128.34
1931.00,128.32
1930.00,128.29
1929.00,128.27
1928.00,128.26
1927.00,128.24
1926.00,128.24
1925.00,128.24
1924.00,128.24
1923.00,128.23
1922.00,128.22
1921.00,128.21
1920.00,128.21
1919.00,128.21
1918.00,128.21
1917.00,128.21
1916.00,128.20
1915.00,128.19
1914.00,128.18
1913.00,128.17
1912.00,128.16
1911.00,128.14
1910.00,128.13
1909.00,128.12
1908.00,128.11
1907.00,128.09
1906.00,128.08
1905.00,128.07
1904.00,128.07
1903.00,128.06
1902.00,128.06
1901.00,128.06
1900.00,128.07
1899.00,128.07
1898.00,128.08
1897.00,128.09
1896.00,128.10
1895.00,128.11
1894.00,128.11
1893.00,128.12
1892.00,128.14
1891.00,128.16
1890.00,128.18
1889.00,128.19
1888.00,128.21
1887.00,128.22
1886.00,128.24
1885.00,128.26
1884.00,128.28
1883.00,128.29
1882.00,128.31
1881.00,128.34
1880.00,128.36
1879.00,128.37
1878.00,128.39
1877.00,128.41
1876.00,128.42
1875.00,128.43
1874.00,128.43
1873.00,128.44
1872.00,128.44
1871.00,128.45
1870.00,128.45
1869.00,128.44
1868.00,128.43
1867.00,128.42
1866.00,128.40
1865.00,128.39
1864.00,128.38
1863.00,128.38
1862.00,128.37
1861.00,128.37
1860.00,128.38
1859.00,128.39
1858.00,128.40
1857.00,128.42
1856.00,128.44
1855.00,128.47
1854.00,128.50
1853.00,128.54
1852.00,128.57
1851.00,128.60
1850.00,128.64
1849.00,128.67
1848.00,128.70
1847.00,128.72
1846.00,128.75
1845.00,128.79
1844.00,128.81
1843.00,128.83
1842.00,128.84
1841.00,128.86
1840.00,128.88
1839.00,128.89
1838.00,128.89
1837.00,128.89
1836.00,128.89
1835.00,128.88
1834.00,128.88
1833.00,128.87
1832.00,128.87
1831.00,128.88
1830.00,128.87
1829.00,128.87
1828.00,128.87
1827.00,128.88
1826.00,128.90
1825.00,128.90
1824.00,128.91
1823.00,128.91
1822.00,128.93
1821.00,128.94
1820.00,128.96
1819.00,128.97
1818.00,128.98
1817.00,128.99
1816.00,129.00
1815.00,129.01
1814.00,129.02
1813.00,129.03
1812.00,129.03
1811.00,129.04
1810.00,129.05
1809.00,129.06
1808.00,129.07
1807.00,129.08
1806.00,129.09
1805.00,129.10
1804.00,129.12
1803.00,129.13
1802.00,129.15
1801.00,129.16
1800.00,129.17
1799.00,129.19
1798.00,129.20
1797.00,129.22
1796.00,129.23
1795.00,129.24
1794.00,129.26
1793.00,129.29
1792.00,129.32
1791.00,129.34
1790.00,129.35
1789.00,129.36
1788.00,129.39
1787.00,129.41
1786.00,129.43
1785.00,129.44
1784.00,129.45
1783.00,129.46
1782.00,129.48
1781.00,129.49
1780.00,129.50
1779.00,129.50
1778.00,129.50
1777.00,129.51
1776.00,129.51
1775.00,129.51
1774.00,129.51
1773.00,129.51
1772.00,129.52
1771.00,129.52
1770.00,129.53
1769.00,129.53
1768.00,129.53
1767.00,129.51
1766.00,129.50
1765.00,129.49
1764.00,129.50
1763.00,129.50
1762.00,129.49
1761.00,129.47
1760.00,129.46
1759.00,129.46
1758.00,129.47
1757.00,129.46
1756.00,129.45
1755.00,129.44
1754.00,129.44
1753.00,129.44
1752.00,129.44
1751.00,129.43
1750.00,129.43
1749.00,129.43
1748.00,129.43
1747.00,129.43
1746.00,129.44
1745.00,129.44
1744.00,129.44
1743.00,129.43
1742.00,129.43
1741.00,129.43
1740.00,129.44
1739.00,129.44
1738.00,129.44
1737.00,129.45
1736.00,129.46
1735.00,129.48
1734.00,129.49
1733.00,129.48
1732.00,129.49
1731.00,129.50
1730.00,129.52
1729.00,129.52
1728.00,129.52
1727.00,129.52
1726.00,129.53
1725.00,129.53
1724.00,129.54
1723.00,129.53
1722.00,129.53
1721.00,129.53
1720.00,129.53
1719.00,129.54
1718.00,129.54
1717.00,129.54
1716.00,129.54
1715.00,129.53
1714.00,129.53
1713.00,129.53
1712.00,129.52
1711.00,129.52
1710.00,129.51
1709.00,129.50
1708.00,129.49
1707.00,129.49
1706.00,129.48
1705.00,129.47
1704.00,129.46
1703.00,129.45
1702.00,129.44
1701.00,129.43
1700.00,129.42
1699.00,129.41
1698.00,129.42
1697.00,129.45
1696.00,129.45
1695.00,129.44
1694.00,129.42
1693.00,129.42
1692.00,129.43
1691.00,129.44
1690.00,129.43
1689.00,129.42
1688.00,129.41
1687.00,129.41
1686.00,129.42
1685.00,129.44
1684.00,129.45
1683.00,129.45
1682.00,129.45
1681.00,129.46
1680.00,129.46
1679.00,129.45
1678.00,129.45
1677.00,129.46
1676.00,129.47
1675.00,129.47
1674.00,129.46
1673.00,129.45
1672.00,129.46
1671.00,129.46
1670.00,129.47
1669.00,129.47
1668.00,129.47
1667.00,129.46
1666.00,129.45
1665.00,129.44
1664.00,129.43
1663.00,129.42
1662.00,129.41
1661.00,129.40
1660.00,129.40
1659.00,129.38
1658.00,129.37
1657.00,129.35
1656.00,129.32
1655.00,129.30
1654.00,129.29
1653.00,129.30
1652.00,129.28
1651.00,129.26
1650.00,129.28
1649.00,129.29
1648.00,129.28
1647.00,129.28
1646.00,129.28
1645.00,129.28
1644.00,129.29
1643.00,129.30
1642.00,129.31
1641.00,129.32
1640.00,129.32
1639.00,129.32
1638.00,129.32
1637.00,129.33
1636.00,129.34
1635.00,129.34
1634.00,129.34
1633.00,129.34
1632.00,129.34
1631.00,129.34
1630.00,129.33
1629.00,129.32
1628.00,129.32
1627.00,129.32
1626.00,129.33
1625.00,129.33
1624.00,129.33
1623.00,129.34
1622.00,129.34
1621.00,129.33
1620.00,129.33
1619.00,129.33
1618.00,129.33
1617.00,129.34
1616.00,129.35
1615.00,129.36
1614.00,129.37
1613.00,129.39
1612.00,129.39
1611.00,129.40
1610.00,129.41
1609.00,129.43
1608.00,129.44
1607.00,129.46
1606.00,129.47
1605.00,129.47
1604.00,129.47
1603.00,129.46
1602.00,129.45
1601.00,129.45
1600.00,129.44
1599.00,129.43
1598.00,129.42
1597.00,129.41
1596.00,129.40
1595.00,129.39
1594.00,129.39
1593.00,129.38
1592.00,129.37
1591.00,129.37
1590.00,129.37
1589.00,129.37
1588.00,129.37
1587.00,129.37
1586.00,129.38
1585.00,129.38
1584.00,129.39
1583.00,129.39
1582.00,129.40
1581.00,129.40
1580.00,129.40
1579.00,129.40
1578.00,129.40
1577.00,129.41
1576.00,129.41
1575.00,129.42
1574.00,129.43
1573.00,129.44
1572.00,129.44
1571.00,129.43
1570.00,129.43
1569.00,129.43
1568.00,129.42
1567.00,129.42
1566.00,129.42
1565.00,129.42
1564.00,129.41
1563.00,129.39
1562.00,129.38
1561.00,129.35
1560.00,129.33
1559.00,129.34
1558.00,129.34
1557.00,129.34
1556.00,129.35
1555.00,129.36
1554.00,129.36
1553.00,129.35
1552.00,129.35
1551.00,129.35
1550.00,129.35
1549.00,129.34
1548.00,129.33
1547.00,129.34
1546.00,129.35
1545.00,129.35
1544.00,129.34
1543.00,129.32
1542.00,129.32
1541.00,129.32
1540.00,129.34
1539.00,129.34
1538.00,129.33
1537.00,129.32
1536.00,129.32
1535.00,129.31
1534.00,129.29
1533.00,129.28
1532.00,129.27
1531.00,129.26
1530.00,129.26
1529.00,129.26
1528.00,129.26
1527.00,129.26
1526.00,129.25
1525.00,129.24
1524.00,129.24
1523.00,129.25
1522.00,129.26
1521.00,129.27
1520.00,129.28
1519.00,129.30
1518.00,129.32
1517.00,129.33
1516.00,129.33
1515.00,129.34
1514.00,129.34
1513.00,129.35
1512.00,129.37
1511.00,129.37
1510.00,129.38
1509.00,129.38
1508.00,129.38
1507.00,129.39
1506.00,129.39
1505.00,129.39
1504.00,129.40
1503.00,129.41
1502.00,129.41
1501.00,129.40
1500.00,129.39
1499.00,129.38
1498.00,129.39
1497.00,129.39
1496.00,129.40
1495.00,129.40
1494.00,129.40
1493.00,129.41
1492.00,129.41
1491.00,129.41
1490.00,129.41
1489.00,129.40
1488.00,129.39
1487.00,129.39
1486.00,129.38
1485.00,129.38
1484.00,129.38
1483.00,129.38
1482.00,129.38
1481.00,129.38
1480.00,129.38
1479.00,129.38
1478.00,129.38
1477.00,129.38
1476.00,129.39
1475.00,129.39
1474.00,129.40
1473.00,129.41
1472.00,129.42
1471.00,129.42
1470.00,129.42
1469.00,129.43
1468.00,129.44
1467.00,129.45
1466.00,129.45
1465.00,129.45
1464.00,129.46
1463.00,129.46
1462.00,129.46
1461.00,129.46
1460.00,129.47
1459.00,129.48
1458.00,129.49
1457.00,129.50
1456.00,129.49
1455.00,129.48
1454.00,129.48
1453.00,129.48
1452.00,129.47
1451.00,129.47
1450.00,129.47
1449.00,129.47
1448.00,129.47
1447.00,129.46
1446.00,129.44
1445.00,129.43
1444.00,129.42
1443.00,129.41
1442.00,129.40
1441.00,129.39
1440.00,129.39
1439.00,129.39
1438.00,129.39
1437.00,129.38
1436.00,129.36
1435.00,129.35
1434.00,129.35
1433.00,129.35
1432.00,129.35
1431.00,129.35
1430.00,129.35
1429.00,129.34
1428.00,129.34
1427.00,129.34
1426.00,129.35
1425.00,129.35
1424.00,129.35
1423.00,129.36
1422.00,129.37
1421.00,129.37
1420.00,129.38
1419.00,129.39
1418.00,129.39
1417.00,129.39
1416.00,129.40
1415.00,129.41
1414.00,129.42
1413.00,129.42
1412.00,129.43
1411.00,129.43
1410.00,129.43
1409.00,129.43
1408.00,129.43
1407.00,129.44
1406.00,129.45
1405.00,129.45
1404.00,129.45
1403.00,129.45
1402.00,129.45
1401.00,129.45
1400.00,129.45
1399.00,129.46
1398.00,129.46
1397.00,129.46
1396.00,129.46
1395.00,129.46
1394.00,129.45
1393.00,129.43
1392.00,129.42
1391.00,129.41
1390.00,129.41
1389.00,129.41
1388.00,129.41
1387.00,129.41
1386.00,129.40
1385.00,129.39
1384.00,129.38
1383.00,129.37
1382.00,129.36
1381.00,129.36
1380.00,129.36
1379.00,129.36
1378.00,129.36
1377.00,129.36
1376.00,129.36
1375.00,129.36
1374.00,129.36
1373.00,129.36
1372.00,129.36
1371.00,129.36
1370.00,129.36
1369.00,129.37
1368.00,129.37
1367.00,129.38
1366.00,129.38
1365.00,129.39
1364.00,129.40
1363.00,129.41
1362.00,129.41
1361.00,129.41
1360.00,129.41
1359.00,129.42
1358.00,129.42
1357.00,129.42
1356.00,129.43
1355.00,129.43
1354.00,129.44
1353.00,129.44
1352.00,129.45
1351.00,129.45
1350.00,129.45
1349.00,129.44
1348.00,129.44
1347.00,129.44
1346.00,129.44
1345.00,129.44
1344.00,129.44
1343.00,129.44
1342.00,129.44
1341.00,129.44
1340.00,129.43
1339.00,129.43
1338.00,129.42
1337.00,129.41
1336.00,129.41
1335.00,129.40
1334.00,129.39
1333.00,129.39
1332.00,129.38
1331.00,129.37
1330.00,129.37
1329.00,129.36
1328.00,129.36
1327.00,129.36
1326.00,129.36
1325.00,129.36
1324.00,129.36
1323.00,129.36
1322.00,129.36
1321.00,129.36
1320.00,129.37
1319.00,129.37
1318.00,129.38
1317.00,129.38
1316.00,129.39
1315.00,129.39
1314.00,129.39
1313.00,129.40
1312.00,129.40
1311.00,129.40
1310.00,129.41
1309.00,129.42
1308.00,129.42
1307.00,129.43
1306.00,129.44
1305.00,129.44
1304.00,129.45
1303.00,129.45
1302.00,129.45
1301.00,129.45
1300.00,129.46
1299.00,129.46
1298.00,129.46
1297.00,129.45
1296.00,129.45
1295.00,129.45
1294.00,129.44
1293.00,129.44
1292.00,129.43
1291.00,129.43
1290.00,129.42
1289.00,129.42
1288.00,129.41
1287.00,129.40
1286.00,129.39
1285.00,129.38
1284.00,129.38
1283.00,129.37
1282.00,129.37
1281.00,129.36
1280.00,129.36
1279.00,129.35
1278.00,129.34
1277.00,129.34
1276.00,129.34
1275.00,129.33
1274.00,129.33
1273.00,129.33
1272.00,129.33
1271.00,129.32
1270.00,129.32
1269.00,129.32
1268.00,129.32
1267.00,129.32
1266.00,129.32
1265.00,129.33
1264.00,129.33
1263.00,129.34
1262.00,129.34
1261.00,129.35
1260.00,129.35
1259.00,129.35
1258.00,129.36
1257.00,129.37
1256.00,129.38
1255.00,129.38
1254.00,129.38
1253.00,129.39
1252.00,129.39
1251.00,129.39
1250.00,129.40
1249.00,129.40
1248.00,129.41
1247.00,129.41
1246.00,129.41
1245.00,129.41
1244.00,129.41
1243.00,129.41
1242.00,129.41
1241.00,129.41
1240.00,129.41
1239.00,129.40
1238.00,129.40
1237.00,129.40
1236.00,129.39
1235.00,129.38
1234.00,129.38
1233.00,129.37
1232.00,129.36
1231.00,129.35
1230.00,129.35
1229.00,129.34
1228.00,129.33
1227.00,129.33
1226.00,129.32
1225.00,129.31
1224.00,129.30
1223.00,129.30
1222.00,129.30
1221.00,129.29
1220.00,129.29
1219.00,129.28
1218.00,129.28
1217.00,129.27
1216.00,129.27
1215.00,129.27
1214.00,129.28
1213.00,129.28
1212.00,129.28
1211.00,129.29
1210.00,129.29
1209.00,129.29
1208.00,129.30
1207.00,129.30
1206.00,129.30
1205.00,129.31
1204.00,129.31
1203.00,129.32
1202.00,129.33
1201.00,129.33
1200.00,129.34
1199.00,129.34
1198.00,129.34
1197.00,129.34
1196.00,129.35
1195.00,129.35
1194.00,129.36
1193.00,129.36
1192.00,129.36
1191.00,129.36
1190.00,129.35
1189.00,129.35
1188.00,129.35
1187.00,129.35
1186.00,129.35
1185.00,129.34
1184.00,129.33
1183.00,129.32
1182.00,129.32
1181.00,129.31
1180.00,129.31
1179.00,129.30
1178.00,129.30
1177.00,129.29
1176.00,129.29
1175.00,129.28
1174.00,129.27
1173.00,129.26
1172.00,129.25
1171.00,129.25
1170.00,129.24
1169.00,129.24
1168.00,129.24
1167.00,129.24
1166.00,129.23
1165.00,129.23
1164.00,129.22
1163.00,129.22
1162.00,129.22
1161.00,129.22
1160.00,129.22
1159.00,129.23
1158.00,129.23
1157.00,129.23
1156.00,129.23
1155.00,129.23
1154.00,129.23
1153.00,129.23
1152.00,129.24
1151.00,129.24
1150.00,129.25
1149.00,129.26
1148.00,129.26
1147.00,129.27
1146.00,129.27
1145.00,129.27
1144.00,129.27
1143.00,129.28
1142.00,129.28
1141.00,129.29
1140.00,129.29
1139.00,129.29
1138.00,129.29
1137.00,129.29
1136.00,129.29
1135.00,129.28
1134.00,129.28
1133.00,129.28
1132.00,129.27
1131.00,129.27
1130.00,129.26
1129.00,129.26
1128.00,129.25
1127.00,129.25
1126.00,129.25
1125.00,129.24
1124.00,129.24
1123.00,129.23
1122.00,129.22
1121.00,129.21
1120.00,129.21
1119.00,129.21
1118.00,129.21
1117.00,129.20
1116.00,129.20
1115.00,129.20
1114.00,129.20
1113.00,129.19
1112.00,129.19
1111.00,129.19
1110.00,129.19
1109.00,129.19
1108.00,129.19
1107.00,129.19
1106.00,129.19
1105.00,129.19
1104.00,129.19
1103.00,129.20
1102.00,129.20
1101.00,129.20
1100.00,129.20
1099.00,129.21
1098.00,129.21
1097.00,129.21
1096.00,129.21
1095.00,129.21
1094.00,129.21
1093.00,129.21
1092.00,129.22
1091.00,129.23
1090.00,129.23
1089.00,129.22
1088.00,129.22
1087.00,129.21
1086.00,129.21
1085.00,129.21
1084.00,129.21
1083.00,129.20
1082.00,129.20
1081.00,129.19
1080.00,129.19
1079.00,129.18
1078.00,129.17
1077.00,129.16
1076.00,129.16
1075.00,129.15
1074.00,129.14
1073.00,129.14
1072.00,129.13
1071.00,129.12
1070.00,129.11
1069.00,129.10
1068.00,129.09
1067.00,129.08
1066.00,129.08
1065.00,129.08
1064.00,129.07
1063.00,129.07
1062.00,129.07
1061.00,129.07
1060.00,129.06
1059.00,129.06
1058.00,129.06
1057.00,129.07
1056.00,129.07
1055.00,129.07
1054.00,129.07
1053.00,129.08
1052.00,129.08
1051.00,129.08
1050.00,129.09
1049.00,129.10
1048.00,129.11
1047.00,129.13
1046.00,129.14
1045.00,129.14
1044.00,129.15
1043.00,129.16
1042.00,129.16
1041.00,129.17
1040.00,129.17
1039.00,129.18
1038.00,129.19
1037.00,129.20
1036.00,129.22
1035.00,129.23
1034.00,129.23
1033.00,129.23
1032.00,129.23
1031.00,129.23
1030.00,129.23
1029.00,129.23
1028.00,129.24
1027.00,129.24
1026.00,129.24
1025.00,129.24
1024.00,129.24
1023.00,129.24
1022.00,129.25
1021.00,129.25
1020.00,129.26
1019.00,129.26
1018.00,129.26
1017.00,129.26
1016.00,129.26
1015.00,129.26
1014.00,129.26
1013.00,129.26
1012.00,129.26
1011.00,129.26
1010.00,129.27
1009.00,129.27
1008.00,129.27
1007.00,129.27
1006.00,129.27
1005.00,129.28
1004.00,129.29
1003.00,129.30
1002.00,129.31
1001.00,129.32
1000.00,129.32
999.00,129.32
998.00,129.33
997.00,129.33
996.00,129.34
995.00,129.35
994.00,129.36
993.00,129.38
992.00,129.39
991.00,129.39
990.00,129.40
989.00,129.41
988.00,129.42
987.00,129.43
986.00,129.44
985.00,129.45
984.00,129.46
983.00,129.47
982.00,129.47
981.00,129.47
980.00,129.47
979.00,129.47
978.00,129.47
977.00,129.48
976.00,129.48
975.00,129.49
974.00,129.49
973.00,129.49
972.00,129.48
971.00,129.48
970.00,129.47
969.00,129.47
968.00,129.47
967.00,129.48
966.00,129.48
965.00,129.47
964.00,129.47
963.00,129.46
962.00,129.46
961.00,129.45
960.00,129.45
959.00,129.46
958.00,129.46
957.00,129.47
956.00,129.47
955.00,129.47
954.00,129.47
953.00,129.47
952.00,129.47
951.00,129.47
950.00,129.47
949.00,129.48
948.00,129.50
947.00,129.51
946.00,129.51
945.00,129.52
944.00,129.52
943.00,129.52
942.00,129.53
941.00,129.55
940.00,129.56
939.00,129.57
938.00,129.57
937.00,129.58
936.00,129.59
935.00,129.60
934.00,129.60
933.00,129.61
932.00,129.62
931.00,129.63
930.00,129.63
929.00,129.64
928.00,129.64
927.00,129.64
926.00,129.64
925.00,129.64
924.00,129.64
923.00,129.64
922.00,129.64
921.00,129.64
920.00,129.64
919.00,129.64
918.00,129.64
917.00,129.63
916.00,129.63
915.00,129.63
914.00,129.63
913.00,129.63
912.00,129.63
911.00,129.62
910.00,129.62
909.00,129.61
908.00,129.62
907.00,129.62
906.00,129.62
905.00,129.63
904.00,129.63
903.00,129.63
902.00,129.63
901.00,129.63
900.00,129.63
899.00,129.64
898.00,129.64
897.00,129.65
896.00,129.65
895.00,129.66
894.00,129.67
893.00,129.68
892.00,129.68
891.00,129.69
890.00,129.70
889.00,129.70
888.00,129.72
887.00,129.73
886.00,129.74
885.00,129.74
884.00,129.75
883.00,129.75
882.00,129.76
881.00,129.76
880.00,129.78
879.00,129.79
878.00,129.79
877.00,129.80
876.00,129.80
875.00,129.80
874.00,129.80
873.00,129.81
872.00,129.81
871.00,129.81
870.00,129.81
869.00,129.81
868.00,129.81
867.00,129.80
866.00,129.80
865.00,129.79
864.00,129.79
863.00,129.78
862.00,129.78
861.00,129.78
860.00,129.79
859.00,129.78
858.00,129.77
857.00,129.76
856.00,129.76
855.00,129.76
854.00,129.76
853.00,129.77
852.00,129.77
851.00,129.77
850.00,129.77
849.00,129.77
848.00,129.77
847.00,129.77
846.00,129.77
845.00,129.77
844.00,129.77
843.00,129.78
842.00,129.78
841.00,129.78
840.00,129.79
839.00,129.79
838.00,129.79
837.00,129.80
836.00,129.81
835.00,129.82
834.00,129.82
833.00,129.83
832.00,129.84
831.00,129.84
830.00,129.83
829.00,129.83
828.00,129.83
827.00,129.84
826.00,129.85
825.00,129.86
824.00,129.87
823.00,129.87
822.00,129.87
821.00,129.87
820.00,129.87
819.00,129.87
818.00,129.87
817.00,129.86
816.00,129.86
815.00,129.85
814.00,129.84
813.00,129.84
812.00,129.83
811.00,129.83
810.00,129.82
809.00,129.82
808.00,129.81
807.00,129.81
806.00,129.81
805.00,129.81
804.00,129.81
803.00,129.81
802.00,129.80
801.00,129.80
800.00,129.80
799.00,129.81
798.00,129.81
797.00,129.81
796.00,129.80
795.00,129.80
794.00,129.79
793.00,129.79
792.00,129.80
791.00,129.81
790.00,129.82
789.00,129.82
788.00,129.82
787.00,129.82
786.00,129.83
785.00,129.83
784.00,129.84
783.00,129.84
782.00,129.84
781.00,129.85
780.00,129.85
779.00,129.86
778.00,129.86
777.00,129.86
776.00,129.86
775.00,129.86
774.00,129.86
773.00,129.86
772.00,129.87
771.00,129.87
770.00,129.87
769.00,129.87
768.00,129.87
767.00,129.86
766.00,129.86
765.00,129.86
764.00,129.86
763.00,129.85
762.00,129.84
761.00,129.83
760.00,129.83
759.00,129.82
758.00,129.82
757.00,129.82
756.00,129.81
755.00,129.81
754.00,129.80
753.00,129.79
752.00,129.79
751.00,129.79
750.00,129.78
749.00,129.78
748.00,129.77
747.00,129.77
746.00,129.77
745.00,129.77
744.00,129.78
743.00,129.78
742.00,129.78
741.00,129.77
740.00,129.77
739.00,129.78
738.00,129.78
737.00,129.79
736.00,129.79
735.00,129.79
734.00,129.79
733.00,129.79
732.00,129.80
731.00,129.80
730.00,129.80
729.00,129.80
728.00,129.80
727.00,129.81
726.00,129.81
725.00,129.82
724.00,129.83
723.00,129.84
722.00,129.84
721.00,129.84
720.00,129.84
719.00,129.83
718.00,129.82
717.00,129.82
716.00,129.82
715.00,129.83
714.00,129.83
713.00,129.83
712.00,129.83
711.00,129.83
710.00,129.83
709.00,129.82
708.00,129.81
707.00,129.81
706.00,129.81
705.00,129.80
704.00,129.80
703.00,129.80
702.00,129.79
701.00,129.78
700.00,129.77
699.00,129.77
698.00,129.77
697.00,129.78
696.00,129.79
695.00,129.79
694.00,129.78
693.00,129.77
692.00,129.76
691.00,129.76
690.00,129.76
689.00,129.77
688.00,129.78
687.00,129.78
686.00,129.78
685.00,129.78
684.00,129.78
683.00,129.78
682.00,129.77
681.00,129.78
680.00,129.78
679.00,129.79
678.00,129.80
677.00,129.80
676.00,129.80
675.00,129.79
674.00,129.78
673.00,129.79
672.00,129.83
671.00,129.89
670.00,129.99
669.00,130.13
668.00,130.17
667.00,130.06
666.00,129.93
665.00,129.85
664.00,129.79
663.00,129.76
662.00,129.76
661.00,129.76
660.00,129.75
659.00,129.75
658.00,129.75
657.00,129.75
656.00,129.73
655.00,129.72
654.00,129.72
653.00,129.72
652.00,129.72
651.00,129.72
650.00,129.73
649.00,129.72
648.00,129.70
647.00,129.68
646.00,129.67
645.00,129.66
644.00,129.65
643.00,129.65
642.00,129.65
641.00,129.65
640.00,129.63
639.00,129.61
638.00,129.61
637.00,129.61
636.00,129.62
635.00,129.62
634.00,129.62
633.00,129.61
632.00,129.60
631.00,129.59
630.00,129.60
629.00,129.60
628.00,129.60
627.00,129.60
626.00,129.60
625.00,129.61
624.00,129.61
623.00,129.62
622.00,129.61
621.00,129.60
620.00,129.59
619.00,129.58
618.00,129.58
617.00,129.59
616.00,129.59
615.00,129.60
614.00,129.60
613.00,129.59
612.00,129.59
611.00,129.59
610.00,129.59
609.00,129.59
608.00,129.59
607.00,129.58
606.00,129.58
605.00,129.58
604.00,129.58
603.00,129.59
602.00,129.59
601.00,129.58
600.00,129.56
599.00,129.55
598.00,129.55
597.00,129.55
596.00,129.55
595.00,129.54
594.00,129.53
593.00,129.52
592.00,129.51
591.00,129.51
590.00,129.51
589.00,129.51
588.00,129.51
587.00,129.50
586.00,129.50
585.00,129.50
584.00,129.49
583.00,129.49
582.00,129.50
581.00,129.50
580.00,129.49
579.00,129.48
578.00,129.47
577.00,129.46
576.00,129.45
575.00,129.46
574.00,129.45
573.00,129.45
572.00,129.44
571.00,129.43
570.00,129.43
569.00,129.43
568.00,129.42
567.00,129.42
566.00,129.43
565.00,129.44
564.00,129.44
563.00,129.44
562.00,129.43
561.00,129.42
560.00,129.41
559.00,129.40
558.00,129.41
557.00,129.41
556.00,129.41
555.00,129.41
554.00,129.41
553.00,129.41
552.00,129.40
551.00,129.39
550.00,129.40
549.00,129.41
548.00,129.41
547.00,129.41
546.00,129.41
545.00,129.40
544.00,129.41
543.00,129.41
542.00,129.41
541.00,129.41
540.00,129.42
539.00,129.43
538.00,129.45
537.00,129.47
536.00,129.47
535.00,129.47
534.00,129.46
533.00,129.45
532.00,129.45
531.00,129.46
530.00,129.49
529.00,129.51
528.00,129.52
527.00,129.53
526.00,129.53
525.00,129.53
524.00,129.55
523.00,129.57
522.00,129.60
521.00,129.62
520.00,129.65
519.00,129.68
518.00,129.71
517.00,129.72
516.00,129.72
515.00,129.72
514.00,129.72
513.00,129.73
512.00,129.74
511.00,129.76
510.00,129.77
509.00,129.78
508.00,129.78
507.00,129.79
506.00,129.81
505.00,129.84
504.00,129.86
503.00,129.87
502.00,129.87
501.00,129.87
500.00,129.87
