Created as New Dataset,Sample 348 By Analyst Date Wednesday, February 05 2025
cm-1,%T
4000.00,134.14
3999.00,134.14
3998.00,134.13
3997.00,134.13
3996.00,134.12
3995.00,134.11
3994.00,134.10
3993.00,134.09
3992.00,134.09
3991.00,134.08
3990.00,134.07
3989.00,134.07
3988.00,134.06
3987.00,134.05
3986.00,134.04
3985.00,134.03
3984.00,134.02
3983.00,134.01
3982.00,134.00
3981.00,133.99
3980.00,133.98
3979.00,133.97
3978.00,133.96
3977.00,133.94
3976.00,133.93
3975.00,133.92
3974.00,133.91
3973.00,133.90
3972.00,133.89
3971.00,133.88
3970.00,133.87
3969.00,133.86
3968.00,133.85
3967.00,133.85
3966.00,133.84
3965.00,133.83
3964.00,133.82
3963.00,133.82
3962.00,133.81
3961.00,133.80
3960.00,133.80
3959.00,133.80
3958.00,133.80
3957.00,133.80
3956.00,133.81
3955.00,133.81
3954.00,133.81
3953.00,133.80
3952.00,133.80
3951.00,133.80
3950.00,133.79
3949.00,133.79
3948.00,133.79
3947.00,133.79
3946.00,133.78
3945.00,133.78
3944.00,133.78
3943.00,133.78
3942.00,133.79
3941.00,133.79
3940.00,133.79
3939.00,133.79
3938.00,133.79
3937.00,133.79
3936.00,133.78
3935.00,133.76
3934.00,133.75
3933.00,133.73
3932.00,133.72
3931.00,133.72
3930.00,133.71
3929.00,133.70
3928.00,133.70
3927.00,133.69
3926.00,133.69
3925.00,133.68
3924.00,133.67
3923.00,133.65
3922.00,133.64
3921.00,133.62
3920.00,133.61
3919.00,133.60
3918.00,133.60
3917.00,133.59
3916.00,133.59
3915.00,133.59
3914.00,133.59
3913.00,133.60
3912.00,133.60
3911.00,133.60
3910.00,133.60
3909.00,133.59
3908.00,133.57
3907.00,133.55
3906.00,133.53
3905.00,133.51
3904.00,133.48
3903.00,133.47
3902.00,133.45
3901.00,133.45
3900.00,133.46
3899.00,133.47
3898.00,133.49
3897.00,133.51
3896.00,133.53
3895.00,133.54
3894.00,133.56
3893.00,133.56
3892.00,133.57
3891.00,133.57
3890.00,133.56
3889.00,133.55
3888.00,133.53
3887.00,133.53
3886.00,133.53
3885.00,133.52
3884.00,133.51
3883.00,133.51
3882.00,133.50
3881.00,133.51
3880.00,133.52
3879.00,133.53
3878.00,133.52
3877.00,133.52
3876.00,133.51
3875.00,133.51
3874.00,133.51
3873.00,133.49
3872.00,133.47
3871.00,133.46
3870.00,133.45
3869.00,133.44
3868.00,133.44
3867.00,133.43
3866.00,133.42
3865.00,133.42
3864.00,133.42
3863.00,133.42
3862.00,133.42
3861.00,133.42
3860.00,133.41
3859.00,133.41
3858.00,133.41
3857.00,133.40
3856.00,133.39
3855.00,133.37
3854.00,133.35
3853.00,133.34
3852.00,133.36
3851.00,133.35
3850.00,133.34
3849.00,133.34
3848.00,133.36
3847.00,133.39
3846.00,133.40
3845.00,133.40
3844.00,133.39
3843.00,133.38
3842.00,133.36
3841.00,133.35
3840.00,133.34
3839.00,133.34
3838.00,133.34
3837.00,133.33
3836.00,133.33
3835.00,133.33
3834.00,133.33
3833.00,133.34
3832.00,133.34
3831.00,133.35
3830.00,133.34
3829.00,133.34
3828.00,133.33
3827.00,133.33
3826.00,133.32
3825.00,133.31
3824.00,133.29
3823.00,133.26
3822.00,133.25
3821.00,133.24
3820.00,133.23
3819.00,133.21
3818.00,133.20
3817.00,133.20
3816.00,133.20
3815.00,133.21
3814.00,133.21
3813.00,133.20
3812.00,133.20
3811.00,133.19
3810.00,133.19
3809.00,133.18
3808.00,133.16
3807.00,133.15
3806.00,133.14
3805.00,133.12
3804.00,133.11
3803.00,133.10
3802.00,133.10
3801.00,133.10
3800.00,133.09
3799.00,133.08
3798.00,133.08
3797.00,133.08
3796.00,133.09
3795.00,133.10
3794.00,133.11
3793.00,133.11
3792.00,133.12
3791.00,133.12
3790.00,133.13
3789.00,133.13
3788.00,133.13
3787.00,133.13
3786.00,133.13
3785.00,133.13
3784.00,133.13
3783.00,133.13
3782.00,133.12
3781.00,133.12
3780.00,133.13
3779.00,133.13
3778.00,133.14
3777.00,133.14
3776.00,133.14
3775.00,133.15
3774.00,133.14
3773.00,133.14
3772.00,133.13
3771.00,133.13
3770.00,133.13
3769.00,133.12
3768.00,133.12
3767.00,133.11
3766.00,133.11
3765.00,133.11
3764.00,133.11
3763.00,133.11
3762.00,133.10
3761.00,133.09
3760.00,133.08
3759.00,133.07
3758.00,133.06
3757.00,133.05
3756.00,133.03
3755.00,133.01
3754.00,132.99
3753.00,132.97
3752.00,132.95
3751.00,132.93
3750.00,132.92
3749.00,132.89
3748.00,132.86
3747.00,132.82
3746.00,132.80
3745.00,132.80
3744.00,132.79
3743.00,132.79
3742.00,132.77
3741.00,132.74
3740.00,132.74
3739.00,132.73
3738.00,132.72
3737.00,132.69
3736.00,132.68
3735.00,132.67
3734.00,132.68
3733.00,132.69
3732.00,132.70
3731.00,132.70
3730.00,132.69
3729.00,132.69
3728.00,132.68
3727.00,132.68
3726.00,132.68
3725.00,132.67
3724.00,132.66
3723.00,132.66
3722.00,132.67
3721.00,132.68
3720.00,132.68
3719.00,132.69
3718.00,132.70
3717.00,132.70
3716.00,132.70
3715.00,132.70
3714.00,132.69
3713.00,132.69
3712.00,132.69
3711.00,132.70
3710.00,132.72
3709.00,132.73
3708.00,132.75
3707.00,132.76
3706.00,132.78
3705.00,132.81
3704.00,132.83
3703.00,132.85
3702.00,132.88
3701.00,132.91
3700.00,132.94
3699.00,132.97
3698.00,133.00
3697.00,133.04
3696.00,133.07
3695.00,133.10
3694.00,133.13
3693.00,133.15
3692.00,133.16
3691.00,133.18
3690.00,133.20
3689.00,133.23
3688.00,133.27
3687.00,133.31
3686.00,133.33
3685.00,133.36
3684.00,133.39
3683.00,133.42
3682.00,133.43
3681.00,133.44
3680.00,133.44
3679.00,133.43
3678.00,133.42
3677.00,133.41
3676.00,133.40
3675.00,133.40
3674.00,133.39
3673.00,133.38
3672.00,133.37
3671.00,133.38
3670.00,133.39
3669.00,133.41
3668.00,133.41
3667.00,133.41
3666.00,133.41
3665.00,133.41
3664.00,133.42
3663.00,133.41
3662.00,133.40
3661.00,133.38
3660.00,133.36
3659.00,133.34
3658.00,133.32
3657.00,133.30
3656.00,133.27
3655.00,133.24
3654.00,133.21
3653.00,133.17
3652.00,133.13
3651.00,133.09
3650.00,133.06
3649.00,133.04
3648.00,133.03
3647.00,133.03
3646.00,133.03
3645.00,133.03
3644.00,133.05
3643.00,133.06
3642.00,133.08
3641.00,133.09
3640.00,133.10
3639.00,133.10
3638.00,133.10
3637.00,133.10
3636.00,133.09
3635.00,133.09
3634.00,133.08
3633.00,133.07
3632.00,133.06
3631.00,133.04
3630.00,133.03
3629.00,133.03
3628.00,133.05
3627.00,133.08
3626.00,133.09
3625.00,133.11
3624.00,133.14
3623.00,133.17
3622.00,133.18
3621.00,133.18
3620.00,133.18
3619.00,133.18
3618.00,133.18
3617.00,133.18
3616.00,133.17
3615.00,133.17
3614.00,133.18
3613.00,133.18
3612.00,133.18
3611.00,133.17
3610.00,133.17
3609.00,133.16
3608.00,133.16
3607.00,133.17
3606.00,133.18
3605.00,133.19
3604.00,133.20
3603.00,133.21
3602.00,133.21
3601.00,133.21
3600.00,133.21
3599.00,133.21
3598.00,133.20
3597.00,133.20
3596.00,133.20
3595.00,133.19
3594.00,133.19
3593.00,133.19
3592.00,133.19
3591.00,133.18
3590.00,133.16
3589.00,133.15
3588.00,133.14
3587.00,133.14
3586.00,133.15
3585.00,133.17
3584.00,133.20
3583.00,133.22
3582.00,133.25
3581.00,133.28
3580.00,133.31
3579.00,133.32
3578.00,133.34
3577.00,133.35
3576.00,133.37
3575.00,133.38
3574.00,133.39
3573.00,133.40
3572.00,133.40
3571.00,133.39
3570.00,133.37
3569.00,133.36
3568.00,133.35
3567.00,133.35
3566.00,133.37
3565.00,133.39
3564.00,133.42
3563.00,133.44
3562.00,133.46
3561.00,133.49
3560.00,133.51
3559.00,133.53
3558.00,133.54
3557.00,133.55
3556.00,133.55
3555.00,133.55
3554.00,133.55
3553.00,133.55
3552.00,133.55
3551.00,133.55
3550.00,133.54
3549.00,133.53
3548.00,133.52
3547.00,133.50
3546.00,133.49
3545.00,133.49
3544.00,133.49
3543.00,133.50
3542.00,133.52
3541.00,133.53
3540.00,133.53
3539.00,133.53
3538.00,133.53
3537.00,133.53
3536.00,133.53
3535.00,133.53
3534.00,133.53
3533.00,133.54
3532.00,133.54
3531.00,133.54
3530.00,133.53
3529.00,133.53
3528.00,133.52
3527.00,133.52
3526.00,133.51
3525.00,133.51
3524.00,133.51
3523.00,133.51
3522.00,133.52
3521.00,133.53
3520.00,133.54
3519.00,133.54
3518.00,133.55
3517.00,133.55
3516.00,133.54
3515.00,133.54
3514.00,133.53
3513.00,133.53
3512.00,133.53
3511.00,133.52
3510.00,133.52
3509.00,133.51
3508.00,133.51
3507.00,133.50
3506.00,133.49
3505.00,133.48
3504.00,133.48
3503.00,133.47
3502.00,133.47
3501.00,133.47
3500.00,133.47
3499.00,133.47
3498.00,133.47
3497.00,133.47
3496.00,133.47
3495.00,133.48
3494.00,133.48
3493.00,133.48
3492.00,133.48
3491.00,133.49
3490.00,133.49
3489.00,133.50
3488.00,133.50
3487.00,133.51
3486.00,133.51
3485.00,133.52
3484.00,133.53
3483.00,133.54
3482.00,133.55
3481.00,133.55
3480.00,133.57
3479.00,133.58
3478.00,133.60
3477.00,133.62
3476.00,133.64
3475.00,133.65
3474.00,133.67
3473.00,133.68
3472.00,133.69
3471.00,133.70
3470.00,133.71
3469.00,133.73
3468.00,133.74
3467.00,133.77
3466.00,133.79
3465.00,133.80
3464.00,133.82
3463.00,133.84
3462.00,133.85
3461.00,133.87
3460.00,133.88
3459.00,133.90
3458.00,133.91
3457.00,133.93
3456.00,133.94
3455.00,133.95
3454.00,133.96
3453.00,133.97
3452.00,133.98
3451.00,133.99
3450.00,134.00
3449.00,134.00
3448.00,134.01
3447.00,134.01
3446.00,134.02
3445.00,134.03
3444.00,134.04
3443.00,134.05
3442.00,134.06
3441.00,134.06
3440.00,134.07
3439.00,134.07
3438.00,134.07
3437.00,134.07
3436.00,134.08
3435.00,134.08
3434.00,134.09
3433.00,134.09
3432.00,134.10
3431.00,134.10
3430.00,134.10
3429.00,134.10
3428.00,134.10
3427.00,134.10
3426.00,134.10
3425.00,134.10
3424.00,134.09
3423.00,134.08
3422.00,134.08
3421.00,134.07
3420.00,134.06
3419.00,134.05
3418.00,134.04
3417.00,134.02
3416.00,134.01
3415.00,133.99
3414.00,133.97
3413.00,133.95
3412.00,133.94
3411.00,133.91
3410.00,133.89
3409.00,133.87
3408.00,133.85
3407.00,133.82
3406.00,133.80
3405.00,133.77
3404.00,133.74
3403.00,133.71
3402.00,133.68
3401.00,133.65
3400.00,133.63
3399.00,133.61
3398.00,133.59
3397.00,133.57
3396.00,133.55
3395.00,133.52
3394.00,133.49
3393.00,133.47
3392.00,133.45
3391.00,133.43
3390.00,133.42
3389.00,133.41
3388.00,133.41
3387.00,133.39
3386.00,133.38
3385.00,133.37
3384.00,133.36
3383.00,133.35
3382.00,133.34
3381.00,133.33
3380.00,133.32
3379.00,133.31
3378.00,133.30
3377.00,133.30
3376.00,133.30
3375.00,133.29
3374.00,133.29
3373.00,133.28
3372.00,133.27
3371.00,133.27
3370.00,133.26
3369.00,133.26
3368.00,133.26
3367.00,133.26
3366.00,133.27
3365.00,133.27
3364.00,133.28
3363.00,133.28
3362.00,133.28
3361.00,133.28
3360.00,133.28
3359.00,133.28
3358.00,133.29
3357.00,133.29
3356.00,133.29
3355.00,133.29
3354.00,133.28
3353.00,133.28
3352.00,133.28
3351.00,133.28
3350.00,133.28
3349.00,133.29
3348.00,133.30
3347.00,133.30
3346.00,133.30
3345.00,133.30
3344.00,133.30
3343.00,133.29
3342.00,133.29
3341.00,133.29
3340.00,133.29
3339.00,133.29
3338.00,133.29
3337.00,133.30
3336.00,133.31
3335.00,133.31
3334.00,133.32
3333.00,133.33
3332.00,133.33
3331.00,133.34
3330.00,133.34
3329.00,133.35
3328.00,133.35
3327.00,133.36
3326.00,133.37
3325.00,133.38
3324.00,133.39
3323.00,133.40
3322.00,133.42
3321.00,133.43
3320.00,133.44
3319.00,133.46
3318.00,133.47
3317.00,133.49
3316.00,133.51
3315.00,133.53
3314.00,133.55
3313.00,133.58
3312.00,133.60
3311.00,133.63
3310.00,133.66
3309.00,133.69
3308.00,133.72
3307.00,133.76
3306.00,133.80
3305.00,133.83
3304.00,133.86
3303.00,133.89
3302.00,133.90
3301.00,133.89
3300.00,133.88
3299.00,133.86
3298.00,133.82
3297.00,133.79
3296.00,133.75
3295.00,133.71
3294.00,133.67
3293.00,133.63
3292.00,133.59
3291.00,133.55
3290.00,133.52
3289.00,133.49
3288.00,133.46
3287.00,133.43
3286.00,133.40
3285.00,133.37
3284.00,133.35
3283.00,133.32
3282.00,133.30
3281.00,133.28
3280.00,133.26
3279.00,133.24
3278.00,133.23
3277.00,133.21
3276.00,133.19
3275.00,133.17
3274.00,133.16
3273.00,133.14
3272.00,133.13
3271.00,133.12
3270.00,133.12
3269.00,133.12
3268.00,133.12
3267.00,133.12
3266.00,133.12
3265.00,133.12
3264.00,133.12
3263.00,133.12
3262.00,133.12
3261.00,133.12
3260.00,133.12
3259.00,133.12
3258.00,133.12
3257.00,133.12
3256.00,133.13
3255.00,133.13
3254.00,133.13
3253.00,133.14
3252.00,133.14
3251.00,133.15
3250.00,133.15
3249.00,133.15
3248.00,133.15
3247.00,133.15
3246.00,133.15
3245.00,133.15
3244.00,133.16
3243.00,133.16
3242.00,133.16
3241.00,133.17
3240.00,133.17
3239.00,133.17
3238.00,133.17
3237.00,133.17
3236.00,133.17
3235.00,133.16
3234.00,133.16
3233.00,133.17
3232.00,133.17
3231.00,133.18
3230.00,133.19
3229.00,133.19
3228.00,133.20
3227.00,133.20
3226.00,133.21
3225.00,133.22
3224.00,133.23
3223.00,133.24
3222.00,133.24
3221.00,133.25
3220.00,133.26
3219.00,133.27
3218.00,133.28
3217.00,133.29
3216.00,133.30
3215.00,133.31
3214.00,133.33
3213.00,133.34
3212.00,133.35
3211.00,133.37
3210.00,133.38
3209.00,133.39
3208.00,133.40
3207.00,133.42
3206.00,133.43
3205.00,133.44
3204.00,133.46
3203.00,133.47
3202.00,133.48
3201.00,133.48
3200.00,133.49
3199.00,133.50
3198.00,133.51
3197.00,133.51
3196.00,133.52
3195.00,133.52
3194.00,133.52
3193.00,133.51
3192.00,133.51
3191.00,133.51
3190.00,133.51
3189.00,133.51
3188.00,133.52
3187.00,133.52
3186.00,133.52
3185.00,133.52
3184.00,133.53
3183.00,133.53
3182.00,133.54
3181.00,133.54
3180.00,133.54
3179.00,133.54
3178.00,133.54
3177.00,133.53
3176.00,133.52
3175.00,133.52
3174.00,133.51
3173.00,133.50
3172.00,133.49
3171.00,133.49
3170.00,133.48
3169.00,133.48
3168.00,133.48
3167.00,133.48
3166.00,133.49
3165.00,133.49
3164.00,133.50
3163.00,133.50
3162.00,133.51
3161.00,133.51
3160.00,133.52
3159.00,133.52
3158.00,133.53
3157.00,133.53
3156.00,133.53
3155.00,133.53
3154.00,133.53
3153.00,133.53
3152.00,133.53
3151.00,133.53
3150.00,133.53
3149.00,133.54
3148.00,133.54
3147.00,133.54
3146.00,133.53
3145.00,133.53
3144.00,133.53
3143.00,133.53
3142.00,133.53
3141.00,133.53
3140.00,133.53
3139.00,133.53
3138.00,133.53
3137.00,133.54
3136.00,133.54
3135.00,133.54
3134.00,133.54
3133.00,133.55
3132.00,133.55
3131.00,133.55
3130.00,133.55
3129.00,133.55
3128.00,133.56
3127.00,133.56
3126.00,133.57
3125.00,133.57
3124.00,133.57
3123.00,133.57
3122.00,133.58
3121.00,133.58
3120.00,133.58
3119.00,133.59
3118.00,133.60
3117.00,133.61
3116.00,133.63
3115.00,133.64
3114.00,133.66
3113.00,133.68
3112.00,133.70
3111.00,133.72
3110.00,133.73
3109.00,133.75
3108.00,133.77
3107.00,133.79
3106.00,133.81
3105.00,133.83
3104.00,133.84
3103.00,133.85
3102.00,133.86
3101.00,133.87
3100.00,133.87
3099.00,133.88
3098.00,133.89
3097.00,133.90
3096.00,133.90
3095.00,133.91
3094.00,133.92
3093.00,133.92
3092.00,133.93
3091.00,133.95
3090.00,133.96
3089.00,133.98
3088.00,133.99
3087.00,134.01
3086.00,134.02
3085.00,134.03
3084.00,134.05
3083.00,134.06
3082.00,134.07
3081.00,134.09
3080.00,134.09
3079.00,134.10
3078.00,134.11
3077.00,134.12
3076.00,134.13
3075.00,134.13
3074.00,134.13
3073.00,134.13
3072.00,134.13
3071.00,134.13
3070.00,134.12
3069.00,134.12
3068.00,134.11
3067.00,134.11
3066.00,134.11
3065.00,134.11
3064.00,134.11
3063.00,134.11
3062.00,134.11
3061.00,134.11
3060.00,134.11
3059.00,134.11
3058.00,134.11
3057.00,134.10
3056.00,134.10
3055.00,134.10
3054.00,134.10
3053.00,134.10
3052.00,134.10
3051.00,134.10
3050.00,134.10
3049.00,134.10
3048.00,134.11
3047.00,134.11
3046.00,134.11
3045.00,134.11
3044.00,134.12
3043.00,134.12
3042.00,134.12
3041.00,134.13
3040.00,134.13
3039.00,134.14
3038.00,134.14
3037.00,134.14
3036.00,134.14
3035.00,134.14
3034.00,134.13
3033.00,134.13
3032.00,134.13
3031.00,134.13
3030.00,134.13
3029.00,134.13
3028.00,134.13
3027.00,134.13
3026.00,134.13
3025.00,134.12
3024.00,134.12
3023.00,134.12
3022.00,134.11
3021.00,134.11
3020.00,134.11
3019.00,134.10
3018.00,134.10
3017.00,134.09
3016.00,134.09
3015.00,134.08
3014.00,134.08
3013.00,134.08
3012.00,134.08
3011.00,134.09
3010.00,134.09
3009.00,134.09
3008.00,134.10
3007.00,134.10
3006.00,134.10
3005.00,134.10
3004.00,134.10
3003.00,134.10
3002.00,134.10
3001.00,134.10
3000.00,134.10
2999.00,134.10
2998.00,134.10
2997.00,134.10
2996.00,134.10
2995.00,134.11
2994.00,134.11
2993.00,134.11
2992.00,134.11
2991.00,134.12
2990.00,134.12
2989.00,134.13
2988.00,134.13
2987.00,134.13
2986.00,134.13
2985.00,134.13
2984.00,134.13
2983.00,134.13
2982.00,134.13
2981.00,134.13
2980.00,134.12
2979.00,134.12
2978.00,134.12
2977.00,134.12
2976.00,134.12
2975.00,134.12
2974.00,134.11
2973.00,134.11
2972.00,134.11
2971.00,134.10
2970.00,134.10
2969.00,134.09
2968.00,134.09
2967.00,134.09
2966.00,134.08
2965.00,134.08
2964.00,134.08
2963.00,134.08
2962.00,134.08
2961.00,134.08
2960.00,134.08
2959.00,134.08
2958.00,134.08
2957.00,134.09
2956.00,134.09
2955.00,134.09
2954.00,134.09
2953.00,134.09
2952.00,134.09
2951.00,134.10
2950.00,134.10
2949.00,134.10
2948.00,134.10
2947.00,134.10
2946.00,134.10
2945.00,134.10
2944.00,134.11
2943.00,134.11
2942.00,134.12
2941.00,134.12
2940.00,134.13
2939.00,134.13
2938.00,134.13
2937.00,134.13
2936.00,134.14
2935.00,134.14
2934.00,134.14
2933.00,134.13
2932.00,134.13
2931.00,134.13
2930.00,134.13
2929.00,134.13
2928.00,134.14
2927.00,134.14
2926.00,134.14
2925.00,134.14
2924.00,134.14
2923.00,134.14
2922.00,134.14
2921.00,134.14
2920.00,134.14
2919.00,134.13
2918.00,134.12
2917.00,134.12
2916.00,134.11
2915.00,134.10
2914.00,134.09
2913.00,134.09
2912.00,134.08
2911.00,134.08
2910.00,134.07
2909.00,134.06
2908.00,134.06
2907.00,134.05
2906.00,134.05
2905.00,134.05
2904.00,134.05
2903.00,134.06
2902.00,134.06
2901.00,134.06
2900.00,134.06
2899.00,134.07
2898.00,134.07
2897.00,134.07
2896.00,134.07
2895.00,134.08
2894.00,134.09
2893.00,134.09
2892.00,134.10
2891.00,134.10
2890.00,134.10
2889.00,134.10
2888.00,134.10
2887.00,134.11
2886.00,134.11
2885.00,134.11
2884.00,134.11
2883.00,134.11
2882.00,134.11
2881.00,134.11
2880.00,134.11
2879.00,134.11
2878.00,134.10
2877.00,134.10
2876.00,134.10
2875.00,134.09
2874.00,134.09
2873.00,134.08
2872.00,134.08
2871.00,134.08
2870.00,134.08
2869.00,134.08
2868.00,134.08
2867.00,134.07
2866.00,134.07
2865.00,134.07
2864.00,134.07
2863.00,134.06
2862.00,134.06
2861.00,134.06
2860.00,134.05
2859.00,134.06
2858.00,134.06
2857.00,134.06
2856.00,134.06
2855.00,134.07
2854.00,134.07
2853.00,134.07
2852.00,134.08
2851.00,134.08
2850.00,134.08
2849.00,134.08
2848.00,134.08
2847.00,134.08
2846.00,134.08
2845.00,134.08
2844.00,134.08
2843.00,134.08
2842.00,134.08
2841.00,134.07
2840.00,134.07
2839.00,134.07
2838.00,134.07
2837.00,134.07
2836.00,134.07
2835.00,134.07
2834.00,134.07
2833.00,134.07
2832.00,134.08
2831.00,134.08
2830.00,134.07
2829.00,134.07
2828.00,134.07
2827.00,134.07
2826.00,134.06
2825.00,134.06
2824.00,134.06
2823.00,134.05
2822.00,134.05
2821.00,134.04
2820.00,134.04
2819.00,134.03
2818.00,134.03
2817.00,134.03
2816.00,134.02
2815.00,134.02
2814.00,134.01
2813.00,134.01
2812.00,134.00
2811.00,134.00
2810.00,134.00
2809.00,133.99
2808.00,133.99
2807.00,133.99
2806.00,133.99
2805.00,134.00
2804.00,134.00
2803.00,134.00
2802.00,134.00
2801.00,134.00
2800.00,133.99
2799.00,133.99
2798.00,133.99
2797.00,133.99
2796.00,133.99
2795.00,133.99
2794.00,133.99
2793.00,133.99
2792.00,133.99
2791.00,133.98
2790.00,133.98
2789.00,133.98
2788.00,133.98
2787.00,133.98
2786.00,133.98
2785.00,133.98
2784.00,133.98
2783.00,133.97
2782.00,133.97
2781.00,133.96
2780.00,133.96
2779.00,133.96
2778.00,133.95
2777.00,133.95
2776.00,133.94
2775.00,133.93
2774.00,133.93
2773.00,133.93
2772.00,133.92
2771.00,133.92
2770.00,133.91
2769.00,133.91
2768.00,133.90
2767.00,133.90
2766.00,133.89
2765.00,133.89
2764.00,133.88
2763.00,133.88
2762.00,133.88
2761.00,133.87
2760.00,133.87
2759.00,133.87
2758.00,133.86
2757.00,133.86
2756.00,133.86
2755.00,133.86
2754.00,133.86
2753.00,133.86
2752.00,133.86
2751.00,133.86
2750.00,133.86
2749.00,133.86
2748.00,133.86
2747.00,133.86
2746.00,133.87
2745.00,133.87
2744.00,133.87
2743.00,133.88
2742.00,133.88
2741.00,133.88
2740.00,133.89
2739.00,133.90
2738.00,133.90
2737.00,133.90
2736.00,133.91
2735.00,133.91
2734.00,133.91
2733.00,133.91
2732.00,133.91
2731.00,133.91
2730.00,133.90
2729.00,133.90
2728.00,133.89
2727.00,133.88
2726.00,133.87
2725.00,133.86
2724.00,133.85
2723.00,133.84
2722.00,133.84
2721.00,133.83
2720.00,133.82
2719.00,133.81
2718.00,133.80
2717.00,133.79
2716.00,133.78
2715.00,133.77
2714.00,133.76
2713.00,133.75
2712.00,133.74
2711.00,133.73
2710.00,133.72
2709.00,133.71
2708.00,133.70
2707.00,133.70
2706.00,133.69
2705.00,133.68
2704.00,133.68
2703.00,133.67
2702.00,133.66
2701.00,133.66
2700.00,133.65
2699.00,133.65
2698.00,133.64
2697.00,133.64
2696.00,133.64
2695.00,133.64
2694.00,133.64
2693.00,133.64
2692.00,133.64
2691.00,133.64
2690.00,133.64
2689.00,133.65
2688.00,133.65
2687.00,133.66
2686.00,133.66
2685.00,133.67
2684.00,133.67
2683.00,133.68
2682.00,133.68
2681.00,133.69
2680.00,133.70
2679.00,133.70
2678.00,133.71
2677.00,133.71
2676.00,133.72
2675.00,133.72
2674.00,133.73
2673.00,133.73
2672.00,133.72
2671.00,133.72
2670.00,133.71
2669.00,133.71
2668.00,133.70
2667.00,133.69
2666.00,133.68
2665.00,133.66
2664.00,133.65
2663.00,133.63
2662.00,133.62
2661.00,133.60
2660.00,133.59
2659.00,133.57
2658.00,133.56
2657.00,133.54
2656.00,133.53
2655.00,133.52
2654.00,133.50
2653.00,133.49
2652.00,133.48
2651.00,133.47
2650.00,133.47
2649.00,133.46
2648.00,133.45
2647.00,133.44
2646.00,133.44
2645.00,133.43
2644.00,133.43
2643.00,133.43
2642.00,133.43
2641.00,133.43
2640.00,133.43
2639.00,133.43
2638.00,133.43
2637.00,133.44
2636.00,133.44
2635.00,133.45
2634.00,133.45
2633.00,133.46
2632.00,133.46
2631.00,133.47
2630.00,133.48
2629.00,133.48
2628.00,133.49
2627.00,133.50
2626.00,133.50
2625.00,133.51
2624.00,133.52
2623.00,133.52
2622.00,133.53
2621.00,133.54
2620.00,133.54
2619.00,133.55
2618.00,133.55
2617.00,133.56
2616.00,133.56
2615.00,133.56
2614.00,133.56
2613.00,133.56
2612.00,133.56
2611.00,133.56
2610.00,133.56
2609.00,133.56
2608.00,133.56
2607.00,133.55
2606.00,133.55
2605.00,133.55
2604.00,133.54
2603.00,133.54
2602.00,133.53
2601.00,133.52
2600.00,133.52
2599.00,133.52
2598.00,133.51
2597.00,133.51
2596.00,133.50
2595.00,133.50
2594.00,133.50
2593.00,133.50
2592.00,133.50
2591.00,133.50
2590.00,133.50
2589.00,133.50
2588.00,133.51
2587.00,133.51
2586.00,133.51
2585.00,133.51
2584.00,133.51
2583.00,133.51
2582.00,133.51
2581.00,133.52
2580.00,133.52
2579.00,133.52
2578.00,133.51
2577.00,133.51
2576.00,133.51
2575.00,133.51
2574.00,133.51
2573.00,133.51
2572.00,133.51
2571.00,133.50
2570.00,133.50
2569.00,133.49
2568.00,133.49
2567.00,133.48
2566.00,133.47
2565.00,133.47
2564.00,133.46
2563.00,133.45
2562.00,133.45
2561.00,133.44
2560.00,133.43
2559.00,133.42
2558.00,133.41
2557.00,133.40
2556.00,133.40
2555.00,133.39
2554.00,133.38
2553.00,133.37
2552.00,133.36
2551.00,133.35
2550.00,133.33
2549.00,133.32
2548.00,133.31
2547.00,133.30
2546.00,133.29
2545.00,133.28
2544.00,133.27
2543.00,133.27
2542.00,133.26
2541.00,133.25
2540.00,133.25
2539.00,133.24
2538.00,133.24
2537.00,133.24
2536.00,133.24
2535.00,133.24
2534.00,133.24
2533.00,133.25
2532.00,133.25
2531.00,133.25
2530.00,133.25
2529.00,133.25
2528.00,133.25
2527.00,133.25
2526.00,133.25
2525.00,133.25
2524.00,133.24
2523.00,133.24
2522.00,133.23
2521.00,133.23
2520.00,133.22
2519.00,133.21
2518.00,133.20
2517.00,133.19
2516.00,133.18
2515.00,133.17
2514.00,133.16
2513.00,133.15
2512.00,133.14
2511.00,133.12
2510.00,133.11
2509.00,133.10
2508.00,133.08
2507.00,133.07
2506.00,133.05
2505.00,133.04
2504.00,133.02
2503.00,133.00
2502.00,132.99
2501.00,132.98
2500.00,132.96
2499.00,132.95
2498.00,132.93
2497.00,132.92
2496.00,132.91
2495.00,132.90
2494.00,132.89
2493.00,132.88
2492.00,132.87
2491.00,132.87
2490.00,132.86
2489.00,132.86
2488.00,132.86
2487.00,132.85
2486.00,132.85
2485.00,132.85
2484.00,132.84
2483.00,132.84
2482.00,132.83
2481.00,132.83
2480.00,132.82
2479.00,132.82
2478.00,132.81
2477.00,132.81
2476.00,132.80
2475.00,132.80
2474.00,132.80
2473.00,132.80
2472.00,132.80
2471.00,132.80
2470.00,132.80
2469.00,132.80
2468.00,132.80
2467.00,132.80
2466.00,132.79
2465.00,132.79
2464.00,132.79
2463.00,132.79
2462.00,132.79
2461.00,132.79
2460.00,132.79
2459.00,132.79
2458.00,132.78
2457.00,132.78
2456.00,132.78
2455.00,132.78
2454.00,132.78
2453.00,132.78
2452.00,132.78
2451.00,132.79
2450.00,132.79
2449.00,132.79
2448.00,132.80
2447.00,132.80
2446.00,132.81
2445.00,132.82
2444.00,132.82
2443.00,132.83
2442.00,132.84
2441.00,132.85
2440.00,132.86
2439.00,132.87
2438.00,132.88
2437.00,132.89
2436.00,132.90
2435.00,132.91
2434.00,132.92
2433.00,132.94
2432.00,132.95
2431.00,132.97
2430.00,132.98
2429.00,133.00
2428.00,133.02
2427.00,133.03
2426.00,133.05
2425.00,133.07
2424.00,133.09
2423.00,133.11
2422.00,133.13
2421.00,133.14
2420.00,133.16
2419.00,133.18
2418.00,133.19
2417.00,133.20
2416.00,133.21
2415.00,133.22
2414.00,133.22
2413.00,133.22
2412.00,133.23
2411.00,133.22
2410.00,133.22
2409.00,133.22
2408.00,133.21
2407.00,133.20
2406.00,133.19
2405.00,133.18
2404.00,133.17
2403.00,133.16
2402.00,133.15
2401.00,133.13
2400.00,133.12
2399.00,133.11
2398.00,133.09
2397.00,133.08
2396.00,133.07
2395.00,133.06
2394.00,133.05
2393.00,133.04
2392.00,133.03
2391.00,133.02
2390.00,133.01
2389.00,133.00
2388.00,133.00
2387.00,132.99
2386.00,132.99
2385.00,132.99
2384.00,132.98
2383.00,132.98
2382.00,132.98
2381.00,132.98
2380.00,132.98
2379.00,132.98
2378.00,132.98
2377.00,132.98
2376.00,132.98
2375.00,132.98
2374.00,132.97
2373.00,132.96
2372.00,132.95
2371.00,132.94
2370.00,132.92
2369.00,132.91
2368.00,132.90
2367.00,132.89
2366.00,132.90
2365.00,132.90
2364.00,132.91
2363.00,132.91
2362.00,132.91
2361.00,132.91
2360.00,132.91
2359.00,132.92
2358.00,132.92
2357.00,132.92
2356.00,132.92
2355.00,132.92
2354.00,132.93
2353.00,132.94
2352.00,132.93
2351.00,132.91
2350.00,132.89
2349.00,132.88
2348.00,132.88
2347.00,132.89
2346.00,132.89
2345.00,132.87
2344.00,132.85
2343.00,132.84
2342.00,132.84
2341.00,132.83
2340.00,132.83
2339.00,132.83
2338.00,132.84
2337.00,132.85
2336.00,132.86
2335.00,132.86
2334.00,132.87
2333.00,132.88
2332.00,132.89
2331.00,132.89
2330.00,132.89
2329.00,132.88
2328.00,132.87
2327.00,132.85
2326.00,132.83
2325.00,132.81
2324.00,132.79
2323.00,132.78
2322.00,132.76
2321.00,132.73
2320.00,132.71
2319.00,132.69
2318.00,132.68
2317.00,132.69
2316.00,132.69
2315.00,132.69
2314.00,132.69
2313.00,132.68
2312.00,132.68
2311.00,132.68
2310.00,132.68
2309.00,132.69
2308.00,132.69
2307.00,132.70
2306.00,132.69
2305.00,132.69
2304.00,132.69
2303.00,132.70
2302.00,132.70
2301.00,132.70
2300.00,132.71
2299.00,132.70
2298.00,132.70
2297.00,132.70
2296.00,132.70
2295.00,132.69
2294.00,132.69
2293.00,132.69
2292.00,132.69
2291.00,132.69
2290.00,132.69
2289.00,132.69
2288.00,132.69
2287.00,132.69
2286.00,132.69
2285.00,132.69
2284.00,132.68
2283.00,132.68
2282.00,132.68
2281.00,132.68
2280.00,132.68
2279.00,132.67
2278.00,132.67
2277.00,132.67
2276.00,132.67
2275.00,132.67
2274.00,132.68
2273.00,132.68
2272.00,132.68
2271.00,132.68
2270.00,132.69
2269.00,132.69
2268.00,132.70
2267.00,132.70
2266.00,132.71
2265.00,132.71
2264.00,132.72
2263.00,132.72
2262.00,132.72
2261.00,132.73
2260.00,132.73
2259.00,132.73
2258.00,132.73
2257.00,132.74
2256.00,132.74
2255.00,132.74
2254.00,132.74
2253.00,132.74
2252.00,132.74
2251.00,132.74
2250.00,132.74
2249.00,132.74
2248.00,132.73
2247.00,132.73
2246.00,132.72
2245.00,132.72
2244.00,132.71
2243.00,132.70
2242.00,132.69
2241.00,132.68
2240.00,132.66
2239.00,132.64
2238.00,132.63
2237.00,132.61
2236.00,132.59
2235.00,132.58
2234.00,132.56
2233.00,132.55
2232.00,132.53
2231.00,132.51
2230.00,132.50
2229.00,132.48
2228.00,132.47
2227.00,132.45
2226.00,132.44
2225.00,132.43
2224.00,132.42
2223.00,132.41
2222.00,132.40
2221.00,132.40
2220.00,132.40
2219.00,132.39
2218.00,132.39
2217.00,132.40
2216.00,132.40
2215.00,132.40
2214.00,132.40
2213.00,132.41
2212.00,132.41
2211.00,132.41
2210.00,132.41
2209.00,132.41
2208.00,132.41
2207.00,132.41
2206.00,132.40
2205.00,132.40
2204.00,132.39
2203.00,132.39
2202.00,132.38
2201.00,132.37
2200.00,132.36
2199.00,132.35
2198.00,132.33
2197.00,132.32
2196.00,132.31
2195.00,132.30
2194.00,132.28
2193.00,132.27
2192.00,132.26
2191.00,132.24
2190.00,132.23
2189.00,132.21
2188.00,132.20
2187.00,132.19
2186.00,132.17
2185.00,132.16
2184.00,132.15
2183.00,132.14
2182.00,132.13
2181.00,132.12
2180.00,132.11
2179.00,132.11
2178.00,132.10
2177.00,132.10
2176.00,132.10
2175.00,132.10
2174.00,132.10
2173.00,132.10
2172.00,132.11
2171.00,132.11
2170.00,132.12
2169.00,132.13
2168.00,132.14
2167.00,132.15
2166.00,132.17
2165.00,132.18
2164.00,132.20
2163.00,132.21
2162.00,132.23
2161.00,132.24
2160.00,132.25
2159.00,132.27
2158.00,132.28
2157.00,132.28
2156.00,132.29
2155.00,132.30
2154.00,132.30
2153.00,132.31
2152.00,132.31
2151.00,132.31
2150.00,132.31
2149.00,132.30
2148.00,132.30
2147.00,132.30
2146.00,132.29
2145.00,132.28
2144.00,132.28
2143.00,132.27
2142.00,132.26
2141.00,132.24
2140.00,132.23
2139.00,132.21
2138.00,132.20
2137.00,132.18
2136.00,132.17
2135.00,132.15
2134.00,132.13
2133.00,132.12
2132.00,132.11
2131.00,132.10
2130.00,132.09
2129.00,132.08
2128.00,132.07
2127.00,132.07
2126.00,132.06
2125.00,132.06
2124.00,132.05
2123.00,132.05
2122.00,132.05
2121.00,132.05
2120.00,132.05
2119.00,132.05
2118.00,132.05
2117.00,132.06
2116.00,132.06
2115.00,132.06
2114.00,132.07
2113.00,132.07
2112.00,132.07
2111.00,132.08
2110.00,132.08
2109.00,132.09
2108.00,132.09
2107.00,132.10
2106.00,132.10
2105.00,132.10
2104.00,132.11
2103.00,132.11
2102.00,132.11
2101.00,132.12
2100.00,132.12
2099.00,132.13
2098.00,132.13
2097.00,132.14
2096.00,132.14
2095.00,132.15
2094.00,132.16
2093.00,132.16
2092.00,132.16
2091.00,132.16
2090.00,132.17
2089.00,132.17
2088.00,132.17
2087.00,132.17
2086.00,132.17
2085.00,132.17
2084.00,132.17
2083.00,132.17
2082.00,132.17
2081.00,132.17
2080.00,132.16
2079.00,132.16
2078.00,132.15
2077.00,132.14
2076.00,132.14
2075.00,132.13
2074.00,132.13
2073.00,132.12
2072.00,132.12
2071.00,132.11
2070.00,132.10
2069.00,132.09
2068.00,132.09
2067.00,132.08
2066.00,132.07
2065.00,132.07
2064.00,132.06
2063.00,132.06
2062.00,132.05
2061.00,132.05
2060.00,132.04
2059.00,132.04
2058.00,132.04
2057.00,132.04
2056.00,132.04
2055.00,132.04
2054.00,132.04
2053.00,132.05
2052.00,132.05
2051.00,132.05
2050.00,132.06
2049.00,132.06
2048.00,132.07
2047.00,132.07
2046.00,132.08
2045.00,132.09
2044.00,132.10
2043.00,132.12
2042.00,132.13
2041.00,132.14
2040.00,132.16
2039.00,132.17
2038.00,132.18
2037.00,132.19
2036.00,132.20
2035.00,132.20
2034.00,132.20
2033.00,132.21
2032.00,132.21
2031.00,132.20
2030.00,132.19
2029.00,132.18
2028.00,132.18
2027.00,132.17
2026.00,132.15
2025.00,132.14
2024.00,132.13
2023.00,132.11
2022.00,132.10
2021.00,132.08
2020.00,132.06
2019.00,132.05
2018.00,132.04
2017.00,132.03
2016.00,132.03
2015.00,132.02
2014.00,132.01
2013.00,132.01
2012.00,132.01
2011.00,132.01
2010.00,132.02
2009.00,132.02
2008.00,132.03
2007.00,132.05
2006.00,132.06
2005.00,132.08
2004.00,132.10
2003.00,132.12
2002.00,132.13
2001.00,132.16
2000.00,132.18
1999.00,132.20
1998.00,132.23
1997.00,132.25
1996.00,132.28
1995.00,132.31
1994.00,132.33
1993.00,132.37
1992.00,132.40
1991.00,132.43
1990.00,132.45
1989.00,132.48
1988.00,132.51
1987.00,132.54
1986.00,132.56
1985.00,132.58
1984.00,132.60
1983.00,132.62
1982.00,132.64
1981.00,132.66
1980.00,132.67
1979.00,132.68
1978.00,132.68
1977.00,132.68
1976.00,132.68
1975.00,132.67
1974.00,132.65
1973.00,132.64
1972.00,132.62
1971.00,132.59
1970.00,132.57
1969.00,132.54
1968.00,132.52
1967.00,132.50
1966.00,132.49
1965.00,132.48
1964.00,132.48
1963.00,132.48
1962.00,132.49
1961.00,132.51
1960.00,132.53
1959.00,132.56
1958.00,132.59
1957.00,132.63
1956.00,132.68
1955.00,132.73
1954.00,132.77
1953.00,132.82
1952.00,132.86
1951.00,132.89
1950.00,132.92
1949.00,132.95
1948.00,132.97
1947.00,132.98
1946.00,132.99
1945.00,132.99
1944.00,132.99
1943.00,132.99
1942.00,132.97
1941.00,132.95
1940.00,132.91
1939.00,132.88
1938.00,132.84
1937.00,132.80
1936.00,132.76
1935.00,132.72
1934.00,132.69
1933.00,132.65
1932.00,132.62
1931.00,132.59
1930.00,132.56
1929.00,132.54
1928.00,132.52
1927.00,132.50
1926.00,132.49
1925.00,132.48
1924.00,132.48
1923.00,132.48
1922.00,132.47
1921.00,132.47
1920.00,132.47
1919.00,132.48
1918.00,132.48
1917.00,132.47
1916.00,132.46
1915.00,132.44
1914.00,132.43
1913.00,132.41
1912.00,132.39
1911.00,132.38
1910.00,132.36
1909.00,132.35
1908.00,132.34
1907.00,132.34
1906.00,132.33
1905.00,132.32
1904.00,132.32
1903.00,132.32
1902.00,132.31
1901.00,132.32
1900.00,132.32
1899.00,132.33
1898.00,132.33
1897.00,132.34
1896.00,132.35
1895.00,132.37
1894.00,132.38
1893.00,132.39
1892.00,132.40
1891.00,132.42
1890.00,132.45
1889.00,132.47
1888.00,132.48
1887.00,132.49
1886.00,132.51
1885.00,132.53
1884.00,132.55
1883.00,132.57
1882.00,132.58
1881.00,132.60
1880.00,132.63
1879.00,132.64
1878.00,132.66
1877.00,132.67
1876.00,132.69
1875.00,132.70
1874.00,132.70
1873.00,132.70
1872.00,132.71
1871.00,132.71
1870.00,132.71
1869.00,132.70
1868.00,132.69
1867.00,132.67
1866.00,132.66
1865.00,132.64
1864.00,132.63
1863.00,132.63
1862.00,132.62
1861.00,132.63
1860.00,132.63
1859.00,132.64
1858.00,132.66
1857.00,132.68
1856.00,132.70
1855.00,132.73
1854.00,132.77
1853.00,132.80
1852.00,132.83
1851.00,132.87
1850.00,132.90
1849.00,132.93
1848.00,132.97
1847.00,133.01
1846.00,133.05
1845.00,133.09
1844.00,133.13
1843.00,133.14
1842.00,133.14
1841.00,133.15
1840.00,133.16
1839.00,133.16
1838.00,133.16
1837.00,133.16
1836.00,133.17
1835.00,133.17
1834.00,133.16
1833.00,133.16
1832.00,133.16
1831.00,133.16
1830.00,133.17
1829.00,133.16
1828.00,133.15
1827.00,133.15
1826.00,133.15
1825.00,133.17
1824.00,133.18
1823.00,133.19
1822.00,133.20
1821.00,133.21
1820.00,133.22
1819.00,133.23
1818.00,133.24
1817.00,133.26
1816.00,133.27
1815.00,133.27
1814.00,133.28
1813.00,133.28
1812.00,133.29
1811.00,133.30
1810.00,133.31
1809.00,133.32
1808.00,133.33
1807.00,133.35
1806.00,133.36
1805.00,133.36
1804.00,133.37
1803.00,133.39
1802.00,133.41
1801.00,133.43
1800.00,133.46
1799.00,133.47
1798.00,133.49
1797.00,133.50
1796.00,133.53
1795.00,133.55
1794.00,133.58
1793.00,133.61
1792.00,133.63
1791.00,133.65
1790.00,133.66
1789.00,133.67
1788.00,133.68
1787.00,133.70
1786.00,133.72
1785.00,133.74
1784.00,133.75
1783.00,133.76
1782.00,133.77
1781.00,133.78
1780.00,133.79
1779.00,133.80
1778.00,133.81
1777.00,133.81
1776.00,133.82
1775.00,133.83
1774.00,133.84
1773.00,133.85
1772.00,133.83
1771.00,133.81
1770.00,133.80
1769.00,133.80
1768.00,133.80
1767.00,133.80
1766.00,133.80
1765.00,133.78
1764.00,133.78
1763.00,133.77
1762.00,133.77
1761.00,133.76
1760.00,133.74
1759.00,133.73
1758.00,133.73
1757.00,133.73
1756.00,133.72
1755.00,133.71
1754.00,133.69
1753.00,133.68
1752.00,133.66
1751.00,133.66
1750.00,133.66
1749.00,133.67
1748.00,133.68
1747.00,133.69
1746.00,133.69
1745.00,133.69
1744.00,133.69
1743.00,133.70
1742.00,133.71
1741.00,133.72
1740.00,133.73
1739.00,133.74
1738.00,133.73
1737.00,133.73
1736.00,133.72
1735.00,133.73
1734.00,133.75
1733.00,133.76
1732.00,133.76
1731.00,133.78
1730.00,133.81
1729.00,133.82
1728.00,133.82
1727.00,133.81
1726.00,133.81
1725.00,133.81
1724.00,133.82
1723.00,133.82
1722.00,133.82
1721.00,133.82
1720.00,133.82
1719.00,133.81
1718.00,133.79
1717.00,133.76
1716.00,133.76
1715.00,133.78
1714.00,133.80
1713.00,133.80
1712.00,133.80
1711.00,133.79
1710.00,133.78
1709.00,133.76
1708.00,133.75
1707.00,133.75
1706.00,133.76
1705.00,133.76
1704.00,133.75
1703.00,133.74
1702.00,133.73
1701.00,133.73
1700.00,133.73
1699.00,133.71
1698.00,133.71
1697.00,133.72
1696.00,133.73
1695.00,133.73
1694.00,133.71
1693.00,133.70
1692.00,133.70
1691.00,133.70
1690.00,133.70
1689.00,133.70
1688.00,133.70
1687.00,133.70
1686.00,133.70
1685.00,133.70
1684.00,133.71
1683.00,133.71
1682.00,133.71
1681.00,133.73
1680.00,133.74
1679.00,133.74
1678.00,133.74
1677.00,133.75
1676.00,133.75
1675.00,133.76
1674.00,133.75
1673.00,133.75
1672.00,133.74
1671.00,133.74
1670.00,133.74
1669.00,133.75
1668.00,133.75
1667.00,133.74
1666.00,133.74
1665.00,133.73
1664.00,133.72
1663.00,133.71
1662.00,133.70
1661.00,133.68
1660.00,133.67
1659.00,133.65
1658.00,133.63
1657.00,133.62
1656.00,133.60
1655.00,133.58
1654.00,133.57
1653.00,133.57
1652.00,133.54
1651.00,133.52
1650.00,133.53
1649.00,133.55
1648.00,133.56
1647.00,133.55
1646.00,133.55
1645.00,133.55
1644.00,133.55
1643.00,133.56
1642.00,133.57
1641.00,133.58
1640.00,133.59
1639.00,133.59
1638.00,133.59
1637.00,133.59
1636.00,133.59
1635.00,133.60
1634.00,133.61
1633.00,133.61
1632.00,133.62
1631.00,133.62
1630.00,133.61
1629.00,133.62
1628.00,133.62
1627.00,133.62
1626.00,133.62
1625.00,133.62
1624.00,133.62
1623.00,133.63
1622.00,133.63
1621.00,133.63
1620.00,133.63
1619.00,133.64
1618.00,133.65
1617.00,133.66
1616.00,133.66
1615.00,133.65
1614.00,133.65
1613.00,133.66
1612.00,133.67
1611.00,133.67
1610.00,133.68
1609.00,133.69
1608.00,133.70
1607.00,133.72
1606.00,133.72
1605.00,133.73
1604.00,133.72
1603.00,133.72
1602.00,133.71
1601.00,133.70
1600.00,133.70
1599.00,133.69
1598.00,133.68
1597.00,133.67
1596.00,133.66
1595.00,133.65
1594.00,133.64
1593.00,133.63
1592.00,133.63
1591.00,133.62
1590.00,133.62
1589.00,133.62
1588.00,133.63
1587.00,133.63
1586.00,133.64
1585.00,133.64
1584.00,133.65
1583.00,133.65
1582.00,133.66
1581.00,133.67
1580.00,133.67
1579.00,133.67
1578.00,133.67
1577.00,133.66
1576.00,133.66
1575.00,133.66
1574.00,133.68
1573.00,133.70
1572.00,133.71
1571.00,133.71
1570.00,133.71
1569.00,133.71
1568.00,133.70
1567.00,133.70
1566.00,133.70
1565.00,133.70
1564.00,133.69
1563.00,133.69
1562.00,133.69
1561.00,133.70
1560.00,133.69
1559.00,133.67
1558.00,133.64
1557.00,133.63
1556.00,133.63
1555.00,133.63
1554.00,133.62
1553.00,133.61
1552.00,133.59
1551.00,133.58
1550.00,133.59
1549.00,133.59
1548.00,133.59
1547.00,133.58
1546.00,133.59
1545.00,133.60
1544.00,133.61
1543.00,133.62
1542.00,133.62
1541.00,133.63
1540.00,133.62
1539.00,133.60
1538.00,133.57
1537.00,133.56
1536.00,133.57
1535.00,133.57
1534.00,133.56
1533.00,133.56
1532.00,133.55
1531.00,133.54
1530.00,133.53
1529.00,133.52
1528.00,133.52
1527.00,133.52
1526.00,133.53
1525.00,133.53
1524.00,133.52
1523.00,133.51
1522.00,133.51
1521.00,133.52
1520.00,133.55
1519.00,133.58
1518.00,133.60
1517.00,133.61
1516.00,133.62
1515.00,133.62
1514.00,133.62
1513.00,133.62
1512.00,133.63
1511.00,133.63
1510.00,133.63
1509.00,133.63
1508.00,133.65
1507.00,133.67
1506.00,133.70
1505.00,133.70
1504.00,133.68
1503.00,133.67
1502.00,133.66
1501.00,133.66
1500.00,133.65
1499.00,133.64
1498.00,133.62
1497.00,133.61
1496.00,133.60
1495.00,133.60
1494.00,133.61
1493.00,133.61
1492.00,133.60
1491.00,133.60
1490.00,133.60
1489.00,133.60
1488.00,133.61
1487.00,133.62
1486.00,133.62
1485.00,133.62
1484.00,133.62
1483.00,133.62
1482.00,133.62
1481.00,133.62
1480.00,133.62
1479.00,133.61
1478.00,133.61
1477.00,133.61
1476.00,133.62
1475.00,133.62
1474.00,133.63
1473.00,133.66
1472.00,133.69
1471.00,133.71
1470.00,133.72
1469.00,133.71
1468.00,133.71
1467.00,133.71
1466.00,133.72
1465.00,133.72
1464.00,133.73
1463.00,133.74
1462.00,133.74
1461.00,133.74
1460.00,133.74
1459.00,133.73
1458.00,133.73
1457.00,133.74
1456.00,133.75
1455.00,133.75
1454.00,133.75
1453.00,133.75
1452.00,133.75
1451.00,133.73
1450.00,133.72
1449.00,133.72
1448.00,133.71
1447.00,133.71
1446.00,133.70
1445.00,133.69
1444.00,133.68
1443.00,133.67
1442.00,133.66
1441.00,133.65
1440.00,133.63
1439.00,133.62
1438.00,133.61
1437.00,133.60
1436.00,133.61
1435.00,133.61
1434.00,133.60
1433.00,133.60
1432.00,133.60
1431.00,133.60
1430.00,133.60
1429.00,133.60
1428.00,133.60
1427.00,133.59
1426.00,133.60
1425.00,133.60
1424.00,133.60
1423.00,133.61
1422.00,133.60
1421.00,133.60
1420.00,133.59
1419.00,133.60
1418.00,133.62
1417.00,133.65
1416.00,133.67
1415.00,133.68
1414.00,133.69
1413.00,133.69
1412.00,133.70
1411.00,133.70
1410.00,133.70
1409.00,133.71
1408.00,133.71
1407.00,133.71
1406.00,133.71
1405.00,133.72
1404.00,133.72
1403.00,133.72
1402.00,133.71
1401.00,133.70
1400.00,133.70
1399.00,133.70
1398.00,133.70
1397.00,133.70
1396.00,133.70
1395.00,133.70
1394.00,133.70
1393.00,133.70
1392.00,133.68
1391.00,133.67
1390.00,133.66
1389.00,133.66
1388.00,133.66
1387.00,133.66
1386.00,133.66
1385.00,133.65
1384.00,133.64
1383.00,133.63
1382.00,133.62
1381.00,133.62
1380.00,133.62
1379.00,133.62
1378.00,133.62
1377.00,133.62
1376.00,133.61
1375.00,133.61
1374.00,133.61
1373.00,133.62
1372.00,133.62
1371.00,133.62
1370.00,133.63
1369.00,133.63
1368.00,133.64
1367.00,133.64
1366.00,133.64
1365.00,133.64
1364.00,133.65
1363.00,133.66
1362.00,133.68
1361.00,133.69
1360.00,133.70
1359.00,133.70
1358.00,133.70
1357.00,133.70
1356.00,133.70
1355.00,133.70
1354.00,133.71
1353.00,133.72
1352.00,133.72
1351.00,133.72
1350.00,133.72
1349.00,133.71
1348.00,133.71
1347.00,133.71
1346.00,133.71
1345.00,133.71
1344.00,133.70
1343.00,133.69
1342.00,133.68
1341.00,133.67
1340.00,133.67
1339.00,133.67
1338.00,133.67
1337.00,133.67
1336.00,133.66
1335.00,133.65
1334.00,133.64
1333.00,133.64
1332.00,133.63
1331.00,133.62
1330.00,133.62
1329.00,133.61
1328.00,133.61
1327.00,133.60
1326.00,133.61
1325.00,133.61
1324.00,133.61
1323.00,133.61
1322.00,133.61
1321.00,133.61
1320.00,133.61
1319.00,133.61
1318.00,133.62
1317.00,133.63
1316.00,133.64
1315.00,133.64
1314.00,133.65
1313.00,133.66
1312.00,133.66
1311.00,133.67
1310.00,133.68
1309.00,133.69
1308.00,133.70
1307.00,133.70
1306.00,133.71
1305.00,133.71
1304.00,133.72
1303.00,133.72
1302.00,133.73
1301.00,133.73
1300.00,133.73
1299.00,133.73
1298.00,133.73
1297.00,133.73
1296.00,133.72
1295.00,133.72
1294.00,133.71
1293.00,133.70
1292.00,133.70
1291.00,133.69
1290.00,133.69
1289.00,133.68
1288.00,133.67
1287.00,133.66
1286.00,133.66
1285.00,133.65
1284.00,133.64
1283.00,133.63
1282.00,133.63
1281.00,133.62
1280.00,133.61
1279.00,133.61
1278.00,133.60
1277.00,133.60
1276.00,133.59
1275.00,133.59
1274.00,133.59
1273.00,133.58
1272.00,133.58
1271.00,133.58
1270.00,133.58
1269.00,133.58
1268.00,133.58
1267.00,133.58
1266.00,133.59
1265.00,133.59
1264.00,133.60
1263.00,133.60
1262.00,133.61
1261.00,133.61
1260.00,133.62
1259.00,133.62
1258.00,133.63
1257.00,133.64
1256.00,133.65
1255.00,133.66
1254.00,133.66
1253.00,133.67
1252.00,133.67
1251.00,133.68
1250.00,133.68
1249.00,133.69
1248.00,133.69
1247.00,133.69
1246.00,133.69
1245.00,133.70
1244.00,133.69
1243.00,133.69
1242.00,133.69
1241.00,133.69
1240.00,133.69
1239.00,133.68
1238.00,133.68
1237.00,133.67
1236.00,133.67
1235.00,133.66
1234.00,133.65
1233.00,133.64
1232.00,133.63
1231.00,133.63
1230.00,133.62
1229.00,133.61
1228.00,133.61
1227.00,133.60
1226.00,133.59
1225.00,133.58
1224.00,133.57
1223.00,133.57
1222.00,133.57
1221.00,133.56
1220.00,133.56
1219.00,133.56
1218.00,133.56
1217.00,133.55
1216.00,133.55
1215.00,133.56
1214.00,133.56
1213.00,133.56
1212.00,133.57
1211.00,133.57
1210.00,133.58
1209.00,133.58
1208.00,133.58
1207.00,133.59
1206.00,133.59
1205.00,133.60
1204.00,133.61
1203.00,133.62
1202.00,133.62
1201.00,133.63
1200.00,133.63
1199.00,133.63
1198.00,133.64
1197.00,133.64
1196.00,133.65
1195.00,133.66
1194.00,133.66
1193.00,133.66
1192.00,133.66
1191.00,133.66
1190.00,133.66
1189.00,133.65
1188.00,133.65
1187.00,133.65
1186.00,133.65
1185.00,133.64
1184.00,133.64
1183.00,133.63
1182.00,133.62
1181.00,133.62
1180.00,133.61
1179.00,133.60
1178.00,133.59
1177.00,133.58
1176.00,133.57
1175.00,133.57
1174.00,133.56
1173.00,133.55
1172.00,133.55
1171.00,133.54
1170.00,133.54
1169.00,133.53
1168.00,133.53
1167.00,133.53
1166.00,133.53
1165.00,133.53
1164.00,133.52
1163.00,133.52
1162.00,133.52
1161.00,133.52
1160.00,133.52
1159.00,133.53
1158.00,133.53
1157.00,133.54
1156.00,133.54
1155.00,133.54
1154.00,133.54
1153.00,133.55
1152.00,133.56
1151.00,133.56
1150.00,133.57
1149.00,133.57
1148.00,133.58
1147.00,133.59
1146.00,133.59
1145.00,133.59
1144.00,133.60
1143.00,133.60
1142.00,133.60
1141.00,133.61
1140.00,133.61
1139.00,133.61
1138.00,133.61
1137.00,133.61
1136.00,133.61
1135.00,133.60
1134.00,133.60
1133.00,133.60
1132.00,133.60
1131.00,133.59
1130.00,133.58
1129.00,133.57
1128.00,133.57
1127.00,133.57
1126.00,133.56
1125.00,133.56
1124.00,133.55
1123.00,133.55
1122.00,133.54
1121.00,133.53
1120.00,133.53
1119.00,133.53
1118.00,133.52
1117.00,133.52
1116.00,133.51
1115.00,133.50
1114.00,133.50
1113.00,133.50
1112.00,133.50
1111.00,133.50
1110.00,133.50
1109.00,133.50
1108.00,133.50
1107.00,133.50
1106.00,133.50
1105.00,133.51
1104.00,133.51
1103.00,133.51
1102.00,133.52
1101.00,133.52
1100.00,133.53
1099.00,133.53
1098.00,133.54
1097.00,133.54
1096.00,133.54
1095.00,133.54
1094.00,133.54
1093.00,133.54
1092.00,133.55
1091.00,133.55
1090.00,133.55
1089.00,133.55
1088.00,133.55
1087.00,133.55
1086.00,133.55
1085.00,133.55
1084.00,133.54
1083.00,133.54
1082.00,133.53
1081.00,133.53
1080.00,133.52
1079.00,133.51
1078.00,133.50
1077.00,133.49
1076.00,133.48
1075.00,133.48
1074.00,133.47
1073.00,133.46
1072.00,133.45
1071.00,133.44
1070.00,133.44
1069.00,133.43
1068.00,133.42
1067.00,133.41
1066.00,133.40
1065.00,133.40
1064.00,133.40
1063.00,133.40
1062.00,133.39
1061.00,133.39
1060.00,133.38
1059.00,133.38
1058.00,133.38
1057.00,133.39
1056.00,133.39
1055.00,133.40
1054.00,133.40
1053.00,133.40
1052.00,133.40
1051.00,133.40
1050.00,133.40
1049.00,133.41
1048.00,133.42
1047.00,133.44
1046.00,133.45
1045.00,133.46
1044.00,133.47
1043.00,133.48
1042.00,133.48
1041.00,133.48
1040.00,133.49
1039.00,133.49
1038.00,133.51
1037.00,133.52
1036.00,133.54
1035.00,133.55
1034.00,133.55
1033.00,133.55
1032.00,133.55
1031.00,133.55
1030.00,133.55
1029.00,133.55
1028.00,133.56
1027.00,133.56
1026.00,133.55
1025.00,133.55
1024.00,133.55
1023.00,133.55
1022.00,133.55
1021.00,133.56
1020.00,133.56
1019.00,133.56
1018.00,133.56
1017.00,133.55
1016.00,133.55
1015.00,133.54
1014.00,133.54
1013.00,133.54
1012.00,133.54
1011.00,133.54
1010.00,133.55
1009.00,133.55
1008.00,133.55
1007.00,133.55
1006.00,133.55
1005.00,133.55
1004.00,133.56
1003.00,133.57
1002.00,133.58
1001.00,133.59
1000.00,133.59
999.00,133.60
998.00,133.61
997.00,133.61
996.00,133.62
995.00,133.64
994.00,133.65
993.00,133.67
992.00,133.68
991.00,133.69
990.00,133.69
989.00,133.70
988.00,133.70
987.00,133.71
986.00,133.72
985.00,133.73
984.00,133.74
983.00,133.75
982.00,133.76
981.00,133.76
980.00,133.75
979.00,133.75
978.00,133.75
977.00,133.76
976.00,133.76
975.00,133.76
974.00,133.76
973.00,133.76
972.00,133.76
971.00,133.75
970.00,133.75
969.00,133.75
968.00,133.75
967.00,133.75
966.00,133.75
965.00,133.74
964.00,133.74
963.00,133.73
962.00,133.73
961.00,133.72
960.00,133.72
959.00,133.72
958.00,133.72
957.00,133.73
956.00,133.73
955.00,133.73
954.00,133.72
953.00,133.72
952.00,133.73
951.00,133.74
950.00,133.75
949.00,133.76
948.00,133.77
947.00,133.78
946.00,133.78
945.00,133.79
944.00,133.79
943.00,133.79
942.00,133.80
941.00,133.82
940.00,133.83
939.00,133.84
938.00,133.84
937.00,133.85
936.00,133.85
935.00,133.86
934.00,133.87
933.00,133.87
932.00,133.88
931.00,133.89
930.00,133.90
929.00,133.90
928.00,133.90
927.00,133.90
926.00,133.90
925.00,133.91
924.00,133.91
923.00,133.91
922.00,133.91
921.00,133.92
920.00,133.91
919.00,133.91
918.00,133.90
917.00,133.89
916.00,133.89
915.00,133.89
914.00,133.89
913.00,133.89
912.00,133.88
911.00,133.87
910.00,133.86
909.00,133.86
908.00,133.86
907.00,133.86
906.00,133.87
905.00,133.87
904.00,133.87
903.00,133.87
902.00,133.87
901.00,133.87
900.00,133.88
899.00,133.88
898.00,133.89
897.00,133.89
896.00,133.90
895.00,133.90
894.00,133.91
893.00,133.92
892.00,133.92
891.00,133.93
890.00,133.94
889.00,133.95
888.00,133.97
887.00,133.99
886.00,134.00
885.00,134.00
884.00,134.00
883.00,134.01
882.00,134.01
881.00,134.02
880.00,134.03
879.00,134.03
878.00,134.04
877.00,134.05
876.00,134.05
875.00,134.05
874.00,134.05
873.00,134.05
872.00,134.05
871.00,134.05
870.00,134.06
869.00,134.06
868.00,134.06
867.00,134.05
866.00,134.05
865.00,134.04
864.00,134.04
863.00,134.03
862.00,134.02
861.00,134.02
860.00,134.02
859.00,134.02
858.00,134.02
857.00,134.02
856.00,134.01
855.00,134.01
854.00,134.01
853.00,134.01
852.00,134.01
851.00,134.02
850.00,134.02
849.00,134.01
848.00,134.01
847.00,134.01
846.00,134.02
845.00,134.02
844.00,134.03
843.00,134.03
842.00,134.04
841.00,134.04
840.00,134.05
839.00,134.05
838.00,134.06
837.00,134.06
836.00,134.07
835.00,134.07
834.00,134.08
833.00,134.09
832.00,134.09
831.00,134.09
830.00,134.09
829.00,134.09
828.00,134.10
827.00,134.10
826.00,134.11
825.00,134.11
824.00,134.12
823.00,134.12
822.00,134.12
821.00,134.12
820.00,134.12
819.00,134.12
818.00,134.12
817.00,134.11
816.00,134.10
815.00,134.10
814.00,134.09
813.00,134.09
812.00,134.08
811.00,134.07
810.00,134.07
809.00,134.06
808.00,134.06
807.00,134.06
806.00,134.06
805.00,134.06
804.00,134.06
803.00,134.06
802.00,134.06
801.00,134.06
800.00,134.06
799.00,134.06
798.00,134.06
797.00,134.06
796.00,134.05
795.00,134.05
794.00,134.05
793.00,134.05
792.00,134.06
791.00,134.07
790.00,134.07
789.00,134.08
788.00,134.08
787.00,134.08
786.00,134.08
785.00,134.09
784.00,134.10
783.00,134.10
782.00,134.10
781.00,134.11
780.00,134.12
779.00,134.12
778.00,134.13
777.00,134.13
776.00,134.13
775.00,134.13
774.00,134.13
773.00,134.14
772.00,134.14
771.00,134.14
770.00,134.14
769.00,134.14
768.00,134.14
767.00,134.14
766.00,134.13
765.00,134.13
764.00,134.13
763.00,134.13
762.00,134.12
761.00,134.11
760.00,134.11
759.00,134.11
758.00,134.11
757.00,134.11
756.00,134.10
755.00,134.09
754.00,134.08
753.00,134.08
752.00,134.07
751.00,134.07
750.00,134.07
749.00,134.06
748.00,134.05
747.00,134.04
746.00,134.04
745.00,134.04
744.00,134.05
743.00,134.05
742.00,134.05
741.00,134.04
740.00,134.04
739.00,134.05
738.00,134.06
737.00,134.06
736.00,134.06
735.00,134.07
734.00,134.07
733.00,134.08
732.00,134.09
731.00,134.10
730.00,134.11
729.00,134.11
728.00,134.11
727.00,134.10
726.00,134.10
725.00,134.10
724.00,134.11
723.00,134.12
722.00,134.13
721.00,134.14
720.00,134.14
719.00,134.14
718.00,134.15
717.00,134.14
716.00,134.14
715.00,134.13
714.00,134.13
713.00,134.12
712.00,134.11
711.00,134.11
710.00,134.11
709.00,134.10
708.00,134.09
707.00,134.09
706.00,134.09
705.00,134.10
704.00,134.10
703.00,134.09
702.00,134.08
701.00,134.07
700.00,134.05
699.00,134.05
698.00,134.05
697.00,134.05
696.00,134.06
695.00,134.05
694.00,134.05
693.00,134.04
692.00,134.03
691.00,134.03
690.00,134.04
689.00,134.04
688.00,134.03
687.00,134.03
686.00,134.03
685.00,134.04
684.00,134.04
683.00,134.04
682.00,134.04
681.00,134.04
680.00,134.05
679.00,134.05
678.00,134.06
677.00,134.07
676.00,134.07
675.00,134.08
674.00,134.08
673.00,134.08
672.00,134.09
671.00,134.11
670.00,134.14
669.00,134.16
668.00,134.14
667.00,134.10
666.00,134.08
665.00,134.08
664.00,134.08
663.00,134.08
662.00,134.08
661.00,134.08
660.00,134.08
659.00,134.07
658.00,134.07
657.00,134.07
656.00,134.07
655.00,134.06
654.00,134.05
653.00,134.05
652.00,134.05
651.00,134.04
650.00,134.04
649.00,134.03
648.00,134.02
647.00,134.00
646.00,134.00
645.00,134.00
644.00,134.00
643.00,134.01
642.00,134.01
641.00,134.00
640.00,133.99
639.00,133.98
638.00,133.98
637.00,133.99
636.00,134.00
635.00,134.01
634.00,134.01
633.00,134.01
632.00,134.01
631.00,134.01
630.00,134.01
629.00,134.02
628.00,134.02
627.00,134.02
626.00,134.03
625.00,134.03
624.00,134.03
623.00,134.03
622.00,134.03
621.00,134.02
620.00,134.02
619.00,134.02
618.00,134.03
617.00,134.05
616.00,134.06
615.00,134.06
614.00,134.05
613.00,134.04
612.00,134.03
611.00,134.02
610.00,134.03
609.00,134.03
608.00,134.03
607.00,134.02
606.00,134.02
605.00,134.02
604.00,134.02
603.00,134.01
602.00,134.00
601.00,133.99
600.00,133.98
599.00,133.98
598.00,133.99
597.00,133.99
596.00,134.00
595.00,134.00
594.00,133.99
593.00,133.97
592.00,133.95
591.00,133.95
590.00,133.96
589.00,133.96
588.00,133.96
587.00,133.94
586.00,133.93
585.00,133.93
584.00,133.93
583.00,133.94
582.00,133.95
581.00,133.94
580.00,133.93
579.00,133.93
578.00,133.93
577.00,133.92
576.00,133.92
575.00,133.91
574.00,133.92
573.00,133.92
572.00,133.93
571.00,133.93
570.00,133.93
569.00,133.93
568.00,133.92
567.00,133.91
566.00,133.90
565.00,133.90
564.00,133.90
563.00,133.91
562.00,133.90
561.00,133.89
560.00,133.87
559.00,133.87
558.00,133.88
557.00,133.88
556.00,133.88
555.00,133.87
554.00,133.86
553.00,133.86
552.00,133.85
551.00,133.86
550.00,133.87
549.00,133.87
548.00,133.87
547.00,133.85
546.00,133.85
545.00,133.85
544.00,133.85
543.00,133.85
542.00,133.84
541.00,133.83
540.00,133.82
539.00,133.83
538.00,133.84
537.00,133.84
536.00,133.85
535.00,133.84
534.00,133.84
533.00,133.83
532.00,133.84
531.00,133.86
530.00,133.88
529.00,133.89
528.00,133.89
527.00,133.89
526.00,133.90
525.00,133.92
524.00,133.94
523.00,133.97
522.00,133.99
521.00,134.00
520.00,134.00
519.00,134.00
518.00,134.01
517.00,134.02
516.00,134.02
515.00,134.02
514.00,134.03
513.00,134.04
512.00,134.07
511.00,134.09
510.00,134.11
509.00,134.12
508.00,134.12
507.00,134.12
506.00,134.12
505.00,134.13
504.00,134.13
503.00,134.13
502.00,134.14
501.00,134.14
500.00,134.14
