Created as New Dataset,Sample 357 By Analyst Date Wednesday, February 05 2025
cm-1,%T
4000.00,128.99
3999.00,128.99
3998.00,128.98
3997.00,128.98
3996.00,128.97
3995.00,128.97
3994.00,128.96
3993.00,128.96
3992.00,128.95
3991.00,128.94
3990.00,128.94
3989.00,128.93
3988.00,128.92
3987.00,128.91
3986.00,128.90
3985.00,128.89
3984.00,128.87
3983.00,128.86
3982.00,128.85
3981.00,128.84
3980.00,128.83
3979.00,128.82
3978.00,128.81
3977.00,128.80
3976.00,128.79
3975.00,128.78
3974.00,128.77
3973.00,128.76
3972.00,128.75
3971.00,128.74
3970.00,128.73
3969.00,128.72
3968.00,128.72
3967.00,128.71
3966.00,128.71
3965.00,128.70
3964.00,128.70
3963.00,128.70
3962.00,128.70
3961.00,128.70
3960.00,128.70
3959.00,128.70
3958.00,128.70
3957.00,128.70
3956.00,128.71
3955.00,128.71
3954.00,128.71
3953.00,128.71
3952.00,128.72
3951.00,128.72
3950.00,128.72
3949.00,128.73
3948.00,128.74
3947.00,128.74
3946.00,128.74
3945.00,128.74
3944.00,128.74
3943.00,128.74
3942.00,128.74
3941.00,128.73
3940.00,128.72
3939.00,128.72
3938.00,128.72
3937.00,128.72
3936.00,128.71
3935.00,128.70
3934.00,128.69
3933.00,128.69
3932.00,128.68
3931.00,128.67
3930.00,128.67
3929.00,128.66
3928.00,128.65
3927.00,128.64
3926.00,128.63
3925.00,128.63
3924.00,128.62
3923.00,128.61
3922.00,128.60
3921.00,128.59
3920.00,128.59
3919.00,128.59
3918.00,128.58
3917.00,128.57
3916.00,128.56
3915.00,128.56
3914.00,128.54
3913.00,128.54
3912.00,128.53
3911.00,128.53
3910.00,128.53
3909.00,128.53
3908.00,128.53
3907.00,128.54
3906.00,128.55
3905.00,128.57
3904.00,128.59
3903.00,128.61
3902.00,128.61
3901.00,128.61
3900.00,128.61
3899.00,128.62
3898.00,128.61
3897.00,128.61
3896.00,128.60
3895.00,128.60
3894.00,128.59
3893.00,128.59
3892.00,128.59
3891.00,128.60
3890.00,128.60
3889.00,128.60
3888.00,128.59
3887.00,128.59
3886.00,128.61
3885.00,128.62
3884.00,128.61
3883.00,128.59
3882.00,128.58
3881.00,128.58
3880.00,128.60
3879.00,128.59
3878.00,128.57
3877.00,128.55
3876.00,128.55
3875.00,128.56
3874.00,128.57
3873.00,128.56
3872.00,128.54
3871.00,128.53
3870.00,128.54
3869.00,128.56
3868.00,128.55
3867.00,128.52
3866.00,128.51
3865.00,128.53
3864.00,128.53
3863.00,128.51
3862.00,128.48
3861.00,128.47
3860.00,128.48
3859.00,128.48
3858.00,128.48
3857.00,128.48
3856.00,128.48
3855.00,128.48
3854.00,128.50
3853.00,128.53
3852.00,128.53
3851.00,128.51
3850.00,128.50
3849.00,128.50
3848.00,128.50
3847.00,128.49
3846.00,128.47
3845.00,128.46
3844.00,128.46
3843.00,128.47
3842.00,128.48
3841.00,128.47
3840.00,128.47
3839.00,128.48
3838.00,128.49
3837.00,128.49
3836.00,128.49
3835.00,128.48
3834.00,128.47
3833.00,128.47
3832.00,128.46
3831.00,128.44
3830.00,128.42
3829.00,128.40
3828.00,128.38
3827.00,128.38
3826.00,128.39
3825.00,128.38
3824.00,128.36
3823.00,128.34
3822.00,128.35
3821.00,128.37
3820.00,128.38
3819.00,128.35
3818.00,128.31
3817.00,128.30
3816.00,128.31
3815.00,128.30
3814.00,128.26
3813.00,128.22
3812.00,128.22
3811.00,128.23
3810.00,128.23
3809.00,128.20
3808.00,128.19
3807.00,128.20
3806.00,128.22
3805.00,128.22
3804.00,128.20
3803.00,128.19
3802.00,128.21
3801.00,128.24
3800.00,128.23
3799.00,128.20
3798.00,128.19
3797.00,128.20
3796.00,128.21
3795.00,128.19
3794.00,128.17
3793.00,128.14
3792.00,128.14
3791.00,128.14
3790.00,128.14
3789.00,128.14
3788.00,128.14
3787.00,128.14
3786.00,128.15
3785.00,128.16
3784.00,128.17
3783.00,128.17
3782.00,128.17
3781.00,128.17
3780.00,128.17
3779.00,128.18
3778.00,128.18
3777.00,128.17
3776.00,128.16
3775.00,128.17
3774.00,128.18
3773.00,128.17
3772.00,128.17
3771.00,128.16
3770.00,128.18
3769.00,128.18
3768.00,128.18
3767.00,128.17
3766.00,128.17
3765.00,128.18
3764.00,128.18
3763.00,128.17
3762.00,128.15
3761.00,128.15
3760.00,128.15
3759.00,128.15
3758.00,128.14
3757.00,128.14
3756.00,128.15
3755.00,128.15
3754.00,128.14
3753.00,128.15
3752.00,128.15
3751.00,128.15
3750.00,128.16
3749.00,128.18
3748.00,128.18
3747.00,128.15
3746.00,128.12
3745.00,128.12
3744.00,128.13
3743.00,128.11
3742.00,128.06
3741.00,128.04
3740.00,128.05
3739.00,128.05
3738.00,128.03
3737.00,128.01
3736.00,128.01
3735.00,128.01
3734.00,127.99
3733.00,127.98
3732.00,127.97
3731.00,127.96
3730.00,127.94
3729.00,127.91
3728.00,127.88
3727.00,127.88
3726.00,127.87
3725.00,127.86
3724.00,127.84
3723.00,127.83
3722.00,127.83
3721.00,127.83
3720.00,127.82
3719.00,127.81
3718.00,127.81
3717.00,127.82
3716.00,127.82
3715.00,127.82
3714.00,127.83
3713.00,127.85
3712.00,127.86
3711.00,127.87
3710.00,127.88
3709.00,127.88
3708.00,127.89
3707.00,127.90
3706.00,127.91
3705.00,127.91
3704.00,127.92
3703.00,127.93
3702.00,127.95
3701.00,127.97
3700.00,128.00
3699.00,128.02
3698.00,128.04
3697.00,128.08
3696.00,128.12
3695.00,128.16
3694.00,128.20
3693.00,128.24
3692.00,128.28
3691.00,128.32
3690.00,128.35
3689.00,128.39
3688.00,128.42
3687.00,128.45
3686.00,128.46
3685.00,128.47
3684.00,128.49
3683.00,128.50
3682.00,128.51
3681.00,128.52
3680.00,128.53
3679.00,128.56
3678.00,128.57
3677.00,128.58
3676.00,128.61
3675.00,128.64
3674.00,128.65
3673.00,128.63
3672.00,128.62
3671.00,128.62
3670.00,128.63
3669.00,128.60
3668.00,128.56
3667.00,128.52
3666.00,128.50
3665.00,128.49
3664.00,128.47
3663.00,128.44
3662.00,128.41
3661.00,128.40
3660.00,128.39
3659.00,128.37
3658.00,128.36
3657.00,128.35
3656.00,128.36
3655.00,128.36
3654.00,128.35
3653.00,128.34
3652.00,128.33
3651.00,128.34
3650.00,128.34
3649.00,128.33
3648.00,128.31
3647.00,128.29
3646.00,128.28
3645.00,128.26
3644.00,128.23
3643.00,128.21
3642.00,128.19
3641.00,128.17
3640.00,128.16
3639.00,128.15
3638.00,128.15
3637.00,128.16
3636.00,128.16
3635.00,128.17
3634.00,128.19
3633.00,128.21
3632.00,128.23
3631.00,128.23
3630.00,128.25
3629.00,128.28
3628.00,128.30
3627.00,128.30
3626.00,128.29
3625.00,128.30
3624.00,128.32
3623.00,128.33
3622.00,128.32
3621.00,128.32
3620.00,128.32
3619.00,128.34
3618.00,128.35
3617.00,128.35
3616.00,128.35
3615.00,128.35
3614.00,128.36
3613.00,128.36
3612.00,128.35
3611.00,128.34
3610.00,128.33
3609.00,128.32
3608.00,128.32
3607.00,128.30
3606.00,128.29
3605.00,128.28
3604.00,128.27
3603.00,128.27
3602.00,128.26
3601.00,128.25
3600.00,128.25
3599.00,128.25
3598.00,128.25
3597.00,128.25
3596.00,128.26
3595.00,128.26
3594.00,128.27
3593.00,128.27
3592.00,128.28
3591.00,128.29
3590.00,128.30
3589.00,128.31
3588.00,128.31
3587.00,128.32
3586.00,128.32
3585.00,128.33
3584.00,128.33
3583.00,128.34
3582.00,128.35
3581.00,128.35
3580.00,128.35
3579.00,128.36
3578.00,128.37
3577.00,128.38
3576.00,128.39
3575.00,128.40
3574.00,128.41
3573.00,128.43
3572.00,128.44
3571.00,128.46
3570.00,128.47
3569.00,128.49
3568.00,128.51
3567.00,128.52
3566.00,128.53
3565.00,128.54
3564.00,128.54
3563.00,128.54
3562.00,128.54
3561.00,128.54
3560.00,128.53
3559.00,128.53
3558.00,128.53
3557.00,128.53
3556.00,128.53
3555.00,128.53
3554.00,128.53
3553.00,128.53
3552.00,128.53
3551.00,128.54
3550.00,128.54
3549.00,128.53
3548.00,128.53
3547.00,128.53
3546.00,128.52
3545.00,128.52
3544.00,128.51
3543.00,128.51
3542.00,128.51
3541.00,128.51
3540.00,128.51
3539.00,128.51
3538.00,128.50
3537.00,128.50
3536.00,128.50
3535.00,128.51
3534.00,128.51
3533.00,128.52
3532.00,128.52
3531.00,128.53
3530.00,128.53
3529.00,128.54
3528.00,128.54
3527.00,128.54
3526.00,128.54
3525.00,128.54
3524.00,128.54
3523.00,128.55
3522.00,128.55
3521.00,128.54
3520.00,128.54
3519.00,128.54
3518.00,128.54
3517.00,128.53
3516.00,128.52
3515.00,128.52
3514.00,128.52
3513.00,128.51
3512.00,128.51
3511.00,128.51
3510.00,128.50
3509.00,128.50
3508.00,128.49
3507.00,128.49
3506.00,128.48
3505.00,128.48
3504.00,128.47
3503.00,128.46
3502.00,128.46
3501.00,128.45
3500.00,128.45
3499.00,128.44
3498.00,128.44
3497.00,128.43
3496.00,128.43
3495.00,128.43
3494.00,128.44
3493.00,128.44
3492.00,128.44
3491.00,128.44
3490.00,128.45
3489.00,128.45
3488.00,128.46
3487.00,128.47
3486.00,128.48
3485.00,128.49
3484.00,128.50
3483.00,128.51
3482.00,128.51
3481.00,128.52
3480.00,128.54
3479.00,128.55
3478.00,128.57
3477.00,128.58
3476.00,128.60
3475.00,128.61
3474.00,128.62
3473.00,128.64
3472.00,128.65
3471.00,128.66
3470.00,128.67
3469.00,128.68
3468.00,128.70
3467.00,128.72
3466.00,128.73
3465.00,128.75
3464.00,128.76
3463.00,128.77
3462.00,128.78
3461.00,128.79
3460.00,128.81
3459.00,128.82
3458.00,128.83
3457.00,128.83
3456.00,128.84
3455.00,128.84
3454.00,128.85
3453.00,128.85
3452.00,128.86
3451.00,128.87
3450.00,128.88
3449.00,128.88
3448.00,128.89
3447.00,128.90
3446.00,128.90
3445.00,128.91
3444.00,128.92
3443.00,128.92
3442.00,128.93
3441.00,128.93
3440.00,128.94
3439.00,128.94
3438.00,128.94
3437.00,128.94
3436.00,128.95
3435.00,128.96
3434.00,128.96
3433.00,128.97
3432.00,128.97
3431.00,128.97
3430.00,128.98
3429.00,128.98
3428.00,128.98
3427.00,128.99
3426.00,128.99
3425.00,128.99
3424.00,128.99
3423.00,128.99
3422.00,128.98
3421.00,128.98
3420.00,128.97
3419.00,128.96
3418.00,128.95
3417.00,128.94
3416.00,128.92
3415.00,128.91
3414.00,128.89
3413.00,128.87
3412.00,128.85
3411.00,128.84
3410.00,128.82
3409.00,128.80
3408.00,128.77
3407.00,128.75
3406.00,128.73
3405.00,128.70
3404.00,128.67
3403.00,128.64
3402.00,128.61
3401.00,128.59
3400.00,128.57
3399.00,128.55
3398.00,128.53
3397.00,128.51
3396.00,128.49
3395.00,128.47
3394.00,128.44
3393.00,128.42
3392.00,128.41
3391.00,128.39
3390.00,128.38
3389.00,128.37
3388.00,128.35
3387.00,128.34
3386.00,128.33
3385.00,128.32
3384.00,128.31
3383.00,128.31
3382.00,128.30
3381.00,128.29
3380.00,128.28
3379.00,128.28
3378.00,128.28
3377.00,128.27
3376.00,128.28
3375.00,128.28
3374.00,128.28
3373.00,128.27
3372.00,128.27
3371.00,128.26
3370.00,128.26
3369.00,128.26
3368.00,128.26
3367.00,128.27
3366.00,128.27
3365.00,128.27
3364.00,128.28
3363.00,128.28
3362.00,128.28
3361.00,128.28
3360.00,128.28
3359.00,128.28
3358.00,128.28
3357.00,128.28
3356.00,128.28
3355.00,128.27
3354.00,128.27
3353.00,128.26
3352.00,128.26
3351.00,128.26
3350.00,128.26
3349.00,128.26
3348.00,128.26
3347.00,128.26
3346.00,128.26
3345.00,128.25
3344.00,128.25
3343.00,128.25
3342.00,128.25
3341.00,128.25
3340.00,128.25
3339.00,128.25
3338.00,128.25
3337.00,128.26
3336.00,128.26
3335.00,128.27
3334.00,128.28
3333.00,128.28
3332.00,128.29
3331.00,128.30
3330.00,128.30
3329.00,128.31
3328.00,128.31
3327.00,128.32
3326.00,128.33
3325.00,128.34
3324.00,128.35
3323.00,128.37
3322.00,128.38
3321.00,128.39
3320.00,128.41
3319.00,128.42
3318.00,128.44
3317.00,128.45
3316.00,128.47
3315.00,128.49
3314.00,128.51
3313.00,128.53
3312.00,128.55
3311.00,128.58
3310.00,128.61
3309.00,128.64
3308.00,128.67
3307.00,128.70
3306.00,128.72
3305.00,128.75
3304.00,128.78
3303.00,128.79
3302.00,128.80
3301.00,128.79
3300.00,128.78
3299.00,128.75
3298.00,128.72
3297.00,128.69
3296.00,128.66
3295.00,128.62
3294.00,128.58
3293.00,128.55
3292.00,128.51
3291.00,128.48
3290.00,128.45
3289.00,128.42
3288.00,128.39
3287.00,128.36
3286.00,128.33
3285.00,128.31
3284.00,128.29
3283.00,128.27
3282.00,128.25
3281.00,128.23
3280.00,128.21
3279.00,128.20
3278.00,128.18
3277.00,128.17
3276.00,128.16
3275.00,128.15
3274.00,128.14
3273.00,128.12
3272.00,128.11
3271.00,128.11
3270.00,128.10
3269.00,128.10
3268.00,128.10
3267.00,128.10
3266.00,128.10
3265.00,128.10
3264.00,128.10
3263.00,128.10
3262.00,128.11
3261.00,128.11
3260.00,128.11
3259.00,128.11
3258.00,128.11
3257.00,128.12
3256.00,128.12
3255.00,128.13
3254.00,128.13
3253.00,128.13
3252.00,128.13
3251.00,128.13
3250.00,128.13
3249.00,128.13
3248.00,128.13
3247.00,128.13
3246.00,128.13
3245.00,128.14
3244.00,128.14
3243.00,128.14
3242.00,128.14
3241.00,128.14
3240.00,128.14
3239.00,128.13
3238.00,128.13
3237.00,128.13
3236.00,128.13
3235.00,128.13
3234.00,128.13
3233.00,128.13
3232.00,128.13
3231.00,128.14
3230.00,128.14
3229.00,128.15
3228.00,128.15
3227.00,128.16
3226.00,128.16
3225.00,128.17
3224.00,128.18
3223.00,128.19
3222.00,128.20
3221.00,128.21
3220.00,128.22
3219.00,128.23
3218.00,128.24
3217.00,128.26
3216.00,128.27
3215.00,128.28
3214.00,128.29
3213.00,128.31
3212.00,128.32
3211.00,128.33
3210.00,128.34
3209.00,128.35
3208.00,128.36
3207.00,128.38
3206.00,128.39
3205.00,128.40
3204.00,128.41
3203.00,128.42
3202.00,128.43
3201.00,128.44
3200.00,128.44
3199.00,128.44
3198.00,128.45
3197.00,128.45
3196.00,128.45
3195.00,128.45
3194.00,128.45
3193.00,128.45
3192.00,128.44
3191.00,128.44
3190.00,128.44
3189.00,128.43
3188.00,128.43
3187.00,128.43
3186.00,128.43
3185.00,128.43
3184.00,128.43
3183.00,128.43
3182.00,128.43
3181.00,128.44
3180.00,128.44
3179.00,128.44
3178.00,128.43
3177.00,128.42
3176.00,128.42
3175.00,128.41
3174.00,128.40
3173.00,128.40
3172.00,128.39
3171.00,128.39
3170.00,128.39
3169.00,128.39
3168.00,128.39
3167.00,128.40
3166.00,128.40
3165.00,128.41
3164.00,128.41
3163.00,128.42
3162.00,128.43
3161.00,128.44
3160.00,128.45
3159.00,128.45
3158.00,128.46
3157.00,128.46
3156.00,128.46
3155.00,128.47
3154.00,128.47
3153.00,128.47
3152.00,128.47
3151.00,128.47
3150.00,128.47
3149.00,128.47
3148.00,128.47
3147.00,128.47
3146.00,128.46
3145.00,128.46
3144.00,128.46
3143.00,128.46
3142.00,128.46
3141.00,128.45
3140.00,128.45
3139.00,128.45
3138.00,128.45
3137.00,128.45
3136.00,128.46
3135.00,128.46
3134.00,128.46
3133.00,128.46
3132.00,128.46
3131.00,128.45
3130.00,128.45
3129.00,128.46
3128.00,128.46
3127.00,128.46
3126.00,128.47
3125.00,128.47
3124.00,128.47
3123.00,128.48
3122.00,128.48
3121.00,128.48
3120.00,128.49
3119.00,128.50
3118.00,128.51
3117.00,128.52
3116.00,128.53
3115.00,128.55
3114.00,128.57
3113.00,128.58
3112.00,128.60
3111.00,128.62
3110.00,128.63
3109.00,128.65
3108.00,128.67
3107.00,128.69
3106.00,128.71
3105.00,128.73
3104.00,128.74
3103.00,128.75
3102.00,128.76
3101.00,128.77
3100.00,128.77
3099.00,128.78
3098.00,128.78
3097.00,128.79
3096.00,128.79
3095.00,128.80
3094.00,128.80
3093.00,128.81
3092.00,128.81
3091.00,128.82
3090.00,128.83
3089.00,128.84
3088.00,128.85
3087.00,128.86
3086.00,128.87
3085.00,128.88
3084.00,128.89
3083.00,128.90
3082.00,128.91
3081.00,128.92
3080.00,128.92
3079.00,128.93
3078.00,128.93
3077.00,128.94
3076.00,128.94
3075.00,128.94
3074.00,128.94
3073.00,128.94
3072.00,128.94
3071.00,128.94
3070.00,128.94
3069.00,128.93
3068.00,128.93
3067.00,128.93
3066.00,128.93
3065.00,128.93
3064.00,128.94
3063.00,128.94
3062.00,128.94
3061.00,128.94
3060.00,128.94
3059.00,128.94
3058.00,128.95
3057.00,128.95
3056.00,128.95
3055.00,128.95
3054.00,128.95
3053.00,128.95
3052.00,128.95
3051.00,128.96
3050.00,128.96
3049.00,128.96
3048.00,128.97
3047.00,128.97
3046.00,128.97
3045.00,128.97
3044.00,128.98
3043.00,128.98
3042.00,128.98
3041.00,128.99
3040.00,128.99
3039.00,128.99
3038.00,128.99
3037.00,128.99
3036.00,128.99
3035.00,128.99
3034.00,128.98
3033.00,128.98
3032.00,128.98
3031.00,128.97
3030.00,128.97
3029.00,128.97
3028.00,128.96
3027.00,128.96
3026.00,128.95
3025.00,128.95
3024.00,128.94
3023.00,128.94
3022.00,128.93
3021.00,128.93
3020.00,128.93
3019.00,128.92
3018.00,128.92
3017.00,128.92
3016.00,128.92
3015.00,128.91
3014.00,128.92
3013.00,128.92
3012.00,128.92
3011.00,128.92
3010.00,128.93
3009.00,128.93
3008.00,128.93
3007.00,128.94
3006.00,128.93
3005.00,128.94
3004.00,128.94
3003.00,128.94
3002.00,128.94
3001.00,128.95
3000.00,128.95
2999.00,128.95
2998.00,128.95
2997.00,128.96
2996.00,128.96
2995.00,128.96
2994.00,128.96
2993.00,128.96
2992.00,128.97
2991.00,128.97
2990.00,128.97
2989.00,128.97
2988.00,128.97
2987.00,128.97
2986.00,128.97
2985.00,128.98
2984.00,128.97
2983.00,128.97
2982.00,128.97
2981.00,128.96
2980.00,128.96
2979.00,128.95
2978.00,128.95
2977.00,128.94
2976.00,128.94
2975.00,128.93
2974.00,128.93
2973.00,128.92
2972.00,128.92
2971.00,128.92
2970.00,128.91
2969.00,128.91
2968.00,128.90
2967.00,128.90
2966.00,128.90
2965.00,128.90
2964.00,128.90
2963.00,128.90
2962.00,128.90
2961.00,128.90
2960.00,128.90
2959.00,128.90
2958.00,128.91
2957.00,128.91
2956.00,128.91
2955.00,128.91
2954.00,128.91
2953.00,128.92
2952.00,128.92
2951.00,128.93
2950.00,128.93
2949.00,128.94
2948.00,128.94
2947.00,128.94
2946.00,128.95
2945.00,128.95
2944.00,128.95
2943.00,128.96
2942.00,128.96
2941.00,128.97
2940.00,128.97
2939.00,128.98
2938.00,128.98
2937.00,128.98
2936.00,128.98
2935.00,128.98
2934.00,128.98
2933.00,128.98
2932.00,128.98
2931.00,128.98
2930.00,128.98
2929.00,128.97
2928.00,128.97
2927.00,128.97
2926.00,128.97
2925.00,128.97
2924.00,128.97
2923.00,128.97
2922.00,128.96
2921.00,128.96
2920.00,128.96
2919.00,128.95
2918.00,128.94
2917.00,128.93
2916.00,128.92
2915.00,128.92
2914.00,128.91
2913.00,128.90
2912.00,128.90
2911.00,128.89
2910.00,128.88
2909.00,128.88
2908.00,128.88
2907.00,128.88
2906.00,128.88
2905.00,128.88
2904.00,128.88
2903.00,128.88
2902.00,128.88
2901.00,128.88
2900.00,128.89
2899.00,128.89
2898.00,128.90
2897.00,128.91
2896.00,128.91
2895.00,128.92
2894.00,128.92
2893.00,128.93
2892.00,128.94
2891.00,128.94
2890.00,128.94
2889.00,128.95
2888.00,128.95
2887.00,128.95
2886.00,128.95
2885.00,128.95
2884.00,128.95
2883.00,128.95
2882.00,128.95
2881.00,128.95
2880.00,128.94
2879.00,128.94
2878.00,128.94
2877.00,128.93
2876.00,128.93
2875.00,128.92
2874.00,128.92
2873.00,128.91
2872.00,128.91
2871.00,128.90
2870.00,128.90
2869.00,128.89
2868.00,128.89
2867.00,128.88
2866.00,128.88
2865.00,128.87
2864.00,128.87
2863.00,128.87
2862.00,128.86
2861.00,128.86
2860.00,128.86
2859.00,128.86
2858.00,128.87
2857.00,128.87
2856.00,128.87
2855.00,128.88
2854.00,128.88
2853.00,128.89
2852.00,128.89
2851.00,128.90
2850.00,128.90
2849.00,128.90
2848.00,128.91
2847.00,128.91
2846.00,128.91
2845.00,128.91
2844.00,128.91
2843.00,128.91
2842.00,128.91
2841.00,128.91
2840.00,128.91
2839.00,128.92
2838.00,128.92
2837.00,128.92
2836.00,128.92
2835.00,128.93
2834.00,128.93
2833.00,128.93
2832.00,128.92
2831.00,128.92
2830.00,128.92
2829.00,128.92
2828.00,128.92
2827.00,128.91
2826.00,128.91
2825.00,128.90
2824.00,128.90
2823.00,128.89
2822.00,128.88
2821.00,128.87
2820.00,128.87
2819.00,128.86
2818.00,128.85
2817.00,128.84
2816.00,128.84
2815.00,128.83
2814.00,128.82
2813.00,128.82
2812.00,128.81
2811.00,128.81
2810.00,128.80
2809.00,128.80
2808.00,128.80
2807.00,128.80
2806.00,128.80
2805.00,128.80
2804.00,128.80
2803.00,128.80
2802.00,128.80
2801.00,128.80
2800.00,128.80
2799.00,128.80
2798.00,128.81
2797.00,128.81
2796.00,128.81
2795.00,128.82
2794.00,128.82
2793.00,128.82
2792.00,128.82
2791.00,128.82
2790.00,128.82
2789.00,128.82
2788.00,128.82
2787.00,128.83
2786.00,128.82
2785.00,128.82
2784.00,128.82
2783.00,128.82
2782.00,128.82
2781.00,128.82
2780.00,128.81
2779.00,128.81
2778.00,128.80
2777.00,128.80
2776.00,128.79
2775.00,128.79
2774.00,128.78
2773.00,128.78
2772.00,128.77
2771.00,128.77
2770.00,128.76
2769.00,128.75
2768.00,128.75
2767.00,128.74
2766.00,128.73
2765.00,128.73
2764.00,128.72
2763.00,128.72
2762.00,128.71
2761.00,128.71
2760.00,128.70
2759.00,128.70
2758.00,128.69
2757.00,128.69
2756.00,128.69
2755.00,128.69
2754.00,128.69
2753.00,128.69
2752.00,128.69
2751.00,128.69
2750.00,128.69
2749.00,128.69
2748.00,128.69
2747.00,128.70
2746.00,128.70
2745.00,128.71
2744.00,128.72
2743.00,128.72
2742.00,128.73
2741.00,128.73
2740.00,128.74
2739.00,128.75
2738.00,128.75
2737.00,128.76
2736.00,128.76
2735.00,128.76
2734.00,128.77
2733.00,128.77
2732.00,128.77
2731.00,128.77
2730.00,128.76
2729.00,128.76
2728.00,128.75
2727.00,128.74
2726.00,128.73
2725.00,128.72
2724.00,128.71
2723.00,128.70
2722.00,128.69
2721.00,128.68
2720.00,128.67
2719.00,128.66
2718.00,128.65
2717.00,128.64
2716.00,128.63
2715.00,128.62
2714.00,128.61
2713.00,128.59
2712.00,128.58
2711.00,128.57
2710.00,128.56
2709.00,128.55
2708.00,128.54
2707.00,128.53
2706.00,128.52
2705.00,128.52
2704.00,128.51
2703.00,128.50
2702.00,128.50
2701.00,128.49
2700.00,128.49
2699.00,128.48
2698.00,128.48
2697.00,128.48
2696.00,128.48
2695.00,128.48
2694.00,128.49
2693.00,128.49
2692.00,128.49
2691.00,128.49
2690.00,128.50
2689.00,128.50
2688.00,128.51
2687.00,128.51
2686.00,128.52
2685.00,128.53
2684.00,128.54
2683.00,128.54
2682.00,128.55
2681.00,128.56
2680.00,128.57
2679.00,128.58
2678.00,128.58
2677.00,128.59
2676.00,128.59
2675.00,128.59
2674.00,128.60
2673.00,128.59
2672.00,128.59
2671.00,128.59
2670.00,128.58
2669.00,128.58
2668.00,128.57
2667.00,128.56
2666.00,128.55
2665.00,128.53
2664.00,128.52
2663.00,128.50
2662.00,128.48
2661.00,128.47
2660.00,128.45
2659.00,128.44
2658.00,128.42
2657.00,128.41
2656.00,128.39
2655.00,128.38
2654.00,128.37
2653.00,128.36
2652.00,128.34
2651.00,128.33
2650.00,128.33
2649.00,128.32
2648.00,128.31
2647.00,128.31
2646.00,128.30
2645.00,128.30
2644.00,128.30
2643.00,128.30
2642.00,128.30
2641.00,128.30
2640.00,128.30
2639.00,128.30
2638.00,128.30
2637.00,128.31
2636.00,128.31
2635.00,128.32
2634.00,128.32
2633.00,128.33
2632.00,128.34
2631.00,128.35
2630.00,128.35
2629.00,128.36
2628.00,128.37
2627.00,128.38
2626.00,128.39
2625.00,128.40
2624.00,128.40
2623.00,128.41
2622.00,128.41
2621.00,128.42
2620.00,128.42
2619.00,128.42
2618.00,128.43
2617.00,128.43
2616.00,128.43
2615.00,128.43
2614.00,128.43
2613.00,128.43
2612.00,128.43
2611.00,128.43
2610.00,128.42
2609.00,128.42
2608.00,128.41
2607.00,128.41
2606.00,128.40
2605.00,128.40
2604.00,128.39
2603.00,128.38
2602.00,128.38
2601.00,128.37
2600.00,128.37
2599.00,128.36
2598.00,128.36
2597.00,128.35
2596.00,128.35
2595.00,128.35
2594.00,128.35
2593.00,128.34
2592.00,128.34
2591.00,128.34
2590.00,128.35
2589.00,128.35
2588.00,128.35
2587.00,128.36
2586.00,128.36
2585.00,128.36
2584.00,128.37
2583.00,128.37
2582.00,128.38
2581.00,128.38
2580.00,128.39
2579.00,128.39
2578.00,128.39
2577.00,128.39
2576.00,128.39
2575.00,128.39
2574.00,128.39
2573.00,128.39
2572.00,128.39
2571.00,128.39
2570.00,128.39
2569.00,128.38
2568.00,128.38
2567.00,128.37
2566.00,128.36
2565.00,128.36
2564.00,128.35
2563.00,128.34
2562.00,128.34
2561.00,128.33
2560.00,128.32
2559.00,128.31
2558.00,128.30
2557.00,128.29
2556.00,128.28
2555.00,128.27
2554.00,128.25
2553.00,128.24
2552.00,128.23
2551.00,128.22
2550.00,128.21
2549.00,128.19
2548.00,128.18
2547.00,128.17
2546.00,128.16
2545.00,128.15
2544.00,128.14
2543.00,128.13
2542.00,128.12
2541.00,128.12
2540.00,128.11
2539.00,128.11
2538.00,128.11
2537.00,128.11
2536.00,128.12
2535.00,128.12
2534.00,128.12
2533.00,128.12
2532.00,128.13
2531.00,128.13
2530.00,128.14
2529.00,128.14
2528.00,128.14
2527.00,128.14
2526.00,128.14
2525.00,128.14
2524.00,128.14
2523.00,128.14
2522.00,128.14
2521.00,128.13
2520.00,128.13
2519.00,128.12
2518.00,128.12
2517.00,128.11
2516.00,128.10
2515.00,128.09
2514.00,128.08
2513.00,128.07
2512.00,128.05
2511.00,128.04
2510.00,128.03
2509.00,128.01
2508.00,127.99
2507.00,127.98
2506.00,127.96
2505.00,127.95
2504.00,127.93
2503.00,127.92
2502.00,127.90
2501.00,127.89
2500.00,127.88
2499.00,127.86
2498.00,127.85
2497.00,127.83
2496.00,127.82
2495.00,127.81
2494.00,127.80
2493.00,127.79
2492.00,127.78
2491.00,127.78
2490.00,127.77
2489.00,127.77
2488.00,127.77
2487.00,127.77
2486.00,127.76
2485.00,127.76
2484.00,127.76
2483.00,127.76
2482.00,127.75
2481.00,127.75
2480.00,127.75
2479.00,127.75
2478.00,127.75
2477.00,127.75
2476.00,127.74
2475.00,127.74
2474.00,127.74
2473.00,127.74
2472.00,127.75
2471.00,127.75
2470.00,127.75
2469.00,127.75
2468.00,127.75
2467.00,127.75
2466.00,127.75
2465.00,127.75
2464.00,127.75
2463.00,127.75
2462.00,127.75
2461.00,127.75
2460.00,127.74
2459.00,127.74
2458.00,127.74
2457.00,127.74
2456.00,127.73
2455.00,127.73
2454.00,127.73
2453.00,127.73
2452.00,127.72
2451.00,127.72
2450.00,127.72
2449.00,127.72
2448.00,127.72
2447.00,127.73
2446.00,127.73
2445.00,127.73
2444.00,127.74
2443.00,127.74
2442.00,127.75
2441.00,127.75
2440.00,127.76
2439.00,127.77
2438.00,127.78
2437.00,127.79
2436.00,127.80
2435.00,127.81
2434.00,127.82
2433.00,127.83
2432.00,127.85
2431.00,127.86
2430.00,127.88
2429.00,127.89
2428.00,127.91
2427.00,127.93
2426.00,127.95
2425.00,127.96
2424.00,127.98
2423.00,127.99
2422.00,128.01
2421.00,128.03
2420.00,128.05
2419.00,128.07
2418.00,128.08
2417.00,128.10
2416.00,128.11
2415.00,128.11
2414.00,128.12
2413.00,128.12
2412.00,128.13
2411.00,128.12
2410.00,128.12
2409.00,128.12
2408.00,128.11
2407.00,128.10
2406.00,128.09
2405.00,128.08
2404.00,128.07
2403.00,128.06
2402.00,128.04
2401.00,128.03
2400.00,128.02
2399.00,128.00
2398.00,127.99
2397.00,127.98
2396.00,127.97
2395.00,127.95
2394.00,127.94
2393.00,127.93
2392.00,127.92
2391.00,127.91
2390.00,127.90
2389.00,127.90
2388.00,127.89
2387.00,127.89
2386.00,127.89
2385.00,127.89
2384.00,127.89
2383.00,127.89
2382.00,127.89
2381.00,127.89
2380.00,127.89
2379.00,127.89
2378.00,127.89
2377.00,127.89
2376.00,127.88
2375.00,127.88
2374.00,127.87
2373.00,127.87
2372.00,127.86
2371.00,127.86
2370.00,127.86
2369.00,127.85
2368.00,127.84
2367.00,127.83
2366.00,127.83
2365.00,127.83
2364.00,127.84
2363.00,127.84
2362.00,127.84
2361.00,127.84
2360.00,127.83
2359.00,127.83
2358.00,127.83
2357.00,127.82
2356.00,127.82
2355.00,127.82
2354.00,127.83
2353.00,127.83
2352.00,127.83
2351.00,127.82
2350.00,127.81
2349.00,127.82
2348.00,127.83
2347.00,127.83
2346.00,127.81
2345.00,127.78
2344.00,127.75
2343.00,127.74
2342.00,127.75
2341.00,127.75
2340.00,127.76
2339.00,127.77
2338.00,127.78
2337.00,127.79
2336.00,127.80
2335.00,127.80
2334.00,127.81
2333.00,127.80
2332.00,127.80
2331.00,127.79
2330.00,127.78
2329.00,127.77
2328.00,127.76
2327.00,127.75
2326.00,127.73
2325.00,127.72
2324.00,127.70
2323.00,127.68
2322.00,127.67
2321.00,127.65
2320.00,127.64
2319.00,127.63
2318.00,127.62
2317.00,127.62
2316.00,127.62
2315.00,127.62
2314.00,127.62
2313.00,127.63
2312.00,127.63
2311.00,127.63
2310.00,127.63
2309.00,127.63
2308.00,127.63
2307.00,127.64
2306.00,127.64
2305.00,127.64
2304.00,127.65
2303.00,127.65
2302.00,127.65
2301.00,127.65
2300.00,127.65
2299.00,127.65
2298.00,127.64
2297.00,127.64
2296.00,127.64
2295.00,127.64
2294.00,127.63
2293.00,127.63
2292.00,127.63
2291.00,127.63
2290.00,127.62
2289.00,127.62
2288.00,127.61
2287.00,127.61
2286.00,127.61
2285.00,127.60
2284.00,127.60
2283.00,127.60
2282.00,127.59
2281.00,127.59
2280.00,127.58
2279.00,127.58
2278.00,127.58
2277.00,127.58
2276.00,127.58
2275.00,127.58
2274.00,127.58
2273.00,127.59
2272.00,127.59
2271.00,127.59
2270.00,127.60
2269.00,127.61
2268.00,127.61
2267.00,127.62
2266.00,127.63
2265.00,127.63
2264.00,127.64
2263.00,127.65
2262.00,127.65
2261.00,127.66
2260.00,127.66
2259.00,127.67
2258.00,127.67
2257.00,127.68
2256.00,127.68
2255.00,127.68
2254.00,127.69
2253.00,127.69
2252.00,127.69
2251.00,127.69
2250.00,127.69
2249.00,127.68
2248.00,127.68
2247.00,127.68
2246.00,127.67
2245.00,127.66
2244.00,127.65
2243.00,127.64
2242.00,127.63
2241.00,127.61
2240.00,127.60
2239.00,127.58
2238.00,127.57
2237.00,127.55
2236.00,127.53
2235.00,127.51
2234.00,127.50
2233.00,127.48
2232.00,127.47
2231.00,127.45
2230.00,127.44
2229.00,127.42
2228.00,127.41
2227.00,127.39
2226.00,127.38
2225.00,127.37
2224.00,127.36
2223.00,127.35
2222.00,127.35
2221.00,127.34
2220.00,127.34
2219.00,127.34
2218.00,127.34
2217.00,127.34
2216.00,127.35
2215.00,127.35
2214.00,127.36
2213.00,127.37
2212.00,127.37
2211.00,127.38
2210.00,127.38
2209.00,127.38
2208.00,127.38
2207.00,127.38
2206.00,127.38
2205.00,127.38
2204.00,127.38
2203.00,127.37
2202.00,127.37
2201.00,127.36
2200.00,127.35
2199.00,127.34
2198.00,127.33
2197.00,127.32
2196.00,127.31
2195.00,127.30
2194.00,127.29
2193.00,127.27
2192.00,127.26
2191.00,127.24
2190.00,127.23
2189.00,127.21
2188.00,127.20
2187.00,127.18
2186.00,127.17
2185.00,127.16
2184.00,127.15
2183.00,127.14
2182.00,127.13
2181.00,127.12
2180.00,127.11
2179.00,127.10
2178.00,127.09
2177.00,127.09
2176.00,127.09
2175.00,127.08
2174.00,127.08
2173.00,127.09
2172.00,127.09
2171.00,127.10
2170.00,127.10
2169.00,127.11
2168.00,127.13
2167.00,127.14
2166.00,127.15
2165.00,127.16
2164.00,127.18
2163.00,127.19
2162.00,127.21
2161.00,127.22
2160.00,127.24
2159.00,127.25
2158.00,127.26
2157.00,127.27
2156.00,127.28
2155.00,127.29
2154.00,127.30
2153.00,127.30
2152.00,127.30
2151.00,127.31
2150.00,127.31
2149.00,127.31
2148.00,127.30
2147.00,127.30
2146.00,127.30
2145.00,127.29
2144.00,127.28
2143.00,127.27
2142.00,127.26
2141.00,127.25
2140.00,127.24
2139.00,127.23
2138.00,127.21
2137.00,127.19
2136.00,127.18
2135.00,127.16
2134.00,127.14
2133.00,127.13
2132.00,127.12
2131.00,127.11
2130.00,127.09
2129.00,127.08
2128.00,127.08
2127.00,127.07
2126.00,127.06
2125.00,127.06
2124.00,127.05
2123.00,127.05
2122.00,127.05
2121.00,127.05
2120.00,127.05
2119.00,127.05
2118.00,127.05
2117.00,127.05
2116.00,127.05
2115.00,127.05
2114.00,127.06
2113.00,127.06
2112.00,127.07
2111.00,127.07
2110.00,127.08
2109.00,127.08
2108.00,127.09
2107.00,127.10
2106.00,127.11
2105.00,127.11
2104.00,127.12
2103.00,127.12
2102.00,127.13
2101.00,127.13
2100.00,127.14
2099.00,127.15
2098.00,127.15
2097.00,127.16
2096.00,127.16
2095.00,127.17
2094.00,127.17
2093.00,127.18
2092.00,127.18
2091.00,127.18
2090.00,127.19
2089.00,127.19
2088.00,127.19
2087.00,127.19
2086.00,127.19
2085.00,127.19
2084.00,127.18
2083.00,127.18
2082.00,127.18
2081.00,127.18
2080.00,127.17
2079.00,127.16
2078.00,127.15
2077.00,127.15
2076.00,127.14
2075.00,127.13
2074.00,127.13
2073.00,127.13
2072.00,127.12
2071.00,127.11
2070.00,127.10
2069.00,127.08
2068.00,127.07
2067.00,127.07
2066.00,127.06
2065.00,127.06
2064.00,127.05
2063.00,127.05
2062.00,127.05
2061.00,127.05
2060.00,127.05
2059.00,127.05
2058.00,127.04
2057.00,127.05
2056.00,127.05
2055.00,127.05
2054.00,127.06
2053.00,127.06
2052.00,127.07
2051.00,127.07
2050.00,127.08
2049.00,127.09
2048.00,127.10
2047.00,127.11
2046.00,127.12
2045.00,127.13
2044.00,127.14
2043.00,127.15
2042.00,127.16
2041.00,127.18
2040.00,127.19
2039.00,127.20
2038.00,127.21
2037.00,127.21
2036.00,127.22
2035.00,127.22
2034.00,127.23
2033.00,127.23
2032.00,127.22
2031.00,127.22
2030.00,127.21
2029.00,127.20
2028.00,127.19
2027.00,127.18
2026.00,127.17
2025.00,127.15
2024.00,127.14
2023.00,127.12
2022.00,127.11
2021.00,127.09
2020.00,127.08
2019.00,127.07
2018.00,127.05
2017.00,127.04
2016.00,127.03
2015.00,127.03
2014.00,127.02
2013.00,127.02
2012.00,127.02
2011.00,127.02
2010.00,127.03
2009.00,127.03
2008.00,127.04
2007.00,127.05
2006.00,127.07
2005.00,127.09
2004.00,127.10
2003.00,127.12
2002.00,127.14
2001.00,127.17
2000.00,127.19
1999.00,127.21
1998.00,127.24
1997.00,127.27
1996.00,127.29
1995.00,127.32
1994.00,127.34
1993.00,127.37
1992.00,127.40
1991.00,127.42
1990.00,127.45
1989.00,127.48
1988.00,127.50
1987.00,127.53
1986.00,127.55
1985.00,127.57
1984.00,127.59
1983.00,127.61
1982.00,127.62
1981.00,127.63
1980.00,127.64
1979.00,127.65
1978.00,127.65
1977.00,127.65
1976.00,127.64
1975.00,127.64
1974.00,127.62
1973.00,127.60
1972.00,127.58
1971.00,127.56
1970.00,127.54
1969.00,127.51
1968.00,127.49
1967.00,127.47
1966.00,127.46
1965.00,127.45
1964.00,127.45
1963.00,127.45
1962.00,127.45
1961.00,127.47
1960.00,127.48
1959.00,127.51
1958.00,127.54
1957.00,127.58
1956.00,127.62
1955.00,127.66
1954.00,127.70
1953.00,127.74
1952.00,127.77
1951.00,127.81
1950.00,127.84
1949.00,127.86
1948.00,127.89
1947.00,127.90
1946.00,127.91
1945.00,127.92
1944.00,127.92
1943.00,127.92
1942.00,127.90
1941.00,127.88
1940.00,127.86
1939.00,127.83
1938.00,127.80
1937.00,127.77
1936.00,127.74
1935.00,127.70
1934.00,127.67
1933.00,127.64
1932.00,127.61
1931.00,127.58
1930.00,127.56
1929.00,127.54
1928.00,127.52
1927.00,127.51
1926.00,127.49
1925.00,127.49
1924.00,127.48
1923.00,127.47
1922.00,127.47
1921.00,127.46
1920.00,127.46
1919.00,127.46
1918.00,127.45
1917.00,127.44
1916.00,127.44
1915.00,127.43
1914.00,127.41
1913.00,127.40
1912.00,127.38
1911.00,127.37
1910.00,127.35
1909.00,127.34
1908.00,127.33
1907.00,127.33
1906.00,127.32
1905.00,127.31
1904.00,127.31
1903.00,127.30
1902.00,127.31
1901.00,127.31
1900.00,127.32
1899.00,127.32
1898.00,127.33
1897.00,127.35
1896.00,127.36
1895.00,127.37
1894.00,127.38
1893.00,127.39
1892.00,127.41
1891.00,127.43
1890.00,127.45
1889.00,127.46
1888.00,127.48
1887.00,127.50
1886.00,127.52
1885.00,127.53
1884.00,127.55
1883.00,127.57
1882.00,127.59
1881.00,127.61
1880.00,127.63
1879.00,127.64
1878.00,127.66
1877.00,127.67
1876.00,127.68
1875.00,127.68
1874.00,127.69
1873.00,127.69
1872.00,127.69
1871.00,127.69
1870.00,127.69
1869.00,127.68
1868.00,127.66
1867.00,127.65
1866.00,127.63
1865.00,127.62
1864.00,127.61
1863.00,127.60
1862.00,127.60
1861.00,127.60
1860.00,127.60
1859.00,127.60
1858.00,127.62
1857.00,127.63
1856.00,127.65
1855.00,127.68
1854.00,127.71
1853.00,127.74
1852.00,127.77
1851.00,127.80
1850.00,127.83
1849.00,127.86
1848.00,127.89
1847.00,127.91
1846.00,127.94
1845.00,127.98
1844.00,128.00
1843.00,128.03
1842.00,128.04
1841.00,128.06
1840.00,128.07
1839.00,128.08
1838.00,128.08
1837.00,128.09
1836.00,128.09
1835.00,128.09
1834.00,128.09
1833.00,128.09
1832.00,128.08
1831.00,128.09
1830.00,128.09
1829.00,128.08
1828.00,128.08
1827.00,128.09
1826.00,128.10
1825.00,128.11
1824.00,128.11
1823.00,128.12
1822.00,128.13
1821.00,128.14
1820.00,128.15
1819.00,128.16
1818.00,128.17
1817.00,128.18
1816.00,128.18
1815.00,128.19
1814.00,128.19
1813.00,128.19
1812.00,128.20
1811.00,128.20
1810.00,128.21
1809.00,128.21
1808.00,128.22
1807.00,128.23
1806.00,128.24
1805.00,128.25
1804.00,128.25
1803.00,128.26
1802.00,128.28
1801.00,128.29
1800.00,128.31
1799.00,128.33
1798.00,128.34
1797.00,128.36
1796.00,128.38
1795.00,128.40
1794.00,128.44
1793.00,128.46
1792.00,128.48
1791.00,128.50
1790.00,128.51
1789.00,128.53
1788.00,128.54
1787.00,128.56
1786.00,128.58
1785.00,128.60
1784.00,128.61
1783.00,128.62
1782.00,128.64
1781.00,128.65
1780.00,128.66
1779.00,128.66
1778.00,128.67
1777.00,128.67
1776.00,128.68
1775.00,128.68
1774.00,128.69
1773.00,128.70
1772.00,128.69
1771.00,128.68
1770.00,128.67
1769.00,128.67
1768.00,128.67
1767.00,128.67
1766.00,128.66
1765.00,128.65
1764.00,128.64
1763.00,128.63
1762.00,128.62
1761.00,128.60
1760.00,128.59
1759.00,128.58
1758.00,128.58
1757.00,128.58
1756.00,128.57
1755.00,128.56
1754.00,128.55
1753.00,128.55
1752.00,128.54
1751.00,128.54
1750.00,128.54
1749.00,128.54
1748.00,128.55
1747.00,128.55
1746.00,128.54
1745.00,128.55
1744.00,128.55
1743.00,128.55
1742.00,128.56
1741.00,128.57
1740.00,128.58
1739.00,128.59
1738.00,128.59
1737.00,128.59
1736.00,128.61
1735.00,128.62
1734.00,128.64
1733.00,128.64
1732.00,128.65
1731.00,128.66
1730.00,128.67
1729.00,128.68
1728.00,128.68
1727.00,128.68
1726.00,128.69
1725.00,128.69
1724.00,128.70
1723.00,128.70
1722.00,128.70
1721.00,128.70
1720.00,128.70
1719.00,128.70
1718.00,128.70
1717.00,128.69
1716.00,128.69
1715.00,128.70
1714.00,128.70
1713.00,128.69
1712.00,128.68
1711.00,128.67
1710.00,128.66
1709.00,128.65
1708.00,128.63
1707.00,128.63
1706.00,128.62
1705.00,128.61
1704.00,128.60
1703.00,128.58
1702.00,128.58
1701.00,128.58
1700.00,128.57
1699.00,128.56
1698.00,128.56
1697.00,128.57
1696.00,128.58
1695.00,128.57
1694.00,128.57
1693.00,128.56
1692.00,128.56
1691.00,128.56
1690.00,128.56
1689.00,128.55
1688.00,128.55
1687.00,128.55
1686.00,128.57
1685.00,128.58
1684.00,128.59
1683.00,128.59
1682.00,128.60
1681.00,128.61
1680.00,128.62
1679.00,128.62
1678.00,128.62
1677.00,128.63
1676.00,128.64
1675.00,128.64
1674.00,128.64
1673.00,128.63
1672.00,128.63
1671.00,128.64
1670.00,128.64
1669.00,128.64
1668.00,128.63
1667.00,128.63
1666.00,128.63
1665.00,128.62
1664.00,128.61
1663.00,128.60
1662.00,128.59
1661.00,128.58
1660.00,128.57
1659.00,128.55
1658.00,128.54
1657.00,128.51
1656.00,128.49
1655.00,128.47
1654.00,128.46
1653.00,128.45
1652.00,128.45
1651.00,128.45
1650.00,128.45
1649.00,128.45
1648.00,128.45
1647.00,128.43
1646.00,128.43
1645.00,128.43
1644.00,128.44
1643.00,128.45
1642.00,128.46
1641.00,128.47
1640.00,128.47
1639.00,128.48
1638.00,128.48
1637.00,128.49
1636.00,128.50
1635.00,128.50
1634.00,128.51
1633.00,128.51
1632.00,128.51
1631.00,128.51
1630.00,128.51
1629.00,128.51
1628.00,128.51
1627.00,128.51
1626.00,128.52
1625.00,128.52
1624.00,128.53
1623.00,128.54
1622.00,128.54
1621.00,128.54
1620.00,128.54
1619.00,128.54
1618.00,128.54
1617.00,128.55
1616.00,128.56
1615.00,128.57
1614.00,128.57
1613.00,128.58
1612.00,128.58
1611.00,128.58
1610.00,128.59
1609.00,128.59
1608.00,128.61
1607.00,128.62
1606.00,128.62
1605.00,128.62
1604.00,128.62
1603.00,128.61
1602.00,128.60
1601.00,128.59
1600.00,128.58
1599.00,128.57
1598.00,128.56
1597.00,128.55
1596.00,128.54
1595.00,128.53
1594.00,128.51
1593.00,128.51
1592.00,128.50
1591.00,128.50
1590.00,128.50
1589.00,128.50
1588.00,128.50
1587.00,128.51
1586.00,128.51
1585.00,128.52
1584.00,128.52
1583.00,128.53
1582.00,128.54
1581.00,128.54
1580.00,128.55
1579.00,128.56
1578.00,128.56
1577.00,128.57
1576.00,128.58
1575.00,128.59
1574.00,128.60
1573.00,128.61
1572.00,128.62
1571.00,128.62
1570.00,128.62
1569.00,128.62
1568.00,128.62
1567.00,128.62
1566.00,128.63
1565.00,128.62
1564.00,128.61
1563.00,128.60
1562.00,128.59
1561.00,128.59
1560.00,128.59
1559.00,128.57
1558.00,128.55
1557.00,128.55
1556.00,128.55
1555.00,128.55
1554.00,128.55
1553.00,128.54
1552.00,128.53
1551.00,128.53
1550.00,128.52
1549.00,128.52
1548.00,128.52
1547.00,128.52
1546.00,128.52
1545.00,128.53
1544.00,128.52
1543.00,128.52
1542.00,128.52
1541.00,128.52
1540.00,128.52
1539.00,128.52
1538.00,128.52
1537.00,128.50
1536.00,128.49
1535.00,128.48
1534.00,128.46
1533.00,128.45
1532.00,128.44
1531.00,128.43
1530.00,128.43
1529.00,128.44
1528.00,128.44
1527.00,128.44
1526.00,128.44
1525.00,128.44
1524.00,128.44
1523.00,128.44
1522.00,128.45
1521.00,128.46
1520.00,128.48
1519.00,128.50
1518.00,128.52
1517.00,128.53
1516.00,128.53
1515.00,128.53
1514.00,128.54
1513.00,128.55
1512.00,128.56
1511.00,128.56
1510.00,128.57
1509.00,128.58
1508.00,128.58
1507.00,128.59
1506.00,128.60
1505.00,128.61
1504.00,128.61
1503.00,128.61
1502.00,128.60
1501.00,128.59
1500.00,128.57
1499.00,128.56
1498.00,128.55
1497.00,128.54
1496.00,128.54
1495.00,128.54
1494.00,128.54
1493.00,128.54
1492.00,128.53
1491.00,128.53
1490.00,128.52
1489.00,128.52
1488.00,128.52
1487.00,128.52
1486.00,128.52
1485.00,128.52
1484.00,128.52
1483.00,128.52
1482.00,128.52
1481.00,128.52
1480.00,128.52
1479.00,128.52
1478.00,128.53
1477.00,128.53
1476.00,128.54
1475.00,128.55
1474.00,128.57
1473.00,128.59
1472.00,128.60
1471.00,128.61
1470.00,128.62
1469.00,128.63
1468.00,128.64
1467.00,128.64
1466.00,128.65
1465.00,128.66
1464.00,128.66
1463.00,128.66
1462.00,128.67
1461.00,128.67
1460.00,128.67
1459.00,128.67
1458.00,128.68
1457.00,128.68
1456.00,128.68
1455.00,128.68
1454.00,128.67
1453.00,128.67
1452.00,128.66
1451.00,128.66
1450.00,128.65
1449.00,128.65
1448.00,128.64
1447.00,128.63
1446.00,128.62
1445.00,128.61
1444.00,128.60
1443.00,128.58
1442.00,128.57
1441.00,128.57
1440.00,128.56
1439.00,128.54
1438.00,128.54
1437.00,128.53
1436.00,128.52
1435.00,128.51
1434.00,128.51
1433.00,128.50
1432.00,128.50
1431.00,128.49
1430.00,128.49
1429.00,128.49
1428.00,128.49
1427.00,128.49
1426.00,128.50
1425.00,128.50
1424.00,128.51
1423.00,128.51
1422.00,128.51
1421.00,128.52
1420.00,128.53
1419.00,128.54
1418.00,128.55
1417.00,128.57
1416.00,128.58
1415.00,128.59
1414.00,128.60
1413.00,128.61
1412.00,128.62
1411.00,128.62
1410.00,128.62
1409.00,128.63
1408.00,128.63
1407.00,128.64
1406.00,128.64
1405.00,128.64
1404.00,128.64
1403.00,128.64
1402.00,128.64
1401.00,128.64
1400.00,128.64
1399.00,128.64
1398.00,128.64
1397.00,128.64
1396.00,128.64
1395.00,128.63
1394.00,128.63
1393.00,128.62
1392.00,128.61
1391.00,128.61
1390.00,128.60
1389.00,128.59
1388.00,128.59
1387.00,128.58
1386.00,128.58
1385.00,128.57
1384.00,128.56
1383.00,128.55
1382.00,128.54
1381.00,128.54
1380.00,128.54
1379.00,128.53
1378.00,128.53
1377.00,128.53
1376.00,128.52
1375.00,128.52
1374.00,128.52
1373.00,128.52
1372.00,128.53
1371.00,128.53
1370.00,128.54
1369.00,128.54
1368.00,128.55
1367.00,128.55
1366.00,128.56
1365.00,128.56
1364.00,128.57
1363.00,128.58
1362.00,128.59
1361.00,128.60
1360.00,128.60
1359.00,128.61
1358.00,128.61
1357.00,128.62
1356.00,128.62
1355.00,128.63
1354.00,128.64
1353.00,128.64
1352.00,128.65
1351.00,128.65
1350.00,128.65
1349.00,128.65
1348.00,128.64
1347.00,128.64
1346.00,128.64
1345.00,128.64
1344.00,128.64
1343.00,128.63
1342.00,128.62
1341.00,128.62
1340.00,128.61
1339.00,128.60
1338.00,128.59
1337.00,128.58
1336.00,128.58
1335.00,128.57
1334.00,128.57
1333.00,128.56
1332.00,128.55
1331.00,128.54
1330.00,128.53
1329.00,128.53
1328.00,128.52
1327.00,128.52
1326.00,128.52
1325.00,128.52
1324.00,128.52
1323.00,128.52
1322.00,128.52
1321.00,128.52
1320.00,128.52
1319.00,128.53
1318.00,128.53
1317.00,128.54
1316.00,128.55
1315.00,128.55
1314.00,128.56
1313.00,128.57
1312.00,128.58
1311.00,128.59
1310.00,128.60
1309.00,128.60
1308.00,128.61
1307.00,128.62
1306.00,128.62
1305.00,128.63
1304.00,128.63
1303.00,128.64
1302.00,128.65
1301.00,128.65
1300.00,128.66
1299.00,128.66
1298.00,128.66
1297.00,128.65
1296.00,128.65
1295.00,128.64
1294.00,128.64
1293.00,128.63
1292.00,128.63
1291.00,128.62
1290.00,128.61
1289.00,128.60
1288.00,128.59
1287.00,128.58
1286.00,128.57
1285.00,128.56
1284.00,128.55
1283.00,128.54
1282.00,128.54
1281.00,128.53
1280.00,128.52
1279.00,128.51
1278.00,128.50
1277.00,128.49
1276.00,128.49
1275.00,128.48
1274.00,128.48
1273.00,128.47
1272.00,128.47
1271.00,128.47
1270.00,128.46
1269.00,128.46
1268.00,128.46
1267.00,128.46
1266.00,128.46
1265.00,128.47
1264.00,128.47
1263.00,128.47
1262.00,128.48
1261.00,128.48
1260.00,128.49
1259.00,128.50
1258.00,128.51
1257.00,128.53
1256.00,128.54
1255.00,128.55
1254.00,128.56
1253.00,128.57
1252.00,128.57
1251.00,128.58
1250.00,128.59
1249.00,128.60
1248.00,128.61
1247.00,128.62
1246.00,128.62
1245.00,128.62
1244.00,128.62
1243.00,128.62
1242.00,128.62
1241.00,128.62
1240.00,128.61
1239.00,128.60
1238.00,128.60
1237.00,128.59
1236.00,128.58
1235.00,128.57
1234.00,128.56
1233.00,128.55
1232.00,128.54
1231.00,128.53
1230.00,128.53
1229.00,128.52
1228.00,128.51
1227.00,128.49
1226.00,128.48
1225.00,128.47
1224.00,128.46
1223.00,128.45
1222.00,128.45
1221.00,128.44
1220.00,128.44
1219.00,128.43
1218.00,128.43
1217.00,128.42
1216.00,128.42
1215.00,128.42
1214.00,128.42
1213.00,128.42
1212.00,128.43
1211.00,128.43
1210.00,128.43
1209.00,128.44
1208.00,128.44
1207.00,128.45
1206.00,128.45
1205.00,128.46
1204.00,128.47
1203.00,128.48
1202.00,128.49
1201.00,128.49
1200.00,128.50
1199.00,128.50
1198.00,128.51
1197.00,128.51
1196.00,128.52
1195.00,128.53
1194.00,128.53
1193.00,128.53
1192.00,128.53
1191.00,128.53
1190.00,128.52
1189.00,128.52
1188.00,128.52
1187.00,128.52
1186.00,128.52
1185.00,128.51
1184.00,128.51
1183.00,128.50
1182.00,128.49
1181.00,128.47
1180.00,128.46
1179.00,128.45
1178.00,128.44
1177.00,128.44
1176.00,128.43
1175.00,128.42
1174.00,128.41
1173.00,128.40
1172.00,128.39
1171.00,128.38
1170.00,128.37
1169.00,128.36
1168.00,128.36
1167.00,128.36
1166.00,128.36
1165.00,128.35
1164.00,128.35
1163.00,128.35
1162.00,128.34
1161.00,128.34
1160.00,128.35
1159.00,128.35
1158.00,128.35
1157.00,128.35
1156.00,128.36
1155.00,128.36
1154.00,128.36
1153.00,128.37
1152.00,128.38
1151.00,128.38
1150.00,128.39
1149.00,128.40
1148.00,128.40
1147.00,128.41
1146.00,128.42
1145.00,128.42
1144.00,128.43
1143.00,128.43
1142.00,128.44
1141.00,128.44
1140.00,128.44
1139.00,128.44
1138.00,128.44
1137.00,128.44
1136.00,128.44
1135.00,128.44
1134.00,128.43
1133.00,128.43
1132.00,128.42
1131.00,128.42
1130.00,128.41
1129.00,128.40
1128.00,128.39
1127.00,128.39
1126.00,128.38
1125.00,128.38
1124.00,128.37
1123.00,128.36
1122.00,128.35
1121.00,128.34
1120.00,128.33
1119.00,128.32
1118.00,128.32
1117.00,128.32
1116.00,128.31
1115.00,128.30
1114.00,128.30
1113.00,128.29
1112.00,128.29
1111.00,128.29
1110.00,128.28
1109.00,128.28
1108.00,128.28
1107.00,128.29
1106.00,128.29
1105.00,128.29
1104.00,128.29
1103.00,128.29
1102.00,128.29
1101.00,128.30
1100.00,128.30
1099.00,128.31
1098.00,128.32
1097.00,128.32
1096.00,128.33
1095.00,128.33
1094.00,128.33
1093.00,128.33
1092.00,128.34
1091.00,128.35
1090.00,128.35
1089.00,128.35
1088.00,128.35
1087.00,128.34
1086.00,128.34
1085.00,128.34
1084.00,128.34
1083.00,128.34
1082.00,128.34
1081.00,128.33
1080.00,128.33
1079.00,128.32
1078.00,128.31
1077.00,128.30
1076.00,128.29
1075.00,128.28
1074.00,128.27
1073.00,128.26
1072.00,128.25
1071.00,128.24
1070.00,128.23
1069.00,128.22
1068.00,128.20
1067.00,128.19
1066.00,128.19
1065.00,128.18
1064.00,128.18
1063.00,128.17
1062.00,128.17
1061.00,128.16
1060.00,128.16
1059.00,128.16
1058.00,128.16
1057.00,128.16
1056.00,128.16
1055.00,128.16
1054.00,128.16
1053.00,128.16
1052.00,128.16
1051.00,128.17
1050.00,128.17
1049.00,128.19
1048.00,128.21
1047.00,128.22
1046.00,128.24
1045.00,128.26
1044.00,128.27
1043.00,128.28
1042.00,128.29
1041.00,128.30
1040.00,128.31
1039.00,128.32
1038.00,128.33
1037.00,128.35
1036.00,128.36
1035.00,128.36
1034.00,128.36
1033.00,128.37
1032.00,128.37
1031.00,128.38
1030.00,128.38
1029.00,128.39
1028.00,128.39
1027.00,128.39
1026.00,128.39
1025.00,128.39
1024.00,128.39
1023.00,128.39
1022.00,128.39
1021.00,128.40
1020.00,128.40
1019.00,128.40
1018.00,128.40
1017.00,128.40
1016.00,128.40
1015.00,128.39
1014.00,128.39
1013.00,128.39
1012.00,128.40
1011.00,128.41
1010.00,128.41
1009.00,128.42
1008.00,128.42
1007.00,128.42
1006.00,128.42
1005.00,128.42
1004.00,128.43
1003.00,128.44
1002.00,128.46
1001.00,128.47
1000.00,128.48
999.00,128.49
998.00,128.49
997.00,128.50
996.00,128.52
995.00,128.53
994.00,128.55
993.00,128.56
992.00,128.58
991.00,128.59
990.00,128.60
989.00,128.61
988.00,128.62
987.00,128.63
986.00,128.64
985.00,128.66
984.00,128.67
983.00,128.68
982.00,128.69
981.00,128.69
980.00,128.69
979.00,128.69
978.00,128.70
977.00,128.70
976.00,128.71
975.00,128.72
974.00,128.72
973.00,128.71
972.00,128.71
971.00,128.70
970.00,128.70
969.00,128.70
968.00,128.70
967.00,128.70
966.00,128.70
965.00,128.70
964.00,128.69
963.00,128.68
962.00,128.68
961.00,128.68
960.00,128.67
959.00,128.68
958.00,128.68
957.00,128.68
956.00,128.68
955.00,128.68
954.00,128.68
953.00,128.68
952.00,128.68
951.00,128.69
950.00,128.69
949.00,128.71
948.00,128.72
947.00,128.73
946.00,128.73
945.00,128.73
944.00,128.74
943.00,128.75
942.00,128.76
941.00,128.78
940.00,128.79
939.00,128.80
938.00,128.81
937.00,128.82
936.00,128.82
935.00,128.83
934.00,128.84
933.00,128.85
932.00,128.86
931.00,128.87
930.00,128.88
929.00,128.88
928.00,128.89
927.00,128.89
926.00,128.89
925.00,128.89
924.00,128.89
923.00,128.90
922.00,128.90
921.00,128.90
920.00,128.89
919.00,128.89
918.00,128.88
917.00,128.87
916.00,128.87
915.00,128.87
914.00,128.86
913.00,128.86
912.00,128.86
911.00,128.85
910.00,128.83
909.00,128.83
908.00,128.82
907.00,128.82
906.00,128.83
905.00,128.83
904.00,128.82
903.00,128.82
902.00,128.82
901.00,128.82
900.00,128.82
899.00,128.82
898.00,128.83
897.00,128.84
896.00,128.85
895.00,128.85
894.00,128.86
893.00,128.86
892.00,128.87
891.00,128.87
890.00,128.88
889.00,128.89
888.00,128.90
887.00,128.91
886.00,128.92
885.00,128.93
884.00,128.93
883.00,128.93
882.00,128.94
881.00,128.95
880.00,128.96
879.00,128.97
878.00,128.98
877.00,128.98
876.00,128.98
875.00,128.98
874.00,128.98
873.00,128.98
872.00,128.99
871.00,128.99
870.00,128.99
869.00,128.99
868.00,128.99
867.00,128.99
866.00,128.98
865.00,128.97
864.00,128.97
863.00,128.96
862.00,128.96
861.00,128.96
860.00,128.95
859.00,128.95
858.00,128.94
857.00,128.93
856.00,128.92
855.00,128.92
854.00,128.91
853.00,128.91
852.00,128.91
851.00,128.91
850.00,128.91
849.00,128.90
848.00,128.90
847.00,128.90
846.00,128.91
845.00,128.91
844.00,128.91
843.00,128.92
842.00,128.92
841.00,128.93
840.00,128.93
839.00,128.94
838.00,128.94
837.00,128.94
836.00,128.95
835.00,128.95
834.00,128.95
833.00,128.95
832.00,128.96
831.00,128.96
830.00,128.96
829.00,128.96
828.00,128.96
827.00,128.97
826.00,128.97
825.00,128.98
824.00,128.98
823.00,128.98
822.00,128.97
821.00,128.97
820.00,128.97
819.00,128.98
818.00,128.98
817.00,128.99
816.00,128.98
815.00,128.97
814.00,128.96
813.00,128.95
812.00,128.95
811.00,128.95
810.00,128.94
809.00,128.93
808.00,128.93
807.00,128.92
806.00,128.92
805.00,128.92
804.00,128.91
803.00,128.90
802.00,128.90
801.00,128.89
800.00,128.89
799.00,128.89
798.00,128.90
797.00,128.90
796.00,128.90
795.00,128.90
794.00,128.90
793.00,128.90
792.00,128.90
791.00,128.91
790.00,128.91
789.00,128.92
788.00,128.92
787.00,128.92
786.00,128.93
785.00,128.94
784.00,128.95
783.00,128.95
782.00,128.96
781.00,128.96
780.00,128.97
779.00,128.98
778.00,128.98
777.00,128.98
776.00,128.98
775.00,128.98
774.00,128.98
773.00,128.98
772.00,128.99
771.00,128.99
770.00,128.99
769.00,128.99
768.00,128.99
767.00,128.99
766.00,128.99
765.00,128.99
764.00,128.98
763.00,128.98
762.00,128.97
761.00,128.96
760.00,128.95
759.00,128.95
758.00,128.94
757.00,128.94
756.00,128.94
755.00,128.93
754.00,128.92
753.00,128.91
752.00,128.90
751.00,128.90
750.00,128.90
749.00,128.89
748.00,128.89
747.00,128.87
746.00,128.86
745.00,128.86
744.00,128.87
743.00,128.87
742.00,128.87
741.00,128.86
740.00,128.86
739.00,128.87
738.00,128.87
737.00,128.87
736.00,128.88
735.00,128.88
734.00,128.88
733.00,128.89
732.00,128.90
731.00,128.91
730.00,128.92
729.00,128.92
728.00,128.92
727.00,128.92
726.00,128.92
725.00,128.93
724.00,128.94
723.00,128.94
722.00,128.95
721.00,128.95
720.00,128.95
719.00,128.95
718.00,128.95
717.00,128.95
716.00,128.95
715.00,128.95
714.00,128.94
713.00,128.94
712.00,128.94
711.00,128.93
710.00,128.93
709.00,128.93
708.00,128.92
707.00,128.91
706.00,128.91
705.00,128.91
704.00,128.90
703.00,128.89
702.00,128.88
701.00,128.86
700.00,128.85
699.00,128.84
698.00,128.84
697.00,128.84
696.00,128.84
695.00,128.83
694.00,128.83
693.00,128.82
692.00,128.82
691.00,128.82
690.00,128.81
689.00,128.81
688.00,128.80
687.00,128.79
686.00,128.79
685.00,128.79
684.00,128.79
683.00,128.79
682.00,128.79
681.00,128.79
680.00,128.80
679.00,128.80
678.00,128.81
677.00,128.81
676.00,128.80
675.00,128.80
674.00,128.79
673.00,128.80
672.00,128.81
671.00,128.85
670.00,128.89
669.00,128.90
668.00,128.88
667.00,128.85
666.00,128.84
665.00,128.83
664.00,128.83
663.00,128.83
662.00,128.82
661.00,128.81
660.00,128.80
659.00,128.79
658.00,128.77
657.00,128.76
656.00,128.75
655.00,128.75
654.00,128.74
653.00,128.74
652.00,128.74
651.00,128.73
650.00,128.72
649.00,128.71
648.00,128.70
647.00,128.68
646.00,128.67
645.00,128.67
644.00,128.67
643.00,128.68
642.00,128.68
641.00,128.68
640.00,128.67
639.00,128.65
638.00,128.64
637.00,128.63
636.00,128.63
635.00,128.63
634.00,128.63
633.00,128.63
632.00,128.62
631.00,128.62
630.00,128.63
629.00,128.63
628.00,128.64
627.00,128.63
626.00,128.63
625.00,128.63
624.00,128.64
623.00,128.65
622.00,128.65
621.00,128.64
620.00,128.64
619.00,128.64
618.00,128.64
617.00,128.65
616.00,128.66
615.00,128.66
614.00,128.65
613.00,128.64
612.00,128.63
611.00,128.62
610.00,128.62
609.00,128.62
608.00,128.63
607.00,128.63
606.00,128.62
605.00,128.62
604.00,128.63
603.00,128.64
602.00,128.64
601.00,128.63
600.00,128.61
599.00,128.60
598.00,128.59
597.00,128.59
596.00,128.59
595.00,128.59
594.00,128.58
593.00,128.57
592.00,128.55
591.00,128.55
590.00,128.56
589.00,128.56
588.00,128.55
587.00,128.54
586.00,128.52
585.00,128.50
584.00,128.51
583.00,128.52
582.00,128.53
581.00,128.53
580.00,128.53
579.00,128.52
578.00,128.51
577.00,128.51
576.00,128.51
575.00,128.51
574.00,128.50
573.00,128.50
572.00,128.49
571.00,128.49
570.00,128.49
569.00,128.49
568.00,128.50
567.00,128.50
566.00,128.51
565.00,128.50
564.00,128.50
563.00,128.49
562.00,128.48
561.00,128.47
560.00,128.47
559.00,128.48
558.00,128.48
557.00,128.49
556.00,128.50
555.00,128.51
554.00,128.51
553.00,128.51
552.00,128.51
551.00,128.51
550.00,128.51
549.00,128.51
548.00,128.52
547.00,128.51
546.00,128.51
545.00,128.51
544.00,128.51
543.00,128.51
542.00,128.52
541.00,128.52
540.00,128.53
539.00,128.53
538.00,128.54
537.00,128.55
536.00,128.55
535.00,128.55
534.00,128.56
533.00,128.57
532.00,128.59
531.00,128.61
530.00,128.64
529.00,128.66
528.00,128.68
527.00,128.68
526.00,128.68
525.00,128.69
524.00,128.72
523.00,128.74
522.00,128.76
521.00,128.77
520.00,128.78
519.00,128.80
518.00,128.83
517.00,128.86
516.00,128.88
515.00,128.90
514.00,128.91
513.00,128.92
512.00,128.93
511.00,128.93
510.00,128.94
509.00,128.93
508.00,128.92
507.00,128.92
506.00,128.93
505.00,128.95
504.00,128.98
503.00,129.00
502.00,129.00
501.00,128.99
500.00,128.98
