Created as New Dataset,Sample 359 By Analyst Date Wednesday, February 05 2025
cm-1,%T
4000.00,117.22
3999.00,117.21
3998.00,117.21
3997.00,117.20
3996.00,117.20
3995.00,117.19
3994.00,117.19
3993.00,117.18
3992.00,117.18
3991.00,117.17
3990.00,117.17
3989.00,117.16
3988.00,117.16
3987.00,117.15
3986.00,117.15
3985.00,117.14
3984.00,117.13
3983.00,117.13
3982.00,117.12
3981.00,117.11
3980.00,117.11
3979.00,117.10
3978.00,117.09
3977.00,117.09
3976.00,117.09
3975.00,117.08
3974.00,117.08
3973.00,117.08
3972.00,117.08
3971.00,117.07
3970.00,117.07
3969.00,117.07
3968.00,117.07
3967.00,117.07
3966.00,117.07
3965.00,117.07
3964.00,117.07
3963.00,117.07
3962.00,117.07
3961.00,117.07
3960.00,117.07
3959.00,117.07
3958.00,117.07
3957.00,117.08
3956.00,117.08
3955.00,117.08
3954.00,117.08
3953.00,117.09
3952.00,117.09
3951.00,117.09
3950.00,117.09
3949.00,117.09
3948.00,117.09
3947.00,117.09
3946.00,117.09
3945.00,117.09
3944.00,117.08
3943.00,117.09
3942.00,117.09
3941.00,117.09
3940.00,117.09
3939.00,117.08
3938.00,117.07
3937.00,117.07
3936.00,117.06
3935.00,117.06
3934.00,117.05
3933.00,117.04
3932.00,117.04
3931.00,117.03
3930.00,117.03
3929.00,117.02
3928.00,117.02
3927.00,117.02
3926.00,117.01
3925.00,117.01
3924.00,117.00
3923.00,117.00
3922.00,116.99
3921.00,116.98
3920.00,116.98
3919.00,116.98
3918.00,116.98
3917.00,116.98
3916.00,116.98
3915.00,116.98
3914.00,116.98
3913.00,116.98
3912.00,116.98
3911.00,116.98
3910.00,116.98
3909.00,116.97
3908.00,116.97
3907.00,116.97
3906.00,116.96
3905.00,116.96
3904.00,116.96
3903.00,116.96
3902.00,116.96
3901.00,116.95
3900.00,116.95
3899.00,116.96
3898.00,116.97
3897.00,116.97
3896.00,116.97
3895.00,116.97
3894.00,116.98
3893.00,116.98
3892.00,116.98
3891.00,116.97
3890.00,116.98
3889.00,116.98
3888.00,116.97
3887.00,116.95
3886.00,116.94
3885.00,116.95
3884.00,116.95
3883.00,116.94
3882.00,116.93
3881.00,116.93
3880.00,116.95
3879.00,116.96
3878.00,116.95
3877.00,116.94
3876.00,116.92
3875.00,116.91
3874.00,116.93
3873.00,116.94
3872.00,116.94
3871.00,116.91
3870.00,116.89
3869.00,116.90
3868.00,116.91
3867.00,116.90
3866.00,116.88
3865.00,116.88
3864.00,116.90
3863.00,116.91
3862.00,116.91
3861.00,116.90
3860.00,116.90
3859.00,116.90
3858.00,116.92
3857.00,116.94
3856.00,116.96
3855.00,116.94
3854.00,116.92
3853.00,116.91
3852.00,116.92
3851.00,116.91
3850.00,116.90
3849.00,116.91
3848.00,116.93
3847.00,116.94
3846.00,116.94
3845.00,116.93
3844.00,116.92
3843.00,116.92
3842.00,116.92
3841.00,116.92
3840.00,116.91
3839.00,116.90
3838.00,116.90
3837.00,116.89
3836.00,116.89
3835.00,116.89
3834.00,116.89
3833.00,116.89
3832.00,116.89
3831.00,116.89
3830.00,116.89
3829.00,116.88
3828.00,116.86
3827.00,116.85
3826.00,116.85
3825.00,116.85
3824.00,116.85
3823.00,116.82
3822.00,116.80
3821.00,116.80
3820.00,116.82
3819.00,116.83
3818.00,116.81
3817.00,116.78
3816.00,116.78
3815.00,116.79
3814.00,116.79
3813.00,116.77
3812.00,116.76
3811.00,116.77
3810.00,116.79
3809.00,116.79
3808.00,116.77
3807.00,116.75
3806.00,116.75
3805.00,116.76
3804.00,116.76
3803.00,116.75
3802.00,116.74
3801.00,116.76
3800.00,116.77
3799.00,116.77
3798.00,116.76
3797.00,116.76
3796.00,116.78
3795.00,116.80
3794.00,116.80
3793.00,116.79
3792.00,116.79
3791.00,116.79
3790.00,116.80
3789.00,116.80
3788.00,116.79
3787.00,116.79
3786.00,116.79
3785.00,116.79
3784.00,116.79
3783.00,116.79
3782.00,116.79
3781.00,116.78
3780.00,116.78
3779.00,116.78
3778.00,116.79
3777.00,116.79
3776.00,116.78
3775.00,116.77
3774.00,116.77
3773.00,116.78
3772.00,116.77
3771.00,116.76
3770.00,116.76
3769.00,116.77
3768.00,116.77
3767.00,116.76
3766.00,116.75
3765.00,116.76
3764.00,116.76
3763.00,116.76
3762.00,116.75
3761.00,116.74
3760.00,116.74
3759.00,116.75
3758.00,116.74
3757.00,116.74
3756.00,116.74
3755.00,116.73
3754.00,116.73
3753.00,116.72
3752.00,116.71
3751.00,116.70
3750.00,116.68
3749.00,116.68
3748.00,116.69
3747.00,116.70
3746.00,116.70
3745.00,116.68
3744.00,116.68
3743.00,116.69
3742.00,116.67
3741.00,116.65
3740.00,116.64
3739.00,116.65
3738.00,116.65
3737.00,116.62
3736.00,116.61
3735.00,116.62
3734.00,116.64
3733.00,116.64
3732.00,116.63
3731.00,116.63
3730.00,116.62
3729.00,116.61
3728.00,116.59
3727.00,116.58
3726.00,116.58
3725.00,116.58
3724.00,116.57
3723.00,116.57
3722.00,116.57
3721.00,116.58
3720.00,116.58
3719.00,116.58
3718.00,116.57
3717.00,116.57
3716.00,116.57
3715.00,116.57
3714.00,116.56
3713.00,116.55
3712.00,116.55
3711.00,116.56
3710.00,116.56
3709.00,116.57
3708.00,116.58
3707.00,116.59
3706.00,116.61
3705.00,116.62
3704.00,116.63
3703.00,116.65
3702.00,116.66
3701.00,116.68
3700.00,116.70
3699.00,116.71
3698.00,116.72
3697.00,116.73
3696.00,116.75
3695.00,116.77
3694.00,116.78
3693.00,116.80
3692.00,116.82
3691.00,116.85
3690.00,116.87
3689.00,116.88
3688.00,116.89
3687.00,116.90
3686.00,116.91
3685.00,116.92
3684.00,116.93
3683.00,116.94
3682.00,116.95
3681.00,116.94
3680.00,116.94
3679.00,116.95
3678.00,116.96
3677.00,116.95
3676.00,116.93
3675.00,116.94
3674.00,116.95
3673.00,116.95
3672.00,116.93
3671.00,116.92
3670.00,116.93
3669.00,116.95
3668.00,116.95
3667.00,116.93
3666.00,116.92
3665.00,116.92
3664.00,116.92
3663.00,116.92
3662.00,116.91
3661.00,116.90
3660.00,116.90
3659.00,116.89
3658.00,116.88
3657.00,116.86
3656.00,116.85
3655.00,116.84
3654.00,116.83
3653.00,116.81
3652.00,116.80
3651.00,116.79
3650.00,116.79
3649.00,116.79
3648.00,116.79
3647.00,116.79
3646.00,116.79
3645.00,116.80
3644.00,116.80
3643.00,116.81
3642.00,116.81
3641.00,116.81
3640.00,116.81
3639.00,116.80
3638.00,116.80
3637.00,116.80
3636.00,116.80
3635.00,116.79
3634.00,116.79
3633.00,116.79
3632.00,116.80
3631.00,116.79
3630.00,116.78
3629.00,116.79
3628.00,116.80
3627.00,116.80
3626.00,116.79
3625.00,116.79
3624.00,116.80
3623.00,116.82
3622.00,116.82
3621.00,116.82
3620.00,116.82
3619.00,116.82
3618.00,116.82
3617.00,116.82
3616.00,116.81
3615.00,116.80
3614.00,116.80
3613.00,116.81
3612.00,116.81
3611.00,116.80
3610.00,116.79
3609.00,116.79
3608.00,116.79
3607.00,116.80
3606.00,116.80
3605.00,116.80
3604.00,116.80
3603.00,116.80
3602.00,116.80
3601.00,116.81
3600.00,116.81
3599.00,116.81
3598.00,116.81
3597.00,116.81
3596.00,116.81
3595.00,116.81
3594.00,116.82
3593.00,116.82
3592.00,116.82
3591.00,116.83
3590.00,116.82
3589.00,116.83
3588.00,116.83
3587.00,116.85
3586.00,116.86
3585.00,116.87
3584.00,116.87
3583.00,116.88
3582.00,116.89
3581.00,116.90
3580.00,116.91
3579.00,116.91
3578.00,116.92
3577.00,116.92
3576.00,116.93
3575.00,116.93
3574.00,116.94
3573.00,116.94
3572.00,116.93
3571.00,116.93
3570.00,116.93
3569.00,116.92
3568.00,116.92
3567.00,116.93
3566.00,116.94
3565.00,116.95
3564.00,116.95
3563.00,116.95
3562.00,116.96
3561.00,116.96
3560.00,116.97
3559.00,116.97
3558.00,116.97
3557.00,116.97
3556.00,116.97
3555.00,116.97
3554.00,116.97
3553.00,116.97
3552.00,116.97
3551.00,116.97
3550.00,116.96
3549.00,116.96
3548.00,116.95
3547.00,116.96
3546.00,116.96
3545.00,116.96
3544.00,116.96
3543.00,116.96
3542.00,116.96
3541.00,116.97
3540.00,116.97
3539.00,116.97
3538.00,116.97
3537.00,116.97
3536.00,116.97
3535.00,116.98
3534.00,116.98
3533.00,116.98
3532.00,116.98
3531.00,116.98
3530.00,116.98
3529.00,116.98
3528.00,116.98
3527.00,116.98
3526.00,116.98
3525.00,116.99
3524.00,116.99
3523.00,116.99
3522.00,116.99
3521.00,116.99
3520.00,116.99
3519.00,116.99
3518.00,116.99
3517.00,116.99
3516.00,116.98
3515.00,116.98
3514.00,116.97
3513.00,116.97
3512.00,116.97
3511.00,116.96
3510.00,116.96
3509.00,116.95
3508.00,116.95
3507.00,116.94
3506.00,116.94
3505.00,116.93
3504.00,116.93
3503.00,116.93
3502.00,116.93
3501.00,116.93
3500.00,116.93
3499.00,116.92
3498.00,116.92
3497.00,116.93
3496.00,116.93
3495.00,116.93
3494.00,116.93
3493.00,116.94
3492.00,116.94
3491.00,116.94
3490.00,116.95
3489.00,116.95
3488.00,116.96
3487.00,116.96
3486.00,116.97
3485.00,116.97
3484.00,116.98
3483.00,116.99
3482.00,117.00
3481.00,117.01
3480.00,117.02
3479.00,117.02
3478.00,117.03
3477.00,117.04
3476.00,117.05
3475.00,117.06
3474.00,117.06
3473.00,117.07
3472.00,117.07
3471.00,117.08
3470.00,117.09
3469.00,117.09
3468.00,117.10
3467.00,117.10
3466.00,117.11
3465.00,117.11
3464.00,117.11
3463.00,117.11
3462.00,117.12
3461.00,117.12
3460.00,117.12
3459.00,117.12
3458.00,117.12
3457.00,117.13
3456.00,117.13
3455.00,117.13
3454.00,117.13
3453.00,117.13
3452.00,117.13
3451.00,117.13
3450.00,117.13
3449.00,117.13
3448.00,117.13
3447.00,117.14
3446.00,117.14
3445.00,117.14
3444.00,117.15
3443.00,117.15
3442.00,117.15
3441.00,117.16
3440.00,117.16
3439.00,117.17
3438.00,117.17
3437.00,117.17
3436.00,117.18
3435.00,117.18
3434.00,117.19
3433.00,117.20
3432.00,117.20
3431.00,117.21
3430.00,117.21
3429.00,117.21
3428.00,117.21
3427.00,117.22
3426.00,117.22
3425.00,117.22
3424.00,117.22
3423.00,117.22
3422.00,117.21
3421.00,117.21
3420.00,117.21
3419.00,117.21
3418.00,117.20
3417.00,117.19
3416.00,117.19
3415.00,117.18
3414.00,117.17
3413.00,117.16
3412.00,117.15
3411.00,117.14
3410.00,117.13
3409.00,117.12
3408.00,117.10
3407.00,117.09
3406.00,117.08
3405.00,117.06
3404.00,117.05
3403.00,117.04
3402.00,117.02
3401.00,117.01
3400.00,117.00
3399.00,116.99
3398.00,116.97
3397.00,116.96
3396.00,116.95
3395.00,116.95
3394.00,116.94
3393.00,116.93
3392.00,116.92
3391.00,116.91
3390.00,116.90
3389.00,116.90
3388.00,116.90
3387.00,116.89
3386.00,116.89
3385.00,116.89
3384.00,116.89
3383.00,116.89
3382.00,116.89
3381.00,116.89
3380.00,116.89
3379.00,116.89
3378.00,116.89
3377.00,116.89
3376.00,116.89
3375.00,116.89
3374.00,116.89
3373.00,116.89
3372.00,116.89
3371.00,116.90
3370.00,116.90
3369.00,116.90
3368.00,116.89
3367.00,116.89
3366.00,116.89
3365.00,116.89
3364.00,116.89
3363.00,116.88
3362.00,116.88
3361.00,116.88
3360.00,116.88
3359.00,116.88
3358.00,116.87
3357.00,116.87
3356.00,116.86
3355.00,116.86
3354.00,116.85
3353.00,116.85
3352.00,116.85
3351.00,116.84
3350.00,116.84
3349.00,116.84
3348.00,116.84
3347.00,116.83
3346.00,116.83
3345.00,116.83
3344.00,116.83
3343.00,116.83
3342.00,116.83
3341.00,116.83
3340.00,116.83
3339.00,116.83
3338.00,116.84
3337.00,116.84
3336.00,116.84
3335.00,116.85
3334.00,116.85
3333.00,116.86
3332.00,116.86
3331.00,116.87
3330.00,116.88
3329.00,116.88
3328.00,116.89
3327.00,116.90
3326.00,116.90
3325.00,116.91
3324.00,116.92
3323.00,116.92
3322.00,116.93
3321.00,116.94
3320.00,116.95
3319.00,116.96
3318.00,116.96
3317.00,116.97
3316.00,116.98
3315.00,116.99
3314.00,117.00
3313.00,117.01
3312.00,117.02
3311.00,117.04
3310.00,117.05
3309.00,117.06
3308.00,117.08
3307.00,117.09
3306.00,117.10
3305.00,117.11
3304.00,117.12
3303.00,117.13
3302.00,117.13
3301.00,117.12
3300.00,117.11
3299.00,117.10
3298.00,117.09
3297.00,117.07
3296.00,117.05
3295.00,117.03
3294.00,117.02
3293.00,117.00
3292.00,116.98
3291.00,116.96
3290.00,116.95
3289.00,116.93
3288.00,116.92
3287.00,116.90
3286.00,116.89
3285.00,116.88
3284.00,116.87
3283.00,116.86
3282.00,116.86
3281.00,116.85
3280.00,116.84
3279.00,116.84
3278.00,116.83
3277.00,116.82
3276.00,116.82
3275.00,116.82
3274.00,116.81
3273.00,116.81
3272.00,116.81
3271.00,116.81
3270.00,116.80
3269.00,116.80
3268.00,116.80
3267.00,116.80
3266.00,116.80
3265.00,116.80
3264.00,116.80
3263.00,116.80
3262.00,116.80
3261.00,116.80
3260.00,116.80
3259.00,116.80
3258.00,116.80
3257.00,116.80
3256.00,116.80
3255.00,116.80
3254.00,116.80
3253.00,116.80
3252.00,116.80
3251.00,116.80
3250.00,116.79
3249.00,116.79
3248.00,116.79
3247.00,116.79
3246.00,116.79
3245.00,116.79
3244.00,116.78
3243.00,116.78
3242.00,116.78
3241.00,116.78
3240.00,116.78
3239.00,116.78
3238.00,116.78
3237.00,116.78
3236.00,116.78
3235.00,116.78
3234.00,116.78
3233.00,116.78
3232.00,116.79
3231.00,116.79
3230.00,116.80
3229.00,116.80
3228.00,116.80
3227.00,116.81
3226.00,116.81
3225.00,116.82
3224.00,116.83
3223.00,116.83
3222.00,116.84
3221.00,116.85
3220.00,116.85
3219.00,116.86
3218.00,116.87
3217.00,116.88
3216.00,116.88
3215.00,116.89
3214.00,116.90
3213.00,116.91
3212.00,116.92
3211.00,116.92
3210.00,116.93
3209.00,116.93
3208.00,116.94
3207.00,116.95
3206.00,116.95
3205.00,116.96
3204.00,116.96
3203.00,116.96
3202.00,116.96
3201.00,116.97
3200.00,116.97
3199.00,116.97
3198.00,116.97
3197.00,116.97
3196.00,116.97
3195.00,116.96
3194.00,116.96
3193.00,116.96
3192.00,116.95
3191.00,116.94
3190.00,116.94
3189.00,116.94
3188.00,116.93
3187.00,116.93
3186.00,116.93
3185.00,116.93
3184.00,116.93
3183.00,116.93
3182.00,116.93
3181.00,116.93
3180.00,116.93
3179.00,116.93
3178.00,116.92
3177.00,116.92
3176.00,116.92
3175.00,116.92
3174.00,116.92
3173.00,116.91
3172.00,116.91
3171.00,116.91
3170.00,116.91
3169.00,116.92
3168.00,116.92
3167.00,116.92
3166.00,116.93
3165.00,116.93
3164.00,116.94
3163.00,116.94
3162.00,116.95
3161.00,116.96
3160.00,116.96
3159.00,116.96
3158.00,116.97
3157.00,116.97
3156.00,116.97
3155.00,116.97
3154.00,116.97
3153.00,116.97
3152.00,116.98
3151.00,116.98
3150.00,116.97
3149.00,116.97
3148.00,116.97
3147.00,116.96
3146.00,116.96
3145.00,116.96
3144.00,116.96
3143.00,116.95
3142.00,116.95
3141.00,116.95
3140.00,116.95
3139.00,116.94
3138.00,116.94
3137.00,116.94
3136.00,116.94
3135.00,116.94
3134.00,116.94
3133.00,116.94
3132.00,116.94
3131.00,116.94
3130.00,116.94
3129.00,116.94
3128.00,116.94
3127.00,116.94
3126.00,116.94
3125.00,116.95
3124.00,116.95
3123.00,116.96
3122.00,116.96
3121.00,116.97
3120.00,116.97
3119.00,116.98
3118.00,116.99
3117.00,117.00
3116.00,117.01
3115.00,117.02
3114.00,117.03
3113.00,117.04
3112.00,117.04
3111.00,117.05
3110.00,117.06
3109.00,117.08
3108.00,117.09
3107.00,117.10
3106.00,117.11
3105.00,117.11
3104.00,117.12
3103.00,117.12
3102.00,117.13
3101.00,117.13
3100.00,117.13
3099.00,117.13
3098.00,117.13
3097.00,117.13
3096.00,117.13
3095.00,117.13
3094.00,117.13
3093.00,117.13
3092.00,117.13
3091.00,117.13
3090.00,117.13
3089.00,117.13
3088.00,117.13
3087.00,117.14
3086.00,117.14
3085.00,117.14
3084.00,117.14
3083.00,117.14
3082.00,117.15
3081.00,117.15
3080.00,117.15
3079.00,117.15
3078.00,117.15
3077.00,117.15
3076.00,117.15
3075.00,117.15
3074.00,117.16
3073.00,117.16
3072.00,117.16
3071.00,117.16
3070.00,117.16
3069.00,117.16
3068.00,117.16
3067.00,117.16
3066.00,117.16
3065.00,117.17
3064.00,117.17
3063.00,117.18
3062.00,117.18
3061.00,117.18
3060.00,117.18
3059.00,117.19
3058.00,117.19
3057.00,117.19
3056.00,117.20
3055.00,117.20
3054.00,117.20
3053.00,117.20
3052.00,117.21
3051.00,117.21
3050.00,117.21
3049.00,117.21
3048.00,117.21
3047.00,117.21
3046.00,117.21
3045.00,117.22
3044.00,117.22
3043.00,117.22
3042.00,117.22
3041.00,117.21
3040.00,117.21
3039.00,117.21
3038.00,117.21
3037.00,117.21
3036.00,117.20
3035.00,117.20
3034.00,117.19
3033.00,117.19
3032.00,117.19
3031.00,117.19
3030.00,117.18
3029.00,117.18
3028.00,117.18
3027.00,117.18
3026.00,117.17
3025.00,117.17
3024.00,117.17
3023.00,117.17
3022.00,117.16
3021.00,117.16
3020.00,117.16
3019.00,117.16
3018.00,117.17
3017.00,117.17
3016.00,117.17
3015.00,117.17
3014.00,117.17
3013.00,117.18
3012.00,117.18
3011.00,117.18
3010.00,117.19
3009.00,117.19
3008.00,117.19
3007.00,117.19
3006.00,117.20
3005.00,117.20
3004.00,117.21
3003.00,117.21
3002.00,117.21
3001.00,117.21
3000.00,117.21
2999.00,117.21
2998.00,117.21
2997.00,117.21
2996.00,117.21
2995.00,117.21
2994.00,117.21
2993.00,117.21
2992.00,117.21
2991.00,117.20
2990.00,117.20
2989.00,117.20
2988.00,117.20
2987.00,117.20
2986.00,117.19
2985.00,117.19
2984.00,117.19
2983.00,117.18
2982.00,117.18
2981.00,117.17
2980.00,117.17
2979.00,117.17
2978.00,117.16
2977.00,117.16
2976.00,117.16
2975.00,117.15
2974.00,117.15
2973.00,117.15
2972.00,117.14
2971.00,117.14
2970.00,117.14
2969.00,117.14
2968.00,117.14
2967.00,117.14
2966.00,117.14
2965.00,117.14
2964.00,117.14
2963.00,117.14
2962.00,117.14
2961.00,117.15
2960.00,117.15
2959.00,117.15
2958.00,117.16
2957.00,117.16
2956.00,117.17
2955.00,117.17
2954.00,117.17
2953.00,117.18
2952.00,117.18
2951.00,117.18
2950.00,117.19
2949.00,117.19
2948.00,117.20
2947.00,117.20
2946.00,117.20
2945.00,117.20
2944.00,117.21
2943.00,117.21
2942.00,117.21
2941.00,117.21
2940.00,117.21
2939.00,117.21
2938.00,117.21
2937.00,117.21
2936.00,117.21
2935.00,117.21
2934.00,117.21
2933.00,117.21
2932.00,117.20
2931.00,117.20
2930.00,117.20
2929.00,117.19
2928.00,117.19
2927.00,117.19
2926.00,117.18
2925.00,117.18
2924.00,117.17
2923.00,117.17
2922.00,117.17
2921.00,117.16
2920.00,117.16
2919.00,117.16
2918.00,117.15
2917.00,117.15
2916.00,117.15
2915.00,117.15
2914.00,117.15
2913.00,117.14
2912.00,117.14
2911.00,117.13
2910.00,117.13
2909.00,117.13
2908.00,117.13
2907.00,117.13
2906.00,117.14
2905.00,117.14
2904.00,117.14
2903.00,117.14
2902.00,117.14
2901.00,117.15
2900.00,117.15
2899.00,117.16
2898.00,117.16
2897.00,117.17
2896.00,117.17
2895.00,117.17
2894.00,117.18
2893.00,117.18
2892.00,117.18
2891.00,117.18
2890.00,117.19
2889.00,117.19
2888.00,117.19
2887.00,117.19
2886.00,117.19
2885.00,117.19
2884.00,117.19
2883.00,117.19
2882.00,117.18
2881.00,117.18
2880.00,117.18
2879.00,117.17
2878.00,117.17
2877.00,117.17
2876.00,117.16
2875.00,117.16
2874.00,117.15
2873.00,117.15
2872.00,117.14
2871.00,117.14
2870.00,117.13
2869.00,117.13
2868.00,117.12
2867.00,117.12
2866.00,117.12
2865.00,117.11
2864.00,117.11
2863.00,117.11
2862.00,117.11
2861.00,117.11
2860.00,117.12
2859.00,117.12
2858.00,117.12
2857.00,117.12
2856.00,117.13
2855.00,117.13
2854.00,117.14
2853.00,117.15
2852.00,117.15
2851.00,117.16
2850.00,117.16
2849.00,117.16
2848.00,117.17
2847.00,117.17
2846.00,117.17
2845.00,117.17
2844.00,117.18
2843.00,117.18
2842.00,117.19
2841.00,117.19
2840.00,117.19
2839.00,117.19
2838.00,117.19
2837.00,117.20
2836.00,117.20
2835.00,117.20
2834.00,117.20
2833.00,117.20
2832.00,117.19
2831.00,117.19
2830.00,117.19
2829.00,117.19
2828.00,117.18
2827.00,117.18
2826.00,117.17
2825.00,117.17
2824.00,117.16
2823.00,117.15
2822.00,117.15
2821.00,117.14
2820.00,117.13
2819.00,117.13
2818.00,117.12
2817.00,117.12
2816.00,117.11
2815.00,117.10
2814.00,117.10
2813.00,117.09
2812.00,117.09
2811.00,117.08
2810.00,117.08
2809.00,117.08
2808.00,117.08
2807.00,117.08
2806.00,117.08
2805.00,117.08
2804.00,117.08
2803.00,117.08
2802.00,117.09
2801.00,117.09
2800.00,117.09
2799.00,117.10
2798.00,117.10
2797.00,117.11
2796.00,117.11
2795.00,117.11
2794.00,117.12
2793.00,117.12
2792.00,117.13
2791.00,117.13
2790.00,117.13
2789.00,117.13
2788.00,117.13
2787.00,117.13
2786.00,117.14
2785.00,117.14
2784.00,117.14
2783.00,117.14
2782.00,117.14
2781.00,117.13
2780.00,117.13
2779.00,117.13
2778.00,117.12
2777.00,117.12
2776.00,117.12
2775.00,117.11
2774.00,117.11
2773.00,117.10
2772.00,117.10
2771.00,117.09
2770.00,117.08
2769.00,117.08
2768.00,117.07
2767.00,117.07
2766.00,117.06
2765.00,117.06
2764.00,117.05
2763.00,117.05
2762.00,117.05
2761.00,117.04
2760.00,117.04
2759.00,117.04
2758.00,117.04
2757.00,117.04
2756.00,117.04
2755.00,117.04
2754.00,117.04
2753.00,117.04
2752.00,117.04
2751.00,117.04
2750.00,117.05
2749.00,117.05
2748.00,117.06
2747.00,117.06
2746.00,117.07
2745.00,117.07
2744.00,117.08
2743.00,117.08
2742.00,117.09
2741.00,117.09
2740.00,117.10
2739.00,117.11
2738.00,117.11
2737.00,117.11
2736.00,117.12
2735.00,117.12
2734.00,117.12
2733.00,117.12
2732.00,117.12
2731.00,117.12
2730.00,117.11
2729.00,117.11
2728.00,117.10
2727.00,117.10
2726.00,117.09
2725.00,117.08
2724.00,117.07
2723.00,117.06
2722.00,117.06
2721.00,117.05
2720.00,117.04
2719.00,117.03
2718.00,117.02
2717.00,117.01
2716.00,117.00
2715.00,116.99
2714.00,116.98
2713.00,116.97
2712.00,116.97
2711.00,116.96
2710.00,116.95
2709.00,116.95
2708.00,116.94
2707.00,116.94
2706.00,116.93
2705.00,116.93
2704.00,116.93
2703.00,116.93
2702.00,116.92
2701.00,116.92
2700.00,116.92
2699.00,116.92
2698.00,116.93
2697.00,116.93
2696.00,116.93
2695.00,116.94
2694.00,116.94
2693.00,116.94
2692.00,116.95
2691.00,116.95
2690.00,116.96
2689.00,116.96
2688.00,116.97
2687.00,116.98
2686.00,116.98
2685.00,116.99
2684.00,116.99
2683.00,117.00
2682.00,117.00
2681.00,117.01
2680.00,117.01
2679.00,117.02
2678.00,117.02
2677.00,117.02
2676.00,117.02
2675.00,117.02
2674.00,117.02
2673.00,117.02
2672.00,117.02
2671.00,117.02
2670.00,117.01
2669.00,117.01
2668.00,117.00
2667.00,116.99
2666.00,116.98
2665.00,116.97
2664.00,116.96
2663.00,116.95
2662.00,116.94
2661.00,116.93
2660.00,116.92
2659.00,116.92
2658.00,116.91
2657.00,116.90
2656.00,116.89
2655.00,116.88
2654.00,116.88
2653.00,116.87
2652.00,116.86
2651.00,116.86
2650.00,116.86
2649.00,116.85
2648.00,116.85
2647.00,116.85
2646.00,116.85
2645.00,116.85
2644.00,116.85
2643.00,116.85
2642.00,116.85
2641.00,116.86
2640.00,116.86
2639.00,116.86
2638.00,116.86
2637.00,116.87
2636.00,116.87
2635.00,116.88
2634.00,116.88
2633.00,116.88
2632.00,116.89
2631.00,116.89
2630.00,116.89
2629.00,116.90
2628.00,116.90
2627.00,116.90
2626.00,116.91
2625.00,116.91
2624.00,116.91
2623.00,116.92
2622.00,116.92
2621.00,116.92
2620.00,116.92
2619.00,116.92
2618.00,116.92
2617.00,116.92
2616.00,116.92
2615.00,116.91
2614.00,116.91
2613.00,116.91
2612.00,116.90
2611.00,116.90
2610.00,116.90
2609.00,116.89
2608.00,116.89
2607.00,116.88
2606.00,116.88
2605.00,116.88
2604.00,116.87
2603.00,116.87
2602.00,116.86
2601.00,116.86
2600.00,116.86
2599.00,116.86
2598.00,116.85
2597.00,116.85
2596.00,116.85
2595.00,116.85
2594.00,116.85
2593.00,116.85
2592.00,116.86
2591.00,116.86
2590.00,116.86
2589.00,116.87
2588.00,116.87
2587.00,116.88
2586.00,116.88
2585.00,116.89
2584.00,116.89
2583.00,116.90
2582.00,116.90
2581.00,116.90
2580.00,116.91
2579.00,116.91
2578.00,116.92
2577.00,116.92
2576.00,116.92
2575.00,116.92
2574.00,116.93
2573.00,116.93
2572.00,116.93
2571.00,116.92
2570.00,116.92
2569.00,116.92
2568.00,116.92
2567.00,116.91
2566.00,116.91
2565.00,116.90
2564.00,116.90
2563.00,116.89
2562.00,116.88
2561.00,116.88
2560.00,116.87
2559.00,116.86
2558.00,116.85
2557.00,116.85
2556.00,116.84
2555.00,116.83
2554.00,116.82
2553.00,116.81
2552.00,116.80
2551.00,116.80
2550.00,116.79
2549.00,116.78
2548.00,116.77
2547.00,116.76
2546.00,116.75
2545.00,116.75
2544.00,116.74
2543.00,116.74
2542.00,116.73
2541.00,116.73
2540.00,116.73
2539.00,116.73
2538.00,116.73
2537.00,116.73
2536.00,116.74
2535.00,116.74
2534.00,116.74
2533.00,116.75
2532.00,116.75
2531.00,116.76
2530.00,116.76
2529.00,116.77
2528.00,116.77
2527.00,116.77
2526.00,116.78
2525.00,116.78
2524.00,116.78
2523.00,116.78
2522.00,116.78
2521.00,116.78
2520.00,116.78
2519.00,116.77
2518.00,116.77
2517.00,116.77
2516.00,116.76
2515.00,116.76
2514.00,116.75
2513.00,116.74
2512.00,116.73
2511.00,116.73
2510.00,116.72
2509.00,116.71
2508.00,116.70
2507.00,116.69
2506.00,116.68
2505.00,116.67
2504.00,116.66
2503.00,116.65
2502.00,116.64
2501.00,116.63
2500.00,116.62
2499.00,116.61
2498.00,116.60
2497.00,116.59
2496.00,116.59
2495.00,116.58
2494.00,116.58
2493.00,116.57
2492.00,116.57
2491.00,116.57
2490.00,116.56
2489.00,116.56
2488.00,116.56
2487.00,116.56
2486.00,116.57
2485.00,116.57
2484.00,116.57
2483.00,116.57
2482.00,116.57
2481.00,116.57
2480.00,116.57
2479.00,116.58
2478.00,116.58
2477.00,116.58
2476.00,116.59
2475.00,116.59
2474.00,116.59
2473.00,116.60
2472.00,116.60
2471.00,116.60
2470.00,116.60
2469.00,116.61
2468.00,116.61
2467.00,116.61
2466.00,116.61
2465.00,116.61
2464.00,116.60
2463.00,116.60
2462.00,116.60
2461.00,116.59
2460.00,116.59
2459.00,116.58
2458.00,116.58
2457.00,116.57
2456.00,116.57
2455.00,116.56
2454.00,116.56
2453.00,116.55
2452.00,116.55
2451.00,116.54
2450.00,116.54
2449.00,116.53
2448.00,116.53
2447.00,116.53
2446.00,116.53
2445.00,116.53
2444.00,116.53
2443.00,116.53
2442.00,116.53
2441.00,116.53
2440.00,116.54
2439.00,116.54
2438.00,116.55
2437.00,116.55
2436.00,116.56
2435.00,116.56
2434.00,116.57
2433.00,116.58
2432.00,116.59
2431.00,116.60
2430.00,116.61
2429.00,116.61
2428.00,116.63
2427.00,116.64
2426.00,116.65
2425.00,116.67
2424.00,116.69
2423.00,116.70
2422.00,116.71
2421.00,116.72
2420.00,116.73
2419.00,116.74
2418.00,116.75
2417.00,116.76
2416.00,116.76
2415.00,116.76
2414.00,116.77
2413.00,116.77
2412.00,116.77
2411.00,116.77
2410.00,116.77
2409.00,116.76
2408.00,116.76
2407.00,116.75
2406.00,116.75
2405.00,116.74
2404.00,116.73
2403.00,116.73
2402.00,116.72
2401.00,116.71
2400.00,116.70
2399.00,116.69
2398.00,116.68
2397.00,116.67
2396.00,116.66
2395.00,116.65
2394.00,116.64
2393.00,116.63
2392.00,116.63
2391.00,116.62
2390.00,116.62
2389.00,116.61
2388.00,116.61
2387.00,116.60
2386.00,116.60
2385.00,116.59
2384.00,116.59
2383.00,116.59
2382.00,116.58
2381.00,116.58
2380.00,116.58
2379.00,116.59
2378.00,116.59
2377.00,116.60
2376.00,116.60
2375.00,116.60
2374.00,116.60
2373.00,116.60
2372.00,116.60
2371.00,116.59
2370.00,116.59
2369.00,116.58
2368.00,116.58
2367.00,116.57
2366.00,116.56
2365.00,116.55
2364.00,116.55
2363.00,116.55
2362.00,116.55
2361.00,116.55
2360.00,116.55
2359.00,116.55
2358.00,116.54
2357.00,116.54
2356.00,116.54
2355.00,116.54
2354.00,116.54
2353.00,116.54
2352.00,116.54
2351.00,116.53
2350.00,116.52
2349.00,116.51
2348.00,116.52
2347.00,116.52
2346.00,116.52
2345.00,116.51
2344.00,116.50
2343.00,116.49
2342.00,116.49
2341.00,116.49
2340.00,116.49
2339.00,116.49
2338.00,116.50
2337.00,116.50
2336.00,116.50
2335.00,116.50
2334.00,116.50
2333.00,116.49
2332.00,116.49
2331.00,116.50
2330.00,116.50
2329.00,116.49
2328.00,116.48
2327.00,116.48
2326.00,116.47
2325.00,116.47
2324.00,116.46
2323.00,116.45
2322.00,116.45
2321.00,116.45
2320.00,116.45
2319.00,116.46
2318.00,116.45
2317.00,116.45
2316.00,116.45
2315.00,116.45
2314.00,116.46
2313.00,116.47
2312.00,116.48
2311.00,116.48
2310.00,116.49
2309.00,116.49
2308.00,116.50
2307.00,116.50
2306.00,116.51
2305.00,116.51
2304.00,116.52
2303.00,116.52
2302.00,116.52
2301.00,116.51
2300.00,116.51
2299.00,116.51
2298.00,116.51
2297.00,116.51
2296.00,116.51
2295.00,116.51
2294.00,116.50
2293.00,116.50
2292.00,116.49
2291.00,116.49
2290.00,116.49
2289.00,116.48
2288.00,116.48
2287.00,116.48
2286.00,116.48
2285.00,116.47
2284.00,116.47
2283.00,116.46
2282.00,116.46
2281.00,116.45
2280.00,116.45
2279.00,116.45
2278.00,116.45
2277.00,116.45
2276.00,116.45
2275.00,116.45
2274.00,116.45
2273.00,116.45
2272.00,116.46
2271.00,116.46
2270.00,116.46
2269.00,116.47
2268.00,116.47
2267.00,116.48
2266.00,116.48
2265.00,116.49
2264.00,116.50
2263.00,116.50
2262.00,116.51
2261.00,116.51
2260.00,116.52
2259.00,116.52
2258.00,116.53
2257.00,116.53
2256.00,116.53
2255.00,116.54
2254.00,116.54
2253.00,116.54
2252.00,116.54
2251.00,116.54
2250.00,116.54
2249.00,116.53
2248.00,116.53
2247.00,116.53
2246.00,116.52
2245.00,116.52
2244.00,116.51
2243.00,116.50
2242.00,116.49
2241.00,116.48
2240.00,116.47
2239.00,116.46
2238.00,116.45
2237.00,116.44
2236.00,116.43
2235.00,116.42
2234.00,116.41
2233.00,116.40
2232.00,116.39
2231.00,116.38
2230.00,116.37
2229.00,116.37
2228.00,116.36
2227.00,116.35
2226.00,116.35
2225.00,116.34
2224.00,116.34
2223.00,116.34
2222.00,116.34
2221.00,116.34
2220.00,116.34
2219.00,116.34
2218.00,116.34
2217.00,116.35
2216.00,116.35
2215.00,116.36
2214.00,116.36
2213.00,116.37
2212.00,116.38
2211.00,116.38
2210.00,116.39
2209.00,116.39
2208.00,116.39
2207.00,116.39
2206.00,116.40
2205.00,116.40
2204.00,116.40
2203.00,116.40
2202.00,116.40
2201.00,116.39
2200.00,116.39
2199.00,116.38
2198.00,116.38
2197.00,116.37
2196.00,116.36
2195.00,116.36
2194.00,116.35
2193.00,116.34
2192.00,116.33
2191.00,116.32
2190.00,116.31
2189.00,116.29
2188.00,116.28
2187.00,116.27
2186.00,116.26
2185.00,116.25
2184.00,116.24
2183.00,116.23
2182.00,116.22
2181.00,116.21
2180.00,116.20
2179.00,116.20
2178.00,116.20
2177.00,116.19
2176.00,116.19
2175.00,116.19
2174.00,116.19
2173.00,116.19
2172.00,116.19
2171.00,116.20
2170.00,116.20
2169.00,116.21
2168.00,116.21
2167.00,116.22
2166.00,116.23
2165.00,116.24
2164.00,116.25
2163.00,116.26
2162.00,116.27
2161.00,116.28
2160.00,116.29
2159.00,116.30
2158.00,116.31
2157.00,116.32
2156.00,116.33
2155.00,116.33
2154.00,116.34
2153.00,116.34
2152.00,116.35
2151.00,116.35
2150.00,116.35
2149.00,116.35
2148.00,116.35
2147.00,116.35
2146.00,116.34
2145.00,116.34
2144.00,116.34
2143.00,116.33
2142.00,116.33
2141.00,116.32
2140.00,116.31
2139.00,116.30
2138.00,116.29
2137.00,116.28
2136.00,116.27
2135.00,116.26
2134.00,116.25
2133.00,116.24
2132.00,116.23
2131.00,116.22
2130.00,116.22
2129.00,116.21
2128.00,116.20
2127.00,116.20
2126.00,116.19
2125.00,116.19
2124.00,116.18
2123.00,116.18
2122.00,116.18
2121.00,116.18
2120.00,116.18
2119.00,116.18
2118.00,116.18
2117.00,116.18
2116.00,116.19
2115.00,116.19
2114.00,116.20
2113.00,116.20
2112.00,116.21
2111.00,116.21
2110.00,116.22
2109.00,116.22
2108.00,116.23
2107.00,116.24
2106.00,116.24
2105.00,116.24
2104.00,116.25
2103.00,116.25
2102.00,116.26
2101.00,116.26
2100.00,116.26
2099.00,116.27
2098.00,116.27
2097.00,116.27
2096.00,116.28
2095.00,116.28
2094.00,116.28
2093.00,116.28
2092.00,116.29
2091.00,116.29
2090.00,116.29
2089.00,116.29
2088.00,116.29
2087.00,116.28
2086.00,116.28
2085.00,116.28
2084.00,116.27
2083.00,116.27
2082.00,116.26
2081.00,116.26
2080.00,116.25
2079.00,116.25
2078.00,116.24
2077.00,116.24
2076.00,116.23
2075.00,116.23
2074.00,116.22
2073.00,116.21
2072.00,116.21
2071.00,116.20
2070.00,116.19
2069.00,116.18
2068.00,116.18
2067.00,116.19
2066.00,116.19
2065.00,116.20
2064.00,116.20
2063.00,116.20
2062.00,116.20
2061.00,116.19
2060.00,116.19
2059.00,116.19
2058.00,116.19
2057.00,116.19
2056.00,116.20
2055.00,116.20
2054.00,116.21
2053.00,116.21
2052.00,116.22
2051.00,116.22
2050.00,116.23
2049.00,116.24
2048.00,116.24
2047.00,116.25
2046.00,116.26
2045.00,116.27
2044.00,116.27
2043.00,116.28
2042.00,116.29
2041.00,116.29
2040.00,116.30
2039.00,116.30
2038.00,116.31
2037.00,116.31
2036.00,116.31
2035.00,116.31
2034.00,116.31
2033.00,116.31
2032.00,116.31
2031.00,116.30
2030.00,116.29
2029.00,116.29
2028.00,116.28
2027.00,116.27
2026.00,116.26
2025.00,116.25
2024.00,116.24
2023.00,116.23
2022.00,116.22
2021.00,116.21
2020.00,116.20
2019.00,116.19
2018.00,116.19
2017.00,116.18
2016.00,116.17
2015.00,116.17
2014.00,116.16
2013.00,116.16
2012.00,116.16
2011.00,116.16
2010.00,116.16
2009.00,116.17
2008.00,116.17
2007.00,116.18
2006.00,116.19
2005.00,116.20
2004.00,116.21
2003.00,116.22
2002.00,116.24
2001.00,116.25
2000.00,116.27
1999.00,116.28
1998.00,116.30
1997.00,116.31
1996.00,116.33
1995.00,116.35
1994.00,116.36
1993.00,116.38
1992.00,116.39
1991.00,116.41
1990.00,116.42
1989.00,116.44
1988.00,116.45
1987.00,116.46
1986.00,116.47
1985.00,116.48
1984.00,116.49
1983.00,116.50
1982.00,116.50
1981.00,116.51
1980.00,116.51
1979.00,116.51
1978.00,116.51
1977.00,116.50
1976.00,116.50
1975.00,116.49
1974.00,116.48
1973.00,116.47
1972.00,116.46
1971.00,116.44
1970.00,116.43
1969.00,116.42
1968.00,116.41
1967.00,116.40
1966.00,116.39
1965.00,116.38
1964.00,116.37
1963.00,116.37
1962.00,116.38
1961.00,116.39
1960.00,116.40
1959.00,116.41
1958.00,116.42
1957.00,116.43
1956.00,116.46
1955.00,116.48
1954.00,116.51
1953.00,116.53
1952.00,116.55
1951.00,116.57
1950.00,116.59
1949.00,116.60
1948.00,116.62
1947.00,116.63
1946.00,116.64
1945.00,116.64
1944.00,116.65
1943.00,116.65
1942.00,116.65
1941.00,116.64
1940.00,116.63
1939.00,116.62
1938.00,116.60
1937.00,116.59
1936.00,116.57
1935.00,116.56
1934.00,116.54
1933.00,116.52
1932.00,116.51
1931.00,116.49
1930.00,116.48
1929.00,116.46
1928.00,116.45
1927.00,116.44
1926.00,116.43
1925.00,116.42
1924.00,116.42
1923.00,116.42
1922.00,116.41
1921.00,116.40
1920.00,116.39
1919.00,116.38
1918.00,116.38
1917.00,116.37
1916.00,116.37
1915.00,116.37
1914.00,116.36
1913.00,116.35
1912.00,116.35
1911.00,116.34
1910.00,116.33
1909.00,116.32
1908.00,116.32
1907.00,116.31
1906.00,116.31
1905.00,116.31
1904.00,116.31
1903.00,116.31
1902.00,116.31
1901.00,116.31
1900.00,116.32
1899.00,116.33
1898.00,116.33
1897.00,116.34
1896.00,116.35
1895.00,116.36
1894.00,116.37
1893.00,116.37
1892.00,116.39
1891.00,116.40
1890.00,116.42
1889.00,116.43
1888.00,116.44
1887.00,116.45
1886.00,116.46
1885.00,116.47
1884.00,116.48
1883.00,116.49
1882.00,116.50
1881.00,116.50
1880.00,116.51
1879.00,116.52
1878.00,116.53
1877.00,116.53
1876.00,116.54
1875.00,116.54
1874.00,116.54
1873.00,116.53
1872.00,116.53
1871.00,116.52
1870.00,116.52
1869.00,116.52
1868.00,116.51
1867.00,116.50
1866.00,116.49
1865.00,116.48
1864.00,116.47
1863.00,116.47
1862.00,116.46
1861.00,116.46
1860.00,116.46
1859.00,116.46
1858.00,116.47
1857.00,116.47
1856.00,116.49
1855.00,116.50
1854.00,116.51
1853.00,116.52
1852.00,116.54
1851.00,116.55
1850.00,116.57
1849.00,116.59
1848.00,116.60
1847.00,116.62
1846.00,116.63
1845.00,116.64
1844.00,116.66
1843.00,116.67
1842.00,116.68
1841.00,116.69
1840.00,116.70
1839.00,116.71
1838.00,116.72
1837.00,116.73
1836.00,116.73
1835.00,116.73
1834.00,116.73
1833.00,116.73
1832.00,116.73
1831.00,116.74
1830.00,116.74
1829.00,116.74
1828.00,116.74
1827.00,116.74
1826.00,116.74
1825.00,116.74
1824.00,116.75
1823.00,116.75
1822.00,116.75
1821.00,116.75
1820.00,116.76
1819.00,116.76
1818.00,116.76
1817.00,116.76
1816.00,116.76
1815.00,116.76
1814.00,116.76
1813.00,116.76
1812.00,116.76
1811.00,116.76
1810.00,116.76
1809.00,116.76
1808.00,116.77
1807.00,116.77
1806.00,116.77
1805.00,116.78
1804.00,116.78
1803.00,116.78
1802.00,116.79
1801.00,116.80
1800.00,116.81
1799.00,116.82
1798.00,116.83
1797.00,116.83
1796.00,116.84
1795.00,116.84
1794.00,116.84
1793.00,116.84
1792.00,116.85
1791.00,116.88
1790.00,116.90
1789.00,116.92
1788.00,116.93
1787.00,116.94
1786.00,116.95
1785.00,116.97
1784.00,116.98
1783.00,116.99
1782.00,117.00
1781.00,117.01
1780.00,117.02
1779.00,117.02
1778.00,117.02
1777.00,117.02
1776.00,117.03
1775.00,117.03
1774.00,117.03
1773.00,117.03
1772.00,117.02
1771.00,117.02
1770.00,117.02
1769.00,117.02
1768.00,117.01
1767.00,117.01
1766.00,117.01
1765.00,117.00
1764.00,116.99
1763.00,116.99
1762.00,116.98
1761.00,116.97
1760.00,116.96
1759.00,116.95
1758.00,116.94
1757.00,116.93
1756.00,116.93
1755.00,116.92
1754.00,116.91
1753.00,116.90
1752.00,116.88
1751.00,116.88
1750.00,116.88
1749.00,116.89
1748.00,116.90
1747.00,116.91
1746.00,116.91
1745.00,116.91
1744.00,116.92
1743.00,116.92
1742.00,116.93
1741.00,116.93
1740.00,116.94
1739.00,116.94
1738.00,116.95
1737.00,116.95
1736.00,116.95
1735.00,116.95
1734.00,116.96
1733.00,116.96
1732.00,116.98
1731.00,117.00
1730.00,117.01
1729.00,117.02
1728.00,117.03
1727.00,117.03
1726.00,117.03
1725.00,117.04
1724.00,117.04
1723.00,117.04
1722.00,117.04
1721.00,117.04
1720.00,117.03
1719.00,117.03
1718.00,117.03
1717.00,117.02
1716.00,117.02
1715.00,117.02
1714.00,117.02
1713.00,117.02
1712.00,117.01
1711.00,117.01
1710.00,117.00
1709.00,116.99
1708.00,116.98
1707.00,116.98
1706.00,116.98
1705.00,116.97
1704.00,116.96
1703.00,116.95
1702.00,116.93
1701.00,116.91
1700.00,116.91
1699.00,116.91
1698.00,116.91
1697.00,116.91
1696.00,116.91
1695.00,116.91
1694.00,116.91
1693.00,116.91
1692.00,116.92
1691.00,116.92
1690.00,116.92
1689.00,116.93
1688.00,116.93
1687.00,116.93
1686.00,116.93
1685.00,116.94
1684.00,116.95
1683.00,116.96
1682.00,116.97
1681.00,116.98
1680.00,116.99
1679.00,116.99
1678.00,116.99
1677.00,116.99
1676.00,117.00
1675.00,117.00
1674.00,117.00
1673.00,117.00
1672.00,117.00
1671.00,117.00
1670.00,117.00
1669.00,117.01
1668.00,117.01
1667.00,117.00
1666.00,117.00
1665.00,116.99
1664.00,116.99
1663.00,116.98
1662.00,116.97
1661.00,116.97
1660.00,116.96
1659.00,116.95
1658.00,116.94
1657.00,116.93
1656.00,116.92
1655.00,116.91
1654.00,116.89
1653.00,116.89
1652.00,116.88
1651.00,116.87
1650.00,116.87
1649.00,116.87
1648.00,116.87
1647.00,116.86
1646.00,116.86
1645.00,116.86
1644.00,116.86
1643.00,116.87
1642.00,116.87
1641.00,116.88
1640.00,116.88
1639.00,116.89
1638.00,116.89
1637.00,116.90
1636.00,116.90
1635.00,116.91
1634.00,116.91
1633.00,116.91
1632.00,116.92
1631.00,116.92
1630.00,116.92
1629.00,116.93
1628.00,116.93
1627.00,116.94
1626.00,116.95
1625.00,116.95
1624.00,116.96
1623.00,116.96
1622.00,116.97
1621.00,116.97
1620.00,116.97
1619.00,116.97
1618.00,116.97
1617.00,116.97
1616.00,116.97
1615.00,116.98
1614.00,116.98
1613.00,116.99
1612.00,116.99
1611.00,116.98
1610.00,116.98
1609.00,116.99
1608.00,116.99
1607.00,117.00
1606.00,117.00
1605.00,117.00
1604.00,116.99
1603.00,116.98
1602.00,116.98
1601.00,116.97
1600.00,116.97
1599.00,116.96
1598.00,116.95
1597.00,116.94
1596.00,116.94
1595.00,116.93
1594.00,116.92
1593.00,116.91
1592.00,116.91
1591.00,116.90
1590.00,116.90
1589.00,116.90
1588.00,116.91
1587.00,116.91
1586.00,116.91
1585.00,116.91
1584.00,116.92
1583.00,116.93
1582.00,116.93
1581.00,116.94
1580.00,116.95
1579.00,116.96
1578.00,116.97
1577.00,116.98
1576.00,116.99
1575.00,116.99
1574.00,116.99
1573.00,117.00
1572.00,117.01
1571.00,117.01
1570.00,117.01
1569.00,117.02
1568.00,117.02
1567.00,117.02
1566.00,117.02
1565.00,117.02
1564.00,117.02
1563.00,117.01
1562.00,117.00
1561.00,116.98
1560.00,116.96
1559.00,116.95
1558.00,116.96
1557.00,116.96
1556.00,116.97
1555.00,116.97
1554.00,116.96
1553.00,116.96
1552.00,116.96
1551.00,116.95
1550.00,116.95
1549.00,116.95
1548.00,116.94
1547.00,116.93
1546.00,116.93
1545.00,116.93
1544.00,116.93
1543.00,116.94
1542.00,116.93
1541.00,116.93
1540.00,116.93
1539.00,116.93
1538.00,116.92
1537.00,116.92
1536.00,116.91
1535.00,116.90
1534.00,116.90
1533.00,116.89
1532.00,116.89
1531.00,116.89
1530.00,116.89
1529.00,116.89
1528.00,116.90
1527.00,116.90
1526.00,116.90
1525.00,116.90
1524.00,116.91
1523.00,116.91
1522.00,116.91
1521.00,116.92
1520.00,116.92
1519.00,116.94
1518.00,116.95
1517.00,116.96
1516.00,116.97
1515.00,116.97
1514.00,116.98
1513.00,116.98
1512.00,116.98
1511.00,116.99
1510.00,116.99
1509.00,116.99
1508.00,116.99
1507.00,117.00
1506.00,117.00
1505.00,116.99
1504.00,116.99
1503.00,116.99
1502.00,116.99
1501.00,116.98
1500.00,116.97
1499.00,116.96
1498.00,116.95
1497.00,116.93
1496.00,116.92
1495.00,116.92
1494.00,116.91
1493.00,116.91
1492.00,116.91
1491.00,116.91
1490.00,116.91
1489.00,116.91
1488.00,116.91
1487.00,116.92
1486.00,116.92
1485.00,116.92
1484.00,116.92
1483.00,116.92
1482.00,116.93
1481.00,116.93
1480.00,116.93
1479.00,116.93
1478.00,116.93
1477.00,116.93
1476.00,116.94
1475.00,116.95
1474.00,116.96
1473.00,116.96
1472.00,116.96
1471.00,116.98
1470.00,116.99
1469.00,117.00
1468.00,117.01
1467.00,117.02
1466.00,117.03
1465.00,117.04
1464.00,117.04
1463.00,117.04
1462.00,117.05
1461.00,117.05
1460.00,117.05
1459.00,117.05
1458.00,117.05
1457.00,117.04
1456.00,117.03
1455.00,117.03
1454.00,117.03
1453.00,117.03
1452.00,117.03
1451.00,117.02
1450.00,117.02
1449.00,117.02
1448.00,117.02
1447.00,117.02
1446.00,117.01
1445.00,117.01
1444.00,117.00
1443.00,116.99
1442.00,116.98
1441.00,116.97
1440.00,116.96
1439.00,116.95
1438.00,116.95
1437.00,116.93
1436.00,116.92
1435.00,116.92
1434.00,116.92
1433.00,116.92
1432.00,116.91
1431.00,116.91
1430.00,116.91
1429.00,116.91
1428.00,116.91
1427.00,116.91
1426.00,116.92
1425.00,116.92
1424.00,116.93
1423.00,116.93
1422.00,116.94
1421.00,116.94
1420.00,116.94
1419.00,116.95
1418.00,116.96
1417.00,116.98
1416.00,116.98
1415.00,116.99
1414.00,117.00
1413.00,117.01
1412.00,117.02
1411.00,117.02
1410.00,117.02
1409.00,117.03
1408.00,117.03
1407.00,117.03
1406.00,117.03
1405.00,117.03
1404.00,117.03
1403.00,117.03
1402.00,117.03
1401.00,117.02
1400.00,117.02
1399.00,117.02
1398.00,117.02
1397.00,117.02
1396.00,117.02
1395.00,117.02
1394.00,117.02
1393.00,117.02
1392.00,117.01
1391.00,117.00
1390.00,117.00
1389.00,116.99
1388.00,116.98
1387.00,116.98
1386.00,116.98
1385.00,116.97
1384.00,116.97
1383.00,116.96
1382.00,116.95
1381.00,116.95
1380.00,116.95
1379.00,116.94
1378.00,116.94
1377.00,116.94
1376.00,116.94
1375.00,116.94
1374.00,116.94
1373.00,116.94
1372.00,116.95
1371.00,116.95
1370.00,116.95
1369.00,116.96
1368.00,116.96
1367.00,116.96
1366.00,116.97
1365.00,116.97
1364.00,116.98
1363.00,116.99
1362.00,117.00
1361.00,117.00
1360.00,117.00
1359.00,117.01
1358.00,117.01
1357.00,117.01
1356.00,117.02
1355.00,117.02
1354.00,117.03
1353.00,117.03
1352.00,117.03
1351.00,117.03
1350.00,117.04
1349.00,117.04
1348.00,117.03
1347.00,117.03
1346.00,117.03
1345.00,117.03
1344.00,117.02
1343.00,117.02
1342.00,117.02
1341.00,117.01
1340.00,117.00
1339.00,117.00
1338.00,116.99
1337.00,116.98
1336.00,116.98
1335.00,116.97
1334.00,116.96
1333.00,116.96
1332.00,116.95
1331.00,116.95
1330.00,116.94
1329.00,116.94
1328.00,116.93
1327.00,116.93
1326.00,116.93
1325.00,116.93
1324.00,116.92
1323.00,116.92
1322.00,116.92
1321.00,116.92
1320.00,116.93
1319.00,116.93
1318.00,116.94
1317.00,116.94
1316.00,116.95
1315.00,116.95
1314.00,116.95
1313.00,116.96
1312.00,116.96
1311.00,116.97
1310.00,116.98
1309.00,116.99
1308.00,117.00
1307.00,117.00
1306.00,117.00
1305.00,117.01
1304.00,117.01
1303.00,117.02
1302.00,117.02
1301.00,117.02
1300.00,117.03
1299.00,117.03
1298.00,117.03
1297.00,117.03
1296.00,117.02
1295.00,117.02
1294.00,117.02
1293.00,117.01
1292.00,117.01
1291.00,117.00
1290.00,117.00
1289.00,116.99
1288.00,116.98
1287.00,116.97
1286.00,116.96
1285.00,116.95
1284.00,116.94
1283.00,116.94
1282.00,116.93
1281.00,116.92
1280.00,116.91
1279.00,116.90
1278.00,116.89
1277.00,116.88
1276.00,116.88
1275.00,116.88
1274.00,116.87
1273.00,116.87
1272.00,116.87
1271.00,116.86
1270.00,116.86
1269.00,116.86
1268.00,116.85
1267.00,116.85
1266.00,116.85
1265.00,116.84
1264.00,116.84
1263.00,116.84
1262.00,116.85
1261.00,116.85
1260.00,116.86
1259.00,116.86
1258.00,116.88
1257.00,116.89
1256.00,116.90
1255.00,116.92
1254.00,116.93
1253.00,116.94
1252.00,116.95
1251.00,116.95
1250.00,116.96
1249.00,116.97
1248.00,116.98
1247.00,116.98
1246.00,116.99
1245.00,116.99
1244.00,116.99
1243.00,116.99
1242.00,116.99
1241.00,116.99
1240.00,116.98
1239.00,116.98
1238.00,116.97
1237.00,116.97
1236.00,116.96
1235.00,116.95
1234.00,116.95
1233.00,116.94
1232.00,116.93
1231.00,116.92
1230.00,116.91
1229.00,116.91
1228.00,116.90
1227.00,116.89
1226.00,116.88
1225.00,116.87
1224.00,116.86
1223.00,116.85
1222.00,116.85
1221.00,116.84
1220.00,116.84
1219.00,116.83
1218.00,116.82
1217.00,116.82
1216.00,116.81
1215.00,116.81
1214.00,116.81
1213.00,116.81
1212.00,116.81
1211.00,116.81
1210.00,116.82
1209.00,116.82
1208.00,116.82
1207.00,116.83
1206.00,116.83
1205.00,116.84
1204.00,116.84
1203.00,116.85
1202.00,116.85
1201.00,116.86
1200.00,116.87
1199.00,116.87
1198.00,116.88
1197.00,116.88
1196.00,116.88
1195.00,116.89
1194.00,116.89
1193.00,116.89
1192.00,116.89
1191.00,116.89
1190.00,116.89
1189.00,116.89
1188.00,116.89
1187.00,116.89
1186.00,116.88
1185.00,116.88
1184.00,116.87
1183.00,116.87
1182.00,116.86
1181.00,116.85
1180.00,116.85
1179.00,116.84
1178.00,116.83
1177.00,116.82
1176.00,116.81
1175.00,116.80
1174.00,116.80
1173.00,116.79
1172.00,116.78
1171.00,116.77
1170.00,116.77
1169.00,116.76
1168.00,116.76
1167.00,116.75
1166.00,116.75
1165.00,116.75
1164.00,116.75
1163.00,116.74
1162.00,116.74
1161.00,116.74
1160.00,116.74
1159.00,116.74
1158.00,116.74
1157.00,116.74
1156.00,116.75
1155.00,116.75
1154.00,116.75
1153.00,116.76
1152.00,116.77
1151.00,116.77
1150.00,116.78
1149.00,116.79
1148.00,116.79
1147.00,116.80
1146.00,116.80
1145.00,116.81
1144.00,116.81
1143.00,116.81
1142.00,116.82
1141.00,116.82
1140.00,116.83
1139.00,116.83
1138.00,116.83
1137.00,116.83
1136.00,116.83
1135.00,116.83
1134.00,116.83
1133.00,116.83
1132.00,116.82
1131.00,116.82
1130.00,116.81
1129.00,116.80
1128.00,116.79
1127.00,116.79
1126.00,116.78
1125.00,116.78
1124.00,116.77
1123.00,116.77
1122.00,116.76
1121.00,116.75
1120.00,116.75
1119.00,116.74
1118.00,116.73
1117.00,116.73
1116.00,116.72
1115.00,116.71
1114.00,116.71
1113.00,116.70
1112.00,116.70
1111.00,116.70
1110.00,116.70
1109.00,116.70
1108.00,116.70
1107.00,116.70
1106.00,116.70
1105.00,116.70
1104.00,116.71
1103.00,116.71
1102.00,116.71
1101.00,116.72
1100.00,116.72
1099.00,116.73
1098.00,116.73
1097.00,116.74
1096.00,116.74
1095.00,116.75
1094.00,116.75
1093.00,116.75
1092.00,116.76
1091.00,116.76
1090.00,116.77
1089.00,116.77
1088.00,116.78
1087.00,116.77
1086.00,116.77
1085.00,116.77
1084.00,116.77
1083.00,116.78
1082.00,116.77
1081.00,116.77
1080.00,116.77
1079.00,116.77
1078.00,116.76
1077.00,116.75
1076.00,116.75
1075.00,116.74
1074.00,116.73
1073.00,116.73
1072.00,116.72
1071.00,116.71
1070.00,116.71
1069.00,116.70
1068.00,116.70
1067.00,116.69
1066.00,116.68
1065.00,116.68
1064.00,116.68
1063.00,116.68
1062.00,116.67
1061.00,116.67
1060.00,116.67
1059.00,116.66
1058.00,116.66
1057.00,116.66
1056.00,116.67
1055.00,116.67
1054.00,116.67
1053.00,116.67
1052.00,116.66
1051.00,116.66
1050.00,116.67
1049.00,116.68
1048.00,116.69
1047.00,116.71
1046.00,116.72
1045.00,116.74
1044.00,116.75
1043.00,116.77
1042.00,116.78
1041.00,116.78
1040.00,116.79
1039.00,116.80
1038.00,116.81
1037.00,116.81
1036.00,116.82
1035.00,116.82
1034.00,116.82
1033.00,116.83
1032.00,116.83
1031.00,116.84
1030.00,116.84
1029.00,116.85
1028.00,116.85
1027.00,116.85
1026.00,116.85
1025.00,116.85
1024.00,116.85
1023.00,116.85
1022.00,116.85
1021.00,116.85
1020.00,116.86
1019.00,116.86
1018.00,116.86
1017.00,116.85
1016.00,116.85
1015.00,116.85
1014.00,116.85
1013.00,116.86
1012.00,116.86
1011.00,116.86
1010.00,116.86
1009.00,116.87
1008.00,116.87
1007.00,116.87
1006.00,116.87
1005.00,116.88
1004.00,116.88
1003.00,116.89
1002.00,116.90
1001.00,116.91
1000.00,116.92
999.00,116.92
998.00,116.93
997.00,116.94
996.00,116.95
995.00,116.96
994.00,116.97
993.00,116.98
992.00,116.99
991.00,117.00
990.00,117.01
989.00,117.02
988.00,117.03
987.00,117.04
986.00,117.05
985.00,117.06
984.00,117.07
983.00,117.07
982.00,117.08
981.00,117.08
980.00,117.09
979.00,117.09
978.00,117.10
977.00,117.10
976.00,117.11
975.00,117.11
974.00,117.11
973.00,117.11
972.00,117.11
971.00,117.10
970.00,117.10
969.00,117.10
968.00,117.10
967.00,117.10
966.00,117.10
965.00,117.09
964.00,117.09
963.00,117.08
962.00,117.07
961.00,117.07
960.00,117.07
959.00,117.07
958.00,117.07
957.00,117.07
956.00,117.07
955.00,117.07
954.00,117.07
953.00,117.07
952.00,117.07
951.00,117.07
950.00,117.08
949.00,117.08
948.00,117.09
947.00,117.09
946.00,117.09
945.00,117.09
944.00,117.10
943.00,117.11
942.00,117.12
941.00,117.13
940.00,117.14
939.00,117.15
938.00,117.16
937.00,117.16
936.00,117.17
935.00,117.18
934.00,117.18
933.00,117.19
932.00,117.20
931.00,117.20
930.00,117.20
929.00,117.21
928.00,117.21
927.00,117.21
926.00,117.22
925.00,117.22
924.00,117.22
923.00,117.22
922.00,117.22
921.00,117.22
920.00,117.21
919.00,117.20
918.00,117.20
917.00,117.19
916.00,117.19
915.00,117.19
914.00,117.18
913.00,117.18
912.00,117.17
911.00,117.17
910.00,117.16
909.00,117.15
908.00,117.15
907.00,117.15
906.00,117.14
905.00,117.14
904.00,117.14
903.00,117.13
902.00,117.13
901.00,117.13
900.00,117.13
899.00,117.13
898.00,117.13
897.00,117.13
896.00,117.13
895.00,117.13
894.00,117.14
893.00,117.14
892.00,117.15
891.00,117.15
890.00,117.16
889.00,117.16
888.00,117.17
887.00,117.17
886.00,117.18
885.00,117.18
884.00,117.18
883.00,117.18
882.00,117.18
881.00,117.19
880.00,117.20
879.00,117.20
878.00,117.21
877.00,117.21
876.00,117.20
875.00,117.20
874.00,117.21
873.00,117.21
872.00,117.21
871.00,117.22
870.00,117.22
869.00,117.22
868.00,117.22
867.00,117.22
866.00,117.21
865.00,117.20
864.00,117.20
863.00,117.20
862.00,117.20
861.00,117.19
860.00,117.19
859.00,117.19
858.00,117.18
857.00,117.17
856.00,117.17
855.00,117.16
854.00,117.16
853.00,117.15
852.00,117.15
851.00,117.15
850.00,117.15
849.00,117.14
848.00,117.14
847.00,117.14
846.00,117.14
845.00,117.14
844.00,117.14
843.00,117.14
842.00,117.14
841.00,117.14
840.00,117.14
839.00,117.14
838.00,117.14
837.00,117.14
836.00,117.15
835.00,117.15
834.00,117.15
833.00,117.15
832.00,117.15
831.00,117.15
830.00,117.15
829.00,117.15
828.00,117.15
827.00,117.15
826.00,117.15
825.00,117.15
824.00,117.15
823.00,117.16
822.00,117.16
821.00,117.16
820.00,117.17
819.00,117.17
818.00,117.17
817.00,117.17
816.00,117.17
815.00,117.17
814.00,117.16
813.00,117.16
812.00,117.15
811.00,117.15
810.00,117.14
809.00,117.13
808.00,117.13
807.00,117.12
806.00,117.12
805.00,117.12
804.00,117.12
803.00,117.12
802.00,117.12
801.00,117.11
800.00,117.11
799.00,117.11
798.00,117.11
797.00,117.11
796.00,117.11
795.00,117.11
794.00,117.11
793.00,117.12
792.00,117.12
791.00,117.13
790.00,117.13
789.00,117.14
788.00,117.15
787.00,117.15
786.00,117.15
785.00,117.16
784.00,117.17
783.00,117.17
782.00,117.18
781.00,117.18
780.00,117.19
779.00,117.19
778.00,117.19
777.00,117.20
776.00,117.20
775.00,117.20
774.00,117.20
773.00,117.21
772.00,117.21
771.00,117.21
770.00,117.21
769.00,117.21
768.00,117.20
767.00,117.20
766.00,117.20
765.00,117.20
764.00,117.20
763.00,117.19
762.00,117.19
761.00,117.18
760.00,117.18
759.00,117.17
758.00,117.17
757.00,117.16
756.00,117.16
755.00,117.15
754.00,117.15
753.00,117.14
752.00,117.14
751.00,117.13
750.00,117.12
749.00,117.12
748.00,117.11
747.00,117.10
746.00,117.10
745.00,117.10
744.00,117.10
743.00,117.10
742.00,117.10
741.00,117.09
740.00,117.09
739.00,117.09
738.00,117.09
737.00,117.10
736.00,117.10
735.00,117.10
734.00,117.10
733.00,117.10
732.00,117.11
731.00,117.12
730.00,117.12
729.00,117.12
728.00,117.12
727.00,117.12
726.00,117.13
725.00,117.13
724.00,117.13
723.00,117.14
722.00,117.14
721.00,117.14
720.00,117.14
719.00,117.14
718.00,117.15
717.00,117.15
716.00,117.15
715.00,117.15
714.00,117.14
713.00,117.14
712.00,117.14
711.00,117.13
710.00,117.13
709.00,117.13
708.00,117.13
707.00,117.12
706.00,117.11
705.00,117.11
704.00,117.10
703.00,117.09
702.00,117.08
701.00,117.08
700.00,117.07
699.00,117.06
698.00,117.06
697.00,117.05
696.00,117.05
695.00,117.04
694.00,117.03
693.00,117.02
692.00,117.01
691.00,117.01
690.00,117.01
689.00,117.00
688.00,117.00
687.00,116.99
686.00,116.99
685.00,116.98
684.00,116.98
683.00,116.99
682.00,116.99
681.00,116.98
680.00,116.98
679.00,116.98
678.00,116.99
677.00,117.00
676.00,117.00
675.00,117.00
674.00,117.00
673.00,117.01
672.00,117.02
671.00,117.04
670.00,117.09
669.00,117.12
668.00,117.13
667.00,117.09
666.00,117.03
665.00,117.00
664.00,117.00
663.00,117.00
662.00,117.01
661.00,117.01
660.00,117.00
659.00,117.00
658.00,116.99
657.00,116.99
656.00,116.98
655.00,116.98
654.00,116.97
653.00,116.96
652.00,116.95
651.00,116.94
650.00,116.94
649.00,116.93
648.00,116.92
647.00,116.91
646.00,116.89
645.00,116.89
644.00,116.89
643.00,116.90
642.00,116.90
641.00,116.90
640.00,116.89
639.00,116.88
638.00,116.87
637.00,116.86
636.00,116.86
635.00,116.85
634.00,116.85
633.00,116.85
632.00,116.85
631.00,116.85
630.00,116.85
629.00,116.85
628.00,116.86
627.00,116.86
626.00,116.87
625.00,116.87
624.00,116.86
623.00,116.85
622.00,116.84
621.00,116.84
620.00,116.85
619.00,116.86
618.00,116.87
617.00,116.88
616.00,116.88
615.00,116.88
614.00,116.88
613.00,116.89
612.00,116.89
611.00,116.89
610.00,116.89
609.00,116.89
608.00,116.89
607.00,116.89
606.00,116.89
605.00,116.89
604.00,116.88
603.00,116.88
602.00,116.89
601.00,116.89
600.00,116.88
599.00,116.87
598.00,116.86
597.00,116.86
596.00,116.85
595.00,116.84
594.00,116.84
593.00,116.84
592.00,116.85
591.00,116.85
590.00,116.84
589.00,116.83
588.00,116.82
587.00,116.82
586.00,116.81
585.00,116.81
584.00,116.80
583.00,116.80
582.00,116.79
581.00,116.80
580.00,116.80
579.00,116.79
578.00,116.80
577.00,116.80
576.00,116.81
575.00,116.81
574.00,116.81
573.00,116.81
572.00,116.81
571.00,116.81
570.00,116.81
569.00,116.82
568.00,116.83
567.00,116.83
566.00,116.84
565.00,116.85
564.00,116.85
563.00,116.86
562.00,116.86
561.00,116.87
560.00,116.87
559.00,116.86
558.00,116.86
557.00,116.86
556.00,116.87
555.00,116.88
554.00,116.89
553.00,116.90
552.00,116.91
551.00,116.91
550.00,116.92
549.00,116.93
548.00,116.92
547.00,116.92
546.00,116.92
545.00,116.92
544.00,116.94
543.00,116.95
542.00,116.96
541.00,116.96
540.00,116.96
539.00,116.96
538.00,116.96
537.00,116.97
536.00,116.98
535.00,116.99
534.00,117.01
533.00,117.02
532.00,117.03
531.00,117.03
530.00,117.03
529.00,117.04
528.00,117.05
527.00,117.06
526.00,117.07
525.00,117.08
524.00,117.09
523.00,117.09
522.00,117.10
521.00,117.12
520.00,117.14
519.00,117.15
518.00,117.15
517.00,117.16
516.00,117.17
515.00,117.18
514.00,117.18
513.00,117.19
512.00,117.19
511.00,117.19
510.00,117.20
509.00,117.22
508.00,117.22
507.00,117.22
506.00,117.22
505.00,117.22
504.00,117.22
503.00,117.22
502.00,117.22
501.00,117.21
500.00,117.21
