3996.73391,0.00046
3994.67373,0.00018
3992.61356,0.00000
3990.55339,0.00004
3988.49322,0.00015
3986.43305,0.00011
3984.37287,0.00005
3982.31270,0.00025
3980.25253,0.00042
3978.19236,0.00024
3976.13219,0.00003
3974.07201,0.00005
3972.01184,0.00027
3969.95167,0.00053
3967.89150,0.00068
3965.83133,0.00068
3963.77115,0.00057
3961.71098,0.00041
3959.65081,0.00036
3957.59064,0.00044
3955.53046,0.00055
3953.47029,0.00057
3951.41012,0.00058
3949.34995,0.00069
3947.28978,0.00073
3945.22960,0.00061
3943.16943,0.00051
3941.10926,0.00045
3939.04909,0.00026
3936.98892,0.00004
3934.92874,0.00009
3932.86857,0.00043
3930.80840,0.00085
3928.74823,0.00121
3926.68805,0.00134
3924.62788,0.00107
3922.56771,0.00062
3920.50754,0.00042
3918.44737,0.00036
3916.38719,0.00017
3914.32702,0.00003
3912.26685,0.00022
3910.20668,0.00061
3908.14651,0.00101
3906.08633,0.00136
3904.02616,0.00160
3901.96599,0.00162
3899.90582,0.00143
3897.84565,0.00118
3895.78547,0.00090
3893.72530,0.00058
3891.66513,0.00033
3889.60496,0.00038
3887.54478,0.00073
3885.48461,0.00120
3883.42444,0.00163
3881.36427,0.00187
3879.30410,0.00172
3877.24392,0.00145
3875.18375,0.00129
3873.12358,0.00130
3871.06341,0.00151
3869.00324,0.00155
3866.94306,0.00124
3864.88289,0.00095
3862.82272,0.00076
3860.76255,0.00061
3858.70237,0.00075
3856.64220,0.00122
3854.58203,0.00164
3852.52186,0.00143
3850.46169,0.00088
3848.40151,0.00072
3846.34134,0.00095
3844.28117,0.00115
3842.22100,0.00124
3840.16083,0.00134
3838.10065,0.00126
3836.04048,0.00102
3833.98031,0.00082
3831.92014,0.00055
3829.85997,0.00027
3827.79979,0.00021
3825.73962,0.00035
3823.67945,0.00058
3821.61928,0.00108
3819.55910,0.00169
3817.49893,0.00170
3815.43876,0.00112
3813.37859,0.00065
3811.31842,0.00060
3809.25824,0.00093
3807.19807,0.00136
3805.13790,0.00151
3803.07773,0.00124
3801.01756,0.00086
3798.95738,0.00075
3796.89721,0.00069
3794.83704,0.00064
3792.77687,0.00094
3790.71670,0.00134
3788.65652,0.00142
3786.59635,0.00122
3784.53618,0.00090
3782.47601,0.00067
3780.41583,0.00080
3778.35566,0.00113
3776.29549,0.00119
3774.23532,0.00099
3772.17515,0.00096
3770.11497,0.00115
3768.05480,0.00141
3765.99463,0.00160
3763.93446,0.00144
3761.87429,0.00105
3759.81411,0.00107
3757.75394,0.00154
3755.69377,0.00192
3753.63360,0.00215
3751.57342,0.00214
3749.51325,0.00180
3747.45308,0.00151
3745.39291,0.00145
3743.33274,0.00156
3741.27256,0.00175
3739.21239,0.00183
3737.15222,0.00160
3735.09205,0.00089
3733.03188,0.00018
3730.97170,0.00004
3728.91153,0.00023
3726.85136,0.00041
3724.79119,0.00062
3722.73102,0.00095
3720.67084,0.00131
3718.61067,0.00157
3716.55050,0.00175
3714.49033,0.00189
3712.43015,0.00181
3710.36998,0.00154
3708.30981,0.00146
3706.24964,0.00155
3704.18947,0.00162
3702.12929,0.00164
3700.06912,0.00152
3698.00895,0.00140
3695.94878,0.00136
3693.88861,0.00125
3691.82843,0.00135
3689.76826,0.00176
3687.70809,0.00186
3685.64792,0.00154
3683.58775,0.00131
3681.52757,0.00156
3679.46740,0.00238
3677.40723,0.00334
3675.34706,0.00334
3673.28688,0.00213
3671.22671,0.00105
3669.16654,0.00072
3667.10637,0.00089
3665.04620,0.00128
3662.98602,0.00179
3660.92585,0.00220
3658.86568,0.00220
3656.80551,0.00188
3654.74534,0.00186
3652.68516,0.00237
3650.62499,0.00302
3648.56482,0.00325
3646.50465,0.00322
3644.44447,0.00332
3642.38430,0.00343
3640.32413,0.00344
3638.26396,0.00340
3636.20379,0.00345
3634.14361,0.00367
3632.08344,0.00399
3630.02327,0.00448
3627.96310,0.00511
3625.90293,0.00522
3623.84275,0.00497
3621.78258,0.00494
3619.72241,0.00515
3617.66224,0.00532
3615.60207,0.00557
3613.54189,0.00593
3611.48172,0.00611
3609.42155,0.00608
3607.36138,0.00598
3605.30120,0.00602
3603.24103,0.00622
3601.18086,0.00644
3599.12069,0.00665
3597.06052,0.00693
3595.00034,0.00729
3592.94017,0.00754
3590.88000,0.00758
3588.81983,0.00739
3586.75966,0.00725
3584.69948,0.00744
3582.63931,0.00785
3580.57914,0.00834
3578.51897,0.00865
3576.45879,0.00859
3574.39862,0.00857
3572.33845,0.00902
3570.27828,0.00979
3568.21811,0.01037
3566.15793,0.01041
3564.09776,0.01015
3562.03759,0.01009
3559.97742,0.01022
3557.91725,0.01030
3555.85707,0.01044
3553.79690,0.01083
3551.73673,0.01117
3549.67656,0.01129
3547.61639,0.01145
3545.55621,0.01161
3543.49604,0.01155
3541.43587,0.01152
3539.37570,0.01167
3537.31552,0.01187
3535.25535,0.01208
3533.19518,0.01238
3531.13501,0.01273
3529.07484,0.01307
3527.01466,0.01332
3524.95449,0.01335
3522.89432,0.01326
3520.83415,0.01325
3518.77398,0.01341
3516.71380,0.01358
3514.65363,0.01375
3512.59346,0.01407
3510.53329,0.01441
3508.47312,0.01459
3506.41294,0.01460
3504.35277,0.01454
3502.29260,0.01468
3500.23243,0.01528
3498.17225,0.01609
3496.11208,0.01646
3494.05191,0.01631
3491.99174,0.01624
3489.93157,0.01651
3487.87139,0.01674
3485.81122,0.01680
3483.75105,0.01691
3481.69088,0.01695
3479.63071,0.01670
3477.57053,0.01660
3475.51036,0.01704
3473.45019,0.01765
3471.39002,0.01800
3469.32984,0.01789
3467.26967,0.01755
3465.20950,0.01752
3463.14933,0.01775
3461.08916,0.01784
3459.02898,0.01785
3456.96881,0.01808
3454.90864,0.01853
3452.84847,0.01890
3450.78830,0.01897
3448.72812,0.01884
3446.66795,0.01872
3444.60778,0.01863
3442.54761,0.01860
3440.48744,0.01877
3438.42726,0.01909
3436.36709,0.01923
3434.30692,0.01922
3432.24675,0.01924
3430.18657,0.01924
3428.12640,0.01939
3426.06623,0.01968
3424.00606,0.01992
3421.94589,0.02005
3419.88571,0.02015
3417.82554,0.02023
3415.76537,0.02017
3413.70520,0.02013
3411.64503,0.02024
3409.58485,0.02023
3407.52468,0.02035
3405.46451,0.02078
3403.40434,0.02090
3401.34416,0.02066
3399.28399,0.02050
3397.22382,0.02048
3395.16365,0.02074
3393.10348,0.02133
3391.04330,0.02175
3388.98313,0.02185
3386.92296,0.02168
3384.86279,0.02133
3382.80262,0.02120
3380.74244,0.02130
3378.68227,0.02140
3376.62210,0.02150
3374.56193,0.02159
3372.50176,0.02158
3370.44158,0.02156
3368.38141,0.02150
3366.32124,0.02143
3364.26107,0.02146
3362.20089,0.02152
3360.14072,0.02167
3358.08055,0.02198
3356.02038,0.02222
3353.96021,0.02228
3351.90003,0.02226
3349.83986,0.02210
3347.77969,0.02177
3345.71952,0.02153
3343.65935,0.02152
3341.59917,0.02163
3339.53900,0.02165
3337.47883,0.02140
3335.41866,0.02115
3333.35849,0.02123
3331.29831,0.02154
3329.23814,0.02183
3327.17797,0.02212
3325.11780,0.02238
3323.05762,0.02250
3320.99745,0.02247
3318.93728,0.02227
3316.87711,0.02197
3314.81694,0.02185
3312.75676,0.02188
3310.69659,0.02181
3308.63642,0.02172
3306.57625,0.02190
3304.51608,0.02225
3302.45590,0.02237
3300.39573,0.02232
3298.33556,0.02235
3296.27539,0.02230
3294.21521,0.02219
3292.15504,0.02214
3290.09487,0.02221
3288.03470,0.02246
3285.97453,0.02265
3283.91435,0.02251
3281.85418,0.02222
3279.79401,0.02202
3277.73384,0.02209
3275.67367,0.02222
3273.61349,0.02203
3271.55332,0.02188
3269.49315,0.02210
3267.43298,0.02225
3265.37281,0.02207
3263.31263,0.02185
3261.25246,0.02178
3259.19229,0.02181
3257.13212,0.02192
3255.07194,0.02207
3253.01177,0.02228
3250.95160,0.02264
3248.89143,0.02282
3246.83126,0.02254
3244.77108,0.02229
3242.71091,0.02232
3240.65074,0.02235
3238.59057,0.02227
3236.53040,0.02209
3234.47022,0.02176
3232.41005,0.02156
3230.34988,0.02176
3228.28971,0.02197
3226.22954,0.02192
3224.16936,0.02179
3222.10919,0.02161
3220.04902,0.02155
3217.98885,0.02178
3215.92867,0.02208
3213.86850,0.02209
3211.80833,0.02167
3209.74816,0.02127
3207.68799,0.02137
3205.62781,0.02166
3203.56764,0.02170
3201.50747,0.02164
3199.44730,0.02162
3197.38713,0.02149
3195.32695,0.02135
3193.26678,0.02131
3191.20661,0.02121
3189.14644,0.02120
3187.08626,0.02129
3185.02609,0.02111
3182.96592,0.02087
3180.90575,0.02092
3178.84558,0.02096
3176.78540,0.02076
3174.72523,0.02043
3172.66506,0.02014
3170.60489,0.02022
3168.54472,0.02058
3166.48454,0.02070
3164.42437,0.02053
3162.36420,0.02042
3160.30403,0.02047
3158.24386,0.02056
3156.18368,0.02053
3154.12351,0.02034
3152.06334,0.02017
3150.00317,0.02024
3147.94299,0.02042
3145.88282,0.02045
3143.82265,0.02024
3141.76248,0.01997
3139.70231,0.01977
3137.64213,0.01945
3135.58196,0.01904
3133.52179,0.01889
3131.46162,0.01901
3129.40145,0.01910
3127.34127,0.01897
3125.28110,0.01869
3123.22093,0.01850
3121.16076,0.01850
3119.10058,0.01865
3117.04041,0.01870
3114.98024,0.01859
3112.92007,0.01842
3110.85990,0.01818
3108.79972,0.01800
3106.73955,0.01814
3104.67938,0.01838
3102.61921,0.01826
3100.55904,0.01796
3098.49886,0.01786
3096.43869,0.01779
3094.37852,0.01760
3092.31835,0.01750
3090.25818,0.01739
3088.19800,0.01713
3086.13783,0.01706
3084.07766,0.01724
3082.01749,0.01739
3079.95731,0.01735
3077.89714,0.01710
3075.83697,0.01674
3073.77680,0.01645
3071.71663,0.01630
3069.65645,0.01630
3067.59628,0.01641
3065.53611,0.01657
3063.47594,0.01666
3061.41577,0.01649
3059.35559,0.01615
3057.29542,0.01590
3055.23525,0.01576
3053.17508,0.01578
3051.11491,0.01589
3049.05473,0.01587
3046.99456,0.01568
3044.93439,0.01554
3042.87422,0.01546
3040.81404,0.01529
3038.75387,0.01500
3036.69370,0.01482
3034.63353,0.01491
3032.57336,0.01502
3030.51318,0.01503
3028.45301,0.01504
3026.39284,0.01502
3024.33267,0.01485
3022.27250,0.01442
3020.21232,0.01403
3018.15215,0.01402
3016.09198,0.01429
3014.03181,0.01438
3011.97163,0.01404
3009.91146,0.01360
3007.85129,0.01355
3005.79112,0.01386
3003.73095,0.01412
3001.67077,0.01411
2999.61060,0.01388
2997.55043,0.01350
2995.49026,0.01326
2993.43009,0.01342
2991.36991,0.01357
2989.30974,0.01326
2987.24957,0.01295
2985.18940,0.01289
2983.12923,0.01275
2981.06905,0.01250
2979.00888,0.01227
2976.94871,0.01217
2974.88854,0.01230
2972.82836,0.01245
2970.76819,0.01250
2968.70802,0.01259
2966.64785,0.01262
2964.58768,0.01243
2962.52750,0.01230
2960.46733,0.01252
2958.40716,0.01279
2956.34699,0.01274
2954.28682,0.01260
2952.22664,0.01255
2950.16647,0.01262
2948.10630,0.01273
2946.04613,0.01276
2943.98596,0.01283
2941.92578,0.01302
2939.86561,0.01321
2937.80544,0.01331
2935.74527,0.01329
2933.68509,0.01312
2931.62492,0.01307
2929.56475,0.01323
2927.50458,0.01319
2925.44441,0.01288
2923.38423,0.01255
2921.32406,0.01234
2919.26389,0.01234
2917.20372,0.01236
2915.14355,0.01226
2913.08337,0.01213
2911.02320,0.01204
2908.96303,0.01192
2906.90286,0.01176
2904.84268,0.01167
2902.78251,0.01179
2900.72234,0.01200
2898.66217,0.01200
2896.60200,0.01188
2894.54182,0.01171
2892.48165,0.01139
2890.42148,0.01117
2888.36131,0.01123
2886.30114,0.01141
2884.24096,0.01152
2882.18079,0.01149
2880.12062,0.01138
2878.06045,0.01126
2876.00028,0.01109
2873.94010,0.01097
2871.87993,0.01102
2869.81976,0.01106
2867.75959,0.01093
2865.69941,0.01079
2863.63924,0.01077
2861.57907,0.01079
2859.51890,0.01074
2857.45873,0.01071
2855.39855,0.01072
2853.33838,0.01063
2851.27821,0.01045
2849.21804,0.01044
2847.15787,0.01050
2845.09769,0.01027
2843.03752,0.00993
2840.97735,0.00985
2838.91718,0.00986
2836.85700,0.00977
2834.79683,0.00971
2832.73666,0.00971
2830.67649,0.00959
2828.61632,0.00943
2826.55614,0.00930
2824.49597,0.00911
2822.43580,0.00908
2820.37563,0.00926
2818.31546,0.00937
2816.25528,0.00930
2814.19511,0.00911
2812.13494,0.00887
2810.07477,0.00867
2808.01460,0.00857
2805.95442,0.00847
2803.89425,0.00846
2801.83408,0.00865
2799.77391,0.00878
2797.71373,0.00886
2795.65356,0.00888
2793.59339,0.00870
2791.53322,0.00848
2789.47305,0.00842
2787.41287,0.00839
2785.35270,0.00831
2783.29253,0.00834
2781.23236,0.00831
2779.17219,0.00816
2777.11201,0.00810
2775.05184,0.00813
2772.99167,0.00814
2770.93150,0.00820
2768.87133,0.00826
2766.81115,0.00822
2764.75098,0.00821
2762.69081,0.00822
2760.63064,0.00808
2758.57046,0.00780
2756.51029,0.00747
2754.45012,0.00726
2752.38995,0.00740
2750.32978,0.00763
2748.26960,0.00773
2746.20943,0.00786
2744.14926,0.00787
2742.08909,0.00766
2740.02892,0.00755
2737.96874,0.00751
2735.90857,0.00738
2733.84840,0.00732
2731.78823,0.00727
2729.72805,0.00712
2727.66788,0.00696
2725.60771,0.00692
2723.54754,0.00700
2721.48737,0.00713
2719.42719,0.00728
2717.36702,0.00724
2715.30685,0.00704
2713.24668,0.00688
2711.18651,0.00683
2709.12633,0.00689
2707.06616,0.00689
2705.00599,0.00668
2702.94582,0.00654
2700.88565,0.00666
2698.82547,0.00675
2696.76530,0.00663
2694.70513,0.00643
2692.64496,0.00634
2690.58478,0.00636
2688.52461,0.00629
2686.46444,0.00616
2684.40427,0.00611
2682.34410,0.00616
2680.28392,0.00610
2678.22375,0.00598
2676.16358,0.00601
2674.10341,0.00610
2672.04324,0.00602
2669.98306,0.00589
2667.92289,0.00593
2665.86272,0.00605
2663.80255,0.00598
2661.74238,0.00594
2659.68220,0.00600
2657.62203,0.00593
2655.56186,0.00576
2653.50169,0.00556
2651.44151,0.00549
2649.38134,0.00555
2647.32117,0.00559
2645.26100,0.00556
2643.20083,0.00541
2641.14065,0.00513
2639.08048,0.00493
2637.02031,0.00495
2634.96014,0.00511
2632.89997,0.00527
2630.83979,0.00527
2628.77962,0.00522
2626.71945,0.00518
2624.65928,0.00501
2622.59910,0.00486
2620.53893,0.00479
2618.47876,0.00465
2616.41859,0.00448
2614.35842,0.00446
2612.29824,0.00472
2610.23807,0.00510
2608.17790,0.00519
2606.11773,0.00500
2604.05756,0.00487
2601.99738,0.00480
2599.93721,0.00483
2597.87704,0.00475
2595.81687,0.00441
2593.75670,0.00434
2591.69652,0.00453
2589.63635,0.00455
2587.57618,0.00451
2585.51601,0.00443
2583.45583,0.00421
2581.39566,0.00414
2579.33549,0.00438
2577.27532,0.00461
2575.21515,0.00461
2573.15497,0.00465
2571.09480,0.00480
2569.03463,0.00475
2566.97446,0.00455
2564.91429,0.00458
2562.85411,0.00468
2560.79394,0.00465
2558.73377,0.00463
2556.67360,0.00455
2554.61342,0.00451
2552.55325,0.00473
2550.49308,0.00501
2548.43291,0.00491
2546.37274,0.00440
2544.31256,0.00395
2542.25239,0.00401
2540.19222,0.00424
2538.13205,0.00421
2536.07188,0.00412
2534.01170,0.00408
2531.95153,0.00380
2529.89136,0.00349
2527.83119,0.00374
2525.77102,0.00406
2523.71084,0.00412
2521.65067,0.00428
2519.59050,0.00441
2517.53033,0.00431
2515.47015,0.00411
2513.40998,0.00384
2511.34981,0.00372
2509.28964,0.00394
2507.22947,0.00418
2505.16929,0.00410
2503.10912,0.00391
2501.04895,0.00395
2498.98878,0.00406
2496.92861,0.00391
2494.86843,0.00365
2492.80826,0.00352
2490.74809,0.00368
2488.68792,0.00388
2486.62775,0.00390
2484.56757,0.00400
2482.50740,0.00425
2480.44723,0.00434
2478.38706,0.00429
2476.32688,0.00435
2474.26671,0.00465
2472.20654,0.00487
2470.14637,0.00466
2468.08620,0.00424
2466.02602,0.00407
2463.96585,0.00426
2461.90568,0.00460
2459.84551,0.00450
2457.78534,0.00396
2455.72516,0.00360
2453.66499,0.00356
2451.60482,0.00372
2449.54465,0.00393
2447.48447,0.00400
2445.42430,0.00382
2443.36413,0.00362
2441.30396,0.00374
2439.24379,0.00426
2437.18361,0.00485
2435.12344,0.00520
2433.06327,0.00515
2431.00310,0.00473
2428.94293,0.00444
2426.88275,0.00451
2424.82258,0.00469
2422.76241,0.00472
2420.70224,0.00440
2418.64207,0.00386
2416.58189,0.00354
2414.52172,0.00370
2412.46155,0.00399
2410.40138,0.00422
2408.34120,0.00446
2406.28103,0.00458
2404.22086,0.00453
2402.16069,0.00427
2400.10052,0.00386
2398.04034,0.00351
2395.98017,0.00348
2393.92000,0.00367
2391.85983,0.00380
2389.79966,0.00389
2387.73948,0.00402
2385.67931,0.00413
2383.61914,0.00415
2381.55897,0.00412
2379.49880,0.00412
2377.43862,0.00410
2375.37845,0.00382
2373.31828,0.00316
2371.25811,0.00256
2369.19793,0.00285
2367.13776,0.00415
2365.07759,0.00554
2363.01742,0.00575
2360.95725,0.00474
2358.89707,0.00273
2356.83690,0.00200
2354.77673,0.00237
2352.71656,0.00268
2350.65639,0.00358
2348.59621,0.00434
2346.53604,0.00363
2344.47587,0.00391
2342.41570,0.00434
2340.35552,0.00414
2338.29535,0.00344
2336.23518,0.00275
2334.17501,0.00299
2332.11484,0.00366
2330.05466,0.00417
2327.99449,0.00437
2325.93432,0.00471
2323.87415,0.00493
2321.81398,0.00521
2319.75380,0.00502
2317.69363,0.00460
2315.63346,0.00407
2313.57329,0.00408
2311.51312,0.00463
2309.45294,0.00491
2307.39277,0.00471
2305.33260,0.00446
2303.27243,0.00436
2301.21225,0.00423
2299.15208,0.00407
2297.09191,0.00396
2295.03174,0.00391
2292.97157,0.00387
2290.91139,0.00388
2288.85122,0.00401
2286.79105,0.00406
2284.73088,0.00404
2282.67071,0.00421
2280.61053,0.00443
2278.55036,0.00425
2276.49019,0.00380
2274.43002,0.00364
2272.36984,0.00371
2270.30967,0.00370
2268.24950,0.00345
2266.18933,0.00303
2264.12916,0.00284
2262.06898,0.00302
2260.00881,0.00333
2257.94864,0.00355
2255.88847,0.00377
2253.82830,0.00407
2251.76812,0.00418
2249.70795,0.00404
2247.64778,0.00374
2245.58761,0.00328
2243.52744,0.00297
2241.46726,0.00300
2239.40709,0.00297
2237.34692,0.00296
2235.28675,0.00359
2233.22657,0.00433
2231.16640,0.00418
2229.10623,0.00346
2227.04606,0.00285
2224.98589,0.00263
2222.92571,0.00295
2220.86554,0.00295
2218.80537,0.00247
2216.74520,0.00264
2214.68503,0.00315
2212.62485,0.00315
2210.56468,0.00342
2208.50451,0.00379
2206.44434,0.00290
2204.38417,0.00170
2202.32399,0.00173
2200.26382,0.00225
2198.20365,0.00239
2196.14348,0.00226
2194.08330,0.00244
2192.02313,0.00292
2189.96296,0.00275
2187.90279,0.00208
2185.84262,0.00204
2183.78244,0.00285
2181.72227,0.00356
2179.66210,0.00376
2177.60193,0.00347
2175.54176,0.00240
2173.48158,0.00166
2171.42141,0.00218
2169.36124,0.00303
2167.30107,0.00386
2165.24089,0.00505
2163.18072,0.00561
2161.12055,0.00426
2159.06038,0.00229
2157.00021,0.00132
2154.94003,0.00103
2152.87986,0.00090
2150.81969,0.00094
2148.75952,0.00154
2146.69935,0.00266
2144.63917,0.00335
2142.57900,0.00381
2140.51883,0.00435
2138.45866,0.00379
2136.39849,0.00243
2134.33831,0.00189
2132.27814,0.00212
2130.21797,0.00207
2128.15780,0.00191
2126.09762,0.00209
2124.03745,0.00213
2121.97728,0.00203
2119.91711,0.00195
2117.85694,0.00187
2115.79676,0.00247
2113.73659,0.00371
2111.67642,0.00454
2109.61625,0.00425
2107.55608,0.00299
2105.49590,0.00210
2103.43573,0.00209
2101.37556,0.00242
2099.31539,0.00286
2097.25521,0.00299
2095.19504,0.00289
2093.13487,0.00294
2091.07470,0.00303
2089.01453,0.00301
2086.95435,0.00270
2084.89418,0.00245
2082.83401,0.00267
2080.77384,0.00279
2078.71367,0.00254
2076.65349,0.00221
2074.59332,0.00229
2072.53315,0.00300
2070.47298,0.00328
2068.41281,0.00272
2066.35263,0.00254
2064.29246,0.00293
2062.23229,0.00304
2060.17212,0.00267
2058.11194,0.00212
2056.05177,0.00194
2053.99160,0.00251
2051.93143,0.00320
2049.87126,0.00307
2047.81108,0.00231
2045.75091,0.00175
2043.69074,0.00119
2041.63057,0.00037
2039.57040,0.00022
2037.51022,0.00070
2035.45005,0.00107
2033.38988,0.00182
2031.32971,0.00293
2029.26954,0.00349
2027.20936,0.00359
2025.14919,0.00374
2023.08902,0.00345
2021.02885,0.00254
2018.96867,0.00213
2016.90850,0.00187
2014.84833,0.00060
2012.78816,0.00010
2010.72799,0.00161
2008.66781,0.00349
2006.60764,0.00405
2004.54747,0.00280
2002.48730,0.00140
2000.42713,0.00114
1998.36695,0.00106
1996.30678,0.00070
1994.24661,0.00079
1992.18644,0.00122
1990.12626,0.00150
1988.06609,0.00164
1986.00592,0.00140
1983.94575,0.00123
1981.88558,0.00149
1979.82540,0.00124
1977.76523,0.00054
1975.70506,0.00015
1973.64489,0.00063
1971.58472,0.00220
1969.52454,0.00335
1967.46437,0.00333
1965.40420,0.00335
1963.34403,0.00326
1961.28386,0.00227
1959.22368,0.00107
1957.16351,0.00075
1955.10334,0.00133
1953.04317,0.00173
1950.98299,0.00137
1948.92282,0.00112
1946.86265,0.00171
1944.80248,0.00239
1942.74231,0.00225
1940.68213,0.00170
1938.62196,0.00144
1936.56179,0.00135
1934.50162,0.00103
1932.44145,0.00075
1930.38127,0.00115
1928.32110,0.00177
1926.26093,0.00226
1924.20076,0.00278
1922.14059,0.00274
1920.08041,0.00182
1918.02024,0.00069
1915.96007,0.00010
1913.89990,0.00041
1911.83972,0.00112
1909.77955,0.00158
1907.71938,0.00187
1905.65921,0.00204
1903.59904,0.00174
1901.53886,0.00121
1899.47869,0.00124
1897.41852,0.00180
1895.35835,0.00206
1893.29818,0.00163
1891.23800,0.00119
1889.17783,0.00136
1887.11766,0.00171
1885.05749,0.00189
1882.99731,0.00192
1880.93714,0.00178
1878.87697,0.00165
1876.81680,0.00164
1874.75663,0.00161
1872.69645,0.00160
1870.63628,0.00184
1868.57611,0.00213
1866.51594,0.00211
1864.45577,0.00189
1862.39559,0.00169
1860.33542,0.00157
1858.27525,0.00155
1856.21508,0.00146
1854.15491,0.00117
1852.09473,0.00103
1850.03456,0.00140
1847.97439,0.00202
1845.91422,0.00247
1843.85404,0.00244
1841.79387,0.00188
1839.73370,0.00130
1837.67353,0.00118
1835.61336,0.00143
1833.55318,0.00167
1831.49301,0.00175
1829.43284,0.00167
1827.37267,0.00155
1825.31250,0.00157
1823.25232,0.00166
1821.19215,0.00172
1819.13198,0.00177
1817.07181,0.00172
1815.01163,0.00152
1812.95146,0.00127
1810.89129,0.00112
1808.83112,0.00108
1806.77095,0.00105
1804.71077,0.00103
1802.65060,0.00119
1800.59043,0.00143
1798.53026,0.00153
1796.47009,0.00162
1794.40991,0.00193
1792.34974,0.00223
1790.28957,0.00217
1788.22940,0.00195
1786.16923,0.00192
1784.10905,0.00194
1782.04888,0.00185
1779.98871,0.00176
1777.92854,0.00180
1775.86836,0.00199
1773.80819,0.00226
1771.74802,0.00242
1769.68785,0.00231
1767.62768,0.00215
1765.56750,0.00218
1763.50733,0.00232
1761.44716,0.00229
1759.38699,0.00207
1757.32682,0.00192
1755.26664,0.00203
1753.20647,0.00247
1751.14630,0.00300
1749.08613,0.00325
1747.02596,0.00325
1744.96578,0.00335
1742.90561,0.00354
1740.84544,0.00352
1738.78527,0.00333
1736.72509,0.00342
1734.66492,0.00383
1732.60475,0.00399
1730.54458,0.00373
1728.48441,0.00341
1726.42423,0.00323
1724.36406,0.00327
1722.30389,0.00353
1720.24372,0.00399
1718.18355,0.00449
1716.12337,0.00454
1714.06320,0.00412
1712.00303,0.00383
1709.94286,0.00385
1707.88268,0.00401
1705.82251,0.00425
1703.76234,0.00453
1701.70217,0.00481
1699.64200,0.00505
1697.58182,0.00517
1695.52165,0.00515
1693.46148,0.00519
1691.40131,0.00541
1689.34114,0.00574
1687.28096,0.00603
1685.22079,0.00614
1683.16062,0.00604
1681.10045,0.00604
1679.04028,0.00633
1676.98010,0.00682
1674.91993,0.00739
1672.85976,0.00778
1670.79959,0.00790
1668.73941,0.00794
1666.67924,0.00808
1664.61907,0.00836
1662.55890,0.00851
1660.49873,0.00844
1658.43855,0.00849
1656.37838,0.00887
1654.31821,0.00952
1652.25804,0.01007
1650.19787,0.01026
1648.13769,0.01019
1646.07752,0.00974
1644.01735,0.00921
1641.95718,0.00920
1639.89701,0.00971
1637.83683,0.01024
1635.77666,0.01019
1633.71649,0.00970
1631.65632,0.00941
1629.59614,0.00930
1627.53597,0.00912
1625.47580,0.00894
1623.41563,0.00895
1621.35546,0.00911
1619.29528,0.00929
1617.23511,0.00936
1615.17494,0.00921
1613.11477,0.00905
1611.05460,0.00897
1608.99442,0.00880
1606.93425,0.00860
1604.87408,0.00858
1602.81391,0.00864
1600.75373,0.00851
1598.69356,0.00826
1596.63339,0.00809
1594.57322,0.00802
1592.51305,0.00792
1590.45287,0.00770
1588.39270,0.00737
1586.33253,0.00700
1584.27236,0.00669
1582.21219,0.00648
1580.15201,0.00634
1578.09184,0.00615
1576.03167,0.00572
1573.97150,0.00527
1571.91133,0.00512
1569.85115,0.00511
1567.79098,0.00501
1565.73081,0.00485
1563.67064,0.00482
1561.61046,0.00507
1559.55029,0.00529
1557.49012,0.00497
1555.42995,0.00438
1553.36978,0.00390
1551.30960,0.00368
1549.24943,0.00371
1547.18926,0.00390
1545.12909,0.00422
1543.06892,0.00444
1541.00874,0.00423
1538.94857,0.00368
1536.88840,0.00331
1534.82823,0.00317
1532.76805,0.00300
1530.70788,0.00284
1528.64771,0.00290
1526.58754,0.00318
1524.52737,0.00351
1522.46719,0.00366
1520.40702,0.00336
1518.34685,0.00289
1516.28668,0.00272
1514.22651,0.00281
1512.16633,0.00294
1510.10616,0.00314
1508.04599,0.00326
1505.98582,0.00280
1503.92565,0.00214
1501.86547,0.00187
1499.80530,0.00194
1497.74513,0.00210
1495.68496,0.00212
1493.62478,0.00211
1491.56461,0.00231
1489.50444,0.00250
1487.44427,0.00234
1485.38410,0.00205
1483.32392,0.00193
1481.26375,0.00198
1479.20358,0.00211
1477.14341,0.00228
1475.08324,0.00244
1473.02306,0.00248
1470.96289,0.00249
1468.90272,0.00268
1466.84255,0.00298
1464.78238,0.00307
1462.72220,0.00304
1460.66203,0.00345
1458.60186,0.00416
1456.54169,0.00429
1454.48151,0.00372
1452.42134,0.00328
1450.36117,0.00326
1448.30100,0.00344
1446.24083,0.00344
1444.18065,0.00323
1442.12048,0.00303
1440.06031,0.00303
1438.00014,0.00333
1435.93997,0.00358
1433.87979,0.00349
1431.81962,0.00336
1429.75945,0.00337
1427.69928,0.00351
1425.63910,0.00370
1423.57893,0.00383
1421.51876,0.00390
1419.45859,0.00401
1417.39842,0.00416
1415.33824,0.00417
1413.27807,0.00397
1411.21790,0.00383
1409.15773,0.00391
1407.09756,0.00403
1405.03738,0.00395
1402.97721,0.00373
1400.91704,0.00363
1398.85687,0.00369
1396.79670,0.00374
1394.73652,0.00364
1392.67635,0.00347
1390.61618,0.00345
1388.55601,0.00364
1386.49583,0.00383
1384.43566,0.00376
1382.37549,0.00354
1380.31532,0.00343
1378.25515,0.00354
1376.19497,0.00368
1374.13480,0.00366
1372.07463,0.00352
1370.01446,0.00345
1367.95429,0.00347
1365.89411,0.00354
1363.83394,0.00353
1361.77377,0.00329
1359.71360,0.00299
1357.65343,0.00287
1355.59325,0.00289
1353.53308,0.00289
1351.47291,0.00277
1349.41274,0.00257
1347.35256,0.00243
1345.29239,0.00241
1343.23222,0.00245
1341.17205,0.00251
1339.11188,0.00252
1337.05170,0.00244
1334.99153,0.00235
1332.93136,0.00229
1330.87119,0.00225
1328.81102,0.00224
1326.75084,0.00233
1324.69067,0.00248
1322.63050,0.00256
1320.57033,0.00258
1318.51015,0.00255
1316.44998,0.00246
1314.38981,0.00229
1312.32964,0.00205
1310.26947,0.00201
1308.20929,0.00225
1306.14912,0.00238
1304.08895,0.00221
1302.02878,0.00199
1299.96861,0.00194
1297.90843,0.00206
1295.84826,0.00226
1293.78809,0.00239
1291.72792,0.00237
1289.66775,0.00238
1287.60757,0.00243
1285.54740,0.00235
1283.48723,0.00226
1281.42706,0.00234
1279.36688,0.00253
1277.30671,0.00266
1275.24654,0.00268
1273.18637,0.00262
1271.12620,0.00256
1269.06602,0.00267
1267.00585,0.00282
1264.94568,0.00279
1262.88551,0.00266
1260.82534,0.00259
1258.76516,0.00256
1256.70499,0.00259
1254.64482,0.00260
1252.58465,0.00261
1250.52447,0.00263
1248.46430,0.00259
1246.40413,0.00250
1244.34396,0.00243
1242.28379,0.00235
1240.22361,0.00222
1238.16344,0.00214
1236.10327,0.00208
1234.04310,0.00202
1231.98293,0.00198
1229.92275,0.00191
1227.86258,0.00185
1225.80241,0.00184
1223.74224,0.00179
1221.68207,0.00168
1219.62189,0.00157
1217.56172,0.00135
1215.50155,0.00110
1213.44138,0.00095
1211.38120,0.00092
1209.32103,0.00093
1207.26086,0.00095
1205.20069,0.00088
1203.14052,0.00068
1201.08034,0.00038
1199.02017,0.00013
1196.96000,0.00014
1194.89983,0.00037
1192.83966,0.00053
1190.77948,0.00058
1188.71931,0.00059
1186.65914,0.00061
1184.59897,0.00073
1182.53880,0.00094
1180.47862,0.00116
1178.41845,0.00134
1176.35828,0.00157
1174.29811,0.00186
1172.23793,0.00215
1170.17776,0.00251
1168.11759,0.00298
1166.05742,0.00339
1163.99725,0.00369
1161.93707,0.00403
1159.87690,0.00436
1157.81673,0.00446
1155.75656,0.00447
1153.69639,0.00479
1151.63621,0.00537
1149.57604,0.00581
1147.51587,0.00601
1145.45570,0.00612
1143.39552,0.00639
1141.33535,0.00672
1139.27518,0.00684
1137.21501,0.00703
1135.15484,0.00762
1133.09466,0.00811
1131.03449,0.00822
1128.97432,0.00852
1126.91415,0.00907
1124.85398,0.00939
1122.79380,0.00951
1120.73363,0.00977
1118.67346,0.01027
1116.61329,0.01074
1114.55312,0.01104
1112.49294,0.01133
1110.43277,0.01182
1108.37260,0.01245
1106.31243,0.01294
1104.25225,0.01328
1102.19208,0.01378
1100.13191,0.01439
1098.07174,0.01494
1096.01157,0.01541
1093.95139,0.01586
1091.89122,0.01642
1089.83105,0.01715
1087.77088,0.01777
1085.71071,0.01818
1083.65053,0.01865
1081.59036,0.01915
1079.53019,0.01943
1077.47002,0.01963
1075.40985,0.01998
1073.34967,0.02035
1071.28950,0.02059
1069.22933,0.02073
1067.16916,0.02079
1065.10898,0.02080
1063.04881,0.02096
1060.98864,0.02110
1058.92847,0.02088
1056.86830,0.02060
1054.80812,0.02044
1052.74795,0.02040
1050.68778,0.02041
1048.62761,0.02023
1046.56744,0.02000
1044.50726,0.01994
1042.44709,0.01982
1040.38692,0.01952
1038.32675,0.01920
1036.26657,0.01892
1034.20640,0.01860
1032.14623,0.01821
1030.08606,0.01789
1028.02589,0.01769
1025.96571,0.01742
1023.90554,0.01696
1021.84537,0.01645
1019.78520,0.01607
1017.72503,0.01584
1015.66485,0.01562
1013.60468,0.01524
1011.54451,0.01474
1009.48434,0.01439
1007.42417,0.01411
1005.36399,0.01370
1003.30382,0.01335
1001.24365,0.01325
999.18348,0.01340
997.12330,0.01379
995.06313,0.01412
993.00296,0.01409
990.94279,0.01392
988.88262,0.01408
986.82244,0.01437
984.76227,0.01448
982.70210,0.01461
980.64193,0.01457
978.58176,0.01407
976.52158,0.01340
974.46141,0.01284
972.40124,0.01230
970.34107,0.01158
968.28089,0.01071
966.22072,0.00991
964.16055,0.00928
962.10038,0.00869
960.04021,0.00817
957.98003,0.00790
955.91986,0.00762
953.85969,0.00714
951.79952,0.00669
949.73935,0.00639
947.67917,0.00614
945.61900,0.00587
943.55883,0.00569
941.49866,0.00548
939.43849,0.00504
937.37831,0.00457
935.31814,0.00438
933.25797,0.00444
931.19780,0.00443
929.13762,0.00425
927.07745,0.00407
925.01728,0.00397
922.95711,0.00383
920.89694,0.00369
918.83676,0.00346
916.77659,0.00308
914.71642,0.00281
912.65625,0.00269
910.59608,0.00261
908.53590,0.00255
906.47573,0.00232
904.41556,0.00210
902.35539,0.00222
900.29522,0.00242
898.23504,0.00232
896.17487,0.00207
894.11470,0.00196
892.05453,0.00212
889.99435,0.00245
887.93418,0.00262
885.87401,0.00254
883.81384,0.00234
881.75367,0.00225
879.69349,0.00258
877.63332,0.00311
875.57315,0.00350
873.51298,0.00374
871.45281,0.00367
869.39263,0.00334
867.33246,0.00318
865.27229,0.00330
863.21212,0.00354
861.15194,0.00381
859.09177,0.00384
857.03160,0.00359
854.97143,0.00358
852.91126,0.00377
850.85108,0.00399
848.79091,0.00404
846.73074,0.00342
844.67057,0.00248
842.61040,0.00217
840.55022,0.00229
838.49005,0.00222
836.42988,0.00207
834.36971,0.00186
832.30954,0.00143
830.24936,0.00115
828.18919,0.00139
826.12902,0.00170
824.06885,0.00183
822.00867,0.00192
819.94850,0.00173
817.88833,0.00122
815.82816,0.00092
813.76799,0.00098
811.70781,0.00102
809.64764,0.00097
807.58747,0.00109
805.52730,0.00124
803.46713,0.00096
801.40695,0.00044
799.34678,0.00014
797.28661,0.00009
795.22644,0.00017
793.16627,0.00031
791.10609,0.00068
789.04592,0.00123
786.98575,0.00136
784.92558,0.00111
782.86540,0.00096
780.80523,0.00091
778.74506,0.00115
776.68489,0.00158
774.62472,0.00182
772.56454,0.00210
770.50437,0.00233
768.44420,0.00194
766.38403,0.00135
764.32386,0.00123
762.26368,0.00114
760.20351,0.00102
758.14334,0.00095
756.08317,0.00055
754.02299,0.00028
751.96282,0.00038
749.90265,0.00030
747.84248,0.00032
745.78231,0.00096
743.72213,0.00166
741.66196,0.00170
739.60179,0.00095
737.54162,0.00036
735.48145,0.00038
733.42127,0.00046
731.36110,0.00047
729.30093,0.00063
727.24076,0.00096
725.18059,0.00105
723.12041,0.00102
721.06024,0.00096
719.00007,0.00117
716.93990,0.00112
714.87972,0.00112
712.81955,0.00153
710.75938,0.00192
708.69921,0.00190
706.63904,0.00194
704.57886,0.00235
702.51869,0.00251
700.45852,0.00226
698.39835,0.00190
696.33818,0.00128
694.27800,0.00054
692.21783,0.00018
690.15766,0.00045
688.09749,0.00126
686.03731,0.00209
683.97714,0.00244
681.91697,0.00233
679.85680,0.00210
677.79663,0.00182
675.73645,0.00142
673.67628,0.00188
671.61611,0.00364
669.55594,0.00305
667.49577,0.00045
665.43559,0.00246
663.37542,0.00255
661.31525,0.00245
659.25508,0.00292
657.19491,0.00341
655.13473,0.00350
653.07456,0.00342
651.01439,0.00322
648.95422,0.00265
646.89404,0.00196
644.83387,0.00098
642.77370,0.00014
640.71353,0.00011
638.65336,0.00111
636.59318,0.00280
634.53301,0.00394
632.47284,0.00310
630.41267,0.00139
628.35250,0.00109
626.29232,0.00203
624.23215,0.00233
622.17198,0.00336
620.11181,0.00518
618.05164,0.00565
615.99146,0.00492
613.93129,0.00454
611.87112,0.00479
609.81095,0.00462
607.75077,0.00336
605.69060,0.00194
603.63043,0.00078
601.57026,0.00000
599.51009,0.00000
