3996.73391,0.00113
3994.67373,0.00099
3992.61356,0.00098
3990.55339,0.00100
3988.49322,0.00082
3986.43305,0.00047
3984.37287,0.00024
3982.31270,0.00035
3980.25253,0.00050
3978.19236,0.00041
3976.13219,0.00018
3974.07201,0.00000
3972.01184,0.00008
3969.95167,0.00040
3967.89150,0.00061
3965.83133,0.00067
3963.77115,0.00076
3961.71098,0.00087
3959.65081,0.00098
3957.59064,0.00107
3955.53046,0.00106
3953.47029,0.00089
3951.41012,0.00063
3949.34995,0.00059
3947.28978,0.00091
3945.22960,0.00142
3943.16943,0.00177
3941.10926,0.00168
3939.04909,0.00114
3936.98892,0.00050
3934.92874,0.00025
3932.86857,0.00044
3930.80840,0.00077
3928.74823,0.00105
3926.68805,0.00099
3924.62788,0.00051
3922.56771,0.00031
3920.50754,0.00085
3918.44737,0.00136
3916.38719,0.00121
3914.32702,0.00086
3912.26685,0.00077
3910.20668,0.00090
3908.14651,0.00110
3906.08633,0.00136
3904.02616,0.00172
3901.96599,0.00181
3899.90582,0.00131
3897.84565,0.00085
3895.78547,0.00097
3893.72530,0.00123
3891.66513,0.00118
3889.60496,0.00103
3887.54478,0.00107
3885.48461,0.00126
3883.42444,0.00159
3881.36427,0.00182
3879.30410,0.00173
3877.24392,0.00170
3875.18375,0.00189
3873.12358,0.00206
3871.06341,0.00193
3869.00324,0.00148
3866.94306,0.00110
3864.88289,0.00070
3862.82272,0.00021
3860.76255,0.00027
3858.70237,0.00106
3856.64220,0.00218
3854.58203,0.00271
3852.52186,0.00184
3850.46169,0.00091
3848.40151,0.00101
3846.34134,0.00139
3844.28117,0.00136
3842.22100,0.00116
3840.16083,0.00123
3838.10065,0.00124
3836.04048,0.00098
3833.98031,0.00086
3831.92014,0.00093
3829.85997,0.00099
3827.79979,0.00108
3825.73962,0.00133
3823.67945,0.00174
3821.61928,0.00202
3819.55910,0.00193
3817.49893,0.00166
3815.43876,0.00119
3813.37859,0.00080
3811.31842,0.00083
3809.25824,0.00104
3807.19807,0.00103
3805.13790,0.00094
3803.07773,0.00083
3801.01756,0.00038
3798.95738,0.00006
3796.89721,0.00010
3794.83704,0.00036
3792.77687,0.00090
3790.71670,0.00138
3788.65652,0.00157
3786.59635,0.00164
3784.53618,0.00158
3782.47601,0.00133
3780.41583,0.00110
3778.35566,0.00115
3776.29549,0.00133
3774.23532,0.00150
3772.17515,0.00167
3770.11497,0.00171
3768.05480,0.00176
3765.99463,0.00200
3763.93446,0.00209
3761.87429,0.00183
3759.81411,0.00154
3757.75394,0.00155
3755.69377,0.00187
3753.63360,0.00224
3751.57342,0.00209
3749.51325,0.00130
3747.45308,0.00088
3745.39291,0.00096
3743.33274,0.00123
3741.27256,0.00175
3739.21239,0.00237
3737.15222,0.00266
3735.09205,0.00199
3733.03188,0.00063
3730.97170,0.00005
3728.91153,0.00048
3726.85136,0.00114
3724.79119,0.00158
3722.73102,0.00175
3720.67084,0.00186
3718.61067,0.00206
3716.55050,0.00217
3714.49033,0.00213
3712.43015,0.00177
3710.36998,0.00099
3708.30981,0.00061
3706.24964,0.00099
3704.18947,0.00142
3702.12929,0.00140
3700.06912,0.00125
3698.00895,0.00144
3695.94878,0.00188
3693.88861,0.00224
3691.82843,0.00249
3689.76826,0.00242
3687.70809,0.00175
3685.64792,0.00133
3683.58775,0.00167
3681.52757,0.00233
3679.46740,0.00304
3677.40723,0.00357
3675.34706,0.00331
3673.28688,0.00249
3671.22671,0.00199
3669.16654,0.00172
3667.10637,0.00166
3665.04620,0.00192
3662.98602,0.00231
3660.92585,0.00261
3658.86568,0.00272
3656.80551,0.00273
3654.74534,0.00297
3652.68516,0.00366
3650.62499,0.00419
3648.56482,0.00388
3646.50465,0.00360
3644.44447,0.00398
3642.38430,0.00439
3640.32413,0.00439
3638.26396,0.00426
3636.20379,0.00430
3634.14361,0.00447
3632.08344,0.00473
3630.02327,0.00490
3627.96310,0.00468
3625.90293,0.00461
3623.84275,0.00524
3621.78258,0.00613
3619.72241,0.00645
3617.66224,0.00625
3615.60207,0.00635
3613.54189,0.00679
3611.48172,0.00715
3609.42155,0.00723
3607.36138,0.00690
3605.30120,0.00652
3603.24103,0.00663
3601.18086,0.00715
3599.12069,0.00766
3597.06052,0.00805
3595.00034,0.00840
3592.94017,0.00875
3590.88000,0.00915
3588.81983,0.00929
3586.75966,0.00886
3584.69948,0.00848
3582.63931,0.00877
3580.57914,0.00943
3578.51897,0.00990
3576.45879,0.01003
3574.39862,0.01001
3572.33845,0.01012
3570.27828,0.01066
3568.21811,0.01149
3566.15793,0.01197
3564.09776,0.01178
3562.03759,0.01147
3559.97742,0.01147
3557.91725,0.01178
3555.85707,0.01226
3553.79690,0.01262
3551.73673,0.01269
3549.67656,0.01294
3547.61639,0.01337
3545.55621,0.01333
3543.49604,0.01301
3541.43587,0.01305
3539.37570,0.01338
3537.31552,0.01354
3535.25535,0.01349
3533.19518,0.01366
3531.13501,0.01422
3529.07484,0.01481
3527.01466,0.01505
3524.95449,0.01508
3522.89432,0.01520
3520.83415,0.01548
3518.77398,0.01574
3516.71380,0.01586
3514.65363,0.01598
3512.59346,0.01618
3510.53329,0.01637
3508.47312,0.01647
3506.41294,0.01649
3504.35277,0.01650
3502.29260,0.01675
3500.23243,0.01724
3498.17225,0.01762
3496.11208,0.01777
3494.05191,0.01777
3491.99174,0.01785
3489.93157,0.01815
3487.87139,0.01843
3485.81122,0.01849
3483.75105,0.01865
3481.69088,0.01903
3479.63071,0.01919
3477.57053,0.01920
3475.51036,0.01946
3473.45019,0.01971
3471.39002,0.01965
3469.32984,0.01961
3467.26967,0.01979
3465.20950,0.01989
3463.14933,0.01989
3461.08916,0.02000
3459.02898,0.02014
3456.96881,0.02032
3454.90864,0.02063
3452.84847,0.02103
3450.78830,0.02132
3448.72812,0.02124
3446.66795,0.02093
3444.60778,0.02094
3442.54761,0.02123
3440.48744,0.02132
3438.42726,0.02112
3436.36709,0.02097
3434.30692,0.02114
3432.24675,0.02135
3430.18657,0.02144
3428.12640,0.02174
3426.06623,0.02203
3424.00606,0.02200
3421.94589,0.02193
3419.88571,0.02207
3417.82554,0.02222
3415.76537,0.02217
3413.70520,0.02220
3411.64503,0.02253
3409.58485,0.02281
3407.52468,0.02291
3405.46451,0.02304
3403.40434,0.02318
3401.34416,0.02334
3399.28399,0.02339
3397.22382,0.02329
3395.16365,0.02334
3393.10348,0.02365
3391.04330,0.02375
3388.98313,0.02367
3386.92296,0.02380
3384.86279,0.02401
3382.80262,0.02415
3380.74244,0.02419
3378.68227,0.02415
3376.62210,0.02416
3374.56193,0.02416
3372.50176,0.02406
3370.44158,0.02393
3368.38141,0.02397
3366.32124,0.02424
3364.26107,0.02451
3362.20089,0.02450
3360.14072,0.02435
3358.08055,0.02437
3356.02038,0.02458
3353.96021,0.02471
3351.90003,0.02472
3349.83986,0.02475
3347.77969,0.02470
3345.71952,0.02457
3343.65935,0.02449
3341.59917,0.02452
3339.53900,0.02453
3337.47883,0.02441
3335.41866,0.02432
3333.35849,0.02448
3331.29831,0.02480
3329.23814,0.02504
3327.17797,0.02516
3325.11780,0.02528
3323.05762,0.02542
3320.99745,0.02537
3318.93728,0.02513
3316.87711,0.02490
3314.81694,0.02478
3312.75676,0.02477
3310.69659,0.02471
3308.63642,0.02448
3306.57625,0.02432
3304.51608,0.02443
3302.45590,0.02469
3300.39573,0.02509
3298.33556,0.02538
3296.27539,0.02529
3294.21521,0.02501
3292.15504,0.02482
3290.09487,0.02488
3288.03470,0.02523
3285.97453,0.02555
3283.91435,0.02551
3281.85418,0.02512
3279.79401,0.02470
3277.73384,0.02461
3275.67367,0.02482
3273.61349,0.02495
3271.55332,0.02494
3269.49315,0.02499
3267.43298,0.02509
3265.37281,0.02514
3263.31263,0.02514
3261.25246,0.02503
3259.19229,0.02484
3257.13212,0.02482
3255.07194,0.02504
3253.01177,0.02527
3250.95160,0.02538
3248.89143,0.02518
3246.83126,0.02464
3244.77108,0.02441
3242.71091,0.02469
3240.65074,0.02500
3238.59057,0.02508
3236.53040,0.02492
3234.47022,0.02467
3232.41005,0.02452
3230.34988,0.02462
3228.28971,0.02475
3226.22954,0.02469
3224.16936,0.02462
3222.10919,0.02469
3220.04902,0.02490
3217.98885,0.02505
3215.92867,0.02496
3213.86850,0.02472
3211.80833,0.02438
3209.74816,0.02409
3207.68799,0.02404
3205.62781,0.02417
3203.56764,0.02427
3201.50747,0.02424
3199.44730,0.02412
3197.38713,0.02390
3195.32695,0.02373
3193.26678,0.02373
3191.20661,0.02367
3189.14644,0.02346
3187.08626,0.02343
3185.02609,0.02346
3182.96592,0.02326
3180.90575,0.02301
3178.84558,0.02295
3176.78540,0.02297
3174.72523,0.02282
3172.66506,0.02249
3170.60489,0.02230
3168.54472,0.02238
3166.48454,0.02252
3164.42437,0.02244
3162.36420,0.02221
3160.30403,0.02211
3158.24386,0.02214
3156.18368,0.02210
3154.12351,0.02198
3152.06334,0.02185
3150.00317,0.02184
3147.94299,0.02197
3145.88282,0.02212
3143.82265,0.02216
3141.76248,0.02193
3139.70231,0.02166
3137.64213,0.02148
3135.58196,0.02120
3133.52179,0.02095
3131.46162,0.02090
3129.40145,0.02096
3127.34127,0.02105
3125.28110,0.02113
3123.22093,0.02105
3121.16076,0.02081
3119.10058,0.02067
3117.04041,0.02068
3114.98024,0.02067
3112.92007,0.02054
3110.85990,0.02021
3108.79972,0.01992
3106.73955,0.02007
3104.67938,0.02040
3102.61921,0.02038
3100.55904,0.02010
3098.49886,0.01987
3096.43869,0.01967
3094.37852,0.01947
3092.31835,0.01940
3090.25818,0.01936
3088.19800,0.01922
3086.13783,0.01904
3084.07766,0.01891
3082.01749,0.01892
3079.95731,0.01894
3077.89714,0.01876
3075.83697,0.01847
3073.77680,0.01819
3071.71663,0.01797
3069.65645,0.01797
3067.59628,0.01810
3065.53611,0.01815
3063.47594,0.01807
3061.41577,0.01789
3059.35559,0.01766
3057.29542,0.01736
3055.23525,0.01712
3053.17508,0.01721
3051.11491,0.01749
3049.05473,0.01743
3046.99456,0.01707
3044.93439,0.01687
3042.87422,0.01683
3040.81404,0.01665
3038.75387,0.01638
3036.69370,0.01633
3034.63353,0.01654
3032.57336,0.01666
3030.51318,0.01652
3028.45301,0.01624
3026.39284,0.01603
3024.33267,0.01586
3022.27250,0.01554
3020.21232,0.01515
3018.15215,0.01497
3016.09198,0.01514
3014.03181,0.01549
3011.97163,0.01556
3009.91146,0.01526
3007.85129,0.01499
3005.79112,0.01482
3003.73095,0.01463
3001.67077,0.01451
2999.61060,0.01457
2997.55043,0.01462
2995.49026,0.01463
2993.43009,0.01483
2991.36991,0.01500
2989.30974,0.01472
2987.24957,0.01430
2985.18940,0.01411
2983.12923,0.01399
2981.06905,0.01385
2979.00888,0.01366
2976.94871,0.01346
2974.88854,0.01343
2972.82836,0.01357
2970.76819,0.01370
2968.70802,0.01389
2966.64785,0.01409
2964.58768,0.01409
2962.52750,0.01405
2960.46733,0.01412
2958.40716,0.01417
2956.34699,0.01413
2954.28682,0.01421
2952.22664,0.01440
2950.16647,0.01447
2948.10630,0.01444
2946.04613,0.01434
2943.98596,0.01440
2941.92578,0.01485
2939.86561,0.01533
2937.80544,0.01556
2935.74527,0.01553
2933.68509,0.01514
2931.62492,0.01479
2929.56475,0.01479
2927.50458,0.01485
2925.44441,0.01476
2923.38423,0.01451
2921.32406,0.01427
2919.26389,0.01427
2917.20372,0.01426
2915.14355,0.01408
2913.08337,0.01392
2911.02320,0.01394
2908.96303,0.01389
2906.90286,0.01366
2904.84268,0.01361
2902.78251,0.01383
2900.72234,0.01386
2898.66217,0.01348
2896.60200,0.01324
2894.54182,0.01330
2892.48165,0.01317
2890.42148,0.01300
2888.36131,0.01298
2886.30114,0.01299
2884.24096,0.01306
2882.18079,0.01299
2880.12062,0.01270
2878.06045,0.01260
2876.00028,0.01267
2873.94010,0.01257
2871.87993,0.01245
2869.81976,0.01242
2867.75959,0.01233
2865.69941,0.01222
2863.63924,0.01229
2861.57907,0.01242
2859.51890,0.01243
2857.45873,0.01240
2855.39855,0.01238
2853.33838,0.01219
2851.27821,0.01188
2849.21804,0.01180
2847.15787,0.01190
2845.09769,0.01170
2843.03752,0.01126
2840.97735,0.01103
2838.91718,0.01095
2836.85700,0.01086
2834.79683,0.01080
2832.73666,0.01073
2830.67649,0.01061
2828.61632,0.01052
2826.55614,0.01050
2824.49597,0.01048
2822.43580,0.01044
2820.37563,0.01036
2818.31546,0.01024
2816.25528,0.01017
2814.19511,0.01015
2812.13494,0.01016
2810.07477,0.01011
2808.01460,0.00995
2805.95442,0.00980
2803.89425,0.00980
2801.83408,0.00988
2799.77391,0.00986
2797.71373,0.00985
2795.65356,0.00983
2793.59339,0.00962
2791.53322,0.00949
2789.47305,0.00963
2787.41287,0.00969
2785.35270,0.00951
2783.29253,0.00931
2781.23236,0.00919
2779.17219,0.00906
2777.11201,0.00906
2775.05184,0.00924
2772.99167,0.00935
2770.93150,0.00923
2768.87133,0.00906
2766.81115,0.00891
2764.75098,0.00882
2762.69081,0.00894
2760.63064,0.00911
2758.57046,0.00903
2756.51029,0.00866
2754.45012,0.00830
2752.38995,0.00832
2750.32978,0.00858
2748.26960,0.00879
2746.20943,0.00883
2744.14926,0.00868
2742.08909,0.00845
2740.02892,0.00832
2737.96874,0.00835
2735.90857,0.00836
2733.84840,0.00827
2731.78823,0.00811
2729.72805,0.00796
2727.66788,0.00795
2725.60771,0.00802
2723.54754,0.00801
2721.48737,0.00793
2719.42719,0.00772
2717.36702,0.00745
2715.30685,0.00739
2713.24668,0.00752
2711.18651,0.00761
2709.12633,0.00756
2707.06616,0.00748
2705.00599,0.00747
2702.94582,0.00760
2700.88565,0.00772
2698.82547,0.00764
2696.76530,0.00749
2694.70513,0.00738
2692.64496,0.00738
2690.58478,0.00743
2688.52461,0.00739
2686.46444,0.00730
2684.40427,0.00711
2682.34410,0.00693
2680.28392,0.00680
2678.22375,0.00669
2676.16358,0.00670
2674.10341,0.00678
2672.04324,0.00676
2669.98306,0.00666
2667.92289,0.00668
2665.86272,0.00685
2663.80255,0.00692
2661.74238,0.00677
2659.68220,0.00668
2657.62203,0.00668
2655.56186,0.00655
2653.50169,0.00631
2651.44151,0.00618
2649.38134,0.00635
2647.32117,0.00668
2645.26100,0.00659
2643.20083,0.00610
2641.14065,0.00576
2639.08048,0.00573
2637.02031,0.00590
2634.96014,0.00606
2632.89997,0.00612
2630.83979,0.00619
2628.77962,0.00627
2626.71945,0.00613
2624.65928,0.00589
2622.59910,0.00588
2620.53893,0.00598
2618.47876,0.00592
2616.41859,0.00573
2614.35842,0.00551
2612.29824,0.00544
2610.23807,0.00559
2608.17790,0.00551
2606.11773,0.00527
2604.05756,0.00533
2601.99738,0.00545
2599.93721,0.00534
2597.87704,0.00509
2595.81687,0.00494
2593.75670,0.00503
2591.69652,0.00518
2589.63635,0.00538
2587.57618,0.00562
2585.51601,0.00561
2583.45583,0.00530
2581.39566,0.00513
2579.33549,0.00529
2577.27532,0.00542
2575.21515,0.00533
2573.15497,0.00546
2571.09480,0.00564
2569.03463,0.00524
2566.97446,0.00477
2564.91429,0.00488
2562.85411,0.00502
2560.79394,0.00489
2558.73377,0.00490
2556.67360,0.00500
2554.61342,0.00495
2552.55325,0.00492
2550.49308,0.00479
2548.43291,0.00442
2546.37274,0.00434
2544.31256,0.00476
2542.25239,0.00512
2540.19222,0.00500
2538.13205,0.00466
2536.07188,0.00458
2534.01170,0.00449
2531.95153,0.00411
2529.89136,0.00396
2527.83119,0.00437
2525.77102,0.00481
2523.71084,0.00490
2521.65067,0.00489
2519.59050,0.00504
2517.53033,0.00518
2515.47015,0.00505
2513.40998,0.00470
2511.34981,0.00443
2509.28964,0.00442
2507.22947,0.00448
2505.16929,0.00445
2503.10912,0.00431
2501.04895,0.00425
2498.98878,0.00425
2496.92861,0.00415
2494.86843,0.00406
2492.80826,0.00401
2490.74809,0.00394
2488.68792,0.00406
2486.62775,0.00430
2484.56757,0.00439
2482.50740,0.00447
2480.44723,0.00465
2478.38706,0.00473
2476.32688,0.00472
2474.26671,0.00479
2472.20654,0.00461
2470.14637,0.00423
2468.08620,0.00414
2466.02602,0.00425
2463.96585,0.00425
2461.90568,0.00424
2459.84551,0.00417
2457.78534,0.00391
2455.72516,0.00380
2453.66499,0.00400
2451.60482,0.00433
2449.54465,0.00452
2447.48447,0.00459
2445.42430,0.00463
2443.36413,0.00453
2441.30396,0.00451
2439.24379,0.00482
2437.18361,0.00510
2435.12344,0.00521
2433.06327,0.00527
2431.00310,0.00498
2428.94293,0.00453
2426.88275,0.00456
2424.82258,0.00493
2422.76241,0.00503
2420.70224,0.00473
2418.64207,0.00444
2416.58189,0.00436
2414.52172,0.00431
2412.46155,0.00413
2410.40138,0.00406
2408.34120,0.00438
2406.28103,0.00484
2404.22086,0.00491
2402.16069,0.00457
2400.10052,0.00421
2398.04034,0.00374
2395.98017,0.00321
2393.92000,0.00303
2391.85983,0.00339
2389.79966,0.00395
2387.73948,0.00442
2385.67931,0.00463
2383.61914,0.00447
2381.55897,0.00425
2379.49880,0.00435
2377.43862,0.00456
2375.37845,0.00420
2373.31828,0.00308
2371.25811,0.00210
2369.19793,0.00229
2367.13776,0.00313
2365.07759,0.00352
2363.01742,0.00354
2360.95725,0.00402
2358.89707,0.00349
2356.83690,0.00274
2354.77673,0.00269
2352.71656,0.00288
2350.65639,0.00366
2348.59621,0.00439
2346.53604,0.00382
2344.47587,0.00411
2342.41570,0.00449
2340.35552,0.00446
2338.29535,0.00414
2336.23518,0.00397
2334.17501,0.00426
2332.11484,0.00402
2330.05466,0.00343
2327.99449,0.00330
2325.93432,0.00384
2323.87415,0.00394
2321.81398,0.00380
2319.75380,0.00352
2317.69363,0.00367
2315.63346,0.00397
2313.57329,0.00428
2311.51312,0.00469
2309.45294,0.00502
2307.39277,0.00508
2305.33260,0.00488
2303.27243,0.00467
2301.21225,0.00454
2299.15208,0.00454
2297.09191,0.00452
2295.03174,0.00435
2292.97157,0.00422
2290.91139,0.00436
2288.85122,0.00456
2286.79105,0.00455
2284.73088,0.00444
2282.67071,0.00443
2280.61053,0.00459
2278.55036,0.00460
2276.49019,0.00409
2274.43002,0.00375
2272.36984,0.00410
2270.30967,0.00448
2268.24950,0.00420
2266.18933,0.00358
2264.12916,0.00334
2262.06898,0.00354
2260.00881,0.00370
2257.94864,0.00370
2255.88847,0.00391
2253.82830,0.00450
2251.76812,0.00522
2249.70795,0.00543
2247.64778,0.00468
2245.58761,0.00373
2243.52744,0.00355
2241.46726,0.00384
2239.40709,0.00390
2237.34692,0.00380
2235.28675,0.00392
2233.22657,0.00406
2231.16640,0.00387
2229.10623,0.00367
2227.04606,0.00365
2224.98589,0.00349
2222.92571,0.00332
2220.86554,0.00341
2218.80537,0.00349
2216.74520,0.00359
2214.68503,0.00422
2212.62485,0.00485
2210.56468,0.00451
2208.50451,0.00401
2206.44434,0.00417
2204.38417,0.00425
2202.32399,0.00361
2200.26382,0.00298
2198.20365,0.00361
2196.14348,0.00467
2194.08330,0.00468
2192.02313,0.00439
2189.96296,0.00431
2187.90279,0.00410
2185.84262,0.00417
2183.78244,0.00433
2181.72227,0.00412
2179.66210,0.00438
2177.60193,0.00466
2175.54176,0.00354
2173.48158,0.00253
2171.42141,0.00235
2169.36124,0.00244
2167.30107,0.00376
2165.24089,0.00533
2163.18072,0.00494
2161.12055,0.00319
2159.06038,0.00206
2157.00021,0.00196
2154.94003,0.00248
2152.87986,0.00306
2150.81969,0.00298
2148.75952,0.00274
2146.69935,0.00293
2144.63917,0.00313
2142.57900,0.00355
2140.51883,0.00408
2138.45866,0.00403
2136.39849,0.00350
2134.33831,0.00278
2132.27814,0.00243
2130.21797,0.00256
2128.15780,0.00271
2126.09762,0.00279
2124.03745,0.00283
2121.97728,0.00278
2119.91711,0.00266
2117.85694,0.00272
2115.79676,0.00324
2113.73659,0.00391
2111.67642,0.00417
2109.61625,0.00360
2107.55608,0.00260
2105.49590,0.00227
2103.43573,0.00257
2101.37556,0.00268
2099.31539,0.00300
2097.25521,0.00346
2095.19504,0.00278
2093.13487,0.00135
2091.07470,0.00102
2089.01453,0.00190
2086.95435,0.00273
2084.89418,0.00307
2082.83401,0.00327
2080.77384,0.00340
2078.71367,0.00349
2076.65349,0.00325
2074.59332,0.00295
2072.53315,0.00350
2070.47298,0.00376
2068.41281,0.00313
2066.35263,0.00278
2064.29246,0.00298
2062.23229,0.00332
2060.17212,0.00355
2058.11194,0.00353
2056.05177,0.00342
2053.99160,0.00344
2051.93143,0.00346
2049.87126,0.00354
2047.81108,0.00373
2045.75091,0.00332
2043.69074,0.00233
2041.63057,0.00173
2039.57040,0.00192
2037.51022,0.00284
2035.45005,0.00372
2033.38988,0.00385
2031.32971,0.00418
2029.26954,0.00500
2027.20936,0.00535
2025.14919,0.00548
2023.08902,0.00555
2021.02885,0.00455
2018.96867,0.00294
2016.90850,0.00201
2014.84833,0.00194
2012.78816,0.00268
2010.72799,0.00366
2008.66781,0.00360
2006.60764,0.00259
2004.54747,0.00174
2002.48730,0.00147
2000.42713,0.00166
1998.36695,0.00221
1996.30678,0.00255
1994.24661,0.00229
1992.18644,0.00192
1990.12626,0.00162
1988.06609,0.00147
1986.00592,0.00168
1983.94575,0.00221
1981.88558,0.00222
1979.82540,0.00171
1977.76523,0.00192
1975.70506,0.00247
1973.64489,0.00282
1971.58472,0.00323
1969.52454,0.00312
1967.46437,0.00286
1965.40420,0.00339
1963.34403,0.00376
1961.28386,0.00283
1959.22368,0.00117
1957.16351,0.00038
1955.10334,0.00099
1953.04317,0.00199
1950.98299,0.00249
1948.92282,0.00282
1946.86265,0.00332
1944.80248,0.00346
1942.74231,0.00270
1940.68213,0.00147
1938.62196,0.00078
1936.56179,0.00092
1934.50162,0.00097
1932.44145,0.00056
1930.38127,0.00072
1928.32110,0.00170
1926.26093,0.00263
1924.20076,0.00302
1922.14059,0.00285
1920.08041,0.00249
1918.02024,0.00199
1915.96007,0.00147
1913.89990,0.00144
1911.83972,0.00171
1909.77955,0.00183
1907.71938,0.00181
1905.65921,0.00156
1903.59904,0.00106
1901.53886,0.00094
1899.47869,0.00149
1897.41852,0.00210
1895.35835,0.00214
1893.29818,0.00173
1891.23800,0.00143
1889.17783,0.00158
1887.11766,0.00199
1885.05749,0.00227
1882.99731,0.00213
1880.93714,0.00164
1878.87697,0.00142
1876.81680,0.00165
1874.75663,0.00188
1872.69645,0.00191
1870.63628,0.00184
1868.57611,0.00169
1866.51594,0.00154
1864.45577,0.00155
1862.39559,0.00169
1860.33542,0.00178
1858.27525,0.00167
1856.21508,0.00143
1854.15491,0.00119
1852.09473,0.00111
1850.03456,0.00134
1847.97439,0.00170
1845.91422,0.00178
1843.85404,0.00139
1841.79387,0.00095
1839.73370,0.00083
1837.67353,0.00094
1835.61336,0.00112
1833.55318,0.00123
1831.49301,0.00116
1829.43284,0.00108
1827.37267,0.00123
1825.31250,0.00137
1823.25232,0.00126
1821.19215,0.00121
1819.13198,0.00131
1817.07181,0.00141
1815.01163,0.00144
1812.95146,0.00130
1810.89129,0.00099
1808.83112,0.00077
1806.77095,0.00074
1804.71077,0.00089
1802.65060,0.00113
1800.59043,0.00123
1798.53026,0.00123
1796.47009,0.00142
1794.40991,0.00175
1792.34974,0.00186
1790.28957,0.00166
1788.22940,0.00135
1786.16923,0.00115
1784.10905,0.00112
1782.04888,0.00115
1779.98871,0.00118
1777.92854,0.00135
1775.86836,0.00166
1773.80819,0.00195
1771.74802,0.00202
1769.68785,0.00176
1767.62768,0.00142
1765.56750,0.00141
1763.50733,0.00173
1761.44716,0.00199
1759.38699,0.00206
1757.32682,0.00210
1755.26664,0.00216
1753.20647,0.00235
1751.14630,0.00270
1749.08613,0.00300
1747.02596,0.00313
1744.96578,0.00324
1742.90561,0.00333
1740.84544,0.00327
1738.78527,0.00320
1736.72509,0.00337
1734.66492,0.00371
1732.60475,0.00388
1730.54458,0.00377
1728.48441,0.00349
1726.42423,0.00327
1724.36406,0.00327
1722.30389,0.00347
1720.24372,0.00390
1718.18355,0.00445
1716.12337,0.00459
1714.06320,0.00425
1712.00303,0.00403
1709.94286,0.00412
1707.88268,0.00435
1705.82251,0.00455
1703.76234,0.00471
1701.70217,0.00482
1699.64200,0.00467
1697.58182,0.00437
1695.52165,0.00430
1693.46148,0.00469
1691.40131,0.00537
1689.34114,0.00604
1687.28096,0.00646
1685.22079,0.00656
1683.16062,0.00649
1681.10045,0.00671
1679.04028,0.00724
1676.98010,0.00780
1674.91993,0.00817
1672.85976,0.00841
1670.79959,0.00863
1668.73941,0.00878
1666.67924,0.00899
1664.61907,0.00938
1662.55890,0.00966
1660.49873,0.00970
1658.43855,0.00989
1656.37838,0.01040
1654.31821,0.01081
1652.25804,0.01090
1650.19787,0.01130
1648.13769,0.01176
1646.07752,0.01163
1644.01735,0.01121
1641.95718,0.01106
1639.89701,0.01128
1637.83683,0.01163
1635.77666,0.01158
1633.71649,0.01119
1631.65632,0.01117
1629.59614,0.01146
1627.53597,0.01162
1625.47580,0.01151
1623.41563,0.01130
1621.35546,0.01118
1619.29528,0.01128
1617.23511,0.01140
1615.17494,0.01133
1613.11477,0.01124
1611.05460,0.01120
1608.99442,0.01109
1606.93425,0.01094
1604.87408,0.01090
1602.81391,0.01095
1600.75373,0.01087
1598.69356,0.01068
1596.63339,0.01043
1594.57322,0.01012
1592.51305,0.00977
1590.45287,0.00942
1588.39270,0.00912
1586.33253,0.00881
1584.27236,0.00847
1582.21219,0.00812
1580.15201,0.00793
1578.09184,0.00782
1576.03167,0.00737
1573.97150,0.00678
1571.91133,0.00652
1569.85115,0.00636
1567.79098,0.00612
1565.73081,0.00598
1563.67064,0.00597
1561.61046,0.00599
1559.55029,0.00575
1557.49012,0.00514
1555.42995,0.00478
1553.36978,0.00463
1551.30960,0.00455
1549.24943,0.00458
1547.18926,0.00474
1545.12909,0.00486
1543.06892,0.00468
1541.00874,0.00418
1538.94857,0.00365
1536.88840,0.00340
1534.82823,0.00324
1532.76805,0.00305
1530.70788,0.00301
1528.64771,0.00316
1526.58754,0.00340
1524.52737,0.00370
1522.46719,0.00382
1520.40702,0.00347
1518.34685,0.00295
1516.28668,0.00262
1514.22651,0.00261
1512.16633,0.00289
1510.10616,0.00320
1508.04599,0.00305
1505.98582,0.00245
1503.92565,0.00215
1501.86547,0.00217
1499.80530,0.00225
1497.74513,0.00230
1495.68496,0.00227
1493.62478,0.00228
1491.56461,0.00244
1489.50444,0.00254
1487.44427,0.00227
1485.38410,0.00196
1483.32392,0.00198
1481.26375,0.00221
1479.20358,0.00240
1477.14341,0.00260
1475.08324,0.00278
1473.02306,0.00277
1470.96289,0.00278
1468.90272,0.00309
1466.84255,0.00357
1464.78238,0.00383
1462.72220,0.00385
1460.66203,0.00411
1458.60186,0.00458
1456.54169,0.00462
1454.48151,0.00426
1452.42134,0.00404
1450.36117,0.00408
1448.30100,0.00422
1446.24083,0.00414
1444.18065,0.00393
1442.12048,0.00385
1440.06031,0.00400
1438.00014,0.00424
1435.93997,0.00436
1433.87979,0.00436
1431.81962,0.00444
1429.75945,0.00466
1427.69928,0.00487
1425.63910,0.00502
1423.57893,0.00514
1421.51876,0.00527
1419.45859,0.00544
1417.39842,0.00566
1415.33824,0.00579
1413.27807,0.00577
1411.21790,0.00569
1409.15773,0.00567
1407.09756,0.00564
1405.03738,0.00543
1402.97721,0.00518
1400.91704,0.00510
1398.85687,0.00512
1396.79670,0.00507
1394.73652,0.00496
1392.67635,0.00488
1390.61618,0.00487
1388.55601,0.00488
1386.49583,0.00482
1384.43566,0.00475
1382.37549,0.00480
1380.31532,0.00491
1378.25515,0.00500
1376.19497,0.00512
1374.13480,0.00518
1372.07463,0.00503
1370.01446,0.00479
1367.95429,0.00458
1365.89411,0.00447
1363.83394,0.00441
1361.77377,0.00428
1359.71360,0.00414
1357.65343,0.00407
1355.59325,0.00403
1353.53308,0.00398
1351.47291,0.00392
1349.41274,0.00382
1347.35256,0.00369
1345.29239,0.00364
1343.23222,0.00375
1341.17205,0.00390
1339.11188,0.00390
1337.05170,0.00375
1334.99153,0.00363
1332.93136,0.00352
1330.87119,0.00338
1328.81102,0.00328
1326.75084,0.00325
1324.69067,0.00327
1322.63050,0.00330
1320.57033,0.00328
1318.51015,0.00318
1316.44998,0.00310
1314.38981,0.00311
1312.32964,0.00311
1310.26947,0.00312
1308.20929,0.00319
1306.14912,0.00321
1304.08895,0.00311
1302.02878,0.00295
1299.96861,0.00284
1297.90843,0.00288
1295.84826,0.00303
1293.78809,0.00310
1291.72792,0.00313
1289.66775,0.00317
1287.60757,0.00307
1285.54740,0.00290
1283.48723,0.00290
1281.42706,0.00304
1279.36688,0.00315
1277.30671,0.00322
1275.24654,0.00326
1273.18637,0.00327
1271.12620,0.00331
1269.06602,0.00341
1267.00585,0.00351
1264.94568,0.00353
1262.88551,0.00348
1260.82534,0.00342
1258.76516,0.00343
1256.70499,0.00346
1254.64482,0.00347
1252.58465,0.00352
1250.52447,0.00353
1248.46430,0.00344
1246.40413,0.00343
1244.34396,0.00348
1242.28379,0.00337
1240.22361,0.00316
1238.16344,0.00300
1236.10327,0.00291
1234.04310,0.00291
1231.98293,0.00296
1229.92275,0.00289
1227.86258,0.00277
1225.80241,0.00276
1223.74224,0.00267
1221.68207,0.00240
1219.62189,0.00209
1217.56172,0.00180
1215.50155,0.00160
1213.44138,0.00156
1211.38120,0.00156
1209.32103,0.00144
1207.26086,0.00130
1205.20069,0.00117
1203.14052,0.00105
1201.08034,0.00091
1199.02017,0.00069
1196.96000,0.00052
1194.89983,0.00049
1192.83966,0.00053
1190.77948,0.00056
1188.71931,0.00062
1186.65914,0.00071
1184.59897,0.00086
1182.53880,0.00105
1180.47862,0.00130
1178.41845,0.00163
1176.35828,0.00193
1174.29811,0.00220
1172.23793,0.00244
1170.17776,0.00271
1168.11759,0.00317
1166.05742,0.00371
1163.99725,0.00408
1161.93707,0.00442
1159.87690,0.00486
1157.81673,0.00515
1155.75656,0.00535
1153.69639,0.00579
1151.63621,0.00633
1149.57604,0.00670
1147.51587,0.00698
1145.45570,0.00722
1143.39552,0.00735
1141.33535,0.00753
1139.27518,0.00786
1137.21501,0.00830
1135.15484,0.00887
1133.09466,0.00934
1131.03449,0.00952
1128.97432,0.00975
1126.91415,0.01023
1124.85398,0.01065
1122.79380,0.01091
1120.73363,0.01114
1118.67346,0.01150
1116.61329,0.01196
1114.55312,0.01236
1112.49294,0.01266
1110.43277,0.01304
1108.37260,0.01365
1106.31243,0.01438
1104.25225,0.01501
1102.19208,0.01557
1100.13191,0.01618
1098.07174,0.01685
1096.01157,0.01749
1093.95139,0.01815
1091.89122,0.01903
1089.83105,0.01996
1087.77088,0.02058
1085.71071,0.02091
1083.65053,0.02125
1081.59036,0.02179
1079.53019,0.02239
1077.47002,0.02291
1075.40985,0.02340
1073.34967,0.02396
1071.28950,0.02447
1069.22933,0.02478
1067.16916,0.02499
1065.10898,0.02521
1063.04881,0.02552
1060.98864,0.02572
1058.92847,0.02572
1056.86830,0.02571
1054.80812,0.02567
1052.74795,0.02553
1050.68778,0.02539
1048.62761,0.02524
1046.56744,0.02500
1044.50726,0.02474
1042.44709,0.02467
1040.38692,0.02460
1038.32675,0.02429
1036.26657,0.02404
1034.20640,0.02394
1032.14623,0.02374
1030.08606,0.02341
1028.02589,0.02315
1025.96571,0.02294
1023.90554,0.02256
1021.84537,0.02218
1019.78520,0.02201
1017.72503,0.02173
1015.66485,0.02120
1013.60468,0.02059
1011.54451,0.01997
1009.48434,0.01946
1007.42417,0.01898
1005.36399,0.01842
1003.30382,0.01800
1001.24365,0.01761
999.18348,0.01725
997.12330,0.01729
995.06313,0.01761
993.00296,0.01771
990.94279,0.01773
988.88262,0.01800
986.82244,0.01818
984.76227,0.01824
982.70210,0.01832
980.64193,0.01805
978.58176,0.01729
976.52158,0.01646
974.46141,0.01579
972.40124,0.01517
970.34107,0.01449
968.28089,0.01369
966.22072,0.01277
964.16055,0.01185
962.10038,0.01092
960.04021,0.01012
957.98003,0.00965
955.91986,0.00925
953.85969,0.00876
951.79952,0.00834
949.73935,0.00800
947.67917,0.00771
945.61900,0.00735
943.55883,0.00702
941.49866,0.00678
939.43849,0.00640
937.37831,0.00601
935.31814,0.00584
933.25797,0.00574
931.19780,0.00566
929.13762,0.00562
927.07745,0.00546
925.01728,0.00511
922.95711,0.00462
920.89694,0.00426
918.83676,0.00422
916.77659,0.00420
914.71642,0.00392
912.65625,0.00345
910.59608,0.00324
908.53590,0.00331
906.47573,0.00307
904.41556,0.00276
902.35539,0.00281
900.29522,0.00294
898.23504,0.00284
896.17487,0.00259
894.11470,0.00247
892.05453,0.00261
889.99435,0.00291
887.93418,0.00288
885.87401,0.00272
883.81384,0.00292
881.75367,0.00325
879.69349,0.00354
877.63332,0.00386
875.57315,0.00401
873.51298,0.00393
871.45281,0.00379
869.39263,0.00371
867.33246,0.00384
865.27229,0.00414
863.21212,0.00445
861.15194,0.00460
859.09177,0.00432
857.03160,0.00368
854.97143,0.00340
852.91126,0.00359
850.85108,0.00384
848.79091,0.00405
846.73074,0.00380
844.67057,0.00322
842.61040,0.00295
840.55022,0.00286
838.49005,0.00277
836.42988,0.00277
834.36971,0.00253
832.30954,0.00199
830.24936,0.00182
828.18919,0.00187
826.12902,0.00156
824.06885,0.00112
822.00867,0.00091
819.94850,0.00097
817.88833,0.00125
815.82816,0.00142
813.76799,0.00112
811.70781,0.00066
809.64764,0.00068
807.58747,0.00114
805.52730,0.00134
803.46713,0.00118
801.40695,0.00104
799.34678,0.00079
797.28661,0.00059
795.22644,0.00076
793.16627,0.00100
791.10609,0.00108
789.04592,0.00127
786.98575,0.00140
784.92558,0.00135
782.86540,0.00132
780.80523,0.00112
778.74506,0.00104
776.68489,0.00130
774.62472,0.00147
772.56454,0.00144
770.50437,0.00140
768.44420,0.00126
766.38403,0.00127
764.32386,0.00175
762.26368,0.00191
760.20351,0.00139
758.14334,0.00087
756.08317,0.00068
754.02299,0.00064
751.96282,0.00070
749.90265,0.00087
747.84248,0.00102
745.78231,0.00093
743.72213,0.00084
741.66196,0.00112
739.60179,0.00139
737.54162,0.00139
735.48145,0.00142
733.42127,0.00126
731.36110,0.00077
729.30093,0.00020
727.24076,0.00000
725.18059,0.00059
723.12041,0.00133
721.06024,0.00121
719.00007,0.00107
716.93990,0.00145
714.87972,0.00230
712.81955,0.00325
710.75938,0.00375
708.69921,0.00355
706.63904,0.00330
704.57886,0.00355
702.51869,0.00353
700.45852,0.00285
698.39835,0.00210
696.33818,0.00139
694.27800,0.00068
692.21783,0.00044
690.15766,0.00093
688.09749,0.00167
686.03731,0.00194
683.97714,0.00193
681.91697,0.00196
679.85680,0.00207
677.79663,0.00219
675.73645,0.00198
673.67628,0.00213
671.61611,0.00381
669.55594,0.00389
667.49577,0.00156
665.43559,0.00293
663.37542,0.00235
661.31525,0.00186
659.25508,0.00233
657.19491,0.00301
655.13473,0.00297
653.07456,0.00229
651.01439,0.00164
648.95422,0.00130
646.89404,0.00109
644.83387,0.00062
642.77370,0.00064
640.71353,0.00085
638.65336,0.00034
636.59318,0.00018
634.53301,0.00082
632.47284,0.00095
630.41267,0.00031
628.35250,0.00003
626.29232,0.00042
624.23215,0.00049
622.17198,0.00028
620.11181,0.00139
618.05164,0.00270
615.99146,0.00211
613.93129,0.00175
611.87112,0.00238
609.81095,0.00204
607.75077,0.00123
605.69060,0.00131
603.63043,0.00116
601.57026,0.00021
599.51009,0.00000
