3996.73391,0.00071
3994.67373,0.00040
3992.61356,0.00047
3990.55339,0.00069
3988.49322,0.00059
3986.43305,0.00018
3984.37287,0.00000
3982.31270,0.00031
3980.25253,0.00059
3978.19236,0.00058
3976.13219,0.00049
3974.07201,0.00042
3972.01184,0.00053
3969.95167,0.00075
3967.89150,0.00081
3965.83133,0.00075
3963.77115,0.00065
3961.71098,0.00050
3959.65081,0.00053
3957.59064,0.00077
3955.53046,0.00093
3953.47029,0.00089
3951.41012,0.00080
3949.34995,0.00102
3947.28978,0.00141
3945.22960,0.00139
3943.16943,0.00104
3941.10926,0.00089
3939.04909,0.00086
3936.98892,0.00066
3934.92874,0.00034
3932.86857,0.00022
3930.80840,0.00053
3928.74823,0.00101
3926.68805,0.00110
3924.62788,0.00067
3922.56771,0.00038
3920.50754,0.00068
3918.44737,0.00098
3916.38719,0.00076
3914.32702,0.00044
3912.26685,0.00043
3910.20668,0.00058
3908.14651,0.00066
3906.08633,0.00089
3904.02616,0.00138
3901.96599,0.00155
3899.90582,0.00126
3897.84565,0.00111
3895.78547,0.00114
3893.72530,0.00109
3891.66513,0.00095
3889.60496,0.00081
3887.54478,0.00080
3885.48461,0.00108
3883.42444,0.00152
3881.36427,0.00175
3879.30410,0.00157
3877.24392,0.00128
3875.18375,0.00113
3873.12358,0.00111
3871.06341,0.00115
3869.00324,0.00098
3866.94306,0.00054
3864.88289,0.00017
3862.82272,0.00007
3860.76255,0.00013
3858.70237,0.00027
3856.64220,0.00076
3854.58203,0.00146
3852.52186,0.00148
3850.46169,0.00080
3848.40151,0.00046
3846.34134,0.00061
3844.28117,0.00085
3842.22100,0.00092
3840.16083,0.00081
3838.10065,0.00061
3836.04048,0.00046
3833.98031,0.00032
3831.92014,0.00013
3829.85997,0.00004
3827.79979,0.00007
3825.73962,0.00017
3823.67945,0.00036
3821.61928,0.00078
3819.55910,0.00127
3817.49893,0.00118
3815.43876,0.00069
3813.37859,0.00040
3811.31842,0.00033
3809.25824,0.00042
3807.19807,0.00055
3805.13790,0.00048
3803.07773,0.00023
3801.01756,0.00023
3798.95738,0.00043
3796.89721,0.00033
3794.83704,0.00007
3792.77687,0.00023
3790.71670,0.00068
3788.65652,0.00097
3786.59635,0.00102
3784.53618,0.00096
3782.47601,0.00072
3780.41583,0.00042
3778.35566,0.00044
3776.29549,0.00075
3774.23532,0.00101
3772.17515,0.00118
3770.11497,0.00136
3768.05480,0.00159
3765.99463,0.00179
3763.93446,0.00166
3761.87429,0.00117
3759.81411,0.00093
3757.75394,0.00119
3755.69377,0.00120
3753.63360,0.00065
3751.57342,0.00024
3749.51325,0.00044
3747.45308,0.00076
3745.39291,0.00091
3743.33274,0.00106
3741.27256,0.00107
3739.21239,0.00077
3737.15222,0.00037
3735.09205,0.00028
3733.03188,0.00042
3730.97170,0.00034
3728.91153,0.00019
3726.85136,0.00032
3724.79119,0.00071
3722.73102,0.00115
3720.67084,0.00154
3718.61067,0.00174
3716.55050,0.00167
3714.49033,0.00139
3712.43015,0.00107
3710.36998,0.00099
3708.30981,0.00124
3706.24964,0.00160
3704.18947,0.00182
3702.12929,0.00173
3700.06912,0.00143
3698.00895,0.00127
3695.94878,0.00129
3693.88861,0.00121
3691.82843,0.00128
3689.76826,0.00148
3687.70809,0.00119
3685.64792,0.00078
3683.58775,0.00077
3681.52757,0.00110
3679.46740,0.00168
3677.40723,0.00216
3675.34706,0.00191
3673.28688,0.00101
3671.22671,0.00039
3669.16654,0.00071
3667.10637,0.00164
3665.04620,0.00219
3662.98602,0.00219
3660.92585,0.00212
3658.86568,0.00223
3656.80551,0.00255
3654.74534,0.00302
3652.68516,0.00340
3650.62499,0.00365
3648.56482,0.00378
3646.50465,0.00392
3644.44447,0.00434
3642.38430,0.00483
3640.32413,0.00499
3638.26396,0.00500
3636.20379,0.00508
3634.14361,0.00499
3632.08344,0.00479
3630.02327,0.00506
3627.96310,0.00589
3625.90293,0.00642
3623.84275,0.00641
3621.78258,0.00649
3619.72241,0.00703
3617.66224,0.00757
3615.60207,0.00757
3613.54189,0.00735
3611.48172,0.00745
3609.42155,0.00789
3607.36138,0.00837
3605.30120,0.00868
3603.24103,0.00897
3601.18086,0.00931
3599.12069,0.00949
3597.06052,0.00950
3595.00034,0.00956
3592.94017,0.00985
3590.88000,0.01037
3588.81983,0.01087
3586.75966,0.01106
3584.69948,0.01114
3582.63931,0.01140
3580.57914,0.01180
3578.51897,0.01228
3576.45879,0.01268
3574.39862,0.01284
3572.33845,0.01295
3570.27828,0.01331
3568.21811,0.01386
3566.15793,0.01415
3564.09776,0.01399
3562.03759,0.01384
3559.97742,0.01408
3557.91725,0.01455
3555.85707,0.01509
3553.79690,0.01559
3551.73673,0.01579
3549.67656,0.01589
3547.61639,0.01625
3545.55621,0.01657
3543.49604,0.01669
3541.43587,0.01692
3539.37570,0.01724
3537.31552,0.01742
3535.25535,0.01751
3533.19518,0.01778
3531.13501,0.01829
3529.07484,0.01875
3527.01466,0.01908
3524.95449,0.01956
3522.89432,0.02006
3520.83415,0.02023
3518.77398,0.02029
3516.71380,0.02050
3514.65363,0.02074
3512.59346,0.02088
3510.53329,0.02102
3508.47312,0.02121
3506.41294,0.02131
3504.35277,0.02134
3502.29260,0.02154
3500.23243,0.02203
3498.17225,0.02266
3496.11208,0.02304
3494.05191,0.02307
3491.99174,0.02325
3489.93157,0.02364
3487.87139,0.02387
3485.81122,0.02411
3483.75105,0.02455
3481.69088,0.02475
3479.63071,0.02458
3477.57053,0.02457
3475.51036,0.02496
3473.45019,0.02535
3471.39002,0.02546
3469.32984,0.02552
3467.26967,0.02567
3465.20950,0.02570
3463.14933,0.02558
3461.08916,0.02561
3459.02898,0.02581
3456.96881,0.02618
3454.90864,0.02668
3452.84847,0.02717
3450.78830,0.02750
3448.72812,0.02763
3446.66795,0.02765
3444.60778,0.02763
3442.54761,0.02765
3440.48744,0.02776
3438.42726,0.02780
3436.36709,0.02784
3434.30692,0.02804
3432.24675,0.02810
3430.18657,0.02803
3428.12640,0.02820
3426.06623,0.02857
3424.00606,0.02906
3421.94589,0.02959
3419.88571,0.02983
3417.82554,0.02963
3415.76537,0.02924
3413.70520,0.02923
3411.64503,0.02954
3409.58485,0.02976
3407.52468,0.02988
3405.46451,0.03002
3403.40434,0.03004
3401.34416,0.03006
3399.28399,0.03030
3397.22382,0.03062
3395.16365,0.03092
3393.10348,0.03119
3391.04330,0.03130
3388.98313,0.03130
3386.92296,0.03136
3384.86279,0.03152
3382.80262,0.03175
3380.74244,0.03187
3378.68227,0.03186
3376.62210,0.03181
3374.56193,0.03177
3372.50176,0.03184
3370.44158,0.03196
3368.38141,0.03187
3366.32124,0.03164
3364.26107,0.03152
3362.20089,0.03142
3360.14072,0.03155
3358.08055,0.03212
3356.02038,0.03286
3353.96021,0.03327
3351.90003,0.03313
3349.83986,0.03272
3347.77969,0.03238
3345.71952,0.03213
3343.65935,0.03196
3341.59917,0.03204
3339.53900,0.03234
3337.47883,0.03256
3335.41866,0.03258
3333.35849,0.03266
3331.29831,0.03280
3329.23814,0.03287
3327.17797,0.03294
3325.11780,0.03291
3323.05762,0.03283
3320.99745,0.03296
3318.93728,0.03315
3316.87711,0.03320
3314.81694,0.03325
3312.75676,0.03332
3310.69659,0.03313
3308.63642,0.03268
3306.57625,0.03249
3304.51608,0.03272
3302.45590,0.03296
3300.39573,0.03316
3298.33556,0.03328
3296.27539,0.03313
3294.21521,0.03292
3292.15504,0.03287
3290.09487,0.03299
3288.03470,0.03327
3285.97453,0.03340
3283.91435,0.03326
3281.85418,0.03309
3279.79401,0.03302
3277.73384,0.03285
3275.67367,0.03253
3273.61349,0.03242
3271.55332,0.03261
3269.49315,0.03289
3267.43298,0.03295
3265.37281,0.03294
3263.31263,0.03298
3261.25246,0.03285
3259.19229,0.03272
3257.13212,0.03276
3255.07194,0.03282
3253.01177,0.03279
3250.95160,0.03287
3248.89143,0.03310
3246.83126,0.03318
3244.77108,0.03315
3242.71091,0.03320
3240.65074,0.03323
3238.59057,0.03313
3236.53040,0.03306
3234.47022,0.03309
3232.41005,0.03298
3230.34988,0.03274
3228.28971,0.03259
3226.22954,0.03263
3224.16936,0.03295
3222.10919,0.03326
3220.04902,0.03314
3217.98885,0.03285
3215.92867,0.03275
3213.86850,0.03267
3211.80833,0.03247
3209.74816,0.03224
3207.68799,0.03209
3205.62781,0.03219
3203.56764,0.03254
3201.50747,0.03278
3199.44730,0.03261
3197.38713,0.03214
3195.32695,0.03189
3193.26678,0.03207
3191.20661,0.03212
3189.14644,0.03178
3187.08626,0.03161
3185.02609,0.03167
3182.96592,0.03150
3180.90575,0.03106
3178.84558,0.03066
3176.78540,0.03060
3174.72523,0.03076
3172.66506,0.03081
3170.60489,0.03095
3168.54472,0.03108
3166.48454,0.03084
3164.42437,0.03048
3162.36420,0.03050
3160.30403,0.03072
3158.24386,0.03070
3156.18368,0.03047
3154.12351,0.03015
3152.06334,0.02981
3150.00317,0.02981
3147.94299,0.03021
3145.88282,0.03050
3143.82265,0.03026
3141.76248,0.02980
3139.70231,0.02952
3137.64213,0.02935
3135.58196,0.02911
3133.52179,0.02898
3131.46162,0.02903
3129.40145,0.02901
3127.34127,0.02891
3125.28110,0.02884
3123.22093,0.02860
3121.16076,0.02839
3119.10058,0.02845
3117.04041,0.02851
3114.98024,0.02847
3112.92007,0.02844
3110.85990,0.02831
3108.79972,0.02803
3106.73955,0.02799
3104.67938,0.02803
3102.61921,0.02766
3100.55904,0.02717
3098.49886,0.02704
3096.43869,0.02702
3094.37852,0.02681
3092.31835,0.02664
3090.25818,0.02655
3088.19800,0.02630
3086.13783,0.02609
3084.07766,0.02614
3082.01749,0.02623
3079.95731,0.02615
3077.89714,0.02588
3075.83697,0.02555
3073.77680,0.02532
3071.71663,0.02519
3069.65645,0.02512
3067.59628,0.02507
3065.53611,0.02494
3063.47594,0.02485
3061.41577,0.02477
3059.35559,0.02461
3057.29542,0.02445
3055.23525,0.02435
3053.17508,0.02445
3051.11491,0.02459
3049.05473,0.02428
3046.99456,0.02373
3044.93439,0.02350
3042.87422,0.02353
3040.81404,0.02339
3038.75387,0.02304
3036.69370,0.02285
3034.63353,0.02285
3032.57336,0.02278
3030.51318,0.02259
3028.45301,0.02233
3026.39284,0.02209
3024.33267,0.02196
3022.27250,0.02181
3020.21232,0.02160
3018.15215,0.02154
3016.09198,0.02168
3014.03181,0.02177
3011.97163,0.02153
3009.91146,0.02115
3007.85129,0.02097
3005.79112,0.02094
3003.73095,0.02092
3001.67077,0.02088
2999.61060,0.02082
2997.55043,0.02065
2995.49026,0.02037
2993.43009,0.02027
2991.36991,0.02033
2989.30974,0.02014
2987.24957,0.01975
2985.18940,0.01954
2983.12923,0.01954
2981.06905,0.01944
2979.00888,0.01912
2976.94871,0.01888
2974.88854,0.01901
2972.82836,0.01927
2970.76819,0.01925
2968.70802,0.01909
2966.64785,0.01903
2964.58768,0.01896
2962.52750,0.01909
2960.46733,0.01952
2958.40716,0.01973
2956.34699,0.01957
2954.28682,0.01951
2952.22664,0.01945
2950.16647,0.01912
2948.10630,0.01888
2946.04613,0.01890
2943.98596,0.01898
2941.92578,0.01910
2939.86561,0.01926
2937.80544,0.01948
2935.74527,0.01953
2933.68509,0.01926
2931.62492,0.01899
2929.56475,0.01902
2927.50458,0.01919
2925.44441,0.01913
2923.38423,0.01877
2921.32406,0.01843
2919.26389,0.01830
2917.20372,0.01827
2915.14355,0.01817
2913.08337,0.01810
2911.02320,0.01810
2908.96303,0.01797
2906.90286,0.01766
2904.84268,0.01741
2902.78251,0.01732
2900.72234,0.01734
2898.66217,0.01740
2896.60200,0.01758
2894.54182,0.01776
2892.48165,0.01759
2890.42148,0.01725
2888.36131,0.01710
2886.30114,0.01699
2884.24096,0.01688
2882.18079,0.01691
2880.12062,0.01694
2878.06045,0.01690
2876.00028,0.01680
2873.94010,0.01662
2871.87993,0.01651
2869.81976,0.01640
2867.75959,0.01617
2865.69941,0.01588
2863.63924,0.01572
2861.57907,0.01576
2859.51890,0.01584
2857.45873,0.01589
2855.39855,0.01584
2853.33838,0.01566
2851.27821,0.01554
2849.21804,0.01566
2847.15787,0.01574
2845.09769,0.01543
2843.03752,0.01493
2840.97735,0.01466
2838.91718,0.01455
2836.85700,0.01445
2834.79683,0.01446
2832.73666,0.01442
2830.67649,0.01427
2828.61632,0.01425
2826.55614,0.01433
2824.49597,0.01420
2822.43580,0.01403
2820.37563,0.01408
2818.31546,0.01412
2816.25528,0.01402
2814.19511,0.01398
2812.13494,0.01402
2810.07477,0.01390
2808.01460,0.01353
2805.95442,0.01316
2803.89425,0.01319
2801.83408,0.01348
2799.77391,0.01352
2797.71373,0.01340
2795.65356,0.01332
2793.59339,0.01319
2791.53322,0.01295
2789.47305,0.01277
2787.41287,0.01269
2785.35270,0.01262
2783.29253,0.01262
2781.23236,0.01254
2779.17219,0.01238
2777.11201,0.01236
2775.05184,0.01251
2772.99167,0.01263
2770.93150,0.01265
2768.87133,0.01255
2766.81115,0.01233
2764.75098,0.01212
2762.69081,0.01206
2760.63064,0.01202
2758.57046,0.01187
2756.51029,0.01164
2754.45012,0.01146
2752.38995,0.01142
2750.32978,0.01142
2748.26960,0.01148
2746.20943,0.01154
2744.14926,0.01152
2742.08909,0.01148
2740.02892,0.01149
2737.96874,0.01139
2735.90857,0.01126
2733.84840,0.01129
2731.78823,0.01133
2729.72805,0.01124
2727.66788,0.01114
2725.60771,0.01106
2723.54754,0.01097
2721.48737,0.01089
2719.42719,0.01077
2717.36702,0.01058
2715.30685,0.01053
2713.24668,0.01057
2711.18651,0.01057
2709.12633,0.01042
2707.06616,0.01015
2705.00599,0.01004
2702.94582,0.01018
2700.88565,0.01032
2698.82547,0.01032
2696.76530,0.01022
2694.70513,0.01003
2692.64496,0.00986
2690.58478,0.00975
2688.52461,0.00965
2686.46444,0.00959
2684.40427,0.00957
2682.34410,0.00954
2680.28392,0.00942
2678.22375,0.00925
2676.16358,0.00912
2674.10341,0.00904
2672.04324,0.00900
2669.98306,0.00899
2667.92289,0.00908
2665.86272,0.00922
2663.80255,0.00921
2661.74238,0.00913
2659.68220,0.00913
2657.62203,0.00910
2655.56186,0.00888
2653.50169,0.00860
2651.44151,0.00858
2649.38134,0.00878
2647.32117,0.00878
2645.26100,0.00847
2643.20083,0.00818
2641.14065,0.00800
2639.08048,0.00784
2637.02031,0.00784
2634.96014,0.00798
2632.89997,0.00803
2630.83979,0.00798
2628.77962,0.00792
2626.71945,0.00780
2624.65928,0.00773
2622.59910,0.00780
2620.53893,0.00769
2618.47876,0.00736
2616.41859,0.00715
2614.35842,0.00711
2612.29824,0.00714
2610.23807,0.00730
2608.17790,0.00746
2606.11773,0.00735
2604.05756,0.00706
2601.99738,0.00690
2599.93721,0.00692
2597.87704,0.00681
2595.81687,0.00648
2593.75670,0.00642
2591.69652,0.00675
2589.63635,0.00701
2587.57618,0.00701
2585.51601,0.00689
2583.45583,0.00672
2581.39566,0.00659
2579.33549,0.00658
2577.27532,0.00662
2575.21515,0.00654
2573.15497,0.00651
2571.09480,0.00659
2569.03463,0.00648
2566.97446,0.00628
2564.91429,0.00631
2562.85411,0.00642
2560.79394,0.00648
2558.73377,0.00665
2556.67360,0.00684
2554.61342,0.00679
2552.55325,0.00650
2550.49308,0.00615
2548.43291,0.00592
2546.37274,0.00585
2544.31256,0.00601
2542.25239,0.00617
2540.19222,0.00605
2538.13205,0.00591
2536.07188,0.00602
2534.01170,0.00610
2531.95153,0.00589
2529.89136,0.00569
2527.83119,0.00593
2525.77102,0.00633
2523.71084,0.00637
2521.65067,0.00617
2519.59050,0.00619
2517.53033,0.00646
2515.47015,0.00644
2513.40998,0.00608
2511.34981,0.00604
2509.28964,0.00635
2507.22947,0.00646
2505.16929,0.00641
2503.10912,0.00637
2501.04895,0.00634
2498.98878,0.00616
2496.92861,0.00590
2494.86843,0.00580
2492.80826,0.00571
2490.74809,0.00555
2488.68792,0.00561
2486.62775,0.00607
2484.56757,0.00666
2482.50740,0.00687
2480.44723,0.00681
2478.38706,0.00673
2476.32688,0.00661
2474.26671,0.00669
2472.20654,0.00683
2470.14637,0.00676
2468.08620,0.00659
2466.02602,0.00638
2463.96585,0.00628
2461.90568,0.00655
2459.84551,0.00674
2457.78534,0.00649
2455.72516,0.00636
2453.66499,0.00649
2451.60482,0.00644
2449.54465,0.00621
2447.48447,0.00628
2445.42430,0.00666
2443.36413,0.00679
2441.30396,0.00662
2439.24379,0.00671
2437.18361,0.00702
2435.12344,0.00702
2433.06327,0.00672
2431.00310,0.00645
2428.94293,0.00648
2426.88275,0.00684
2424.82258,0.00712
2422.76241,0.00700
2420.70224,0.00673
2418.64207,0.00652
2416.58189,0.00639
2414.52172,0.00628
2412.46155,0.00624
2410.40138,0.00650
2408.34120,0.00683
2406.28103,0.00691
2404.22086,0.00677
2402.16069,0.00649
2400.10052,0.00618
2398.04034,0.00583
2395.98017,0.00560
2393.92000,0.00554
2391.85983,0.00563
2389.79966,0.00577
2387.73948,0.00597
2385.67931,0.00622
2383.61914,0.00639
2381.55897,0.00652
2379.49880,0.00667
2377.43862,0.00674
2375.37845,0.00640
2373.31828,0.00550
2371.25811,0.00443
2369.19793,0.00394
2367.13776,0.00439
2365.07759,0.00524
2363.01742,0.00576
2360.95725,0.00575
2358.89707,0.00583
2356.83690,0.00632
2354.77673,0.00621
2352.71656,0.00544
2350.65639,0.00503
2348.59621,0.00521
2346.53604,0.00569
2344.47587,0.00600
2342.41570,0.00578
2340.35552,0.00561
2338.29535,0.00556
2336.23518,0.00549
2334.17501,0.00571
2332.11484,0.00591
2330.05466,0.00606
2327.99449,0.00653
2325.93432,0.00676
2323.87415,0.00650
2321.81398,0.00647
2319.75380,0.00675
2317.69363,0.00665
2315.63346,0.00634
2313.57329,0.00637
2311.51312,0.00658
2309.45294,0.00649
2307.39277,0.00625
2305.33260,0.00625
2303.27243,0.00635
2301.21225,0.00626
2299.15208,0.00604
2297.09191,0.00579
2295.03174,0.00548
2292.97157,0.00526
2290.91139,0.00539
2288.85122,0.00575
2286.79105,0.00595
2284.73088,0.00577
2282.67071,0.00551
2280.61053,0.00564
2278.55036,0.00598
2276.49019,0.00610
2274.43002,0.00617
2272.36984,0.00637
2270.30967,0.00637
2268.24950,0.00590
2266.18933,0.00524
2264.12916,0.00498
2262.06898,0.00517
2260.00881,0.00532
2257.94864,0.00545
2255.88847,0.00570
2253.82830,0.00599
2251.76812,0.00637
2249.70795,0.00632
2247.64778,0.00536
2245.58761,0.00464
2243.52744,0.00494
2241.46726,0.00544
2239.40709,0.00565
2237.34692,0.00589
2235.28675,0.00593
2233.22657,0.00562
2231.16640,0.00549
2229.10623,0.00552
2227.04606,0.00524
2224.98589,0.00477
2222.92571,0.00428
2220.86554,0.00374
2218.80537,0.00355
2216.74520,0.00435
2214.68503,0.00556
2212.62485,0.00564
2210.56468,0.00477
2208.50451,0.00450
2206.44434,0.00507
2204.38417,0.00574
2202.32399,0.00585
2200.26382,0.00524
2198.20365,0.00467
2196.14348,0.00460
2194.08330,0.00503
2192.02313,0.00563
2189.96296,0.00576
2187.90279,0.00534
2185.84262,0.00478
2183.78244,0.00465
2181.72227,0.00483
2179.66210,0.00464
2177.60193,0.00365
2175.54176,0.00229
2173.48158,0.00193
2171.42141,0.00220
2169.36124,0.00224
2167.30107,0.00260
2165.24089,0.00307
2163.18072,0.00299
2161.12055,0.00290
2159.06038,0.00297
2157.00021,0.00233
2154.94003,0.00143
2152.87986,0.00149
2150.81969,0.00238
2148.75952,0.00296
2146.69935,0.00315
2144.63917,0.00337
2142.57900,0.00353
2140.51883,0.00393
2138.45866,0.00439
2136.39849,0.00446
2134.33831,0.00386
2132.27814,0.00294
2130.21797,0.00282
2128.15780,0.00323
2126.09762,0.00335
2124.03745,0.00346
2121.97728,0.00381
2119.91711,0.00404
2117.85694,0.00428
2115.79676,0.00489
2113.73659,0.00543
2111.67642,0.00523
2109.61625,0.00399
2107.55608,0.00258
2105.49590,0.00229
2103.43573,0.00283
2101.37556,0.00334
2099.31539,0.00356
2097.25521,0.00319
2095.19504,0.00245
2093.13487,0.00197
2091.07470,0.00215
2089.01453,0.00273
2086.95435,0.00304
2084.89418,0.00330
2082.83401,0.00402
2080.77384,0.00473
2078.71367,0.00468
2076.65349,0.00390
2074.59332,0.00302
2072.53315,0.00272
2070.47298,0.00306
2068.41281,0.00351
2066.35263,0.00384
2064.29246,0.00418
2062.23229,0.00441
2060.17212,0.00430
2058.11194,0.00395
2056.05177,0.00352
2053.99160,0.00321
2051.93143,0.00339
2049.87126,0.00358
2047.81108,0.00313
2045.75091,0.00258
2043.69074,0.00205
2041.63057,0.00174
2039.57040,0.00230
2037.51022,0.00269
2035.45005,0.00199
2033.38988,0.00186
2031.32971,0.00341
2029.26954,0.00452
2027.20936,0.00395
2025.14919,0.00319
2023.08902,0.00275
2021.02885,0.00204
2018.96867,0.00179
2016.90850,0.00215
2014.84833,0.00206
2012.78816,0.00212
2010.72799,0.00319
2008.66781,0.00459
2006.60764,0.00513
2004.54747,0.00469
2002.48730,0.00425
2000.42713,0.00412
1998.36695,0.00412
1996.30678,0.00419
1994.24661,0.00409
1992.18644,0.00337
1990.12626,0.00220
1988.06609,0.00148
1986.00592,0.00171
1983.94575,0.00284
1981.88558,0.00359
1979.82540,0.00277
1977.76523,0.00143
1975.70506,0.00115
1973.64489,0.00174
1971.58472,0.00261
1969.52454,0.00339
1967.46437,0.00341
1965.40420,0.00308
1963.34403,0.00290
1961.28386,0.00230
1959.22368,0.00124
1957.16351,0.00056
1955.10334,0.00082
1953.04317,0.00171
1950.98299,0.00245
1948.92282,0.00256
1946.86265,0.00238
1944.80248,0.00250
1942.74231,0.00269
1940.68213,0.00246
1938.62196,0.00207
1936.56179,0.00185
1934.50162,0.00157
1932.44145,0.00122
1930.38127,0.00135
1928.32110,0.00189
1926.26093,0.00248
1924.20076,0.00279
1922.14059,0.00243
1920.08041,0.00185
1918.02024,0.00173
1915.96007,0.00178
1913.89990,0.00175
1911.83972,0.00190
1909.77955,0.00216
1907.71938,0.00229
1905.65921,0.00237
1903.59904,0.00243
1901.53886,0.00232
1899.47869,0.00232
1897.41852,0.00271
1895.35835,0.00303
1893.29818,0.00270
1891.23800,0.00202
1889.17783,0.00179
1887.11766,0.00213
1885.05749,0.00243
1882.99731,0.00235
1880.93714,0.00216
1878.87697,0.00226
1876.81680,0.00265
1874.75663,0.00279
1872.69645,0.00243
1870.63628,0.00207
1868.57611,0.00208
1866.51594,0.00219
1864.45577,0.00216
1862.39559,0.00210
1860.33542,0.00213
1858.27525,0.00227
1856.21508,0.00232
1854.15491,0.00212
1852.09473,0.00199
1850.03456,0.00225
1847.97439,0.00264
1845.91422,0.00276
1843.85404,0.00258
1841.79387,0.00233
1839.73370,0.00220
1837.67353,0.00226
1835.61336,0.00237
1833.55318,0.00234
1831.49301,0.00213
1829.43284,0.00189
1827.37267,0.00189
1825.31250,0.00215
1823.25232,0.00239
1821.19215,0.00238
1819.13198,0.00213
1817.07181,0.00191
1815.01163,0.00185
1812.95146,0.00180
1810.89129,0.00170
1808.83112,0.00168
1806.77095,0.00177
1804.71077,0.00188
1802.65060,0.00202
1800.59043,0.00217
1798.53026,0.00223
1796.47009,0.00231
1794.40991,0.00254
1792.34974,0.00278
1790.28957,0.00279
1788.22940,0.00257
1786.16923,0.00243
1784.10905,0.00254
1782.04888,0.00265
1779.98871,0.00265
1777.92854,0.00266
1775.86836,0.00272
1773.80819,0.00280
1771.74802,0.00296
1769.68785,0.00308
1767.62768,0.00298
1765.56750,0.00283
1763.50733,0.00289
1761.44716,0.00311
1759.38699,0.00323
1757.32682,0.00319
1755.26664,0.00315
1753.20647,0.00333
1751.14630,0.00364
1749.08613,0.00378
1747.02596,0.00374
1744.96578,0.00388
1742.90561,0.00424
1740.84544,0.00451
1738.78527,0.00457
1736.72509,0.00465
1734.66492,0.00493
1732.60475,0.00519
1730.54458,0.00518
1728.48441,0.00500
1726.42423,0.00485
1724.36406,0.00489
1722.30389,0.00511
1720.24372,0.00542
1718.18355,0.00575
1716.12337,0.00583
1714.06320,0.00570
1712.00303,0.00576
1709.94286,0.00605
1707.88268,0.00628
1705.82251,0.00636
1703.76234,0.00647
1701.70217,0.00652
1699.64200,0.00636
1697.58182,0.00646
1695.52165,0.00710
1693.46148,0.00778
1691.40131,0.00812
1689.34114,0.00830
1687.28096,0.00857
1685.22079,0.00892
1683.16062,0.00919
1681.10045,0.00940
1679.04028,0.00974
1676.98010,0.01024
1674.91993,0.01088
1672.85976,0.01148
1670.79959,0.01178
1668.73941,0.01186
1666.67924,0.01209
1664.61907,0.01249
1662.55890,0.01274
1660.49873,0.01274
1658.43855,0.01284
1656.37838,0.01319
1654.31821,0.01358
1652.25804,0.01386
1650.19787,0.01403
1648.13769,0.01391
1646.07752,0.01353
1644.01735,0.01340
1641.95718,0.01361
1639.89701,0.01401
1637.83683,0.01433
1635.77666,0.01420
1633.71649,0.01378
1631.65632,0.01357
1629.59614,0.01344
1627.53597,0.01317
1625.47580,0.01287
1623.41563,0.01270
1621.35546,0.01275
1619.29528,0.01294
1617.23511,0.01302
1615.17494,0.01291
1613.11477,0.01280
1611.05460,0.01272
1608.99442,0.01253
1606.93425,0.01229
1604.87408,0.01210
1602.81391,0.01190
1600.75373,0.01164
1598.69356,0.01138
1596.63339,0.01116
1594.57322,0.01098
1592.51305,0.01081
1590.45287,0.01062
1588.39270,0.01031
1586.33253,0.00988
1584.27236,0.00944
1582.21219,0.00914
1580.15201,0.00896
1578.09184,0.00868
1576.03167,0.00812
1573.97150,0.00760
1571.91133,0.00740
1569.85115,0.00726
1567.79098,0.00706
1565.73081,0.00689
1563.67064,0.00683
1561.61046,0.00690
1559.55029,0.00684
1557.49012,0.00642
1555.42995,0.00595
1553.36978,0.00547
1551.30960,0.00510
1549.24943,0.00498
1547.18926,0.00508
1545.12909,0.00514
1543.06892,0.00490
1541.00874,0.00443
1538.94857,0.00423
1536.88840,0.00433
1534.82823,0.00434
1532.76805,0.00419
1530.70788,0.00402
1528.64771,0.00382
1526.58754,0.00364
1524.52737,0.00366
1522.46719,0.00375
1520.40702,0.00364
1518.34685,0.00340
1516.28668,0.00325
1514.22651,0.00328
1512.16633,0.00341
1510.10616,0.00346
1508.04599,0.00321
1505.98582,0.00281
1503.92565,0.00271
1501.86547,0.00278
1499.80530,0.00278
1497.74513,0.00271
1495.68496,0.00270
1493.62478,0.00284
1491.56461,0.00295
1489.50444,0.00286
1487.44427,0.00273
1485.38410,0.00270
1483.32392,0.00274
1481.26375,0.00288
1479.20358,0.00312
1477.14341,0.00335
1475.08324,0.00340
1473.02306,0.00324
1470.96289,0.00309
1468.90272,0.00314
1466.84255,0.00340
1464.78238,0.00371
1462.72220,0.00392
1460.66203,0.00411
1458.60186,0.00436
1456.54169,0.00444
1454.48151,0.00426
1452.42134,0.00410
1450.36117,0.00412
1448.30100,0.00421
1446.24083,0.00415
1444.18065,0.00397
1442.12048,0.00387
1440.06031,0.00392
1438.00014,0.00405
1435.93997,0.00410
1433.87979,0.00401
1431.81962,0.00394
1429.75945,0.00401
1427.69928,0.00426
1425.63910,0.00460
1423.57893,0.00485
1421.51876,0.00489
1419.45859,0.00482
1417.39842,0.00489
1415.33824,0.00511
1413.27807,0.00517
1411.21790,0.00504
1409.15773,0.00492
1407.09756,0.00486
1405.03738,0.00472
1402.97721,0.00452
1400.91704,0.00437
1398.85687,0.00433
1396.79670,0.00439
1394.73652,0.00442
1392.67635,0.00429
1390.61618,0.00415
1388.55601,0.00417
1386.49583,0.00428
1384.43566,0.00434
1382.37549,0.00443
1380.31532,0.00458
1378.25515,0.00469
1376.19497,0.00480
1374.13480,0.00485
1372.07463,0.00468
1370.01446,0.00444
1367.95429,0.00430
1365.89411,0.00428
1363.83394,0.00424
1361.77377,0.00403
1359.71360,0.00377
1357.65343,0.00361
1355.59325,0.00354
1353.53308,0.00355
1351.47291,0.00353
1349.41274,0.00340
1347.35256,0.00323
1345.29239,0.00315
1343.23222,0.00313
1341.17205,0.00310
1339.11188,0.00310
1337.05170,0.00317
1334.99153,0.00320
1332.93136,0.00308
1330.87119,0.00291
1328.81102,0.00282
1326.75084,0.00286
1324.69067,0.00300
1322.63050,0.00316
1320.57033,0.00327
1318.51015,0.00329
1316.44998,0.00325
1314.38981,0.00310
1312.32964,0.00292
1310.26947,0.00293
1308.20929,0.00310
1306.14912,0.00314
1304.08895,0.00300
1302.02878,0.00291
1299.96861,0.00291
1297.90843,0.00293
1295.84826,0.00299
1293.78809,0.00308
1291.72792,0.00312
1289.66775,0.00312
1287.60757,0.00306
1285.54740,0.00306
1283.48723,0.00319
1281.42706,0.00330
1279.36688,0.00330
1277.30671,0.00328
1275.24654,0.00332
1273.18637,0.00341
1271.12620,0.00354
1269.06602,0.00369
1267.00585,0.00378
1264.94568,0.00375
1262.88551,0.00370
1260.82534,0.00362
1258.76516,0.00357
1256.70499,0.00361
1254.64482,0.00367
1252.58465,0.00370
1250.52447,0.00373
1248.46430,0.00375
1246.40413,0.00359
1244.34396,0.00333
1242.28379,0.00321
1240.22361,0.00317
1238.16344,0.00309
1236.10327,0.00298
1234.04310,0.00296
1231.98293,0.00299
1229.92275,0.00288
1227.86258,0.00271
1225.80241,0.00255
1223.74224,0.00233
1221.68207,0.00208
1219.62189,0.00194
1217.56172,0.00184
1215.50155,0.00172
1213.44138,0.00168
1211.38120,0.00170
1209.32103,0.00171
1207.26086,0.00158
1205.20069,0.00132
1203.14052,0.00113
1201.08034,0.00100
1199.02017,0.00081
1196.96000,0.00077
1194.89983,0.00092
1192.83966,0.00108
1190.77948,0.00120
1188.71931,0.00134
1186.65914,0.00145
1184.59897,0.00157
1182.53880,0.00186
1180.47862,0.00233
1178.41845,0.00287
1176.35828,0.00336
1174.29811,0.00370
1172.23793,0.00388
1170.17776,0.00422
1168.11759,0.00484
1166.05742,0.00540
1163.99725,0.00589
1161.93707,0.00658
1159.87690,0.00727
1157.81673,0.00766
1155.75656,0.00795
1153.69639,0.00836
1151.63621,0.00887
1149.57604,0.00943
1147.51587,0.00996
1145.45570,0.01036
1143.39552,0.01074
1141.33535,0.01107
1139.27518,0.01142
1137.21501,0.01202
1135.15484,0.01284
1133.09466,0.01358
1131.03449,0.01416
1128.97432,0.01476
1126.91415,0.01546
1124.85398,0.01612
1122.79380,0.01671
1120.73363,0.01736
1118.67346,0.01812
1116.61329,0.01887
1114.55312,0.01948
1112.49294,0.02001
1110.43277,0.02073
1108.37260,0.02180
1106.31243,0.02291
1104.25225,0.02383
1102.19208,0.02473
1100.13191,0.02559
1098.07174,0.02626
1096.01157,0.02688
1093.95139,0.02767
1091.89122,0.02871
1089.83105,0.02982
1087.77088,0.03068
1085.71071,0.03123
1083.65053,0.03175
1081.59036,0.03232
1079.53019,0.03283
1077.47002,0.03329
1075.40985,0.03378
1073.34967,0.03431
1071.28950,0.03469
1069.22933,0.03489
1067.16916,0.03499
1065.10898,0.03494
1063.04881,0.03485
1060.98864,0.03474
1058.92847,0.03457
1056.86830,0.03449
1054.80812,0.03443
1052.74795,0.03426
1050.68778,0.03396
1048.62761,0.03339
1046.56744,0.03259
1044.50726,0.03195
1042.44709,0.03148
1040.38692,0.03093
1038.32675,0.03029
1036.26657,0.02972
1034.20640,0.02918
1032.14623,0.02851
1030.08606,0.02772
1028.02589,0.02707
1025.96571,0.02654
1023.90554,0.02581
1021.84537,0.02507
1019.78520,0.02453
1017.72503,0.02397
1015.66485,0.02334
1013.60468,0.02278
1011.54451,0.02236
1009.48434,0.02219
1007.42417,0.02200
1005.36399,0.02149
1003.30382,0.02105
1001.24365,0.02101
999.18348,0.02120
997.12330,0.02163
995.06313,0.02221
993.00296,0.02259
990.94279,0.02287
988.88262,0.02323
986.82244,0.02359
984.76227,0.02394
982.70210,0.02405
980.64193,0.02368
978.58176,0.02305
976.52158,0.02241
974.46141,0.02167
972.40124,0.02066
970.34107,0.01958
968.28089,0.01853
966.22072,0.01737
964.16055,0.01625
962.10038,0.01527
960.04021,0.01442
957.98003,0.01377
955.91986,0.01323
953.85969,0.01267
951.79952,0.01197
949.73935,0.01121
947.67917,0.01065
945.61900,0.01034
943.55883,0.01027
941.49866,0.01018
939.43849,0.00978
937.37831,0.00924
935.31814,0.00884
933.25797,0.00871
931.19780,0.00882
929.13762,0.00886
927.07745,0.00864
925.01728,0.00828
922.95711,0.00785
920.89694,0.00744
918.83676,0.00711
916.77659,0.00678
914.71642,0.00653
912.65625,0.00628
910.59608,0.00596
908.53590,0.00563
906.47573,0.00523
904.41556,0.00493
902.35539,0.00493
900.29522,0.00511
898.23504,0.00522
896.17487,0.00536
894.11470,0.00541
892.05453,0.00513
889.99435,0.00488
887.93418,0.00496
885.87401,0.00542
883.81384,0.00604
881.75367,0.00652
879.69349,0.00696
877.63332,0.00737
875.57315,0.00760
873.51298,0.00766
871.45281,0.00756
869.39263,0.00765
867.33246,0.00810
865.27229,0.00852
863.21212,0.00871
861.15194,0.00875
859.09177,0.00855
857.03160,0.00818
854.97143,0.00808
852.91126,0.00806
850.85108,0.00782
848.79091,0.00758
846.73074,0.00714
844.67057,0.00654
842.61040,0.00641
840.55022,0.00658
838.49005,0.00624
836.42988,0.00550
834.36971,0.00476
832.30954,0.00395
830.24936,0.00349
828.18919,0.00368
826.12902,0.00386
824.06885,0.00373
822.00867,0.00358
819.94850,0.00335
817.88833,0.00306
815.82816,0.00278
813.76799,0.00259
811.70781,0.00265
809.64764,0.00273
807.58747,0.00270
805.52730,0.00266
803.46713,0.00264
801.40695,0.00251
799.34678,0.00233
797.28661,0.00214
795.22644,0.00175
793.16627,0.00131
791.10609,0.00159
789.04592,0.00258
786.98575,0.00315
784.92558,0.00305
782.86540,0.00273
780.80523,0.00231
778.74506,0.00221
776.68489,0.00231
774.62472,0.00210
772.56454,0.00197
770.50437,0.00188
768.44420,0.00151
766.38403,0.00125
764.32386,0.00126
762.26368,0.00145
760.20351,0.00172
758.14334,0.00180
756.08317,0.00160
754.02299,0.00133
751.96282,0.00108
749.90265,0.00089
747.84248,0.00091
745.78231,0.00089
743.72213,0.00078
741.66196,0.00078
739.60179,0.00086
737.54162,0.00120
735.48145,0.00131
733.42127,0.00079
731.36110,0.00020
729.30093,0.00008
727.24076,0.00047
725.18059,0.00086
723.12041,0.00118
721.06024,0.00157
719.00007,0.00204
716.93990,0.00225
714.87972,0.00222
712.81955,0.00217
710.75938,0.00212
708.69921,0.00201
706.63904,0.00198
704.57886,0.00199
702.51869,0.00171
700.45852,0.00138
698.39835,0.00130
696.33818,0.00125
694.27800,0.00110
692.21783,0.00091
690.15766,0.00084
688.09749,0.00109
686.03731,0.00142
683.97714,0.00145
681.91697,0.00109
679.85680,0.00088
677.79663,0.00124
675.73645,0.00163
673.67628,0.00174
671.61611,0.00164
669.55594,0.00135
667.49577,0.00114
665.43559,0.00111
663.37542,0.00126
661.31525,0.00163
659.25508,0.00218
657.19491,0.00248
655.13473,0.00225
653.07456,0.00201
651.01439,0.00219
648.95422,0.00241
646.89404,0.00245
644.83387,0.00248
642.77370,0.00240
640.71353,0.00198
638.65336,0.00123
636.59318,0.00092
634.53301,0.00107
632.47284,0.00084
630.41267,0.00084
628.35250,0.00200
626.29232,0.00341
624.23215,0.00335
622.17198,0.00260
620.11181,0.00300
618.05164,0.00397
615.99146,0.00360
613.93129,0.00313
611.87112,0.00442
609.81095,0.00558
607.75077,0.00494
605.69060,0.00361
603.63043,0.00168
601.57026,0.00000
599.51009,0.00000
