3996.73391,0.00045
3994.67373,0.00029
3992.61356,0.00027
3990.55339,0.00025
3988.49322,0.00039
3986.43305,0.00050
3984.37287,0.00033
3982.31270,0.00014
3980.25253,0.00006
3978.19236,0.00000
3976.13219,0.00007
3974.07201,0.00021
3972.01184,0.00021
3969.95167,0.00011
3967.89150,0.00010
3965.83133,0.00032
3963.77115,0.00065
3961.71098,0.00084
3959.65081,0.00092
3957.59064,0.00104
3955.53046,0.00124
3953.47029,0.00149
3951.41012,0.00160
3949.34995,0.00154
3947.28978,0.00137
3945.22960,0.00096
3943.16943,0.00043
3941.10926,0.00025
3939.04909,0.00044
3936.98892,0.00060
3934.92874,0.00084
3932.86857,0.00127
3930.80840,0.00148
3928.74823,0.00134
3926.68805,0.00106
3924.62788,0.00079
3922.56771,0.00072
3920.50754,0.00074
3918.44737,0.00078
3916.38719,0.00089
3914.32702,0.00097
3912.26685,0.00094
3910.20668,0.00083
3908.14651,0.00069
3906.08633,0.00085
3904.02616,0.00144
3901.96599,0.00171
3899.90582,0.00116
3897.84565,0.00072
3895.78547,0.00092
3893.72530,0.00123
3891.66513,0.00130
3889.60496,0.00122
3887.54478,0.00115
3885.48461,0.00112
3883.42444,0.00104
3881.36427,0.00099
3879.30410,0.00117
3877.24392,0.00145
3875.18375,0.00172
3873.12358,0.00216
3871.06341,0.00268
3869.00324,0.00285
3866.94306,0.00261
3864.88289,0.00230
3862.82272,0.00208
3860.76255,0.00192
3858.70237,0.00173
3856.64220,0.00163
3854.58203,0.00169
3852.52186,0.00160
3850.46169,0.00122
3848.40151,0.00107
3846.34134,0.00132
3844.28117,0.00145
3842.22100,0.00097
3840.16083,0.00031
3838.10065,0.00036
3836.04048,0.00107
3833.98031,0.00158
3831.92014,0.00156
3829.85997,0.00135
3827.79979,0.00140
3825.73962,0.00167
3823.67945,0.00177
3821.61928,0.00160
3819.55910,0.00157
3817.49893,0.00199
3815.43876,0.00250
3813.37859,0.00262
3811.31842,0.00259
3809.25824,0.00254
3807.19807,0.00243
3805.13790,0.00231
3803.07773,0.00202
3801.01756,0.00174
3798.95738,0.00197
3796.89721,0.00228
3794.83704,0.00222
3792.77687,0.00209
3790.71670,0.00195
3788.65652,0.00165
3786.59635,0.00138
3784.53618,0.00135
3782.47601,0.00135
3780.41583,0.00149
3778.35566,0.00189
3776.29549,0.00203
3774.23532,0.00181
3772.17515,0.00167
3770.11497,0.00177
3768.05480,0.00193
3765.99463,0.00204
3763.93446,0.00213
3761.87429,0.00218
3759.81411,0.00224
3757.75394,0.00239
3755.69377,0.00256
3753.63360,0.00273
3751.57342,0.00281
3749.51325,0.00265
3747.45308,0.00232
3745.39291,0.00195
3743.33274,0.00158
3741.27256,0.00154
3739.21239,0.00189
3737.15222,0.00214
3735.09205,0.00199
3733.03188,0.00184
3730.97170,0.00168
3728.91153,0.00130
3726.85136,0.00093
3724.79119,0.00070
3722.73102,0.00050
3720.67084,0.00059
3718.61067,0.00129
3716.55050,0.00210
3714.49033,0.00226
3712.43015,0.00187
3710.36998,0.00173
3708.30981,0.00198
3706.24964,0.00203
3704.18947,0.00170
3702.12929,0.00158
3700.06912,0.00195
3698.00895,0.00228
3695.94878,0.00239
3693.88861,0.00246
3691.82843,0.00241
3689.76826,0.00229
3687.70809,0.00255
3685.64792,0.00284
3683.58775,0.00273
3681.52757,0.00248
3679.46740,0.00234
3677.40723,0.00218
3675.34706,0.00225
3673.28688,0.00272
3671.22671,0.00299
3669.16654,0.00310
3667.10637,0.00345
3665.04620,0.00383
3662.98602,0.00379
3660.92585,0.00348
3658.86568,0.00345
3656.80551,0.00381
3654.74534,0.00430
3652.68516,0.00475
3650.62499,0.00489
3648.56482,0.00464
3646.50465,0.00466
3644.44447,0.00515
3642.38430,0.00557
3640.32413,0.00581
3638.26396,0.00607
3636.20379,0.00625
3634.14361,0.00621
3632.08344,0.00601
3630.02327,0.00596
3627.96310,0.00648
3625.90293,0.00716
3623.84275,0.00730
3621.78258,0.00715
3619.72241,0.00710
3617.66224,0.00728
3615.60207,0.00785
3613.54189,0.00869
3611.48172,0.00923
3609.42155,0.00927
3607.36138,0.00936
3605.30120,0.00991
3603.24103,0.01068
3601.18086,0.01114
3599.12069,0.01107
3597.06052,0.01085
3595.00034,0.01124
3592.94017,0.01245
3590.88000,0.01368
3588.81983,0.01445
3586.75966,0.01488
3584.69948,0.01505
3582.63931,0.01526
3580.57914,0.01572
3578.51897,0.01603
3576.45879,0.01591
3574.39862,0.01591
3572.33845,0.01649
3570.27828,0.01746
3568.21811,0.01862
3566.15793,0.01956
3564.09776,0.01976
3562.03759,0.01947
3559.97742,0.01924
3557.91725,0.01935
3555.85707,0.01984
3553.79690,0.02059
3551.73673,0.02141
3549.67656,0.02215
3547.61639,0.02269
3545.55621,0.02293
3543.49604,0.02309
3541.43587,0.02352
3539.37570,0.02419
3537.31552,0.02500
3535.25535,0.02579
3533.19518,0.02626
3531.13501,0.02667
3529.07484,0.02747
3527.01466,0.02834
3524.95449,0.02853
3522.89432,0.02825
3520.83415,0.02844
3518.77398,0.02919
3516.71380,0.02993
3514.65363,0.03053
3512.59346,0.03114
3510.53329,0.03175
3508.47312,0.03222
3506.41294,0.03250
3504.35277,0.03266
3502.29260,0.03285
3500.23243,0.03326
3498.17225,0.03397
3496.11208,0.03469
3494.05191,0.03515
3491.99174,0.03560
3489.93157,0.03636
3487.87139,0.03721
3485.81122,0.03778
3483.75105,0.03812
3481.69088,0.03838
3479.63071,0.03845
3477.57053,0.03861
3475.51036,0.03916
3473.45019,0.03991
3471.39002,0.04057
3469.32984,0.04091
3467.26967,0.04111
3465.20950,0.04157
3463.14933,0.04235
3461.08916,0.04317
3459.02898,0.04380
3456.96881,0.04428
3454.90864,0.04480
3452.84847,0.04535
3450.78830,0.04558
3448.72812,0.04538
3446.66795,0.04527
3444.60778,0.04563
3442.54761,0.04621
3440.48744,0.04672
3438.42726,0.04717
3436.36709,0.04784
3434.30692,0.04862
3432.24675,0.04920
3430.18657,0.04958
3428.12640,0.04985
3426.06623,0.05005
3424.00606,0.05035
3421.94589,0.05086
3419.88571,0.05143
3417.82554,0.05197
3415.76537,0.05251
3413.70520,0.05311
3411.64503,0.05351
3409.58485,0.05349
3407.52468,0.05348
3405.46451,0.05392
3403.40434,0.05452
3401.34416,0.05472
3399.28399,0.05495
3397.22382,0.05570
3395.16365,0.05666
3393.10348,0.05729
3391.04330,0.05740
3388.98313,0.05731
3386.92296,0.05729
3384.86279,0.05738
3382.80262,0.05780
3380.74244,0.05835
3378.68227,0.05857
3376.62210,0.05860
3374.56193,0.05872
3372.50176,0.05892
3370.44158,0.05940
3368.38141,0.06013
3366.32124,0.06070
3364.26107,0.06092
3362.20089,0.06083
3360.14072,0.06083
3358.08055,0.06115
3356.02038,0.06144
3353.96021,0.06151
3351.90003,0.06151
3349.83986,0.06155
3347.77969,0.06175
3345.71952,0.06209
3343.65935,0.06241
3341.59917,0.06261
3339.53900,0.06268
3337.47883,0.06277
3335.41866,0.06285
3333.35849,0.06298
3331.29831,0.06341
3329.23814,0.06402
3327.17797,0.06436
3325.11780,0.06438
3323.05762,0.06441
3320.99745,0.06466
3318.93728,0.06495
3316.87711,0.06504
3314.81694,0.06502
3312.75676,0.06514
3310.69659,0.06531
3308.63642,0.06534
3306.57625,0.06542
3304.51608,0.06553
3302.45590,0.06524
3300.39573,0.06475
3298.33556,0.06479
3296.27539,0.06525
3294.21521,0.06560
3292.15504,0.06564
3290.09487,0.06529
3288.03470,0.06507
3285.97453,0.06551
3283.91435,0.06608
3281.85418,0.06615
3279.79401,0.06599
3277.73384,0.06603
3275.67367,0.06600
3273.61349,0.06568
3271.55332,0.06551
3269.49315,0.06583
3267.43298,0.06619
3265.37281,0.06603
3263.31263,0.06548
3261.25246,0.06510
3259.19229,0.06507
3257.13212,0.06510
3255.07194,0.06498
3253.01177,0.06473
3250.95160,0.06456
3248.89143,0.06458
3246.83126,0.06459
3244.77108,0.06438
3242.71091,0.06387
3240.65074,0.06341
3238.59057,0.06330
3236.53040,0.06319
3234.47022,0.06302
3232.41005,0.06292
3230.34988,0.06287
3228.28971,0.06297
3226.22954,0.06309
3224.16936,0.06298
3222.10919,0.06281
3220.04902,0.06290
3217.98885,0.06293
3215.92867,0.06252
3213.86850,0.06198
3211.80833,0.06155
3209.74816,0.06124
3207.68799,0.06117
3205.62781,0.06125
3203.56764,0.06142
3201.50747,0.06130
3199.44730,0.06082
3197.38713,0.06052
3195.32695,0.06045
3193.26678,0.06015
3191.20661,0.05963
3189.14644,0.05917
3187.08626,0.05895
3185.02609,0.05885
3182.96592,0.05873
3180.90575,0.05854
3178.84558,0.05828
3176.78540,0.05800
3174.72523,0.05782
3172.66506,0.05772
3170.60489,0.05754
3168.54472,0.05717
3166.48454,0.05651
3164.42437,0.05572
3162.36420,0.05502
3160.30403,0.05454
3158.24386,0.05444
3156.18368,0.05456
3154.12351,0.05446
3152.06334,0.05411
3150.00317,0.05379
3147.94299,0.05359
3145.88282,0.05341
3143.82265,0.05323
3141.76248,0.05299
3139.70231,0.05253
3137.64213,0.05194
3135.58196,0.05164
3133.52179,0.05153
3131.46162,0.05125
3129.40145,0.05089
3127.34127,0.05064
3125.28110,0.05043
3123.22093,0.05017
3121.16076,0.04970
3119.10058,0.04904
3117.04041,0.04855
3114.98024,0.04833
3112.92007,0.04811
3110.85990,0.04793
3108.79972,0.04790
3106.73955,0.04785
3104.67938,0.04754
3102.61921,0.04714
3100.55904,0.04696
3098.49886,0.04685
3096.43869,0.04651
3094.37852,0.04600
3092.31835,0.04558
3090.25818,0.04536
3088.19800,0.04524
3086.13783,0.04506
3084.07766,0.04481
3082.01749,0.04464
3079.95731,0.04459
3077.89714,0.04437
3075.83697,0.04392
3073.77680,0.04356
3071.71663,0.04332
3069.65645,0.04302
3067.59628,0.04257
3065.53611,0.04224
3063.47594,0.04209
3061.41577,0.04176
3059.35559,0.04127
3057.29542,0.04082
3055.23525,0.04053
3053.17508,0.04054
3051.11491,0.04055
3049.05473,0.04024
3046.99456,0.03985
3044.93439,0.03963
3042.87422,0.03939
3040.81404,0.03892
3038.75387,0.03847
3036.69370,0.03835
3034.63353,0.03827
3032.57336,0.03786
3030.51318,0.03733
3028.45301,0.03707
3026.39284,0.03696
3024.33267,0.03670
3022.27250,0.03642
3020.21232,0.03620
3018.15215,0.03594
3016.09198,0.03577
3014.03181,0.03569
3011.97163,0.03549
3009.91146,0.03525
3007.85129,0.03508
3005.79112,0.03481
3003.73095,0.03443
3001.67077,0.03412
2999.61060,0.03395
2997.55043,0.03393
2995.49026,0.03401
2993.43009,0.03414
2991.36991,0.03424
2989.30974,0.03432
2987.24957,0.03451
2985.18940,0.03472
2983.12923,0.03484
2981.06905,0.03504
2979.00888,0.03552
2976.94871,0.03640
2974.88854,0.03738
2972.82836,0.03794
2970.76819,0.03826
2968.70802,0.03881
2966.64785,0.03999
2964.58768,0.04185
2962.52750,0.04365
2960.46733,0.04491
2958.40716,0.04601
2956.34699,0.04719
2954.28682,0.04836
2952.22664,0.04959
2950.16647,0.05098
2948.10630,0.05251
2946.04613,0.05420
2943.98596,0.05617
2941.92578,0.05843
2939.86561,0.06101
2937.80544,0.06389
2935.74527,0.06685
2933.68509,0.06965
2931.62492,0.07235
2929.56475,0.07511
2927.50458,0.07782
2925.44441,0.08025
2923.38423,0.08249
2921.32406,0.08475
2919.26389,0.08667
2917.20372,0.08706
2915.14355,0.08483
2913.08337,0.08033
2911.02320,0.07518
2908.96303,0.07079
2906.90286,0.06756
2904.84268,0.06517
2902.78251,0.06311
2900.72234,0.06115
2898.66217,0.05947
2896.60200,0.05809
2894.54182,0.05678
2892.48165,0.05536
2890.42148,0.05396
2888.36131,0.05263
2886.30114,0.05138
2884.24096,0.05036
2882.18079,0.04963
2880.12062,0.04896
2878.06045,0.04830
2876.00028,0.04803
2873.94010,0.04832
2871.87993,0.04889
2869.81976,0.04951
2867.75959,0.05004
2865.69941,0.05066
2863.63924,0.05198
2861.57907,0.05423
2859.51890,0.05699
2857.45873,0.05981
2855.39855,0.06272
2853.33838,0.06598
2851.27821,0.06899
2849.21804,0.06965
2847.15787,0.06621
2845.09769,0.05990
2843.03752,0.05363
2840.97735,0.04879
2838.91718,0.04526
2836.85700,0.04269
2834.79683,0.04084
2832.73666,0.03952
2830.67649,0.03843
2828.61632,0.03720
2826.55614,0.03610
2824.49597,0.03562
2822.43580,0.03545
2820.37563,0.03507
2818.31546,0.03446
2816.25528,0.03384
2814.19511,0.03327
2812.13494,0.03284
2810.07477,0.03255
2808.01460,0.03220
2805.95442,0.03185
2803.89425,0.03166
2801.83408,0.03148
2799.77391,0.03119
2797.71373,0.03080
2795.65356,0.03036
2793.59339,0.03003
2791.53322,0.02990
2789.47305,0.02980
2787.41287,0.02968
2785.35270,0.02957
2783.29253,0.02934
2781.23236,0.02902
2779.17219,0.02866
2777.11201,0.02835
2775.05184,0.02825
2772.99167,0.02831
2770.93150,0.02827
2768.87133,0.02817
2766.81115,0.02801
2764.75098,0.02772
2762.69081,0.02757
2760.63064,0.02768
2758.57046,0.02781
2756.51029,0.02775
2754.45012,0.02764
2752.38995,0.02759
2750.32978,0.02746
2748.26960,0.02722
2746.20943,0.02708
2744.14926,0.02700
2742.08909,0.02671
2740.02892,0.02637
2737.96874,0.02630
2735.90857,0.02649
2733.84840,0.02675
2731.78823,0.02683
2729.72805,0.02662
2727.66788,0.02632
2725.60771,0.02632
2723.54754,0.02647
2721.48737,0.02653
2719.42719,0.02655
2717.36702,0.02638
2715.30685,0.02600
2713.24668,0.02569
2711.18651,0.02565
2709.12633,0.02560
2707.06616,0.02535
2705.00599,0.02508
2702.94582,0.02488
2700.88565,0.02489
2698.82547,0.02505
2696.76530,0.02513
2694.70513,0.02505
2692.64496,0.02496
2690.58478,0.02485
2688.52461,0.02471
2686.46444,0.02480
2684.40427,0.02500
2682.34410,0.02495
2680.28392,0.02477
2678.22375,0.02460
2676.16358,0.02437
2674.10341,0.02417
2672.04324,0.02405
2669.98306,0.02393
2667.92289,0.02379
2665.86272,0.02362
2663.80255,0.02345
2661.74238,0.02332
2659.68220,0.02317
2657.62203,0.02301
2655.56186,0.02297
2653.50169,0.02306
2651.44151,0.02307
2649.38134,0.02282
2647.32117,0.02241
2645.26100,0.02210
2643.20083,0.02217
2641.14065,0.02245
2639.08048,0.02235
2637.02031,0.02181
2634.96014,0.02148
2632.89997,0.02153
2630.83979,0.02156
2628.77962,0.02145
2626.71945,0.02121
2624.65928,0.02107
2622.59910,0.02103
2620.53893,0.02085
2618.47876,0.02043
2616.41859,0.02009
2614.35842,0.02000
2612.29824,0.01993
2610.23807,0.01986
2608.17790,0.01977
2606.11773,0.01962
2604.05756,0.01961
2601.99738,0.01958
2599.93721,0.01935
2597.87704,0.01935
2595.81687,0.01960
2593.75670,0.01957
2591.69652,0.01939
2589.63635,0.01929
2587.57618,0.01912
2585.51601,0.01896
2583.45583,0.01873
2581.39566,0.01842
2579.33549,0.01837
2577.27532,0.01837
2575.21515,0.01816
2573.15497,0.01793
2571.09480,0.01792
2569.03463,0.01803
2566.97446,0.01795
2564.91429,0.01784
2562.85411,0.01792
2560.79394,0.01787
2558.73377,0.01777
2556.67360,0.01813
2554.61342,0.01848
2552.55325,0.01811
2550.49308,0.01745
2548.43291,0.01703
2546.37274,0.01662
2544.31256,0.01615
2542.25239,0.01609
2540.19222,0.01653
2538.13205,0.01692
2536.07188,0.01710
2534.01170,0.01704
2531.95153,0.01662
2529.89136,0.01625
2527.83119,0.01628
2525.77102,0.01627
2523.71084,0.01614
2521.65067,0.01640
2519.59050,0.01678
2517.53033,0.01662
2515.47015,0.01594
2513.40998,0.01537
2511.34981,0.01538
2509.28964,0.01583
2507.22947,0.01596
2505.16929,0.01558
2503.10912,0.01533
2501.04895,0.01545
2498.98878,0.01558
2496.92861,0.01546
2494.86843,0.01533
2492.80826,0.01525
2490.74809,0.01505
2488.68792,0.01505
2486.62775,0.01519
2484.56757,0.01502
2482.50740,0.01480
2480.44723,0.01486
2478.38706,0.01482
2476.32688,0.01467
2474.26671,0.01473
2472.20654,0.01496
2470.14637,0.01527
2468.08620,0.01513
2466.02602,0.01431
2463.96585,0.01373
2461.90568,0.01380
2459.84551,0.01394
2457.78534,0.01399
2455.72516,0.01416
2453.66499,0.01425
2451.60482,0.01411
2449.54465,0.01391
2447.48447,0.01389
2445.42430,0.01402
2443.36413,0.01391
2441.30396,0.01378
2439.24379,0.01381
2437.18361,0.01357
2435.12344,0.01330
2433.06327,0.01330
2431.00310,0.01334
2428.94293,0.01322
2426.88275,0.01308
2424.82258,0.01305
2422.76241,0.01281
2420.70224,0.01251
2418.64207,0.01254
2416.58189,0.01282
2414.52172,0.01308
2412.46155,0.01309
2410.40138,0.01304
2408.34120,0.01296
2406.28103,0.01269
2404.22086,0.01247
2402.16069,0.01244
2400.10052,0.01247
2398.04034,0.01252
2395.98017,0.01259
2393.92000,0.01265
2391.85983,0.01255
2389.79966,0.01232
2387.73948,0.01219
2385.67931,0.01220
2383.61914,0.01222
2381.55897,0.01196
2379.49880,0.01131
2377.43862,0.01075
2375.37845,0.01067
2373.31828,0.01070
2371.25811,0.01043
2369.19793,0.00995
2367.13776,0.00980
2365.07759,0.00984
2363.01742,0.00844
2360.95725,0.00572
2358.89707,0.00541
2356.83690,0.00808
2354.77673,0.00979
2352.71656,0.00992
2350.65639,0.00998
2348.59621,0.01027
2346.53604,0.01067
2344.47587,0.01089
2342.41570,0.01067
2340.35552,0.01041
2338.29535,0.01037
2336.23518,0.01034
2334.17501,0.01026
2332.11484,0.01064
2330.05466,0.01162
2327.99449,0.01224
2325.93432,0.01207
2323.87415,0.01161
2321.81398,0.01130
2319.75380,0.01116
2317.69363,0.01085
2315.63346,0.01059
2313.57329,0.01067
2311.51312,0.01084
2309.45294,0.01079
2307.39277,0.01054
2305.33260,0.01039
2303.27243,0.01057
2301.21225,0.01084
2299.15208,0.01098
2297.09191,0.01098
2295.03174,0.01065
2292.97157,0.01025
2290.91139,0.01034
2288.85122,0.01070
2286.79105,0.01075
2284.73088,0.01053
2282.67071,0.01054
2280.61053,0.01081
2278.55036,0.01075
2276.49019,0.01009
2274.43002,0.00947
2272.36984,0.00936
2270.30967,0.00931
2268.24950,0.00913
2266.18933,0.00934
2264.12916,0.00999
2262.06898,0.01059
2260.00881,0.01076
2257.94864,0.01044
2255.88847,0.00991
2253.82830,0.00987
2251.76812,0.01030
2249.70795,0.01064
2247.64778,0.01060
2245.58761,0.01007
2243.52744,0.00975
2241.46726,0.00993
2239.40709,0.00955
2237.34692,0.00886
2235.28675,0.00892
2233.22657,0.00917
2231.16640,0.00891
2229.10623,0.00874
2227.04606,0.00924
2224.98589,0.01030
2222.92571,0.01129
2220.86554,0.01089
2218.80537,0.00945
2216.74520,0.00846
2214.68503,0.00823
2212.62485,0.00898
2210.56468,0.00979
2208.50451,0.00903
2206.44434,0.00748
2204.38417,0.00666
2202.32399,0.00677
2200.26382,0.00731
2198.20365,0.00784
2196.14348,0.00842
2194.08330,0.00866
2192.02313,0.00873
2189.96296,0.00907
2187.90279,0.00913
2185.84262,0.00877
2183.78244,0.00816
2181.72227,0.00700
2179.66210,0.00595
2177.60193,0.00654
2175.54176,0.00757
2173.48158,0.00723
2171.42141,0.00634
2169.36124,0.00583
2167.30107,0.00671
2165.24089,0.00824
2163.18072,0.00847
2161.12055,0.00769
2159.06038,0.00635
2157.00021,0.00531
2154.94003,0.00486
2152.87986,0.00498
2150.81969,0.00694
2148.75952,0.00886
2146.69935,0.00890
2144.63917,0.00851
2142.57900,0.00854
2140.51883,0.00863
2138.45866,0.00855
2136.39849,0.00873
2134.33831,0.00900
2132.27814,0.00860
2130.21797,0.00797
2128.15780,0.00780
2126.09762,0.00808
2124.03745,0.00867
2121.97728,0.00898
2119.91711,0.00898
2117.85694,0.00975
2115.79676,0.01082
2113.73659,0.01079
2111.67642,0.01006
2109.61625,0.00894
2107.55608,0.00792
2105.49590,0.00828
2103.43573,0.00915
2101.37556,0.00910
2099.31539,0.00867
2097.25521,0.00878
2095.19504,0.00939
2093.13487,0.00953
2091.07470,0.00872
2089.01453,0.00767
2086.95435,0.00718
2084.89418,0.00737
2082.83401,0.00784
2080.77384,0.00820
2078.71367,0.00852
2076.65349,0.00872
2074.59332,0.00821
2072.53315,0.00713
2070.47298,0.00630
2068.41281,0.00631
2066.35263,0.00721
2064.29246,0.00803
2062.23229,0.00804
2060.17212,0.00751
2058.11194,0.00651
2056.05177,0.00561
2053.99160,0.00623
2051.93143,0.00813
2049.87126,0.00918
2047.81108,0.00809
2045.75091,0.00564
2043.69074,0.00358
2041.63057,0.00327
2039.57040,0.00439
2037.51022,0.00579
2035.45005,0.00633
2033.38988,0.00549
2031.32971,0.00504
2029.26954,0.00592
2027.20936,0.00638
2025.14919,0.00584
2023.08902,0.00527
2021.02885,0.00488
2018.96867,0.00501
2016.90850,0.00614
2014.84833,0.00719
2012.78816,0.00738
2010.72799,0.00750
2008.66781,0.00813
2006.60764,0.00873
2004.54747,0.00837
2002.48730,0.00737
2000.42713,0.00638
1998.36695,0.00557
1996.30678,0.00564
1994.24661,0.00678
1992.18644,0.00785
1990.12626,0.00807
1988.06609,0.00751
1986.00592,0.00600
1983.94575,0.00439
1981.88558,0.00401
1979.82540,0.00413
1977.76523,0.00362
1975.70506,0.00338
1973.64489,0.00416
1971.58472,0.00526
1969.52454,0.00618
1967.46437,0.00672
1965.40420,0.00661
1963.34403,0.00609
1961.28386,0.00553
1959.22368,0.00529
1957.16351,0.00548
1955.10334,0.00587
1953.04317,0.00598
1950.98299,0.00586
1948.92282,0.00617
1946.86265,0.00690
1944.80248,0.00696
1942.74231,0.00631
1940.68213,0.00643
1938.62196,0.00695
1936.56179,0.00648
1934.50162,0.00530
1932.44145,0.00439
1930.38127,0.00419
1928.32110,0.00466
1926.26093,0.00536
1924.20076,0.00560
1922.14059,0.00551
1920.08041,0.00569
1918.02024,0.00592
1915.96007,0.00597
1913.89990,0.00584
1911.83972,0.00542
1909.77955,0.00521
1907.71938,0.00574
1905.65921,0.00625
1903.59904,0.00588
1901.53886,0.00513
1899.47869,0.00489
1897.41852,0.00486
1895.35835,0.00467
1893.29818,0.00481
1891.23800,0.00522
1889.17783,0.00532
1887.11766,0.00529
1885.05749,0.00552
1882.99731,0.00577
1880.93714,0.00567
1878.87697,0.00530
1876.81680,0.00492
1874.75663,0.00453
1872.69645,0.00431
1870.63628,0.00444
1868.57611,0.00466
1866.51594,0.00471
1864.45577,0.00473
1862.39559,0.00474
1860.33542,0.00471
1858.27525,0.00480
1856.21508,0.00518
1854.15491,0.00545
1852.09473,0.00532
1850.03456,0.00514
1847.97439,0.00499
1845.91422,0.00470
1843.85404,0.00452
1841.79387,0.00471
1839.73370,0.00481
1837.67353,0.00462
1835.61336,0.00426
1833.55318,0.00388
1831.49301,0.00361
1829.43284,0.00369
1827.37267,0.00403
1825.31250,0.00414
1823.25232,0.00392
1821.19215,0.00367
1819.13198,0.00357
1817.07181,0.00361
1815.01163,0.00363
1812.95146,0.00345
1810.89129,0.00317
1808.83112,0.00313
1806.77095,0.00340
1804.71077,0.00375
1802.65060,0.00388
1800.59043,0.00379
1798.53026,0.00377
1796.47009,0.00393
1794.40991,0.00419
1792.34974,0.00435
1790.28957,0.00432
1788.22940,0.00427
1786.16923,0.00423
1784.10905,0.00416
1782.04888,0.00405
1779.98871,0.00385
1777.92854,0.00370
1775.86836,0.00375
1773.80819,0.00416
1771.74802,0.00467
1769.68785,0.00512
1767.62768,0.00562
1765.56750,0.00613
1763.50733,0.00649
1761.44716,0.00687
1759.38699,0.00760
1757.32682,0.00860
1755.26664,0.00952
1753.20647,0.01038
1751.14630,0.01184
1749.08613,0.01426
1747.02596,0.01724
1744.96578,0.02050
1742.90561,0.02423
1740.84544,0.02871
1738.78527,0.03367
1736.72509,0.03812
1734.66492,0.04190
1732.60475,0.04488
1730.54458,0.04645
1728.48441,0.04699
1726.42423,0.04683
1724.36406,0.04616
1722.30389,0.04535
1720.24372,0.04468
1718.18355,0.04407
1716.12337,0.04369
1714.06320,0.04383
1712.00303,0.04410
1709.94286,0.04392
1707.88268,0.04312
1705.82251,0.04197
1703.76234,0.04089
1701.70217,0.03976
1699.64200,0.03820
1697.58182,0.03683
1695.52165,0.03620
1693.46148,0.03582
1691.40131,0.03524
1689.34114,0.03474
1687.28096,0.03463
1685.22079,0.03465
1683.16062,0.03454
1681.10045,0.03441
1679.04028,0.03440
1676.98010,0.03446
1674.91993,0.03469
1672.85976,0.03529
1670.79959,0.03613
1668.73941,0.03709
1666.67924,0.03801
1664.61907,0.03885
1662.55890,0.04004
1660.49873,0.04155
1658.43855,0.04280
1656.37838,0.04362
1654.31821,0.04445
1652.25804,0.04563
1650.19787,0.04640
1648.13769,0.04672
1646.07752,0.04728
1644.01735,0.04797
1641.95718,0.04837
1639.89701,0.04858
1637.83683,0.04884
1635.77666,0.04932
1633.71649,0.05008
1631.65632,0.05080
1629.59614,0.05147
1627.53597,0.05208
1625.47580,0.05257
1623.41563,0.05315
1621.35546,0.05388
1619.29528,0.05450
1617.23511,0.05536
1615.17494,0.05663
1613.11477,0.05762
1611.05460,0.05822
1608.99442,0.05879
1606.93425,0.05936
1604.87408,0.05963
1602.81391,0.05941
1600.75373,0.05872
1598.69356,0.05761
1596.63339,0.05614
1594.57322,0.05448
1592.51305,0.05280
1590.45287,0.05106
1588.39270,0.04912
1586.33253,0.04701
1584.27236,0.04494
1582.21219,0.04307
1580.15201,0.04139
1578.09184,0.03956
1576.03167,0.03740
1573.97150,0.03561
1571.91133,0.03441
1569.85115,0.03325
1567.79098,0.03207
1565.73081,0.03112
1563.67064,0.03047
1561.61046,0.02992
1559.55029,0.02908
1557.49012,0.02848
1555.42995,0.02867
1553.36978,0.02912
1551.30960,0.02934
1549.24943,0.02934
1547.18926,0.02931
1545.12909,0.02908
1543.06892,0.02843
1541.00874,0.02769
1538.94857,0.02760
1536.88840,0.02772
1534.82823,0.02737
1532.76805,0.02668
1530.70788,0.02609
1528.64771,0.02538
1526.58754,0.02442
1524.52737,0.02371
1522.46719,0.02339
1520.40702,0.02317
1518.34685,0.02309
1516.28668,0.02326
1514.22651,0.02340
1512.16633,0.02303
1510.10616,0.02201
1508.04599,0.02032
1505.98582,0.01830
1503.92565,0.01695
1501.86547,0.01616
1499.80530,0.01529
1497.74513,0.01406
1495.68496,0.01266
1493.62478,0.01144
1491.56461,0.01035
1489.50444,0.00934
1487.44427,0.00880
1485.38410,0.00878
1483.32392,0.00901
1481.26375,0.00941
1479.20358,0.01016
1477.14341,0.01156
1475.08324,0.01399
1473.02306,0.01757
1470.96289,0.02137
1468.90272,0.02431
1466.84255,0.02686
1464.78238,0.02956
1462.72220,0.03168
1460.66203,0.03258
1458.60186,0.03312
1456.54169,0.03474
1454.48151,0.03688
1452.42134,0.03828
1450.36117,0.03909
1448.30100,0.03983
1446.24083,0.04068
1444.18065,0.04147
1442.12048,0.04192
1440.06031,0.04171
1438.00014,0.04059
1435.93997,0.03881
1433.87979,0.03724
1431.81962,0.03599
1429.75945,0.03464
1427.69928,0.03338
1425.63910,0.03255
1423.57893,0.03214
1421.51876,0.03197
1419.45859,0.03188
1417.39842,0.03207
1415.33824,0.03247
1413.27807,0.03268
1411.21790,0.03261
1409.15773,0.03236
1407.09756,0.03202
1405.03738,0.03177
1402.97721,0.03169
1400.91704,0.03155
1398.85687,0.03138
1396.79670,0.03151
1394.73652,0.03195
1392.67635,0.03244
1390.61618,0.03287
1388.55601,0.03334
1386.49583,0.03397
1384.43566,0.03474
1382.37549,0.03551
1380.31532,0.03630
1378.25515,0.03715
1376.19497,0.03806
1374.13480,0.03900
1372.07463,0.03971
1370.01446,0.04009
1367.95429,0.04038
1365.89411,0.04058
1363.83394,0.04056
1361.77377,0.04054
1359.71360,0.04071
1357.65343,0.04096
1355.59325,0.04130
1353.53308,0.04178
1351.47291,0.04227
1349.41274,0.04257
1347.35256,0.04278
1345.29239,0.04307
1343.23222,0.04334
1341.17205,0.04345
1339.11188,0.04364
1337.05170,0.04415
1334.99153,0.04481
1332.93136,0.04541
1330.87119,0.04594
1328.81102,0.04646
1326.75084,0.04702
1324.69067,0.04766
1322.63050,0.04826
1320.57033,0.04869
1318.51015,0.04886
1316.44998,0.04882
1314.38981,0.04861
1312.32964,0.04820
1310.26947,0.04753
1308.20929,0.04644
1306.14912,0.04484
1304.08895,0.04284
1302.02878,0.04074
1299.96861,0.03876
1297.90843,0.03694
1295.84826,0.03524
1293.78809,0.03378
1291.72792,0.03264
1289.66775,0.03168
1287.60757,0.03088
1285.54740,0.03039
1283.48723,0.03020
1281.42706,0.03013
1279.36688,0.03022
1277.30671,0.03048
1275.24654,0.03070
1273.18637,0.03093
1271.12620,0.03140
1269.06602,0.03223
1267.00585,0.03339
1264.94568,0.03443
1262.88551,0.03495
1260.82534,0.03531
1258.76516,0.03601
1256.70499,0.03690
1254.64482,0.03779
1252.58465,0.03866
1250.52447,0.03945
1248.46430,0.04017
1246.40413,0.04095
1244.34396,0.04173
1242.28379,0.04244
1240.22361,0.04312
1238.16344,0.04372
1236.10327,0.04422
1234.04310,0.04487
1231.98293,0.04567
1229.92275,0.04644
1227.86258,0.04713
1225.80241,0.04776
1223.74224,0.04836
1221.68207,0.04905
1219.62189,0.04968
1217.56172,0.05018
1215.50155,0.05077
1213.44138,0.05144
1211.38120,0.05208
1209.32103,0.05284
1207.26086,0.05393
1205.20069,0.05517
1203.14052,0.05620
1201.08034,0.05691
1199.02017,0.05724
1196.96000,0.05734
1194.89983,0.05740
1192.83966,0.05717
1190.77948,0.05661
1188.71931,0.05596
1186.65914,0.05521
1184.59897,0.05437
1182.53880,0.05361
1180.47862,0.05314
1178.41845,0.05289
1176.35828,0.05259
1174.29811,0.05236
1172.23793,0.05256
1170.17776,0.05292
1168.11759,0.05294
1166.05742,0.05270
1163.99725,0.05241
1161.93707,0.05194
1159.87690,0.05106
1157.81673,0.05002
1155.75656,0.04923
1153.69639,0.04872
1151.63621,0.04819
1149.57604,0.04738
1147.51587,0.04652
1145.45570,0.04561
1143.39552,0.04443
1141.33535,0.04311
1139.27518,0.04192
1137.21501,0.04097
1135.15484,0.04053
1133.09466,0.04047
1131.03449,0.04045
1128.97432,0.04082
1126.91415,0.04178
1124.85398,0.04293
1122.79380,0.04417
1120.73363,0.04565
1118.67346,0.04760
1116.61329,0.05015
1114.55312,0.05322
1112.49294,0.05647
1110.43277,0.05975
1108.37260,0.06320
1106.31243,0.06659
1104.25225,0.06958
1102.19208,0.07201
1100.13191,0.07346
1098.07174,0.07433
1096.01157,0.07551
1093.95139,0.07692
1091.89122,0.07839
1089.83105,0.08013
1087.77088,0.08180
1085.71071,0.08335
1083.65053,0.08532
1081.59036,0.08778
1079.53019,0.09027
1077.47002,0.09255
1075.40985,0.09451
1073.34967,0.09609
1071.28950,0.09751
1069.22933,0.09877
1067.16916,0.09998
1065.10898,0.10153
1063.04881,0.10326
1060.98864,0.10481
1058.92847,0.10631
1056.86830,0.10791
1054.80812,0.10946
1052.74795,0.11112
1050.68778,0.11306
1048.62761,0.11488
1046.56744,0.11627
1044.50726,0.11769
1042.44709,0.11931
1040.38692,0.12098
1038.32675,0.12262
1036.26657,0.12413
1034.20640,0.12591
1032.14623,0.12817
1030.08606,0.13006
1028.02589,0.13086
1025.96571,0.13080
1023.90554,0.13069
1021.84537,0.13111
1019.78520,0.13155
1017.72503,0.13133
1015.66485,0.13056
1013.60468,0.12948
1011.54451,0.12807
1009.48434,0.12630
1007.42417,0.12424
1005.36399,0.12195
1003.30382,0.11929
1001.24365,0.11622
999.18348,0.11299
997.12330,0.10988
995.06313,0.10687
993.00296,0.10364
990.94279,0.10030
988.88262,0.09738
986.82244,0.09470
984.76227,0.09156
982.70210,0.08770
980.64193,0.08352
978.58176,0.07974
976.52158,0.07661
974.46141,0.07360
972.40124,0.07047
970.34107,0.06759
968.28089,0.06534
966.22072,0.06373
964.16055,0.06202
962.10038,0.05986
960.04021,0.05761
957.98003,0.05522
955.91986,0.05255
953.85969,0.04978
951.79952,0.04702
949.73935,0.04444
947.67917,0.04238
945.61900,0.04071
943.55883,0.03891
941.49866,0.03678
939.43849,0.03488
937.37831,0.03379
935.31814,0.03325
933.25797,0.03260
931.19780,0.03163
929.13762,0.03063
927.07745,0.02982
925.01728,0.02914
922.95711,0.02828
920.89694,0.02701
918.83676,0.02545
916.77659,0.02371
914.71642,0.02208
912.65625,0.02072
910.59608,0.01941
908.53590,0.01822
906.47573,0.01739
904.41556,0.01677
902.35539,0.01601
900.29522,0.01549
898.23504,0.01554
896.17487,0.01589
894.11470,0.01631
892.05453,0.01616
889.99435,0.01542
887.93418,0.01476
885.87401,0.01421
883.81384,0.01405
881.75367,0.01433
879.69349,0.01437
877.63332,0.01419
875.57315,0.01459
873.51298,0.01560
871.45281,0.01629
869.39263,0.01616
867.33246,0.01534
865.27229,0.01388
863.21212,0.01240
861.15194,0.01131
859.09177,0.01010
857.03160,0.00866
854.97143,0.00718
852.91126,0.00587
850.85108,0.00523
848.79091,0.00519
846.73074,0.00526
844.67057,0.00553
842.61040,0.00638
840.55022,0.00740
838.49005,0.00792
836.42988,0.00796
834.36971,0.00790
832.30954,0.00830
830.24936,0.00895
828.18919,0.00875
826.12902,0.00819
824.06885,0.00805
822.00867,0.00832
819.94850,0.00935
817.88833,0.01025
815.82816,0.01022
813.76799,0.01000
811.70781,0.00974
809.64764,0.00935
807.58747,0.00930
805.52730,0.00937
803.46713,0.00863
801.40695,0.00701
799.34678,0.00564
797.28661,0.00532
795.22644,0.00537
793.16627,0.00571
791.10609,0.00574
789.04592,0.00562
786.98575,0.00608
784.92558,0.00707
782.86540,0.00804
780.80523,0.00889
778.74506,0.00940
776.68489,0.00909
774.62472,0.00847
772.56454,0.00878
770.50437,0.01014
768.44420,0.01177
766.38403,0.01312
764.32386,0.01444
762.26368,0.01620
760.20351,0.01763
758.14334,0.01808
756.08317,0.01805
754.02299,0.01762
751.96282,0.01684
749.90265,0.01582
747.84248,0.01421
745.78231,0.01236
743.72213,0.01065
741.66196,0.00899
739.60179,0.00820
737.54162,0.00850
735.48145,0.00916
733.42127,0.01003
731.36110,0.01113
729.30093,0.01184
727.24076,0.01169
725.18059,0.01131
723.12041,0.01122
721.06024,0.01141
719.00007,0.01170
716.93990,0.01187
714.87972,0.01178
712.81955,0.01141
710.75938,0.01081
708.69921,0.01033
706.63904,0.01025
704.57886,0.01003
702.51869,0.00928
700.45852,0.00885
698.39835,0.00936
696.33818,0.00979
694.27800,0.00920
692.21783,0.00815
690.15766,0.00723
688.09749,0.00612
686.03731,0.00484
683.97714,0.00432
681.91697,0.00513
679.85680,0.00641
677.79663,0.00668
675.73645,0.00608
673.67628,0.00590
671.61611,0.00682
669.55594,0.00847
667.49577,0.00897
665.43559,0.00750
663.37542,0.00600
661.31525,0.00558
659.25508,0.00612
657.19491,0.00685
655.13473,0.00727
653.07456,0.00730
651.01439,0.00669
648.95422,0.00556
646.89404,0.00475
644.83387,0.00510
642.77370,0.00560
640.71353,0.00529
638.65336,0.00518
636.59318,0.00629
634.53301,0.00695
632.47284,0.00581
630.41267,0.00482
628.35250,0.00526
626.29232,0.00566
624.23215,0.00504
622.17198,0.00270
620.11181,0.00000
618.05164,0.00235
615.99146,0.00920
613.93129,0.01262
611.87112,0.01179
609.81095,0.00895
607.75077,0.00460
605.69060,0.00182
603.63043,0.00235
601.57026,0.00288
599.51009,0.00000
