3996.73391,0.00080
3994.67373,0.00032
3992.61356,0.00000
3990.55339,0.00014
3988.49322,0.00078
3986.43305,0.00124
3984.37287,0.00100
3982.31270,0.00072
3980.25253,0.00100
3978.19236,0.00136
3976.13219,0.00132
3974.07201,0.00105
3972.01184,0.00089
3969.95167,0.00084
3967.89150,0.00077
3965.83133,0.00079
3963.77115,0.00088
3961.71098,0.00096
3959.65081,0.00103
3957.59064,0.00113
3955.53046,0.00125
3953.47029,0.00131
3951.41012,0.00123
3949.34995,0.00097
3947.28978,0.00060
3945.22960,0.00030
3943.16943,0.00021
3941.10926,0.00045
3939.04909,0.00098
3936.98892,0.00131
3934.92874,0.00121
3932.86857,0.00109
3930.80840,0.00131
3928.74823,0.00157
3926.68805,0.00148
3924.62788,0.00113
3922.56771,0.00092
3920.50754,0.00108
3918.44737,0.00120
3916.38719,0.00087
3914.32702,0.00051
3912.26685,0.00065
3910.20668,0.00100
3908.14651,0.00092
3906.08633,0.00043
3904.02616,0.00031
3901.96599,0.00069
3899.90582,0.00090
3897.84565,0.00108
3895.78547,0.00158
3893.72530,0.00199
3891.66513,0.00180
3889.60496,0.00125
3887.54478,0.00112
3885.48461,0.00130
3883.42444,0.00106
3881.36427,0.00062
3879.30410,0.00061
3877.24392,0.00095
3875.18375,0.00118
3873.12358,0.00103
3871.06341,0.00065
3869.00324,0.00061
3866.94306,0.00107
3864.88289,0.00145
3862.82272,0.00141
3860.76255,0.00137
3858.70237,0.00164
3856.64220,0.00192
3854.58203,0.00167
3852.52186,0.00100
3850.46169,0.00075
3848.40151,0.00088
3846.34134,0.00106
3844.28117,0.00116
3842.22100,0.00102
3840.16083,0.00066
3838.10065,0.00054
3836.04048,0.00096
3833.98031,0.00150
3831.92014,0.00170
3829.85997,0.00145
3827.79979,0.00105
3825.73962,0.00099
3823.67945,0.00138
3821.61928,0.00178
3819.55910,0.00158
3817.49893,0.00079
3815.43876,0.00011
3813.37859,0.00016
3811.31842,0.00077
3809.25824,0.00140
3807.19807,0.00173
3805.13790,0.00158
3803.07773,0.00116
3801.01756,0.00094
3798.95738,0.00094
3796.89721,0.00090
3794.83704,0.00101
3792.77687,0.00123
3790.71670,0.00129
3788.65652,0.00134
3786.59635,0.00157
3784.53618,0.00168
3782.47601,0.00158
3780.41583,0.00156
3778.35566,0.00174
3776.29549,0.00198
3774.23532,0.00208
3772.17515,0.00193
3770.11497,0.00160
3768.05480,0.00136
3765.99463,0.00145
3763.93446,0.00181
3761.87429,0.00208
3759.81411,0.00199
3757.75394,0.00164
3755.69377,0.00113
3753.63360,0.00047
3751.57342,0.00025
3749.51325,0.00125
3747.45308,0.00233
3745.39291,0.00196
3743.33274,0.00053
3741.27256,0.00000
3739.21239,0.00052
3737.15222,0.00089
3735.09205,0.00092
3733.03188,0.00147
3730.97170,0.00209
3728.91153,0.00223
3726.85136,0.00201
3724.79119,0.00152
3722.73102,0.00105
3720.67084,0.00093
3718.61067,0.00109
3716.55050,0.00119
3714.49033,0.00127
3712.43015,0.00123
3710.36998,0.00093
3708.30981,0.00120
3706.24964,0.00192
3704.18947,0.00223
3702.12929,0.00185
3700.06912,0.00140
3698.00895,0.00130
3695.94878,0.00145
3693.88861,0.00175
3691.82843,0.00175
3689.76826,0.00129
3687.70809,0.00108
3685.64792,0.00146
3683.58775,0.00174
3681.52757,0.00160
3679.46740,0.00128
3677.40723,0.00124
3675.34706,0.00172
3673.28688,0.00225
3671.22671,0.00226
3669.16654,0.00207
3667.10637,0.00229
3665.04620,0.00266
3662.98602,0.00292
3660.92585,0.00323
3658.86568,0.00353
3656.80551,0.00374
3654.74534,0.00408
3652.68516,0.00441
3650.62499,0.00403
3648.56482,0.00278
3646.50465,0.00221
3644.44447,0.00274
3642.38430,0.00327
3640.32413,0.00368
3638.26396,0.00441
3636.20379,0.00539
3634.14361,0.00626
3632.08344,0.00658
3630.02327,0.00616
3627.96310,0.00584
3625.90293,0.00634
3623.84275,0.00693
3621.78258,0.00714
3619.72241,0.00731
3617.66224,0.00779
3615.60207,0.00832
3613.54189,0.00865
3611.48172,0.00900
3609.42155,0.00943
3607.36138,0.00992
3605.30120,0.01028
3603.24103,0.01046
3601.18086,0.01079
3599.12069,0.01127
3597.06052,0.01163
3595.00034,0.01184
3592.94017,0.01219
3590.88000,0.01259
3588.81983,0.01278
3586.75966,0.01275
3584.69948,0.01296
3582.63931,0.01365
3580.57914,0.01470
3578.51897,0.01569
3576.45879,0.01634
3574.39862,0.01667
3572.33845,0.01683
3570.27828,0.01704
3568.21811,0.01732
3566.15793,0.01768
3564.09776,0.01845
3562.03759,0.01951
3559.97742,0.02027
3557.91725,0.02047
3555.85707,0.02040
3553.79690,0.02046
3551.73673,0.02099
3549.67656,0.02203
3547.61639,0.02301
3545.55621,0.02354
3543.49604,0.02397
3541.43587,0.02454
3539.37570,0.02509
3537.31552,0.02547
3535.25535,0.02582
3533.19518,0.02636
3531.13501,0.02713
3529.07484,0.02792
3527.01466,0.02854
3524.95449,0.02899
3522.89432,0.02950
3520.83415,0.03011
3518.77398,0.03055
3516.71380,0.03090
3514.65363,0.03138
3512.59346,0.03201
3510.53329,0.03273
3508.47312,0.03336
3506.41294,0.03373
3504.35277,0.03383
3502.29260,0.03411
3500.23243,0.03508
3498.17225,0.03623
3496.11208,0.03682
3494.05191,0.03716
3491.99174,0.03760
3489.93157,0.03794
3487.87139,0.03821
3485.81122,0.03861
3483.75105,0.03918
3481.69088,0.03997
3479.63071,0.04073
3477.57053,0.04109
3475.51036,0.04128
3473.45019,0.04173
3471.39002,0.04239
3469.32984,0.04299
3467.26967,0.04346
3465.20950,0.04386
3463.14933,0.04433
3461.08916,0.04507
3459.02898,0.04581
3456.96881,0.04629
3454.90864,0.04674
3452.84847,0.04735
3450.78830,0.04798
3448.72812,0.04845
3446.66795,0.04874
3444.60778,0.04912
3442.54761,0.04960
3440.48744,0.05023
3438.42726,0.05089
3436.36709,0.05125
3434.30692,0.05140
3432.24675,0.05163
3430.18657,0.05221
3428.12640,0.05293
3426.06623,0.05331
3424.00606,0.05355
3421.94589,0.05417
3419.88571,0.05494
3417.82554,0.05542
3415.76537,0.05581
3413.70520,0.05623
3411.64503,0.05671
3409.58485,0.05705
3407.52468,0.05723
3405.46451,0.05770
3403.40434,0.05836
3401.34416,0.05898
3399.28399,0.05967
3397.22382,0.06002
3395.16365,0.05990
3393.10348,0.05985
3391.04330,0.06012
3388.98313,0.06057
3386.92296,0.06104
3384.86279,0.06155
3382.80262,0.06210
3380.74244,0.06252
3378.68227,0.06280
3376.62210,0.06319
3374.56193,0.06364
3372.50176,0.06373
3370.44158,0.06359
3368.38141,0.06366
3366.32124,0.06394
3364.26107,0.06411
3362.20089,0.06430
3360.14072,0.06473
3358.08055,0.06503
3356.02038,0.06521
3353.96021,0.06561
3351.90003,0.06599
3349.83986,0.06603
3347.77969,0.06599
3345.71952,0.06613
3343.65935,0.06631
3341.59917,0.06645
3339.53900,0.06667
3337.47883,0.06699
3335.41866,0.06734
3333.35849,0.06762
3331.29831,0.06782
3329.23814,0.06805
3327.17797,0.06846
3325.11780,0.06890
3323.05762,0.06896
3320.99745,0.06883
3318.93728,0.06901
3316.87711,0.06940
3314.81694,0.06940
3312.75676,0.06893
3310.69659,0.06851
3308.63642,0.06837
3306.57625,0.06849
3304.51608,0.06907
3302.45590,0.06993
3300.39573,0.07042
3298.33556,0.07026
3296.27539,0.06990
3294.21521,0.06989
3292.15504,0.07013
3290.09487,0.07017
3288.03470,0.07002
3285.97453,0.07007
3283.91435,0.07044
3281.85418,0.07070
3279.79401,0.07039
3277.73384,0.06980
3275.67367,0.06953
3273.61349,0.06984
3271.55332,0.07033
3269.49315,0.07041
3267.43298,0.07011
3265.37281,0.07002
3263.31263,0.07014
3261.25246,0.06995
3259.19229,0.06947
3257.13212,0.06926
3255.07194,0.06938
3253.01177,0.06941
3250.95160,0.06921
3248.89143,0.06899
3246.83126,0.06882
3244.77108,0.06851
3242.71091,0.06830
3240.65074,0.06844
3238.59057,0.06859
3236.53040,0.06846
3234.47022,0.06833
3232.41005,0.06822
3230.34988,0.06778
3228.28971,0.06728
3226.22954,0.06707
3224.16936,0.06681
3222.10919,0.06617
3220.04902,0.06563
3217.98885,0.06568
3215.92867,0.06610
3213.86850,0.06642
3211.80833,0.06650
3209.74816,0.06629
3207.68799,0.06573
3205.62781,0.06522
3203.56764,0.06520
3201.50747,0.06518
3199.44730,0.06485
3197.38713,0.06455
3195.32695,0.06427
3193.26678,0.06385
3191.20661,0.06339
3189.14644,0.06287
3187.08626,0.06243
3185.02609,0.06214
3182.96592,0.06192
3180.90575,0.06176
3178.84558,0.06163
3176.78540,0.06150
3174.72523,0.06126
3172.66506,0.06083
3170.60489,0.06054
3168.54472,0.06052
3166.48454,0.06040
3164.42437,0.05998
3162.36420,0.05938
3160.30403,0.05885
3158.24386,0.05853
3156.18368,0.05844
3154.12351,0.05844
3152.06334,0.05846
3150.00317,0.05837
3147.94299,0.05796
3145.88282,0.05734
3143.82265,0.05684
3141.76248,0.05660
3139.70231,0.05635
3137.64213,0.05591
3135.58196,0.05540
3133.52179,0.05503
3131.46162,0.05488
3129.40145,0.05469
3127.34127,0.05434
3125.28110,0.05405
3123.22093,0.05367
3121.16076,0.05317
3119.10058,0.05288
3117.04041,0.05270
3114.98024,0.05230
3112.92007,0.05178
3110.85990,0.05131
3108.79972,0.05102
3106.73955,0.05092
3104.67938,0.05069
3102.61921,0.05036
3100.55904,0.05021
3098.49886,0.05015
3096.43869,0.04986
3094.37852,0.04925
3092.31835,0.04883
3090.25818,0.04893
3088.19800,0.04900
3086.13783,0.04850
3084.07766,0.04786
3082.01749,0.04758
3079.95731,0.04745
3077.89714,0.04731
3075.83697,0.04723
3073.77680,0.04716
3071.71663,0.04702
3069.65645,0.04656
3067.59628,0.04572
3065.53611,0.04498
3063.47594,0.04468
3061.41577,0.04449
3059.35559,0.04421
3057.29542,0.04399
3055.23525,0.04388
3053.17508,0.04365
3051.11491,0.04351
3049.05473,0.04351
3046.99456,0.04321
3044.93439,0.04243
3042.87422,0.04161
3040.81404,0.04116
3038.75387,0.04096
3036.69370,0.04075
3034.63353,0.04068
3032.57336,0.04067
3030.51318,0.04040
3028.45301,0.03993
3026.39284,0.03945
3024.33267,0.03886
3022.27250,0.03814
3020.21232,0.03763
3018.15215,0.03765
3016.09198,0.03791
3014.03181,0.03782
3011.97163,0.03735
3009.91146,0.03692
3007.85129,0.03677
3005.79112,0.03671
3003.73095,0.03635
3001.67077,0.03589
2999.61060,0.03587
2997.55043,0.03623
2995.49026,0.03629
2993.43009,0.03593
2991.36991,0.03560
2989.30974,0.03532
2987.24957,0.03522
2985.18940,0.03549
2983.12923,0.03597
2981.06905,0.03652
2979.00888,0.03714
2976.94871,0.03790
2974.88854,0.03873
2972.82836,0.03933
2970.76819,0.03994
2968.70802,0.04094
2966.64785,0.04221
2964.58768,0.04351
2962.52750,0.04476
2960.46733,0.04608
2958.40716,0.04749
2956.34699,0.04887
2954.28682,0.05024
2952.22664,0.05172
2950.16647,0.05319
2948.10630,0.05453
2946.04613,0.05618
2943.98596,0.05849
2941.92578,0.06129
2939.86561,0.06424
2937.80544,0.06723
2935.74527,0.07035
2933.68509,0.07341
2931.62492,0.07633
2929.56475,0.07916
2927.50458,0.08197
2925.44441,0.08498
2923.38423,0.08794
2921.32406,0.09062
2919.26389,0.09305
2917.20372,0.09409
2915.14355,0.09185
2913.08337,0.08655
2911.02320,0.08076
2908.96303,0.07606
2906.90286,0.07225
2904.84268,0.06926
2902.78251,0.06715
2900.72234,0.06555
2898.66217,0.06400
2896.60200,0.06245
2894.54182,0.06114
2892.48165,0.05980
2890.42148,0.05813
2888.36131,0.05649
2886.30114,0.05521
2884.24096,0.05420
2882.18079,0.05319
2880.12062,0.05227
2878.06045,0.05178
2876.00028,0.05168
2873.94010,0.05170
2871.87993,0.05182
2869.81976,0.05202
2867.75959,0.05248
2865.69941,0.05375
2863.63924,0.05557
2861.57907,0.05739
2859.51890,0.05973
2857.45873,0.06287
2855.39855,0.06626
2853.33838,0.06985
2851.27821,0.07341
2849.21804,0.07458
2847.15787,0.07089
2845.09769,0.06397
2843.03752,0.05713
2840.97735,0.05176
2838.91718,0.04810
2836.85700,0.04578
2834.79683,0.04394
2832.73666,0.04237
2830.67649,0.04124
2828.61632,0.04022
2826.55614,0.03910
2824.49597,0.03828
2822.43580,0.03766
2820.37563,0.03686
2818.31546,0.03606
2816.25528,0.03542
2814.19511,0.03478
2812.13494,0.03426
2810.07477,0.03404
2808.01460,0.03388
2805.95442,0.03341
2803.89425,0.03293
2801.83408,0.03281
2799.77391,0.03282
2797.71373,0.03270
2795.65356,0.03231
2793.59339,0.03179
2791.53322,0.03154
2789.47305,0.03144
2787.41287,0.03106
2785.35270,0.03050
2783.29253,0.03021
2781.23236,0.03023
2779.17219,0.03019
2777.11201,0.03001
2775.05184,0.02994
2772.99167,0.02998
2770.93150,0.02983
2768.87133,0.02944
2766.81115,0.02910
2764.75098,0.02898
2762.69081,0.02897
2760.63064,0.02887
2758.57046,0.02866
2756.51029,0.02841
2754.45012,0.02825
2752.38995,0.02832
2750.32978,0.02838
2748.26960,0.02816
2746.20943,0.02787
2744.14926,0.02777
2742.08909,0.02780
2740.02892,0.02783
2737.96874,0.02771
2735.90857,0.02740
2733.84840,0.02709
2731.78823,0.02700
2729.72805,0.02707
2727.66788,0.02726
2725.60771,0.02739
2723.54754,0.02733
2721.48737,0.02722
2719.42719,0.02701
2717.36702,0.02679
2715.30685,0.02672
2713.24668,0.02673
2711.18651,0.02681
2709.12633,0.02693
2707.06616,0.02688
2705.00599,0.02669
2702.94582,0.02648
2700.88565,0.02615
2698.82547,0.02576
2696.76530,0.02548
2694.70513,0.02528
2692.64496,0.02521
2690.58478,0.02520
2688.52461,0.02521
2686.46444,0.02522
2684.40427,0.02520
2682.34410,0.02510
2680.28392,0.02486
2678.22375,0.02471
2676.16358,0.02482
2674.10341,0.02487
2672.04324,0.02461
2669.98306,0.02428
2667.92289,0.02417
2665.86272,0.02418
2663.80255,0.02409
2661.74238,0.02392
2659.68220,0.02373
2657.62203,0.02348
2655.56186,0.02324
2653.50169,0.02322
2651.44151,0.02321
2649.38134,0.02298
2647.32117,0.02270
2645.26100,0.02251
2643.20083,0.02237
2641.14065,0.02232
2639.08048,0.02225
2637.02031,0.02191
2634.96014,0.02155
2632.89997,0.02151
2630.83979,0.02149
2628.77962,0.02132
2626.71945,0.02104
2624.65928,0.02078
2622.59910,0.02070
2620.53893,0.02065
2618.47876,0.02059
2616.41859,0.02054
2614.35842,0.02050
2612.29824,0.02050
2610.23807,0.02043
2608.17790,0.02025
2606.11773,0.01992
2604.05756,0.01954
2601.99738,0.01930
2599.93721,0.01913
2597.87704,0.01886
2595.81687,0.01885
2593.75670,0.01927
2591.69652,0.01941
2589.63635,0.01892
2587.57618,0.01867
2585.51601,0.01892
2583.45583,0.01899
2581.39566,0.01882
2579.33549,0.01852
2577.27532,0.01823
2575.21515,0.01837
2573.15497,0.01862
2571.09480,0.01844
2569.03463,0.01823
2566.97446,0.01818
2564.91429,0.01801
2562.85411,0.01761
2560.79394,0.01724
2558.73377,0.01702
2556.67360,0.01685
2554.61342,0.01679
2552.55325,0.01672
2550.49308,0.01653
2548.43291,0.01637
2546.37274,0.01643
2544.31256,0.01645
2542.25239,0.01622
2540.19222,0.01604
2538.13205,0.01610
2536.07188,0.01637
2534.01170,0.01669
2531.95153,0.01666
2529.89136,0.01630
2527.83119,0.01591
2525.77102,0.01563
2523.71084,0.01553
2521.65067,0.01549
2519.59050,0.01541
2517.53033,0.01543
2515.47015,0.01536
2513.40998,0.01504
2511.34981,0.01495
2509.28964,0.01533
2507.22947,0.01555
2505.16929,0.01546
2503.10912,0.01554
2501.04895,0.01572
2498.98878,0.01563
2496.92861,0.01542
2494.86843,0.01529
2492.80826,0.01507
2490.74809,0.01484
2488.68792,0.01456
2486.62775,0.01426
2484.56757,0.01422
2482.50740,0.01436
2480.44723,0.01445
2478.38706,0.01407
2476.32688,0.01354
2474.26671,0.01346
2472.20654,0.01339
2470.14637,0.01318
2468.08620,0.01316
2466.02602,0.01304
2463.96585,0.01282
2461.90568,0.01282
2459.84551,0.01292
2457.78534,0.01287
2455.72516,0.01285
2453.66499,0.01295
2451.60482,0.01312
2449.54465,0.01317
2447.48447,0.01280
2445.42430,0.01243
2443.36413,0.01231
2441.30396,0.01220
2439.24379,0.01208
2437.18361,0.01191
2435.12344,0.01180
2433.06327,0.01186
2431.00310,0.01175
2428.94293,0.01148
2426.88275,0.01163
2424.82258,0.01207
2422.76241,0.01220
2420.70224,0.01176
2418.64207,0.01116
2416.58189,0.01114
2414.52172,0.01155
2412.46155,0.01178
2410.40138,0.01165
2408.34120,0.01121
2406.28103,0.01078
2404.22086,0.01055
2402.16069,0.01044
2400.10052,0.01048
2398.04034,0.01039
2395.98017,0.01018
2393.92000,0.01003
2391.85983,0.01004
2389.79966,0.01021
2387.73948,0.01035
2385.67931,0.01042
2383.61914,0.01066
2381.55897,0.01100
2379.49880,0.01117
2377.43862,0.01101
2375.37845,0.01069
2373.31828,0.00976
2371.25811,0.00891
2369.19793,0.00964
2367.13776,0.01057
2365.07759,0.01021
2363.01742,0.01005
2360.95725,0.00930
2358.89707,0.01092
2356.83690,0.01195
2354.77673,0.01111
2352.71656,0.01020
2350.65639,0.00701
2348.59621,0.00512
2346.53604,0.00963
2344.47587,0.01151
2342.41570,0.01052
2340.35552,0.00840
2338.29535,0.00657
2336.23518,0.00644
2334.17501,0.00720
2332.11484,0.00858
2330.05466,0.00958
2327.99449,0.01048
2325.93432,0.01038
2323.87415,0.01017
2321.81398,0.00929
2319.75380,0.00873
2317.69363,0.00781
2315.63346,0.00786
2313.57329,0.00849
2311.51312,0.00864
2309.45294,0.00859
2307.39277,0.00850
2305.33260,0.00827
2303.27243,0.00817
2301.21225,0.00865
2299.15208,0.00929
2297.09191,0.00966
2295.03174,0.00946
2292.97157,0.00889
2290.91139,0.00854
2288.85122,0.00833
2286.79105,0.00802
2284.73088,0.00781
2282.67071,0.00780
2280.61053,0.00776
2278.55036,0.00759
2276.49019,0.00746
2274.43002,0.00766
2272.36984,0.00824
2270.30967,0.00832
2268.24950,0.00773
2266.18933,0.00764
2264.12916,0.00818
2262.06898,0.00852
2260.00881,0.00832
2257.94864,0.00764
2255.88847,0.00685
2253.82830,0.00626
2251.76812,0.00634
2249.70795,0.00725
2247.64778,0.00826
2245.58761,0.00882
2243.52744,0.00876
2241.46726,0.00765
2239.40709,0.00609
2237.34692,0.00575
2235.28675,0.00683
2233.22657,0.00776
2231.16640,0.00755
2229.10623,0.00666
2227.04606,0.00567
2224.98589,0.00544
2222.92571,0.00636
2220.86554,0.00673
2218.80537,0.00569
2216.74520,0.00445
2214.68503,0.00446
2212.62485,0.00563
2210.56468,0.00596
2208.50451,0.00544
2206.44434,0.00571
2204.38417,0.00626
2202.32399,0.00651
2200.26382,0.00674
2198.20365,0.00634
2196.14348,0.00574
2194.08330,0.00613
2192.02313,0.00728
2189.96296,0.00811
2187.90279,0.00769
2185.84262,0.00623
2183.78244,0.00423
2181.72227,0.00167
2179.66210,0.00022
2177.60193,0.00116
2175.54176,0.00288
2173.48158,0.00420
2171.42141,0.00526
2169.36124,0.00607
2167.30107,0.00632
2165.24089,0.00522
2163.18072,0.00336
2161.12055,0.00227
2159.06038,0.00149
2157.00021,0.00087
2154.94003,0.00076
2152.87986,0.00032
2150.81969,0.00000
2148.75952,0.00058
2146.69935,0.00128
2144.63917,0.00165
2142.57900,0.00222
2140.51883,0.00314
2138.45866,0.00405
2136.39849,0.00435
2134.33831,0.00402
2132.27814,0.00379
2130.21797,0.00411
2128.15780,0.00461
2126.09762,0.00464
2124.03745,0.00429
2121.97728,0.00425
2119.91711,0.00456
2117.85694,0.00471
2115.79676,0.00499
2113.73659,0.00586
2111.67642,0.00700
2109.61625,0.00728
2107.55608,0.00636
2105.49590,0.00534
2103.43573,0.00507
2101.37556,0.00524
2099.31539,0.00505
2097.25521,0.00476
2095.19504,0.00506
2093.13487,0.00514
2091.07470,0.00463
2089.01453,0.00488
2086.95435,0.00565
2084.89418,0.00581
2082.83401,0.00556
2080.77384,0.00523
2078.71367,0.00512
2076.65349,0.00552
2074.59332,0.00567
2072.53315,0.00466
2070.47298,0.00285
2068.41281,0.00114
2066.35263,0.00069
2064.29246,0.00173
2062.23229,0.00243
2060.17212,0.00208
2058.11194,0.00156
2056.05177,0.00138
2053.99160,0.00177
2051.93143,0.00237
2049.87126,0.00231
2047.81108,0.00196
2045.75091,0.00204
2043.69074,0.00196
2041.63057,0.00150
2039.57040,0.00137
2037.51022,0.00180
2035.45005,0.00223
2033.38988,0.00210
2031.32971,0.00139
2029.26954,0.00058
2027.20936,0.00000
2025.14919,0.00008
2023.08902,0.00103
2021.02885,0.00201
2018.96867,0.00230
2016.90850,0.00191
2014.84833,0.00154
2012.78816,0.00227
2010.72799,0.00330
2008.66781,0.00264
2006.60764,0.00105
2004.54747,0.00074
2002.48730,0.00144
2000.42713,0.00177
1998.36695,0.00188
1996.30678,0.00231
1994.24661,0.00302
1992.18644,0.00369
1990.12626,0.00327
1988.06609,0.00151
1986.00592,0.00010
1983.94575,0.00000
1981.88558,0.00065
1979.82540,0.00136
1977.76523,0.00106
1975.70506,0.00015
1973.64489,0.00003
1971.58472,0.00045
1969.52454,0.00103
1967.46437,0.00134
1965.40420,0.00137
1963.34403,0.00161
1961.28386,0.00114
1959.22368,0.00009
1957.16351,-0.00012
1955.10334,0.00053
1953.04317,0.00128
1950.98299,0.00143
1948.92282,0.00141
1946.86265,0.00214
1944.80248,0.00266
1942.74231,0.00201
1940.68213,0.00132
1938.62196,0.00119
1936.56179,0.00105
1934.50162,0.00091
1932.44145,0.00118
1930.38127,0.00189
1928.32110,0.00246
1926.26093,0.00237
1924.20076,0.00194
1922.14059,0.00194
1920.08041,0.00230
1918.02024,0.00237
1915.96007,0.00202
1913.89990,0.00149
1911.83972,0.00129
1909.77955,0.00151
1907.71938,0.00178
1905.65921,0.00191
1903.59904,0.00182
1901.53886,0.00169
1899.47869,0.00180
1897.41852,0.00191
1895.35835,0.00169
1893.29818,0.00119
1891.23800,0.00082
1889.17783,0.00106
1887.11766,0.00149
1885.05749,0.00140
1882.99731,0.00106
1880.93714,0.00103
1878.87697,0.00133
1876.81680,0.00161
1874.75663,0.00149
1872.69645,0.00114
1870.63628,0.00105
1868.57611,0.00115
1866.51594,0.00107
1864.45577,0.00083
1862.39559,0.00070
1860.33542,0.00068
1858.27525,0.00056
1856.21508,0.00044
1854.15491,0.00057
1852.09473,0.00079
1850.03456,0.00086
1847.97439,0.00074
1845.91422,0.00041
1843.85404,0.00004
1841.79387,0.00000
1839.73370,0.00017
1837.67353,0.00028
1835.61336,0.00021
1833.55318,0.00007
1831.49301,0.00000
1829.43284,0.00009
1827.37267,0.00036
1825.31250,0.00053
1823.25232,0.00028
1821.19215,-0.00015
1819.13198,-0.00029
1817.07181,-0.00018
1815.01163,-0.00013
1812.95146,-0.00019
1810.89129,-0.00022
1808.83112,-0.00029
1806.77095,-0.00046
1804.71077,-0.00055
1802.65060,-0.00043
1800.59043,-0.00017
1798.53026,-0.00001
1796.47009,0.00004
1794.40991,0.00013
1792.34974,0.00019
1790.28957,0.00001
1788.22940,-0.00017
1786.16923,-0.00012
1784.10905,0.00000
1782.04888,0.00000
1779.98871,-0.00006
1777.92854,0.00000
1775.86836,-0.00002
1773.80819,-0.00004
1771.74802,0.00020
1769.68785,0.00074
1767.62768,0.00131
1765.56750,0.00171
1763.50733,0.00200
1761.44716,0.00257
1759.38699,0.00360
1757.32682,0.00467
1755.26664,0.00559
1753.20647,0.00661
1751.14630,0.00822
1749.08613,0.01067
1747.02596,0.01375
1744.96578,0.01733
1742.90561,0.02156
1740.84544,0.02663
1738.78527,0.03198
1736.72509,0.03642
1734.66492,0.04028
1732.60475,0.04399
1730.54458,0.04627
1728.48441,0.04709
1726.42423,0.04714
1724.36406,0.04664
1722.30389,0.04578
1720.24372,0.04491
1718.18355,0.04406
1716.12337,0.04336
1714.06320,0.04317
1712.00303,0.04329
1709.94286,0.04322
1707.88268,0.04264
1705.82251,0.04158
1703.76234,0.04053
1701.70217,0.03945
1699.64200,0.03790
1697.58182,0.03657
1695.52165,0.03608
1693.46148,0.03590
1691.40131,0.03555
1689.34114,0.03512
1687.28096,0.03480
1685.22079,0.03450
1683.16062,0.03429
1681.10045,0.03442
1679.04028,0.03460
1676.98010,0.03462
1674.91993,0.03464
1672.85976,0.03486
1670.79959,0.03538
1668.73941,0.03644
1666.67924,0.03796
1664.61907,0.03953
1662.55890,0.04105
1660.49873,0.04246
1658.43855,0.04371
1656.37838,0.04485
1654.31821,0.04605
1652.25804,0.04728
1650.19787,0.04793
1648.13769,0.04821
1646.07752,0.04866
1644.01735,0.04917
1641.95718,0.04964
1639.89701,0.05019
1637.83683,0.05077
1635.77666,0.05147
1633.71649,0.05245
1631.65632,0.05335
1629.59614,0.05409
1627.53597,0.05465
1625.47580,0.05506
1623.41563,0.05555
1621.35546,0.05641
1619.29528,0.05758
1617.23511,0.05905
1615.17494,0.06061
1613.11477,0.06172
1611.05460,0.06247
1608.99442,0.06313
1606.93425,0.06371
1604.87408,0.06390
1602.81391,0.06345
1600.75373,0.06246
1598.69356,0.06115
1596.63339,0.05955
1594.57322,0.05768
1592.51305,0.05560
1590.45287,0.05338
1588.39270,0.05118
1586.33253,0.04901
1584.27236,0.04686
1582.21219,0.04480
1580.15201,0.04282
1578.09184,0.04070
1576.03167,0.03840
1573.97150,0.03658
1571.91133,0.03517
1569.85115,0.03349
1567.79098,0.03192
1565.73081,0.03101
1563.67064,0.03056
1561.61046,0.03024
1559.55029,0.02969
1557.49012,0.02901
1555.42995,0.02902
1553.36978,0.02961
1551.30960,0.03011
1549.24943,0.03015
1547.18926,0.02978
1545.12909,0.02916
1543.06892,0.02872
1541.00874,0.02894
1538.94857,0.02942
1536.88840,0.02943
1534.82823,0.02891
1532.76805,0.02796
1530.70788,0.02689
1528.64771,0.02572
1526.58754,0.02439
1524.52737,0.02332
1522.46719,0.02284
1520.40702,0.02296
1518.34685,0.02345
1516.28668,0.02389
1514.22651,0.02385
1512.16633,0.02325
1510.10616,0.02200
1508.04599,0.01977
1505.98582,0.01723
1503.92565,0.01588
1501.86547,0.01517
1499.80530,0.01405
1497.74513,0.01224
1495.68496,0.01040
1493.62478,0.00909
1491.56461,0.00790
1489.50444,0.00660
1487.44427,0.00571
1485.38410,0.00539
1483.32392,0.00539
1481.26375,0.00569
1479.20358,0.00639
1477.14341,0.00762
1475.08324,0.00983
1473.02306,0.01346
1470.96289,0.01764
1468.90272,0.02104
1466.84255,0.02407
1464.78238,0.02721
1462.72220,0.02954
1460.66203,0.03052
1458.60186,0.03138
1456.54169,0.03339
1454.48151,0.03558
1452.42134,0.03699
1450.36117,0.03802
1448.30100,0.03922
1446.24083,0.04060
1444.18065,0.04170
1442.12048,0.04222
1440.06031,0.04205
1438.00014,0.04087
1435.93997,0.03870
1433.87979,0.03656
1431.81962,0.03495
1429.75945,0.03348
1427.69928,0.03213
1425.63910,0.03124
1423.57893,0.03093
1421.51876,0.03087
1419.45859,0.03072
1417.39842,0.03067
1415.33824,0.03074
1413.27807,0.03062
1411.21790,0.03029
1409.15773,0.02997
1407.09756,0.02974
1405.03738,0.02961
1402.97721,0.02959
1400.91704,0.02960
1398.85687,0.02958
1396.79670,0.02985
1394.73652,0.03057
1392.67635,0.03136
1390.61618,0.03203
1388.55601,0.03282
1386.49583,0.03379
1384.43566,0.03476
1382.37549,0.03583
1380.31532,0.03711
1378.25515,0.03837
1376.19497,0.03933
1374.13480,0.04010
1372.07463,0.04091
1370.01446,0.04165
1367.95429,0.04217
1365.89411,0.04247
1363.83394,0.04269
1361.77377,0.04298
1359.71360,0.04337
1357.65343,0.04382
1355.59325,0.04428
1353.53308,0.04471
1351.47291,0.04516
1349.41274,0.04571
1347.35256,0.04632
1345.29239,0.04678
1343.23222,0.04699
1341.17205,0.04704
1339.11188,0.04727
1337.05170,0.04790
1334.99153,0.04878
1332.93136,0.04961
1330.87119,0.05025
1328.81102,0.05085
1326.75084,0.05164
1324.69067,0.05266
1322.63050,0.05364
1320.57033,0.05432
1318.51015,0.05453
1316.44998,0.05429
1314.38981,0.05384
1312.32964,0.05326
1310.26947,0.05242
1308.20929,0.05116
1306.14912,0.04942
1304.08895,0.04736
1302.02878,0.04512
1299.96861,0.04277
1297.90843,0.04043
1295.84826,0.03813
1293.78809,0.03598
1291.72792,0.03424
1289.66775,0.03301
1287.60757,0.03229
1285.54740,0.03195
1283.48723,0.03168
1281.42706,0.03137
1279.36688,0.03112
1277.30671,0.03099
1275.24654,0.03103
1273.18637,0.03134
1271.12620,0.03179
1269.06602,0.03234
1267.00585,0.03306
1264.94568,0.03384
1262.88551,0.03467
1260.82534,0.03556
1258.76516,0.03634
1256.70499,0.03699
1254.64482,0.03772
1252.58465,0.03859
1250.52447,0.03950
1248.46430,0.04044
1246.40413,0.04148
1244.34396,0.04243
1242.28379,0.04324
1240.22361,0.04407
1238.16344,0.04490
1236.10327,0.04572
1234.04310,0.04673
1231.98293,0.04792
1229.92275,0.04899
1227.86258,0.04997
1225.80241,0.05102
1223.74224,0.05199
1221.68207,0.05279
1219.62189,0.05364
1217.56172,0.05472
1215.50155,0.05588
1213.44138,0.05700
1211.38120,0.05805
1209.32103,0.05910
1207.26086,0.06036
1205.20069,0.06176
1203.14052,0.06305
1201.08034,0.06414
1199.02017,0.06493
1196.96000,0.06546
1194.89983,0.06565
1192.83966,0.06533
1190.77948,0.06463
1188.71931,0.06365
1186.65914,0.06246
1184.59897,0.06137
1182.53880,0.06045
1180.47862,0.05959
1178.41845,0.05892
1176.35828,0.05857
1174.29811,0.05832
1172.23793,0.05809
1170.17776,0.05802
1168.11759,0.05778
1166.05742,0.05710
1163.99725,0.05629
1161.93707,0.05539
1159.87690,0.05421
1157.81673,0.05311
1155.75656,0.05224
1153.69639,0.05116
1151.63621,0.04975
1149.57604,0.04853
1147.51587,0.04769
1145.45570,0.04678
1143.39552,0.04555
1141.33535,0.04417
1139.27518,0.04269
1137.21501,0.04147
1135.15484,0.04076
1133.09466,0.04033
1131.03449,0.03999
1128.97432,0.03995
1126.91415,0.04064
1124.85398,0.04200
1122.79380,0.04377
1120.73363,0.04589
1118.67346,0.04833
1116.61329,0.05117
1114.55312,0.05444
1112.49294,0.05791
1110.43277,0.06149
1108.37260,0.06519
1106.31243,0.06857
1104.25225,0.07145
1102.19208,0.07396
1100.13191,0.07613
1098.07174,0.07813
1096.01157,0.08001
1093.95139,0.08167
1091.89122,0.08328
1089.83105,0.08499
1087.77088,0.08708
1085.71071,0.08962
1083.65053,0.09255
1081.59036,0.09588
1079.53019,0.09921
1077.47002,0.10211
1075.40985,0.10458
1073.34967,0.10661
1071.28950,0.10827
1069.22933,0.10967
1067.16916,0.11090
1065.10898,0.11227
1063.04881,0.11388
1060.98864,0.11543
1058.92847,0.11679
1056.86830,0.11820
1054.80812,0.11991
1052.74795,0.12184
1050.68778,0.12381
1048.62761,0.12590
1046.56744,0.12815
1044.50726,0.13025
1042.44709,0.13211
1040.38692,0.13424
1038.32675,0.13679
1036.26657,0.13933
1034.20640,0.14190
1032.14623,0.14420
1030.08606,0.14573
1028.02589,0.14690
1025.96571,0.14796
1023.90554,0.14861
1021.84537,0.14883
1019.78520,0.14895
1017.72503,0.14901
1015.66485,0.14852
1013.60468,0.14720
1011.54451,0.14521
1009.48434,0.14283
1007.42417,0.14012
1005.36399,0.13702
1003.30382,0.13349
1001.24365,0.12968
999.18348,0.12583
997.12330,0.12211
995.06313,0.11868
993.00296,0.11530
990.94279,0.11167
988.88262,0.10778
986.82244,0.10350
984.76227,0.09892
982.70210,0.09434
980.64193,0.08996
978.58176,0.08607
976.52158,0.08259
974.46141,0.07918
972.40124,0.07587
970.34107,0.07287
968.28089,0.07041
966.22072,0.06843
964.16055,0.06658
962.10038,0.06429
960.04021,0.06135
957.98003,0.05841
955.91986,0.05566
953.85969,0.05291
951.79952,0.05023
949.73935,0.04747
947.67917,0.04453
945.61900,0.04163
943.55883,0.03909
941.49866,0.03689
939.43849,0.03497
937.37831,0.03332
935.31814,0.03192
933.25797,0.03106
931.19780,0.03060
929.13762,0.02987
927.07745,0.02886
925.01728,0.02788
922.95711,0.02676
920.89694,0.02535
918.83676,0.02386
916.77659,0.02227
914.71642,0.02043
912.65625,0.01884
910.59608,0.01742
908.53590,0.01567
906.47573,0.01405
904.41556,0.01295
902.35539,0.01214
900.29522,0.01147
898.23504,0.01111
896.17487,0.01106
894.11470,0.01093
892.05453,0.01073
889.99435,0.01055
887.93418,0.01027
885.87401,0.00997
883.81384,0.00956
881.75367,0.00923
879.69349,0.00957
877.63332,0.01040
875.57315,0.01119
873.51298,0.01171
871.45281,0.01184
869.39263,0.01153
867.33246,0.01071
865.27229,0.00951
863.21212,0.00803
861.15194,0.00638
859.09177,0.00452
857.03160,0.00293
854.97143,0.00204
852.91126,0.00135
850.85108,0.00061
848.79091,0.00000
846.73074,-0.00027
844.67057,-0.00016
842.61040,0.00010
840.55022,0.00072
838.49005,0.00185
836.42988,0.00325
834.36971,0.00420
832.30954,0.00467
830.24936,0.00499
828.18919,0.00498
826.12902,0.00456
824.06885,0.00397
822.00867,0.00388
819.94850,0.00475
817.88833,0.00596
815.82816,0.00655
813.76799,0.00610
811.70781,0.00521
809.64764,0.00458
807.58747,0.00399
805.52730,0.00309
803.46713,0.00188
801.40695,0.00072
799.34678,0.00000
797.28661,-0.00043
795.22644,-0.00037
793.16627,-0.00043
791.10609,-0.00033
789.04592,0.00004
786.98575,0.00070
784.92558,0.00219
782.86540,0.00385
780.80523,0.00479
778.74506,0.00521
776.68489,0.00514
774.62472,0.00489
772.56454,0.00508
770.50437,0.00577
768.44420,0.00724
766.38403,0.00962
764.32386,0.01236
762.26368,0.01511
760.20351,0.01738
758.14334,0.01820
756.08317,0.01827
754.02299,0.01831
751.96282,0.01714
749.90265,0.01503
747.84248,0.01299
745.78231,0.01096
743.72213,0.00958
741.66196,0.00911
739.60179,0.00829
737.54162,0.00725
735.48145,0.00729
733.42127,0.00743
731.36110,0.00665
729.30093,0.00634
727.24076,0.00700
725.18059,0.00733
723.12041,0.00678
721.06024,0.00701
719.00007,0.00692
716.93990,0.00627
714.87972,0.00490
712.81955,0.00336
710.75938,0.00293
708.69921,0.00350
706.63904,0.00402
704.57886,0.00418
702.51869,0.00451
700.45852,0.00509
698.39835,0.00496
696.33818,0.00385
694.27800,0.00273
692.21783,0.00224
690.15766,0.00187
688.09749,0.00110
686.03731,0.00023
683.97714,-0.00047
681.91697,-0.00115
679.85680,-0.00148
677.79663,-0.00101
675.73645,-0.00017
673.67628,-0.00051
671.61611,-0.00166
669.55594,0.00407
667.49577,0.00978
665.43559,0.00146
663.37542,0.00134
661.31525,0.00293
659.25508,0.00390
657.19491,0.00494
655.13473,0.00532
653.07456,0.00460
651.01439,0.00291
648.95422,0.00095
646.89404,0.00000
644.83387,0.00111
642.77370,0.00331
640.71353,0.00531
638.65336,0.00634
636.59318,0.00560
634.53301,0.00367
632.47284,0.00235
630.41267,0.00219
628.35250,0.00266
626.29232,0.00330
624.23215,0.00302
622.17198,0.00132
620.11181,0.00134
618.05164,0.00389
615.99146,0.00582
613.93129,0.00629
611.87112,0.00674
609.81095,0.00614
607.75077,0.00476
605.69060,0.00405
603.63043,0.00248
601.57026,0.00091
599.51009,0.00000
