3996.73391,0.00117
3994.67373,0.00087
3992.61356,0.00088
3990.55339,0.00101
3988.49322,0.00108
3986.43305,0.00103
3984.37287,0.00085
3982.31270,0.00066
3980.25253,0.00052
3978.19236,0.00051
3976.13219,0.00052
3974.07201,0.00037
3972.01184,0.00013
3969.95167,0.00000
3967.89150,0.00023
3965.83133,0.00069
3963.77115,0.00094
3961.71098,0.00099
3959.65081,0.00119
3957.59064,0.00144
3955.53046,0.00143
3953.47029,0.00135
3951.41012,0.00143
3949.34995,0.00145
3947.28978,0.00136
3945.22960,0.00124
3943.16943,0.00093
3941.10926,0.00059
3939.04909,0.00045
3936.98892,0.00037
3934.92874,0.00037
3932.86857,0.00057
3930.80840,0.00086
3928.74823,0.00099
3926.68805,0.00091
3924.62788,0.00070
3922.56771,0.00053
3920.50754,0.00054
3918.44737,0.00063
3916.38719,0.00080
3914.32702,0.00108
3912.26685,0.00134
3910.20668,0.00141
3908.14651,0.00131
3906.08633,0.00131
3904.02616,0.00154
3901.96599,0.00173
3899.90582,0.00180
3897.84565,0.00179
3895.78547,0.00157
3893.72530,0.00128
3891.66513,0.00110
3889.60496,0.00100
3887.54478,0.00091
3885.48461,0.00082
3883.42444,0.00075
3881.36427,0.00079
3879.30410,0.00095
3877.24392,0.00105
3875.18375,0.00098
3873.12358,0.00093
3871.06341,0.00106
3869.00324,0.00124
3866.94306,0.00137
3864.88289,0.00152
3862.82272,0.00167
3860.76255,0.00169
3858.70237,0.00158
3856.64220,0.00169
3854.58203,0.00217
3852.52186,0.00233
3850.46169,0.00172
3848.40151,0.00114
3846.34134,0.00095
3844.28117,0.00067
3842.22100,0.00012
3840.16083,0.00000
3838.10065,0.00046
3836.04048,0.00086
3833.98031,0.00109
3831.92014,0.00127
3829.85997,0.00114
3827.79979,0.00073
3825.73962,0.00066
3823.67945,0.00119
3821.61928,0.00187
3819.55910,0.00207
3817.49893,0.00195
3815.43876,0.00189
3813.37859,0.00206
3811.31842,0.00232
3809.25824,0.00232
3807.19807,0.00203
3805.13790,0.00167
3803.07773,0.00143
3801.01756,0.00165
3798.95738,0.00212
3796.89721,0.00212
3794.83704,0.00168
3792.77687,0.00137
3790.71670,0.00130
3788.65652,0.00120
3786.59635,0.00100
3784.53618,0.00092
3782.47601,0.00103
3780.41583,0.00116
3778.35566,0.00112
3776.29549,0.00091
3774.23532,0.00067
3772.17515,0.00076
3770.11497,0.00125
3768.05480,0.00145
3765.99463,0.00113
3763.93446,0.00089
3761.87429,0.00092
3759.81411,0.00099
3757.75394,0.00120
3755.69377,0.00134
3753.63360,0.00093
3751.57342,0.00015
3749.51325,0.00000
3747.45308,0.00081
3745.39291,0.00143
3743.33274,0.00106
3741.27256,0.00061
3739.21239,0.00093
3737.15222,0.00150
3735.09205,0.00152
3733.03188,0.00117
3730.97170,0.00081
3728.91153,0.00052
3726.85136,0.00035
3724.79119,0.00023
3722.73102,0.00003
3720.67084,0.00000
3718.61067,0.00048
3716.55050,0.00117
3714.49033,0.00151
3712.43015,0.00137
3710.36998,0.00115
3708.30981,0.00116
3706.24964,0.00109
3704.18947,0.00084
3702.12929,0.00080
3700.06912,0.00110
3698.00895,0.00128
3695.94878,0.00132
3693.88861,0.00166
3691.82843,0.00204
3689.76826,0.00203
3687.70809,0.00186
3685.64792,0.00165
3683.58775,0.00138
3681.52757,0.00136
3679.46740,0.00156
3677.40723,0.00155
3675.34706,0.00138
3673.28688,0.00129
3671.22671,0.00114
3669.16654,0.00115
3667.10637,0.00161
3665.04620,0.00229
3662.98602,0.00273
3660.92585,0.00281
3658.86568,0.00300
3656.80551,0.00346
3654.74534,0.00389
3652.68516,0.00416
3650.62499,0.00383
3648.56482,0.00270
3646.50465,0.00239
3644.44447,0.00342
3642.38430,0.00442
3640.32413,0.00484
3638.26396,0.00501
3636.20379,0.00524
3634.14361,0.00556
3632.08344,0.00578
3630.02327,0.00596
3627.96310,0.00633
3625.90293,0.00671
3623.84275,0.00673
3621.78258,0.00662
3619.72241,0.00677
3617.66224,0.00715
3615.60207,0.00757
3613.54189,0.00804
3611.48172,0.00849
3609.42155,0.00877
3607.36138,0.00899
3605.30120,0.00925
3603.24103,0.00949
3601.18086,0.00974
3599.12069,0.01000
3597.06052,0.01008
3595.00034,0.01002
3592.94017,0.01027
3590.88000,0.01097
3588.81983,0.01173
3586.75966,0.01230
3584.69948,0.01284
3582.63931,0.01351
3580.57914,0.01415
3578.51897,0.01451
3576.45879,0.01475
3574.39862,0.01536
3572.33845,0.01630
3570.27828,0.01715
3568.21811,0.01785
3566.15793,0.01844
3564.09776,0.01881
3562.03759,0.01892
3559.97742,0.01891
3557.91725,0.01918
3555.85707,0.01987
3553.79690,0.02069
3551.73673,0.02121
3549.67656,0.02143
3547.61639,0.02167
3545.55621,0.02204
3543.49604,0.02259
3541.43587,0.02333
3539.37570,0.02411
3537.31552,0.02480
3535.25535,0.02532
3533.19518,0.02565
3531.13501,0.02596
3529.07484,0.02634
3527.01466,0.02680
3524.95449,0.02721
3522.89432,0.02749
3520.83415,0.02801
3518.77398,0.02877
3516.71380,0.02949
3514.65363,0.03016
3512.59346,0.03072
3510.53329,0.03107
3508.47312,0.03144
3506.41294,0.03191
3504.35277,0.03219
3502.29260,0.03227
3500.23243,0.03259
3498.17225,0.03321
3496.11208,0.03395
3494.05191,0.03482
3491.99174,0.03565
3489.93157,0.03628
3487.87139,0.03695
3485.81122,0.03768
3483.75105,0.03831
3481.69088,0.03869
3479.63071,0.03870
3477.57053,0.03865
3475.51036,0.03895
3473.45019,0.03953
3471.39002,0.04023
3469.32984,0.04093
3467.26967,0.04145
3465.20950,0.04161
3463.14933,0.04191
3461.08916,0.04269
3459.02898,0.04347
3456.96881,0.04390
3454.90864,0.04433
3452.84847,0.04495
3450.78830,0.04529
3448.72812,0.04503
3446.66795,0.04474
3444.60778,0.04519
3442.54761,0.04623
3440.48744,0.04717
3438.42726,0.04762
3436.36709,0.04791
3434.30692,0.04835
3432.24675,0.04887
3430.18657,0.04940
3428.12640,0.04967
3426.06623,0.04984
3424.00606,0.05037
3421.94589,0.05094
3419.88571,0.05129
3417.82554,0.05177
3415.76537,0.05234
3413.70520,0.05283
3411.64503,0.05320
3409.58485,0.05336
3407.52468,0.05364
3405.46451,0.05421
3403.40434,0.05476
3401.34416,0.05514
3399.28399,0.05527
3397.22382,0.05541
3395.16365,0.05599
3393.10348,0.05674
3391.04330,0.05717
3388.98313,0.05732
3386.92296,0.05732
3384.86279,0.05732
3382.80262,0.05769
3380.74244,0.05842
3378.68227,0.05906
3376.62210,0.05932
3374.56193,0.05936
3372.50176,0.05963
3370.44158,0.06020
3368.38141,0.06078
3366.32124,0.06103
3364.26107,0.06079
3362.20089,0.06035
3360.14072,0.06043
3358.08055,0.06122
3356.02038,0.06188
3353.96021,0.06201
3351.90003,0.06192
3349.83986,0.06179
3347.77969,0.06196
3345.71952,0.06246
3343.65935,0.06265
3341.59917,0.06241
3339.53900,0.06239
3337.47883,0.06263
3335.41866,0.06279
3333.35849,0.06309
3331.29831,0.06357
3329.23814,0.06393
3327.17797,0.06408
3325.11780,0.06412
3323.05762,0.06415
3320.99745,0.06439
3318.93728,0.06481
3316.87711,0.06509
3314.81694,0.06514
3312.75676,0.06525
3310.69659,0.06545
3308.63642,0.06560
3306.57625,0.06564
3304.51608,0.06546
3302.45590,0.06507
3300.39573,0.06481
3298.33556,0.06485
3296.27539,0.06526
3294.21521,0.06610
3292.15504,0.06685
3290.09487,0.06667
3288.03470,0.06599
3285.97453,0.06581
3283.91435,0.06591
3281.85418,0.06577
3279.79401,0.06573
3277.73384,0.06590
3275.67367,0.06589
3273.61349,0.06572
3271.55332,0.06575
3269.49315,0.06593
3267.43298,0.06596
3265.37281,0.06581
3263.31263,0.06563
3261.25246,0.06545
3259.19229,0.06530
3257.13212,0.06519
3255.07194,0.06490
3253.01177,0.06464
3250.95160,0.06490
3248.89143,0.06533
3246.83126,0.06524
3244.77108,0.06466
3242.71091,0.06384
3240.65074,0.06325
3238.59057,0.06337
3236.53040,0.06378
3234.47022,0.06383
3232.41005,0.06352
3230.34988,0.06323
3228.28971,0.06317
3226.22954,0.06329
3224.16936,0.06322
3222.10919,0.06270
3220.04902,0.06223
3217.98885,0.06204
3215.92867,0.06180
3213.86850,0.06173
3211.80833,0.06195
3209.74816,0.06205
3207.68799,0.06191
3205.62781,0.06162
3203.56764,0.06139
3201.50747,0.06128
3199.44730,0.06117
3197.38713,0.06090
3195.32695,0.06050
3193.26678,0.06025
3191.20661,0.06007
3189.14644,0.05980
3187.08626,0.05953
3185.02609,0.05920
3182.96592,0.05880
3180.90575,0.05835
3178.84558,0.05787
3176.78540,0.05758
3174.72523,0.05749
3172.66506,0.05729
3170.60489,0.05690
3168.54472,0.05664
3166.48454,0.05644
3164.42437,0.05595
3162.36420,0.05537
3160.30403,0.05502
3158.24386,0.05485
3156.18368,0.05461
3154.12351,0.05420
3152.06334,0.05382
3150.00317,0.05365
3147.94299,0.05355
3145.88282,0.05329
3143.82265,0.05294
3141.76248,0.05261
3139.70231,0.05231
3137.64213,0.05209
3135.58196,0.05189
3133.52179,0.05156
3131.46162,0.05122
3129.40145,0.05112
3127.34127,0.05104
3125.28110,0.05065
3123.22093,0.05013
3121.16076,0.04966
3119.10058,0.04918
3117.04041,0.04881
3114.98024,0.04856
3112.92007,0.04818
3110.85990,0.04794
3108.79972,0.04814
3106.73955,0.04818
3104.67938,0.04753
3102.61921,0.04681
3100.55904,0.04661
3098.49886,0.04661
3096.43869,0.04624
3094.37852,0.04560
3092.31835,0.04521
3090.25818,0.04542
3088.19800,0.04574
3086.13783,0.04561
3084.07766,0.04529
3082.01749,0.04501
3079.95731,0.04474
3077.89714,0.04434
3075.83697,0.04382
3073.77680,0.04352
3071.71663,0.04346
3069.65645,0.04335
3067.59628,0.04310
3065.53611,0.04272
3063.47594,0.04226
3061.41577,0.04182
3059.35559,0.04148
3057.29542,0.04129
3055.23525,0.04111
3053.17508,0.04099
3051.11491,0.04097
3049.05473,0.04076
3046.99456,0.04030
3044.93439,0.03981
3042.87422,0.03937
3040.81404,0.03899
3038.75387,0.03873
3036.69370,0.03859
3034.63353,0.03838
3032.57336,0.03799
3030.51318,0.03740
3028.45301,0.03695
3026.39284,0.03695
3024.33267,0.03700
3022.27250,0.03684
3020.21232,0.03663
3018.15215,0.03640
3016.09198,0.03618
3014.03181,0.03599
3011.97163,0.03564
3009.91146,0.03522
3007.85129,0.03496
3005.79112,0.03475
3003.73095,0.03443
3001.67077,0.03411
2999.61060,0.03389
2997.55043,0.03390
2995.49026,0.03402
2993.43009,0.03404
2991.36991,0.03421
2989.30974,0.03469
2987.24957,0.03512
2985.18940,0.03525
2983.12923,0.03522
2981.06905,0.03538
2979.00888,0.03592
2976.94871,0.03680
2974.88854,0.03778
2972.82836,0.03847
2970.76819,0.03886
2968.70802,0.03935
2966.64785,0.04044
2964.58768,0.04205
2962.52750,0.04361
2960.46733,0.04498
2958.40716,0.04644
2956.34699,0.04802
2954.28682,0.04962
2952.22664,0.05128
2950.16647,0.05300
2948.10630,0.05476
2946.04613,0.05657
2943.98596,0.05868
2941.92578,0.06134
2939.86561,0.06466
2937.80544,0.06831
2935.74527,0.07168
2933.68509,0.07494
2931.62492,0.07840
2929.56475,0.08164
2927.50458,0.08459
2925.44441,0.08739
2923.38423,0.09004
2921.32406,0.09262
2919.26389,0.09489
2917.20372,0.09567
2915.14355,0.09338
2913.08337,0.08798
2911.02320,0.08141
2908.96303,0.07593
2906.90286,0.07224
2904.84268,0.06961
2902.78251,0.06738
2900.72234,0.06529
2898.66217,0.06333
2896.60200,0.06155
2894.54182,0.05986
2892.48165,0.05826
2890.42148,0.05669
2888.36131,0.05509
2886.30114,0.05372
2884.24096,0.05270
2882.18079,0.05193
2880.12062,0.05129
2878.06045,0.05066
2876.00028,0.05012
2873.94010,0.05009
2871.87993,0.05066
2869.81976,0.05151
2867.75959,0.05235
2865.69941,0.05337
2863.63924,0.05521
2861.57907,0.05798
2859.51890,0.06107
2857.45873,0.06423
2855.39855,0.06777
2853.33838,0.07168
2851.27821,0.07494
2849.21804,0.07538
2847.15787,0.07125
2845.09769,0.06405
2843.03752,0.05695
2840.97735,0.05146
2838.91718,0.04755
2836.85700,0.04472
2834.79683,0.04254
2832.73666,0.04102
2830.67649,0.03995
2828.61632,0.03871
2826.55614,0.03749
2824.49597,0.03674
2822.43580,0.03631
2820.37563,0.03583
2818.31546,0.03523
2816.25528,0.03471
2814.19511,0.03424
2812.13494,0.03366
2810.07477,0.03306
2808.01460,0.03250
2805.95442,0.03194
2803.89425,0.03136
2801.83408,0.03092
2799.77391,0.03080
2797.71373,0.03079
2795.65356,0.03071
2793.59339,0.03058
2791.53322,0.03045
2789.47305,0.03026
2787.41287,0.02997
2785.35270,0.02963
2783.29253,0.02936
2781.23236,0.02919
2779.17219,0.02899
2777.11201,0.02868
2775.05184,0.02842
2772.99167,0.02831
2770.93150,0.02828
2768.87133,0.02817
2766.81115,0.02785
2764.75098,0.02748
2762.69081,0.02737
2760.63064,0.02744
2758.57046,0.02742
2756.51029,0.02730
2754.45012,0.02721
2752.38995,0.02732
2750.32978,0.02756
2748.26960,0.02749
2746.20943,0.02719
2744.14926,0.02691
2742.08909,0.02653
2740.02892,0.02625
2737.96874,0.02620
2735.90857,0.02628
2733.84840,0.02639
2731.78823,0.02642
2729.72805,0.02638
2727.66788,0.02634
2725.60771,0.02639
2723.54754,0.02639
2721.48737,0.02611
2719.42719,0.02567
2717.36702,0.02534
2715.30685,0.02520
2713.24668,0.02517
2711.18651,0.02521
2709.12633,0.02531
2707.06616,0.02528
2705.00599,0.02511
2702.94582,0.02500
2700.88565,0.02492
2698.82547,0.02475
2696.76530,0.02460
2694.70513,0.02450
2692.64496,0.02445
2690.58478,0.02441
2688.52461,0.02429
2686.46444,0.02423
2684.40427,0.02429
2682.34410,0.02429
2680.28392,0.02426
2678.22375,0.02414
2676.16358,0.02380
2674.10341,0.02352
2672.04324,0.02353
2669.98306,0.02355
2667.92289,0.02355
2665.86272,0.02350
2663.80255,0.02308
2661.74238,0.02262
2659.68220,0.02249
2657.62203,0.02237
2655.56186,0.02222
2653.50169,0.02223
2651.44151,0.02228
2649.38134,0.02217
2647.32117,0.02184
2645.26100,0.02159
2643.20083,0.02171
2641.14065,0.02180
2639.08048,0.02152
2637.02031,0.02111
2634.96014,0.02085
2632.89997,0.02068
2630.83979,0.02063
2628.77962,0.02071
2626.71945,0.02067
2624.65928,0.02055
2622.59910,0.02035
2620.53893,0.01996
2618.47876,0.01976
2616.41859,0.01983
2614.35842,0.01967
2612.29824,0.01934
2610.23807,0.01933
2608.17790,0.01945
2606.11773,0.01936
2604.05756,0.01930
2601.99738,0.01916
2599.93721,0.01876
2597.87704,0.01854
2595.81687,0.01863
2593.75670,0.01840
2591.69652,0.01791
2589.63635,0.01778
2587.57618,0.01790
2585.51601,0.01803
2583.45583,0.01791
2581.39566,0.01764
2579.33549,0.01770
2577.27532,0.01792
2575.21515,0.01801
2573.15497,0.01776
2571.09480,0.01720
2569.03463,0.01701
2566.97446,0.01719
2564.91429,0.01735
2562.85411,0.01749
2560.79394,0.01751
2558.73377,0.01728
2556.67360,0.01710
2554.61342,0.01703
2552.55325,0.01680
2550.49308,0.01641
2548.43291,0.01605
2546.37274,0.01567
2544.31256,0.01548
2542.25239,0.01581
2540.19222,0.01618
2538.13205,0.01608
2536.07188,0.01583
2534.01170,0.01574
2531.95153,0.01564
2529.89136,0.01528
2527.83119,0.01480
2525.77102,0.01452
2523.71084,0.01472
2521.65067,0.01516
2519.59050,0.01547
2517.53033,0.01576
2515.47015,0.01582
2513.40998,0.01534
2511.34981,0.01463
2509.28964,0.01405
2507.22947,0.01388
2505.16929,0.01415
2503.10912,0.01436
2501.04895,0.01422
2498.98878,0.01396
2496.92861,0.01369
2494.86843,0.01373
2492.80826,0.01416
2490.74809,0.01421
2488.68792,0.01382
2486.62775,0.01364
2484.56757,0.01367
2482.50740,0.01374
2480.44723,0.01386
2478.38706,0.01383
2476.32688,0.01382
2474.26671,0.01381
2472.20654,0.01355
2470.14637,0.01330
2468.08620,0.01285
2466.02602,0.01234
2463.96585,0.01233
2461.90568,0.01253
2459.84551,0.01269
2457.78534,0.01281
2455.72516,0.01267
2453.66499,0.01242
2451.60482,0.01248
2449.54465,0.01256
2447.48447,0.01241
2445.42430,0.01235
2443.36413,0.01208
2441.30396,0.01163
2439.24379,0.01150
2437.18361,0.01140
2435.12344,0.01103
2433.06327,0.01099
2431.00310,0.01138
2428.94293,0.01154
2426.88275,0.01157
2424.82258,0.01182
2422.76241,0.01191
2420.70224,0.01173
2418.64207,0.01163
2416.58189,0.01183
2414.52172,0.01217
2412.46155,0.01223
2410.40138,0.01177
2408.34120,0.01109
2406.28103,0.01074
2404.22086,0.01067
2402.16069,0.01039
2400.10052,0.01004
2398.04034,0.01014
2395.98017,0.01051
2393.92000,0.01083
2391.85983,0.01095
2389.79966,0.01090
2387.73948,0.01081
2385.67931,0.01073
2383.61914,0.01062
2381.55897,0.01061
2379.49880,0.01072
2377.43862,0.01073
2375.37845,0.01047
2373.31828,0.00979
2371.25811,0.00878
2369.19793,0.00861
2367.13776,0.00988
2365.07759,0.01131
2363.01742,0.01108
2360.95725,0.00820
2358.89707,0.00523
2356.83690,0.00515
2354.77673,0.00656
2352.71656,0.00797
2350.65639,0.00928
2348.59621,0.00998
2346.53604,0.00981
2344.47587,0.00914
2342.41570,0.00867
2340.35552,0.00875
2338.29535,0.00910
2336.23518,0.00953
2334.17501,0.00941
2332.11484,0.00857
2330.05466,0.00849
2327.99449,0.00949
2325.93432,0.01009
2323.87415,0.00994
2321.81398,0.00991
2319.75380,0.00999
2317.69363,0.00972
2315.63346,0.00939
2313.57329,0.00914
2311.51312,0.00880
2309.45294,0.00860
2307.39277,0.00868
2305.33260,0.00896
2303.27243,0.00916
2301.21225,0.00900
2299.15208,0.00881
2297.09191,0.00885
2295.03174,0.00871
2292.97157,0.00841
2290.91139,0.00839
2288.85122,0.00861
2286.79105,0.00884
2284.73088,0.00887
2282.67071,0.00861
2280.61053,0.00837
2278.55036,0.00817
2276.49019,0.00789
2274.43002,0.00767
2272.36984,0.00760
2270.30967,0.00759
2268.24950,0.00759
2266.18933,0.00760
2264.12916,0.00749
2262.06898,0.00728
2260.00881,0.00719
2257.94864,0.00716
2255.88847,0.00738
2253.82830,0.00797
2251.76812,0.00828
2249.70795,0.00813
2247.64778,0.00774
2245.58761,0.00726
2243.52744,0.00739
2241.46726,0.00769
2239.40709,0.00705
2237.34692,0.00625
2235.28675,0.00622
2233.22657,0.00655
2231.16640,0.00696
2229.10623,0.00741
2227.04606,0.00772
2224.98589,0.00798
2222.92571,0.00810
2220.86554,0.00750
2218.80537,0.00673
2216.74520,0.00638
2214.68503,0.00585
2212.62485,0.00546
2210.56468,0.00532
2208.50451,0.00464
2206.44434,0.00403
2204.38417,0.00421
2202.32399,0.00475
2200.26382,0.00557
2198.20365,0.00597
2196.14348,0.00531
2194.08330,0.00487
2192.02313,0.00551
2189.96296,0.00589
2187.90279,0.00494
2185.84262,0.00407
2183.78244,0.00418
2181.72227,0.00430
2179.66210,0.00453
2177.60193,0.00523
2175.54176,0.00471
2173.48158,0.00239
2171.42141,0.00136
2169.36124,0.00328
2167.30107,0.00597
2165.24089,0.00762
2163.18072,0.00807
2161.12055,0.00642
2159.06038,0.00325
2157.00021,0.00175
2154.94003,0.00195
2152.87986,0.00259
2150.81969,0.00468
2148.75952,0.00658
2146.69935,0.00577
2144.63917,0.00459
2142.57900,0.00521
2140.51883,0.00588
2138.45866,0.00569
2136.39849,0.00547
2134.33831,0.00505
2132.27814,0.00428
2130.21797,0.00385
2128.15780,0.00422
2126.09762,0.00486
2124.03745,0.00482
2121.97728,0.00450
2119.91711,0.00499
2117.85694,0.00628
2115.79676,0.00727
2113.73659,0.00714
2111.67642,0.00637
2109.61625,0.00553
2107.55608,0.00494
2105.49590,0.00518
2103.43573,0.00573
2101.37556,0.00599
2099.31539,0.00612
2097.25521,0.00618
2095.19504,0.00621
2093.13487,0.00602
2091.07470,0.00541
2089.01453,0.00476
2086.95435,0.00500
2084.89418,0.00619
2082.83401,0.00672
2080.77384,0.00594
2078.71367,0.00547
2076.65349,0.00616
2074.59332,0.00635
2072.53315,0.00526
2070.47298,0.00429
2068.41281,0.00430
2066.35263,0.00518
2064.29246,0.00603
2062.23229,0.00590
2060.17212,0.00501
2058.11194,0.00380
2056.05177,0.00317
2053.99160,0.00408
2051.93143,0.00597
2049.87126,0.00701
2047.81108,0.00605
2045.75091,0.00401
2043.69074,0.00263
2041.63057,0.00223
2039.57040,0.00235
2037.51022,0.00369
2035.45005,0.00495
2033.38988,0.00407
2031.32971,0.00331
2029.26954,0.00393
2027.20936,0.00318
2025.14919,0.00107
2023.08902,0.00084
2021.02885,0.00260
2018.96867,0.00424
2016.90850,0.00437
2014.84833,0.00273
2012.78816,0.00108
2010.72799,0.00092
2008.66781,0.00221
2006.60764,0.00379
2004.54747,0.00408
2002.48730,0.00374
2000.42713,0.00359
1998.36695,0.00254
1996.30678,0.00116
1994.24661,0.00148
1992.18644,0.00328
1990.12626,0.00447
1988.06609,0.00390
1986.00592,0.00263
1983.94575,0.00258
1981.88558,0.00377
1979.82540,0.00427
1977.76523,0.00344
1975.70506,0.00252
1973.64489,0.00171
1971.58472,0.00049
1969.52454,0.00000
1967.46437,0.00073
1965.40420,0.00156
1963.34403,0.00194
1961.28386,0.00180
1959.22368,0.00107
1957.16351,0.00104
1955.10334,0.00256
1953.04317,0.00392
1950.98299,0.00390
1948.92282,0.00331
1946.86265,0.00322
1944.80248,0.00329
1942.74231,0.00296
1940.68213,0.00296
1938.62196,0.00318
1936.56179,0.00298
1934.50162,0.00254
1932.44145,0.00214
1930.38127,0.00222
1928.32110,0.00275
1926.26093,0.00313
1924.20076,0.00315
1922.14059,0.00322
1920.08041,0.00333
1918.02024,0.00293
1915.96007,0.00220
1913.89990,0.00184
1911.83972,0.00203
1909.77955,0.00277
1907.71938,0.00360
1905.65921,0.00363
1903.59904,0.00277
1901.53886,0.00181
1899.47869,0.00161
1897.41852,0.00182
1895.35835,0.00171
1893.29818,0.00184
1891.23800,0.00246
1889.17783,0.00273
1887.11766,0.00241
1885.05749,0.00198
1882.99731,0.00161
1880.93714,0.00133
1878.87697,0.00122
1876.81680,0.00137
1874.75663,0.00161
1872.69645,0.00173
1870.63628,0.00175
1868.57611,0.00183
1866.51594,0.00197
1864.45577,0.00184
1862.39559,0.00150
1860.33542,0.00140
1858.27525,0.00180
1856.21508,0.00236
1854.15491,0.00248
1852.09473,0.00218
1850.03456,0.00191
1847.97439,0.00165
1845.91422,0.00114
1843.85404,0.00067
1841.79387,0.00062
1839.73370,0.00059
1837.67353,0.00051
1835.61336,0.00070
1833.55318,0.00095
1831.49301,0.00092
1829.43284,0.00060
1827.37267,0.00025
1825.31250,0.00004
1823.25232,0.00000
1821.19215,-0.00006
1819.13198,-0.00012
1817.07181,0.00003
1815.01163,0.00031
1812.95146,0.00038
1810.89129,0.00018
1808.83112,0.00004
1806.77095,0.00008
1804.71077,0.00019
1802.65060,0.00013
1800.59043,-0.00009
1798.53026,-0.00009
1796.47009,0.00020
1794.40991,0.00039
1792.34974,0.00034
1790.28957,0.00031
1788.22940,0.00035
1786.16923,0.00035
1784.10905,0.00047
1782.04888,0.00070
1779.98871,0.00062
1777.92854,0.00021
1775.86836,0.00000
1773.80819,0.00012
1771.74802,0.00050
1769.68785,0.00093
1767.62768,0.00144
1765.56750,0.00194
1763.50733,0.00239
1761.44716,0.00300
1759.38699,0.00383
1757.32682,0.00484
1755.26664,0.00597
1753.20647,0.00712
1751.14630,0.00883
1749.08613,0.01161
1747.02596,0.01484
1744.96578,0.01821
1742.90561,0.02244
1740.84544,0.02786
1738.78527,0.03361
1736.72509,0.03865
1734.66492,0.04314
1732.60475,0.04667
1730.54458,0.04823
1728.48441,0.04850
1726.42423,0.04812
1724.36406,0.04726
1722.30389,0.04636
1720.24372,0.04579
1718.18355,0.04518
1716.12337,0.04434
1714.06320,0.04387
1712.00303,0.04385
1709.94286,0.04374
1707.88268,0.04323
1705.82251,0.04230
1703.76234,0.04114
1701.70217,0.03961
1699.64200,0.03744
1697.58182,0.03565
1695.52165,0.03504
1693.46148,0.03495
1691.40131,0.03467
1689.34114,0.03421
1687.28096,0.03388
1685.22079,0.03368
1683.16062,0.03337
1681.10045,0.03309
1679.04028,0.03306
1676.98010,0.03310
1674.91993,0.03310
1672.85976,0.03334
1670.79959,0.03399
1668.73941,0.03500
1666.67924,0.03611
1664.61907,0.03715
1662.55890,0.03833
1660.49873,0.03979
1658.43855,0.04131
1656.37838,0.04254
1654.31821,0.04336
1652.25804,0.04409
1650.19787,0.04492
1648.13769,0.04565
1646.07752,0.04622
1644.01735,0.04669
1641.95718,0.04712
1639.89701,0.04752
1637.83683,0.04789
1635.77666,0.04843
1633.71649,0.04922
1631.65632,0.05011
1629.59614,0.05103
1627.53597,0.05182
1625.47580,0.05237
1623.41563,0.05288
1621.35546,0.05357
1619.29528,0.05440
1617.23511,0.05540
1615.17494,0.05662
1613.11477,0.05777
1611.05460,0.05870
1608.99442,0.05938
1606.93425,0.05973
1604.87408,0.05965
1602.81391,0.05918
1600.75373,0.05837
1598.69356,0.05717
1596.63339,0.05558
1594.57322,0.05377
1592.51305,0.05185
1590.45287,0.04986
1588.39270,0.04775
1586.33253,0.04548
1584.27236,0.04313
1582.21219,0.04095
1580.15201,0.03906
1578.09184,0.03699
1576.03167,0.03450
1573.97150,0.03256
1571.91133,0.03144
1569.85115,0.03034
1567.79098,0.02916
1565.73081,0.02814
1563.67064,0.02725
1561.61046,0.02648
1559.55029,0.02561
1557.49012,0.02508
1555.42995,0.02530
1553.36978,0.02562
1551.30960,0.02579
1549.24943,0.02597
1547.18926,0.02609
1545.12909,0.02592
1543.06892,0.02540
1541.00874,0.02474
1538.94857,0.02457
1536.88840,0.02492
1534.82823,0.02491
1532.76805,0.02438
1530.70788,0.02387
1528.64771,0.02330
1526.58754,0.02242
1524.52737,0.02156
1522.46719,0.02085
1520.40702,0.02031
1518.34685,0.02028
1516.28668,0.02067
1514.22651,0.02101
1512.16633,0.02091
1510.10616,0.02005
1508.04599,0.01798
1505.98582,0.01510
1503.92565,0.01344
1501.86547,0.01278
1499.80530,0.01190
1497.74513,0.01031
1495.68496,0.00849
1493.62478,0.00714
1491.56461,0.00601
1489.50444,0.00477
1487.44427,0.00388
1485.38410,0.00365
1483.32392,0.00377
1481.26375,0.00407
1479.20358,0.00461
1477.14341,0.00574
1475.08324,0.00812
1473.02306,0.01207
1470.96289,0.01636
1468.90272,0.01963
1466.84255,0.02236
1464.78238,0.02516
1462.72220,0.02729
1460.66203,0.02810
1458.60186,0.02854
1456.54169,0.03007
1454.48151,0.03224
1452.42134,0.03392
1450.36117,0.03506
1448.30100,0.03585
1446.24083,0.03656
1444.18065,0.03743
1442.12048,0.03810
1440.06031,0.03790
1438.00014,0.03659
1435.93997,0.03458
1433.87979,0.03280
1431.81962,0.03122
1429.75945,0.02952
1427.69928,0.02810
1425.63910,0.02722
1423.57893,0.02673
1421.51876,0.02644
1419.45859,0.02618
1417.39842,0.02609
1415.33824,0.02628
1413.27807,0.02640
1411.21790,0.02635
1409.15773,0.02613
1407.09756,0.02577
1405.03738,0.02543
1402.97721,0.02525
1400.91704,0.02518
1398.85687,0.02526
1396.79670,0.02562
1394.73652,0.02619
1392.67635,0.02678
1390.61618,0.02740
1388.55601,0.02812
1386.49583,0.02893
1384.43566,0.02976
1382.37549,0.03065
1380.31532,0.03168
1378.25515,0.03289
1376.19497,0.03409
1374.13480,0.03512
1372.07463,0.03592
1370.01446,0.03656
1367.95429,0.03706
1365.89411,0.03738
1363.83394,0.03739
1361.77377,0.03726
1359.71360,0.03741
1357.65343,0.03788
1355.59325,0.03836
1353.53308,0.03881
1351.47291,0.03927
1349.41274,0.03973
1347.35256,0.04015
1345.29239,0.04052
1343.23222,0.04084
1341.17205,0.04105
1339.11188,0.04129
1337.05170,0.04191
1334.99153,0.04278
1332.93136,0.04353
1330.87119,0.04411
1328.81102,0.04470
1326.75084,0.04534
1324.69067,0.04604
1322.63050,0.04675
1320.57033,0.04732
1318.51015,0.04760
1316.44998,0.04765
1314.38981,0.04752
1312.32964,0.04707
1310.26947,0.04634
1308.20929,0.04546
1306.14912,0.04430
1304.08895,0.04262
1302.02878,0.04055
1299.96861,0.03836
1297.90843,0.03617
1295.84826,0.03412
1293.78809,0.03239
1291.72792,0.03098
1289.66775,0.02981
1287.60757,0.02881
1285.54740,0.02800
1283.48723,0.02753
1281.42706,0.02738
1279.36688,0.02747
1277.30671,0.02766
1275.24654,0.02782
1273.18637,0.02799
1271.12620,0.02829
1269.06602,0.02883
1267.00585,0.02970
1264.94568,0.03069
1262.88551,0.03144
1260.82534,0.03209
1258.76516,0.03283
1256.70499,0.03359
1254.64482,0.03443
1252.58465,0.03538
1250.52447,0.03627
1248.46430,0.03704
1246.40413,0.03782
1244.34396,0.03869
1242.28379,0.03956
1240.22361,0.04040
1238.16344,0.04128
1236.10327,0.04215
1234.04310,0.04304
1231.98293,0.04393
1229.92275,0.04476
1227.86258,0.04568
1225.80241,0.04654
1223.74224,0.04719
1221.68207,0.04796
1219.62189,0.04882
1217.56172,0.04949
1215.50155,0.05017
1213.44138,0.05101
1211.38120,0.05196
1209.32103,0.05311
1207.26086,0.05436
1205.20069,0.05550
1203.14052,0.05662
1201.08034,0.05787
1199.02017,0.05894
1196.96000,0.05936
1194.89983,0.05920
1192.83966,0.05891
1190.77948,0.05851
1188.71931,0.05792
1186.65914,0.05714
1184.59897,0.05628
1182.53880,0.05561
1180.47862,0.05521
1178.41845,0.05490
1176.35828,0.05465
1174.29811,0.05451
1172.23793,0.05463
1170.17776,0.05499
1168.11759,0.05518
1166.05742,0.05495
1163.99725,0.05444
1161.93707,0.05371
1159.87690,0.05270
1157.81673,0.05147
1155.75656,0.05024
1153.69639,0.04929
1151.63621,0.04834
1149.57604,0.04707
1147.51587,0.04584
1145.45570,0.04468
1143.39552,0.04317
1141.33535,0.04133
1139.27518,0.03951
1137.21501,0.03815
1135.15484,0.03733
1133.09466,0.03669
1131.03449,0.03624
1128.97432,0.03630
1126.91415,0.03697
1124.85398,0.03817
1122.79380,0.03974
1120.73363,0.04168
1118.67346,0.04410
1116.61329,0.04696
1114.55312,0.05007
1112.49294,0.05336
1110.43277,0.05682
1108.37260,0.06016
1106.31243,0.06318
1104.25225,0.06603
1102.19208,0.06862
1100.13191,0.07045
1098.07174,0.07168
1096.01157,0.07304
1093.95139,0.07452
1091.89122,0.07589
1089.83105,0.07756
1087.77088,0.07957
1085.71071,0.08164
1083.65053,0.08404
1081.59036,0.08677
1079.53019,0.08943
1077.47002,0.09188
1075.40985,0.09417
1073.34967,0.09603
1071.28950,0.09728
1069.22933,0.09826
1067.16916,0.09934
1065.10898,0.10066
1063.04881,0.10237
1060.98864,0.10404
1058.92847,0.10529
1056.86830,0.10656
1054.80812,0.10801
1052.74795,0.10967
1050.68778,0.11167
1048.62761,0.11372
1046.56744,0.11558
1044.50726,0.11746
1042.44709,0.11940
1040.38692,0.12134
1038.32675,0.12358
1036.26657,0.12618
1034.20640,0.12876
1032.14623,0.13113
1030.08606,0.13311
1028.02589,0.13434
1025.96571,0.13511
1023.90554,0.13584
1021.84537,0.13639
1019.78520,0.13663
1017.72503,0.13665
1015.66485,0.13636
1013.60468,0.13530
1011.54451,0.13343
1009.48434,0.13132
1007.42417,0.12920
1005.36399,0.12667
1003.30382,0.12339
1001.24365,0.11960
999.18348,0.11595
997.12330,0.11258
995.06313,0.10945
993.00296,0.10640
990.94279,0.10305
988.88262,0.09961
986.82244,0.09626
984.76227,0.09254
982.70210,0.08825
980.64193,0.08409
978.58176,0.08058
976.52158,0.07725
974.46141,0.07369
972.40124,0.07030
970.34107,0.06769
968.28089,0.06577
966.22072,0.06405
964.16055,0.06219
962.10038,0.06006
960.04021,0.05777
957.98003,0.05535
955.91986,0.05264
953.85969,0.04950
951.79952,0.04635
949.73935,0.04365
947.67917,0.04127
945.61900,0.03888
943.55883,0.03644
941.49866,0.03408
939.43849,0.03202
937.37831,0.03045
935.31814,0.02922
933.25797,0.02806
931.19780,0.02696
929.13762,0.02606
927.07745,0.02548
925.01728,0.02494
922.95711,0.02414
920.89694,0.02332
918.83676,0.02216
916.77659,0.02014
914.71642,0.01791
912.65625,0.01613
910.59608,0.01475
908.53590,0.01367
906.47573,0.01267
904.41556,0.01157
902.35539,0.01049
900.29522,0.01006
898.23504,0.01040
896.17487,0.01066
894.11470,0.01036
892.05453,0.00960
889.99435,0.00891
887.93418,0.00855
885.87401,0.00807
883.81384,0.00766
881.75367,0.00796
879.69349,0.00862
877.63332,0.00902
875.57315,0.00951
873.51298,0.01036
871.45281,0.01111
869.39263,0.01142
867.33246,0.01089
865.27229,0.00914
863.21212,0.00719
861.15194,0.00594
859.09177,0.00472
857.03160,0.00309
854.97143,0.00161
852.91126,0.00054
850.85108,0.00000
848.79091,0.00018
846.73074,0.00050
844.67057,0.00019
842.61040,-0.00018
840.55022,-0.00008
838.49005,0.00018
836.42988,0.00040
834.36971,0.00089
832.30954,0.00213
830.24936,0.00367
828.18919,0.00418
826.12902,0.00365
824.06885,0.00303
822.00867,0.00264
819.94850,0.00286
817.88833,0.00379
815.82816,0.00479
813.76799,0.00533
811.70781,0.00518
809.64764,0.00464
807.58747,0.00397
805.52730,0.00311
803.46713,0.00194
801.40695,0.00067
799.34678,0.00000
797.28661,-0.00041
795.22644,-0.00051
793.16627,-0.00068
791.10609,-0.00101
789.04592,-0.00110
786.98575,-0.00060
784.92558,0.00008
782.86540,0.00082
780.80523,0.00177
778.74506,0.00253
776.68489,0.00248
774.62472,0.00210
772.56454,0.00245
770.50437,0.00353
768.44420,0.00541
766.38403,0.00787
764.32386,0.00987
762.26368,0.01136
760.20351,0.01296
758.14334,0.01425
756.08317,0.01435
754.02299,0.01375
751.96282,0.01312
749.90265,0.01165
747.84248,0.00941
745.78231,0.00789
743.72213,0.00695
741.66196,0.00570
739.60179,0.00493
737.54162,0.00476
735.48145,0.00464
733.42127,0.00479
731.36110,0.00496
729.30093,0.00492
727.24076,0.00509
725.18059,0.00555
723.12041,0.00572
721.06024,0.00540
719.00007,0.00487
716.93990,0.00442
714.87972,0.00390
712.81955,0.00320
710.75938,0.00265
708.69921,0.00249
706.63904,0.00230
704.57886,0.00142
702.51869,0.00030
700.45852,0.00000
698.39835,0.00042
696.33818,0.00046
694.27800,-0.00024
692.21783,-0.00077
690.15766,-0.00100
688.09749,-0.00202
686.03731,-0.00376
683.97714,-0.00460
681.91697,-0.00369
679.85680,-0.00186
677.79663,-0.00094
675.73645,-0.00162
673.67628,-0.00287
671.61611,-0.00366
669.55594,-0.00380
667.49577,-0.00315
665.43559,-0.00191
663.37542,-0.00081
661.31525,-0.00012
659.25508,0.00031
657.19491,0.00006
655.13473,-0.00140
653.07456,-0.00262
651.01439,-0.00185
648.95422,0.00000
646.89404,0.00084
644.83387,0.00063
642.77370,0.00067
640.71353,0.00045
638.65336,-0.00081
636.59318,-0.00223
634.53301,-0.00362
632.47284,-0.00476
630.41267,-0.00415
628.35250,-0.00279
626.29232,-0.00427
624.23215,-0.00723
622.17198,-0.00659
620.11181,-0.00346
618.05164,0.00061
615.99146,0.00497
613.93129,0.00541
611.87112,0.00186
609.81095,-0.00195
607.75077,-0.00510
605.69060,-0.00689
603.63043,-0.00708
601.57026,-0.00549
599.51009,0.00000
