3996.73391,0.00057
3994.67373,0.00089
3992.61356,0.00074
3990.55339,0.00050
3988.49322,0.00058
3986.43305,0.00063
3984.37287,0.00056
3982.31270,0.00055
3980.25253,0.00056
3978.19236,0.00049
3976.13219,0.00044
3974.07201,0.00059
3972.01184,0.00071
3969.95167,0.00060
3967.89150,0.00052
3965.83133,0.00075
3963.77115,0.00112
3961.71098,0.00138
3959.65081,0.00146
3957.59064,0.00139
3955.53046,0.00112
3953.47029,0.00052
3951.41012,0.00000
3949.34995,0.00015
3947.28978,0.00071
3945.22960,0.00108
3943.16943,0.00112
3941.10926,0.00074
3939.04909,0.00019
3936.98892,0.00011
3934.92874,0.00055
3932.86857,0.00088
3930.80840,0.00076
3928.74823,0.00045
3926.68805,0.00028
3924.62788,0.00032
3922.56771,0.00040
3920.50754,0.00058
3918.44737,0.00099
3916.38719,0.00123
3914.32702,0.00111
3912.26685,0.00111
3910.20668,0.00134
3908.14651,0.00143
3906.08633,0.00109
3904.02616,0.00044
3901.96599,0.00006
3899.90582,0.00048
3897.84565,0.00121
3895.78547,0.00154
3893.72530,0.00140
3891.66513,0.00109
3889.60496,0.00078
3887.54478,0.00059
3885.48461,0.00079
3883.42444,0.00120
3881.36427,0.00139
3879.30410,0.00135
3877.24392,0.00116
3875.18375,0.00096
3873.12358,0.00090
3871.06341,0.00082
3869.00324,0.00070
3866.94306,0.00082
3864.88289,0.00113
3862.82272,0.00139
3860.76255,0.00153
3858.70237,0.00135
3856.64220,0.00093
3854.58203,0.00101
3852.52186,0.00159
3850.46169,0.00167
3848.40151,0.00139
3846.34134,0.00099
3844.28117,0.00048
3842.22100,0.00014
3840.16083,0.00016
3838.10065,0.00053
3836.04048,0.00098
3833.98031,0.00113
3831.92014,0.00092
3829.85997,0.00060
3827.79979,0.00051
3825.73962,0.00082
3823.67945,0.00130
3821.61928,0.00167
3819.55910,0.00171
3817.49893,0.00148
3815.43876,0.00147
3813.37859,0.00164
3811.31842,0.00160
3809.25824,0.00127
3807.19807,0.00093
3805.13790,0.00084
3803.07773,0.00096
3801.01756,0.00123
3798.95738,0.00149
3796.89721,0.00152
3794.83704,0.00156
3792.77687,0.00171
3790.71670,0.00170
3788.65652,0.00148
3786.59635,0.00128
3784.53618,0.00132
3782.47601,0.00165
3780.41583,0.00195
3778.35566,0.00200
3776.29549,0.00190
3774.23532,0.00161
3772.17515,0.00122
3770.11497,0.00116
3768.05480,0.00125
3765.99463,0.00116
3763.93446,0.00119
3761.87429,0.00129
3759.81411,0.00124
3757.75394,0.00142
3755.69377,0.00189
3753.63360,0.00198
3751.57342,0.00153
3749.51325,0.00133
3747.45308,0.00177
3745.39291,0.00219
3743.33274,0.00183
3741.27256,0.00089
3739.21239,0.00031
3737.15222,0.00063
3735.09205,0.00148
3733.03188,0.00192
3730.97170,0.00187
3728.91153,0.00191
3726.85136,0.00218
3724.79119,0.00235
3722.73102,0.00233
3720.67084,0.00201
3718.61067,0.00130
3716.55050,0.00064
3714.49033,0.00035
3712.43015,0.00030
3710.36998,0.00051
3708.30981,0.00094
3706.24964,0.00122
3704.18947,0.00134
3702.12929,0.00158
3700.06912,0.00180
3698.00895,0.00168
3695.94878,0.00143
3693.88861,0.00134
3691.82843,0.00126
3689.76826,0.00121
3687.70809,0.00154
3685.64792,0.00197
3683.58775,0.00202
3681.52757,0.00170
3679.46740,0.00106
3677.40723,0.00061
3675.34706,0.00137
3673.28688,0.00265
3671.22671,0.00302
3669.16654,0.00282
3667.10637,0.00249
3665.04620,0.00203
3662.98602,0.00179
3660.92585,0.00199
3658.86568,0.00234
3656.80551,0.00275
3654.74534,0.00299
3652.68516,0.00276
3650.62499,0.00262
3648.56482,0.00283
3646.50465,0.00292
3644.44447,0.00328
3642.38430,0.00392
3640.32413,0.00416
3638.26396,0.00398
3636.20379,0.00391
3634.14361,0.00392
3632.08344,0.00384
3630.02327,0.00423
3627.96310,0.00524
3625.90293,0.00596
3623.84275,0.00586
3621.78258,0.00535
3619.72241,0.00535
3617.66224,0.00600
3615.60207,0.00624
3613.54189,0.00592
3611.48172,0.00600
3609.42155,0.00678
3607.36138,0.00773
3605.30120,0.00831
3603.24103,0.00822
3601.18086,0.00767
3599.12069,0.00752
3597.06052,0.00809
3595.00034,0.00885
3592.94017,0.00943
3590.88000,0.00977
3588.81983,0.00987
3586.75966,0.00985
3584.69948,0.00995
3582.63931,0.01027
3580.57914,0.01069
3578.51897,0.01117
3576.45879,0.01162
3574.39862,0.01178
3572.33845,0.01170
3570.27828,0.01163
3568.21811,0.01174
3566.15793,0.01227
3564.09776,0.01307
3562.03759,0.01358
3559.97742,0.01393
3557.91725,0.01453
3555.85707,0.01510
3553.79690,0.01537
3551.73673,0.01553
3549.67656,0.01563
3547.61639,0.01569
3545.55621,0.01599
3543.49604,0.01655
3541.43587,0.01717
3539.37570,0.01794
3537.31552,0.01871
3535.25535,0.01909
3533.19518,0.01926
3531.13501,0.01966
3529.07484,0.02022
3527.01466,0.02053
3524.95449,0.02055
3522.89432,0.02077
3520.83415,0.02160
3518.77398,0.02257
3516.71380,0.02310
3514.65363,0.02337
3512.59346,0.02367
3510.53329,0.02379
3508.47312,0.02369
3506.41294,0.02375
3504.35277,0.02405
3502.29260,0.02447
3500.23243,0.02494
3498.17225,0.02554
3496.11208,0.02631
3494.05191,0.02695
3491.99174,0.02721
3489.93157,0.02724
3487.87139,0.02735
3485.81122,0.02784
3483.75105,0.02851
3481.69088,0.02884
3479.63071,0.02904
3477.57053,0.02944
3475.51036,0.02978
3473.45019,0.03002
3471.39002,0.03034
3469.32984,0.03064
3467.26967,0.03082
3465.20950,0.03101
3463.14933,0.03124
3461.08916,0.03158
3459.02898,0.03235
3456.96881,0.03332
3454.90864,0.03386
3452.84847,0.03414
3450.78830,0.03452
3448.72812,0.03483
3446.66795,0.03504
3444.60778,0.03530
3442.54761,0.03566
3440.48744,0.03610
3438.42726,0.03651
3436.36709,0.03682
3434.30692,0.03701
3432.24675,0.03716
3430.18657,0.03746
3428.12640,0.03814
3426.06623,0.03909
3424.00606,0.03963
3421.94589,0.03938
3419.88571,0.03896
3417.82554,0.03908
3415.76537,0.03970
3413.70520,0.04042
3411.64503,0.04088
3409.58485,0.04092
3407.52468,0.04087
3405.46451,0.04105
3403.40434,0.04158
3401.34416,0.04230
3399.28399,0.04267
3397.22382,0.04268
3395.16365,0.04284
3393.10348,0.04327
3391.04330,0.04376
3388.98313,0.04403
3386.92296,0.04385
3384.86279,0.04362
3382.80262,0.04379
3380.74244,0.04432
3378.68227,0.04489
3376.62210,0.04511
3374.56193,0.04502
3372.50176,0.04515
3370.44158,0.04549
3368.38141,0.04577
3366.32124,0.04613
3364.26107,0.04662
3362.20089,0.04691
3360.14072,0.04677
3358.08055,0.04648
3356.02038,0.04647
3353.96021,0.04682
3351.90003,0.04736
3349.83986,0.04769
3347.77969,0.04779
3345.71952,0.04819
3343.65935,0.04873
3341.59917,0.04891
3339.53900,0.04888
3337.47883,0.04885
3335.41866,0.04858
3333.35849,0.04840
3331.29831,0.04878
3329.23814,0.04945
3327.17797,0.04987
3325.11780,0.04971
3323.05762,0.04941
3320.99745,0.04961
3318.93728,0.04996
3316.87711,0.04997
3314.81694,0.04989
3312.75676,0.04992
3310.69659,0.04997
3308.63642,0.05017
3306.57625,0.05044
3304.51608,0.05040
3302.45590,0.04999
3300.39573,0.04963
3298.33556,0.04956
3296.27539,0.04974
3294.21521,0.05018
3292.15504,0.05076
3290.09487,0.05113
3288.03470,0.05121
3285.97453,0.05110
3283.91435,0.05086
3281.85418,0.05064
3279.79401,0.05052
3277.73384,0.05046
3275.67367,0.05072
3273.61349,0.05130
3271.55332,0.05137
3269.49315,0.05094
3267.43298,0.05078
3265.37281,0.05078
3263.31263,0.05050
3261.25246,0.05014
3259.19229,0.05012
3257.13212,0.05040
3255.07194,0.05055
3253.01177,0.05050
3250.95160,0.05039
3248.89143,0.05034
3246.83126,0.05042
3244.77108,0.05040
3242.71091,0.04995
3240.65074,0.04936
3238.59057,0.04924
3236.53040,0.04940
3234.47022,0.04949
3232.41005,0.04952
3230.34988,0.04941
3228.28971,0.04897
3226.22954,0.04843
3224.16936,0.04824
3222.10919,0.04841
3220.04902,0.04853
3217.98885,0.04831
3215.92867,0.04799
3213.86850,0.04780
3211.80833,0.04775
3209.74816,0.04785
3207.68799,0.04775
3205.62781,0.04735
3203.56764,0.04716
3201.50747,0.04726
3199.44730,0.04721
3197.38713,0.04694
3195.32695,0.04684
3193.26678,0.04673
3191.20661,0.04644
3189.14644,0.04627
3187.08626,0.04621
3185.02609,0.04603
3182.96592,0.04592
3180.90575,0.04609
3178.84558,0.04620
3176.78540,0.04591
3174.72523,0.04545
3172.66506,0.04498
3170.60489,0.04460
3168.54472,0.04436
3166.48454,0.04431
3164.42437,0.04448
3162.36420,0.04456
3160.30403,0.04433
3158.24386,0.04382
3156.18368,0.04325
3154.12351,0.04294
3152.06334,0.04281
3150.00317,0.04251
3147.94299,0.04228
3145.88282,0.04227
3143.82265,0.04223
3141.76248,0.04224
3139.70231,0.04204
3137.64213,0.04130
3135.58196,0.04054
3133.52179,0.04028
3131.46162,0.04029
3129.40145,0.04018
3127.34127,0.03987
3125.28110,0.03969
3123.22093,0.03974
3121.16076,0.03965
3119.10058,0.03937
3117.04041,0.03916
3114.98024,0.03908
3112.92007,0.03894
3110.85990,0.03874
3108.79972,0.03851
3106.73955,0.03829
3104.67938,0.03805
3102.61921,0.03764
3100.55904,0.03732
3098.49886,0.03729
3096.43869,0.03733
3094.37852,0.03718
3092.31835,0.03691
3090.25818,0.03664
3088.19800,0.03657
3086.13783,0.03682
3084.07766,0.03696
3082.01749,0.03672
3079.95731,0.03631
3077.89714,0.03589
3075.83697,0.03550
3073.77680,0.03524
3071.71663,0.03510
3069.65645,0.03496
3067.59628,0.03476
3065.53611,0.03454
3063.47594,0.03425
3061.41577,0.03394
3059.35559,0.03387
3057.29542,0.03365
3055.23525,0.03301
3053.17508,0.03271
3051.11491,0.03287
3049.05473,0.03277
3046.99456,0.03235
3044.93439,0.03214
3042.87422,0.03229
3040.81404,0.03243
3038.75387,0.03216
3036.69370,0.03157
3034.63353,0.03109
3032.57336,0.03083
3030.51318,0.03066
3028.45301,0.03049
3026.39284,0.03032
3024.33267,0.03013
3022.27250,0.03004
3020.21232,0.03005
3018.15215,0.02997
3016.09198,0.02977
3014.03181,0.02956
3011.97163,0.02936
3009.91146,0.02899
3007.85129,0.02857
3005.79112,0.02839
3003.73095,0.02832
3001.67077,0.02823
2999.61060,0.02819
2997.55043,0.02821
2995.49026,0.02825
2993.43009,0.02822
2991.36991,0.02810
2989.30974,0.02783
2987.24957,0.02770
2985.18940,0.02800
2983.12923,0.02842
2981.06905,0.02873
2979.00888,0.02907
2976.94871,0.02960
2974.88854,0.03024
2972.82836,0.03051
2970.76819,0.03043
2968.70802,0.03078
2966.64785,0.03166
2964.58768,0.03254
2962.52750,0.03318
2960.46733,0.03371
2958.40716,0.03446
2956.34699,0.03553
2954.28682,0.03659
2952.22664,0.03741
2950.16647,0.03818
2948.10630,0.03902
2946.04613,0.04009
2943.98596,0.04155
2941.92578,0.04312
2939.86561,0.04459
2937.80544,0.04619
2935.74527,0.04808
2933.68509,0.05011
2931.62492,0.05211
2929.56475,0.05380
2927.50458,0.05520
2925.44441,0.05679
2923.38423,0.05850
2921.32406,0.06004
2919.26389,0.06153
2917.20372,0.06225
2915.14355,0.06098
2913.08337,0.05798
2911.02320,0.05466
2908.96303,0.05182
2906.90286,0.04975
2904.84268,0.04828
2902.78251,0.04697
2900.72234,0.04593
2898.66217,0.04513
2896.60200,0.04410
2894.54182,0.04316
2892.48165,0.04256
2890.42148,0.04175
2888.36131,0.04073
2886.30114,0.03990
2884.24096,0.03919
2882.18079,0.03859
2880.12062,0.03834
2878.06045,0.03836
2876.00028,0.03830
2873.94010,0.03824
2871.87993,0.03834
2869.81976,0.03849
2867.75959,0.03878
2865.69941,0.03938
2863.63924,0.04022
2861.57907,0.04143
2859.51890,0.04283
2857.45873,0.04411
2855.39855,0.04571
2853.33838,0.04784
2851.27821,0.04982
2849.21804,0.05034
2847.15787,0.04829
2845.09769,0.04457
2843.03752,0.04102
2840.97735,0.03829
2838.91718,0.03618
2836.85700,0.03457
2834.79683,0.03347
2832.73666,0.03273
2830.67649,0.03189
2828.61632,0.03102
2826.55614,0.03057
2824.49597,0.03039
2822.43580,0.02998
2820.37563,0.02940
2818.31546,0.02911
2816.25528,0.02908
2814.19511,0.02886
2812.13494,0.02834
2810.07477,0.02792
2808.01460,0.02776
2805.95442,0.02743
2803.89425,0.02693
2801.83408,0.02671
2799.77391,0.02680
2797.71373,0.02694
2795.65356,0.02684
2793.59339,0.02646
2791.53322,0.02596
2789.47305,0.02562
2787.41287,0.02561
2785.35270,0.02567
2783.29253,0.02560
2781.23236,0.02551
2779.17219,0.02537
2777.11201,0.02513
2775.05184,0.02492
2772.99167,0.02480
2770.93150,0.02468
2768.87133,0.02456
2766.81115,0.02450
2764.75098,0.02438
2762.69081,0.02410
2760.63064,0.02385
2758.57046,0.02378
2756.51029,0.02380
2754.45012,0.02382
2752.38995,0.02390
2750.32978,0.02398
2748.26960,0.02397
2746.20943,0.02380
2744.14926,0.02364
2742.08909,0.02365
2740.02892,0.02362
2737.96874,0.02344
2735.90857,0.02330
2733.84840,0.02326
2731.78823,0.02316
2729.72805,0.02291
2727.66788,0.02271
2725.60771,0.02282
2723.54754,0.02314
2721.48737,0.02328
2719.42719,0.02321
2717.36702,0.02311
2715.30685,0.02298
2713.24668,0.02289
2711.18651,0.02277
2709.12633,0.02251
2707.06616,0.02236
2705.00599,0.02249
2702.94582,0.02253
2700.88565,0.02232
2698.82547,0.02227
2696.76530,0.02233
2694.70513,0.02226
2692.64496,0.02212
2690.58478,0.02196
2688.52461,0.02185
2686.46444,0.02186
2684.40427,0.02191
2682.34410,0.02186
2680.28392,0.02166
2678.22375,0.02151
2676.16358,0.02159
2674.10341,0.02164
2672.04324,0.02152
2669.98306,0.02133
2667.92289,0.02117
2665.86272,0.02118
2663.80255,0.02132
2661.74238,0.02136
2659.68220,0.02113
2657.62203,0.02077
2655.56186,0.02058
2653.50169,0.02057
2651.44151,0.02074
2649.38134,0.02086
2647.32117,0.02068
2645.26100,0.02037
2643.20083,0.02004
2641.14065,0.01959
2639.08048,0.01933
2637.02031,0.01956
2634.96014,0.01977
2632.89997,0.01955
2630.83979,0.01927
2628.77962,0.01931
2626.71945,0.01947
2624.65928,0.01934
2622.59910,0.01914
2620.53893,0.01914
2618.47876,0.01897
2616.41859,0.01872
2614.35842,0.01871
2612.29824,0.01860
2610.23807,0.01837
2608.17790,0.01834
2606.11773,0.01823
2604.05756,0.01793
2601.99738,0.01788
2599.93721,0.01812
2597.87704,0.01811
2595.81687,0.01777
2593.75670,0.01761
2591.69652,0.01764
2589.63635,0.01752
2587.57618,0.01732
2585.51601,0.01715
2583.45583,0.01699
2581.39566,0.01692
2579.33549,0.01700
2577.27532,0.01729
2575.21515,0.01763
2573.15497,0.01745
2571.09480,0.01681
2569.03463,0.01651
2566.97446,0.01664
2564.91429,0.01667
2562.85411,0.01647
2560.79394,0.01624
2558.73377,0.01618
2556.67360,0.01633
2554.61342,0.01631
2552.55325,0.01606
2550.49308,0.01595
2548.43291,0.01611
2546.37274,0.01631
2544.31256,0.01625
2542.25239,0.01615
2540.19222,0.01619
2538.13205,0.01583
2536.07188,0.01521
2534.01170,0.01500
2531.95153,0.01517
2529.89136,0.01552
2527.83119,0.01583
2525.77102,0.01560
2523.71084,0.01528
2521.65067,0.01547
2519.59050,0.01573
2517.53033,0.01567
2515.47015,0.01542
2513.40998,0.01526
2511.34981,0.01532
2509.28964,0.01529
2507.22947,0.01507
2505.16929,0.01496
2503.10912,0.01487
2501.04895,0.01483
2498.98878,0.01491
2496.92861,0.01502
2494.86843,0.01505
2492.80826,0.01469
2490.74809,0.01395
2488.68792,0.01349
2486.62775,0.01374
2484.56757,0.01434
2482.50740,0.01473
2480.44723,0.01451
2478.38706,0.01399
2476.32688,0.01382
2474.26671,0.01398
2472.20654,0.01410
2470.14637,0.01419
2468.08620,0.01450
2466.02602,0.01467
2463.96585,0.01436
2461.90568,0.01395
2459.84551,0.01408
2457.78534,0.01437
2455.72516,0.01378
2453.66499,0.01280
2451.60482,0.01266
2449.54465,0.01318
2447.48447,0.01349
2445.42430,0.01351
2443.36413,0.01351
2441.30396,0.01349
2439.24379,0.01360
2437.18361,0.01365
2435.12344,0.01346
2433.06327,0.01328
2431.00310,0.01302
2428.94293,0.01269
2426.88275,0.01264
2424.82258,0.01287
2422.76241,0.01311
2420.70224,0.01320
2418.64207,0.01308
2416.58189,0.01285
2414.52172,0.01272
2412.46155,0.01276
2410.40138,0.01271
2408.34120,0.01247
2406.28103,0.01227
2404.22086,0.01226
2402.16069,0.01243
2400.10052,0.01247
2398.04034,0.01235
2395.98017,0.01226
2393.92000,0.01221
2391.85983,0.01217
2389.79966,0.01212
2387.73948,0.01212
2385.67931,0.01213
2383.61914,0.01201
2381.55897,0.01179
2379.49880,0.01182
2377.43862,0.01234
2375.37845,0.01268
2373.31828,0.01202
2371.25811,0.01114
2369.19793,0.01138
2367.13776,0.01249
2365.07759,0.01291
2363.01742,0.01108
2360.95725,0.00784
2358.89707,0.00705
2356.83690,0.01008
2354.77673,0.01295
2352.71656,0.01310
2350.65639,0.01237
2348.59621,0.01256
2346.53604,0.01308
2344.47587,0.01277
2342.41570,0.01185
2340.35552,0.01140
2338.29535,0.01183
2336.23518,0.01255
2334.17501,0.01228
2332.11484,0.01121
2330.05466,0.01109
2327.99449,0.01205
2325.93432,0.01266
2323.87415,0.01268
2321.81398,0.01258
2319.75380,0.01240
2317.69363,0.01227
2315.63346,0.01208
2313.57329,0.01171
2311.51312,0.01164
2309.45294,0.01198
2307.39277,0.01217
2305.33260,0.01206
2303.27243,0.01203
2301.21225,0.01214
2299.15208,0.01210
2297.09191,0.01182
2295.03174,0.01172
2292.97157,0.01193
2290.91139,0.01192
2288.85122,0.01151
2286.79105,0.01104
2284.73088,0.01068
2282.67071,0.01067
2280.61053,0.01099
2278.55036,0.01102
2276.49019,0.01056
2274.43002,0.01022
2272.36984,0.01036
2270.30967,0.01083
2268.24950,0.01120
2266.18933,0.01094
2264.12916,0.01011
2262.06898,0.00969
2260.00881,0.00988
2257.94864,0.00986
2255.88847,0.00964
2253.82830,0.00977
2251.76812,0.01011
2249.70795,0.01010
2247.64778,0.00956
2245.58761,0.00938
2243.52744,0.00970
2241.46726,0.00976
2239.40709,0.00942
2237.34692,0.00897
2235.28675,0.00859
2233.22657,0.00854
2231.16640,0.00908
2229.10623,0.00963
2227.04606,0.00966
2224.98589,0.00948
2222.92571,0.00931
2220.86554,0.00903
2218.80537,0.00900
2216.74520,0.00968
2214.68503,0.01011
2212.62485,0.00934
2210.56468,0.00885
2208.50451,0.00932
2206.44434,0.00909
2204.38417,0.00828
2202.32399,0.00814
2200.26382,0.00809
2198.20365,0.00760
2196.14348,0.00759
2194.08330,0.00807
2192.02313,0.00762
2189.96296,0.00660
2187.90279,0.00642
2185.84262,0.00690
2183.78244,0.00758
2181.72227,0.00779
2179.66210,0.00750
2177.60193,0.00739
2175.54176,0.00825
2173.48158,0.01010
2171.42141,0.01032
2169.36124,0.00847
2167.30107,0.00772
2165.24089,0.00886
2163.18072,0.00957
2161.12055,0.00861
2159.06038,0.00673
2157.00021,0.00550
2154.94003,0.00598
2152.87986,0.00703
2150.81969,0.00749
2148.75952,0.00692
2146.69935,0.00532
2144.63917,0.00441
2142.57900,0.00553
2140.51883,0.00712
2138.45866,0.00751
2136.39849,0.00743
2134.33831,0.00763
2132.27814,0.00808
2130.21797,0.00880
2128.15780,0.00922
2126.09762,0.00852
2124.03745,0.00766
2121.97728,0.00804
2119.91711,0.00928
2117.85694,0.01047
2115.79676,0.01059
2113.73659,0.00967
2111.67642,0.00905
2109.61625,0.00886
2107.55608,0.00837
2105.49590,0.00809
2103.43573,0.00838
2101.37556,0.00855
2099.31539,0.00891
2097.25521,0.00960
2095.19504,0.00967
2093.13487,0.00893
2091.07470,0.00840
2089.01453,0.00889
2086.95435,0.00954
2084.89418,0.00942
2082.83401,0.00905
2080.77384,0.00892
2078.71367,0.00910
2076.65349,0.00949
2074.59332,0.00951
2072.53315,0.00908
2070.47298,0.00847
2068.41281,0.00753
2066.35263,0.00673
2064.29246,0.00656
2062.23229,0.00686
2060.17212,0.00757
2058.11194,0.00839
2056.05177,0.00872
2053.99160,0.00878
2051.93143,0.00883
2049.87126,0.00816
2047.81108,0.00763
2045.75091,0.00890
2043.69074,0.01077
2041.63057,0.01078
2039.57040,0.00875
2037.51022,0.00655
2035.45005,0.00485
2033.38988,0.00370
2031.32971,0.00389
2029.26954,0.00412
2027.20936,0.00310
2025.14919,0.00245
2023.08902,0.00327
2021.02885,0.00466
2018.96867,0.00532
2016.90850,0.00489
2014.84833,0.00449
2012.78816,0.00518
2010.72799,0.00531
2008.66781,0.00391
2006.60764,0.00290
2004.54747,0.00328
2002.48730,0.00421
2000.42713,0.00500
1998.36695,0.00563
1996.30678,0.00601
1994.24661,0.00596
1992.18644,0.00619
1990.12626,0.00720
1988.06609,0.00796
1986.00592,0.00783
1983.94575,0.00710
1981.88558,0.00628
1979.82540,0.00572
1977.76523,0.00527
1975.70506,0.00468
1973.64489,0.00373
1971.58472,0.00292
1969.52454,0.00301
1967.46437,0.00417
1965.40420,0.00533
1963.34403,0.00476
1961.28386,0.00362
1959.22368,0.00436
1957.16351,0.00592
1955.10334,0.00599
1953.04317,0.00490
1950.98299,0.00413
1948.92282,0.00446
1946.86265,0.00543
1944.80248,0.00592
1942.74231,0.00564
1940.68213,0.00540
1938.62196,0.00544
1936.56179,0.00538
1934.50162,0.00552
1932.44145,0.00605
1930.38127,0.00622
1928.32110,0.00560
1926.26093,0.00495
1924.20076,0.00498
1922.14059,0.00519
1920.08041,0.00513
1918.02024,0.00510
1915.96007,0.00517
1913.89990,0.00516
1911.83972,0.00522
1909.77955,0.00527
1907.71938,0.00514
1905.65921,0.00529
1903.59904,0.00557
1901.53886,0.00514
1899.47869,0.00442
1897.41852,0.00441
1895.35835,0.00477
1893.29818,0.00479
1891.23800,0.00469
1889.17783,0.00466
1887.11766,0.00465
1885.05749,0.00471
1882.99731,0.00470
1880.93714,0.00452
1878.87697,0.00439
1876.81680,0.00455
1874.75663,0.00481
1872.69645,0.00463
1870.63628,0.00399
1868.57611,0.00374
1866.51594,0.00439
1864.45577,0.00503
1862.39559,0.00484
1860.33542,0.00419
1858.27525,0.00390
1856.21508,0.00413
1854.15491,0.00437
1852.09473,0.00421
1850.03456,0.00366
1847.97439,0.00311
1845.91422,0.00286
1843.85404,0.00287
1841.79387,0.00294
1839.73370,0.00300
1837.67353,0.00325
1835.61336,0.00377
1833.55318,0.00407
1831.49301,0.00378
1829.43284,0.00333
1827.37267,0.00324
1825.31250,0.00328
1823.25232,0.00324
1821.19215,0.00315
1819.13198,0.00310
1817.07181,0.00313
1815.01163,0.00314
1812.95146,0.00309
1810.89129,0.00302
1808.83112,0.00303
1806.77095,0.00321
1804.71077,0.00340
1802.65060,0.00334
1800.59043,0.00301
1798.53026,0.00274
1796.47009,0.00279
1794.40991,0.00291
1792.34974,0.00277
1790.28957,0.00265
1788.22940,0.00282
1786.16923,0.00303
1784.10905,0.00309
1782.04888,0.00301
1779.98871,0.00288
1777.92854,0.00276
1775.86836,0.00264
1773.80819,0.00262
1771.74802,0.00258
1769.68785,0.00269
1767.62768,0.00324
1765.56750,0.00404
1763.50733,0.00474
1761.44716,0.00528
1759.38699,0.00572
1757.32682,0.00614
1755.26664,0.00658
1753.20647,0.00697
1751.14630,0.00758
1749.08613,0.00903
1747.02596,0.01135
1744.96578,0.01395
1742.90561,0.01658
1740.84544,0.01939
1738.78527,0.02236
1736.72509,0.02521
1734.66492,0.02808
1732.60475,0.03064
1730.54458,0.03191
1728.48441,0.03222
1726.42423,0.03227
1724.36406,0.03218
1722.30389,0.03186
1720.24372,0.03135
1718.18355,0.03076
1716.12337,0.03047
1714.06320,0.03074
1712.00303,0.03114
1709.94286,0.03112
1707.88268,0.03060
1705.82251,0.02988
1703.76234,0.02911
1701.70217,0.02823
1699.64200,0.02746
1697.58182,0.02707
1695.52165,0.02684
1693.46148,0.02673
1691.40131,0.02672
1689.34114,0.02668
1687.28096,0.02630
1685.22079,0.02549
1683.16062,0.02509
1681.10045,0.02565
1679.04028,0.02635
1676.98010,0.02660
1674.91993,0.02662
1672.85976,0.02685
1670.79959,0.02733
1668.73941,0.02808
1666.67924,0.02903
1664.61907,0.02993
1662.55890,0.03094
1660.49873,0.03216
1658.43855,0.03323
1656.37838,0.03391
1654.31821,0.03451
1652.25804,0.03541
1650.19787,0.03612
1648.13769,0.03648
1646.07752,0.03676
1644.01735,0.03702
1641.95718,0.03723
1639.89701,0.03748
1637.83683,0.03790
1635.77666,0.03856
1633.71649,0.03929
1631.65632,0.03992
1629.59614,0.04052
1627.53597,0.04110
1625.47580,0.04146
1623.41563,0.04163
1621.35546,0.04188
1619.29528,0.04226
1617.23511,0.04288
1615.17494,0.04386
1613.11477,0.04474
1611.05460,0.04525
1608.99442,0.04554
1606.93425,0.04577
1604.87408,0.04587
1602.81391,0.04560
1600.75373,0.04490
1598.69356,0.04393
1596.63339,0.04273
1594.57322,0.04129
1592.51305,0.03976
1590.45287,0.03835
1588.39270,0.03706
1586.33253,0.03573
1584.27236,0.03430
1582.21219,0.03295
1580.15201,0.03167
1578.09184,0.03015
1576.03167,0.02855
1573.97150,0.02764
1571.91133,0.02708
1569.85115,0.02598
1567.79098,0.02467
1565.73081,0.02390
1563.67064,0.02339
1561.61046,0.02253
1559.55029,0.02143
1557.49012,0.02132
1555.42995,0.02214
1553.36978,0.02258
1551.30960,0.02247
1549.24943,0.02234
1547.18926,0.02231
1545.12909,0.02199
1543.06892,0.02137
1541.00874,0.02119
1538.94857,0.02171
1536.88840,0.02196
1534.82823,0.02157
1532.76805,0.02108
1530.70788,0.02087
1528.64771,0.02048
1526.58754,0.01963
1524.52737,0.01864
1522.46719,0.01769
1520.40702,0.01708
1518.34685,0.01722
1516.28668,0.01789
1514.22651,0.01835
1512.16633,0.01805
1510.10616,0.01703
1508.04599,0.01550
1505.98582,0.01403
1503.92565,0.01333
1501.86547,0.01292
1499.80530,0.01215
1497.74513,0.01099
1495.68496,0.00994
1493.62478,0.00919
1491.56461,0.00822
1489.50444,0.00698
1487.44427,0.00621
1485.38410,0.00612
1483.32392,0.00628
1481.26375,0.00658
1479.20358,0.00704
1477.14341,0.00769
1475.08324,0.00891
1473.02306,0.01121
1470.96289,0.01404
1468.90272,0.01629
1466.84255,0.01805
1464.78238,0.01980
1462.72220,0.02120
1460.66203,0.02181
1458.60186,0.02232
1456.54169,0.02375
1454.48151,0.02553
1452.42134,0.02689
1450.36117,0.02781
1448.30100,0.02850
1446.24083,0.02918
1444.18065,0.02976
1442.12048,0.02996
1440.06031,0.02969
1438.00014,0.02892
1435.93997,0.02781
1433.87979,0.02677
1431.81962,0.02579
1429.75945,0.02480
1427.69928,0.02399
1425.63910,0.02343
1423.57893,0.02315
1421.51876,0.02316
1419.45859,0.02329
1417.39842,0.02330
1415.33824,0.02320
1413.27807,0.02310
1411.21790,0.02295
1409.15773,0.02264
1407.09756,0.02221
1405.03738,0.02193
1402.97721,0.02190
1400.91704,0.02190
1398.85687,0.02185
1396.79670,0.02199
1394.73652,0.02240
1392.67635,0.02282
1390.61618,0.02314
1388.55601,0.02348
1386.49583,0.02402
1384.43566,0.02468
1382.37549,0.02527
1380.31532,0.02588
1378.25515,0.02655
1376.19497,0.02716
1374.13480,0.02780
1372.07463,0.02853
1370.01446,0.02911
1367.95429,0.02941
1365.89411,0.02949
1363.83394,0.02937
1361.77377,0.02918
1359.71360,0.02920
1357.65343,0.02949
1355.59325,0.02986
1353.53308,0.03016
1351.47291,0.03031
1349.41274,0.03038
1347.35256,0.03057
1345.29239,0.03090
1343.23222,0.03113
1341.17205,0.03122
1339.11188,0.03139
1337.05170,0.03172
1334.99153,0.03211
1332.93136,0.03256
1330.87119,0.03308
1328.81102,0.03361
1326.75084,0.03411
1324.69067,0.03460
1322.63050,0.03504
1320.57033,0.03525
1318.51015,0.03522
1316.44998,0.03507
1314.38981,0.03478
1312.32964,0.03427
1310.26947,0.03361
1308.20929,0.03289
1306.14912,0.03196
1304.08895,0.03063
1302.02878,0.02914
1299.96861,0.02769
1297.90843,0.02624
1295.84826,0.02489
1293.78809,0.02377
1291.72792,0.02281
1289.66775,0.02203
1287.60757,0.02144
1285.54740,0.02097
1283.48723,0.02064
1281.42706,0.02056
1279.36688,0.02066
1277.30671,0.02068
1275.24654,0.02065
1273.18637,0.02079
1271.12620,0.02112
1269.06602,0.02157
1267.00585,0.02214
1264.94568,0.02275
1262.88551,0.02327
1260.82534,0.02381
1258.76516,0.02434
1256.70499,0.02472
1254.64482,0.02521
1252.58465,0.02597
1250.52447,0.02671
1248.46430,0.02725
1246.40413,0.02772
1244.34396,0.02818
1242.28379,0.02864
1240.22361,0.02918
1238.16344,0.02981
1236.10327,0.03046
1234.04310,0.03100
1231.98293,0.03142
1229.92275,0.03190
1227.86258,0.03262
1225.80241,0.03331
1223.74224,0.03373
1221.68207,0.03421
1219.62189,0.03482
1217.56172,0.03531
1215.50155,0.03585
1213.44138,0.03658
1211.38120,0.03731
1209.32103,0.03779
1207.26086,0.03817
1205.20069,0.03876
1203.14052,0.03951
1201.08034,0.04035
1199.02017,0.04113
1196.96000,0.04150
1194.89983,0.04141
1192.83966,0.04112
1190.77948,0.04090
1188.71931,0.04060
1186.65914,0.03986
1184.59897,0.03881
1182.53880,0.03797
1180.47862,0.03759
1178.41845,0.03747
1176.35828,0.03736
1174.29811,0.03729
1172.23793,0.03732
1170.17776,0.03747
1168.11759,0.03770
1166.05742,0.03786
1163.99725,0.03779
1161.93707,0.03744
1159.87690,0.03697
1157.81673,0.03645
1155.75656,0.03582
1153.69639,0.03516
1151.63621,0.03463
1149.57604,0.03414
1147.51587,0.03357
1145.45570,0.03295
1143.39552,0.03222
1141.33535,0.03135
1139.27518,0.03065
1137.21501,0.03025
1135.15484,0.02994
1133.09466,0.02971
1131.03449,0.02979
1128.97432,0.03029
1126.91415,0.03114
1124.85398,0.03217
1122.79380,0.03319
1120.73363,0.03426
1118.67346,0.03556
1116.61329,0.03739
1114.55312,0.03979
1112.49294,0.04235
1110.43277,0.04482
1108.37260,0.04718
1106.31243,0.04944
1104.25225,0.05164
1102.19208,0.05350
1100.13191,0.05477
1098.07174,0.05575
1096.01157,0.05670
1093.95139,0.05778
1091.89122,0.05907
1089.83105,0.06050
1087.77088,0.06214
1085.71071,0.06392
1083.65053,0.06556
1081.59036,0.06709
1079.53019,0.06888
1077.47002,0.07084
1075.40985,0.07258
1073.34967,0.07404
1071.28950,0.07516
1069.22933,0.07617
1067.16916,0.07746
1065.10898,0.07888
1063.04881,0.07996
1060.98864,0.08077
1058.92847,0.08167
1056.86830,0.08279
1054.80812,0.08399
1052.74795,0.08525
1050.68778,0.08666
1048.62761,0.08808
1046.56744,0.08931
1044.50726,0.09061
1042.44709,0.09217
1040.38692,0.09386
1038.32675,0.09561
1036.26657,0.09748
1034.20640,0.09930
1032.14623,0.10074
1030.08606,0.10185
1028.02589,0.10290
1025.96571,0.10381
1023.90554,0.10437
1021.84537,0.10434
1019.78520,0.10403
1017.72503,0.10394
1015.66485,0.10381
1013.60468,0.10308
1011.54451,0.10186
1009.48434,0.10054
1007.42417,0.09881
1005.36399,0.09660
1003.30382,0.09442
1001.24365,0.09221
999.18348,0.08960
997.12330,0.08673
995.06313,0.08424
993.00296,0.08249
990.94279,0.08071
988.88262,0.07846
986.82244,0.07625
984.76227,0.07405
982.70210,0.07148
980.64193,0.06868
978.58176,0.06601
976.52158,0.06341
974.46141,0.06113
972.40124,0.05935
970.34107,0.05762
968.28089,0.05578
966.22072,0.05409
964.16055,0.05251
962.10038,0.05096
960.04021,0.04943
957.98003,0.04771
955.91986,0.04570
953.85969,0.04372
951.79952,0.04190
949.73935,0.04010
947.67917,0.03832
945.61900,0.03662
943.55883,0.03498
941.49866,0.03364
939.43849,0.03254
937.37831,0.03134
935.31814,0.03024
933.25797,0.02960
931.19780,0.02926
929.13762,0.02871
927.07745,0.02794
925.01728,0.02721
922.95711,0.02645
920.89694,0.02575
918.83676,0.02492
916.77659,0.02361
914.71642,0.02222
912.65625,0.02112
910.59608,0.02035
908.53590,0.01976
906.47573,0.01889
904.41556,0.01779
902.35539,0.01688
900.29522,0.01632
898.23504,0.01594
896.17487,0.01577
894.11470,0.01591
892.05453,0.01599
889.99435,0.01569
887.93418,0.01506
885.87401,0.01460
883.81384,0.01479
881.75367,0.01473
879.69349,0.01407
877.63332,0.01386
875.57315,0.01434
873.51298,0.01490
871.45281,0.01515
869.39263,0.01488
867.33246,0.01391
865.27229,0.01266
863.21212,0.01157
861.15194,0.01038
859.09177,0.00918
857.03160,0.00834
854.97143,0.00800
852.91126,0.00782
850.85108,0.00720
848.79091,0.00649
846.73074,0.00609
844.67057,0.00564
842.61040,0.00539
840.55022,0.00599
838.49005,0.00676
836.42988,0.00688
834.36971,0.00663
832.30954,0.00636
830.24936,0.00650
828.18919,0.00690
826.12902,0.00676
824.06885,0.00645
822.00867,0.00685
819.94850,0.00765
817.88833,0.00837
815.82816,0.00868
813.76799,0.00835
811.70781,0.00788
809.64764,0.00756
807.58747,0.00687
805.52730,0.00599
803.46713,0.00567
801.40695,0.00558
799.34678,0.00487
797.28661,0.00401
795.22644,0.00357
793.16627,0.00397
791.10609,0.00477
789.04592,0.00509
786.98575,0.00509
784.92558,0.00571
782.86540,0.00654
780.80523,0.00723
778.74506,0.00812
776.68489,0.00852
774.62472,0.00813
772.56454,0.00817
770.50437,0.00894
768.44420,0.00995
766.38403,0.01120
764.32386,0.01225
762.26368,0.01322
760.20351,0.01466
758.14334,0.01605
756.08317,0.01652
754.02299,0.01549
751.96282,0.01362
749.90265,0.01221
747.84248,0.01131
745.78231,0.01062
743.72213,0.00991
741.66196,0.00880
739.60179,0.00768
737.54162,0.00688
735.48145,0.00644
733.42127,0.00663
731.36110,0.00719
729.30093,0.00740
727.24076,0.00762
725.18059,0.00818
723.12041,0.00807
721.06024,0.00816
719.00007,0.00894
716.93990,0.00902
714.87972,0.00809
712.81955,0.00753
710.75938,0.00790
708.69921,0.00829
706.63904,0.00810
704.57886,0.00766
702.51869,0.00731
700.45852,0.00716
698.39835,0.00706
696.33818,0.00685
694.27800,0.00668
692.21783,0.00660
690.15766,0.00646
688.09749,0.00624
686.03731,0.00576
683.97714,0.00513
681.91697,0.00469
679.85680,0.00420
677.79663,0.00312
675.73645,0.00229
673.67628,0.00320
671.61611,0.00502
669.55594,0.00600
667.49577,0.00609
665.43559,0.00577
663.37542,0.00513
661.31525,0.00434
659.25508,0.00363
657.19491,0.00340
655.13473,0.00390
653.07456,0.00464
651.01439,0.00543
648.95422,0.00648
646.89404,0.00687
644.83387,0.00597
642.77370,0.00478
640.71353,0.00421
638.65336,0.00421
636.59318,0.00484
634.53301,0.00548
632.47284,0.00564
630.41267,0.00506
628.35250,0.00405
626.29232,0.00294
624.23215,0.00301
622.17198,0.00511
620.11181,0.00648
618.05164,0.00535
615.99146,0.00370
613.93129,0.00335
611.87112,0.00222
609.81095,0.00000
607.75077,-0.00024
605.69060,0.00130
603.63043,0.00090
601.57026,-0.00009
599.51009,0.00000
