3996.73391,0.00076
3994.67373,0.00093
3992.61356,0.00083
3990.55339,0.00060
3988.49322,0.00039
3986.43305,0.00019
3984.37287,0.00008
3982.31270,0.00016
3980.25253,0.00026
3978.19236,0.00021
3976.13219,0.00010
3974.07201,0.00000
3972.01184,0.00004
3969.95167,0.00039
3967.89150,0.00088
3965.83133,0.00103
3963.77115,0.00094
3961.71098,0.00097
3959.65081,0.00092
3957.59064,0.00055
3955.53046,0.00018
3953.47029,0.00008
3951.41012,0.00012
3949.34995,0.00018
3947.28978,0.00027
3945.22960,0.00024
3943.16943,0.00015
3941.10926,0.00032
3939.04909,0.00067
3936.98892,0.00085
3934.92874,0.00061
3932.86857,0.00011
3930.80840,0.00000
3928.74823,0.00052
3926.68805,0.00120
3924.62788,0.00142
3922.56771,0.00119
3920.50754,0.00102
3918.44737,0.00111
3916.38719,0.00126
3914.32702,0.00123
3912.26685,0.00106
3910.20668,0.00103
3908.14651,0.00113
3906.08633,0.00121
3904.02616,0.00120
3901.96599,0.00090
3899.90582,0.00039
3897.84565,0.00040
3895.78547,0.00086
3893.72530,0.00112
3891.66513,0.00100
3889.60496,0.00078
3887.54478,0.00061
3885.48461,0.00046
3883.42444,0.00052
3881.36427,0.00089
3879.30410,0.00123
3877.24392,0.00104
3875.18375,0.00054
3873.12358,0.00025
3871.06341,0.00031
3869.00324,0.00048
3866.94306,0.00044
3864.88289,0.00023
3862.82272,0.00027
3860.76255,0.00075
3858.70237,0.00142
3856.64220,0.00181
3854.58203,0.00162
3852.52186,0.00115
3850.46169,0.00103
3848.40151,0.00127
3846.34134,0.00149
3844.28117,0.00137
3842.22100,0.00093
3840.16083,0.00063
3838.10065,0.00071
3836.04048,0.00080
3833.98031,0.00076
3831.92014,0.00084
3829.85997,0.00104
3827.79979,0.00114
3825.73962,0.00103
3823.67945,0.00096
3821.61928,0.00119
3819.55910,0.00166
3817.49893,0.00190
3815.43876,0.00181
3813.37859,0.00165
3811.31842,0.00154
3809.25824,0.00147
3807.19807,0.00151
3805.13790,0.00154
3803.07773,0.00135
3801.01756,0.00127
3798.95738,0.00147
3796.89721,0.00154
3794.83704,0.00143
3792.77687,0.00127
3790.71670,0.00119
3788.65652,0.00129
3786.59635,0.00142
3784.53618,0.00140
3782.47601,0.00147
3780.41583,0.00184
3778.35566,0.00212
3776.29549,0.00188
3774.23532,0.00135
3772.17515,0.00101
3770.11497,0.00111
3768.05480,0.00142
3765.99463,0.00156
3763.93446,0.00169
3761.87429,0.00197
3759.81411,0.00213
3757.75394,0.00214
3755.69377,0.00195
3753.63360,0.00148
3751.57342,0.00098
3749.51325,0.00070
3747.45308,0.00028
3745.39291,0.00000
3743.33274,0.00057
3741.27256,0.00135
3739.21239,0.00135
3737.15222,0.00074
3735.09205,0.00061
3733.03188,0.00134
3730.97170,0.00185
3728.91153,0.00165
3726.85136,0.00117
3724.79119,0.00092
3722.73102,0.00106
3720.67084,0.00137
3718.61067,0.00159
3716.55050,0.00172
3714.49033,0.00171
3712.43015,0.00152
3710.36998,0.00154
3708.30981,0.00188
3706.24964,0.00215
3704.18947,0.00217
3702.12929,0.00195
3700.06912,0.00164
3698.00895,0.00146
3695.94878,0.00149
3693.88861,0.00170
3691.82843,0.00187
3689.76826,0.00203
3687.70809,0.00249
3685.64792,0.00290
3683.58775,0.00306
3681.52757,0.00323
3679.46740,0.00341
3677.40723,0.00322
3675.34706,0.00269
3673.28688,0.00240
3671.22671,0.00251
3669.16654,0.00283
3667.10637,0.00321
3665.04620,0.00359
3662.98602,0.00391
3660.92585,0.00399
3658.86568,0.00392
3656.80551,0.00399
3654.74534,0.00409
3652.68516,0.00401
3650.62499,0.00435
3648.56482,0.00543
3646.50465,0.00619
3644.44447,0.00639
3642.38430,0.00659
3640.32413,0.00679
3638.26396,0.00687
3636.20379,0.00705
3634.14361,0.00755
3632.08344,0.00799
3630.02327,0.00807
3627.96310,0.00816
3625.90293,0.00839
3623.84275,0.00860
3621.78258,0.00895
3619.72241,0.00944
3617.66224,0.00971
3615.60207,0.00974
3613.54189,0.01017
3611.48172,0.01131
3609.42155,0.01259
3607.36138,0.01311
3605.30120,0.01286
3603.24103,0.01261
3601.18086,0.01280
3599.12069,0.01340
3597.06052,0.01405
3595.00034,0.01445
3592.94017,0.01447
3590.88000,0.01425
3588.81983,0.01442
3586.75966,0.01537
3584.69948,0.01636
3582.63931,0.01684
3580.57914,0.01712
3578.51897,0.01739
3576.45879,0.01764
3574.39862,0.01790
3572.33845,0.01814
3570.27828,0.01845
3568.21811,0.01895
3566.15793,0.01960
3564.09776,0.02011
3562.03759,0.02038
3559.97742,0.02050
3557.91725,0.02067
3555.85707,0.02111
3553.79690,0.02165
3551.73673,0.02189
3549.67656,0.02180
3547.61639,0.02185
3545.55621,0.02231
3543.49604,0.02295
3541.43587,0.02349
3539.37570,0.02398
3537.31552,0.02436
3535.25535,0.02450
3533.19518,0.02459
3531.13501,0.02488
3529.07484,0.02545
3527.01466,0.02622
3524.95449,0.02694
3522.89432,0.02743
3520.83415,0.02774
3518.77398,0.02799
3516.71380,0.02823
3514.65363,0.02858
3512.59346,0.02915
3510.53329,0.02975
3508.47312,0.02995
3506.41294,0.02978
3504.35277,0.02973
3502.29260,0.03005
3500.23243,0.03041
3498.17225,0.03058
3496.11208,0.03073
3494.05191,0.03099
3491.99174,0.03139
3489.93157,0.03184
3487.87139,0.03207
3485.81122,0.03212
3483.75105,0.03232
3481.69088,0.03249
3479.63071,0.03244
3477.57053,0.03253
3475.51036,0.03289
3473.45019,0.03317
3471.39002,0.03349
3469.32984,0.03402
3467.26967,0.03427
3465.20950,0.03423
3463.14933,0.03451
3461.08916,0.03502
3459.02898,0.03544
3456.96881,0.03583
3454.90864,0.03617
3452.84847,0.03636
3450.78830,0.03639
3448.72812,0.03639
3446.66795,0.03679
3444.60778,0.03749
3442.54761,0.03787
3440.48744,0.03780
3438.42726,0.03770
3436.36709,0.03784
3434.30692,0.03802
3432.24675,0.03812
3430.18657,0.03817
3428.12640,0.03827
3426.06623,0.03862
3424.00606,0.03904
3421.94589,0.03911
3419.88571,0.03897
3417.82554,0.03912
3415.76537,0.03958
3413.70520,0.04005
3411.64503,0.04030
3409.58485,0.04032
3407.52468,0.04030
3405.46451,0.04042
3403.40434,0.04067
3401.34416,0.04093
3399.28399,0.04103
3397.22382,0.04095
3395.16365,0.04094
3393.10348,0.04124
3391.04330,0.04177
3388.98313,0.04198
3386.92296,0.04179
3384.86279,0.04177
3382.80262,0.04202
3380.74244,0.04210
3378.68227,0.04198
3376.62210,0.04181
3374.56193,0.04177
3372.50176,0.04192
3370.44158,0.04207
3368.38141,0.04232
3366.32124,0.04255
3364.26107,0.04247
3362.20089,0.04223
3360.14072,0.04209
3358.08055,0.04226
3356.02038,0.04268
3353.96021,0.04296
3351.90003,0.04281
3349.83986,0.04229
3347.77969,0.04200
3345.71952,0.04225
3343.65935,0.04244
3341.59917,0.04226
3339.53900,0.04216
3337.47883,0.04230
3335.41866,0.04243
3333.35849,0.04241
3331.29831,0.04238
3329.23814,0.04249
3327.17797,0.04272
3325.11780,0.04283
3323.05762,0.04279
3320.99745,0.04278
3318.93728,0.04279
3316.87711,0.04270
3314.81694,0.04256
3312.75676,0.04242
3310.69659,0.04230
3308.63642,0.04234
3306.57625,0.04251
3304.51608,0.04269
3302.45590,0.04279
3300.39573,0.04270
3298.33556,0.04257
3296.27539,0.04257
3294.21521,0.04261
3292.15504,0.04264
3290.09487,0.04265
3288.03470,0.04268
3285.97453,0.04280
3283.91435,0.04281
3281.85418,0.04264
3279.79401,0.04252
3277.73384,0.04266
3275.67367,0.04288
3273.61349,0.04291
3271.55332,0.04278
3269.49315,0.04262
3267.43298,0.04250
3265.37281,0.04253
3263.31263,0.04264
3261.25246,0.04252
3259.19229,0.04216
3257.13212,0.04186
3255.07194,0.04201
3253.01177,0.04250
3250.95160,0.04266
3248.89143,0.04248
3246.83126,0.04247
3244.77108,0.04272
3242.71091,0.04277
3240.65074,0.04257
3238.59057,0.04252
3236.53040,0.04239
3234.47022,0.04192
3232.41005,0.04156
3230.34988,0.04153
3228.28971,0.04161
3226.22954,0.04181
3224.16936,0.04199
3222.10919,0.04195
3220.04902,0.04186
3217.98885,0.04183
3215.92867,0.04159
3213.86850,0.04109
3211.80833,0.04074
3209.74816,0.04078
3207.68799,0.04092
3205.62781,0.04081
3203.56764,0.04057
3201.50747,0.04048
3199.44730,0.04044
3197.38713,0.04036
3195.32695,0.04056
3193.26678,0.04087
3191.20661,0.04074
3189.14644,0.04031
3187.08626,0.04004
3185.02609,0.03981
3182.96592,0.03943
3180.90575,0.03912
3178.84558,0.03905
3176.78540,0.03892
3174.72523,0.03862
3172.66506,0.03846
3170.60489,0.03849
3168.54472,0.03845
3166.48454,0.03837
3164.42437,0.03843
3162.36420,0.03844
3160.30403,0.03819
3158.24386,0.03776
3156.18368,0.03739
3154.12351,0.03722
3152.06334,0.03711
3150.00317,0.03701
3147.94299,0.03702
3145.88282,0.03693
3143.82265,0.03670
3141.76248,0.03658
3139.70231,0.03659
3137.64213,0.03649
3135.58196,0.03616
3133.52179,0.03591
3131.46162,0.03585
3129.40145,0.03574
3127.34127,0.03557
3125.28110,0.03546
3123.22093,0.03541
3121.16076,0.03535
3119.10058,0.03504
3117.04041,0.03451
3114.98024,0.03421
3112.92007,0.03426
3110.85990,0.03431
3108.79972,0.03408
3106.73955,0.03369
3104.67938,0.03352
3102.61921,0.03344
3100.55904,0.03325
3098.49886,0.03302
3096.43869,0.03276
3094.37852,0.03260
3092.31835,0.03261
3090.25818,0.03250
3088.19800,0.03226
3086.13783,0.03222
3084.07766,0.03237
3082.01749,0.03226
3079.95731,0.03190
3077.89714,0.03176
3075.83697,0.03177
3073.77680,0.03164
3071.71663,0.03147
3069.65645,0.03130
3067.59628,0.03095
3065.53611,0.03054
3063.47594,0.03024
3061.41577,0.02999
3059.35559,0.02992
3057.29542,0.02985
3055.23525,0.02948
3053.17508,0.02906
3051.11491,0.02887
3049.05473,0.02888
3046.99456,0.02884
3044.93439,0.02865
3042.87422,0.02851
3040.81404,0.02843
3038.75387,0.02820
3036.69370,0.02779
3034.63353,0.02737
3032.57336,0.02715
3030.51318,0.02718
3028.45301,0.02725
3026.39284,0.02708
3024.33267,0.02681
3022.27250,0.02672
3020.21232,0.02670
3018.15215,0.02664
3016.09198,0.02646
3014.03181,0.02615
3011.97163,0.02587
3009.91146,0.02562
3007.85129,0.02548
3005.79112,0.02546
3003.73095,0.02525
3001.67077,0.02483
2999.61060,0.02466
2997.55043,0.02476
2995.49026,0.02479
2993.43009,0.02462
2991.36991,0.02424
2989.30974,0.02396
2987.24957,0.02398
2985.18940,0.02401
2983.12923,0.02392
2981.06905,0.02394
2979.00888,0.02416
2976.94871,0.02421
2974.88854,0.02384
2972.82836,0.02334
2970.76819,0.02307
2968.70802,0.02302
2966.64785,0.02321
2964.58768,0.02359
2962.52750,0.02383
2960.46733,0.02390
2958.40716,0.02394
2956.34699,0.02391
2954.28682,0.02371
2952.22664,0.02347
2950.16647,0.02343
2948.10630,0.02353
2946.04613,0.02355
2943.98596,0.02355
2941.92578,0.02361
2939.86561,0.02360
2937.80544,0.02348
2935.74527,0.02336
2933.68509,0.02336
2931.62492,0.02343
2929.56475,0.02340
2927.50458,0.02323
2925.44441,0.02311
2923.38423,0.02298
2921.32406,0.02275
2919.26389,0.02255
2917.20372,0.02244
2915.14355,0.02247
2913.08337,0.02261
2911.02320,0.02251
2908.96303,0.02210
2906.90286,0.02176
2904.84268,0.02167
2902.78251,0.02161
2900.72234,0.02154
2898.66217,0.02148
2896.60200,0.02140
2894.54182,0.02134
2892.48165,0.02135
2890.42148,0.02126
2888.36131,0.02102
2886.30114,0.02096
2884.24096,0.02110
2882.18079,0.02113
2880.12062,0.02105
2878.06045,0.02095
2876.00028,0.02077
2873.94010,0.02051
2871.87993,0.02032
2869.81976,0.02022
2867.75959,0.02012
2865.69941,0.01996
2863.63924,0.01975
2861.57907,0.01959
2859.51890,0.01956
2857.45873,0.01955
2855.39855,0.01938
2853.33838,0.01916
2851.27821,0.01910
2849.21804,0.01911
2847.15787,0.01915
2845.09769,0.01914
2843.03752,0.01898
2840.97735,0.01869
2838.91718,0.01845
2836.85700,0.01829
2834.79683,0.01815
2832.73666,0.01807
2830.67649,0.01804
2828.61632,0.01798
2826.55614,0.01786
2824.49597,0.01776
2822.43580,0.01773
2820.37563,0.01776
2818.31546,0.01771
2816.25528,0.01748
2814.19511,0.01713
2812.13494,0.01682
2810.07477,0.01655
2808.01460,0.01635
2805.95442,0.01639
2803.89425,0.01647
2801.83408,0.01642
2799.77391,0.01641
2797.71373,0.01646
2795.65356,0.01647
2793.59339,0.01639
2791.53322,0.01614
2789.47305,0.01580
2787.41287,0.01565
2785.35270,0.01575
2783.29253,0.01579
2781.23236,0.01566
2779.17219,0.01569
2777.11201,0.01594
2775.05184,0.01602
2772.99167,0.01584
2770.93150,0.01560
2768.87133,0.01534
2766.81115,0.01516
2764.75098,0.01520
2762.69081,0.01523
2760.63064,0.01505
2758.57046,0.01489
2756.51029,0.01489
2754.45012,0.01487
2752.38995,0.01481
2750.32978,0.01486
2748.26960,0.01491
2746.20943,0.01487
2744.14926,0.01479
2742.08909,0.01471
2740.02892,0.01462
2737.96874,0.01455
2735.90857,0.01445
2733.84840,0.01429
2731.78823,0.01423
2729.72805,0.01430
2727.66788,0.01423
2725.60771,0.01403
2723.54754,0.01394
2721.48737,0.01395
2719.42719,0.01390
2717.36702,0.01379
2715.30685,0.01360
2713.24668,0.01338
2711.18651,0.01331
2709.12633,0.01326
2707.06616,0.01317
2705.00599,0.01313
2702.94582,0.01305
2700.88565,0.01293
2698.82547,0.01292
2696.76530,0.01288
2694.70513,0.01272
2692.64496,0.01258
2690.58478,0.01258
2688.52461,0.01264
2686.46444,0.01254
2684.40427,0.01237
2682.34410,0.01240
2680.28392,0.01251
2678.22375,0.01238
2676.16358,0.01210
2674.10341,0.01184
2672.04324,0.01178
2669.98306,0.01187
2667.92289,0.01187
2665.86272,0.01188
2663.80255,0.01196
2661.74238,0.01200
2659.68220,0.01199
2657.62203,0.01184
2655.56186,0.01156
2653.50169,0.01145
2651.44151,0.01138
2649.38134,0.01118
2647.32117,0.01108
2645.26100,0.01107
2643.20083,0.01097
2641.14065,0.01082
2639.08048,0.01074
2637.02031,0.01080
2634.96014,0.01098
2632.89997,0.01103
2630.83979,0.01098
2628.77962,0.01089
2626.71945,0.01060
2624.65928,0.01021
2622.59910,0.01002
2620.53893,0.00995
2618.47876,0.00981
2616.41859,0.00978
2614.35842,0.00984
2612.29824,0.00976
2610.23807,0.00967
2608.17790,0.00966
2606.11773,0.00963
2604.05756,0.00949
2601.99738,0.00937
2599.93721,0.00948
2597.87704,0.00958
2595.81687,0.00936
2593.75670,0.00909
2591.69652,0.00900
2589.63635,0.00894
2587.57618,0.00883
2585.51601,0.00873
2583.45583,0.00857
2581.39566,0.00835
2579.33549,0.00809
2577.27532,0.00781
2575.21515,0.00783
2573.15497,0.00816
2571.09480,0.00835
2569.03463,0.00837
2566.97446,0.00861
2564.91429,0.00905
2562.85411,0.00921
2560.79394,0.00889
2558.73377,0.00846
2556.67360,0.00831
2554.61342,0.00843
2552.55325,0.00862
2550.49308,0.00880
2548.43291,0.00887
2546.37274,0.00883
2544.31256,0.00876
2542.25239,0.00850
2540.19222,0.00823
2538.13205,0.00828
2536.07188,0.00862
2534.01170,0.00899
2531.95153,0.00914
2529.89136,0.00893
2527.83119,0.00857
2525.77102,0.00849
2523.71084,0.00853
2521.65067,0.00846
2519.59050,0.00847
2517.53033,0.00858
2515.47015,0.00867
2513.40998,0.00872
2511.34981,0.00883
2509.28964,0.00882
2507.22947,0.00841
2505.16929,0.00806
2503.10912,0.00803
2501.04895,0.00801
2498.98878,0.00798
2496.92861,0.00808
2494.86843,0.00818
2492.80826,0.00831
2490.74809,0.00861
2488.68792,0.00882
2486.62775,0.00867
2484.56757,0.00855
2482.50740,0.00871
2480.44723,0.00891
2478.38706,0.00890
2476.32688,0.00864
2474.26671,0.00841
2472.20654,0.00847
2470.14637,0.00869
2468.08620,0.00878
2466.02602,0.00870
2463.96585,0.00880
2461.90568,0.00913
2459.84551,0.00929
2457.78534,0.00918
2455.72516,0.00895
2453.66499,0.00859
2451.60482,0.00841
2449.54465,0.00863
2447.48447,0.00891
2445.42430,0.00900
2443.36413,0.00905
2441.30396,0.00912
2439.24379,0.00893
2437.18361,0.00866
2435.12344,0.00875
2433.06327,0.00884
2431.00310,0.00852
2428.94293,0.00838
2426.88275,0.00873
2424.82258,0.00896
2422.76241,0.00889
2420.70224,0.00895
2418.64207,0.00915
2416.58189,0.00919
2414.52172,0.00907
2412.46155,0.00907
2410.40138,0.00913
2408.34120,0.00895
2406.28103,0.00863
2404.22086,0.00857
2402.16069,0.00874
2400.10052,0.00875
2398.04034,0.00880
2395.98017,0.00903
2393.92000,0.00918
2391.85983,0.00898
2389.79966,0.00857
2387.73948,0.00820
2385.67931,0.00799
2383.61914,0.00807
2381.55897,0.00824
2379.49880,0.00811
2377.43862,0.00790
2375.37845,0.00804
2373.31828,0.00822
2371.25811,0.00794
2369.19793,0.00768
2367.13776,0.00785
2365.07759,0.00761
2363.01742,0.00711
2360.95725,0.00747
2358.89707,0.00745
2356.83690,0.00666
2354.77673,0.00656
2352.71656,0.00697
2350.65639,0.00739
2348.59621,0.00755
2346.53604,0.00700
2344.47587,0.00586
2342.41570,0.00494
2340.35552,0.00490
2338.29535,0.00621
2336.23518,0.00810
2334.17501,0.00901
2332.11484,0.00889
2330.05466,0.00876
2327.99449,0.00920
2325.93432,0.00998
2323.87415,0.01017
2321.81398,0.00935
2319.75380,0.00819
2317.69363,0.00743
2315.63346,0.00744
2313.57329,0.00813
2311.51312,0.00872
2309.45294,0.00878
2307.39277,0.00866
2305.33260,0.00869
2303.27243,0.00886
2301.21225,0.00896
2299.15208,0.00897
2297.09191,0.00902
2295.03174,0.00897
2292.97157,0.00866
2290.91139,0.00826
2288.85122,0.00810
2286.79105,0.00838
2284.73088,0.00884
2282.67071,0.00896
2280.61053,0.00857
2278.55036,0.00799
2276.49019,0.00763
2274.43002,0.00749
2272.36984,0.00729
2270.30967,0.00706
2268.24950,0.00718
2266.18933,0.00753
2264.12916,0.00755
2262.06898,0.00718
2260.00881,0.00684
2257.94864,0.00691
2255.88847,0.00709
2253.82830,0.00703
2251.76812,0.00676
2249.70795,0.00651
2247.64778,0.00641
2245.58761,0.00642
2243.52744,0.00656
2241.46726,0.00649
2239.40709,0.00629
2237.34692,0.00662
2235.28675,0.00672
2233.22657,0.00619
2231.16640,0.00647
2229.10623,0.00754
2227.04606,0.00819
2224.98589,0.00832
2222.92571,0.00814
2220.86554,0.00762
2218.80537,0.00677
2216.74520,0.00575
2214.68503,0.00510
2212.62485,0.00495
2210.56468,0.00489
2208.50451,0.00482
2206.44434,0.00524
2204.38417,0.00630
2202.32399,0.00711
2200.26382,0.00676
2198.20365,0.00615
2196.14348,0.00601
2194.08330,0.00554
2192.02313,0.00502
2189.96296,0.00493
2187.90279,0.00480
2185.84262,0.00470
2183.78244,0.00482
2181.72227,0.00538
2179.66210,0.00609
2177.60193,0.00597
2175.54176,0.00472
2173.48158,0.00340
2171.42141,0.00341
2169.36124,0.00430
2167.30107,0.00524
2165.24089,0.00638
2163.18072,0.00656
2161.12055,0.00504
2159.06038,0.00318
2157.00021,0.00174
2154.94003,0.00131
2152.87986,0.00202
2150.81969,0.00207
2148.75952,0.00109
2146.69935,0.00088
2144.63917,0.00217
2142.57900,0.00382
2140.51883,0.00444
2138.45866,0.00390
2136.39849,0.00297
2134.33831,0.00260
2132.27814,0.00305
2130.21797,0.00350
2128.15780,0.00356
2126.09762,0.00373
2124.03745,0.00440
2121.97728,0.00486
2119.91711,0.00458
2117.85694,0.00446
2115.79676,0.00503
2113.73659,0.00539
2111.67642,0.00534
2109.61625,0.00549
2107.55608,0.00572
2105.49590,0.00552
2103.43573,0.00506
2101.37556,0.00510
2099.31539,0.00521
2097.25521,0.00463
2095.19504,0.00401
2093.13487,0.00410
2091.07470,0.00457
2089.01453,0.00491
2086.95435,0.00486
2084.89418,0.00442
2082.83401,0.00406
2080.77384,0.00404
2078.71367,0.00407
2076.65349,0.00428
2074.59332,0.00474
2072.53315,0.00496
2070.47298,0.00493
2068.41281,0.00528
2066.35263,0.00634
2064.29246,0.00710
2062.23229,0.00642
2060.17212,0.00526
2058.11194,0.00478
2056.05177,0.00469
2053.99160,0.00512
2051.93143,0.00594
2049.87126,0.00567
2047.81108,0.00413
2045.75091,0.00263
2043.69074,0.00182
2041.63057,0.00190
2039.57040,0.00332
2037.51022,0.00552
2035.45005,0.00643
2033.38988,0.00542
2031.32971,0.00451
2029.26954,0.00450
2027.20936,0.00446
2025.14919,0.00391
2023.08902,0.00253
2021.02885,0.00078
2018.96867,0.00003
2016.90850,0.00042
2014.84833,0.00120
2012.78816,0.00182
2010.72799,0.00186
2008.66781,0.00125
2006.60764,0.00082
2004.54747,0.00126
2002.48730,0.00182
2000.42713,0.00189
1998.36695,0.00230
1996.30678,0.00309
1994.24661,0.00326
1992.18644,0.00320
1990.12626,0.00330
1988.06609,0.00314
1986.00592,0.00345
1983.94575,0.00443
1981.88558,0.00489
1979.82540,0.00380
1977.76523,0.00167
1975.70506,0.00044
1973.64489,0.00062
1971.58472,0.00100
1969.52454,0.00074
1967.46437,0.00089
1965.40420,0.00213
1963.34403,0.00286
1961.28386,0.00236
1959.22368,0.00194
1957.16351,0.00231
1955.10334,0.00226
1953.04317,0.00129
1950.98299,0.00085
1948.92282,0.00156
1946.86265,0.00244
1944.80248,0.00279
1942.74231,0.00258
1940.68213,0.00231
1938.62196,0.00241
1936.56179,0.00257
1934.50162,0.00255
1932.44145,0.00261
1930.38127,0.00279
1928.32110,0.00282
1926.26093,0.00272
1924.20076,0.00272
1922.14059,0.00271
1920.08041,0.00252
1918.02024,0.00226
1915.96007,0.00214
1913.89990,0.00244
1911.83972,0.00290
1909.77955,0.00316
1907.71938,0.00323
1905.65921,0.00300
1903.59904,0.00260
1901.53886,0.00236
1899.47869,0.00225
1897.41852,0.00230
1895.35835,0.00242
1893.29818,0.00246
1891.23800,0.00262
1889.17783,0.00300
1887.11766,0.00321
1885.05749,0.00305
1882.99731,0.00290
1880.93714,0.00299
1878.87697,0.00319
1876.81680,0.00318
1874.75663,0.00292
1872.69645,0.00261
1870.63628,0.00250
1868.57611,0.00271
1866.51594,0.00299
1864.45577,0.00318
1862.39559,0.00329
1860.33542,0.00318
1858.27525,0.00294
1856.21508,0.00293
1854.15491,0.00303
1852.09473,0.00301
1850.03456,0.00291
1847.97439,0.00293
1845.91422,0.00314
1843.85404,0.00326
1841.79387,0.00318
1839.73370,0.00318
1837.67353,0.00333
1835.61336,0.00339
1833.55318,0.00314
1831.49301,0.00276
1829.43284,0.00269
1827.37267,0.00299
1825.31250,0.00324
1823.25232,0.00329
1821.19215,0.00320
1819.13198,0.00305
1817.07181,0.00314
1815.01163,0.00350
1812.95146,0.00375
1810.89129,0.00373
1808.83112,0.00360
1806.77095,0.00348
1804.71077,0.00347
1802.65060,0.00360
1800.59043,0.00369
1798.53026,0.00360
1796.47009,0.00343
1794.40991,0.00332
1792.34974,0.00332
1790.28957,0.00337
1788.22940,0.00339
1786.16923,0.00351
1784.10905,0.00371
1782.04888,0.00382
1779.98871,0.00386
1777.92854,0.00383
1775.86836,0.00367
1773.80819,0.00354
1771.74802,0.00365
1769.68785,0.00388
1767.62768,0.00401
1765.56750,0.00407
1763.50733,0.00419
1761.44716,0.00434
1759.38699,0.00441
1757.32682,0.00444
1755.26664,0.00456
1753.20647,0.00465
1751.14630,0.00473
1749.08613,0.00483
1747.02596,0.00491
1744.96578,0.00503
1742.90561,0.00534
1740.84544,0.00583
1738.78527,0.00621
1736.72509,0.00627
1734.66492,0.00623
1732.60475,0.00641
1730.54458,0.00665
1728.48441,0.00679
1726.42423,0.00682
1724.36406,0.00685
1722.30389,0.00681
1720.24372,0.00668
1718.18355,0.00676
1716.12337,0.00733
1714.06320,0.00795
1712.00303,0.00821
1709.94286,0.00825
1707.88268,0.00837
1705.82251,0.00873
1703.76234,0.00912
1701.70217,0.00943
1699.64200,0.00983
1697.58182,0.01016
1695.52165,0.01035
1693.46148,0.01048
1691.40131,0.01057
1689.34114,0.01079
1687.28096,0.01111
1685.22079,0.01163
1683.16062,0.01248
1681.10045,0.01305
1679.04028,0.01315
1676.98010,0.01325
1674.91993,0.01371
1672.85976,0.01428
1670.79959,0.01473
1668.73941,0.01526
1666.67924,0.01567
1664.61907,0.01587
1662.55890,0.01619
1660.49873,0.01661
1658.43855,0.01679
1656.37838,0.01663
1654.31821,0.01658
1652.25804,0.01712
1650.19787,0.01736
1648.13769,0.01725
1646.07752,0.01749
1644.01735,0.01779
1641.95718,0.01777
1639.89701,0.01758
1637.83683,0.01738
1635.77666,0.01742
1633.71649,0.01756
1631.65632,0.01746
1629.59614,0.01725
1627.53597,0.01706
1625.47580,0.01692
1623.41563,0.01684
1621.35546,0.01672
1619.29528,0.01656
1617.23511,0.01652
1615.17494,0.01649
1613.11477,0.01621
1611.05460,0.01591
1608.99442,0.01586
1606.93425,0.01594
1604.87408,0.01588
1602.81391,0.01554
1600.75373,0.01502
1598.69356,0.01456
1596.63339,0.01422
1594.57322,0.01387
1592.51305,0.01347
1590.45287,0.01301
1588.39270,0.01242
1586.33253,0.01182
1584.27236,0.01145
1582.21219,0.01126
1580.15201,0.01095
1578.09184,0.01055
1576.03167,0.01024
1573.97150,0.00985
1571.91133,0.00932
1569.85115,0.00905
1567.79098,0.00897
1565.73081,0.00862
1563.67064,0.00804
1561.61046,0.00753
1559.55029,0.00740
1557.49012,0.00770
1555.42995,0.00777
1553.36978,0.00751
1551.30960,0.00710
1549.24943,0.00672
1547.18926,0.00645
1545.12909,0.00614
1543.06892,0.00586
1541.00874,0.00598
1538.94857,0.00634
1536.88840,0.00617
1534.82823,0.00566
1532.76805,0.00531
1530.70788,0.00502
1528.64771,0.00458
1526.58754,0.00416
1524.52737,0.00392
1522.46719,0.00386
1520.40702,0.00394
1518.34685,0.00409
1516.28668,0.00422
1514.22651,0.00423
1512.16633,0.00407
1510.10616,0.00386
1508.04599,0.00381
1505.98582,0.00395
1503.92565,0.00391
1501.86547,0.00365
1499.80530,0.00345
1497.74513,0.00349
1495.68496,0.00365
1493.62478,0.00355
1491.56461,0.00324
1489.50444,0.00315
1487.44427,0.00345
1485.38410,0.00380
1483.32392,0.00391
1481.26375,0.00384
1479.20358,0.00371
1477.14341,0.00360
1475.08324,0.00363
1473.02306,0.00404
1470.96289,0.00473
1468.90272,0.00512
1466.84255,0.00520
1464.78238,0.00523
1462.72220,0.00525
1460.66203,0.00517
1458.60186,0.00517
1456.54169,0.00542
1454.48151,0.00559
1452.42134,0.00550
1450.36117,0.00541
1448.30100,0.00546
1446.24083,0.00547
1444.18065,0.00539
1442.12048,0.00533
1440.06031,0.00532
1438.00014,0.00539
1435.93997,0.00563
1433.87979,0.00592
1431.81962,0.00603
1429.75945,0.00597
1427.69928,0.00586
1425.63910,0.00585
1423.57893,0.00595
1421.51876,0.00614
1419.45859,0.00648
1417.39842,0.00691
1415.33824,0.00707
1413.27807,0.00698
1411.21790,0.00688
1409.15773,0.00685
1407.09756,0.00678
1405.03738,0.00666
1402.97721,0.00648
1400.91704,0.00621
1398.85687,0.00601
1396.79670,0.00596
1394.73652,0.00596
1392.67635,0.00588
1390.61618,0.00575
1388.55601,0.00570
1386.49583,0.00576
1384.43566,0.00579
1382.37549,0.00578
1380.31532,0.00583
1378.25515,0.00587
1376.19497,0.00586
1374.13480,0.00584
1372.07463,0.00578
1370.01446,0.00565
1367.95429,0.00553
1365.89411,0.00547
1363.83394,0.00546
1361.77377,0.00541
1359.71360,0.00517
1357.65343,0.00482
1355.59325,0.00457
1353.53308,0.00439
1351.47291,0.00421
1349.41274,0.00409
1347.35256,0.00408
1345.29239,0.00409
1343.23222,0.00408
1341.17205,0.00407
1339.11188,0.00403
1337.05170,0.00386
1334.99153,0.00370
1332.93136,0.00369
1330.87119,0.00379
1328.81102,0.00383
1326.75084,0.00373
1324.69067,0.00361
1322.63050,0.00352
1320.57033,0.00341
1318.51015,0.00337
1316.44998,0.00351
1314.38981,0.00372
1312.32964,0.00377
1310.26947,0.00360
1308.20929,0.00339
1306.14912,0.00337
1304.08895,0.00354
1302.02878,0.00370
1299.96861,0.00371
1297.90843,0.00363
1295.84826,0.00360
1293.78809,0.00366
1291.72792,0.00374
1289.66775,0.00383
1287.60757,0.00386
1285.54740,0.00383
1283.48723,0.00384
1281.42706,0.00389
1279.36688,0.00385
1277.30671,0.00381
1275.24654,0.00389
1273.18637,0.00400
1271.12620,0.00403
1269.06602,0.00406
1267.00585,0.00410
1264.94568,0.00418
1262.88551,0.00430
1260.82534,0.00435
1258.76516,0.00432
1256.70499,0.00426
1254.64482,0.00422
1252.58465,0.00430
1250.52447,0.00442
1248.46430,0.00445
1246.40413,0.00441
1244.34396,0.00426
1242.28379,0.00399
1240.22361,0.00371
1238.16344,0.00352
1236.10327,0.00354
1234.04310,0.00355
1231.98293,0.00334
1229.92275,0.00320
1227.86258,0.00324
1225.80241,0.00312
1223.74224,0.00278
1221.68207,0.00248
1219.62189,0.00232
1217.56172,0.00216
1215.50155,0.00196
1213.44138,0.00179
1211.38120,0.00166
1209.32103,0.00153
1207.26086,0.00144
1205.20069,0.00146
1203.14052,0.00154
1201.08034,0.00157
1199.02017,0.00152
1196.96000,0.00146
1194.89983,0.00146
1192.83966,0.00151
1190.77948,0.00161
1188.71931,0.00178
1186.65914,0.00218
1184.59897,0.00281
1182.53880,0.00328
1180.47862,0.00359
1178.41845,0.00404
1176.35828,0.00453
1174.29811,0.00502
1172.23793,0.00562
1170.17776,0.00628
1168.11759,0.00698
1166.05742,0.00775
1163.99725,0.00857
1161.93707,0.00927
1159.87690,0.00971
1157.81673,0.01005
1155.75656,0.01055
1153.69639,0.01114
1151.63621,0.01174
1149.57604,0.01242
1147.51587,0.01311
1145.45570,0.01366
1143.39552,0.01395
1141.33535,0.01416
1139.27518,0.01463
1137.21501,0.01538
1135.15484,0.01620
1133.09466,0.01698
1131.03449,0.01775
1128.97432,0.01863
1126.91415,0.01949
1124.85398,0.02021
1122.79380,0.02087
1120.73363,0.02156
1118.67346,0.02225
1116.61329,0.02301
1114.55312,0.02397
1112.49294,0.02503
1110.43277,0.02608
1108.37260,0.02716
1106.31243,0.02818
1104.25225,0.02896
1102.19208,0.02983
1100.13191,0.03083
1098.07174,0.03171
1096.01157,0.03266
1093.95139,0.03366
1091.89122,0.03451
1089.83105,0.03526
1087.77088,0.03597
1085.71071,0.03670
1083.65053,0.03745
1081.59036,0.03810
1079.53019,0.03871
1077.47002,0.03940
1075.40985,0.04000
1073.34967,0.04038
1071.28950,0.04046
1069.22933,0.04030
1067.16916,0.04036
1065.10898,0.04066
1063.04881,0.04082
1060.98864,0.04073
1058.92847,0.04040
1056.86830,0.03995
1054.80812,0.03958
1052.74795,0.03922
1050.68778,0.03880
1048.62761,0.03834
1046.56744,0.03764
1044.50726,0.03689
1042.44709,0.03631
1040.38692,0.03566
1038.32675,0.03481
1036.26657,0.03405
1034.20640,0.03349
1032.14623,0.03288
1030.08606,0.03201
1028.02589,0.03101
1025.96571,0.03010
1023.90554,0.02923
1021.84537,0.02841
1019.78520,0.02779
1017.72503,0.02729
1015.66485,0.02652
1013.60468,0.02552
1011.54451,0.02467
1009.48434,0.02397
1007.42417,0.02346
1005.36399,0.02331
1003.30382,0.02334
1001.24365,0.02324
999.18348,0.02329
997.12330,0.02371
995.06313,0.02424
993.00296,0.02457
990.94279,0.02468
988.88262,0.02489
986.82244,0.02512
984.76227,0.02500
982.70210,0.02461
980.64193,0.02426
978.58176,0.02392
976.52158,0.02334
974.46141,0.02236
972.40124,0.02122
970.34107,0.01997
968.28089,0.01862
966.22072,0.01752
964.16055,0.01667
962.10038,0.01582
960.04021,0.01493
957.98003,0.01411
955.91986,0.01340
953.85969,0.01267
951.79952,0.01191
949.73935,0.01139
947.67917,0.01122
945.61900,0.01110
943.55883,0.01086
941.49866,0.01058
939.43849,0.01031
937.37831,0.01010
935.31814,0.00989
933.25797,0.00979
931.19780,0.00987
929.13762,0.00974
927.07745,0.00933
925.01728,0.00901
922.95711,0.00881
920.89694,0.00843
918.83676,0.00784
916.77659,0.00733
914.71642,0.00694
912.65625,0.00660
910.59608,0.00633
908.53590,0.00630
906.47573,0.00637
904.41556,0.00616
902.35539,0.00591
900.29522,0.00601
898.23504,0.00621
896.17487,0.00624
894.11470,0.00627
892.05453,0.00652
889.99435,0.00703
887.93418,0.00724
885.87401,0.00706
883.81384,0.00719
881.75367,0.00767
879.69349,0.00822
877.63332,0.00879
875.57315,0.00916
873.51298,0.00933
871.45281,0.00936
869.39263,0.00923
867.33246,0.00921
865.27229,0.00917
863.21212,0.00896
861.15194,0.00894
859.09177,0.00908
857.03160,0.00909
854.97143,0.00896
852.91126,0.00855
850.85108,0.00805
848.79091,0.00794
846.73074,0.00824
844.67057,0.00849
842.61040,0.00821
840.55022,0.00745
838.49005,0.00657
836.42988,0.00604
834.36971,0.00601
832.30954,0.00606
830.24936,0.00595
828.18919,0.00569
826.12902,0.00519
824.06885,0.00475
822.00867,0.00475
819.94850,0.00488
817.88833,0.00493
815.82816,0.00493
813.76799,0.00474
811.70781,0.00437
809.64764,0.00408
807.58747,0.00418
805.52730,0.00423
803.46713,0.00377
801.40695,0.00341
799.34678,0.00356
797.28661,0.00400
795.22644,0.00404
793.16627,0.00357
791.10609,0.00320
789.04592,0.00319
786.98575,0.00332
784.92558,0.00334
782.86540,0.00327
780.80523,0.00304
778.74506,0.00279
776.68489,0.00286
774.62472,0.00321
772.56454,0.00361
770.50437,0.00378
768.44420,0.00367
766.38403,0.00315
764.32386,0.00251
762.26368,0.00249
760.20351,0.00307
758.14334,0.00330
756.08317,0.00271
754.02299,0.00211
751.96282,0.00191
749.90265,0.00184
747.84248,0.00194
745.78231,0.00212
743.72213,0.00215
741.66196,0.00207
739.60179,0.00198
737.54162,0.00193
735.48145,0.00219
733.42127,0.00263
731.36110,0.00315
729.30093,0.00376
727.24076,0.00357
725.18059,0.00267
723.12041,0.00223
721.06024,0.00251
719.00007,0.00309
716.93990,0.00330
714.87972,0.00300
712.81955,0.00279
710.75938,0.00294
708.69921,0.00287
706.63904,0.00246
704.57886,0.00226
702.51869,0.00236
700.45852,0.00264
698.39835,0.00301
696.33818,0.00297
694.27800,0.00250
692.21783,0.00205
690.15766,0.00180
688.09749,0.00209
686.03731,0.00315
683.97714,0.00423
681.91697,0.00439
679.85680,0.00396
677.79663,0.00382
675.73645,0.00354
673.67628,0.00248
671.61611,0.00109
669.55594,0.00005
667.49577,0.00000
665.43559,0.00071
663.37542,0.00170
661.31525,0.00305
659.25508,0.00377
657.19491,0.00317
655.13473,0.00232
653.07456,0.00206
651.01439,0.00212
648.95422,0.00228
646.89404,0.00224
644.83387,0.00198
642.77370,0.00276
640.71353,0.00479
638.65336,0.00584
636.59318,0.00497
634.53301,0.00356
632.47284,0.00245
630.41267,0.00203
628.35250,0.00261
626.29232,0.00344
624.23215,0.00310
622.17198,0.00146
620.11181,0.00002
618.05164,0.00034
615.99146,0.00161
613.93129,0.00221
611.87112,0.00297
609.81095,0.00315
607.75077,0.00208
605.69060,0.00128
603.63043,0.00084
601.57026,0.00066
599.51009,0.00000
