3996.73391,0.00092
3994.67373,0.00053
3992.61356,0.00038
3990.55339,0.00042
3988.49322,0.00026
3986.43305,0.00000
3984.37287,0.00013
3982.31270,0.00066
3980.25253,0.00088
3978.19236,0.00065
3976.13219,0.00046
3974.07201,0.00035
3972.01184,0.00039
3969.95167,0.00061
3967.89150,0.00064
3965.83133,0.00049
3963.77115,0.00052
3961.71098,0.00058
3959.65081,0.00058
3957.59064,0.00073
3955.53046,0.00085
3953.47029,0.00089
3951.41012,0.00119
3949.34995,0.00164
3947.28978,0.00168
3945.22960,0.00165
3943.16943,0.00176
3941.10926,0.00130
3939.04909,0.00072
3936.98892,0.00056
3934.92874,0.00086
3932.86857,0.00137
3930.80840,0.00144
3928.74823,0.00141
3926.68805,0.00185
3924.62788,0.00179
3922.56771,0.00100
3920.50754,0.00104
3918.44737,0.00161
3916.38719,0.00135
3914.32702,0.00071
3912.26685,0.00071
3910.20668,0.00093
3908.14651,0.00123
3906.08633,0.00212
3904.02616,0.00275
3901.96599,0.00248
3899.90582,0.00215
3897.84565,0.00140
3895.78547,0.00085
3893.72530,0.00165
3891.66513,0.00248
3889.60496,0.00188
3887.54478,0.00193
3885.48461,0.00239
3883.42444,0.00198
3881.36427,0.00233
3879.30410,0.00203
3877.24392,0.00137
3875.18375,0.00188
3873.12358,0.00218
3871.06341,0.00242
3869.00324,0.00158
3866.94306,0.00049
3864.88289,0.00112
3862.82272,0.00123
3860.76255,0.00045
3858.70237,0.00021
3856.64220,0.00181
3854.58203,0.00449
3852.52186,0.00357
3850.46169,0.00052
3848.40151,0.00002
3846.34134,0.00117
3844.28117,0.00199
3842.22100,0.00197
3840.16083,0.00215
3838.10065,0.00202
3836.04048,0.00092
3833.98031,0.00067
3831.92014,0.00123
3829.85997,0.00126
3827.79979,0.00119
3825.73962,0.00102
3823.67945,0.00181
3821.61928,0.00324
3819.55910,0.00220
3817.49893,0.00153
3815.43876,0.00144
3813.37859,0.00043
3811.31842,0.00058
3809.25824,0.00201
3807.19807,0.00276
3805.13790,0.00190
3803.07773,0.00229
3801.01756,0.00248
3798.95738,0.00122
3796.89721,0.00103
3794.83704,0.00083
3792.77687,0.00086
3790.71670,0.00141
3788.65652,0.00171
3786.59635,0.00198
3784.53618,0.00192
3782.47601,0.00156
3780.41583,0.00190
3778.35566,0.00201
3776.29549,0.00162
3774.23532,0.00169
3772.17515,0.00229
3770.11497,0.00259
3768.05480,0.00208
3765.99463,0.00198
3763.93446,0.00173
3761.87429,0.00165
3759.81411,0.00195
3757.75394,0.00145
3755.69377,0.00117
3753.63360,0.00275
3751.57342,0.00437
3749.51325,0.00276
3747.45308,0.00113
3745.39291,0.00257
3743.33274,0.00265
3741.27256,0.00133
3739.21239,0.00175
3737.15222,0.00298
3735.09205,0.00286
3733.03188,0.00126
3730.97170,0.00004
3728.91153,0.00022
3726.85136,0.00145
3724.79119,0.00220
3722.73102,0.00234
3720.67084,0.00210
3718.61067,0.00163
3716.55050,0.00153
3714.49033,0.00246
3712.43015,0.00339
3710.36998,0.00246
3708.30981,0.00099
3706.24964,0.00083
3704.18947,0.00181
3702.12929,0.00265
3700.06912,0.00225
3698.00895,0.00184
3695.94878,0.00195
3693.88861,0.00203
3691.82843,0.00267
3689.76826,0.00318
3687.70809,0.00194
3685.64792,0.00072
3683.58775,0.00123
3681.52757,0.00224
3679.46740,0.00308
3677.40723,0.00432
3675.34706,0.00389
3673.28688,0.00088
3671.22671,0.00069
3669.16654,0.00167
3667.10637,0.00142
3665.04620,0.00188
3662.98602,0.00266
3660.92585,0.00291
3658.86568,0.00321
3656.80551,0.00340
3654.74534,0.00247
3652.68516,0.00284
3650.62499,0.00490
3648.56482,0.00476
3646.50465,0.00298
3644.44447,0.00281
3642.38430,0.00429
3640.32413,0.00543
3638.26396,0.00578
3636.20379,0.00595
3634.14361,0.00600
3632.08344,0.00617
3630.02327,0.00731
3627.96310,0.00710
3625.90293,0.00547
3623.84275,0.00544
3621.78258,0.00682
3619.72241,0.00785
3617.66224,0.00740
3615.60207,0.00727
3613.54189,0.00815
3611.48172,0.00856
3609.42155,0.00891
3607.36138,0.00896
3605.30120,0.00841
3603.24103,0.00842
3601.18086,0.00886
3599.12069,0.00905
3597.06052,0.00935
3595.00034,0.00987
3592.94017,0.01009
3590.88000,0.01059
3588.81983,0.01164
3586.75966,0.01163
3584.69948,0.01087
3582.63931,0.01125
3580.57914,0.01213
3578.51897,0.01252
3576.45879,0.01258
3574.39862,0.01245
3572.33845,0.01243
3570.27828,0.01333
3568.21811,0.01474
3566.15793,0.01467
3564.09776,0.01350
3562.03759,0.01333
3559.97742,0.01407
3557.91725,0.01483
3555.85707,0.01556
3553.79690,0.01623
3551.73673,0.01611
3549.67656,0.01559
3547.61639,0.01583
3545.55621,0.01623
3543.49604,0.01609
3541.43587,0.01611
3539.37570,0.01659
3537.31552,0.01715
3535.25535,0.01742
3533.19518,0.01759
3531.13501,0.01793
3529.07484,0.01830
3527.01466,0.01863
3524.95449,0.01911
3522.89432,0.01950
3520.83415,0.01942
3518.77398,0.01918
3516.71380,0.01909
3514.65363,0.01950
3512.59346,0.02046
3510.53329,0.02137
3508.47312,0.02139
3506.41294,0.02092
3504.35277,0.02094
3502.29260,0.02121
3500.23243,0.02158
3498.17225,0.02223
3496.11208,0.02262
3494.05191,0.02252
3491.99174,0.02241
3489.93157,0.02260
3487.87139,0.02289
3485.81122,0.02306
3483.75105,0.02344
3481.69088,0.02390
3479.63071,0.02396
3477.57053,0.02424
3475.51036,0.02492
3473.45019,0.02514
3471.39002,0.02500
3469.32984,0.02515
3467.26967,0.02551
3465.20950,0.02568
3463.14933,0.02570
3461.08916,0.02565
3459.02898,0.02556
3456.96881,0.02560
3454.90864,0.02585
3452.84847,0.02628
3450.78830,0.02668
3448.72812,0.02702
3446.66795,0.02701
3444.60778,0.02673
3442.54761,0.02694
3440.48744,0.02733
3438.42726,0.02758
3436.36709,0.02765
3434.30692,0.02757
3432.24675,0.02750
3430.18657,0.02753
3428.12640,0.02772
3426.06623,0.02800
3424.00606,0.02835
3421.94589,0.02876
3419.88571,0.02888
3417.82554,0.02892
3415.76537,0.02917
3413.70520,0.02938
3411.64503,0.02961
3409.58485,0.02991
3407.52468,0.03018
3405.46451,0.03020
3403.40434,0.02996
3401.34416,0.02985
3399.28399,0.03001
3397.22382,0.03016
3395.16365,0.03039
3393.10348,0.03081
3391.04330,0.03095
3388.98313,0.03096
3386.92296,0.03116
3384.86279,0.03135
3382.80262,0.03142
3380.74244,0.03148
3378.68227,0.03146
3376.62210,0.03141
3374.56193,0.03142
3372.50176,0.03144
3370.44158,0.03145
3368.38141,0.03156
3366.32124,0.03165
3364.26107,0.03165
3362.20089,0.03165
3360.14072,0.03167
3358.08055,0.03187
3356.02038,0.03212
3353.96021,0.03216
3351.90003,0.03218
3349.83986,0.03228
3347.77969,0.03223
3345.71952,0.03199
3343.65935,0.03183
3341.59917,0.03187
3339.53900,0.03212
3337.47883,0.03237
3335.41866,0.03227
3333.35849,0.03208
3331.29831,0.03230
3329.23814,0.03265
3327.17797,0.03275
3325.11780,0.03265
3323.05762,0.03246
3320.99745,0.03242
3318.93728,0.03264
3316.87711,0.03277
3314.81694,0.03263
3312.75676,0.03254
3310.69659,0.03265
3308.63642,0.03280
3306.57625,0.03300
3304.51608,0.03320
3302.45590,0.03327
3300.39573,0.03344
3298.33556,0.03354
3296.27539,0.03319
3294.21521,0.03277
3292.15504,0.03290
3290.09487,0.03336
3288.03470,0.03357
3285.97453,0.03345
3283.91435,0.03326
3281.85418,0.03314
3279.79401,0.03301
3277.73384,0.03294
3275.67367,0.03292
3273.61349,0.03286
3271.55332,0.03294
3269.49315,0.03313
3267.43298,0.03315
3265.37281,0.03308
3263.31263,0.03305
3261.25246,0.03304
3259.19229,0.03312
3257.13212,0.03337
3255.07194,0.03356
3253.01177,0.03358
3250.95160,0.03369
3248.89143,0.03383
3246.83126,0.03372
3244.77108,0.03353
3242.71091,0.03345
3240.65074,0.03344
3238.59057,0.03352
3236.53040,0.03367
3234.47022,0.03353
3232.41005,0.03316
3230.34988,0.03305
3228.28971,0.03316
3226.22954,0.03319
3224.16936,0.03319
3222.10919,0.03318
3220.04902,0.03315
3217.98885,0.03310
3215.92867,0.03308
3213.86850,0.03299
3211.80833,0.03269
3209.74816,0.03239
3207.68799,0.03244
3205.62781,0.03281
3203.56764,0.03300
3201.50747,0.03281
3199.44730,0.03264
3197.38713,0.03258
3195.32695,0.03251
3193.26678,0.03244
3191.20661,0.03224
3189.14644,0.03203
3187.08626,0.03212
3185.02609,0.03213
3182.96592,0.03176
3180.90575,0.03137
3178.84558,0.03113
3176.78540,0.03098
3174.72523,0.03090
3172.66506,0.03086
3170.60489,0.03101
3168.54472,0.03127
3166.48454,0.03117
3164.42437,0.03076
3162.36420,0.03050
3160.30403,0.03050
3158.24386,0.03056
3156.18368,0.03061
3154.12351,0.03069
3152.06334,0.03064
3150.00317,0.03053
3147.94299,0.03065
3145.88282,0.03081
3143.82265,0.03068
3141.76248,0.03031
3139.70231,0.02993
3137.64213,0.02960
3135.58196,0.02936
3133.52179,0.02935
3131.46162,0.02947
3129.40145,0.02954
3127.34127,0.02946
3125.28110,0.02923
3123.22093,0.02903
3121.16076,0.02887
3119.10058,0.02868
3117.04041,0.02854
3114.98024,0.02856
3112.92007,0.02861
3110.85990,0.02838
3108.79972,0.02803
3106.73955,0.02797
3104.67938,0.02804
3102.61921,0.02793
3100.55904,0.02761
3098.49886,0.02741
3096.43869,0.02742
3094.37852,0.02731
3092.31835,0.02717
3090.25818,0.02709
3088.19800,0.02687
3086.13783,0.02663
3084.07766,0.02653
3082.01749,0.02654
3079.95731,0.02662
3077.89714,0.02660
3075.83697,0.02643
3073.77680,0.02609
3071.71663,0.02564
3069.65645,0.02539
3067.59628,0.02546
3065.53611,0.02559
3063.47594,0.02562
3061.41577,0.02551
3059.35559,0.02523
3057.29542,0.02493
3055.23525,0.02471
3053.17508,0.02467
3051.11491,0.02461
3049.05473,0.02423
3046.99456,0.02376
3044.93439,0.02355
3042.87422,0.02354
3040.81404,0.02347
3038.75387,0.02333
3036.69370,0.02322
3034.63353,0.02308
3032.57336,0.02300
3030.51318,0.02305
3028.45301,0.02294
3026.39284,0.02262
3024.33267,0.02234
3022.27250,0.02211
3020.21232,0.02177
3018.15215,0.02144
3016.09198,0.02152
3014.03181,0.02182
3011.97163,0.02175
3009.91146,0.02143
3007.85129,0.02131
3005.79112,0.02136
3003.73095,0.02134
3001.67077,0.02119
2999.61060,0.02102
2997.55043,0.02085
2995.49026,0.02066
2993.43009,0.02070
2991.36991,0.02088
2989.30974,0.02080
2987.24957,0.02040
2985.18940,0.01993
2983.12923,0.01974
2981.06905,0.01978
2979.00888,0.01964
2976.94871,0.01945
2974.88854,0.01951
2972.82836,0.01963
2970.76819,0.01963
2968.70802,0.01956
2966.64785,0.01943
2964.58768,0.01932
2962.52750,0.01934
2960.46733,0.01944
2958.40716,0.01942
2956.34699,0.01924
2954.28682,0.01916
2952.22664,0.01927
2950.16647,0.01933
2948.10630,0.01932
2946.04613,0.01935
2943.98596,0.01945
2941.92578,0.01965
2939.86561,0.01983
2937.80544,0.01984
2935.74527,0.01959
2933.68509,0.01913
2931.62492,0.01891
2929.56475,0.01902
2927.50458,0.01902
2925.44441,0.01889
2923.38423,0.01886
2921.32406,0.01882
2919.26389,0.01867
2917.20372,0.01842
2915.14355,0.01814
2913.08337,0.01797
2911.02320,0.01792
2908.96303,0.01777
2906.90286,0.01760
2904.84268,0.01763
2902.78251,0.01775
2900.72234,0.01769
2898.66217,0.01742
2896.60200,0.01734
2894.54182,0.01750
2892.48165,0.01751
2890.42148,0.01741
2888.36131,0.01737
2886.30114,0.01726
2884.24096,0.01719
2882.18079,0.01716
2880.12062,0.01689
2878.06045,0.01662
2876.00028,0.01662
2873.94010,0.01663
2871.87993,0.01661
2869.81976,0.01664
2867.75959,0.01661
2865.69941,0.01650
2863.63924,0.01648
2861.57907,0.01655
2859.51890,0.01659
2857.45873,0.01652
2855.39855,0.01643
2853.33838,0.01633
2851.27821,0.01624
2849.21804,0.01616
2847.15787,0.01596
2845.09769,0.01547
2843.03752,0.01507
2840.97735,0.01510
2838.91718,0.01529
2836.85700,0.01533
2834.79683,0.01534
2832.73666,0.01535
2830.67649,0.01528
2828.61632,0.01511
2826.55614,0.01482
2824.49597,0.01448
2822.43580,0.01433
2820.37563,0.01439
2818.31546,0.01437
2816.25528,0.01424
2814.19511,0.01416
2812.13494,0.01409
2810.07477,0.01388
2808.01460,0.01374
2805.95442,0.01376
2803.89425,0.01376
2801.83408,0.01373
2799.77391,0.01369
2797.71373,0.01369
2795.65356,0.01366
2793.59339,0.01349
2791.53322,0.01331
2789.47305,0.01316
2787.41287,0.01301
2785.35270,0.01299
2783.29253,0.01311
2781.23236,0.01308
2779.17219,0.01287
2777.11201,0.01278
2775.05184,0.01287
2772.99167,0.01290
2770.93150,0.01288
2768.87133,0.01287
2766.81115,0.01265
2764.75098,0.01243
2762.69081,0.01243
2760.63064,0.01249
2758.57046,0.01242
2756.51029,0.01221
2754.45012,0.01197
2752.38995,0.01186
2750.32978,0.01191
2748.26960,0.01201
2746.20943,0.01215
2744.14926,0.01219
2742.08909,0.01202
2740.02892,0.01178
2737.96874,0.01163
2735.90857,0.01157
2733.84840,0.01152
2731.78823,0.01145
2729.72805,0.01138
2727.66788,0.01132
2725.60771,0.01128
2723.54754,0.01117
2721.48737,0.01104
2719.42719,0.01086
2717.36702,0.01068
2715.30685,0.01068
2713.24668,0.01073
2711.18651,0.01066
2709.12633,0.01057
2707.06616,0.01045
2705.00599,0.01033
2702.94582,0.01039
2700.88565,0.01052
2698.82547,0.01043
2696.76530,0.01014
2694.70513,0.00983
2692.64496,0.00980
2690.58478,0.00998
2688.52461,0.00995
2686.46444,0.00967
2684.40427,0.00935
2682.34410,0.00921
2680.28392,0.00923
2678.22375,0.00931
2676.16358,0.00937
2674.10341,0.00929
2672.04324,0.00913
2669.98306,0.00905
2667.92289,0.00925
2665.86272,0.00954
2663.80255,0.00957
2661.74238,0.00938
2659.68220,0.00921
2657.62203,0.00916
2655.56186,0.00910
2653.50169,0.00888
2651.44151,0.00874
2649.38134,0.00887
2647.32117,0.00902
2645.26100,0.00888
2643.20083,0.00856
2641.14065,0.00830
2639.08048,0.00811
2637.02031,0.00816
2634.96014,0.00839
2632.89997,0.00847
2630.83979,0.00831
2628.77962,0.00804
2626.71945,0.00771
2624.65928,0.00748
2622.59910,0.00763
2620.53893,0.00798
2618.47876,0.00804
2616.41859,0.00775
2614.35842,0.00739
2612.29824,0.00710
2610.23807,0.00704
2608.17790,0.00707
2606.11773,0.00697
2604.05756,0.00698
2601.99738,0.00722
2599.93721,0.00745
2597.87704,0.00736
2595.81687,0.00699
2593.75670,0.00675
2591.69652,0.00678
2589.63635,0.00687
2587.57618,0.00690
2585.51601,0.00683
2583.45583,0.00679
2581.39566,0.00673
2579.33549,0.00665
2577.27532,0.00668
2575.21515,0.00675
2573.15497,0.00675
2571.09480,0.00669
2569.03463,0.00660
2566.97446,0.00648
2564.91429,0.00647
2562.85411,0.00670
2560.79394,0.00690
2558.73377,0.00697
2556.67360,0.00701
2554.61342,0.00691
2552.55325,0.00676
2550.49308,0.00674
2548.43291,0.00671
2546.37274,0.00671
2544.31256,0.00691
2542.25239,0.00707
2540.19222,0.00688
2538.13205,0.00662
2536.07188,0.00659
2534.01170,0.00652
2531.95153,0.00633
2529.89136,0.00631
2527.83119,0.00654
2525.77102,0.00677
2523.71084,0.00685
2521.65067,0.00670
2519.59050,0.00658
2517.53033,0.00664
2515.47015,0.00652
2513.40998,0.00639
2511.34981,0.00656
2509.28964,0.00683
2507.22947,0.00697
2505.16929,0.00685
2503.10912,0.00659
2501.04895,0.00666
2498.98878,0.00700
2496.92861,0.00717
2494.86843,0.00700
2492.80826,0.00658
2490.74809,0.00632
2488.68792,0.00629
2486.62775,0.00629
2484.56757,0.00645
2482.50740,0.00678
2480.44723,0.00710
2478.38706,0.00724
2476.32688,0.00715
2474.26671,0.00705
2472.20654,0.00694
2470.14637,0.00675
2468.08620,0.00653
2466.02602,0.00636
2463.96585,0.00644
2461.90568,0.00695
2459.84551,0.00735
2457.78534,0.00728
2455.72516,0.00714
2453.66499,0.00692
2451.60482,0.00655
2449.54465,0.00651
2447.48447,0.00678
2445.42430,0.00680
2443.36413,0.00666
2441.30396,0.00670
2439.24379,0.00690
2437.18361,0.00723
2435.12344,0.00751
2433.06327,0.00748
2431.00310,0.00717
2428.94293,0.00704
2426.88275,0.00739
2424.82258,0.00787
2422.76241,0.00789
2420.70224,0.00741
2418.64207,0.00702
2416.58189,0.00698
2414.52172,0.00707
2412.46155,0.00716
2410.40138,0.00731
2408.34120,0.00759
2406.28103,0.00772
2404.22086,0.00755
2402.16069,0.00708
2400.10052,0.00658
2398.04034,0.00628
2395.98017,0.00637
2393.92000,0.00666
2391.85983,0.00700
2389.79966,0.00721
2387.73948,0.00734
2385.67931,0.00757
2383.61914,0.00796
2381.55897,0.00840
2379.49880,0.00857
2377.43862,0.00823
2375.37845,0.00737
2373.31828,0.00655
2371.25811,0.00600
2369.19793,0.00593
2367.13776,0.00660
2365.07759,0.00778
2363.01742,0.00867
2360.95725,0.00944
2358.89707,0.00762
2356.83690,0.00576
2354.77673,0.00532
2352.71656,0.00558
2350.65639,0.00737
2348.59621,0.00880
2346.53604,0.00689
2344.47587,0.00699
2342.41570,0.00789
2340.35552,0.00817
2338.29535,0.00753
2336.23518,0.00649
2334.17501,0.00642
2332.11484,0.00674
2330.05466,0.00715
2327.99449,0.00751
2325.93432,0.00837
2323.87415,0.00809
2321.81398,0.00736
2319.75380,0.00664
2317.69363,0.00694
2315.63346,0.00703
2313.57329,0.00709
2311.51312,0.00761
2309.45294,0.00785
2307.39277,0.00747
2305.33260,0.00711
2303.27243,0.00720
2301.21225,0.00729
2299.15208,0.00733
2297.09191,0.00734
2295.03174,0.00714
2292.97157,0.00672
2290.91139,0.00642
2288.85122,0.00649
2286.79105,0.00669
2284.73088,0.00693
2282.67071,0.00723
2280.61053,0.00727
2278.55036,0.00679
2276.49019,0.00613
2274.43002,0.00591
2272.36984,0.00604
2270.30967,0.00595
2268.24950,0.00527
2266.18933,0.00470
2264.12916,0.00514
2262.06898,0.00612
2260.00881,0.00650
2257.94864,0.00605
2255.88847,0.00552
2253.82830,0.00564
2251.76812,0.00603
2249.70795,0.00594
2247.64778,0.00559
2245.58761,0.00526
2243.52744,0.00480
2241.46726,0.00450
2239.40709,0.00480
2237.34692,0.00550
2235.28675,0.00572
2233.22657,0.00506
2231.16640,0.00429
2229.10623,0.00416
2227.04606,0.00455
2224.98589,0.00492
2222.92571,0.00524
2220.86554,0.00558
2218.80537,0.00563
2216.74520,0.00537
2214.68503,0.00542
2212.62485,0.00581
2210.56468,0.00592
2208.50451,0.00556
2206.44434,0.00488
2204.38417,0.00463
2202.32399,0.00496
2200.26382,0.00487
2198.20365,0.00472
2196.14348,0.00470
2194.08330,0.00408
2192.02313,0.00411
2189.96296,0.00513
2187.90279,0.00525
2185.84262,0.00453
2183.78244,0.00435
2181.72227,0.00477
2179.66210,0.00552
2177.60193,0.00579
2175.54176,0.00461
2173.48158,0.00352
2171.42141,0.00393
2169.36124,0.00501
2167.30107,0.00616
2165.24089,0.00651
2163.18072,0.00464
2161.12055,0.00165
2159.06038,0.00028
2157.00021,0.00032
2154.94003,0.00104
2152.87986,0.00254
2150.81969,0.00341
2148.75952,0.00305
2146.69935,0.00285
2144.63917,0.00310
2142.57900,0.00320
2140.51883,0.00368
2138.45866,0.00430
2136.39849,0.00407
2134.33831,0.00346
2132.27814,0.00330
2130.21797,0.00336
2128.15780,0.00328
2126.09762,0.00318
2124.03745,0.00307
2121.97728,0.00305
2119.91711,0.00327
2117.85694,0.00366
2115.79676,0.00434
2113.73659,0.00512
2111.67642,0.00535
2109.61625,0.00473
2107.55608,0.00356
2105.49590,0.00286
2103.43573,0.00315
2101.37556,0.00358
2099.31539,0.00351
2097.25521,0.00331
2095.19504,0.00322
2093.13487,0.00298
2091.07470,0.00289
2089.01453,0.00313
2086.95435,0.00315
2084.89418,0.00301
2082.83401,0.00307
2080.77384,0.00327
2078.71367,0.00339
2076.65349,0.00313
2074.59332,0.00311
2072.53315,0.00379
2070.47298,0.00396
2068.41281,0.00330
2066.35263,0.00299
2064.29246,0.00330
2062.23229,0.00401
2060.17212,0.00429
2058.11194,0.00343
2056.05177,0.00267
2053.99160,0.00301
2051.93143,0.00380
2049.87126,0.00383
2047.81108,0.00315
2045.75091,0.00294
2043.69074,0.00321
2041.63057,0.00316
2039.57040,0.00282
2037.51022,0.00302
2035.45005,0.00364
2033.38988,0.00389
2031.32971,0.00420
2029.26954,0.00465
2027.20936,0.00480
2025.14919,0.00501
2023.08902,0.00510
2021.02885,0.00433
2018.96867,0.00332
2016.90850,0.00262
2014.84833,0.00216
2012.78816,0.00218
2010.72799,0.00210
2008.66781,0.00205
2006.60764,0.00266
2004.54747,0.00275
2002.48730,0.00226
2000.42713,0.00252
1998.36695,0.00288
1996.30678,0.00265
1994.24661,0.00291
1992.18644,0.00315
1990.12626,0.00222
1988.06609,0.00156
1986.00592,0.00176
1983.94575,0.00271
1981.88558,0.00364
1979.82540,0.00321
1977.76523,0.00248
1975.70506,0.00221
1973.64489,0.00151
1971.58472,0.00132
1969.52454,0.00195
1967.46437,0.00250
1965.40420,0.00307
1963.34403,0.00332
1961.28386,0.00238
1959.22368,0.00090
1957.16351,0.00032
1955.10334,0.00070
1953.04317,0.00149
1950.98299,0.00240
1948.92282,0.00293
1946.86265,0.00269
1944.80248,0.00247
1942.74231,0.00268
1940.68213,0.00247
1938.62196,0.00227
1936.56179,0.00219
1934.50162,0.00167
1932.44145,0.00114
1930.38127,0.00115
1928.32110,0.00148
1926.26093,0.00195
1924.20076,0.00273
1922.14059,0.00260
1920.08041,0.00191
1918.02024,0.00166
1915.96007,0.00095
1913.89990,0.00065
1911.83972,0.00147
1909.77955,0.00246
1907.71938,0.00281
1905.65921,0.00278
1903.59904,0.00262
1901.53886,0.00228
1899.47869,0.00224
1897.41852,0.00263
1895.35835,0.00265
1893.29818,0.00177
1891.23800,0.00126
1889.17783,0.00157
1887.11766,0.00196
1885.05749,0.00245
1882.99731,0.00261
1880.93714,0.00229
1878.87697,0.00198
1876.81680,0.00187
1874.75663,0.00190
1872.69645,0.00225
1870.63628,0.00316
1868.57611,0.00362
1866.51594,0.00277
1864.45577,0.00200
1862.39559,0.00212
1860.33542,0.00254
1858.27525,0.00268
1856.21508,0.00242
1854.15491,0.00197
1852.09473,0.00177
1850.03456,0.00205
1847.97439,0.00251
1845.91422,0.00306
1843.85404,0.00302
1841.79387,0.00184
1839.73370,0.00136
1837.67353,0.00180
1835.61336,0.00202
1833.55318,0.00196
1831.49301,0.00221
1829.43284,0.00209
1827.37267,0.00163
1825.31250,0.00189
1823.25232,0.00186
1821.19215,0.00169
1819.13198,0.00195
1817.07181,0.00202
1815.01163,0.00178
1812.95146,0.00188
1810.89129,0.00202
1808.83112,0.00157
1806.77095,0.00111
1804.71077,0.00129
1802.65060,0.00213
1800.59043,0.00271
1798.53026,0.00221
1796.47009,0.00161
1794.40991,0.00222
1792.34974,0.00323
1790.28957,0.00263
1788.22940,0.00171
1786.16923,0.00177
1784.10905,0.00196
1782.04888,0.00217
1779.98871,0.00233
1777.92854,0.00199
1775.86836,0.00197
1773.80819,0.00274
1771.74802,0.00307
1769.68785,0.00250
1767.62768,0.00221
1765.56750,0.00200
1763.50733,0.00250
1761.44716,0.00286
1759.38699,0.00248
1757.32682,0.00258
1755.26664,0.00243
1753.20647,0.00272
1751.14630,0.00381
1749.08613,0.00395
1747.02596,0.00337
1744.96578,0.00326
1742.90561,0.00361
1740.84544,0.00389
1738.78527,0.00331
1736.72509,0.00344
1734.66492,0.00545
1732.60475,0.00544
1730.54458,0.00421
1728.48441,0.00383
1726.42423,0.00388
1724.36406,0.00421
1722.30389,0.00416
1720.24372,0.00477
1718.18355,0.00630
1716.12337,0.00613
1714.06320,0.00501
1712.00303,0.00467
1709.94286,0.00502
1707.88268,0.00569
1705.82251,0.00597
1703.76234,0.00549
1701.70217,0.00626
1699.64200,0.00660
1697.58182,0.00598
1695.52165,0.00635
1693.46148,0.00588
1691.40131,0.00613
1689.34114,0.00675
1687.28096,0.00727
1685.22079,0.00910
1683.16062,0.00907
1681.10045,0.00740
1679.04028,0.00736
1676.98010,0.00887
1674.91993,0.00995
1672.85976,0.00972
1670.79959,0.01049
1668.73941,0.01061
1666.67924,0.00939
1664.61907,0.00984
1662.55890,0.01096
1660.49873,0.01036
1658.43855,0.00957
1656.37838,0.01064
1654.31821,0.01335
1652.25804,0.01229
1650.19787,0.00941
1648.13769,0.01075
1646.07752,0.01193
1644.01735,0.01046
1641.95718,0.00975
1639.89701,0.01022
1637.83683,0.01175
1635.77666,0.01290
1633.71649,0.01116
1631.65632,0.00992
1629.59614,0.01055
1627.53597,0.01070
1625.47580,0.01046
1623.41563,0.01065
1621.35546,0.00994
1619.29528,0.01011
1617.23511,0.01146
1615.17494,0.01067
1613.11477,0.00943
1611.05460,0.00970
1608.99442,0.01004
1606.93425,0.00978
1604.87408,0.00965
1602.81391,0.00977
1600.75373,0.00961
1598.69356,0.00929
1596.63339,0.00910
1594.57322,0.00887
1592.51305,0.00854
1590.45287,0.00826
1588.39270,0.00794
1586.33253,0.00762
1584.27236,0.00732
1582.21219,0.00683
1580.15201,0.00639
1578.09184,0.00700
1576.03167,0.00710
1573.97150,0.00512
1571.91133,0.00485
1569.85115,0.00608
1567.79098,0.00545
1565.73081,0.00444
1563.67064,0.00375
1561.61046,0.00473
1559.55029,0.00726
1557.49012,0.00523
1555.42995,0.00292
1553.36978,0.00301
1551.30960,0.00363
1549.24943,0.00373
1547.18926,0.00342
1545.12909,0.00373
1543.06892,0.00413
1541.00874,0.00472
1538.94857,0.00351
1536.88840,0.00141
1534.82823,0.00220
1532.76805,0.00300
1530.70788,0.00201
1528.64771,0.00211
1526.58754,0.00265
1524.52737,0.00267
1522.46719,0.00321
1520.40702,0.00262
1518.34685,0.00175
1516.28668,0.00195
1514.22651,0.00164
1512.16633,0.00147
1510.10616,0.00243
1508.04599,0.00470
1505.98582,0.00418
1503.92565,0.00106
1501.86547,0.00039
1499.80530,0.00176
1497.74513,0.00287
1495.68496,0.00219
1493.62478,0.00108
1491.56461,0.00195
1489.50444,0.00305
1487.44427,0.00234
1485.38410,0.00138
1483.32392,0.00140
1481.26375,0.00181
1479.20358,0.00182
1477.14341,0.00209
1475.08324,0.00283
1473.02306,0.00328
1470.96289,0.00210
1468.90272,0.00112
1466.84255,0.00212
1464.78238,0.00285
1462.72220,0.00177
1460.66203,0.00184
1458.60186,0.00423
1456.54169,0.00488
1454.48151,0.00267
1452.42134,0.00174
1450.36117,0.00242
1448.30100,0.00324
1446.24083,0.00311
1444.18065,0.00262
1442.12048,0.00236
1440.06031,0.00239
1438.00014,0.00340
1435.93997,0.00366
1433.87979,0.00250
1431.81962,0.00247
1429.75945,0.00290
1427.69928,0.00262
1425.63910,0.00264
1423.57893,0.00269
1421.51876,0.00294
1419.45859,0.00394
1417.39842,0.00375
1415.33824,0.00312
1413.27807,0.00330
1411.21790,0.00350
1409.15773,0.00328
1407.09756,0.00323
1405.03738,0.00319
1402.97721,0.00258
1400.91704,0.00258
1398.85687,0.00314
1396.79670,0.00341
1394.73652,0.00339
1392.67635,0.00265
1390.61618,0.00241
1388.55601,0.00325
1386.49583,0.00347
1384.43566,0.00281
1382.37549,0.00265
1380.31532,0.00285
1378.25515,0.00291
1376.19497,0.00308
1374.13480,0.00315
1372.07463,0.00267
1370.01446,0.00258
1367.95429,0.00268
1365.89411,0.00260
1363.83394,0.00289
1361.77377,0.00279
1359.71360,0.00216
1357.65343,0.00200
1355.59325,0.00216
1353.53308,0.00216
1351.47291,0.00212
1349.41274,0.00212
1347.35256,0.00201
1345.29239,0.00177
1343.23222,0.00172
1341.17205,0.00223
1339.11188,0.00258
1337.05170,0.00213
1334.99153,0.00171
1332.93136,0.00162
1330.87119,0.00169
1328.81102,0.00185
1326.75084,0.00200
1324.69067,0.00199
1322.63050,0.00197
1320.57033,0.00211
1318.51015,0.00214
1316.44998,0.00197
1314.38981,0.00190
1312.32964,0.00182
1310.26947,0.00180
1308.20929,0.00204
1306.14912,0.00222
1304.08895,0.00220
1302.02878,0.00217
1299.96861,0.00214
1297.90843,0.00208
1295.84826,0.00205
1293.78809,0.00209
1291.72792,0.00218
1289.66775,0.00228
1287.60757,0.00225
1285.54740,0.00219
1283.48723,0.00227
1281.42706,0.00238
1279.36688,0.00243
1277.30671,0.00240
1275.24654,0.00237
1273.18637,0.00254
1271.12620,0.00279
1269.06602,0.00291
1267.00585,0.00292
1264.94568,0.00286
1262.88551,0.00280
1260.82534,0.00271
1258.76516,0.00257
1256.70499,0.00251
1254.64482,0.00254
1252.58465,0.00256
1250.52447,0.00264
1248.46430,0.00267
1246.40413,0.00265
1244.34396,0.00265
1242.28379,0.00252
1240.22361,0.00226
1238.16344,0.00208
1236.10327,0.00200
1234.04310,0.00191
1231.98293,0.00182
1229.92275,0.00170
1227.86258,0.00160
1225.80241,0.00156
1223.74224,0.00143
1221.68207,0.00117
1219.62189,0.00096
1217.56172,0.00085
1215.50155,0.00074
1213.44138,0.00057
1211.38120,0.00043
1209.32103,0.00044
1207.26086,0.00049
1205.20069,0.00043
1203.14052,0.00025
1201.08034,0.00010
1199.02017,0.00002
1196.96000,0.00000
1194.89983,0.00016
1192.83966,0.00046
1190.77948,0.00074
1188.71931,0.00101
1186.65914,0.00128
1184.59897,0.00147
1182.53880,0.00172
1180.47862,0.00225
1178.41845,0.00284
1176.35828,0.00331
1174.29811,0.00382
1172.23793,0.00432
1170.17776,0.00489
1168.11759,0.00557
1166.05742,0.00610
1163.99725,0.00656
1161.93707,0.00715
1159.87690,0.00773
1157.81673,0.00810
1155.75656,0.00845
1153.69639,0.00901
1151.63621,0.00969
1149.57604,0.01043
1147.51587,0.01116
1145.45570,0.01169
1143.39552,0.01225
1141.33535,0.01307
1139.27518,0.01388
1137.21501,0.01449
1135.15484,0.01519
1133.09466,0.01599
1131.03449,0.01674
1128.97432,0.01755
1126.91415,0.01844
1124.85398,0.01923
1122.79380,0.01993
1120.73363,0.02078
1118.67346,0.02177
1116.61329,0.02265
1114.55312,0.02334
1112.49294,0.02396
1110.43277,0.02470
1108.37260,0.02566
1106.31243,0.02681
1104.25225,0.02788
1102.19208,0.02879
1100.13191,0.02961
1098.07174,0.03035
1096.01157,0.03096
1093.95139,0.03160
1091.89122,0.03250
1089.83105,0.03356
1087.77088,0.03442
1085.71071,0.03490
1083.65053,0.03531
1081.59036,0.03584
1079.53019,0.03631
1077.47002,0.03661
1075.40985,0.03696
1073.34967,0.03757
1071.28950,0.03818
1069.22933,0.03844
1067.16916,0.03833
1065.10898,0.03798
1063.04881,0.03777
1060.98864,0.03771
1058.92847,0.03734
1056.86830,0.03675
1054.80812,0.03617
1052.74795,0.03568
1050.68778,0.03522
1048.62761,0.03449
1046.56744,0.03347
1044.50726,0.03246
1042.44709,0.03172
1040.38692,0.03113
1038.32675,0.03040
1036.26657,0.02955
1034.20640,0.02871
1032.14623,0.02782
1030.08606,0.02705
1028.02589,0.02651
1025.96571,0.02593
1023.90554,0.02516
1021.84537,0.02438
1019.78520,0.02369
1017.72503,0.02311
1015.66485,0.02267
1013.60468,0.02231
1011.54451,0.02200
1009.48434,0.02177
1007.42417,0.02152
1005.36399,0.02124
1003.30382,0.02131
1001.24365,0.02178
999.18348,0.02233
997.12330,0.02285
995.06313,0.02342
993.00296,0.02387
990.94279,0.02422
988.88262,0.02465
986.82244,0.02506
984.76227,0.02541
982.70210,0.02567
980.64193,0.02557
978.58176,0.02491
976.52158,0.02399
974.46141,0.02331
972.40124,0.02262
970.34107,0.02157
968.28089,0.02033
966.22072,0.01918
964.16055,0.01812
962.10038,0.01715
960.04021,0.01643
957.98003,0.01589
955.91986,0.01522
953.85969,0.01459
951.79952,0.01417
949.73935,0.01368
947.67917,0.01305
945.61900,0.01257
943.55883,0.01245
941.49866,0.01238
939.43849,0.01201
937.37831,0.01164
935.31814,0.01152
933.25797,0.01141
931.19780,0.01134
929.13762,0.01141
927.07745,0.01134
925.01728,0.01105
922.95711,0.01052
920.89694,0.00997
918.83676,0.00969
916.77659,0.00941
914.71642,0.00905
912.65625,0.00876
910.59608,0.00841
908.53590,0.00804
906.47573,0.00782
904.41556,0.00783
902.35539,0.00786
900.29522,0.00772
898.23504,0.00753
896.17487,0.00757
894.11470,0.00788
892.05453,0.00817
889.99435,0.00824
887.93418,0.00824
885.87401,0.00843
883.81384,0.00879
881.75367,0.00909
879.69349,0.00933
877.63332,0.00971
875.57315,0.01038
873.51298,0.01090
871.45281,0.01085
869.39263,0.01080
867.33246,0.01105
865.27229,0.01127
863.21212,0.01126
861.15194,0.01107
859.09177,0.01087
857.03160,0.01072
854.97143,0.01057
852.91126,0.01043
850.85108,0.01040
848.79091,0.01035
846.73074,0.00988
844.67057,0.00902
842.61040,0.00817
840.55022,0.00772
838.49005,0.00753
836.42988,0.00732
834.36971,0.00711
832.30954,0.00674
830.24936,0.00631
828.18919,0.00605
826.12902,0.00567
824.06885,0.00541
822.00867,0.00540
819.94850,0.00524
817.88833,0.00478
815.82816,0.00395
813.76799,0.00310
811.70781,0.00301
809.64764,0.00342
807.58747,0.00373
805.52730,0.00389
803.46713,0.00383
801.40695,0.00350
799.34678,0.00303
797.28661,0.00263
795.22644,0.00235
793.16627,0.00226
791.10609,0.00240
789.04592,0.00281
786.98575,0.00307
784.92558,0.00287
782.86540,0.00264
780.80523,0.00247
778.74506,0.00237
776.68489,0.00231
774.62472,0.00225
772.56454,0.00234
770.50437,0.00233
768.44420,0.00221
766.38403,0.00228
764.32386,0.00241
762.26368,0.00222
760.20351,0.00200
758.14334,0.00204
756.08317,0.00209
754.02299,0.00194
751.96282,0.00149
749.90265,0.00105
747.84248,0.00121
745.78231,0.00179
743.72213,0.00229
741.66196,0.00243
739.60179,0.00201
737.54162,0.00139
735.48145,0.00077
733.42127,0.00042
731.36110,0.00040
729.30093,0.00055
727.24076,0.00109
725.18059,0.00170
723.12041,0.00202
721.06024,0.00154
719.00007,0.00146
716.93990,0.00155
714.87972,0.00195
712.81955,0.00278
710.75938,0.00330
708.69921,0.00298
706.63904,0.00236
704.57886,0.00208
702.51869,0.00188
700.45852,0.00151
698.39835,0.00123
696.33818,0.00103
694.27800,0.00062
692.21783,0.00042
690.15766,0.00105
688.09749,0.00199
686.03731,0.00231
683.97714,0.00236
681.91697,0.00287
679.85680,0.00357
677.79663,0.00358
675.73645,0.00295
673.67628,0.00335
671.61611,0.00559
669.55594,0.00446
667.49577,0.00067
665.43559,0.00521
663.37542,0.00439
661.31525,0.00311
659.25508,0.00310
657.19491,0.00356
655.13473,0.00388
653.07456,0.00383
651.01439,0.00352
648.95422,0.00328
646.89404,0.00354
644.83387,0.00331
642.77370,0.00274
640.71353,0.00258
638.65336,0.00266
636.59318,0.00255
634.53301,0.00209
632.47284,0.00116
630.41267,0.00042
628.35250,0.00055
626.29232,0.00121
624.23215,0.00102
622.17198,0.00043
620.11181,0.00043
618.05164,0.00081
615.99146,0.00053
613.93129,0.00066
611.87112,0.00268
609.81095,0.00451
607.75077,0.00401
605.69060,0.00232
603.63043,0.00078
601.57026,0.00000
599.51009,0.00000
