3996.73391,0.00117
3994.67373,0.00090
3992.61356,0.00065
3990.55339,0.00053
3988.49322,0.00041
3986.43305,0.00015
3984.37287,0.00000
3982.31270,0.00022
3980.25253,0.00040
3978.19236,0.00028
3976.13219,0.00016
3974.07201,0.00022
3972.01184,0.00055
3969.95167,0.00097
3967.89150,0.00096
3965.83133,0.00053
3963.77115,0.00021
3961.71098,0.00025
3959.65081,0.00061
3957.59064,0.00111
3955.53046,0.00144
3953.47029,0.00137
3951.41012,0.00104
3949.34995,0.00087
3947.28978,0.00095
3945.22960,0.00101
3943.16943,0.00107
3941.10926,0.00119
3939.04909,0.00113
3936.98892,0.00078
3934.92874,0.00029
3932.86857,0.00002
3930.80840,0.00033
3928.74823,0.00106
3926.68805,0.00146
3924.62788,0.00114
3922.56771,0.00067
3920.50754,0.00068
3918.44737,0.00087
3916.38719,0.00076
3914.32702,0.00046
3912.26685,0.00034
3910.20668,0.00047
3908.14651,0.00074
3906.08633,0.00109
3904.02616,0.00149
3901.96599,0.00157
3899.90582,0.00118
3897.84565,0.00101
3895.78547,0.00119
3893.72530,0.00121
3891.66513,0.00109
3889.60496,0.00105
3887.54478,0.00100
3885.48461,0.00103
3883.42444,0.00130
3881.36427,0.00149
3879.30410,0.00143
3877.24392,0.00141
3875.18375,0.00144
3873.12358,0.00142
3871.06341,0.00129
3869.00324,0.00089
3866.94306,0.00063
3864.88289,0.00074
3862.82272,0.00084
3860.76255,0.00080
3858.70237,0.00096
3856.64220,0.00121
3854.58203,0.00106
3852.52186,0.00051
3850.46169,0.00044
3848.40151,0.00100
3846.34134,0.00148
3844.28117,0.00130
3842.22100,0.00069
3840.16083,0.00022
3838.10065,0.00006
3836.04048,0.00019
3833.98031,0.00047
3831.92014,0.00052
3829.85997,0.00041
3827.79979,0.00055
3825.73962,0.00089
3823.67945,0.00099
3821.61928,0.00080
3819.55910,0.00071
3817.49893,0.00072
3815.43876,0.00074
3813.37859,0.00089
3811.31842,0.00116
3809.25824,0.00144
3807.19807,0.00154
3805.13790,0.00136
3803.07773,0.00097
3801.01756,0.00049
3798.95738,0.00033
3796.89721,0.00048
3794.83704,0.00072
3792.77687,0.00108
3790.71670,0.00141
3788.65652,0.00154
3786.59635,0.00153
3784.53618,0.00141
3782.47601,0.00116
3780.41583,0.00089
3778.35566,0.00083
3776.29549,0.00095
3774.23532,0.00114
3772.17515,0.00132
3770.11497,0.00129
3768.05480,0.00121
3765.99463,0.00138
3763.93446,0.00149
3761.87429,0.00125
3759.81411,0.00106
3757.75394,0.00128
3755.69377,0.00155
3753.63360,0.00145
3751.57342,0.00116
3749.51325,0.00119
3747.45308,0.00145
3745.39291,0.00148
3743.33274,0.00141
3741.27256,0.00150
3739.21239,0.00146
3737.15222,0.00102
3735.09205,0.00043
3733.03188,0.00010
3730.97170,0.00012
3728.91153,0.00028
3726.85136,0.00042
3724.79119,0.00065
3722.73102,0.00107
3720.67084,0.00162
3718.61067,0.00205
3716.55050,0.00237
3714.49033,0.00235
3712.43015,0.00147
3710.36998,0.00037
3708.30981,0.00032
3706.24964,0.00118
3704.18947,0.00191
3702.12929,0.00204
3700.06912,0.00174
3698.00895,0.00155
3695.94878,0.00171
3693.88861,0.00182
3691.82843,0.00171
3689.76826,0.00166
3687.70809,0.00164
3685.64792,0.00156
3683.58775,0.00168
3681.52757,0.00209
3679.46740,0.00270
3677.40723,0.00316
3675.34706,0.00283
3673.28688,0.00187
3671.22671,0.00124
3669.16654,0.00131
3667.10637,0.00174
3665.04620,0.00211
3662.98602,0.00239
3660.92585,0.00261
3658.86568,0.00276
3656.80551,0.00293
3654.74534,0.00321
3652.68516,0.00343
3650.62499,0.00355
3648.56482,0.00382
3646.50465,0.00424
3644.44447,0.00464
3642.38430,0.00510
3640.32413,0.00561
3638.26396,0.00608
3636.20379,0.00646
3634.14361,0.00671
3632.08344,0.00672
3630.02327,0.00636
3627.96310,0.00615
3625.90293,0.00671
3623.84275,0.00756
3621.78258,0.00800
3619.72241,0.00795
3617.66224,0.00800
3615.60207,0.00839
3613.54189,0.00902
3611.48172,0.00975
3609.42155,0.01034
3607.36138,0.01053
3605.30120,0.01034
3603.24103,0.01012
3601.18086,0.01008
3599.12069,0.01040
3597.06052,0.01106
3595.00034,0.01188
3592.94017,0.01268
3590.88000,0.01342
3588.81983,0.01379
3586.75966,0.01368
3584.69948,0.01366
3582.63931,0.01414
3580.57914,0.01480
3578.51897,0.01527
3576.45879,0.01555
3574.39862,0.01578
3572.33845,0.01610
3570.27828,0.01655
3568.21811,0.01701
3566.15793,0.01730
3564.09776,0.01746
3562.03759,0.01784
3559.97742,0.01850
3557.91725,0.01915
3555.85707,0.01964
3553.79690,0.01985
3551.73673,0.01972
3549.67656,0.01960
3547.61639,0.01979
3545.55621,0.02000
3543.49604,0.02007
3541.43587,0.02037
3539.37570,0.02090
3537.31552,0.02130
3535.25535,0.02149
3533.19518,0.02182
3531.13501,0.02243
3529.07484,0.02299
3527.01466,0.02326
3524.95449,0.02355
3522.89432,0.02398
3520.83415,0.02435
3518.77398,0.02458
3516.71380,0.02482
3514.65363,0.02528
3512.59346,0.02582
3510.53329,0.02611
3508.47312,0.02623
3506.41294,0.02633
3504.35277,0.02652
3502.29260,0.02701
3500.23243,0.02771
3498.17225,0.02811
3496.11208,0.02808
3494.05191,0.02802
3491.99174,0.02826
3489.93157,0.02883
3487.87139,0.02942
3485.81122,0.02967
3483.75105,0.02963
3481.69088,0.02976
3479.63071,0.03022
3477.57053,0.03078
3475.51036,0.03125
3473.45019,0.03149
3471.39002,0.03146
3469.32984,0.03139
3467.26967,0.03156
3465.20950,0.03192
3463.14933,0.03232
3461.08916,0.03254
3459.02898,0.03251
3456.96881,0.03270
3454.90864,0.03325
3452.84847,0.03378
3450.78830,0.03407
3448.72812,0.03410
3446.66795,0.03394
3444.60778,0.03393
3442.54761,0.03423
3440.48744,0.03458
3438.42726,0.03474
3436.36709,0.03476
3434.30692,0.03495
3432.24675,0.03533
3430.18657,0.03566
3428.12640,0.03600
3426.06623,0.03634
3424.00606,0.03658
3421.94589,0.03676
3419.88571,0.03706
3417.82554,0.03730
3415.76537,0.03719
3413.70520,0.03707
3411.64503,0.03725
3409.58485,0.03733
3407.52468,0.03735
3405.46451,0.03764
3403.40434,0.03796
3401.34416,0.03816
3399.28399,0.03837
3397.22382,0.03856
3395.16365,0.03877
3393.10348,0.03896
3391.04330,0.03907
3388.98313,0.03915
3386.92296,0.03926
3384.86279,0.03936
3382.80262,0.03952
3380.74244,0.03963
3378.68227,0.03961
3376.62210,0.03973
3374.56193,0.03984
3372.50176,0.03981
3370.44158,0.03981
3368.38141,0.03982
3366.32124,0.03989
3364.26107,0.04000
3362.20089,0.04001
3360.14072,0.04006
3358.08055,0.04033
3356.02038,0.04069
3353.96021,0.04080
3351.90003,0.04061
3349.83986,0.04048
3347.77969,0.04049
3345.71952,0.04045
3343.65935,0.04038
3341.59917,0.04057
3339.53900,0.04090
3337.47883,0.04091
3335.41866,0.04060
3333.35849,0.04047
3331.29831,0.04059
3329.23814,0.04072
3327.17797,0.04087
3325.11780,0.04109
3323.05762,0.04125
3320.99745,0.04131
3318.93728,0.04135
3316.87711,0.04143
3314.81694,0.04144
3312.75676,0.04126
3310.69659,0.04107
3308.63642,0.04092
3306.57625,0.04087
3304.51608,0.04108
3302.45590,0.04137
3300.39573,0.04149
3298.33556,0.04147
3296.27539,0.04132
3294.21521,0.04113
3292.15504,0.04103
3290.09487,0.04126
3288.03470,0.04179
3285.97453,0.04209
3283.91435,0.04207
3281.85418,0.04205
3279.79401,0.04206
3277.73384,0.04199
3275.67367,0.04186
3273.61349,0.04170
3271.55332,0.04165
3269.49315,0.04180
3267.43298,0.04185
3265.37281,0.04167
3263.31263,0.04153
3261.25246,0.04150
3259.19229,0.04142
3257.13212,0.04140
3255.07194,0.04163
3253.01177,0.04193
3250.95160,0.04213
3248.89143,0.04212
3246.83126,0.04187
3244.77108,0.04167
3242.71091,0.04175
3240.65074,0.04193
3238.59057,0.04187
3236.53040,0.04155
3234.47022,0.04128
3232.41005,0.04130
3230.34988,0.04153
3228.28971,0.04164
3226.22954,0.04159
3224.16936,0.04157
3222.10919,0.04146
3220.04902,0.04135
3217.98885,0.04138
3215.92867,0.04135
3213.86850,0.04121
3211.80833,0.04103
3209.74816,0.04084
3207.68799,0.04074
3205.62781,0.04087
3203.56764,0.04106
3201.50747,0.04095
3199.44730,0.04059
3197.38713,0.04033
3195.32695,0.04021
3193.26678,0.04002
3191.20661,0.03974
3189.14644,0.03952
3187.08626,0.03952
3185.02609,0.03973
3182.96592,0.03972
3180.90575,0.03943
3178.84558,0.03927
3176.78540,0.03925
3174.72523,0.03920
3172.66506,0.03911
3170.60489,0.03905
3168.54472,0.03883
3166.48454,0.03842
3164.42437,0.03816
3162.36420,0.03805
3160.30403,0.03800
3158.24386,0.03804
3156.18368,0.03810
3154.12351,0.03808
3152.06334,0.03788
3150.00317,0.03764
3147.94299,0.03761
3145.88282,0.03766
3143.82265,0.03754
3141.76248,0.03722
3139.70231,0.03686
3137.64213,0.03658
3135.58196,0.03638
3133.52179,0.03626
3131.46162,0.03630
3129.40145,0.03628
3127.34127,0.03600
3125.28110,0.03562
3123.22093,0.03531
3121.16076,0.03526
3119.10058,0.03556
3117.04041,0.03579
3114.98024,0.03565
3112.92007,0.03527
3110.85990,0.03480
3108.79972,0.03445
3106.73955,0.03445
3104.67938,0.03452
3102.61921,0.03425
3100.55904,0.03390
3098.49886,0.03385
3096.43869,0.03386
3094.37852,0.03361
3092.31835,0.03333
3090.25818,0.03329
3088.19800,0.03325
3086.13783,0.03303
3084.07766,0.03279
3082.01749,0.03261
3079.95731,0.03250
3077.89714,0.03235
3075.83697,0.03196
3073.77680,0.03153
3071.71663,0.03130
3069.65645,0.03125
3067.59628,0.03115
3065.53611,0.03098
3063.47594,0.03091
3061.41577,0.03080
3059.35559,0.03060
3057.29542,0.03045
3055.23525,0.03032
3053.17508,0.03025
3051.11491,0.03011
3049.05473,0.02970
3046.99456,0.02927
3044.93439,0.02916
3042.87422,0.02919
3040.81404,0.02893
3038.75387,0.02855
3036.69370,0.02840
3034.63353,0.02832
3032.57336,0.02816
3030.51318,0.02804
3028.45301,0.02787
3026.39284,0.02769
3024.33267,0.02764
3022.27250,0.02748
3020.21232,0.02705
3018.15215,0.02669
3016.09198,0.02663
3014.03181,0.02668
3011.97163,0.02649
3009.91146,0.02618
3007.85129,0.02595
3005.79112,0.02578
3003.73095,0.02573
3001.67077,0.02572
2999.61060,0.02566
2997.55043,0.02553
2995.49026,0.02539
2993.43009,0.02536
2991.36991,0.02525
2989.30974,0.02487
2987.24957,0.02445
2985.18940,0.02425
2983.12923,0.02417
2981.06905,0.02409
2979.00888,0.02396
2976.94871,0.02368
2974.88854,0.02350
2972.82836,0.02349
2970.76819,0.02340
2968.70802,0.02338
2966.64785,0.02340
2964.58768,0.02327
2962.52750,0.02325
2960.46733,0.02355
2958.40716,0.02375
2956.34699,0.02359
2954.28682,0.02347
2952.22664,0.02352
2950.16647,0.02354
2948.10630,0.02343
2946.04613,0.02328
2943.98596,0.02331
2941.92578,0.02346
2939.86561,0.02353
2937.80544,0.02361
2935.74527,0.02365
2933.68509,0.02343
2931.62492,0.02329
2929.56475,0.02346
2927.50458,0.02343
2925.44441,0.02303
2923.38423,0.02270
2921.32406,0.02251
2919.26389,0.02238
2917.20372,0.02236
2915.14355,0.02234
2913.08337,0.02222
2911.02320,0.02208
2908.96303,0.02196
2906.90286,0.02185
2904.84268,0.02174
2902.78251,0.02158
2900.72234,0.02140
2898.66217,0.02115
2896.60200,0.02103
2894.54182,0.02114
2892.48165,0.02110
2890.42148,0.02081
2888.36131,0.02065
2886.30114,0.02069
2884.24096,0.02085
2882.18079,0.02092
2880.12062,0.02070
2878.06045,0.02044
2876.00028,0.02034
2873.94010,0.02021
2871.87993,0.02005
2869.81976,0.01990
2867.75959,0.01974
2865.69941,0.01966
2863.63924,0.01968
2861.57907,0.01965
2859.51890,0.01960
2857.45873,0.01956
2855.39855,0.01951
2853.33838,0.01946
2851.27821,0.01924
2849.21804,0.01894
2847.15787,0.01878
2845.09769,0.01856
2843.03752,0.01826
2840.97735,0.01814
2838.91718,0.01817
2836.85700,0.01832
2834.79683,0.01850
2832.73666,0.01838
2830.67649,0.01794
2828.61632,0.01760
2826.55614,0.01743
2824.49597,0.01723
2822.43580,0.01716
2820.37563,0.01726
2818.31546,0.01723
2816.25528,0.01702
2814.19511,0.01685
2812.13494,0.01677
2810.07477,0.01662
2808.01460,0.01641
2805.95442,0.01635
2803.89425,0.01651
2801.83408,0.01664
2799.77391,0.01650
2797.71373,0.01636
2795.65356,0.01628
2793.59339,0.01608
2791.53322,0.01587
2789.47305,0.01573
2787.41287,0.01561
2785.35270,0.01551
2783.29253,0.01546
2781.23236,0.01532
2779.17219,0.01507
2777.11201,0.01499
2775.05184,0.01510
2772.99167,0.01509
2770.93150,0.01504
2768.87133,0.01512
2766.81115,0.01510
2764.75098,0.01483
2762.69081,0.01465
2760.63064,0.01463
2758.57046,0.01452
2756.51029,0.01448
2754.45012,0.01456
2752.38995,0.01455
2750.32978,0.01448
2748.26960,0.01446
2746.20943,0.01437
2744.14926,0.01412
2742.08909,0.01395
2740.02892,0.01395
2737.96874,0.01399
2735.90857,0.01392
2733.84840,0.01374
2731.78823,0.01347
2729.72805,0.01328
2727.66788,0.01323
2725.60771,0.01324
2723.54754,0.01327
2721.48737,0.01329
2719.42719,0.01318
2717.36702,0.01291
2715.30685,0.01278
2713.24668,0.01286
2711.18651,0.01289
2709.12633,0.01280
2707.06616,0.01265
2705.00599,0.01254
2702.94582,0.01259
2700.88565,0.01273
2698.82547,0.01264
2696.76530,0.01229
2694.70513,0.01197
2692.64496,0.01203
2690.58478,0.01217
2688.52461,0.01195
2686.46444,0.01161
2684.40427,0.01147
2682.34410,0.01148
2680.28392,0.01141
2678.22375,0.01122
2676.16358,0.01112
2674.10341,0.01120
2672.04324,0.01122
2669.98306,0.01102
2667.92289,0.01091
2665.86272,0.01100
2663.80255,0.01098
2661.74238,0.01079
2659.68220,0.01066
2657.62203,0.01066
2655.56186,0.01070
2653.50169,0.01071
2651.44151,0.01068
2649.38134,0.01058
2647.32117,0.01041
2645.26100,0.01020
2643.20083,0.01007
2641.14065,0.00992
2639.08048,0.00970
2637.02031,0.00966
2634.96014,0.00975
2632.89997,0.00983
2630.83979,0.00987
2628.77962,0.00972
2626.71945,0.00933
2624.65928,0.00896
2622.59910,0.00881
2620.53893,0.00869
2618.47876,0.00857
2616.41859,0.00861
2614.35842,0.00881
2612.29824,0.00902
2610.23807,0.00911
2608.17790,0.00896
2606.11773,0.00868
2604.05756,0.00844
2601.99738,0.00843
2599.93721,0.00855
2597.87704,0.00841
2595.81687,0.00805
2593.75670,0.00794
2591.69652,0.00817
2589.63635,0.00837
2587.57618,0.00839
2585.51601,0.00828
2583.45583,0.00809
2581.39566,0.00793
2579.33549,0.00780
2577.27532,0.00766
2575.21515,0.00754
2573.15497,0.00751
2571.09480,0.00746
2569.03463,0.00746
2566.97446,0.00758
2564.91429,0.00775
2562.85411,0.00793
2560.79394,0.00796
2558.73377,0.00790
2556.67360,0.00793
2554.61342,0.00798
2552.55325,0.00803
2550.49308,0.00802
2548.43291,0.00773
2546.37274,0.00733
2544.31256,0.00725
2542.25239,0.00755
2540.19222,0.00765
2538.13205,0.00738
2536.07188,0.00722
2534.01170,0.00721
2531.95153,0.00707
2529.89136,0.00703
2527.83119,0.00727
2525.77102,0.00737
2523.71084,0.00733
2521.65067,0.00757
2519.59050,0.00795
2517.53033,0.00808
2515.47015,0.00790
2513.40998,0.00768
2511.34981,0.00762
2509.28964,0.00783
2507.22947,0.00808
2505.16929,0.00798
2503.10912,0.00771
2501.04895,0.00770
2498.98878,0.00772
2496.92861,0.00738
2494.86843,0.00699
2492.80826,0.00695
2490.74809,0.00711
2488.68792,0.00714
2486.62775,0.00740
2484.56757,0.00799
2482.50740,0.00832
2480.44723,0.00830
2478.38706,0.00811
2476.32688,0.00800
2474.26671,0.00818
2472.20654,0.00820
2470.14637,0.00789
2468.08620,0.00779
2466.02602,0.00794
2463.96585,0.00798
2461.90568,0.00798
2459.84551,0.00803
2457.78534,0.00806
2455.72516,0.00802
2453.66499,0.00780
2451.60482,0.00759
2449.54465,0.00751
2447.48447,0.00760
2445.42430,0.00790
2443.36413,0.00820
2441.30396,0.00833
2439.24379,0.00841
2437.18361,0.00840
2435.12344,0.00841
2433.06327,0.00858
2431.00310,0.00851
2428.94293,0.00820
2426.88275,0.00818
2424.82258,0.00830
2422.76241,0.00822
2420.70224,0.00802
2418.64207,0.00782
2416.58189,0.00773
2414.52172,0.00777
2412.46155,0.00783
2410.40138,0.00794
2408.34120,0.00814
2406.28103,0.00823
2404.22086,0.00815
2402.16069,0.00798
2400.10052,0.00779
2398.04034,0.00749
2395.98017,0.00727
2393.92000,0.00712
2391.85983,0.00708
2389.79966,0.00731
2387.73948,0.00781
2385.67931,0.00836
2383.61914,0.00864
2381.55897,0.00868
2379.49880,0.00859
2377.43862,0.00832
2375.37845,0.00774
2373.31828,0.00722
2371.25811,0.00701
2369.19793,0.00732
2367.13776,0.00819
2365.07759,0.00884
2363.01742,0.00872
2360.95725,0.00921
2358.89707,0.00817
2356.83690,0.00705
2354.77673,0.00697
2352.71656,0.00722
2350.65639,0.00846
2348.59621,0.00933
2346.53604,0.00736
2344.47587,0.00721
2342.41570,0.00751
2340.35552,0.00750
2338.29535,0.00727
2336.23518,0.00701
2334.17501,0.00749
2332.11484,0.00779
2330.05466,0.00763
2327.99449,0.00744
2325.93432,0.00826
2323.87415,0.00848
2321.81398,0.00811
2319.75380,0.00741
2317.69363,0.00762
2315.63346,0.00772
2313.57329,0.00755
2311.51312,0.00759
2309.45294,0.00762
2307.39277,0.00758
2305.33260,0.00766
2303.27243,0.00780
2301.21225,0.00763
2299.15208,0.00733
2297.09191,0.00713
2295.03174,0.00709
2292.97157,0.00715
2290.91139,0.00725
2288.85122,0.00745
2286.79105,0.00756
2284.73088,0.00738
2282.67071,0.00706
2280.61053,0.00689
2278.55036,0.00666
2276.49019,0.00617
2274.43002,0.00600
2272.36984,0.00646
2270.30967,0.00686
2268.24950,0.00681
2266.18933,0.00683
2264.12916,0.00710
2262.06898,0.00719
2260.00881,0.00685
2257.94864,0.00638
2255.88847,0.00632
2253.82830,0.00678
2251.76812,0.00737
2249.70795,0.00723
2247.64778,0.00604
2245.58761,0.00512
2243.52744,0.00537
2241.46726,0.00600
2239.40709,0.00601
2237.34692,0.00579
2235.28675,0.00605
2233.22657,0.00609
2231.16640,0.00579
2229.10623,0.00580
2227.04606,0.00578
2224.98589,0.00589
2222.92571,0.00641
2220.86554,0.00633
2218.80537,0.00546
2216.74520,0.00515
2214.68503,0.00574
2212.62485,0.00595
2210.56468,0.00558
2208.50451,0.00538
2206.44434,0.00533
2204.38417,0.00556
2202.32399,0.00595
2200.26382,0.00564
2198.20365,0.00478
2196.14348,0.00420
2194.08330,0.00407
2192.02313,0.00448
2189.96296,0.00484
2187.90279,0.00444
2185.84262,0.00415
2183.78244,0.00449
2181.72227,0.00474
2179.66210,0.00507
2177.60193,0.00489
2175.54176,0.00339
2173.48158,0.00271
2171.42141,0.00389
2169.36124,0.00511
2167.30107,0.00558
2165.24089,0.00600
2163.18072,0.00560
2161.12055,0.00354
2159.06038,0.00242
2157.00021,0.00282
2154.94003,0.00237
2152.87986,0.00233
2150.81969,0.00384
2148.75952,0.00495
2146.69935,0.00476
2144.63917,0.00393
2142.57900,0.00356
2140.51883,0.00436
2138.45866,0.00499
2136.39849,0.00442
2134.33831,0.00384
2132.27814,0.00387
2130.21797,0.00381
2128.15780,0.00389
2126.09762,0.00435
2124.03745,0.00434
2121.97728,0.00386
2119.91711,0.00355
2117.85694,0.00359
2115.79676,0.00404
2113.73659,0.00490
2111.67642,0.00582
2109.61625,0.00544
2107.55608,0.00344
2105.49590,0.00238
2103.43573,0.00327
2101.37556,0.00436
2099.31539,0.00483
2097.25521,0.00486
2095.19504,0.00425
2093.13487,0.00336
2091.07470,0.00303
2089.01453,0.00340
2086.95435,0.00377
2084.89418,0.00384
2082.83401,0.00423
2080.77384,0.00481
2078.71367,0.00490
2076.65349,0.00443
2074.59332,0.00382
2072.53315,0.00364
2070.47298,0.00374
2068.41281,0.00364
2066.35263,0.00334
2064.29246,0.00299
2062.23229,0.00288
2060.17212,0.00341
2058.11194,0.00408
2056.05177,0.00387
2053.99160,0.00342
2051.93143,0.00343
2049.87126,0.00318
2047.81108,0.00264
2045.75091,0.00240
2043.69074,0.00210
2041.63057,0.00161
2039.57040,0.00138
2037.51022,0.00142
2035.45005,0.00175
2033.38988,0.00263
2031.32971,0.00399
2029.26954,0.00487
2027.20936,0.00465
2025.14919,0.00430
2023.08902,0.00404
2021.02885,0.00302
2018.96867,0.00189
2016.90850,0.00153
2014.84833,0.00183
2012.78816,0.00278
2010.72799,0.00374
2008.66781,0.00417
2006.60764,0.00404
2004.54747,0.00332
2002.48730,0.00290
2000.42713,0.00282
1998.36695,0.00251
1996.30678,0.00239
1994.24661,0.00275
1992.18644,0.00346
1990.12626,0.00392
1988.06609,0.00304
1986.00592,0.00139
1983.94575,0.00111
1981.88558,0.00204
1979.82540,0.00202
1977.76523,0.00166
1975.70506,0.00240
1973.64489,0.00312
1971.58472,0.00344
1969.52454,0.00377
1967.46437,0.00418
1965.40420,0.00474
1963.34403,0.00448
1961.28386,0.00306
1959.22368,0.00170
1957.16351,0.00141
1955.10334,0.00183
1953.04317,0.00234
1950.98299,0.00270
1948.92282,0.00284
1946.86265,0.00288
1944.80248,0.00264
1942.74231,0.00186
1940.68213,0.00117
1938.62196,0.00114
1936.56179,0.00134
1934.50162,0.00115
1932.44145,0.00083
1930.38127,0.00110
1928.32110,0.00173
1926.26093,0.00213
1924.20076,0.00225
1922.14059,0.00208
1920.08041,0.00181
1918.02024,0.00189
1915.96007,0.00220
1913.89990,0.00239
1911.83972,0.00241
1909.77955,0.00229
1907.71938,0.00220
1905.65921,0.00227
1903.59904,0.00229
1901.53886,0.00209
1899.47869,0.00192
1897.41852,0.00206
1895.35835,0.00233
1893.29818,0.00237
1891.23800,0.00214
1889.17783,0.00201
1887.11766,0.00224
1885.05749,0.00255
1882.99731,0.00258
1880.93714,0.00233
1878.87697,0.00221
1876.81680,0.00231
1874.75663,0.00230
1872.69645,0.00206
1870.63628,0.00179
1868.57611,0.00181
1866.51594,0.00218
1864.45577,0.00261
1862.39559,0.00284
1860.33542,0.00288
1858.27525,0.00291
1856.21508,0.00285
1854.15491,0.00250
1852.09473,0.00218
1850.03456,0.00234
1847.97439,0.00267
1845.91422,0.00270
1843.85404,0.00245
1841.79387,0.00218
1839.73370,0.00206
1837.67353,0.00215
1835.61336,0.00237
1833.55318,0.00244
1831.49301,0.00226
1829.43284,0.00208
1827.37267,0.00221
1825.31250,0.00246
1823.25232,0.00258
1821.19215,0.00258
1819.13198,0.00259
1817.07181,0.00262
1815.01163,0.00255
1812.95146,0.00223
1810.89129,0.00184
1808.83112,0.00170
1806.77095,0.00187
1804.71077,0.00214
1802.65060,0.00227
1800.59043,0.00220
1798.53026,0.00220
1796.47009,0.00241
1794.40991,0.00260
1792.34974,0.00267
1790.28957,0.00270
1788.22940,0.00270
1786.16923,0.00270
1784.10905,0.00267
1782.04888,0.00257
1779.98871,0.00257
1777.92854,0.00282
1775.86836,0.00304
1773.80819,0.00290
1771.74802,0.00260
1769.68785,0.00250
1767.62768,0.00252
1765.56750,0.00265
1763.50733,0.00295
1761.44716,0.00333
1759.38699,0.00361
1757.32682,0.00370
1755.26664,0.00364
1753.20647,0.00371
1751.14630,0.00395
1749.08613,0.00414
1747.02596,0.00424
1744.96578,0.00440
1742.90561,0.00451
1740.84544,0.00452
1738.78527,0.00455
1736.72509,0.00480
1734.66492,0.00524
1732.60475,0.00554
1730.54458,0.00556
1728.48441,0.00551
1726.42423,0.00548
1724.36406,0.00553
1722.30389,0.00564
1720.24372,0.00564
1718.18355,0.00560
1716.12337,0.00571
1714.06320,0.00595
1712.00303,0.00629
1709.94286,0.00667
1707.88268,0.00692
1705.82251,0.00707
1703.76234,0.00735
1701.70217,0.00755
1699.64200,0.00737
1697.58182,0.00728
1695.52165,0.00769
1693.46148,0.00828
1691.40131,0.00875
1689.34114,0.00908
1687.28096,0.00925
1685.22079,0.00925
1683.16062,0.00949
1681.10045,0.01026
1679.04028,0.01105
1676.98010,0.01158
1674.91993,0.01198
1672.85976,0.01229
1670.79959,0.01244
1668.73941,0.01261
1666.67924,0.01297
1664.61907,0.01331
1662.55890,0.01343
1660.49873,0.01358
1658.43855,0.01400
1656.37838,0.01448
1654.31821,0.01469
1652.25804,0.01464
1650.19787,0.01469
1648.13769,0.01467
1646.07752,0.01444
1644.01735,0.01439
1641.95718,0.01451
1639.89701,0.01459
1637.83683,0.01451
1635.77666,0.01425
1633.71649,0.01407
1631.65632,0.01415
1629.59614,0.01426
1627.53597,0.01421
1625.47580,0.01404
1623.41563,0.01384
1621.35546,0.01374
1619.29528,0.01379
1617.23511,0.01374
1615.17494,0.01355
1613.11477,0.01338
1611.05460,0.01331
1608.99442,0.01330
1606.93425,0.01324
1604.87408,0.01305
1602.81391,0.01283
1600.75373,0.01262
1598.69356,0.01231
1596.63339,0.01190
1594.57322,0.01158
1592.51305,0.01140
1590.45287,0.01117
1588.39270,0.01080
1586.33253,0.01032
1584.27236,0.00984
1582.21219,0.00948
1580.15201,0.00924
1578.09184,0.00879
1576.03167,0.00801
1573.97150,0.00760
1571.91133,0.00762
1569.85115,0.00745
1567.79098,0.00702
1565.73081,0.00671
1563.67064,0.00659
1561.61046,0.00644
1559.55029,0.00591
1557.49012,0.00534
1555.42995,0.00525
1553.36978,0.00522
1551.30960,0.00511
1549.24943,0.00512
1547.18926,0.00523
1545.12909,0.00507
1543.06892,0.00435
1541.00874,0.00350
1538.94857,0.00340
1536.88840,0.00386
1534.82823,0.00407
1532.76805,0.00384
1530.70788,0.00354
1528.64771,0.00339
1526.58754,0.00336
1524.52737,0.00337
1522.46719,0.00318
1520.40702,0.00288
1518.34685,0.00269
1516.28668,0.00257
1514.22651,0.00256
1512.16633,0.00264
1510.10616,0.00257
1508.04599,0.00219
1505.98582,0.00188
1503.92565,0.00209
1501.86547,0.00244
1499.80530,0.00256
1497.74513,0.00240
1495.68496,0.00222
1493.62478,0.00235
1491.56461,0.00260
1489.50444,0.00259
1487.44427,0.00234
1485.38410,0.00223
1483.32392,0.00234
1481.26375,0.00254
1479.20358,0.00275
1477.14341,0.00289
1475.08324,0.00283
1473.02306,0.00265
1470.96289,0.00276
1468.90272,0.00315
1466.84255,0.00347
1464.78238,0.00360
1462.72220,0.00370
1460.66203,0.00391
1458.60186,0.00404
1456.54169,0.00389
1454.48151,0.00375
1452.42134,0.00374
1450.36117,0.00376
1448.30100,0.00378
1446.24083,0.00381
1444.18065,0.00390
1442.12048,0.00397
1440.06031,0.00397
1438.00014,0.00395
1435.93997,0.00391
1433.87979,0.00387
1431.81962,0.00388
1429.75945,0.00392
1427.69928,0.00395
1425.63910,0.00403
1423.57893,0.00425
1421.51876,0.00442
1419.45859,0.00437
1417.39842,0.00441
1415.33824,0.00468
1413.27807,0.00481
1411.21790,0.00474
1409.15773,0.00470
1407.09756,0.00465
1405.03738,0.00451
1402.97721,0.00439
1400.91704,0.00432
1398.85687,0.00420
1396.79670,0.00403
1394.73652,0.00388
1392.67635,0.00383
1390.61618,0.00392
1388.55601,0.00410
1386.49583,0.00424
1384.43566,0.00430
1382.37549,0.00436
1380.31532,0.00439
1378.25515,0.00433
1376.19497,0.00424
1374.13480,0.00416
1372.07463,0.00413
1370.01446,0.00411
1367.95429,0.00409
1365.89411,0.00407
1363.83394,0.00400
1361.77377,0.00382
1359.71360,0.00361
1357.65343,0.00343
1355.59325,0.00333
1353.53308,0.00339
1351.47291,0.00349
1349.41274,0.00342
1347.35256,0.00320
1345.29239,0.00304
1343.23222,0.00297
1341.17205,0.00292
1339.11188,0.00289
1337.05170,0.00292
1334.99153,0.00299
1332.93136,0.00307
1330.87119,0.00310
1328.81102,0.00306
1326.75084,0.00302
1324.69067,0.00302
1322.63050,0.00303
1320.57033,0.00307
1318.51015,0.00314
1316.44998,0.00319
1314.38981,0.00313
1312.32964,0.00299
1310.26947,0.00304
1308.20929,0.00339
1306.14912,0.00363
1304.08895,0.00347
1302.02878,0.00324
1299.96861,0.00324
1297.90843,0.00330
1295.84826,0.00325
1293.78809,0.00325
1291.72792,0.00331
1289.66775,0.00337
1287.60757,0.00343
1285.54740,0.00353
1283.48723,0.00371
1281.42706,0.00385
1279.36688,0.00389
1277.30671,0.00386
1275.24654,0.00381
1273.18637,0.00374
1271.12620,0.00374
1269.06602,0.00392
1267.00585,0.00409
1264.94568,0.00411
1262.88551,0.00405
1260.82534,0.00397
1258.76516,0.00395
1256.70499,0.00404
1254.64482,0.00419
1252.58465,0.00427
1250.52447,0.00418
1248.46430,0.00401
1246.40413,0.00384
1244.34396,0.00366
1242.28379,0.00344
1240.22361,0.00324
1238.16344,0.00311
1236.10327,0.00304
1234.04310,0.00304
1231.98293,0.00308
1229.92275,0.00303
1227.86258,0.00293
1225.80241,0.00288
1223.74224,0.00265
1221.68207,0.00224
1219.62189,0.00202
1217.56172,0.00198
1215.50155,0.00193
1213.44138,0.00180
1211.38120,0.00164
1209.32103,0.00150
1207.26086,0.00141
1205.20069,0.00133
1203.14052,0.00125
1201.08034,0.00117
1199.02017,0.00112
1196.96000,0.00116
1194.89983,0.00136
1192.83966,0.00156
1190.77948,0.00170
1188.71931,0.00186
1186.65914,0.00213
1184.59897,0.00253
1182.53880,0.00299
1180.47862,0.00348
1178.41845,0.00399
1176.35828,0.00458
1174.29811,0.00526
1172.23793,0.00582
1170.17776,0.00624
1168.11759,0.00686
1166.05742,0.00763
1163.99725,0.00837
1161.93707,0.00907
1159.87690,0.00971
1157.81673,0.01022
1155.75656,0.01071
1153.69639,0.01137
1151.63621,0.01218
1149.57604,0.01301
1147.51587,0.01375
1145.45570,0.01429
1143.39552,0.01483
1141.33535,0.01553
1139.27518,0.01629
1137.21501,0.01717
1135.15484,0.01823
1133.09466,0.01917
1131.03449,0.01989
1128.97432,0.02074
1126.91415,0.02185
1124.85398,0.02294
1122.79380,0.02391
1120.73363,0.02485
1118.67346,0.02584
1116.61329,0.02690
1114.55312,0.02796
1112.49294,0.02894
1110.43277,0.03004
1108.37260,0.03136
1106.31243,0.03260
1104.25225,0.03352
1102.19208,0.03436
1100.13191,0.03534
1098.07174,0.03633
1096.01157,0.03723
1093.95139,0.03818
1091.89122,0.03938
1089.83105,0.04067
1087.77088,0.04169
1085.71071,0.04247
1083.65053,0.04321
1081.59036,0.04394
1079.53019,0.04465
1077.47002,0.04529
1075.40985,0.04592
1073.34967,0.04648
1071.28950,0.04676
1069.22933,0.04687
1067.16916,0.04696
1065.10898,0.04696
1063.04881,0.04674
1060.98864,0.04618
1058.92847,0.04546
1056.86830,0.04498
1054.80812,0.04465
1052.74795,0.04416
1050.68778,0.04351
1048.62761,0.04270
1046.56744,0.04168
1044.50726,0.04053
1042.44709,0.03941
1040.38692,0.03835
1038.32675,0.03739
1036.26657,0.03663
1034.20640,0.03587
1032.14623,0.03488
1030.08606,0.03377
1028.02589,0.03287
1025.96571,0.03223
1023.90554,0.03154
1021.84537,0.03090
1019.78520,0.03039
1017.72503,0.02965
1015.66485,0.02873
1013.60468,0.02804
1011.54451,0.02769
1009.48434,0.02747
1007.42417,0.02719
1005.36399,0.02696
1003.30382,0.02695
1001.24365,0.02713
999.18348,0.02744
997.12330,0.02792
995.06313,0.02867
993.00296,0.02939
990.94279,0.02993
988.88262,0.03046
986.82244,0.03095
984.76227,0.03118
982.70210,0.03106
980.64193,0.03065
978.58176,0.03004
976.52158,0.02917
974.46141,0.02817
972.40124,0.02713
970.34107,0.02584
968.28089,0.02435
966.22072,0.02290
964.16055,0.02158
962.10038,0.02041
960.04021,0.01941
957.98003,0.01854
955.91986,0.01767
953.85969,0.01691
951.79952,0.01635
949.73935,0.01577
947.67917,0.01503
945.61900,0.01432
943.55883,0.01395
941.49866,0.01384
939.43849,0.01370
937.37831,0.01345
935.31814,0.01311
933.25797,0.01275
931.19780,0.01247
929.13762,0.01225
927.07745,0.01214
925.01728,0.01225
922.95711,0.01218
920.89694,0.01162
918.83676,0.01097
916.77659,0.01066
914.71642,0.01048
912.65625,0.00999
910.59608,0.00953
908.53590,0.00944
906.47573,0.00924
904.41556,0.00891
902.35539,0.00872
900.29522,0.00854
898.23504,0.00840
896.17487,0.00844
894.11470,0.00858
892.05453,0.00879
889.99435,0.00916
887.93418,0.00943
885.87401,0.00956
883.81384,0.00980
881.75367,0.01026
879.69349,0.01083
877.63332,0.01121
875.57315,0.01138
873.51298,0.01149
871.45281,0.01150
869.39263,0.01162
867.33246,0.01201
865.27229,0.01242
863.21212,0.01262
861.15194,0.01260
859.09177,0.01232
857.03160,0.01194
854.97143,0.01170
852.91126,0.01169
850.85108,0.01174
848.79091,0.01123
846.73074,0.01006
844.67057,0.00930
842.61040,0.00923
840.55022,0.00903
838.49005,0.00868
836.42988,0.00853
834.36971,0.00817
832.30954,0.00726
830.24936,0.00658
828.18919,0.00638
826.12902,0.00603
824.06885,0.00565
822.00867,0.00552
819.94850,0.00543
817.88833,0.00529
815.82816,0.00493
813.76799,0.00435
811.70781,0.00396
809.64764,0.00396
807.58747,0.00417
805.52730,0.00433
803.46713,0.00429
801.40695,0.00419
799.34678,0.00402
797.28661,0.00338
795.22644,0.00278
793.16627,0.00293
791.10609,0.00343
789.04592,0.00377
786.98575,0.00372
784.92558,0.00347
782.86540,0.00343
780.80523,0.00322
778.74506,0.00304
776.68489,0.00314
774.62472,0.00320
772.56454,0.00323
770.50437,0.00330
768.44420,0.00331
766.38403,0.00308
764.32386,0.00289
762.26368,0.00294
760.20351,0.00282
758.14334,0.00220
756.08317,0.00153
754.02299,0.00163
751.96282,0.00209
749.90265,0.00213
747.84248,0.00222
745.78231,0.00263
743.72213,0.00310
741.66196,0.00326
739.60179,0.00286
737.54162,0.00241
735.48145,0.00205
733.42127,0.00158
731.36110,0.00131
729.30093,0.00135
727.24076,0.00162
725.18059,0.00186
723.12041,0.00220
721.06024,0.00226
719.00007,0.00266
716.93990,0.00268
714.87972,0.00275
712.81955,0.00346
710.75938,0.00404
708.69921,0.00387
706.63904,0.00339
704.57886,0.00280
702.51869,0.00194
700.45852,0.00132
698.39835,0.00144
696.33818,0.00199
694.27800,0.00242
692.21783,0.00246
690.15766,0.00259
688.09749,0.00337
686.03731,0.00432
683.97714,0.00446
681.91697,0.00358
679.85680,0.00260
677.79663,0.00222
675.73645,0.00227
673.67628,0.00379
671.61611,0.00719
669.55594,0.00663
667.49577,0.00268
665.43559,0.00621
663.37542,0.00457
661.31525,0.00302
659.25508,0.00325
657.19491,0.00374
655.13473,0.00367
653.07456,0.00348
651.01439,0.00366
648.95422,0.00412
646.89404,0.00475
644.83387,0.00439
642.77370,0.00317
640.71353,0.00223
638.65336,0.00222
636.59318,0.00302
634.53301,0.00360
632.47284,0.00333
630.41267,0.00365
628.35250,0.00508
626.29232,0.00548
624.23215,0.00442
622.17198,0.00469
620.11181,0.00563
618.05164,0.00493
615.99146,0.00309
613.93129,0.00306
611.87112,0.00488
609.81095,0.00527
607.75077,0.00381
605.69060,0.00266
603.63043,0.00129
601.57026,0.00000
599.51009,0.00000
