3996.73391,0.00050
3994.67373,0.00072
3992.61356,0.00095
3990.55339,0.00124
3988.49322,0.00128
3986.43305,0.00099
3984.37287,0.00076
3982.31270,0.00075
3980.25253,0.00076
3978.19236,0.00056
3976.13219,0.00019
3974.07201,0.00000
3972.01184,0.00019
3969.95167,0.00059
3967.89150,0.00103
3965.83133,0.00132
3963.77115,0.00120
3961.71098,0.00089
3959.65081,0.00073
3957.59064,0.00065
3955.53046,0.00054
3953.47029,0.00052
3951.41012,0.00058
3949.34995,0.00061
3947.28978,0.00056
3945.22960,0.00047
3943.16943,0.00052
3941.10926,0.00074
3939.04909,0.00080
3936.98892,0.00076
3934.92874,0.00078
3932.86857,0.00081
3930.80840,0.00094
3928.74823,0.00119
3926.68805,0.00143
3924.62788,0.00148
3922.56771,0.00122
3920.50754,0.00090
3918.44737,0.00082
3916.38719,0.00095
3914.32702,0.00100
3912.26685,0.00094
3910.20668,0.00101
3908.14651,0.00127
3906.08633,0.00146
3904.02616,0.00135
3901.96599,0.00096
3899.90582,0.00067
3897.84565,0.00095
3895.78547,0.00153
3893.72530,0.00176
3891.66513,0.00128
3889.60496,0.00049
3887.54478,0.00005
3885.48461,0.00015
3883.42444,0.00063
3881.36427,0.00111
3879.30410,0.00127
3877.24392,0.00113
3875.18375,0.00092
3873.12358,0.00070
3871.06341,0.00051
3869.00324,0.00051
3866.94306,0.00063
3864.88289,0.00059
3862.82272,0.00050
3860.76255,0.00074
3858.70237,0.00126
3856.64220,0.00163
3854.58203,0.00150
3852.52186,0.00113
3850.46169,0.00103
3848.40151,0.00121
3846.34134,0.00144
3844.28117,0.00130
3842.22100,0.00076
3840.16083,0.00049
3838.10065,0.00082
3836.04048,0.00112
3833.98031,0.00094
3831.92014,0.00071
3829.85997,0.00090
3827.79979,0.00119
3825.73962,0.00113
3823.67945,0.00087
3821.61928,0.00068
3819.55910,0.00076
3817.49893,0.00109
3815.43876,0.00139
3813.37859,0.00143
3811.31842,0.00144
3809.25824,0.00158
3807.19807,0.00155
3805.13790,0.00117
3803.07773,0.00076
3801.01756,0.00080
3798.95738,0.00117
3796.89721,0.00130
3794.83704,0.00106
3792.77687,0.00081
3790.71670,0.00083
3788.65652,0.00098
3786.59635,0.00101
3784.53618,0.00088
3782.47601,0.00093
3780.41583,0.00121
3778.35566,0.00134
3776.29549,0.00117
3774.23532,0.00087
3772.17515,0.00053
3770.11497,0.00030
3768.05480,0.00046
3765.99463,0.00084
3763.93446,0.00112
3761.87429,0.00137
3759.81411,0.00170
3757.75394,0.00181
3755.69377,0.00144
3753.63360,0.00100
3751.57342,0.00090
3749.51325,0.00081
3747.45308,0.00034
3745.39291,0.00002
3743.33274,0.00056
3741.27256,0.00165
3739.21239,0.00232
3737.15222,0.00210
3735.09205,0.00138
3733.03188,0.00104
3730.97170,0.00110
3728.91153,0.00112
3726.85136,0.00093
3724.79119,0.00070
3722.73102,0.00077
3720.67084,0.00117
3718.61067,0.00142
3716.55050,0.00135
3714.49033,0.00122
3712.43015,0.00104
3710.36998,0.00093
3708.30981,0.00108
3706.24964,0.00125
3704.18947,0.00130
3702.12929,0.00130
3700.06912,0.00129
3698.00895,0.00142
3695.94878,0.00160
3693.88861,0.00153
3691.82843,0.00136
3689.76826,0.00155
3687.70809,0.00191
3685.64792,0.00185
3683.58775,0.00170
3681.52757,0.00187
3679.46740,0.00209
3677.40723,0.00192
3675.34706,0.00159
3673.28688,0.00158
3671.22671,0.00184
3669.16654,0.00207
3667.10637,0.00215
3665.04620,0.00228
3662.98602,0.00256
3660.92585,0.00274
3658.86568,0.00281
3656.80551,0.00320
3654.74534,0.00390
3652.68516,0.00440
3650.62499,0.00449
3648.56482,0.00439
3646.50465,0.00446
3644.44447,0.00490
3642.38430,0.00551
3640.32413,0.00593
3638.26396,0.00603
3636.20379,0.00610
3634.14361,0.00637
3632.08344,0.00672
3630.02327,0.00705
3627.96310,0.00759
3625.90293,0.00804
3623.84275,0.00813
3621.78258,0.00817
3619.72241,0.00833
3617.66224,0.00842
3615.60207,0.00851
3613.54189,0.00907
3611.48172,0.01023
3609.42155,0.01134
3607.36138,0.01173
3605.30120,0.01170
3603.24103,0.01193
3601.18086,0.01239
3599.12069,0.01269
3597.06052,0.01286
3595.00034,0.01325
3592.94017,0.01376
3590.88000,0.01404
3588.81983,0.01430
3586.75966,0.01485
3584.69948,0.01560
3582.63931,0.01632
3580.57914,0.01672
3578.51897,0.01667
3576.45879,0.01654
3574.39862,0.01669
3572.33845,0.01715
3570.27828,0.01780
3568.21811,0.01843
3566.15793,0.01889
3564.09776,0.01931
3562.03759,0.01969
3559.97742,0.01974
3557.91725,0.01967
3555.85707,0.01996
3553.79690,0.02054
3551.73673,0.02110
3549.67656,0.02137
3547.61639,0.02146
3545.55621,0.02186
3543.49604,0.02253
3541.43587,0.02287
3539.37570,0.02283
3537.31552,0.02278
3535.25535,0.02296
3533.19518,0.02339
3531.13501,0.02406
3529.07484,0.02497
3527.01466,0.02581
3524.95449,0.02629
3522.89432,0.02670
3520.83415,0.02711
3518.77398,0.02718
3516.71380,0.02706
3514.65363,0.02711
3512.59346,0.02741
3510.53329,0.02783
3508.47312,0.02821
3506.41294,0.02840
3504.35277,0.02837
3502.29260,0.02842
3500.23243,0.02886
3498.17225,0.02934
3496.11208,0.02949
3494.05191,0.02964
3491.99174,0.03001
3489.93157,0.03026
3487.87139,0.03047
3485.81122,0.03100
3483.75105,0.03159
3481.69088,0.03167
3479.63071,0.03147
3477.57053,0.03174
3475.51036,0.03243
3473.45019,0.03296
3471.39002,0.03320
3469.32984,0.03336
3467.26967,0.03347
3465.20950,0.03355
3463.14933,0.03365
3461.08916,0.03376
3459.02898,0.03405
3456.96881,0.03455
3454.90864,0.03505
3452.84847,0.03559
3450.78830,0.03608
3448.72812,0.03609
3446.66795,0.03585
3444.60778,0.03602
3442.54761,0.03652
3440.48744,0.03695
3438.42726,0.03744
3436.36709,0.03795
3434.30692,0.03811
3432.24675,0.03791
3430.18657,0.03758
3428.12640,0.03752
3426.06623,0.03785
3424.00606,0.03821
3421.94589,0.03841
3419.88571,0.03850
3417.82554,0.03860
3415.76537,0.03897
3413.70520,0.03936
3411.64503,0.03948
3409.58485,0.03955
3407.52468,0.03962
3405.46451,0.03973
3403.40434,0.04006
3401.34416,0.04046
3399.28399,0.04075
3397.22382,0.04096
3395.16365,0.04103
3393.10348,0.04115
3391.04330,0.04149
3388.98313,0.04168
3386.92296,0.04156
3384.86279,0.04158
3382.80262,0.04167
3380.74244,0.04159
3378.68227,0.04156
3376.62210,0.04160
3374.56193,0.04159
3372.50176,0.04166
3370.44158,0.04196
3368.38141,0.04217
3366.32124,0.04192
3364.26107,0.04153
3362.20089,0.04151
3360.14072,0.04169
3358.08055,0.04183
3356.02038,0.04208
3353.96021,0.04226
3351.90003,0.04221
3349.83986,0.04210
3347.77969,0.04205
3345.71952,0.04218
3343.65935,0.04239
3341.59917,0.04238
3339.53900,0.04222
3337.47883,0.04236
3335.41866,0.04278
3333.35849,0.04288
3331.29831,0.04257
3329.23814,0.04238
3327.17797,0.04259
3325.11780,0.04307
3323.05762,0.04341
3320.99745,0.04329
3318.93728,0.04287
3316.87711,0.04252
3314.81694,0.04227
3312.75676,0.04217
3310.69659,0.04244
3308.63642,0.04271
3306.57625,0.04259
3304.51608,0.04249
3302.45590,0.04265
3300.39573,0.04284
3298.33556,0.04287
3296.27539,0.04254
3294.21521,0.04217
3292.15504,0.04229
3290.09487,0.04265
3288.03470,0.04275
3285.97453,0.04255
3283.91435,0.04241
3281.85418,0.04246
3279.79401,0.04256
3277.73384,0.04274
3275.67367,0.04298
3273.61349,0.04303
3271.55332,0.04283
3269.49315,0.04258
3267.43298,0.04234
3265.37281,0.04231
3263.31263,0.04249
3261.25246,0.04246
3259.19229,0.04215
3257.13212,0.04191
3255.07194,0.04201
3253.01177,0.04242
3250.95160,0.04269
3248.89143,0.04261
3246.83126,0.04255
3244.77108,0.04261
3242.71091,0.04240
3240.65074,0.04205
3238.59057,0.04198
3236.53040,0.04197
3234.47022,0.04172
3232.41005,0.04136
3230.34988,0.04126
3228.28971,0.04146
3226.22954,0.04170
3224.16936,0.04188
3222.10919,0.04200
3220.04902,0.04199
3217.98885,0.04178
3215.92867,0.04148
3213.86850,0.04126
3211.80833,0.04123
3209.74816,0.04135
3207.68799,0.04136
3205.62781,0.04113
3203.56764,0.04082
3201.50747,0.04072
3199.44730,0.04078
3197.38713,0.04077
3195.32695,0.04075
3193.26678,0.04066
3191.20661,0.04034
3189.14644,0.03996
3187.08626,0.03972
3185.02609,0.03964
3182.96592,0.03960
3180.90575,0.03948
3178.84558,0.03943
3176.78540,0.03943
3174.72523,0.03924
3172.66506,0.03910
3170.60489,0.03905
3168.54472,0.03875
3166.48454,0.03843
3164.42437,0.03836
3162.36420,0.03828
3160.30403,0.03812
3158.24386,0.03797
3156.18368,0.03779
3154.12351,0.03773
3152.06334,0.03774
3150.00317,0.03766
3147.94299,0.03761
3145.88282,0.03745
3143.82265,0.03712
3141.76248,0.03684
3139.70231,0.03659
3137.64213,0.03626
3135.58196,0.03589
3133.52179,0.03569
3131.46162,0.03584
3129.40145,0.03605
3127.34127,0.03597
3125.28110,0.03578
3123.22093,0.03562
3121.16076,0.03536
3119.10058,0.03503
3117.04041,0.03481
3114.98024,0.03467
3112.92007,0.03446
3110.85990,0.03433
3108.79972,0.03427
3106.73955,0.03410
3104.67938,0.03395
3102.61921,0.03385
3100.55904,0.03361
3098.49886,0.03321
3096.43869,0.03287
3094.37852,0.03273
3092.31835,0.03274
3090.25818,0.03259
3088.19800,0.03218
3086.13783,0.03183
3084.07766,0.03180
3082.01749,0.03185
3079.95731,0.03175
3077.89714,0.03160
3075.83697,0.03148
3073.77680,0.03142
3071.71663,0.03149
3069.65645,0.03149
3067.59628,0.03120
3065.53611,0.03078
3063.47594,0.03037
3061.41577,0.02996
3059.35559,0.02982
3057.29542,0.02993
3055.23525,0.02984
3053.17508,0.02950
3051.11491,0.02917
3049.05473,0.02898
3046.99456,0.02882
3044.93439,0.02857
3042.87422,0.02836
3040.81404,0.02819
3038.75387,0.02798
3036.69370,0.02783
3034.63353,0.02774
3032.57336,0.02759
3030.51318,0.02737
3028.45301,0.02715
3026.39284,0.02691
3024.33267,0.02670
3022.27250,0.02657
3020.21232,0.02649
3018.15215,0.02636
3016.09198,0.02610
3014.03181,0.02583
3011.97163,0.02575
3009.91146,0.02564
3007.85129,0.02543
3005.79112,0.02533
3003.73095,0.02519
3001.67077,0.02482
2999.61060,0.02449
2997.55043,0.02439
2995.49026,0.02446
2993.43009,0.02448
2991.36991,0.02421
2989.30974,0.02389
2987.24957,0.02387
2985.18940,0.02390
2983.12923,0.02364
2981.06905,0.02332
2979.00888,0.02329
2976.94871,0.02335
2974.88854,0.02327
2972.82836,0.02317
2970.76819,0.02315
2968.70802,0.02313
2966.64785,0.02316
2964.58768,0.02334
2962.52750,0.02332
2960.46733,0.02303
2958.40716,0.02311
2956.34699,0.02352
2954.28682,0.02371
2952.22664,0.02364
2950.16647,0.02356
2948.10630,0.02351
2946.04613,0.02346
2943.98596,0.02345
2941.92578,0.02341
2939.86561,0.02331
2937.80544,0.02323
2935.74527,0.02304
2933.68509,0.02272
2931.62492,0.02275
2929.56475,0.02315
2927.50458,0.02326
2925.44441,0.02299
2923.38423,0.02273
2921.32406,0.02262
2919.26389,0.02260
2917.20372,0.02254
2915.14355,0.02239
2913.08337,0.02237
2911.02320,0.02240
2908.96303,0.02214
2906.90286,0.02175
2904.84268,0.02146
2902.78251,0.02116
2900.72234,0.02087
2898.66217,0.02083
2896.60200,0.02098
2894.54182,0.02115
2892.48165,0.02115
2890.42148,0.02094
2888.36131,0.02077
2886.30114,0.02078
2884.24096,0.02085
2882.18079,0.02077
2880.12062,0.02070
2878.06045,0.02081
2876.00028,0.02081
2873.94010,0.02052
2871.87993,0.02036
2869.81976,0.02046
2867.75959,0.02037
2865.69941,0.02001
2863.63924,0.01967
2861.57907,0.01959
2859.51890,0.01966
2857.45873,0.01955
2855.39855,0.01936
2853.33838,0.01939
2851.27821,0.01939
2849.21804,0.01921
2847.15787,0.01897
2845.09769,0.01874
2843.03752,0.01864
2840.97735,0.01854
2838.91718,0.01830
2836.85700,0.01802
2834.79683,0.01788
2832.73666,0.01790
2830.67649,0.01792
2828.61632,0.01781
2826.55614,0.01762
2824.49597,0.01745
2822.43580,0.01742
2820.37563,0.01754
2818.31546,0.01753
2816.25528,0.01722
2814.19511,0.01687
2812.13494,0.01666
2810.07477,0.01644
2808.01460,0.01625
2805.95442,0.01628
2803.89425,0.01625
2801.83408,0.01612
2799.77391,0.01624
2797.71373,0.01636
2795.65356,0.01621
2793.59339,0.01599
2791.53322,0.01585
2789.47305,0.01574
2787.41287,0.01563
2785.35270,0.01563
2783.29253,0.01563
2781.23236,0.01554
2779.17219,0.01561
2777.11201,0.01586
2775.05184,0.01587
2772.99167,0.01553
2770.93150,0.01521
2768.87133,0.01504
2766.81115,0.01500
2764.75098,0.01508
2762.69081,0.01514
2760.63064,0.01504
2758.57046,0.01487
2756.51029,0.01469
2754.45012,0.01460
2752.38995,0.01463
2750.32978,0.01471
2748.26960,0.01470
2746.20943,0.01450
2744.14926,0.01434
2742.08909,0.01432
2740.02892,0.01438
2737.96874,0.01440
2735.90857,0.01420
2733.84840,0.01395
2731.78823,0.01394
2729.72805,0.01398
2727.66788,0.01384
2725.60771,0.01369
2723.54754,0.01356
2721.48737,0.01339
2719.42719,0.01331
2717.36702,0.01330
2715.30685,0.01319
2713.24668,0.01295
2711.18651,0.01281
2709.12633,0.01279
2707.06616,0.01279
2705.00599,0.01272
2702.94582,0.01251
2700.88565,0.01238
2698.82547,0.01252
2696.76530,0.01264
2694.70513,0.01257
2692.64496,0.01248
2690.58478,0.01246
2688.52461,0.01242
2686.46444,0.01221
2684.40427,0.01195
2682.34410,0.01188
2680.28392,0.01196
2678.22375,0.01203
2676.16358,0.01200
2674.10341,0.01183
2672.04324,0.01165
2669.98306,0.01156
2667.92289,0.01149
2665.86272,0.01148
2663.80255,0.01155
2661.74238,0.01158
2659.68220,0.01154
2657.62203,0.01139
2655.56186,0.01123
2653.50169,0.01114
2651.44151,0.01101
2649.38134,0.01097
2647.32117,0.01099
2645.26100,0.01084
2643.20083,0.01060
2641.14065,0.01045
2639.08048,0.01038
2637.02031,0.01037
2634.96014,0.01039
2632.89997,0.01022
2630.83979,0.00999
2628.77962,0.00977
2626.71945,0.00939
2624.65928,0.00913
2622.59910,0.00925
2620.53893,0.00941
2618.47876,0.00936
2616.41859,0.00928
2614.35842,0.00920
2612.29824,0.00910
2610.23807,0.00913
2608.17790,0.00921
2606.11773,0.00923
2604.05756,0.00912
2601.99738,0.00887
2599.93721,0.00865
2597.87704,0.00854
2595.81687,0.00857
2593.75670,0.00877
2591.69652,0.00881
2589.63635,0.00854
2587.57618,0.00821
2585.51601,0.00799
2583.45583,0.00795
2581.39566,0.00793
2579.33549,0.00768
2577.27532,0.00736
2575.21515,0.00734
2573.15497,0.00745
2571.09480,0.00752
2569.03463,0.00777
2566.97446,0.00826
2564.91429,0.00875
2562.85411,0.00874
2560.79394,0.00829
2558.73377,0.00808
2556.67360,0.00816
2554.61342,0.00811
2552.55325,0.00791
2550.49308,0.00778
2548.43291,0.00780
2546.37274,0.00782
2544.31256,0.00769
2542.25239,0.00753
2540.19222,0.00767
2538.13205,0.00789
2536.07188,0.00784
2534.01170,0.00780
2531.95153,0.00785
2529.89136,0.00767
2527.83119,0.00748
2525.77102,0.00760
2523.71084,0.00780
2521.65067,0.00796
2519.59050,0.00808
2517.53033,0.00813
2515.47015,0.00807
2513.40998,0.00784
2511.34981,0.00769
2509.28964,0.00775
2507.22947,0.00778
2505.16929,0.00781
2503.10912,0.00779
2501.04895,0.00760
2498.98878,0.00733
2496.92861,0.00707
2494.86843,0.00705
2492.80826,0.00736
2490.74809,0.00775
2488.68792,0.00799
2486.62775,0.00802
2484.56757,0.00803
2482.50740,0.00822
2480.44723,0.00832
2478.38706,0.00813
2476.32688,0.00787
2474.26671,0.00765
2472.20654,0.00760
2470.14637,0.00777
2468.08620,0.00797
2466.02602,0.00805
2463.96585,0.00811
2461.90568,0.00831
2459.84551,0.00840
2457.78534,0.00825
2455.72516,0.00816
2453.66499,0.00821
2451.60482,0.00825
2449.54465,0.00839
2447.48447,0.00862
2445.42430,0.00882
2443.36413,0.00895
2441.30396,0.00890
2439.24379,0.00867
2437.18361,0.00855
2435.12344,0.00854
2433.06327,0.00837
2431.00310,0.00820
2428.94293,0.00832
2426.88275,0.00852
2424.82258,0.00850
2422.76241,0.00849
2420.70224,0.00879
2418.64207,0.00893
2416.58189,0.00873
2414.52172,0.00856
2412.46155,0.00844
2410.40138,0.00821
2408.34120,0.00790
2406.28103,0.00772
2404.22086,0.00777
2402.16069,0.00779
2400.10052,0.00757
2398.04034,0.00759
2395.98017,0.00789
2393.92000,0.00823
2391.85983,0.00835
2389.79966,0.00826
2387.73948,0.00820
2385.67931,0.00835
2383.61914,0.00852
2381.55897,0.00842
2379.49880,0.00803
2377.43862,0.00758
2375.37845,0.00722
2373.31828,0.00706
2371.25811,0.00748
2369.19793,0.00847
2367.13776,0.00837
2365.07759,0.00594
2363.01742,0.00364
2360.95725,0.00405
2358.89707,0.00564
2356.83690,0.00708
2354.77673,0.00847
2352.71656,0.00903
2350.65639,0.00893
2348.59621,0.00882
2346.53604,0.00865
2344.47587,0.00864
2342.41570,0.00913
2340.35552,0.00948
2338.29535,0.00910
2336.23518,0.00801
2334.17501,0.00692
2332.11484,0.00671
2330.05466,0.00716
2327.99449,0.00764
2325.93432,0.00819
2323.87415,0.00877
2321.81398,0.00868
2319.75380,0.00789
2317.69363,0.00721
2315.63346,0.00694
2313.57329,0.00703
2311.51312,0.00739
2309.45294,0.00775
2307.39277,0.00789
2305.33260,0.00796
2303.27243,0.00819
2301.21225,0.00851
2299.15208,0.00871
2297.09191,0.00870
2295.03174,0.00839
2292.97157,0.00800
2290.91139,0.00770
2288.85122,0.00736
2286.79105,0.00715
2284.73088,0.00708
2282.67071,0.00689
2280.61053,0.00665
2278.55036,0.00658
2276.49019,0.00652
2274.43002,0.00631
2272.36984,0.00609
2270.30967,0.00610
2268.24950,0.00629
2266.18933,0.00639
2264.12916,0.00645
2262.06898,0.00653
2260.00881,0.00637
2257.94864,0.00611
2255.88847,0.00614
2253.82830,0.00630
2251.76812,0.00627
2249.70795,0.00599
2247.64778,0.00565
2245.58761,0.00536
2243.52744,0.00503
2241.46726,0.00495
2239.40709,0.00526
2237.34692,0.00563
2235.28675,0.00575
2233.22657,0.00600
2231.16640,0.00688
2229.10623,0.00739
2227.04606,0.00660
2224.98589,0.00581
2222.92571,0.00608
2220.86554,0.00654
2218.80537,0.00644
2216.74520,0.00600
2214.68503,0.00569
2212.62485,0.00572
2210.56468,0.00563
2208.50451,0.00487
2206.44434,0.00427
2204.38417,0.00455
2202.32399,0.00483
2200.26382,0.00446
2198.20365,0.00448
2196.14348,0.00513
2194.08330,0.00563
2192.02313,0.00611
2189.96296,0.00588
2187.90279,0.00466
2185.84262,0.00416
2183.78244,0.00481
2181.72227,0.00536
2179.66210,0.00515
2177.60193,0.00396
2175.54176,0.00229
2173.48158,0.00134
2171.42141,0.00191
2169.36124,0.00374
2167.30107,0.00510
2165.24089,0.00535
2163.18072,0.00507
2161.12055,0.00443
2159.06038,0.00363
2157.00021,0.00228
2154.94003,0.00099
2152.87986,0.00110
2150.81969,0.00224
2148.75952,0.00294
2146.69935,0.00252
2144.63917,0.00206
2142.57900,0.00263
2140.51883,0.00312
2138.45866,0.00246
2136.39849,0.00146
2134.33831,0.00122
2132.27814,0.00167
2130.21797,0.00206
2128.15780,0.00243
2126.09762,0.00313
2124.03745,0.00382
2121.97728,0.00407
2119.91711,0.00394
2117.85694,0.00406
2115.79676,0.00443
2113.73659,0.00444
2111.67642,0.00421
2109.61625,0.00405
2107.55608,0.00384
2105.49590,0.00349
2103.43573,0.00317
2101.37556,0.00327
2099.31539,0.00347
2097.25521,0.00316
2095.19504,0.00278
2093.13487,0.00284
2091.07470,0.00301
2089.01453,0.00292
2086.95435,0.00282
2084.89418,0.00275
2082.83401,0.00247
2080.77384,0.00215
2078.71367,0.00232
2076.65349,0.00307
2074.59332,0.00369
2072.53315,0.00367
2070.47298,0.00340
2068.41281,0.00362
2066.35263,0.00448
2064.29246,0.00516
2062.23229,0.00465
2060.17212,0.00352
2058.11194,0.00315
2056.05177,0.00367
2053.99160,0.00433
2051.93143,0.00441
2049.87126,0.00410
2047.81108,0.00350
2045.75091,0.00230
2043.69074,0.00122
2041.63057,0.00137
2039.57040,0.00301
2037.51022,0.00487
2035.45005,0.00484
2033.38988,0.00277
2031.32971,0.00121
2029.26954,0.00096
2027.20936,0.00139
2025.14919,0.00228
2023.08902,0.00250
2021.02885,0.00198
2018.96867,0.00176
2016.90850,0.00216
2014.84833,0.00259
2012.78816,0.00220
2010.72799,0.00120
2008.66781,0.00070
2006.60764,0.00086
2004.54747,0.00106
2002.48730,0.00111
2000.42713,0.00118
1998.36695,0.00151
1996.30678,0.00126
1994.24661,0.00043
1992.18644,0.00066
1990.12626,0.00191
1988.06609,0.00257
1986.00592,0.00250
1983.94575,0.00275
1981.88558,0.00294
1979.82540,0.00180
1977.76523,0.00039
1975.70506,0.00026
1973.64489,0.00076
1971.58472,0.00077
1969.52454,0.00042
1967.46437,0.00090
1965.40420,0.00171
1963.34403,0.00136
1961.28386,0.00045
1959.22368,0.00017
1957.16351,0.00070
1955.10334,0.00117
1953.04317,0.00092
1950.98299,0.00098
1948.92282,0.00186
1946.86265,0.00261
1944.80248,0.00271
1942.74231,0.00237
1940.68213,0.00205
1938.62196,0.00232
1936.56179,0.00298
1934.50162,0.00332
1932.44145,0.00320
1930.38127,0.00284
1928.32110,0.00238
1926.26093,0.00225
1924.20076,0.00245
1922.14059,0.00247
1920.08041,0.00238
1918.02024,0.00237
1915.96007,0.00216
1913.89990,0.00208
1911.83972,0.00266
1909.77955,0.00335
1907.71938,0.00325
1905.65921,0.00264
1903.59904,0.00237
1901.53886,0.00241
1899.47869,0.00231
1897.41852,0.00211
1895.35835,0.00203
1893.29818,0.00214
1891.23800,0.00253
1889.17783,0.00294
1887.11766,0.00294
1885.05749,0.00275
1882.99731,0.00265
1880.93714,0.00254
1878.87697,0.00232
1876.81680,0.00211
1874.75663,0.00206
1872.69645,0.00209
1870.63628,0.00210
1868.57611,0.00221
1866.51594,0.00253
1864.45577,0.00294
1862.39559,0.00310
1860.33542,0.00296
1858.27525,0.00276
1856.21508,0.00265
1854.15491,0.00258
1852.09473,0.00252
1850.03456,0.00254
1847.97439,0.00273
1845.91422,0.00305
1843.85404,0.00314
1841.79387,0.00282
1839.73370,0.00257
1837.67353,0.00284
1835.61336,0.00331
1833.55318,0.00333
1831.49301,0.00282
1829.43284,0.00243
1827.37267,0.00261
1825.31250,0.00306
1823.25232,0.00329
1821.19215,0.00311
1819.13198,0.00269
1817.07181,0.00244
1815.01163,0.00257
1812.95146,0.00285
1810.89129,0.00303
1808.83112,0.00308
1806.77095,0.00309
1804.71077,0.00326
1802.65060,0.00358
1800.59043,0.00375
1798.53026,0.00363
1796.47009,0.00330
1794.40991,0.00304
1792.34974,0.00309
1790.28957,0.00330
1788.22940,0.00327
1786.16923,0.00311
1784.10905,0.00313
1782.04888,0.00334
1779.98871,0.00358
1777.92854,0.00375
1775.86836,0.00375
1773.80819,0.00360
1771.74802,0.00347
1769.68785,0.00354
1767.62768,0.00375
1765.56750,0.00398
1763.50733,0.00415
1761.44716,0.00426
1759.38699,0.00432
1757.32682,0.00433
1755.26664,0.00434
1753.20647,0.00438
1751.14630,0.00448
1749.08613,0.00465
1747.02596,0.00488
1744.96578,0.00523
1742.90561,0.00559
1740.84544,0.00577
1738.78527,0.00583
1736.72509,0.00596
1734.66492,0.00618
1732.60475,0.00635
1730.54458,0.00639
1728.48441,0.00644
1726.42423,0.00656
1724.36406,0.00661
1722.30389,0.00650
1720.24372,0.00634
1718.18355,0.00648
1716.12337,0.00703
1714.06320,0.00748
1712.00303,0.00759
1709.94286,0.00760
1707.88268,0.00768
1705.82251,0.00797
1703.76234,0.00842
1701.70217,0.00881
1699.64200,0.00918
1697.58182,0.00946
1695.52165,0.00964
1693.46148,0.00976
1691.40131,0.00987
1689.34114,0.01003
1687.28096,0.01013
1685.22079,0.01041
1683.16062,0.01133
1681.10045,0.01234
1679.04028,0.01281
1676.98010,0.01298
1674.91993,0.01328
1672.85976,0.01376
1670.79959,0.01431
1668.73941,0.01482
1666.67924,0.01505
1664.61907,0.01520
1662.55890,0.01561
1660.49873,0.01605
1658.43855,0.01617
1656.37838,0.01603
1654.31821,0.01598
1652.25804,0.01622
1650.19787,0.01633
1648.13769,0.01643
1646.07752,0.01685
1644.01735,0.01714
1641.95718,0.01702
1639.89701,0.01679
1637.83683,0.01668
1635.77666,0.01688
1633.71649,0.01718
1631.65632,0.01723
1629.59614,0.01714
1627.53597,0.01695
1625.47580,0.01668
1623.41563,0.01647
1621.35546,0.01636
1619.29528,0.01625
1617.23511,0.01621
1615.17494,0.01618
1613.11477,0.01597
1611.05460,0.01568
1608.99442,0.01549
1606.93425,0.01541
1604.87408,0.01537
1602.81391,0.01517
1600.75373,0.01474
1598.69356,0.01423
1596.63339,0.01380
1594.57322,0.01344
1592.51305,0.01306
1590.45287,0.01258
1588.39270,0.01207
1586.33253,0.01162
1584.27236,0.01125
1582.21219,0.01095
1580.15201,0.01065
1578.09184,0.01031
1576.03167,0.00988
1573.97150,0.00932
1571.91133,0.00877
1569.85115,0.00856
1567.79098,0.00862
1565.73081,0.00849
1563.67064,0.00806
1561.61046,0.00758
1559.55029,0.00735
1557.49012,0.00742
1555.42995,0.00731
1553.36978,0.00698
1551.30960,0.00666
1549.24943,0.00644
1547.18926,0.00628
1545.12909,0.00609
1543.06892,0.00590
1541.00874,0.00583
1538.94857,0.00577
1536.88840,0.00557
1534.82823,0.00534
1532.76805,0.00513
1530.70788,0.00483
1528.64771,0.00440
1526.58754,0.00416
1524.52737,0.00437
1522.46719,0.00469
1520.40702,0.00469
1518.34685,0.00444
1516.28668,0.00426
1514.22651,0.00413
1512.16633,0.00394
1510.10616,0.00371
1508.04599,0.00354
1505.98582,0.00358
1503.92565,0.00366
1501.86547,0.00356
1499.80530,0.00340
1497.74513,0.00342
1495.68496,0.00358
1493.62478,0.00357
1491.56461,0.00341
1489.50444,0.00328
1487.44427,0.00332
1485.38410,0.00345
1483.32392,0.00356
1481.26375,0.00357
1479.20358,0.00352
1477.14341,0.00347
1475.08324,0.00354
1473.02306,0.00397
1470.96289,0.00462
1468.90272,0.00502
1466.84255,0.00512
1464.78238,0.00507
1462.72220,0.00489
1460.66203,0.00463
1458.60186,0.00463
1456.54169,0.00515
1454.48151,0.00560
1452.42134,0.00557
1450.36117,0.00537
1448.30100,0.00528
1446.24083,0.00526
1444.18065,0.00525
1442.12048,0.00517
1440.06031,0.00503
1438.00014,0.00502
1435.93997,0.00535
1433.87979,0.00574
1431.81962,0.00590
1429.75945,0.00591
1427.69928,0.00593
1425.63910,0.00601
1423.57893,0.00611
1421.51876,0.00624
1419.45859,0.00655
1417.39842,0.00697
1415.33824,0.00705
1413.27807,0.00683
1411.21790,0.00670
1409.15773,0.00680
1407.09756,0.00690
1405.03738,0.00685
1402.97721,0.00659
1400.91704,0.00620
1398.85687,0.00594
1396.79670,0.00590
1394.73652,0.00585
1392.67635,0.00573
1390.61618,0.00569
1388.55601,0.00574
1386.49583,0.00574
1384.43566,0.00565
1382.37549,0.00561
1380.31532,0.00564
1378.25515,0.00566
1376.19497,0.00570
1374.13480,0.00579
1372.07463,0.00581
1370.01446,0.00569
1367.95429,0.00550
1365.89411,0.00533
1363.83394,0.00523
1361.77377,0.00521
1359.71360,0.00520
1357.65343,0.00511
1355.59325,0.00496
1353.53308,0.00476
1351.47291,0.00454
1349.41274,0.00436
1347.35256,0.00429
1345.29239,0.00424
1343.23222,0.00419
1341.17205,0.00419
1339.11188,0.00414
1337.05170,0.00393
1334.99153,0.00371
1332.93136,0.00365
1330.87119,0.00367
1328.81102,0.00369
1326.75084,0.00373
1324.69067,0.00384
1322.63050,0.00393
1320.57033,0.00388
1318.51015,0.00377
1316.44998,0.00368
1314.38981,0.00366
1312.32964,0.00366
1310.26947,0.00361
1308.20929,0.00357
1306.14912,0.00371
1304.08895,0.00388
1302.02878,0.00384
1299.96861,0.00370
1297.90843,0.00364
1295.84826,0.00370
1293.78809,0.00378
1291.72792,0.00387
1289.66775,0.00398
1287.60757,0.00399
1285.54740,0.00391
1283.48723,0.00387
1281.42706,0.00394
1279.36688,0.00401
1277.30671,0.00403
1275.24654,0.00410
1273.18637,0.00428
1271.12620,0.00443
1269.06602,0.00444
1267.00585,0.00444
1264.94568,0.00455
1262.88551,0.00464
1260.82534,0.00461
1258.76516,0.00455
1256.70499,0.00447
1254.64482,0.00437
1252.58465,0.00439
1250.52447,0.00451
1248.46430,0.00457
1246.40413,0.00448
1244.34396,0.00422
1242.28379,0.00400
1240.22361,0.00390
1238.16344,0.00385
1236.10327,0.00381
1234.04310,0.00362
1231.98293,0.00337
1229.92275,0.00325
1227.86258,0.00317
1225.80241,0.00305
1223.74224,0.00286
1221.68207,0.00265
1219.62189,0.00250
1217.56172,0.00233
1215.50155,0.00213
1213.44138,0.00196
1211.38120,0.00183
1209.32103,0.00173
1207.26086,0.00164
1205.20069,0.00155
1203.14052,0.00157
1201.08034,0.00166
1199.02017,0.00165
1196.96000,0.00156
1194.89983,0.00154
1192.83966,0.00164
1190.77948,0.00185
1188.71931,0.00213
1186.65914,0.00250
1184.59897,0.00300
1182.53880,0.00346
1180.47862,0.00385
1178.41845,0.00434
1176.35828,0.00495
1174.29811,0.00557
1172.23793,0.00624
1170.17776,0.00696
1168.11759,0.00764
1166.05742,0.00836
1163.99725,0.00921
1161.93707,0.01003
1159.87690,0.01067
1157.81673,0.01113
1155.75656,0.01150
1153.69639,0.01195
1151.63621,0.01254
1149.57604,0.01329
1147.51587,0.01412
1145.45570,0.01483
1143.39552,0.01536
1141.33535,0.01583
1139.27518,0.01637
1137.21501,0.01707
1135.15484,0.01793
1133.09466,0.01885
1131.03449,0.01977
1128.97432,0.02065
1126.91415,0.02149
1124.85398,0.02231
1122.79380,0.02306
1120.73363,0.02376
1118.67346,0.02447
1116.61329,0.02540
1114.55312,0.02655
1112.49294,0.02772
1110.43277,0.02881
1108.37260,0.02982
1106.31243,0.03080
1104.25225,0.03175
1102.19208,0.03268
1100.13191,0.03357
1098.07174,0.03442
1096.01157,0.03529
1093.95139,0.03618
1091.89122,0.03724
1089.83105,0.03835
1087.77088,0.03918
1085.71071,0.03991
1083.65053,0.04060
1081.59036,0.04117
1079.53019,0.04173
1077.47002,0.04230
1075.40985,0.04281
1073.34967,0.04328
1071.28950,0.04353
1069.22933,0.04350
1067.16916,0.04362
1065.10898,0.04393
1063.04881,0.04397
1060.98864,0.04363
1058.92847,0.04310
1056.86830,0.04256
1054.80812,0.04221
1052.74795,0.04198
1050.68778,0.04172
1048.62761,0.04125
1046.56744,0.04043
1044.50726,0.03954
1042.44709,0.03888
1040.38692,0.03826
1038.32675,0.03755
1036.26657,0.03687
1034.20640,0.03619
1032.14623,0.03512
1030.08606,0.03384
1028.02589,0.03283
1025.96571,0.03208
1023.90554,0.03132
1021.84537,0.03042
1019.78520,0.02957
1017.72503,0.02890
1015.66485,0.02813
1013.60468,0.02723
1011.54451,0.02633
1009.48434,0.02541
1007.42417,0.02479
1005.36399,0.02462
1003.30382,0.02462
1001.24365,0.02462
999.18348,0.02483
997.12330,0.02531
995.06313,0.02590
993.00296,0.02650
990.94279,0.02689
988.88262,0.02711
986.82244,0.02732
984.76227,0.02730
982.70210,0.02694
980.64193,0.02639
978.58176,0.02594
976.52158,0.02551
974.46141,0.02470
972.40124,0.02348
970.34107,0.02213
968.28089,0.02092
966.22072,0.01997
964.16055,0.01898
962.10038,0.01795
960.04021,0.01708
957.98003,0.01628
955.91986,0.01558
953.85969,0.01483
951.79952,0.01394
949.73935,0.01318
947.67917,0.01276
945.61900,0.01267
943.55883,0.01270
941.49866,0.01264
939.43849,0.01248
937.37831,0.01232
935.31814,0.01214
933.25797,0.01187
931.19780,0.01158
929.13762,0.01123
927.07745,0.01085
925.01728,0.01064
922.95711,0.01063
920.89694,0.01052
918.83676,0.01018
916.77659,0.00970
914.71642,0.00923
912.65625,0.00865
910.59608,0.00791
908.53590,0.00746
906.47573,0.00755
904.41556,0.00785
902.35539,0.00800
900.29522,0.00807
898.23504,0.00830
896.17487,0.00862
894.11470,0.00864
892.05453,0.00837
889.99435,0.00846
887.93418,0.00873
885.87401,0.00878
883.81384,0.00896
881.75367,0.00928
879.69349,0.00959
877.63332,0.00999
875.57315,0.01045
873.51298,0.01090
871.45281,0.01092
869.39263,0.01071
867.33246,0.01094
865.27229,0.01136
863.21212,0.01136
861.15194,0.01111
859.09177,0.01116
857.03160,0.01134
854.97143,0.01119
852.91126,0.01092
850.85108,0.01082
848.79091,0.01067
846.73074,0.01036
844.67057,0.01008
842.61040,0.00977
840.55022,0.00930
838.49005,0.00868
836.42988,0.00792
834.36971,0.00721
832.30954,0.00695
830.24936,0.00722
828.18919,0.00744
826.12902,0.00742
824.06885,0.00737
822.00867,0.00694
819.94850,0.00618
817.88833,0.00564
815.82816,0.00559
813.76799,0.00581
811.70781,0.00580
809.64764,0.00544
807.58747,0.00513
805.52730,0.00499
803.46713,0.00483
801.40695,0.00480
799.34678,0.00485
797.28661,0.00486
795.22644,0.00503
793.16627,0.00517
791.10609,0.00508
789.04592,0.00511
786.98575,0.00524
784.92558,0.00517
782.86540,0.00491
780.80523,0.00450
778.74506,0.00426
776.68489,0.00426
774.62472,0.00411
772.56454,0.00392
770.50437,0.00404
768.44420,0.00433
766.38403,0.00420
764.32386,0.00392
762.26368,0.00416
760.20351,0.00459
758.14334,0.00456
756.08317,0.00395
754.02299,0.00346
751.96282,0.00354
749.90265,0.00388
747.84248,0.00404
745.78231,0.00363
743.72213,0.00284
741.66196,0.00228
739.60179,0.00233
737.54162,0.00288
735.48145,0.00339
733.42127,0.00362
731.36110,0.00383
729.30093,0.00411
727.24076,0.00424
725.18059,0.00413
723.12041,0.00430
721.06024,0.00490
719.00007,0.00522
716.93990,0.00484
714.87972,0.00421
712.81955,0.00385
710.75938,0.00373
708.69921,0.00355
706.63904,0.00359
704.57886,0.00400
702.51869,0.00429
700.45852,0.00436
698.39835,0.00425
696.33818,0.00381
694.27800,0.00351
692.21783,0.00380
690.15766,0.00415
688.09749,0.00421
686.03731,0.00444
683.97714,0.00471
681.91697,0.00451
679.85680,0.00418
677.79663,0.00419
675.73645,0.00424
673.67628,0.00388
671.61611,0.00288
669.55594,0.00126
667.49577,0.00028
665.43559,0.00079
663.37542,0.00197
661.31525,0.00350
659.25508,0.00419
657.19491,0.00336
655.13473,0.00264
653.07456,0.00318
651.01439,0.00391
648.95422,0.00397
646.89404,0.00389
644.83387,0.00420
642.77370,0.00478
640.71353,0.00546
638.65336,0.00568
636.59318,0.00508
634.53301,0.00422
632.47284,0.00343
630.41267,0.00316
628.35250,0.00377
626.29232,0.00405
624.23215,0.00303
622.17198,0.00162
620.11181,0.00029
618.05164,0.00082
615.99146,0.00339
613.93129,0.00468
611.87112,0.00423
609.81095,0.00308
607.75077,0.00205
605.69060,0.00140
603.63043,0.00038
601.57026,0.00000
599.51009,0.00000
