3996.73391,0.00127
3994.67373,0.00086
3992.61356,0.00028
3990.55339,0.00000
3988.49322,0.00002
3986.43305,0.00043
3984.37287,0.00093
3982.31270,0.00104
3980.25253,0.00095
3978.19236,0.00118
3976.13219,0.00156
3974.07201,0.00154
3972.01184,0.00126
3969.95167,0.00116
3967.89150,0.00117
3965.83133,0.00113
3963.77115,0.00134
3961.71098,0.00162
3959.65081,0.00147
3957.59064,0.00108
3955.53046,0.00082
3953.47029,0.00079
3951.41012,0.00099
3949.34995,0.00142
3947.28978,0.00173
3945.22960,0.00186
3943.16943,0.00180
3941.10926,0.00145
3939.04909,0.00135
3936.98892,0.00135
3934.92874,0.00139
3932.86857,0.00176
3930.80840,0.00169
3928.74823,0.00108
3926.68805,0.00102
3924.62788,0.00146
3922.56771,0.00170
3920.50754,0.00201
3918.44737,0.00214
3916.38719,0.00162
3914.32702,0.00120
3912.26685,0.00143
3910.20668,0.00149
3908.14651,0.00145
3906.08633,0.00193
3904.02616,0.00202
3901.96599,0.00142
3899.90582,0.00114
3897.84565,0.00050
3895.78547,0.00002
3893.72530,0.00086
3891.66513,0.00181
3889.60496,0.00157
3887.54478,0.00207
3885.48461,0.00283
3883.42444,0.00242
3881.36427,0.00254
3879.30410,0.00208
3877.24392,0.00132
3875.18375,0.00164
3873.12358,0.00172
3871.06341,0.00184
3869.00324,0.00129
3866.94306,0.00071
3864.88289,0.00167
3862.82272,0.00212
3860.76255,0.00160
3858.70237,0.00118
3856.64220,0.00230
3854.58203,0.00452
3852.52186,0.00372
3850.46169,0.00096
3848.40151,0.00009
3846.34134,0.00053
3844.28117,0.00094
3842.22100,0.00085
3840.16083,0.00110
3838.10065,0.00144
3836.04048,0.00109
3833.98031,0.00112
3831.92014,0.00154
3829.85997,0.00157
3827.79979,0.00170
3825.73962,0.00163
3823.67945,0.00204
3821.61928,0.00259
3819.55910,0.00095
3817.49893,0.00052
3815.43876,0.00118
3813.37859,0.00073
3811.31842,0.00083
3809.25824,0.00184
3807.19807,0.00234
3805.13790,0.00152
3803.07773,0.00204
3801.01756,0.00264
3798.95738,0.00173
3796.89721,0.00158
3794.83704,0.00132
3792.77687,0.00112
3790.71670,0.00150
3788.65652,0.00191
3786.59635,0.00212
3784.53618,0.00171
3782.47601,0.00125
3780.41583,0.00163
3778.35566,0.00151
3776.29549,0.00090
3774.23532,0.00097
3772.17515,0.00158
3770.11497,0.00193
3768.05480,0.00159
3765.99463,0.00132
3763.93446,0.00080
3761.87429,0.00102
3759.81411,0.00188
3757.75394,0.00149
3755.69377,0.00071
3753.63360,0.00139
3751.57342,0.00242
3749.51325,0.00160
3747.45308,0.00131
3745.39291,0.00324
3743.33274,0.00262
3741.27256,0.00033
3739.21239,0.00049
3737.15222,0.00214
3735.09205,0.00263
3733.03188,0.00147
3730.97170,0.00045
3728.91153,0.00066
3726.85136,0.00155
3724.79119,0.00156
3722.73102,0.00136
3720.67084,0.00169
3718.61067,0.00199
3716.55050,0.00190
3714.49033,0.00211
3712.43015,0.00261
3710.36998,0.00212
3708.30981,0.00113
3706.24964,0.00110
3704.18947,0.00184
3702.12929,0.00230
3700.06912,0.00188
3698.00895,0.00161
3695.94878,0.00190
3693.88861,0.00237
3691.82843,0.00324
3689.76826,0.00382
3687.70809,0.00311
3685.64792,0.00227
3683.58775,0.00250
3681.52757,0.00303
3679.46740,0.00355
3677.40723,0.00465
3675.34706,0.00473
3673.28688,0.00310
3671.22671,0.00409
3669.16654,0.00544
3667.10637,0.00507
3665.04620,0.00548
3662.98602,0.00651
3660.92585,0.00720
3658.86568,0.00804
3656.80551,0.00893
3654.74534,0.00872
3652.68516,0.00905
3650.62499,0.01080
3648.56482,0.01177
3646.50465,0.01162
3644.44447,0.01184
3642.38430,0.01296
3640.32413,0.01418
3638.26396,0.01521
3636.20379,0.01594
3634.14361,0.01621
3632.08344,0.01654
3630.02327,0.01802
3627.96310,0.01868
3625.90293,0.01832
3623.84275,0.01922
3621.78258,0.02113
3619.72241,0.02275
3617.66224,0.02294
3615.60207,0.02326
3613.54189,0.02464
3611.48172,0.02583
3609.42155,0.02692
3607.36138,0.02740
3605.30120,0.02752
3603.24103,0.02876
3601.18086,0.03032
3599.12069,0.03096
3597.06052,0.03132
3595.00034,0.03206
3592.94017,0.03273
3590.88000,0.03400
3588.81983,0.03624
3586.75966,0.03756
3584.69948,0.03755
3582.63931,0.03808
3580.57914,0.03916
3578.51897,0.04003
3576.45879,0.04076
3574.39862,0.04153
3572.33845,0.04245
3570.27828,0.04408
3568.21811,0.04606
3566.15793,0.04666
3564.09776,0.04631
3562.03759,0.04689
3559.97742,0.04810
3557.91725,0.04915
3555.85707,0.05014
3553.79690,0.05125
3551.73673,0.05212
3549.67656,0.05277
3547.61639,0.05385
3545.55621,0.05506
3543.49604,0.05588
3541.43587,0.05669
3539.37570,0.05770
3537.31552,0.05867
3535.25535,0.05941
3533.19518,0.06005
3531.13501,0.06078
3529.07484,0.06163
3527.01466,0.06278
3524.95449,0.06425
3522.89432,0.06550
3520.83415,0.06620
3518.77398,0.06678
3516.71380,0.06738
3514.65363,0.06795
3512.59346,0.06864
3510.53329,0.06942
3508.47312,0.06991
3506.41294,0.07047
3504.35277,0.07183
3502.29260,0.07328
3500.23243,0.07411
3498.17225,0.07472
3496.11208,0.07535
3494.05191,0.07606
3491.99174,0.07702
3489.93157,0.07811
3487.87139,0.07885
3485.81122,0.07930
3483.75105,0.08008
3481.69088,0.08104
3479.63071,0.08171
3477.57053,0.08242
3475.51036,0.08309
3473.45019,0.08339
3471.39002,0.08382
3469.32984,0.08464
3467.26967,0.08550
3465.20950,0.08622
3463.14933,0.08692
3461.08916,0.08762
3459.02898,0.08845
3456.96881,0.08932
3454.90864,0.08992
3452.84847,0.09022
3450.78830,0.09056
3448.72812,0.09130
3446.66795,0.09192
3444.60778,0.09216
3442.54761,0.09281
3440.48744,0.09382
3438.42726,0.09476
3436.36709,0.09554
3434.30692,0.09623
3432.24675,0.09676
3430.18657,0.09696
3428.12640,0.09702
3426.06623,0.09730
3424.00606,0.09795
3421.94589,0.09876
3419.88571,0.09916
3417.82554,0.09925
3415.76537,0.09962
3413.70520,0.10012
3411.64503,0.10042
3409.58485,0.10070
3407.52468,0.10114
3405.46451,0.10176
3403.40434,0.10247
3401.34416,0.10295
3399.28399,0.10336
3397.22382,0.10359
3395.16365,0.10373
3393.10348,0.10401
3391.04330,0.10432
3388.98313,0.10466
3386.92296,0.10524
3384.86279,0.10556
3382.80262,0.10545
3380.74244,0.10569
3378.68227,0.10616
3376.62210,0.10634
3374.56193,0.10651
3372.50176,0.10685
3370.44158,0.10722
3368.38141,0.10759
3366.32124,0.10773
3364.26107,0.10752
3362.20089,0.10762
3360.14072,0.10828
3358.08055,0.10870
3356.02038,0.10844
3353.96021,0.10804
3351.90003,0.10805
3349.83986,0.10825
3347.77969,0.10829
3345.71952,0.10822
3343.65935,0.10810
3341.59917,0.10793
3339.53900,0.10776
3337.47883,0.10771
3335.41866,0.10790
3333.35849,0.10816
3331.29831,0.10821
3329.23814,0.10822
3327.17797,0.10848
3325.11780,0.10866
3323.05762,0.10841
3320.99745,0.10809
3318.93728,0.10782
3316.87711,0.10741
3314.81694,0.10721
3312.75676,0.10717
3310.69659,0.10699
3308.63642,0.10694
3306.57625,0.10720
3304.51608,0.10755
3302.45590,0.10774
3300.39573,0.10797
3298.33556,0.10812
3296.27539,0.10781
3294.21521,0.10754
3292.15504,0.10796
3290.09487,0.10847
3288.03470,0.10847
3285.97453,0.10801
3283.91435,0.10723
3281.85418,0.10657
3279.79401,0.10653
3277.73384,0.10710
3275.67367,0.10765
3273.61349,0.10763
3271.55332,0.10728
3269.49315,0.10710
3267.43298,0.10714
3265.37281,0.10741
3263.31263,0.10776
3261.25246,0.10780
3259.19229,0.10754
3257.13212,0.10743
3255.07194,0.10760
3253.01177,0.10758
3250.95160,0.10711
3248.89143,0.10641
3246.83126,0.10621
3244.77108,0.10671
3242.71091,0.10697
3240.65074,0.10660
3238.59057,0.10616
3236.53040,0.10607
3234.47022,0.10612
3232.41005,0.10600
3230.34988,0.10567
3228.28971,0.10537
3226.22954,0.10516
3224.16936,0.10504
3222.10919,0.10496
3220.04902,0.10475
3217.98885,0.10439
3215.92867,0.10409
3213.86850,0.10380
3211.80833,0.10342
3209.74816,0.10317
3207.68799,0.10292
3205.62781,0.10247
3203.56764,0.10197
3201.50747,0.10159
3199.44730,0.10132
3197.38713,0.10107
3195.32695,0.10077
3193.26678,0.10035
3191.20661,0.09988
3189.14644,0.09951
3187.08626,0.09925
3185.02609,0.09885
3182.96592,0.09838
3180.90575,0.09805
3178.84558,0.09770
3176.78540,0.09745
3174.72523,0.09741
3172.66506,0.09708
3170.60489,0.09642
3168.54472,0.09587
3166.48454,0.09548
3164.42437,0.09511
3162.36420,0.09460
3160.30403,0.09398
3158.24386,0.09371
3156.18368,0.09378
3154.12351,0.09354
3152.06334,0.09290
3150.00317,0.09224
3147.94299,0.09178
3145.88282,0.09144
3143.82265,0.09106
3141.76248,0.09044
3139.70231,0.08970
3137.64213,0.08918
3135.58196,0.08891
3133.52179,0.08850
3131.46162,0.08786
3129.40145,0.08736
3127.34127,0.08703
3125.28110,0.08658
3123.22093,0.08605
3121.16076,0.08563
3119.10058,0.08528
3117.04041,0.08498
3114.98024,0.08479
3112.92007,0.08443
3110.85990,0.08372
3108.79972,0.08315
3106.73955,0.08287
3104.67938,0.08250
3102.61921,0.08211
3100.55904,0.08158
3098.49886,0.08080
3096.43869,0.08022
3094.37852,0.07989
3092.31835,0.07951
3090.25818,0.07885
3088.19800,0.07809
3086.13783,0.07770
3084.07766,0.07751
3082.01749,0.07714
3079.95731,0.07649
3077.89714,0.07569
3075.83697,0.07508
3073.77680,0.07482
3071.71663,0.07444
3069.65645,0.07367
3067.59628,0.07301
3065.53611,0.07253
3063.47594,0.07203
3061.41577,0.07158
3059.35559,0.07120
3057.29542,0.07075
3055.23525,0.07001
3053.17508,0.06933
3051.11491,0.06908
3049.05473,0.06887
3046.99456,0.06833
3044.93439,0.06769
3042.87422,0.06727
3040.81404,0.06702
3038.75387,0.06664
3036.69370,0.06607
3034.63353,0.06539
3032.57336,0.06472
3030.51318,0.06420
3028.45301,0.06384
3026.39284,0.06344
3024.33267,0.06276
3022.27250,0.06207
3020.21232,0.06156
3018.15215,0.06099
3016.09198,0.06049
3014.03181,0.06032
3011.97163,0.06018
3009.91146,0.05971
3007.85129,0.05901
3005.79112,0.05839
3003.73095,0.05796
3001.67077,0.05750
2999.61060,0.05690
2997.55043,0.05640
2995.49026,0.05616
2993.43009,0.05610
2991.36991,0.05586
2989.30974,0.05513
2987.24957,0.05435
2985.18940,0.05404
2983.12923,0.05402
2981.06905,0.05384
2979.00888,0.05342
2976.94871,0.05303
2974.88854,0.05303
2972.82836,0.05319
2970.76819,0.05305
2968.70802,0.05290
2966.64785,0.05300
2964.58768,0.05297
2962.52750,0.05286
2960.46733,0.05282
2958.40716,0.05260
2956.34699,0.05238
2954.28682,0.05241
2952.22664,0.05234
2950.16647,0.05222
2948.10630,0.05226
2946.04613,0.05219
2943.98596,0.05201
2941.92578,0.05212
2939.86561,0.05231
2937.80544,0.05229
2935.74527,0.05223
2933.68509,0.05208
2931.62492,0.05169
2929.56475,0.05132
2927.50458,0.05109
2925.44441,0.05080
2923.38423,0.05047
2921.32406,0.05020
2919.26389,0.04993
2917.20372,0.04972
2915.14355,0.04935
2913.08337,0.04863
2911.02320,0.04802
2908.96303,0.04790
2906.90286,0.04794
2904.84268,0.04771
2902.78251,0.04729
2900.72234,0.04705
2898.66217,0.04694
2896.60200,0.04680
2894.54182,0.04670
2892.48165,0.04665
2890.42148,0.04648
2888.36131,0.04618
2886.30114,0.04585
2884.24096,0.04544
2882.18079,0.04497
2880.12062,0.04456
2878.06045,0.04434
2876.00028,0.04434
2873.94010,0.04425
2871.87993,0.04382
2869.81976,0.04352
2867.75959,0.04351
2865.69941,0.04313
2863.63924,0.04235
2861.57907,0.04176
2859.51890,0.04141
2857.45873,0.04114
2855.39855,0.04098
2853.33838,0.04080
2851.27821,0.04045
2849.21804,0.03997
2847.15787,0.03950
2845.09769,0.03911
2843.03752,0.03872
2840.97735,0.03831
2838.91718,0.03789
2836.85700,0.03752
2834.79683,0.03727
2832.73666,0.03704
2830.67649,0.03671
2828.61632,0.03633
2826.55614,0.03601
2824.49597,0.03585
2822.43580,0.03579
2820.37563,0.03552
2818.31546,0.03504
2816.25528,0.03456
2814.19511,0.03427
2812.13494,0.03404
2810.07477,0.03362
2808.01460,0.03326
2805.95442,0.03311
2803.89425,0.03298
2801.83408,0.03289
2799.77391,0.03296
2797.71373,0.03297
2795.65356,0.03277
2793.59339,0.03257
2791.53322,0.03242
2789.47305,0.03216
2787.41287,0.03180
2785.35270,0.03150
2783.29253,0.03124
2781.23236,0.03097
2779.17219,0.03066
2777.11201,0.03040
2775.05184,0.03021
2772.99167,0.02992
2770.93150,0.02970
2768.87133,0.02959
2766.81115,0.02933
2764.75098,0.02909
2762.69081,0.02900
2760.63064,0.02897
2758.57046,0.02894
2756.51029,0.02881
2754.45012,0.02864
2752.38995,0.02832
2750.32978,0.02786
2748.26960,0.02762
2746.20943,0.02765
2744.14926,0.02768
2742.08909,0.02755
2740.02892,0.02735
2737.96874,0.02721
2735.90857,0.02700
2733.84840,0.02676
2731.78823,0.02662
2729.72805,0.02646
2727.66788,0.02621
2725.60771,0.02601
2723.54754,0.02594
2721.48737,0.02588
2719.42719,0.02571
2717.36702,0.02553
2715.30685,0.02547
2713.24668,0.02540
2711.18651,0.02512
2709.12633,0.02467
2707.06616,0.02429
2705.00599,0.02407
2702.94582,0.02391
2700.88565,0.02375
2698.82547,0.02358
2696.76530,0.02335
2694.70513,0.02313
2692.64496,0.02296
2690.58478,0.02276
2688.52461,0.02249
2686.46444,0.02230
2684.40427,0.02226
2682.34410,0.02227
2680.28392,0.02198
2678.22375,0.02145
2676.16358,0.02111
2674.10341,0.02111
2672.04324,0.02114
2669.98306,0.02102
2667.92289,0.02072
2665.86272,0.02044
2663.80255,0.02034
2661.74238,0.02006
2659.68220,0.01950
2657.62203,0.01911
2655.56186,0.01899
2653.50169,0.01910
2651.44151,0.01928
2649.38134,0.01922
2647.32117,0.01890
2645.26100,0.01847
2643.20083,0.01816
2641.14065,0.01810
2639.08048,0.01802
2637.02031,0.01782
2634.96014,0.01756
2632.89997,0.01736
2630.83979,0.01724
2628.77962,0.01702
2626.71945,0.01682
2624.65928,0.01651
2622.59910,0.01611
2620.53893,0.01602
2618.47876,0.01598
2616.41859,0.01566
2614.35842,0.01542
2612.29824,0.01557
2610.23807,0.01569
2608.17790,0.01548
2606.11773,0.01506
2604.05756,0.01472
2601.99738,0.01466
2599.93721,0.01480
2597.87704,0.01484
2595.81687,0.01480
2593.75670,0.01481
2591.69652,0.01474
2589.63635,0.01443
2587.57618,0.01400
2585.51601,0.01373
2583.45583,0.01373
2581.39566,0.01384
2579.33549,0.01400
2577.27532,0.01428
2575.21515,0.01438
2573.15497,0.01411
2571.09480,0.01363
2569.03463,0.01315
2566.97446,0.01293
2564.91429,0.01279
2562.85411,0.01256
2560.79394,0.01264
2558.73377,0.01293
2556.67360,0.01308
2554.61342,0.01319
2552.55325,0.01323
2550.49308,0.01311
2548.43291,0.01305
2546.37274,0.01306
2544.31256,0.01300
2542.25239,0.01292
2540.19222,0.01277
2538.13205,0.01267
2536.07188,0.01279
2534.01170,0.01300
2531.95153,0.01328
2529.89136,0.01355
2527.83119,0.01369
2525.77102,0.01365
2523.71084,0.01322
2521.65067,0.01273
2519.59050,0.01271
2517.53033,0.01269
2515.47015,0.01260
2513.40998,0.01298
2511.34981,0.01325
2509.28964,0.01294
2507.22947,0.01266
2505.16929,0.01234
2503.10912,0.01189
2501.04895,0.01200
2498.98878,0.01247
2496.92861,0.01274
2494.86843,0.01296
2492.80826,0.01291
2490.74809,0.01251
2488.68792,0.01240
2486.62775,0.01244
2484.56757,0.01212
2482.50740,0.01206
2480.44723,0.01266
2478.38706,0.01312
2476.32688,0.01298
2474.26671,0.01251
2472.20654,0.01210
2470.14637,0.01214
2468.08620,0.01261
2466.02602,0.01288
2463.96585,0.01281
2461.90568,0.01294
2459.84551,0.01316
2457.78534,0.01317
2455.72516,0.01290
2453.66499,0.01267
2451.60482,0.01272
2449.54465,0.01276
2447.48447,0.01264
2445.42430,0.01263
2443.36413,0.01274
2441.30396,0.01267
2439.24379,0.01275
2437.18361,0.01302
2435.12344,0.01289
2433.06327,0.01258
2431.00310,0.01252
2428.94293,0.01247
2426.88275,0.01247
2424.82258,0.01266
2422.76241,0.01270
2420.70224,0.01263
2418.64207,0.01275
2416.58189,0.01287
2414.52172,0.01269
2412.46155,0.01239
2410.40138,0.01237
2408.34120,0.01257
2406.28103,0.01262
2404.22086,0.01252
2402.16069,0.01250
2400.10052,0.01232
2398.04034,0.01211
2395.98017,0.01217
2393.92000,0.01243
2391.85983,0.01237
2389.79966,0.01214
2387.73948,0.01229
2385.67931,0.01277
2383.61914,0.01297
2381.55897,0.01279
2379.49880,0.01263
2377.43862,0.01263
2375.37845,0.01245
2373.31828,0.01288
2371.25811,0.01337
2369.19793,0.01092
2367.13776,0.00567
2365.07759,0.00252
2363.01742,0.00375
2360.95725,0.00742
2358.89707,0.00732
2356.83690,0.00596
2354.77673,0.00663
2352.71656,0.00841
2350.65639,0.01230
2348.59621,0.01479
2346.53604,0.01196
2344.47587,0.01060
2342.41570,0.00980
2340.35552,0.00921
2338.29535,0.00899
2336.23518,0.00890
2334.17501,0.00990
2332.11484,0.01057
2330.05466,0.00990
2327.99449,0.00887
2325.93432,0.01034
2323.87415,0.01219
2321.81398,0.01266
2319.75380,0.01133
2317.69363,0.01086
2315.63346,0.01139
2313.57329,0.01209
2311.51312,0.01200
2309.45294,0.01145
2307.39277,0.01142
2305.33260,0.01175
2303.27243,0.01206
2301.21225,0.01184
2299.15208,0.01128
2297.09191,0.01098
2295.03174,0.01110
2292.97157,0.01112
2290.91139,0.01089
2288.85122,0.01075
2286.79105,0.01071
2284.73088,0.01075
2282.67071,0.01096
2280.61053,0.01095
2278.55036,0.01031
2276.49019,0.00952
2274.43002,0.00903
2272.36984,0.00887
2270.30967,0.00930
2268.24950,0.00982
2266.18933,0.00960
2264.12916,0.00891
2262.06898,0.00839
2260.00881,0.00820
2257.94864,0.00871
2255.88847,0.00944
2253.82830,0.00921
2251.76812,0.00843
2249.70795,0.00857
2247.64778,0.00935
2245.58761,0.00914
2243.52744,0.00853
2241.46726,0.00847
2239.40709,0.00860
2237.34692,0.00860
2235.28675,0.00824
2233.22657,0.00740
2231.16640,0.00674
2229.10623,0.00680
2227.04606,0.00730
2224.98589,0.00767
2222.92571,0.00768
2220.86554,0.00742
2218.80537,0.00716
2216.74520,0.00663
2214.68503,0.00595
2212.62485,0.00615
2210.56468,0.00694
2208.50451,0.00743
2206.44434,0.00744
2204.38417,0.00721
2202.32399,0.00725
2200.26382,0.00740
2198.20365,0.00734
2196.14348,0.00732
2194.08330,0.00713
2192.02313,0.00696
2189.96296,0.00696
2187.90279,0.00689
2185.84262,0.00725
2183.78244,0.00690
2181.72227,0.00532
2179.66210,0.00478
2177.60193,0.00526
2175.54176,0.00531
2173.48158,0.00522
2171.42141,0.00549
2169.36124,0.00552
2167.30107,0.00484
2165.24089,0.00409
2163.18072,0.00355
2161.12055,0.00355
2159.06038,0.00430
2157.00021,0.00424
2154.94003,0.00377
2152.87986,0.00440
2150.81969,0.00545
2148.75952,0.00551
2146.69935,0.00481
2144.63917,0.00454
2142.57900,0.00466
2140.51883,0.00490
2138.45866,0.00508
2136.39849,0.00467
2134.33831,0.00459
2132.27814,0.00529
2130.21797,0.00524
2128.15780,0.00458
2126.09762,0.00471
2124.03745,0.00546
2121.97728,0.00606
2119.91711,0.00638
2117.85694,0.00625
2115.79676,0.00588
2113.73659,0.00598
2111.67642,0.00611
2109.61625,0.00594
2107.55608,0.00590
2105.49590,0.00583
2103.43573,0.00567
2101.37556,0.00552
2099.31539,0.00544
2097.25521,0.00538
2095.19504,0.00541
2093.13487,0.00572
2091.07470,0.00541
2089.01453,0.00448
2086.95435,0.00426
2084.89418,0.00442
2082.83401,0.00397
2080.77384,0.00348
2078.71367,0.00373
2076.65349,0.00401
2074.59332,0.00367
2072.53315,0.00360
2070.47298,0.00420
2068.41281,0.00480
2066.35263,0.00526
2064.29246,0.00527
2062.23229,0.00469
2060.17212,0.00405
2058.11194,0.00369
2056.05177,0.00393
2053.99160,0.00476
2051.93143,0.00494
2049.87126,0.00358
2047.81108,0.00246
2045.75091,0.00312
2043.69074,0.00403
2041.63057,0.00357
2039.57040,0.00231
2037.51022,0.00192
2035.45005,0.00297
2033.38988,0.00371
2031.32971,0.00280
2029.26954,0.00193
2027.20936,0.00187
2025.14919,0.00122
2023.08902,0.00034
2021.02885,0.00041
2018.96867,0.00134
2016.90850,0.00220
2014.84833,0.00170
2012.78816,0.00052
2010.72799,0.00032
2008.66781,0.00078
2006.60764,0.00067
2004.54747,0.00051
2002.48730,0.00123
2000.42713,0.00252
1998.36695,0.00326
1996.30678,0.00293
1994.24661,0.00287
1992.18644,0.00371
1990.12626,0.00392
1988.06609,0.00295
1986.00592,0.00125
1983.94575,0.00035
1981.88558,0.00096
1979.82540,0.00160
1977.76523,0.00200
1975.70506,0.00255
1973.64489,0.00186
1971.58472,0.00063
1969.52454,0.00069
1967.46437,0.00106
1965.40420,0.00031
1963.34403,0.00000
1961.28386,0.00056
1959.22368,0.00053
1957.16351,0.00049
1955.10334,0.00123
1953.04317,0.00190
1950.98299,0.00220
1948.92282,0.00199
1946.86265,0.00091
1944.80248,0.00025
1942.74231,0.00071
1940.68213,0.00079
1938.62196,0.00052
1936.56179,0.00048
1934.50162,0.00045
1932.44145,0.00035
1930.38127,0.00041
1928.32110,0.00053
1926.26093,0.00044
1924.20076,0.00070
1922.14059,0.00105
1920.08041,0.00109
1918.02024,0.00111
1915.96007,0.00081
1913.89990,0.00085
1911.83972,0.00133
1909.77955,0.00162
1907.71938,0.00128
1905.65921,0.00082
1903.59904,0.00070
1901.53886,0.00062
1899.47869,0.00049
1897.41852,0.00056
1895.35835,0.00089
1893.29818,0.00120
1891.23800,0.00165
1889.17783,0.00184
1887.11766,0.00168
1885.05749,0.00175
1882.99731,0.00151
1880.93714,0.00105
1878.87697,0.00097
1876.81680,0.00122
1874.75663,0.00139
1872.69645,0.00134
1870.63628,0.00145
1868.57611,0.00147
1866.51594,0.00093
1864.45577,0.00065
1862.39559,0.00093
1860.33542,0.00127
1858.27525,0.00135
1856.21508,0.00112
1854.15491,0.00072
1852.09473,0.00042
1850.03456,0.00029
1847.97439,0.00021
1845.91422,0.00065
1843.85404,0.00116
1841.79387,0.00079
1839.73370,0.00071
1837.67353,0.00085
1835.61336,0.00050
1833.55318,0.00036
1831.49301,0.00107
1829.43284,0.00160
1827.37267,0.00150
1825.31250,0.00174
1823.25232,0.00165
1821.19215,0.00146
1819.13198,0.00167
1817.07181,0.00183
1815.01163,0.00181
1812.95146,0.00201
1810.89129,0.00204
1808.83112,0.00145
1806.77095,0.00104
1804.71077,0.00118
1802.65060,0.00167
1800.59043,0.00191
1798.53026,0.00138
1796.47009,0.00080
1794.40991,0.00117
1792.34974,0.00187
1790.28957,0.00146
1788.22940,0.00130
1786.16923,0.00199
1784.10905,0.00227
1782.04888,0.00224
1779.98871,0.00216
1777.92854,0.00171
1775.86836,0.00151
1773.80819,0.00193
1771.74802,0.00205
1769.68785,0.00184
1767.62768,0.00218
1765.56750,0.00232
1763.50733,0.00273
1761.44716,0.00306
1759.38699,0.00302
1757.32682,0.00366
1755.26664,0.00398
1753.20647,0.00453
1751.14630,0.00574
1749.08613,0.00604
1747.02596,0.00561
1744.96578,0.00550
1742.90561,0.00591
1740.84544,0.00651
1738.78527,0.00626
1736.72509,0.00634
1734.66492,0.00819
1732.60475,0.00865
1730.54458,0.00822
1728.48441,0.00845
1726.42423,0.00883
1724.36406,0.00923
1722.30389,0.00910
1720.24372,0.00949
1718.18355,0.01092
1716.12337,0.01142
1714.06320,0.01130
1712.00303,0.01154
1709.94286,0.01210
1707.88268,0.01293
1705.82251,0.01342
1703.76234,0.01309
1701.70217,0.01424
1699.64200,0.01567
1697.58182,0.01628
1695.52165,0.01748
1693.46148,0.01761
1691.40131,0.01828
1689.34114,0.01916
1687.28096,0.01987
1685.22079,0.02229
1683.16062,0.02373
1681.10045,0.02339
1679.04028,0.02396
1676.98010,0.02565
1674.91993,0.02685
1672.85976,0.02704
1670.79959,0.02871
1668.73941,0.03027
1666.67924,0.03029
1664.61907,0.03145
1662.55890,0.03343
1660.49873,0.03390
1658.43855,0.03360
1656.37838,0.03459
1654.31821,0.03747
1652.25804,0.03734
1650.19787,0.03492
1648.13769,0.03641
1646.07752,0.03859
1644.01735,0.03820
1641.95718,0.03745
1639.89701,0.03700
1637.83683,0.03773
1635.77666,0.03905
1633.71649,0.03796
1631.65632,0.03668
1629.59614,0.03683
1627.53597,0.03672
1625.47580,0.03628
1623.41563,0.03602
1621.35546,0.03485
1619.29528,0.03457
1617.23511,0.03558
1615.17494,0.03494
1613.11477,0.03383
1611.05460,0.03374
1608.99442,0.03346
1606.93425,0.03254
1604.87408,0.03155
1602.81391,0.03079
1600.75373,0.02999
1598.69356,0.02917
1596.63339,0.02842
1594.57322,0.02744
1592.51305,0.02615
1590.45287,0.02486
1588.39270,0.02367
1586.33253,0.02264
1584.27236,0.02156
1582.21219,0.02005
1580.15201,0.01848
1578.09184,0.01816
1576.03167,0.01776
1573.97150,0.01546
1571.91133,0.01450
1569.85115,0.01488
1567.79098,0.01378
1565.73081,0.01246
1563.67064,0.01128
1561.61046,0.01138
1559.55029,0.01310
1557.49012,0.01144
1555.42995,0.00973
1553.36978,0.00966
1551.30960,0.00954
1549.24943,0.00893
1547.18926,0.00803
1545.12909,0.00745
1543.06892,0.00678
1541.00874,0.00682
1538.94857,0.00595
1536.88840,0.00426
1534.82823,0.00512
1532.76805,0.00600
1530.70788,0.00506
1528.64771,0.00472
1526.58754,0.00449
1524.52737,0.00388
1522.46719,0.00423
1520.40702,0.00392
1518.34685,0.00340
1516.28668,0.00375
1514.22651,0.00329
1512.16633,0.00251
1510.10616,0.00254
1508.04599,0.00409
1505.98582,0.00385
1503.92565,0.00142
1501.86547,0.00094
1499.80530,0.00200
1497.74513,0.00255
1495.68496,0.00155
1493.62478,0.00037
1491.56461,0.00112
1489.50444,0.00224
1487.44427,0.00195
1485.38410,0.00149
1483.32392,0.00175
1481.26375,0.00212
1479.20358,0.00200
1477.14341,0.00220
1475.08324,0.00316
1473.02306,0.00441
1470.96289,0.00418
1468.90272,0.00363
1466.84255,0.00479
1464.78238,0.00591
1462.72220,0.00524
1460.66203,0.00525
1458.60186,0.00744
1456.54169,0.00855
1454.48151,0.00709
1452.42134,0.00654
1450.36117,0.00716
1448.30100,0.00785
1446.24083,0.00788
1444.18065,0.00766
1442.12048,0.00744
1440.06031,0.00717
1438.00014,0.00772
1435.93997,0.00787
1433.87979,0.00694
1431.81962,0.00714
1429.75945,0.00786
1427.69928,0.00790
1425.63910,0.00810
1423.57893,0.00835
1421.51876,0.00878
1419.45859,0.00993
1417.39842,0.00989
1415.33824,0.00925
1413.27807,0.00939
1411.21790,0.00964
1409.15773,0.00937
1407.09756,0.00913
1405.03738,0.00891
1402.97721,0.00817
1400.91704,0.00793
1398.85687,0.00820
1396.79670,0.00839
1394.73652,0.00863
1392.67635,0.00819
1390.61618,0.00793
1388.55601,0.00861
1386.49583,0.00898
1384.43566,0.00879
1382.37549,0.00894
1380.31532,0.00924
1378.25515,0.00945
1376.19497,0.00991
1374.13480,0.01035
1372.07463,0.01003
1370.01446,0.00969
1367.95429,0.00939
1365.89411,0.00897
1363.83394,0.00911
1361.77377,0.00902
1359.71360,0.00830
1357.65343,0.00780
1355.59325,0.00763
1353.53308,0.00737
1351.47291,0.00713
1349.41274,0.00705
1347.35256,0.00688
1345.29239,0.00659
1343.23222,0.00646
1341.17205,0.00684
1339.11188,0.00712
1337.05170,0.00672
1334.99153,0.00631
1332.93136,0.00619
1330.87119,0.00616
1328.81102,0.00600
1326.75084,0.00565
1324.69067,0.00523
1322.63050,0.00496
1320.57033,0.00492
1318.51015,0.00482
1316.44998,0.00456
1314.38981,0.00446
1312.32964,0.00441
1310.26947,0.00429
1308.20929,0.00425
1306.14912,0.00416
1304.08895,0.00401
1302.02878,0.00395
1299.96861,0.00395
1297.90843,0.00396
1295.84826,0.00405
1293.78809,0.00419
1291.72792,0.00422
1289.66775,0.00421
1287.60757,0.00420
1285.54740,0.00412
1283.48723,0.00410
1281.42706,0.00418
1279.36688,0.00428
1277.30671,0.00438
1275.24654,0.00449
1273.18637,0.00455
1271.12620,0.00460
1269.06602,0.00466
1267.00585,0.00474
1264.94568,0.00481
1262.88551,0.00487
1260.82534,0.00502
1258.76516,0.00508
1256.70499,0.00504
1254.64482,0.00503
1252.58465,0.00494
1250.52447,0.00467
1248.46430,0.00440
1246.40413,0.00432
1244.34396,0.00431
1242.28379,0.00419
1240.22361,0.00389
1238.16344,0.00366
1236.10327,0.00364
1234.04310,0.00371
1231.98293,0.00381
1229.92275,0.00385
1227.86258,0.00376
1225.80241,0.00369
1223.74224,0.00358
1221.68207,0.00332
1219.62189,0.00300
1217.56172,0.00280
1215.50155,0.00262
1213.44138,0.00229
1211.38120,0.00195
1209.32103,0.00161
1207.26086,0.00128
1205.20069,0.00119
1203.14052,0.00114
1201.08034,0.00087
1199.02017,0.00056
1196.96000,0.00038
1194.89983,0.00031
1192.83966,0.00042
1190.77948,0.00066
1188.71931,0.00113
1186.65914,0.00175
1184.59897,0.00227
1182.53880,0.00296
1180.47862,0.00413
1178.41845,0.00544
1176.35828,0.00655
1174.29811,0.00764
1172.23793,0.00889
1170.17776,0.01025
1168.11759,0.01164
1166.05742,0.01299
1163.99725,0.01426
1161.93707,0.01553
1159.87690,0.01679
1157.81673,0.01790
1155.75656,0.01891
1153.69639,0.02002
1151.63621,0.02125
1149.57604,0.02256
1147.51587,0.02394
1145.45570,0.02532
1143.39552,0.02666
1141.33535,0.02801
1139.27518,0.02933
1137.21501,0.03059
1135.15484,0.03195
1133.09466,0.03347
1131.03449,0.03495
1128.97432,0.03626
1126.91415,0.03752
1124.85398,0.03886
1122.79380,0.04036
1120.73363,0.04193
1118.67346,0.04360
1116.61329,0.04559
1114.55312,0.04779
1112.49294,0.04998
1110.43277,0.05219
1108.37260,0.05446
1106.31243,0.05710
1104.25225,0.06009
1102.19208,0.06301
1100.13191,0.06606
1098.07174,0.06942
1096.01157,0.07264
1093.95139,0.07546
1091.89122,0.07810
1089.83105,0.08071
1087.77088,0.08328
1085.71071,0.08592
1083.65053,0.08864
1081.59036,0.09133
1079.53019,0.09385
1077.47002,0.09614
1075.40985,0.09829
1073.34967,0.10019
1071.28950,0.10167
1069.22933,0.10293
1067.16916,0.10392
1065.10898,0.10445
1063.04881,0.10456
1060.98864,0.10429
1058.92847,0.10392
1056.86830,0.10380
1054.80812,0.10372
1052.74795,0.10337
1050.68778,0.10270
1048.62761,0.10175
1046.56744,0.10048
1044.50726,0.09889
1042.44709,0.09703
1040.38692,0.09509
1038.32675,0.09313
1036.26657,0.09099
1034.20640,0.08874
1032.14623,0.08668
1030.08606,0.08483
1028.02589,0.08296
1025.96571,0.08091
1023.90554,0.07877
1021.84537,0.07685
1019.78520,0.07497
1017.72503,0.07276
1015.66485,0.07024
1013.60468,0.06785
1011.54451,0.06582
1009.48434,0.06392
1007.42417,0.06207
1005.36399,0.06044
1003.30382,0.05920
1001.24365,0.05851
999.18348,0.05849
997.12330,0.05907
995.06313,0.05990
993.00296,0.06094
990.94279,0.06226
988.88262,0.06333
986.82244,0.06378
984.76227,0.06359
982.70210,0.06263
980.64193,0.06092
978.58176,0.05846
976.52158,0.05530
974.46141,0.05183
972.40124,0.04830
970.34107,0.04477
968.28089,0.04133
966.22072,0.03807
964.16055,0.03502
962.10038,0.03229
960.04021,0.02994
957.98003,0.02799
955.91986,0.02631
953.85969,0.02484
951.79952,0.02371
949.73935,0.02301
947.67917,0.02250
945.61900,0.02197
943.55883,0.02154
941.49866,0.02128
939.43849,0.02081
937.37831,0.02027
935.31814,0.02022
933.25797,0.02029
931.19780,0.01994
929.13762,0.01931
927.07745,0.01863
925.01728,0.01807
922.95711,0.01744
920.89694,0.01640
918.83676,0.01517
916.77659,0.01412
914.71642,0.01320
912.65625,0.01220
910.59608,0.01102
908.53590,0.00989
906.47573,0.00912
904.41556,0.00879
902.35539,0.00883
900.29522,0.00890
898.23504,0.00876
896.17487,0.00863
894.11470,0.00854
892.05453,0.00860
889.99435,0.00899
887.93418,0.00934
885.87401,0.00959
883.81384,0.00996
881.75367,0.01030
879.69349,0.01087
877.63332,0.01170
875.57315,0.01232
873.51298,0.01319
871.45281,0.01429
869.39263,0.01471
867.33246,0.01471
865.27229,0.01512
863.21212,0.01571
861.15194,0.01571
859.09177,0.01520
857.03160,0.01496
854.97143,0.01500
852.91126,0.01480
850.85108,0.01404
848.79091,0.01300
846.73074,0.01221
844.67057,0.01150
842.61040,0.01080
840.55022,0.01027
838.49005,0.00969
836.42988,0.00918
834.36971,0.00859
832.30954,0.00740
830.24936,0.00598
828.18919,0.00523
826.12902,0.00488
824.06885,0.00443
822.00867,0.00411
819.94850,0.00346
817.88833,0.00250
815.82816,0.00220
813.76799,0.00238
811.70781,0.00251
809.64764,0.00275
807.58747,0.00277
805.52730,0.00239
803.46713,0.00191
801.40695,0.00138
799.34678,0.00084
797.28661,0.00054
795.22644,0.00043
793.16627,0.00032
791.10609,0.00026
789.04592,0.00037
786.98575,0.00082
784.92558,0.00174
782.86540,0.00277
780.80523,0.00324
778.74506,0.00274
776.68489,0.00205
774.62472,0.00225
772.56454,0.00278
770.50437,0.00269
768.44420,0.00240
766.38403,0.00282
764.32386,0.00348
762.26368,0.00326
760.20351,0.00242
758.14334,0.00199
756.08317,0.00220
754.02299,0.00261
751.96282,0.00293
749.90265,0.00293
747.84248,0.00255
745.78231,0.00200
743.72213,0.00117
741.66196,0.00040
739.60179,0.00019
737.54162,0.00056
735.48145,0.00094
733.42127,0.00062
731.36110,0.00000
729.30093,0.00021
727.24076,0.00087
725.18059,0.00117
723.12041,0.00172
721.06024,0.00184
719.00007,0.00215
716.93990,0.00249
714.87972,0.00273
712.81955,0.00288
710.75938,0.00296
708.69921,0.00316
706.63904,0.00349
704.57886,0.00364
702.51869,0.00321
700.45852,0.00246
698.39835,0.00190
696.33818,0.00158
694.27800,0.00124
692.21783,0.00100
690.15766,0.00163
688.09749,0.00289
686.03731,0.00325
683.97714,0.00253
681.91697,0.00254
679.85680,0.00376
677.79663,0.00436
675.73645,0.00378
673.67628,0.00426
671.61611,0.00669
669.55594,0.00487
667.49577,0.00189
665.43559,0.00628
663.37542,0.00381
661.31525,0.00155
659.25508,0.00166
657.19491,0.00188
655.13473,0.00089
653.07456,0.00000
651.01439,0.00036
648.95422,0.00129
646.89404,0.00230
644.83387,0.00239
642.77370,0.00174
640.71353,0.00113
638.65336,0.00108
636.59318,0.00164
634.53301,0.00235
632.47284,0.00240
630.41267,0.00225
628.35250,0.00277
626.29232,0.00310
624.23215,0.00168
622.17198,0.00001
620.11181,0.00002
618.05164,0.00113
615.99146,0.00118
613.93129,0.00057
611.87112,0.00101
609.81095,0.00233
607.75077,0.00348
605.69060,0.00358
603.63043,0.00271
601.57026,0.00153
599.51009,0.00000
