3996.73391,0.00052
3994.67373,0.00032
3992.61356,0.00000
3990.55339,0.00003
3988.49322,0.00028
3986.43305,0.00050
3984.37287,0.00069
3982.31270,0.00062
3980.25253,0.00035
3978.19236,0.00031
3976.13219,0.00051
3974.07201,0.00059
3972.01184,0.00052
3969.95167,0.00051
3967.89150,0.00039
3965.83133,0.00008
3963.77115,0.00004
3961.71098,0.00040
3959.65081,0.00053
3957.59064,0.00033
3955.53046,0.00023
3953.47029,0.00030
3951.41012,0.00038
3949.34995,0.00039
3947.28978,0.00030
3945.22960,0.00023
3943.16943,0.00037
3941.10926,0.00069
3939.04909,0.00093
3936.98892,0.00088
3934.92874,0.00083
3932.86857,0.00119
3930.80840,0.00142
3928.74823,0.00096
3926.68805,0.00030
3924.62788,0.00005
3922.56771,0.00034
3920.50754,0.00076
3918.44737,0.00087
3916.38719,0.00061
3914.32702,0.00027
3912.26685,0.00016
3910.20668,0.00022
3908.14651,0.00032
3906.08633,0.00044
3904.02616,0.00053
3901.96599,0.00043
3899.90582,0.00032
3897.84565,0.00052
3895.78547,0.00074
3893.72530,0.00049
3891.66513,0.00006
3889.60496,0.00016
3887.54478,0.00063
3885.48461,0.00078
3883.42444,0.00078
3881.36427,0.00101
3879.30410,0.00125
3877.24392,0.00118
3875.18375,0.00106
3873.12358,0.00129
3871.06341,0.00144
3869.00324,0.00095
3866.94306,0.00042
3864.88289,0.00043
3862.82272,0.00084
3860.76255,0.00115
3858.70237,0.00121
3856.64220,0.00128
3854.58203,0.00127
3852.52186,0.00098
3850.46169,0.00071
3848.40151,0.00053
3846.34134,0.00042
3844.28117,0.00055
3842.22100,0.00082
3840.16083,0.00092
3838.10065,0.00094
3836.04048,0.00103
3833.98031,0.00091
3831.92014,0.00063
3829.85997,0.00071
3827.79979,0.00112
3825.73962,0.00132
3823.67945,0.00113
3821.61928,0.00058
3819.55910,0.00014
3817.49893,0.00030
3815.43876,0.00068
3813.37859,0.00080
3811.31842,0.00072
3809.25824,0.00064
3807.19807,0.00078
3805.13790,0.00106
3803.07773,0.00117
3801.01756,0.00101
3798.95738,0.00078
3796.89721,0.00069
3794.83704,0.00086
3792.77687,0.00103
3790.71670,0.00093
3788.65652,0.00076
3786.59635,0.00063
3784.53618,0.00053
3782.47601,0.00078
3780.41583,0.00099
3778.35566,0.00060
3776.29549,0.00015
3774.23532,0.00013
3772.17515,0.00035
3770.11497,0.00068
3768.05480,0.00105
3765.99463,0.00118
3763.93446,0.00103
3761.87429,0.00085
3759.81411,0.00080
3757.75394,0.00087
3755.69377,0.00084
3753.63360,0.00053
3751.57342,0.00008
3749.51325,0.00024
3747.45308,0.00126
3745.39291,0.00212
3743.33274,0.00184
3741.27256,0.00111
3739.21239,0.00091
3737.15222,0.00111
3735.09205,0.00103
3733.03188,0.00062
3730.97170,0.00081
3728.91153,0.00148
3726.85136,0.00168
3724.79119,0.00123
3722.73102,0.00088
3720.67084,0.00099
3718.61067,0.00130
3716.55050,0.00134
3714.49033,0.00120
3712.43015,0.00144
3710.36998,0.00205
3708.30981,0.00233
3706.24964,0.00215
3704.18947,0.00186
3702.12929,0.00180
3700.06912,0.00185
3698.00895,0.00167
3695.94878,0.00174
3693.88861,0.00250
3691.82843,0.00316
3689.76826,0.00319
3687.70809,0.00303
3685.64792,0.00277
3683.58775,0.00250
3681.52757,0.00272
3679.46740,0.00332
3677.40723,0.00348
3675.34706,0.00301
3673.28688,0.00282
3671.22671,0.00332
3669.16654,0.00421
3667.10637,0.00509
3665.04620,0.00557
3662.98602,0.00560
3660.92585,0.00574
3658.86568,0.00644
3656.80551,0.00756
3654.74534,0.00844
3652.68516,0.00863
3650.62499,0.00866
3648.56482,0.00941
3646.50465,0.01050
3644.44447,0.01133
3642.38430,0.01196
3640.32413,0.01267
3638.26396,0.01337
3636.20379,0.01380
3634.14361,0.01426
3632.08344,0.01513
3630.02327,0.01588
3627.96310,0.01625
3625.90293,0.01696
3623.84275,0.01793
3621.78258,0.01865
3619.72241,0.01916
3617.66224,0.01987
3615.60207,0.02092
3613.54189,0.02216
3611.48172,0.02338
3609.42155,0.02429
3607.36138,0.02474
3605.30120,0.02499
3603.24103,0.02554
3601.18086,0.02635
3599.12069,0.02695
3597.06052,0.02750
3595.00034,0.02854
3592.94017,0.03004
3590.88000,0.03129
3588.81983,0.03210
3586.75966,0.03281
3584.69948,0.03370
3582.63931,0.03477
3580.57914,0.03576
3578.51897,0.03652
3576.45879,0.03708
3574.39862,0.03748
3572.33845,0.03788
3570.27828,0.03880
3568.21811,0.04036
3566.15793,0.04186
3564.09776,0.04266
3562.03759,0.04324
3559.97742,0.04407
3557.91725,0.04494
3555.85707,0.04570
3553.79690,0.04650
3551.73673,0.04728
3549.67656,0.04774
3547.61639,0.04811
3545.55621,0.04895
3543.49604,0.05014
3541.43587,0.05112
3539.37570,0.05187
3537.31552,0.05262
3535.25535,0.05338
3533.19518,0.05422
3531.13501,0.05534
3529.07484,0.05670
3527.01466,0.05793
3524.95449,0.05866
3522.89432,0.05903
3520.83415,0.05954
3518.77398,0.06008
3516.71380,0.06043
3514.65363,0.06095
3512.59346,0.06180
3510.53329,0.06262
3508.47312,0.06329
3506.41294,0.06401
3504.35277,0.06496
3502.29260,0.06597
3500.23243,0.06668
3498.17225,0.06720
3496.11208,0.06783
3494.05191,0.06854
3491.99174,0.06914
3489.93157,0.06973
3487.87139,0.07049
3485.81122,0.07134
3483.75105,0.07222
3481.69088,0.07303
3479.63071,0.07356
3477.57053,0.07386
3475.51036,0.07435
3473.45019,0.07524
3471.39002,0.07628
3469.32984,0.07703
3467.26967,0.07739
3465.20950,0.07775
3463.14933,0.07831
3461.08916,0.07902
3459.02898,0.07995
3456.96881,0.08092
3454.90864,0.08157
3452.84847,0.08203
3450.78830,0.08251
3448.72812,0.08282
3446.66795,0.08311
3444.60778,0.08362
3442.54761,0.08417
3440.48744,0.08470
3438.42726,0.08535
3436.36709,0.08616
3434.30692,0.08674
3432.24675,0.08693
3430.18657,0.08707
3428.12640,0.08736
3426.06623,0.08780
3424.00606,0.08832
3421.94589,0.08887
3419.88571,0.08937
3417.82554,0.08957
3415.76537,0.08974
3413.70520,0.09033
3411.64503,0.09107
3409.58485,0.09173
3407.52468,0.09231
3405.46451,0.09269
3403.40434,0.09280
3401.34416,0.09283
3399.28399,0.09325
3397.22382,0.09383
3395.16365,0.09428
3393.10348,0.09436
3391.04330,0.09401
3388.98313,0.09368
3386.92296,0.09404
3384.86279,0.09470
3382.80262,0.09508
3380.74244,0.09532
3378.68227,0.09544
3376.62210,0.09545
3374.56193,0.09563
3372.50176,0.09597
3370.44158,0.09629
3368.38141,0.09665
3366.32124,0.09691
3364.26107,0.09674
3362.20089,0.09656
3360.14072,0.09710
3358.08055,0.09798
3356.02038,0.09835
3353.96021,0.09805
3351.90003,0.09761
3349.83986,0.09742
3347.77969,0.09717
3345.71952,0.09683
3343.65935,0.09694
3341.59917,0.09746
3339.53900,0.09757
3337.47883,0.09708
3335.41866,0.09691
3333.35849,0.09726
3331.29831,0.09758
3329.23814,0.09762
3327.17797,0.09728
3325.11780,0.09689
3323.05762,0.09683
3320.99745,0.09688
3318.93728,0.09676
3316.87711,0.09662
3314.81694,0.09653
3312.75676,0.09631
3310.69659,0.09610
3308.63642,0.09616
3306.57625,0.09634
3304.51608,0.09639
3302.45590,0.09652
3300.39573,0.09683
3298.33556,0.09694
3296.27539,0.09682
3294.21521,0.09697
3292.15504,0.09738
3290.09487,0.09740
3288.03470,0.09687
3285.97453,0.09619
3283.91435,0.09573
3281.85418,0.09562
3279.79401,0.09574
3277.73384,0.09597
3275.67367,0.09625
3273.61349,0.09634
3271.55332,0.09618
3269.49315,0.09616
3267.43298,0.09644
3265.37281,0.09674
3263.31263,0.09679
3261.25246,0.09642
3259.19229,0.09597
3257.13212,0.09597
3255.07194,0.09620
3253.01177,0.09619
3250.95160,0.09594
3248.89143,0.09570
3246.83126,0.09563
3244.77108,0.09576
3242.71091,0.09580
3240.65074,0.09556
3238.59057,0.09519
3236.53040,0.09501
3234.47022,0.09503
3232.41005,0.09492
3230.34988,0.09449
3228.28971,0.09407
3226.22954,0.09382
3224.16936,0.09362
3222.10919,0.09352
3220.04902,0.09358
3217.98885,0.09361
3215.92867,0.09339
3213.86850,0.09297
3211.80833,0.09239
3209.74816,0.09181
3207.68799,0.09148
3205.62781,0.09144
3203.56764,0.09147
3201.50747,0.09133
3199.44730,0.09111
3197.38713,0.09097
3195.32695,0.09086
3193.26678,0.09061
3191.20661,0.09005
3189.14644,0.08918
3187.08626,0.08828
3185.02609,0.08772
3182.96592,0.08780
3180.90575,0.08806
3178.84558,0.08788
3176.78540,0.08747
3174.72523,0.08719
3172.66506,0.08691
3170.60489,0.08645
3168.54472,0.08599
3166.48454,0.08565
3164.42437,0.08523
3162.36420,0.08470
3160.30403,0.08427
3158.24386,0.08400
3156.18368,0.08377
3154.12351,0.08334
3152.06334,0.08275
3150.00317,0.08220
3147.94299,0.08173
3145.88282,0.08121
3143.82265,0.08072
3141.76248,0.08048
3139.70231,0.08027
3137.64213,0.07970
3135.58196,0.07896
3133.52179,0.07836
3131.46162,0.07788
3129.40145,0.07748
3127.34127,0.07721
3125.28110,0.07701
3123.22093,0.07671
3121.16076,0.07634
3119.10058,0.07610
3117.04041,0.07600
3114.98024,0.07580
3112.92007,0.07530
3110.85990,0.07467
3108.79972,0.07411
3106.73955,0.07355
3104.67938,0.07291
3102.61921,0.07244
3100.55904,0.07222
3098.49886,0.07197
3096.43869,0.07161
3094.37852,0.07123
3092.31835,0.07083
3090.25818,0.07036
3088.19800,0.06974
3086.13783,0.06921
3084.07766,0.06900
3082.01749,0.06877
3079.95731,0.06817
3077.89714,0.06749
3075.83697,0.06699
3073.77680,0.06670
3071.71663,0.06636
3069.65645,0.06580
3067.59628,0.06533
3065.53611,0.06490
3063.47594,0.06442
3061.41577,0.06400
3059.35559,0.06358
3057.29542,0.06309
3055.23525,0.06260
3053.17508,0.06218
3051.11491,0.06173
3049.05473,0.06116
3046.99456,0.06065
3044.93439,0.06029
3042.87422,0.06015
3040.81404,0.06004
3038.75387,0.05971
3036.69370,0.05910
3034.63353,0.05826
3032.57336,0.05756
3030.51318,0.05711
3028.45301,0.05667
3026.39284,0.05626
3024.33267,0.05586
3022.27250,0.05534
3020.21232,0.05477
3018.15215,0.05429
3016.09198,0.05397
3014.03181,0.05381
3011.97163,0.05366
3009.91146,0.05333
3007.85129,0.05286
3005.79112,0.05242
3003.73095,0.05199
3001.67077,0.05160
2999.61060,0.05130
2997.55043,0.05082
2995.49026,0.05030
2993.43009,0.05012
2991.36991,0.04978
2989.30974,0.04900
2987.24957,0.04834
2985.18940,0.04820
2983.12923,0.04822
2981.06905,0.04792
2979.00888,0.04752
2976.94871,0.04756
2974.88854,0.04781
2972.82836,0.04771
2970.76819,0.04732
2968.70802,0.04705
2966.64785,0.04704
2964.58768,0.04707
2962.52750,0.04716
2960.46733,0.04734
2958.40716,0.04726
2956.34699,0.04695
2954.28682,0.04683
2952.22664,0.04681
2950.16647,0.04666
2948.10630,0.04664
2946.04613,0.04680
2943.98596,0.04675
2941.92578,0.04664
2939.86561,0.04667
2937.80544,0.04671
2935.74527,0.04668
2933.68509,0.04653
2931.62492,0.04626
2929.56475,0.04596
2927.50458,0.04585
2925.44441,0.04585
2923.38423,0.04560
2921.32406,0.04522
2919.26389,0.04501
2917.20372,0.04487
2915.14355,0.04447
2913.08337,0.04394
2911.02320,0.04359
2908.96303,0.04336
2906.90286,0.04321
2904.84268,0.04300
2902.78251,0.04271
2900.72234,0.04258
2898.66217,0.04255
2896.60200,0.04246
2894.54182,0.04231
2892.48165,0.04211
2890.42148,0.04185
2888.36131,0.04161
2886.30114,0.04136
2884.24096,0.04100
2882.18079,0.04062
2880.12062,0.04033
2878.06045,0.04017
2876.00028,0.04004
2873.94010,0.03974
2871.87993,0.03928
2869.81976,0.03895
2867.75959,0.03869
2865.69941,0.03839
2863.63924,0.03815
2861.57907,0.03805
2859.51890,0.03785
2857.45873,0.03739
2855.39855,0.03688
2853.33838,0.03649
2851.27821,0.03619
2849.21804,0.03588
2847.15787,0.03555
2845.09769,0.03527
2843.03752,0.03504
2840.97735,0.03471
2838.91718,0.03426
2836.85700,0.03389
2834.79683,0.03369
2832.73666,0.03355
2830.67649,0.03333
2828.61632,0.03300
2826.55614,0.03264
2824.49597,0.03248
2822.43580,0.03246
2820.37563,0.03220
2818.31546,0.03178
2816.25528,0.03139
2814.19511,0.03103
2812.13494,0.03074
2810.07477,0.03062
2808.01460,0.03063
2805.95442,0.03054
2803.89425,0.03026
2801.83408,0.03009
2799.77391,0.03008
2797.71373,0.02996
2795.65356,0.02964
2793.59339,0.02932
2791.53322,0.02924
2789.47305,0.02928
2787.41287,0.02917
2785.35270,0.02884
2783.29253,0.02852
2781.23236,0.02826
2779.17219,0.02808
2777.11201,0.02796
2775.05184,0.02774
2772.99167,0.02740
2770.93150,0.02718
2768.87133,0.02699
2766.81115,0.02674
2764.75098,0.02656
2762.69081,0.02633
2760.63064,0.02607
2758.57046,0.02597
2756.51029,0.02589
2754.45012,0.02575
2752.38995,0.02557
2750.32978,0.02536
2748.26960,0.02526
2746.20943,0.02529
2744.14926,0.02534
2742.08909,0.02522
2740.02892,0.02502
2737.96874,0.02478
2735.90857,0.02454
2733.84840,0.02443
2731.78823,0.02436
2729.72805,0.02426
2727.66788,0.02409
2725.60771,0.02378
2723.54754,0.02349
2721.48737,0.02342
2719.42719,0.02342
2717.36702,0.02348
2715.30685,0.02360
2713.24668,0.02351
2711.18651,0.02310
2709.12633,0.02265
2707.06616,0.02233
2705.00599,0.02207
2702.94582,0.02181
2700.88565,0.02165
2698.82547,0.02161
2696.76530,0.02146
2694.70513,0.02123
2692.64496,0.02115
2690.58478,0.02108
2688.52461,0.02089
2686.46444,0.02069
2684.40427,0.02057
2682.34410,0.02053
2680.28392,0.02034
2678.22375,0.01995
2676.16358,0.01966
2674.10341,0.01959
2672.04324,0.01956
2669.98306,0.01945
2667.92289,0.01922
2665.86272,0.01908
2663.80255,0.01910
2661.74238,0.01892
2659.68220,0.01844
2657.62203,0.01802
2655.56186,0.01783
2653.50169,0.01785
2651.44151,0.01796
2649.38134,0.01793
2647.32117,0.01756
2645.26100,0.01712
2643.20083,0.01703
2641.14065,0.01713
2639.08048,0.01711
2637.02031,0.01690
2634.96014,0.01641
2632.89997,0.01597
2630.83979,0.01588
2628.77962,0.01585
2626.71945,0.01575
2624.65928,0.01556
2622.59910,0.01515
2620.53893,0.01475
2618.47876,0.01457
2616.41859,0.01462
2614.35842,0.01477
2612.29824,0.01481
2610.23807,0.01477
2608.17790,0.01469
2606.11773,0.01439
2604.05756,0.01399
2601.99738,0.01381
2599.93721,0.01364
2597.87704,0.01336
2595.81687,0.01344
2593.75670,0.01378
2591.69652,0.01375
2589.63635,0.01330
2587.57618,0.01304
2585.51601,0.01326
2583.45583,0.01349
2581.39566,0.01330
2579.33549,0.01298
2577.27532,0.01298
2575.21515,0.01308
2573.15497,0.01304
2571.09480,0.01307
2569.03463,0.01322
2566.97446,0.01315
2564.91429,0.01283
2562.85411,0.01262
2560.79394,0.01239
2558.73377,0.01216
2556.67360,0.01221
2554.61342,0.01221
2552.55325,0.01201
2550.49308,0.01195
2548.43291,0.01213
2546.37274,0.01224
2544.31256,0.01213
2542.25239,0.01204
2540.19222,0.01211
2538.13205,0.01222
2536.07188,0.01225
2534.01170,0.01227
2531.95153,0.01245
2529.89136,0.01270
2527.83119,0.01268
2525.77102,0.01262
2523.71084,0.01271
2521.65067,0.01242
2519.59050,0.01210
2517.53033,0.01207
2515.47015,0.01208
2513.40998,0.01233
2511.34981,0.01268
2509.28964,0.01275
2507.22947,0.01263
2505.16929,0.01238
2503.10912,0.01204
2501.04895,0.01187
2498.98878,0.01203
2496.92861,0.01243
2494.86843,0.01270
2492.80826,0.01258
2490.74809,0.01225
2488.68792,0.01223
2486.62775,0.01252
2484.56757,0.01242
2482.50740,0.01205
2480.44723,0.01201
2478.38706,0.01222
2476.32688,0.01249
2474.26671,0.01263
2472.20654,0.01259
2470.14637,0.01261
2468.08620,0.01276
2466.02602,0.01262
2463.96585,0.01215
2461.90568,0.01201
2459.84551,0.01213
2457.78534,0.01206
2455.72516,0.01203
2453.66499,0.01224
2451.60482,0.01250
2449.54465,0.01253
2447.48447,0.01239
2445.42430,0.01245
2443.36413,0.01236
2441.30396,0.01197
2439.24379,0.01201
2437.18361,0.01231
2435.12344,0.01202
2433.06327,0.01160
2431.00310,0.01171
2428.94293,0.01190
2426.88275,0.01214
2424.82258,0.01255
2422.76241,0.01250
2420.70224,0.01208
2418.64207,0.01198
2416.58189,0.01208
2414.52172,0.01201
2412.46155,0.01183
2410.40138,0.01178
2408.34120,0.01197
2406.28103,0.01213
2404.22086,0.01208
2402.16069,0.01194
2400.10052,0.01189
2398.04034,0.01189
2395.98017,0.01177
2393.92000,0.01171
2391.85983,0.01172
2389.79966,0.01174
2387.73948,0.01189
2385.67931,0.01222
2383.61914,0.01244
2381.55897,0.01231
2379.49880,0.01210
2377.43862,0.01224
2375.37845,0.01319
2373.31828,0.01456
2371.25811,0.01482
2369.19793,0.01287
2367.13776,0.00897
2365.07759,0.00554
2363.01742,0.00515
2360.95725,0.00524
2358.89707,0.00516
2356.83690,0.00624
2354.77673,0.00823
2352.71656,0.00982
2350.65639,0.00970
2348.59621,0.01011
2346.53604,0.01249
2344.47587,0.01257
2342.41570,0.01138
2340.35552,0.01086
2338.29535,0.01083
2336.23518,0.01152
2334.17501,0.01259
2332.11484,0.01296
2330.05466,0.01156
2327.99449,0.01007
2325.93432,0.01011
2323.87415,0.01195
2321.81398,0.01347
2319.75380,0.01338
2317.69363,0.01209
2315.63346,0.01140
2313.57329,0.01159
2311.51312,0.01181
2309.45294,0.01177
2307.39277,0.01191
2305.33260,0.01204
2303.27243,0.01179
2301.21225,0.01138
2299.15208,0.01090
2297.09191,0.01065
2295.03174,0.01058
2292.97157,0.01039
2290.91139,0.01030
2288.85122,0.01061
2286.79105,0.01102
2284.73088,0.01114
2282.67071,0.01093
2280.61053,0.01049
2278.55036,0.00982
2276.49019,0.00931
2274.43002,0.00936
2272.36984,0.00974
2270.30967,0.00974
2268.24950,0.00923
2266.18933,0.00872
2264.12916,0.00842
2262.06898,0.00822
2260.00881,0.00832
2257.94864,0.00862
2255.88847,0.00864
2253.82830,0.00838
2251.76812,0.00857
2249.70795,0.00955
2247.64778,0.01043
2245.58761,0.00983
2243.52744,0.00840
2241.46726,0.00777
2239.40709,0.00757
2237.34692,0.00713
2235.28675,0.00735
2233.22657,0.00828
2231.16640,0.00857
2229.10623,0.00806
2227.04606,0.00779
2224.98589,0.00802
2222.92571,0.00781
2220.86554,0.00705
2218.80537,0.00666
2216.74520,0.00673
2214.68503,0.00696
2212.62485,0.00756
2210.56468,0.00832
2208.50451,0.00814
2206.44434,0.00678
2204.38417,0.00552
2202.32399,0.00542
2200.26382,0.00621
2198.20365,0.00696
2196.14348,0.00724
2194.08330,0.00703
2192.02313,0.00645
2189.96296,0.00526
2187.90279,0.00410
2185.84262,0.00471
2183.78244,0.00584
2181.72227,0.00570
2179.66210,0.00583
2177.60193,0.00663
2175.54176,0.00685
2173.48158,0.00643
2171.42141,0.00597
2169.36124,0.00595
2167.30107,0.00590
2165.24089,0.00490
2163.18072,0.00338
2161.12055,0.00305
2159.06038,0.00383
2157.00021,0.00459
2154.94003,0.00557
2152.87986,0.00645
2150.81969,0.00658
2148.75952,0.00600
2146.69935,0.00544
2144.63917,0.00553
2142.57900,0.00589
2140.51883,0.00614
2138.45866,0.00671
2136.39849,0.00685
2134.33831,0.00609
2132.27814,0.00555
2130.21797,0.00540
2128.15780,0.00558
2126.09762,0.00615
2124.03745,0.00637
2121.97728,0.00618
2119.91711,0.00601
2117.85694,0.00586
2115.79676,0.00590
2113.73659,0.00592
2111.67642,0.00556
2109.61625,0.00573
2107.55608,0.00657
2105.49590,0.00705
2103.43573,0.00725
2101.37556,0.00709
2099.31539,0.00622
2097.25521,0.00557
2095.19504,0.00572
2093.13487,0.00640
2091.07470,0.00633
2089.01453,0.00563
2086.95435,0.00571
2084.89418,0.00606
2082.83401,0.00551
2080.77384,0.00449
2078.71367,0.00416
2076.65349,0.00430
2074.59332,0.00377
2072.53315,0.00322
2070.47298,0.00391
2068.41281,0.00491
2066.35263,0.00509
2064.29246,0.00493
2062.23229,0.00473
2060.17212,0.00453
2058.11194,0.00446
2056.05177,0.00473
2053.99160,0.00531
2051.93143,0.00505
2049.87126,0.00367
2047.81108,0.00287
2045.75091,0.00329
2043.69074,0.00358
2041.63057,0.00328
2039.57040,0.00300
2037.51022,0.00318
2035.45005,0.00368
2033.38988,0.00295
2031.32971,0.00098
2029.26954,0.00052
2027.20936,0.00145
2025.14919,0.00178
2023.08902,0.00202
2021.02885,0.00273
2018.96867,0.00340
2016.90850,0.00401
2014.84833,0.00401
2012.78816,0.00288
2010.72799,0.00159
2008.66781,0.00161
2006.60764,0.00213
2004.54747,0.00192
2002.48730,0.00203
2000.42713,0.00273
1998.36695,0.00270
1996.30678,0.00195
1994.24661,0.00184
1992.18644,0.00269
1990.12626,0.00324
1988.06609,0.00267
1986.00592,0.00170
1983.94575,0.00156
1981.88558,0.00194
1979.82540,0.00164
1977.76523,0.00084
1975.70506,0.00053
1973.64489,0.00110
1971.58472,0.00212
1969.52454,0.00234
1967.46437,0.00144
1965.40420,0.00080
1963.34403,0.00112
1961.28386,0.00118
1959.22368,0.00041
1957.16351,0.00027
1955.10334,0.00107
1953.04317,0.00152
1950.98299,0.00160
1948.92282,0.00160
1946.86265,0.00119
1944.80248,0.00075
1942.74231,0.00081
1940.68213,0.00099
1938.62196,0.00116
1936.56179,0.00152
1934.50162,0.00178
1932.44145,0.00182
1930.38127,0.00180
1928.32110,0.00130
1926.26093,0.00054
1924.20076,0.00054
1922.14059,0.00134
1920.08041,0.00181
1918.02024,0.00157
1915.96007,0.00135
1913.89990,0.00151
1911.83972,0.00177
1909.77955,0.00177
1907.71938,0.00146
1905.65921,0.00114
1903.59904,0.00103
1901.53886,0.00086
1899.47869,0.00055
1897.41852,0.00054
1895.35835,0.00121
1893.29818,0.00204
1891.23800,0.00214
1889.17783,0.00168
1887.11766,0.00140
1885.05749,0.00127
1882.99731,0.00114
1880.93714,0.00125
1878.87697,0.00152
1876.81680,0.00162
1874.75663,0.00150
1872.69645,0.00126
1870.63628,0.00089
1868.57611,0.00057
1866.51594,0.00050
1864.45577,0.00060
1862.39559,0.00077
1860.33542,0.00095
1858.27525,0.00096
1856.21508,0.00063
1854.15491,0.00024
1852.09473,0.00017
1850.03456,0.00040
1847.97439,0.00069
1845.91422,0.00091
1843.85404,0.00091
1841.79387,0.00066
1839.73370,0.00047
1837.67353,0.00052
1835.61336,0.00061
1833.55318,0.00056
1831.49301,0.00064
1829.43284,0.00097
1827.37267,0.00117
1825.31250,0.00108
1823.25232,0.00096
1821.19215,0.00103
1819.13198,0.00124
1817.07181,0.00140
1815.01163,0.00148
1812.95146,0.00157
1810.89129,0.00140
1808.83112,0.00102
1806.77095,0.00089
1804.71077,0.00100
1802.65060,0.00107
1800.59043,0.00106
1798.53026,0.00092
1796.47009,0.00063
1794.40991,0.00038
1792.34974,0.00035
1790.28957,0.00060
1788.22940,0.00102
1786.16923,0.00140
1784.10905,0.00164
1782.04888,0.00172
1779.98871,0.00167
1777.92854,0.00154
1775.86836,0.00135
1773.80819,0.00116
1771.74802,0.00125
1769.68785,0.00168
1767.62768,0.00207
1765.56750,0.00224
1763.50733,0.00227
1761.44716,0.00228
1759.38699,0.00246
1757.32682,0.00293
1755.26664,0.00349
1753.20647,0.00386
1751.14630,0.00420
1749.08613,0.00469
1747.02596,0.00516
1744.96578,0.00538
1742.90561,0.00551
1740.84544,0.00578
1738.78527,0.00618
1736.72509,0.00649
1734.66492,0.00674
1732.60475,0.00718
1730.54458,0.00766
1728.48441,0.00798
1726.42423,0.00811
1724.36406,0.00821
1722.30389,0.00839
1720.24372,0.00850
1718.18355,0.00860
1716.12337,0.00915
1714.06320,0.01000
1712.00303,0.01074
1709.94286,0.01119
1707.88268,0.01139
1705.82251,0.01161
1703.76234,0.01202
1701.70217,0.01253
1699.64200,0.01328
1697.58182,0.01434
1695.52165,0.01541
1693.46148,0.01630
1691.40131,0.01702
1689.34114,0.01756
1687.28096,0.01788
1685.22079,0.01849
1683.16062,0.01995
1681.10045,0.02147
1679.04028,0.02244
1676.98010,0.02315
1674.91993,0.02399
1672.85976,0.02492
1670.79959,0.02591
1668.73941,0.02708
1666.67924,0.02807
1664.61907,0.02879
1662.55890,0.02963
1660.49873,0.03058
1658.43855,0.03123
1656.37838,0.03141
1654.31821,0.03150
1652.25804,0.03218
1650.19787,0.03292
1648.13769,0.03345
1646.07752,0.03411
1644.01735,0.03456
1641.95718,0.03446
1639.89701,0.03410
1637.83683,0.03386
1635.77666,0.03397
1633.71649,0.03418
1631.65632,0.03399
1629.59614,0.03346
1627.53597,0.03295
1625.47580,0.03259
1623.41563,0.03225
1621.35546,0.03195
1619.29528,0.03168
1617.23511,0.03143
1615.17494,0.03133
1613.11477,0.03109
1611.05460,0.03051
1608.99442,0.02975
1606.93425,0.02897
1604.87408,0.02816
1602.81391,0.02740
1600.75373,0.02680
1598.69356,0.02621
1596.63339,0.02546
1594.57322,0.02458
1592.51305,0.02367
1590.45287,0.02261
1588.39270,0.02140
1586.33253,0.02027
1584.27236,0.01924
1582.21219,0.01822
1580.15201,0.01722
1578.09184,0.01617
1576.03167,0.01518
1573.97150,0.01454
1571.91133,0.01394
1569.85115,0.01313
1567.79098,0.01250
1565.73081,0.01214
1563.67064,0.01162
1561.61046,0.01061
1559.55029,0.00932
1557.49012,0.00888
1555.42995,0.00920
1553.36978,0.00921
1551.30960,0.00884
1549.24943,0.00850
1547.18926,0.00826
1545.12909,0.00790
1543.06892,0.00710
1541.00874,0.00605
1538.94857,0.00558
1536.88840,0.00556
1534.82823,0.00542
1532.76805,0.00526
1530.70788,0.00510
1528.64771,0.00473
1526.58754,0.00438
1524.52737,0.00420
1522.46719,0.00398
1520.40702,0.00374
1518.34685,0.00373
1516.28668,0.00396
1514.22651,0.00403
1512.16633,0.00367
1510.10616,0.00296
1508.04599,0.00227
1505.98582,0.00216
1503.92565,0.00246
1501.86547,0.00248
1499.80530,0.00205
1497.74513,0.00157
1495.68496,0.00136
1493.62478,0.00135
1491.56461,0.00138
1489.50444,0.00149
1487.44427,0.00158
1485.38410,0.00160
1483.32392,0.00162
1481.26375,0.00172
1479.20358,0.00188
1477.14341,0.00205
1475.08324,0.00226
1473.02306,0.00276
1470.96289,0.00351
1468.90272,0.00409
1466.84255,0.00448
1464.78238,0.00489
1462.72220,0.00528
1460.66203,0.00554
1458.60186,0.00572
1456.54169,0.00599
1454.48151,0.00626
1452.42134,0.00647
1450.36117,0.00661
1448.30100,0.00671
1446.24083,0.00679
1444.18065,0.00682
1442.12048,0.00674
1440.06031,0.00646
1438.00014,0.00619
1435.93997,0.00633
1433.87979,0.00670
1431.81962,0.00695
1429.75945,0.00720
1427.69928,0.00751
1425.63910,0.00785
1423.57893,0.00822
1421.51876,0.00856
1419.45859,0.00890
1417.39842,0.00924
1415.33824,0.00940
1413.27807,0.00940
1411.21790,0.00929
1409.15773,0.00903
1407.09756,0.00860
1405.03738,0.00814
1402.97721,0.00794
1400.91704,0.00798
1398.85687,0.00801
1396.79670,0.00795
1394.73652,0.00785
1392.67635,0.00779
1390.61618,0.00786
1388.55601,0.00805
1386.49583,0.00822
1384.43566,0.00830
1382.37549,0.00836
1380.31532,0.00851
1378.25515,0.00880
1376.19497,0.00914
1374.13480,0.00936
1372.07463,0.00930
1370.01446,0.00899
1367.95429,0.00862
1365.89411,0.00838
1363.83394,0.00831
1361.77377,0.00828
1359.71360,0.00805
1357.65343,0.00759
1355.59325,0.00719
1353.53308,0.00701
1351.47291,0.00697
1349.41274,0.00686
1347.35256,0.00659
1345.29239,0.00636
1343.23222,0.00635
1341.17205,0.00651
1339.11188,0.00666
1337.05170,0.00661
1334.99153,0.00634
1332.93136,0.00598
1330.87119,0.00576
1328.81102,0.00568
1326.75084,0.00555
1324.69067,0.00529
1322.63050,0.00502
1320.57033,0.00486
1318.51015,0.00474
1316.44998,0.00458
1314.38981,0.00448
1312.32964,0.00443
1310.26947,0.00431
1308.20929,0.00410
1306.14912,0.00395
1304.08895,0.00383
1302.02878,0.00375
1299.96861,0.00381
1297.90843,0.00386
1295.84826,0.00391
1293.78809,0.00404
1291.72792,0.00411
1289.66775,0.00408
1287.60757,0.00409
1285.54740,0.00416
1283.48723,0.00416
1281.42706,0.00413
1279.36688,0.00419
1277.30671,0.00433
1275.24654,0.00437
1273.18637,0.00426
1271.12620,0.00424
1269.06602,0.00437
1267.00585,0.00452
1264.94568,0.00466
1262.88551,0.00483
1260.82534,0.00494
1258.76516,0.00492
1256.70499,0.00482
1254.64482,0.00472
1252.58465,0.00458
1250.52447,0.00440
1248.46430,0.00424
1246.40413,0.00416
1244.34396,0.00414
1242.28379,0.00418
1240.22361,0.00422
1238.16344,0.00410
1236.10327,0.00393
1234.04310,0.00389
1231.98293,0.00398
1229.92275,0.00405
1227.86258,0.00399
1225.80241,0.00395
1223.74224,0.00385
1221.68207,0.00361
1219.62189,0.00334
1217.56172,0.00308
1215.50155,0.00279
1213.44138,0.00260
1211.38120,0.00248
1209.32103,0.00218
1207.26086,0.00172
1205.20069,0.00139
1203.14052,0.00118
1201.08034,0.00091
1199.02017,0.00072
1196.96000,0.00070
1194.89983,0.00077
1192.83966,0.00080
1190.77948,0.00090
1188.71931,0.00126
1186.65914,0.00187
1184.59897,0.00245
1182.53880,0.00297
1180.47862,0.00379
1178.41845,0.00488
1176.35828,0.00603
1174.29811,0.00718
1172.23793,0.00833
1170.17776,0.00948
1168.11759,0.01062
1166.05742,0.01160
1163.99725,0.01250
1161.93707,0.01363
1159.87690,0.01490
1157.81673,0.01602
1155.75656,0.01706
1153.69639,0.01803
1151.63621,0.01895
1149.57604,0.02011
1147.51587,0.02150
1145.45570,0.02279
1143.39552,0.02397
1141.33535,0.02521
1139.27518,0.02641
1137.21501,0.02743
1135.15484,0.02849
1133.09466,0.02981
1131.03449,0.03111
1128.97432,0.03224
1126.91415,0.03334
1124.85398,0.03445
1122.79380,0.03565
1120.73363,0.03700
1118.67346,0.03852
1116.61329,0.04039
1114.55312,0.04249
1112.49294,0.04448
1110.43277,0.04641
1108.37260,0.04847
1106.31243,0.05077
1104.25225,0.05336
1102.19208,0.05604
1100.13191,0.05877
1098.07174,0.06168
1096.01157,0.06450
1093.95139,0.06699
1091.89122,0.06923
1089.83105,0.07140
1087.77088,0.07370
1085.71071,0.07619
1083.65053,0.07870
1081.59036,0.08106
1079.53019,0.08336
1077.47002,0.08558
1075.40985,0.08750
1073.34967,0.08891
1071.28950,0.08995
1069.22933,0.09090
1067.16916,0.09168
1065.10898,0.09221
1063.04881,0.09255
1060.98864,0.09260
1058.92847,0.09232
1056.86830,0.09184
1054.80812,0.09111
1052.74795,0.09034
1050.68778,0.08985
1048.62761,0.08925
1046.56744,0.08816
1044.50726,0.08677
1042.44709,0.08534
1040.38692,0.08376
1038.32675,0.08193
1036.26657,0.08008
1034.20640,0.07849
1032.14623,0.07680
1030.08606,0.07483
1028.02589,0.07295
1025.96571,0.07107
1023.90554,0.06904
1021.84537,0.06720
1019.78520,0.06556
1017.72503,0.06384
1015.66485,0.06195
1013.60468,0.05987
1011.54451,0.05787
1009.48434,0.05634
1007.42417,0.05495
1005.36399,0.05325
1003.30382,0.05160
1001.24365,0.05061
999.18348,0.05055
997.12330,0.05110
995.06313,0.05194
993.00296,0.05322
990.94279,0.05462
988.88262,0.05546
986.82244,0.05576
984.76227,0.05576
982.70210,0.05497
980.64193,0.05319
978.58176,0.05088
976.52158,0.04829
974.46141,0.04549
972.40124,0.04253
970.34107,0.03938
968.28089,0.03626
966.22072,0.03329
964.16055,0.03063
962.10038,0.02846
960.04021,0.02641
957.98003,0.02449
955.91986,0.02303
953.85969,0.02193
951.79952,0.02119
949.73935,0.02084
947.67917,0.02033
945.61900,0.01952
943.55883,0.01891
941.49866,0.01853
939.43849,0.01807
937.37831,0.01780
935.31814,0.01781
933.25797,0.01771
931.19780,0.01749
929.13762,0.01718
927.07745,0.01671
925.01728,0.01619
922.95711,0.01531
920.89694,0.01407
918.83676,0.01311
916.77659,0.01234
914.71642,0.01143
912.65625,0.01057
910.59608,0.00974
908.53590,0.00890
906.47573,0.00837
904.41556,0.00836
902.35539,0.00845
900.29522,0.00827
898.23504,0.00816
896.17487,0.00820
894.11470,0.00789
892.05453,0.00762
889.99435,0.00817
887.93418,0.00913
885.87401,0.00976
883.81384,0.00988
881.75367,0.00986
879.69349,0.01033
877.63332,0.01105
875.57315,0.01151
873.51298,0.01211
871.45281,0.01297
869.39263,0.01349
867.33246,0.01362
865.27229,0.01377
863.21212,0.01375
861.15194,0.01342
859.09177,0.01328
857.03160,0.01354
854.97143,0.01384
852.91126,0.01381
850.85108,0.01330
848.79091,0.01255
846.73074,0.01173
844.67057,0.01082
842.61040,0.01002
840.55022,0.00941
838.49005,0.00896
836.42988,0.00850
834.36971,0.00777
832.30954,0.00664
830.24936,0.00556
828.18919,0.00509
826.12902,0.00480
824.06885,0.00440
822.00867,0.00430
819.94850,0.00398
817.88833,0.00318
815.82816,0.00283
813.76799,0.00291
811.70781,0.00287
809.64764,0.00292
807.58747,0.00287
805.52730,0.00237
803.46713,0.00209
801.40695,0.00226
799.34678,0.00225
797.28661,0.00183
795.22644,0.00154
793.16627,0.00194
791.10609,0.00258
789.04592,0.00260
786.98575,0.00231
784.92558,0.00263
782.86540,0.00343
780.80523,0.00381
778.74506,0.00334
776.68489,0.00279
774.62472,0.00297
772.56454,0.00336
770.50437,0.00343
768.44420,0.00338
766.38403,0.00370
764.32386,0.00441
762.26368,0.00475
760.20351,0.00436
758.14334,0.00381
756.08317,0.00359
754.02299,0.00386
751.96282,0.00417
749.90265,0.00397
747.84248,0.00343
745.78231,0.00259
743.72213,0.00148
741.66196,0.00083
739.60179,0.00135
737.54162,0.00257
735.48145,0.00321
733.42127,0.00299
731.36110,0.00273
729.30093,0.00302
727.24076,0.00322
725.18059,0.00296
723.12041,0.00286
721.06024,0.00341
719.00007,0.00373
716.93990,0.00399
714.87972,0.00434
712.81955,0.00453
710.75938,0.00459
708.69921,0.00434
706.63904,0.00367
704.57886,0.00320
702.51869,0.00343
700.45852,0.00387
698.39835,0.00396
696.33818,0.00354
694.27800,0.00301
692.21783,0.00317
690.15766,0.00392
688.09749,0.00405
686.03731,0.00300
683.97714,0.00175
681.91697,0.00111
679.85680,0.00084
677.79663,0.00071
675.73645,0.00078
673.67628,0.00073
671.61611,0.00148
669.55594,0.00593
667.49577,0.00862
665.43559,0.00437
663.37542,0.00293
661.31525,0.00236
659.25508,0.00155
657.19491,0.00099
655.13473,0.00028
653.07456,0.00000
651.01439,0.00113
648.95422,0.00238
646.89404,0.00240
644.83387,0.00213
642.77370,0.00172
640.71353,0.00106
638.65336,0.00093
636.59318,0.00164
634.53301,0.00268
632.47284,0.00357
630.41267,0.00407
628.35250,0.00370
626.29232,0.00253
624.23215,0.00225
622.17198,0.00230
620.11181,0.00242
618.05164,0.00415
615.99146,0.00546
613.93129,0.00419
611.87112,0.00200
609.81095,0.00064
607.75077,0.00000
605.69060,0.00040
603.63043,0.00135
601.57026,0.00094
599.51009,0.00000
