3996.73391,0.00059
3994.67373,0.00012
3992.61356,0.00000
3990.55339,0.00029
3988.49322,0.00038
3986.43305,0.00018
3984.37287,0.00014
3982.31270,0.00024
3980.25253,0.00020
3978.19236,0.00019
3976.13219,0.00056
3974.07201,0.00104
3972.01184,0.00114
3969.95167,0.00108
3967.89150,0.00104
3965.83133,0.00087
3963.77115,0.00080
3961.71098,0.00096
3959.65081,0.00085
3957.59064,0.00043
3955.53046,0.00035
3953.47029,0.00060
3951.41012,0.00055
3949.34995,0.00042
3947.28978,0.00076
3945.22960,0.00107
3943.16943,0.00091
3941.10926,0.00081
3939.04909,0.00097
3936.98892,0.00093
3934.92874,0.00072
3932.86857,0.00092
3930.80840,0.00133
3928.74823,0.00118
3926.68805,0.00062
3924.62788,0.00038
3922.56771,0.00064
3920.50754,0.00093
3918.44737,0.00096
3916.38719,0.00072
3914.32702,0.00045
3912.26685,0.00043
3910.20668,0.00050
3908.14651,0.00035
3906.08633,0.00011
3904.02616,0.00029
3901.96599,0.00088
3899.90582,0.00121
3897.84565,0.00109
3895.78547,0.00076
3893.72530,0.00031
3891.66513,0.00004
3889.60496,0.00031
3887.54478,0.00085
3885.48461,0.00110
3883.42444,0.00095
3881.36427,0.00082
3879.30410,0.00106
3877.24392,0.00127
3875.18375,0.00108
3873.12358,0.00080
3871.06341,0.00084
3869.00324,0.00098
3866.94306,0.00079
3864.88289,0.00060
3862.82272,0.00079
3860.76255,0.00078
3858.70237,0.00047
3856.64220,0.00036
3854.58203,0.00051
3852.52186,0.00070
3850.46169,0.00091
3848.40151,0.00105
3846.34134,0.00083
3844.28117,0.00054
3842.22100,0.00090
3840.16083,0.00185
3838.10065,0.00246
3836.04048,0.00220
3833.98031,0.00131
3831.92014,0.00046
3829.85997,0.00030
3827.79979,0.00065
3825.73962,0.00082
3823.67945,0.00076
3821.61928,0.00087
3819.55910,0.00124
3817.49893,0.00141
3815.43876,0.00133
3813.37859,0.00140
3811.31842,0.00165
3809.25824,0.00165
3807.19807,0.00133
3805.13790,0.00117
3803.07773,0.00149
3801.01756,0.00196
3798.95738,0.00208
3796.89721,0.00179
3794.83704,0.00156
3792.77687,0.00156
3790.71670,0.00156
3788.65652,0.00157
3786.59635,0.00154
3784.53618,0.00134
3782.47601,0.00130
3780.41583,0.00148
3778.35566,0.00147
3776.29549,0.00120
3774.23532,0.00086
3772.17515,0.00055
3770.11497,0.00055
3768.05480,0.00095
3765.99463,0.00137
3763.93446,0.00154
3761.87429,0.00155
3759.81411,0.00168
3757.75394,0.00186
3755.69377,0.00175
3753.63360,0.00135
3751.57342,0.00102
3749.51325,0.00114
3747.45308,0.00179
3745.39291,0.00269
3743.33274,0.00308
3741.27256,0.00278
3739.21239,0.00251
3737.15222,0.00264
3735.09205,0.00273
3733.03188,0.00249
3730.97170,0.00252
3728.91153,0.00287
3726.85136,0.00282
3724.79119,0.00222
3722.73102,0.00197
3720.67084,0.00242
3718.61067,0.00286
3716.55050,0.00274
3714.49033,0.00246
3712.43015,0.00249
3710.36998,0.00267
3708.30981,0.00306
3706.24964,0.00354
3704.18947,0.00384
3702.12929,0.00378
3700.06912,0.00343
3698.00895,0.00319
3695.94878,0.00346
3693.88861,0.00392
3691.82843,0.00388
3689.76826,0.00370
3687.70809,0.00378
3685.64792,0.00389
3683.58775,0.00414
3681.52757,0.00472
3679.46740,0.00517
3677.40723,0.00500
3675.34706,0.00451
3673.28688,0.00473
3671.22671,0.00579
3669.16654,0.00699
3667.10637,0.00759
3665.04620,0.00773
3662.98602,0.00799
3660.92585,0.00869
3658.86568,0.00949
3656.80551,0.01005
3654.74534,0.01038
3652.68516,0.01059
3650.62499,0.01130
3648.56482,0.01299
3646.50465,0.01441
3644.44447,0.01499
3642.38430,0.01518
3640.32413,0.01554
3638.26396,0.01629
3636.20379,0.01694
3634.14361,0.01725
3632.08344,0.01760
3630.02327,0.01818
3627.96310,0.01895
3625.90293,0.01987
3623.84275,0.02084
3621.78258,0.02181
3619.72241,0.02262
3617.66224,0.02350
3615.60207,0.02492
3613.54189,0.02639
3611.48172,0.02748
3609.42155,0.02822
3607.36138,0.02881
3605.30120,0.02927
3603.24103,0.02972
3601.18086,0.03046
3599.12069,0.03111
3597.06052,0.03158
3595.00034,0.03248
3592.94017,0.03404
3590.88000,0.03529
3588.81983,0.03605
3586.75966,0.03700
3584.69948,0.03822
3582.63931,0.03923
3580.57914,0.03992
3578.51897,0.04049
3576.45879,0.04130
3574.39862,0.04246
3572.33845,0.04348
3570.27828,0.04414
3568.21811,0.04487
3566.15793,0.04592
3564.09776,0.04674
3562.03759,0.04714
3559.97742,0.04762
3557.91725,0.04851
3555.85707,0.04973
3553.79690,0.05107
3551.73673,0.05237
3549.67656,0.05318
3547.61639,0.05367
3545.55621,0.05457
3543.49604,0.05570
3541.43587,0.05661
3539.37570,0.05751
3537.31552,0.05851
3535.25535,0.05922
3533.19518,0.05947
3531.13501,0.05970
3529.07484,0.06052
3527.01466,0.06189
3524.95449,0.06305
3522.89432,0.06369
3520.83415,0.06422
3518.77398,0.06482
3516.71380,0.06546
3514.65363,0.06622
3512.59346,0.06722
3510.53329,0.06842
3508.47312,0.06952
3506.41294,0.07021
3504.35277,0.07069
3502.29260,0.07134
3500.23243,0.07215
3498.17225,0.07297
3496.11208,0.07361
3494.05191,0.07411
3491.99174,0.07482
3489.93157,0.07584
3487.87139,0.07674
3485.81122,0.07735
3483.75105,0.07801
3481.69088,0.07885
3479.63071,0.07970
3477.57053,0.08025
3475.51036,0.08036
3473.45019,0.08047
3471.39002,0.08110
3469.32984,0.08215
3467.26967,0.08319
3465.20950,0.08391
3463.14933,0.08440
3461.08916,0.08493
3459.02898,0.08546
3456.96881,0.08596
3454.90864,0.08652
3452.84847,0.08703
3450.78830,0.08736
3448.72812,0.08769
3446.66795,0.08818
3444.60778,0.08883
3442.54761,0.08962
3440.48744,0.09044
3438.42726,0.09110
3436.36709,0.09175
3434.30692,0.09243
3432.24675,0.09292
3430.18657,0.09317
3428.12640,0.09322
3426.06623,0.09349
3424.00606,0.09427
3421.94589,0.09511
3419.88571,0.09551
3417.82554,0.09535
3415.76537,0.09516
3413.70520,0.09559
3411.64503,0.09631
3409.58485,0.09684
3407.52468,0.09733
3405.46451,0.09783
3403.40434,0.09815
3401.34416,0.09840
3399.28399,0.09888
3397.22382,0.09911
3395.16365,0.09905
3393.10348,0.09913
3391.04330,0.09955
3388.98313,0.10001
3386.92296,0.10051
3384.86279,0.10092
3382.80262,0.10084
3380.74244,0.10055
3378.68227,0.10046
3376.62210,0.10056
3374.56193,0.10078
3372.50176,0.10105
3370.44158,0.10126
3368.38141,0.10152
3366.32124,0.10190
3364.26107,0.10205
3362.20089,0.10215
3360.14072,0.10242
3358.08055,0.10240
3356.02038,0.10208
3353.96021,0.10188
3351.90003,0.10189
3349.83986,0.10194
3347.77969,0.10178
3345.71952,0.10161
3343.65935,0.10186
3341.59917,0.10243
3339.53900,0.10264
3337.47883,0.10213
3335.41866,0.10143
3333.35849,0.10111
3331.29831,0.10114
3329.23814,0.10133
3327.17797,0.10149
3325.11780,0.10158
3323.05762,0.10173
3320.99745,0.10174
3318.93728,0.10128
3316.87711,0.10069
3314.81694,0.10055
3312.75676,0.10068
3310.69659,0.10068
3308.63642,0.10052
3306.57625,0.10027
3304.51608,0.10004
3302.45590,0.09995
3300.39573,0.10011
3298.33556,0.10036
3296.27539,0.10043
3294.21521,0.10046
3292.15504,0.10042
3290.09487,0.09998
3288.03470,0.09956
3285.97453,0.09955
3283.91435,0.09921
3281.85418,0.09833
3279.79401,0.09794
3277.73384,0.09842
3275.67367,0.09899
3273.61349,0.09919
3271.55332,0.09923
3269.49315,0.09932
3267.43298,0.09937
3265.37281,0.09925
3263.31263,0.09891
3261.25246,0.09856
3259.19229,0.09850
3257.13212,0.09869
3255.07194,0.09875
3253.01177,0.09850
3250.95160,0.09816
3248.89143,0.09794
3246.83126,0.09800
3244.77108,0.09811
3242.71091,0.09788
3240.65074,0.09753
3238.59057,0.09722
3236.53040,0.09694
3234.47022,0.09705
3232.41005,0.09748
3230.34988,0.09744
3228.28971,0.09689
3226.22954,0.09638
3224.16936,0.09616
3222.10919,0.09616
3220.04902,0.09604
3217.98885,0.09560
3215.92867,0.09510
3213.86850,0.09469
3211.80833,0.09431
3209.74816,0.09413
3207.68799,0.09401
3205.62781,0.09361
3203.56764,0.09302
3201.50747,0.09256
3199.44730,0.09224
3197.38713,0.09196
3195.32695,0.09188
3193.26678,0.09198
3191.20661,0.09183
3189.14644,0.09128
3187.08626,0.09066
3185.02609,0.09026
3182.96592,0.09007
3180.90575,0.08979
3178.84558,0.08938
3176.78540,0.08923
3174.72523,0.08923
3172.66506,0.08878
3170.60489,0.08797
3168.54472,0.08737
3166.48454,0.08701
3164.42437,0.08662
3162.36420,0.08600
3160.30403,0.08538
3158.24386,0.08509
3156.18368,0.08492
3154.12351,0.08449
3152.06334,0.08393
3150.00317,0.08341
3147.94299,0.08289
3145.88282,0.08234
3143.82265,0.08195
3141.76248,0.08174
3139.70231,0.08156
3137.64213,0.08127
3135.58196,0.08066
3133.52179,0.07988
3131.46162,0.07937
3129.40145,0.07906
3127.34127,0.07855
3125.28110,0.07796
3123.22093,0.07759
3121.16076,0.07745
3119.10058,0.07738
3117.04041,0.07717
3114.98024,0.07677
3112.92007,0.07618
3110.85990,0.07563
3108.79972,0.07531
3106.73955,0.07497
3104.67938,0.07446
3102.61921,0.07402
3100.55904,0.07363
3098.49886,0.07312
3096.43869,0.07263
3094.37852,0.07232
3092.31835,0.07200
3090.25818,0.07135
3088.19800,0.07048
3086.13783,0.06985
3084.07766,0.06944
3082.01749,0.06904
3079.95731,0.06876
3077.89714,0.06852
3075.83697,0.06815
3073.77680,0.06781
3071.71663,0.06737
3069.65645,0.06668
3067.59628,0.06610
3065.53611,0.06574
3063.47594,0.06541
3061.41577,0.06510
3059.35559,0.06474
3057.29542,0.06429
3055.23525,0.06381
3053.17508,0.06330
3051.11491,0.06263
3049.05473,0.06191
3046.99456,0.06135
3044.93439,0.06107
3042.87422,0.06097
3040.81404,0.06068
3038.75387,0.06010
3036.69370,0.05953
3034.63353,0.05903
3032.57336,0.05850
3030.51318,0.05800
3028.45301,0.05755
3026.39284,0.05709
3024.33267,0.05661
3022.27250,0.05599
3020.21232,0.05544
3018.15215,0.05510
3016.09198,0.05487
3014.03181,0.05467
3011.97163,0.05446
3009.91146,0.05407
3007.85129,0.05349
3005.79112,0.05306
3003.73095,0.05286
3001.67077,0.05258
2999.61060,0.05208
2997.55043,0.05150
2995.49026,0.05106
2993.43009,0.05092
2991.36991,0.05078
2989.30974,0.05022
2987.24957,0.04954
2985.18940,0.04916
2983.12923,0.04872
2981.06905,0.04801
2979.00888,0.04754
2976.94871,0.04771
2974.88854,0.04820
2972.82836,0.04840
2970.76819,0.04812
2968.70802,0.04785
2966.64785,0.04782
2964.58768,0.04777
2962.52750,0.04774
2960.46733,0.04784
2958.40716,0.04778
2956.34699,0.04767
2954.28682,0.04764
2952.22664,0.04738
2950.16647,0.04702
2948.10630,0.04695
2946.04613,0.04704
2943.98596,0.04705
2941.92578,0.04714
2939.86561,0.04725
2937.80544,0.04714
2935.74527,0.04689
2933.68509,0.04642
2931.62492,0.04580
2929.56475,0.04542
2927.50458,0.04551
2925.44441,0.04565
2923.38423,0.04545
2921.32406,0.04514
2919.26389,0.04494
2917.20372,0.04464
2915.14355,0.04403
2913.08337,0.04354
2911.02320,0.04341
2908.96303,0.04341
2906.90286,0.04328
2904.84268,0.04283
2902.78251,0.04237
2900.72234,0.04216
2898.66217,0.04198
2896.60200,0.04181
2894.54182,0.04177
2892.48165,0.04169
2890.42148,0.04143
2888.36131,0.04113
2886.30114,0.04083
2884.24096,0.04043
2882.18079,0.04006
2880.12062,0.03977
2878.06045,0.03941
2876.00028,0.03907
2873.94010,0.03873
2871.87993,0.03825
2869.81976,0.03798
2867.75959,0.03787
2865.69941,0.03757
2863.63924,0.03729
2861.57907,0.03715
2859.51890,0.03689
2857.45873,0.03656
2855.39855,0.03638
2853.33838,0.03613
2851.27821,0.03568
2849.21804,0.03522
2847.15787,0.03486
2845.09769,0.03443
2843.03752,0.03387
2840.97735,0.03345
2838.91718,0.03323
2836.85700,0.03313
2834.79683,0.03309
2832.73666,0.03301
2830.67649,0.03287
2828.61632,0.03268
2826.55614,0.03236
2824.49597,0.03203
2822.43580,0.03186
2820.37563,0.03163
2818.31546,0.03128
2816.25528,0.03097
2814.19511,0.03066
2812.13494,0.03029
2810.07477,0.02994
2808.01460,0.02963
2805.95442,0.02932
2803.89425,0.02911
2801.83408,0.02911
2799.77391,0.02917
2797.71373,0.02911
2795.65356,0.02892
2793.59339,0.02874
2791.53322,0.02864
2789.47305,0.02851
2787.41287,0.02835
2785.35270,0.02815
2783.29253,0.02775
2781.23236,0.02720
2779.17219,0.02694
2777.11201,0.02714
2775.05184,0.02724
2772.99167,0.02698
2770.93150,0.02673
2768.87133,0.02648
2766.81115,0.02621
2764.75098,0.02605
2762.69081,0.02585
2760.63064,0.02565
2758.57046,0.02547
2756.51029,0.02530
2754.45012,0.02533
2752.38995,0.02529
2750.32978,0.02498
2748.26960,0.02478
2746.20943,0.02492
2744.14926,0.02500
2742.08909,0.02471
2740.02892,0.02437
2737.96874,0.02426
2735.90857,0.02425
2733.84840,0.02416
2731.78823,0.02390
2729.72805,0.02368
2727.66788,0.02352
2725.60771,0.02331
2723.54754,0.02315
2721.48737,0.02301
2719.42719,0.02285
2717.36702,0.02277
2715.30685,0.02279
2713.24668,0.02280
2711.18651,0.02263
2709.12633,0.02226
2707.06616,0.02182
2705.00599,0.02146
2702.94582,0.02120
2700.88565,0.02094
2698.82547,0.02083
2696.76530,0.02087
2694.70513,0.02090
2692.64496,0.02092
2690.58478,0.02090
2688.52461,0.02073
2686.46444,0.02049
2684.40427,0.02030
2682.34410,0.02020
2680.28392,0.02010
2678.22375,0.01980
2676.16358,0.01929
2674.10341,0.01897
2672.04324,0.01893
2669.98306,0.01893
2667.92289,0.01888
2665.86272,0.01874
2663.80255,0.01858
2661.74238,0.01838
2659.68220,0.01806
2657.62203,0.01782
2655.56186,0.01777
2653.50169,0.01778
2651.44151,0.01768
2649.38134,0.01751
2647.32117,0.01734
2645.26100,0.01707
2643.20083,0.01690
2641.14065,0.01678
2639.08048,0.01658
2637.02031,0.01654
2634.96014,0.01648
2632.89997,0.01616
2630.83979,0.01575
2628.77962,0.01551
2626.71945,0.01557
2624.65928,0.01545
2622.59910,0.01500
2620.53893,0.01459
2618.47876,0.01436
2616.41859,0.01437
2614.35842,0.01448
2612.29824,0.01450
2610.23807,0.01457
2608.17790,0.01465
2606.11773,0.01447
2604.05756,0.01410
2601.99738,0.01398
2599.93721,0.01401
2597.87704,0.01388
2595.81687,0.01373
2593.75670,0.01349
2591.69652,0.01325
2589.63635,0.01333
2587.57618,0.01339
2585.51601,0.01322
2583.45583,0.01298
2581.39566,0.01271
2579.33549,0.01260
2577.27532,0.01277
2575.21515,0.01301
2573.15497,0.01303
2571.09480,0.01273
2569.03463,0.01227
2566.97446,0.01202
2564.91429,0.01191
2562.85411,0.01160
2560.79394,0.01145
2558.73377,0.01190
2556.67360,0.01236
2554.61342,0.01220
2552.55325,0.01186
2550.49308,0.01180
2548.43291,0.01197
2546.37274,0.01207
2544.31256,0.01180
2542.25239,0.01149
2540.19222,0.01141
2538.13205,0.01133
2536.07188,0.01129
2534.01170,0.01162
2531.95153,0.01220
2529.89136,0.01254
2527.83119,0.01245
2525.77102,0.01219
2523.71084,0.01201
2521.65067,0.01195
2519.59050,0.01210
2517.53033,0.01215
2515.47015,0.01205
2513.40998,0.01222
2511.34981,0.01240
2509.28964,0.01219
2507.22947,0.01197
2505.16929,0.01197
2503.10912,0.01226
2501.04895,0.01278
2498.98878,0.01275
2496.92861,0.01222
2494.86843,0.01209
2492.80826,0.01236
2490.74809,0.01232
2488.68792,0.01196
2486.62775,0.01169
2484.56757,0.01154
2482.50740,0.01157
2480.44723,0.01182
2478.38706,0.01194
2476.32688,0.01177
2474.26671,0.01159
2472.20654,0.01179
2470.14637,0.01218
2468.08620,0.01227
2466.02602,0.01190
2463.96585,0.01163
2461.90568,0.01187
2459.84551,0.01210
2457.78534,0.01199
2455.72516,0.01176
2453.66499,0.01161
2451.60482,0.01176
2449.54465,0.01199
2447.48447,0.01185
2445.42430,0.01167
2443.36413,0.01175
2441.30396,0.01178
2439.24379,0.01188
2437.18361,0.01227
2435.12344,0.01225
2433.06327,0.01171
2431.00310,0.01162
2428.94293,0.01197
2426.88275,0.01199
2424.82258,0.01175
2422.76241,0.01160
2420.70224,0.01164
2418.64207,0.01197
2416.58189,0.01232
2414.52172,0.01233
2412.46155,0.01205
2410.40138,0.01181
2408.34120,0.01170
2406.28103,0.01171
2404.22086,0.01179
2402.16069,0.01180
2400.10052,0.01165
2398.04034,0.01150
2395.98017,0.01146
2393.92000,0.01152
2391.85983,0.01136
2389.79966,0.01114
2387.73948,0.01118
2385.67931,0.01138
2383.61914,0.01157
2381.55897,0.01162
2379.49880,0.01146
2377.43862,0.01146
2375.37845,0.01258
2373.31828,0.01425
2371.25811,0.01472
2369.19793,0.01312
2367.13776,0.00874
2365.07759,0.00451
2363.01742,0.00542
2360.95725,0.00580
2358.89707,0.00470
2356.83690,0.00521
2354.77673,0.00884
2352.71656,0.01242
2350.65639,0.01001
2348.59621,0.00793
2346.53604,0.01221
2344.47587,0.01203
2342.41570,0.00966
2340.35552,0.00933
2338.29535,0.00995
2336.23518,0.01101
2334.17501,0.01181
2332.11484,0.01189
2330.05466,0.01012
2327.99449,0.00928
2325.93432,0.01004
2323.87415,0.01206
2321.81398,0.01288
2319.75380,0.01268
2317.69363,0.01154
2315.63346,0.01123
2313.57329,0.01147
2311.51312,0.01141
2309.45294,0.01119
2307.39277,0.01121
2305.33260,0.01160
2303.27243,0.01191
2301.21225,0.01175
2299.15208,0.01094
2297.09191,0.01064
2295.03174,0.01109
2292.97157,0.01134
2290.91139,0.01138
2288.85122,0.01159
2286.79105,0.01175
2284.73088,0.01169
2282.67071,0.01149
2280.61053,0.01094
2278.55036,0.01006
2276.49019,0.00955
2274.43002,0.00965
2272.36984,0.00996
2270.30967,0.01005
2268.24950,0.00979
2266.18933,0.00927
2264.12916,0.00878
2262.06898,0.00864
2260.00881,0.00891
2257.94864,0.00928
2255.88847,0.00949
2253.82830,0.00935
2251.76812,0.00905
2249.70795,0.00926
2247.64778,0.00959
2245.58761,0.00882
2243.52744,0.00761
2241.46726,0.00720
2239.40709,0.00726
2237.34692,0.00727
2235.28675,0.00773
2233.22657,0.00884
2231.16640,0.00921
2229.10623,0.00864
2227.04606,0.00874
2224.98589,0.00933
2222.92571,0.00966
2220.86554,0.00972
2218.80537,0.00914
2216.74520,0.00794
2214.68503,0.00707
2212.62485,0.00727
2210.56468,0.00788
2208.50451,0.00773
2206.44434,0.00670
2204.38417,0.00627
2202.32399,0.00729
2200.26382,0.00789
2198.20365,0.00723
2196.14348,0.00696
2194.08330,0.00713
2192.02313,0.00708
2189.96296,0.00682
2187.90279,0.00653
2185.84262,0.00694
2183.78244,0.00665
2181.72227,0.00565
2179.66210,0.00607
2177.60193,0.00685
2175.54176,0.00711
2173.48158,0.00706
2171.42141,0.00636
2169.36124,0.00595
2167.30107,0.00658
2165.24089,0.00773
2163.18072,0.00822
2161.12055,0.00712
2159.06038,0.00574
2157.00021,0.00595
2154.94003,0.00610
2152.87986,0.00530
2150.81969,0.00541
2148.75952,0.00632
2146.69935,0.00639
2144.63917,0.00598
2142.57900,0.00593
2140.51883,0.00592
2138.45866,0.00596
2136.39849,0.00592
2134.33831,0.00601
2132.27814,0.00648
2130.21797,0.00630
2128.15780,0.00593
2126.09762,0.00638
2124.03745,0.00687
2121.97728,0.00694
2119.91711,0.00675
2117.85694,0.00642
2115.79676,0.00620
2113.73659,0.00596
2111.67642,0.00619
2109.61625,0.00740
2107.55608,0.00821
2105.49590,0.00813
2103.43573,0.00838
2101.37556,0.00811
2099.31539,0.00669
2097.25521,0.00574
2095.19504,0.00594
2093.13487,0.00654
2091.07470,0.00639
2089.01453,0.00592
2086.95435,0.00627
2084.89418,0.00672
2082.83401,0.00625
2080.77384,0.00529
2078.71367,0.00526
2076.65349,0.00628
2074.59332,0.00676
2072.53315,0.00636
2070.47298,0.00589
2068.41281,0.00550
2066.35263,0.00544
2064.29246,0.00559
2062.23229,0.00548
2060.17212,0.00492
2058.11194,0.00404
2056.05177,0.00379
2053.99160,0.00482
2051.93143,0.00583
2049.87126,0.00566
2047.81108,0.00507
2045.75091,0.00473
2043.69074,0.00471
2041.63057,0.00516
2039.57040,0.00523
2037.51022,0.00457
2035.45005,0.00409
2033.38988,0.00398
2031.32971,0.00356
2029.26954,0.00306
2027.20936,0.00308
2025.14919,0.00317
2023.08902,0.00290
2021.02885,0.00249
2018.96867,0.00213
2016.90850,0.00220
2014.84833,0.00274
2012.78816,0.00288
2010.72799,0.00236
2008.66781,0.00194
2006.60764,0.00137
2004.54747,0.00077
2002.48730,0.00154
2000.42713,0.00306
1998.36695,0.00352
1996.30678,0.00333
1994.24661,0.00405
1992.18644,0.00512
1990.12626,0.00494
1988.06609,0.00380
1986.00592,0.00291
1983.94575,0.00314
1981.88558,0.00361
1979.82540,0.00235
1977.76523,0.00070
1975.70506,0.00154
1973.64489,0.00356
1971.58472,0.00432
1969.52454,0.00359
1967.46437,0.00195
1965.40420,0.00090
1963.34403,0.00127
1961.28386,0.00186
1959.22368,0.00179
1957.16351,0.00154
1955.10334,0.00148
1953.04317,0.00126
1950.98299,0.00124
1948.92282,0.00170
1946.86265,0.00199
1944.80248,0.00205
1942.74231,0.00232
1940.68213,0.00272
1938.62196,0.00280
1936.56179,0.00266
1934.50162,0.00258
1932.44145,0.00239
1930.38127,0.00226
1928.32110,0.00215
1926.26093,0.00166
1924.20076,0.00127
1922.14059,0.00170
1920.08041,0.00234
1918.02024,0.00224
1915.96007,0.00185
1913.89990,0.00191
1911.83972,0.00224
1909.77955,0.00227
1907.71938,0.00178
1905.65921,0.00128
1903.59904,0.00131
1901.53886,0.00154
1899.47869,0.00126
1897.41852,0.00071
1895.35835,0.00078
1893.29818,0.00152
1891.23800,0.00214
1889.17783,0.00242
1887.11766,0.00251
1885.05749,0.00224
1882.99731,0.00157
1880.93714,0.00100
1878.87697,0.00092
1876.81680,0.00120
1874.75663,0.00158
1872.69645,0.00174
1870.63628,0.00130
1868.57611,0.00062
1866.51594,0.00061
1864.45577,0.00125
1862.39559,0.00176
1860.33542,0.00174
1858.27525,0.00134
1856.21508,0.00083
1854.15491,0.00049
1852.09473,0.00030
1850.03456,0.00011
1847.97439,0.00000
1845.91422,0.00016
1843.85404,0.00053
1841.79387,0.00079
1839.73370,0.00088
1837.67353,0.00089
1835.61336,0.00087
1833.55318,0.00081
1831.49301,0.00075
1829.43284,0.00078
1827.37267,0.00090
1825.31250,0.00112
1823.25232,0.00150
1821.19215,0.00181
1819.13198,0.00171
1817.07181,0.00137
1815.01163,0.00124
1812.95146,0.00134
1810.89129,0.00125
1808.83112,0.00102
1806.77095,0.00102
1804.71077,0.00111
1802.65060,0.00103
1800.59043,0.00099
1798.53026,0.00111
1796.47009,0.00110
1794.40991,0.00086
1792.34974,0.00084
1790.28957,0.00131
1788.22940,0.00185
1786.16923,0.00215
1784.10905,0.00221
1782.04888,0.00210
1779.98871,0.00195
1777.92854,0.00178
1775.86836,0.00144
1773.80819,0.00106
1771.74802,0.00108
1769.68785,0.00155
1767.62768,0.00208
1765.56750,0.00241
1763.50733,0.00252
1761.44716,0.00265
1759.38699,0.00305
1757.32682,0.00362
1755.26664,0.00414
1753.20647,0.00443
1751.14630,0.00465
1749.08613,0.00506
1747.02596,0.00558
1744.96578,0.00600
1742.90561,0.00628
1740.84544,0.00659
1738.78527,0.00699
1736.72509,0.00726
1734.66492,0.00749
1732.60475,0.00800
1730.54458,0.00868
1728.48441,0.00930
1726.42423,0.00971
1724.36406,0.00993
1722.30389,0.01011
1720.24372,0.01016
1718.18355,0.01019
1716.12337,0.01078
1714.06320,0.01182
1712.00303,0.01274
1709.94286,0.01331
1707.88268,0.01362
1705.82251,0.01390
1703.76234,0.01432
1701.70217,0.01488
1699.64200,0.01563
1697.58182,0.01653
1695.52165,0.01766
1693.46148,0.01892
1691.40131,0.01993
1689.34114,0.02052
1687.28096,0.02077
1685.22079,0.02128
1683.16062,0.02279
1681.10045,0.02463
1679.04028,0.02595
1676.98010,0.02686
1674.91993,0.02784
1672.85976,0.02895
1670.79959,0.03010
1668.73941,0.03146
1666.67924,0.03280
1664.61907,0.03384
1662.55890,0.03492
1660.49873,0.03613
1658.43855,0.03708
1656.37838,0.03759
1654.31821,0.03793
1652.25804,0.03857
1650.19787,0.03915
1648.13769,0.03957
1646.07752,0.04034
1644.01735,0.04115
1641.95718,0.04131
1639.89701,0.04093
1637.83683,0.04047
1635.77666,0.04040
1633.71649,0.04060
1631.65632,0.04051
1629.59614,0.04012
1627.53597,0.03973
1625.47580,0.03918
1623.41563,0.03834
1621.35546,0.03775
1619.29528,0.03743
1617.23511,0.03696
1615.17494,0.03647
1613.11477,0.03600
1611.05460,0.03532
1608.99442,0.03446
1606.93425,0.03348
1604.87408,0.03236
1602.81391,0.03124
1600.75373,0.03024
1598.69356,0.02929
1596.63339,0.02829
1594.57322,0.02722
1592.51305,0.02609
1590.45287,0.02490
1588.39270,0.02373
1586.33253,0.02274
1584.27236,0.02180
1582.21219,0.02069
1580.15201,0.01937
1578.09184,0.01792
1576.03167,0.01671
1573.97150,0.01610
1571.91133,0.01545
1569.85115,0.01434
1567.79098,0.01352
1565.73081,0.01328
1563.67064,0.01301
1561.61046,0.01222
1559.55029,0.01099
1557.49012,0.01045
1555.42995,0.01067
1553.36978,0.01051
1551.30960,0.00988
1549.24943,0.00938
1547.18926,0.00915
1545.12909,0.00872
1543.06892,0.00770
1541.00874,0.00651
1538.94857,0.00614
1536.88840,0.00628
1534.82823,0.00615
1532.76805,0.00588
1530.70788,0.00576
1528.64771,0.00555
1526.58754,0.00520
1524.52737,0.00483
1522.46719,0.00445
1520.40702,0.00417
1518.34685,0.00421
1516.28668,0.00450
1514.22651,0.00463
1512.16633,0.00425
1510.10616,0.00343
1508.04599,0.00255
1505.98582,0.00229
1503.92565,0.00272
1501.86547,0.00304
1499.80530,0.00285
1497.74513,0.00235
1495.68496,0.00201
1493.62478,0.00194
1491.56461,0.00189
1489.50444,0.00182
1487.44427,0.00190
1485.38410,0.00212
1483.32392,0.00233
1481.26375,0.00248
1479.20358,0.00254
1477.14341,0.00249
1475.08324,0.00258
1473.02306,0.00319
1470.96289,0.00414
1468.90272,0.00484
1466.84255,0.00516
1464.78238,0.00538
1462.72220,0.00571
1460.66203,0.00602
1458.60186,0.00630
1456.54169,0.00675
1454.48151,0.00727
1452.42134,0.00757
1450.36117,0.00763
1448.30100,0.00765
1446.24083,0.00772
1444.18065,0.00770
1442.12048,0.00758
1440.06031,0.00741
1438.00014,0.00726
1435.93997,0.00726
1433.87979,0.00738
1431.81962,0.00748
1429.75945,0.00757
1427.69928,0.00772
1425.63910,0.00800
1423.57893,0.00840
1421.51876,0.00864
1419.45859,0.00867
1417.39842,0.00880
1415.33824,0.00900
1413.27807,0.00910
1411.21790,0.00910
1409.15773,0.00905
1407.09756,0.00890
1405.03738,0.00856
1402.97721,0.00813
1400.91704,0.00782
1398.85687,0.00771
1396.79670,0.00779
1394.73652,0.00788
1392.67635,0.00792
1390.61618,0.00796
1388.55601,0.00805
1386.49583,0.00819
1384.43566,0.00836
1382.37549,0.00857
1380.31532,0.00880
1378.25515,0.00906
1376.19497,0.00929
1374.13480,0.00948
1372.07463,0.00954
1370.01446,0.00942
1367.95429,0.00912
1365.89411,0.00878
1363.83394,0.00848
1361.77377,0.00821
1359.71360,0.00789
1357.65343,0.00758
1355.59325,0.00740
1353.53308,0.00732
1351.47291,0.00724
1349.41274,0.00709
1347.35256,0.00684
1345.29239,0.00665
1343.23222,0.00659
1341.17205,0.00656
1339.11188,0.00657
1337.05170,0.00662
1334.99153,0.00656
1332.93136,0.00629
1330.87119,0.00603
1328.81102,0.00588
1326.75084,0.00568
1324.69067,0.00536
1322.63050,0.00503
1320.57033,0.00476
1318.51015,0.00450
1316.44998,0.00426
1314.38981,0.00414
1312.32964,0.00411
1310.26947,0.00403
1308.20929,0.00382
1306.14912,0.00362
1304.08895,0.00350
1302.02878,0.00340
1299.96861,0.00326
1297.90843,0.00314
1295.84826,0.00314
1293.78809,0.00325
1291.72792,0.00332
1289.66775,0.00326
1287.60757,0.00317
1285.54740,0.00320
1283.48723,0.00329
1281.42706,0.00329
1279.36688,0.00328
1277.30671,0.00343
1275.24654,0.00371
1273.18637,0.00395
1271.12620,0.00405
1269.06602,0.00404
1267.00585,0.00406
1264.94568,0.00423
1262.88551,0.00446
1260.82534,0.00459
1258.76516,0.00458
1256.70499,0.00450
1254.64482,0.00447
1252.58465,0.00443
1250.52447,0.00428
1248.46430,0.00411
1246.40413,0.00406
1244.34396,0.00414
1242.28379,0.00420
1240.22361,0.00408
1238.16344,0.00390
1236.10327,0.00385
1234.04310,0.00391
1231.98293,0.00395
1229.92275,0.00392
1227.86258,0.00388
1225.80241,0.00388
1223.74224,0.00384
1221.68207,0.00377
1219.62189,0.00371
1217.56172,0.00351
1215.50155,0.00325
1213.44138,0.00305
1211.38120,0.00278
1209.32103,0.00240
1207.26086,0.00214
1205.20069,0.00203
1203.14052,0.00183
1201.08034,0.00146
1199.02017,0.00107
1196.96000,0.00082
1194.89983,0.00070
1192.83966,0.00077
1190.77948,0.00091
1188.71931,0.00114
1186.65914,0.00151
1184.59897,0.00180
1182.53880,0.00219
1180.47862,0.00300
1178.41845,0.00414
1176.35828,0.00535
1174.29811,0.00648
1172.23793,0.00740
1170.17776,0.00835
1168.11759,0.00951
1166.05742,0.01064
1163.99725,0.01154
1161.93707,0.01246
1159.87690,0.01359
1157.81673,0.01462
1155.75656,0.01543
1153.69639,0.01635
1151.63621,0.01740
1149.57604,0.01841
1147.51587,0.01943
1145.45570,0.02048
1143.39552,0.02154
1141.33535,0.02273
1139.27518,0.02396
1137.21501,0.02502
1135.15484,0.02600
1133.09466,0.02710
1131.03449,0.02817
1128.97432,0.02909
1126.91415,0.03013
1124.85398,0.03145
1122.79380,0.03273
1120.73363,0.03389
1118.67346,0.03536
1116.61329,0.03727
1114.55312,0.03926
1112.49294,0.04108
1110.43277,0.04296
1108.37260,0.04528
1106.31243,0.04795
1104.25225,0.05058
1102.19208,0.05298
1100.13191,0.05547
1098.07174,0.05826
1096.01157,0.06103
1093.95139,0.06350
1091.89122,0.06566
1089.83105,0.06777
1087.77088,0.07007
1085.71071,0.07245
1083.65053,0.07473
1081.59036,0.07684
1079.53019,0.07878
1077.47002,0.08070
1075.40985,0.08272
1073.34967,0.08450
1071.28950,0.08562
1069.22933,0.08619
1067.16916,0.08661
1065.10898,0.08710
1063.04881,0.08749
1060.98864,0.08750
1058.92847,0.08712
1056.86830,0.08672
1054.80812,0.08643
1052.74795,0.08608
1050.68778,0.08560
1048.62761,0.08494
1046.56744,0.08382
1044.50726,0.08238
1042.44709,0.08081
1040.38692,0.07912
1038.32675,0.07764
1036.26657,0.07618
1034.20640,0.07428
1032.14623,0.07230
1030.08606,0.07067
1028.02589,0.06920
1025.96571,0.06756
1023.90554,0.06578
1021.84537,0.06406
1019.78520,0.06222
1017.72503,0.06016
1015.66485,0.05815
1013.60468,0.05622
1011.54451,0.05421
1009.48434,0.05222
1007.42417,0.05056
1005.36399,0.04925
1003.30382,0.04819
1001.24365,0.04766
999.18348,0.04782
997.12330,0.04848
995.06313,0.04945
993.00296,0.05080
990.94279,0.05223
988.88262,0.05316
986.82244,0.05361
984.76227,0.05365
982.70210,0.05287
980.64193,0.05112
978.58176,0.04849
976.52158,0.04526
974.46141,0.04215
972.40124,0.03922
970.34107,0.03614
968.28089,0.03303
966.22072,0.02988
964.16055,0.02698
962.10038,0.02471
960.04021,0.02274
957.98003,0.02093
955.91986,0.01937
953.85969,0.01786
951.79952,0.01662
949.73935,0.01594
947.67917,0.01549
945.61900,0.01491
943.55883,0.01434
941.49866,0.01403
939.43849,0.01383
937.37831,0.01354
935.31814,0.01314
933.25797,0.01267
931.19780,0.01225
929.13762,0.01202
927.07745,0.01180
925.01728,0.01140
922.95711,0.01073
920.89694,0.00975
918.83676,0.00855
916.77659,0.00736
914.71642,0.00651
912.65625,0.00579
910.59608,0.00480
908.53590,0.00368
906.47573,0.00288
904.41556,0.00264
902.35539,0.00278
900.29522,0.00283
898.23504,0.00270
896.17487,0.00248
894.11470,0.00242
892.05453,0.00277
889.99435,0.00332
887.93418,0.00364
885.87401,0.00385
883.81384,0.00419
881.75367,0.00453
879.69349,0.00510
877.63332,0.00595
875.57315,0.00677
873.51298,0.00760
871.45281,0.00841
869.39263,0.00891
867.33246,0.00922
865.27229,0.00968
863.21212,0.01009
861.15194,0.01005
859.09177,0.00998
857.03160,0.01011
854.97143,0.01026
852.91126,0.01039
850.85108,0.01005
848.79091,0.00935
846.73074,0.00876
844.67057,0.00821
842.61040,0.00749
840.55022,0.00664
838.49005,0.00627
836.42988,0.00657
834.36971,0.00656
832.30954,0.00581
830.24936,0.00457
828.18919,0.00342
826.12902,0.00303
824.06885,0.00322
822.00867,0.00318
819.94850,0.00248
817.88833,0.00140
815.82816,0.00086
813.76799,0.00127
811.70781,0.00187
809.64764,0.00184
807.58747,0.00137
805.52730,0.00097
803.46713,0.00086
801.40695,0.00099
799.34678,0.00104
797.28661,0.00066
795.22644,0.00013
793.16627,0.00000
791.10609,0.00036
789.04592,0.00071
786.98575,0.00091
784.92558,0.00136
782.86540,0.00188
780.80523,0.00214
778.74506,0.00218
776.68489,0.00209
774.62472,0.00202
772.56454,0.00203
770.50437,0.00245
768.44420,0.00324
766.38403,0.00386
764.32386,0.00389
762.26368,0.00352
760.20351,0.00343
758.14334,0.00340
756.08317,0.00278
754.02299,0.00223
751.96282,0.00240
749.90265,0.00250
747.84248,0.00221
745.78231,0.00198
743.72213,0.00146
741.66196,0.00084
739.60179,0.00118
737.54162,0.00225
735.48145,0.00272
733.42127,0.00222
731.36110,0.00186
729.30093,0.00254
727.24076,0.00361
725.18059,0.00392
723.12041,0.00338
721.06024,0.00349
719.00007,0.00313
716.93990,0.00328
714.87972,0.00428
712.81955,0.00510
710.75938,0.00547
708.69921,0.00527
706.63904,0.00467
704.57886,0.00419
702.51869,0.00418
700.45852,0.00435
698.39835,0.00433
696.33818,0.00425
694.27800,0.00387
692.21783,0.00315
690.15766,0.00305
688.09749,0.00339
686.03731,0.00271
683.97714,0.00133
681.91697,0.00081
679.85680,0.00132
677.79663,0.00215
675.73645,0.00257
673.67628,0.00145
671.61611,0.00000
669.55594,0.00647
667.49577,0.01058
665.43559,0.00063
663.37542,0.00017
661.31525,0.00199
659.25508,0.00291
657.19491,0.00384
655.13473,0.00421
653.07456,0.00374
651.01439,0.00338
648.95422,0.00344
646.89404,0.00296
644.83387,0.00296
642.77370,0.00301
640.71353,0.00218
638.65336,0.00163
636.59318,0.00270
634.53301,0.00440
632.47284,0.00517
630.41267,0.00500
628.35250,0.00469
626.29232,0.00381
624.23215,0.00204
622.17198,0.00135
620.11181,0.00158
618.05164,0.00226
615.99146,0.00489
613.93129,0.00681
611.87112,0.00514
609.81095,0.00358
607.75077,0.00472
605.69060,0.00572
603.63043,0.00421
601.57026,0.00161
599.51009,0.00000
