3996.73391,0.00014
3994.67373,0.00004
3992.61356,0.00000
3990.55339,0.00016
3988.49322,0.00066
3986.43305,0.00121
3984.37287,0.00136
3982.31270,0.00116
3980.25253,0.00102
3978.19236,0.00108
3976.13219,0.00117
3974.07201,0.00125
3972.01184,0.00119
3969.95167,0.00088
3967.89150,0.00075
3965.83133,0.00097
3963.77115,0.00102
3961.71098,0.00088
3959.65081,0.00097
3957.59064,0.00123
3955.53046,0.00133
3953.47029,0.00116
3951.41012,0.00087
3949.34995,0.00062
3947.28978,0.00044
3945.22960,0.00030
3943.16943,0.00021
3941.10926,0.00036
3939.04909,0.00075
3936.98892,0.00093
3934.92874,0.00080
3932.86857,0.00087
3930.80840,0.00113
3928.74823,0.00121
3926.68805,0.00118
3924.62788,0.00131
3922.56771,0.00153
3920.50754,0.00147
3918.44737,0.00103
3916.38719,0.00068
3914.32702,0.00082
3912.26685,0.00119
3910.20668,0.00116
3908.14651,0.00054
3906.08633,0.00000
3904.02616,0.00007
3901.96599,0.00026
3899.90582,0.00018
3897.84565,0.00034
3895.78547,0.00090
3893.72530,0.00140
3891.66513,0.00142
3889.60496,0.00111
3887.54478,0.00101
3885.48461,0.00122
3883.42444,0.00125
3881.36427,0.00106
3879.30410,0.00098
3877.24392,0.00103
3875.18375,0.00108
3873.12358,0.00101
3871.06341,0.00071
3869.00324,0.00048
3866.94306,0.00069
3864.88289,0.00114
3862.82272,0.00139
3860.76255,0.00137
3858.70237,0.00144
3856.64220,0.00179
3854.58203,0.00203
3852.52186,0.00182
3850.46169,0.00142
3848.40151,0.00101
3846.34134,0.00063
3844.28117,0.00038
3842.22100,0.00026
3840.16083,0.00010
3838.10065,0.00011
3836.04048,0.00058
3833.98031,0.00121
3831.92014,0.00146
3829.85997,0.00116
3827.79979,0.00079
3825.73962,0.00080
3823.67945,0.00113
3821.61928,0.00145
3819.55910,0.00134
3817.49893,0.00091
3815.43876,0.00077
3813.37859,0.00093
3811.31842,0.00106
3809.25824,0.00114
3807.19807,0.00121
3805.13790,0.00108
3803.07773,0.00072
3801.01756,0.00065
3798.95738,0.00094
3796.89721,0.00089
3794.83704,0.00064
3792.77687,0.00062
3790.71670,0.00076
3788.65652,0.00090
3786.59635,0.00106
3784.53618,0.00119
3782.47601,0.00128
3780.41583,0.00140
3778.35566,0.00149
3776.29549,0.00153
3774.23532,0.00144
3772.17515,0.00108
3770.11497,0.00064
3768.05480,0.00060
3765.99463,0.00085
3763.93446,0.00096
3761.87429,0.00099
3759.81411,0.00115
3757.75394,0.00129
3755.69377,0.00114
3753.63360,0.00068
3751.57342,0.00016
3749.51325,0.00026
3747.45308,0.00097
3745.39291,0.00138
3743.33274,0.00100
3741.27256,0.00048
3739.21239,0.00033
3737.15222,0.00047
3735.09205,0.00084
3733.03188,0.00125
3730.97170,0.00152
3728.91153,0.00176
3726.85136,0.00170
3724.79119,0.00097
3722.73102,0.00010
3720.67084,0.00000
3718.61067,0.00051
3716.55050,0.00092
3714.49033,0.00115
3712.43015,0.00155
3710.36998,0.00179
3708.30981,0.00141
3706.24964,0.00094
3704.18947,0.00087
3702.12929,0.00103
3700.06912,0.00099
3698.00895,0.00083
3695.94878,0.00093
3693.88861,0.00114
3691.82843,0.00090
3689.76826,0.00043
3687.70809,0.00064
3685.64792,0.00114
3683.58775,0.00119
3681.52757,0.00102
3679.46740,0.00105
3677.40723,0.00126
3675.34706,0.00164
3673.28688,0.00207
3671.22671,0.00226
3669.16654,0.00221
3667.10637,0.00210
3665.04620,0.00213
3662.98602,0.00236
3660.92585,0.00258
3658.86568,0.00263
3656.80551,0.00277
3654.74534,0.00315
3652.68516,0.00352
3650.62499,0.00368
3648.56482,0.00336
3646.50465,0.00287
3644.44447,0.00265
3642.38430,0.00247
3640.32413,0.00249
3638.26396,0.00318
3636.20379,0.00420
3634.14361,0.00473
3632.08344,0.00452
3630.02327,0.00409
3627.96310,0.00427
3625.90293,0.00495
3623.84275,0.00547
3621.78258,0.00547
3619.72241,0.00510
3617.66224,0.00504
3615.60207,0.00544
3613.54189,0.00596
3611.48172,0.00657
3609.42155,0.00721
3607.36138,0.00761
3605.30120,0.00757
3603.24103,0.00756
3601.18086,0.00806
3599.12069,0.00876
3597.06052,0.00916
3595.00034,0.00931
3592.94017,0.00940
3590.88000,0.00947
3588.81983,0.00965
3586.75966,0.00996
3584.69948,0.01011
3582.63931,0.01013
3580.57914,0.01039
3578.51897,0.01107
3576.45879,0.01201
3574.39862,0.01271
3572.33845,0.01282
3570.27828,0.01259
3568.21811,0.01220
3566.15793,0.01203
3564.09776,0.01262
3562.03759,0.01357
3559.97742,0.01431
3557.91725,0.01473
3555.85707,0.01487
3553.79690,0.01503
3551.73673,0.01562
3549.67656,0.01660
3547.61639,0.01725
3545.55621,0.01740
3543.49604,0.01771
3541.43587,0.01823
3539.37570,0.01864
3537.31552,0.01907
3535.25535,0.01960
3533.19518,0.02006
3531.13501,0.02039
3529.07484,0.02081
3527.01466,0.02148
3524.95449,0.02213
3522.89432,0.02256
3520.83415,0.02279
3518.77398,0.02293
3516.71380,0.02328
3514.65363,0.02389
3512.59346,0.02451
3510.53329,0.02501
3508.47312,0.02537
3506.41294,0.02557
3504.35277,0.02571
3502.29260,0.02606
3500.23243,0.02669
3498.17225,0.02727
3496.11208,0.02757
3494.05191,0.02778
3491.99174,0.02820
3489.93157,0.02869
3487.87139,0.02905
3485.81122,0.02948
3483.75105,0.03008
3481.69088,0.03067
3479.63071,0.03095
3477.57053,0.03083
3475.51036,0.03062
3473.45019,0.03088
3471.39002,0.03166
3469.32984,0.03234
3467.26967,0.03265
3465.20950,0.03291
3463.14933,0.03327
3461.08916,0.03362
3459.02898,0.03389
3456.96881,0.03424
3454.90864,0.03482
3452.84847,0.03555
3450.78830,0.03618
3448.72812,0.03660
3446.66795,0.03700
3444.60778,0.03754
3442.54761,0.03805
3440.48744,0.03840
3438.42726,0.03861
3436.36709,0.03864
3434.30692,0.03869
3432.24675,0.03893
3430.18657,0.03934
3428.12640,0.03992
3426.06623,0.04038
3424.00606,0.04031
3421.94589,0.04022
3419.88571,0.04081
3417.82554,0.04173
3415.76537,0.04229
3413.70520,0.04257
3411.64503,0.04298
3409.58485,0.04337
3407.52468,0.04353
3405.46451,0.04363
3403.40434,0.04381
3401.34416,0.04427
3399.28399,0.04498
3397.22382,0.04553
3395.16365,0.04581
3393.10348,0.04588
3391.04330,0.04589
3388.98313,0.04619
3386.92296,0.04674
3384.86279,0.04704
3382.80262,0.04708
3380.74244,0.04720
3378.68227,0.04750
3376.62210,0.04795
3374.56193,0.04852
3372.50176,0.04890
3370.44158,0.04902
3368.38141,0.04914
3366.32124,0.04926
3364.26107,0.04923
3362.20089,0.04916
3360.14072,0.04927
3358.08055,0.04947
3356.02038,0.04970
3353.96021,0.05024
3351.90003,0.05092
3349.83986,0.05111
3347.77969,0.05099
3345.71952,0.05101
3343.65935,0.05087
3341.59917,0.05075
3339.53900,0.05107
3337.47883,0.05145
3335.41866,0.05147
3333.35849,0.05146
3331.29831,0.05175
3329.23814,0.05232
3327.17797,0.05295
3325.11780,0.05335
3323.05762,0.05327
3320.99745,0.05316
3318.93728,0.05336
3316.87711,0.05339
3314.81694,0.05301
3312.75676,0.05272
3310.69659,0.05290
3308.63642,0.05330
3306.57625,0.05371
3304.51608,0.05401
3302.45590,0.05414
3300.39573,0.05416
3298.33556,0.05402
3296.27539,0.05383
3294.21521,0.05397
3292.15504,0.05441
3290.09487,0.05463
3288.03470,0.05466
3285.97453,0.05481
3283.91435,0.05496
3281.85418,0.05483
3279.79401,0.05439
3277.73384,0.05406
3275.67367,0.05427
3273.61349,0.05482
3271.55332,0.05524
3269.49315,0.05519
3267.43298,0.05481
3265.37281,0.05458
3263.31263,0.05450
3261.25246,0.05432
3259.19229,0.05410
3257.13212,0.05402
3255.07194,0.05410
3253.01177,0.05418
3250.95160,0.05412
3248.89143,0.05370
3246.83126,0.05324
3244.77108,0.05309
3242.71091,0.05308
3240.65074,0.05307
3238.59057,0.05291
3236.53040,0.05276
3234.47022,0.05287
3232.41005,0.05304
3230.34988,0.05294
3228.28971,0.05252
3226.22954,0.05211
3224.16936,0.05195
3222.10919,0.05196
3220.04902,0.05210
3217.98885,0.05208
3215.92867,0.05177
3213.86850,0.05151
3211.80833,0.05127
3209.74816,0.05077
3207.68799,0.05026
3205.62781,0.05010
3203.56764,0.05015
3201.50747,0.05013
3199.44730,0.05008
3197.38713,0.05010
3195.32695,0.05016
3193.26678,0.05021
3191.20661,0.05003
3189.14644,0.04954
3187.08626,0.04903
3185.02609,0.04872
3182.96592,0.04856
3180.90575,0.04841
3178.84558,0.04826
3176.78540,0.04822
3174.72523,0.04823
3172.66506,0.04810
3170.60489,0.04777
3168.54472,0.04739
3166.48454,0.04716
3164.42437,0.04707
3162.36420,0.04699
3160.30403,0.04671
3158.24386,0.04623
3156.18368,0.04587
3154.12351,0.04582
3152.06334,0.04592
3150.00317,0.04574
3147.94299,0.04508
3145.88282,0.04440
3143.82265,0.04408
3141.76248,0.04410
3139.70231,0.04424
3137.64213,0.04412
3135.58196,0.04371
3133.52179,0.04322
3131.46162,0.04289
3129.40145,0.04273
3127.34127,0.04262
3125.28110,0.04255
3123.22093,0.04236
3121.16076,0.04202
3119.10058,0.04176
3117.04041,0.04151
3114.98024,0.04120
3112.92007,0.04103
3110.85990,0.04091
3108.79972,0.04064
3106.73955,0.04024
3104.67938,0.03975
3102.61921,0.03952
3100.55904,0.03963
3098.49886,0.03965
3096.43869,0.03932
3094.37852,0.03894
3092.31835,0.03877
3090.25818,0.03863
3088.19800,0.03837
3086.13783,0.03817
3084.07766,0.03821
3082.01749,0.03837
3079.95731,0.03820
3077.89714,0.03763
3075.83697,0.03714
3073.77680,0.03684
3071.71663,0.03664
3069.65645,0.03643
3067.59628,0.03618
3065.53611,0.03603
3063.47594,0.03595
3061.41577,0.03575
3059.35559,0.03541
3057.29542,0.03513
3055.23525,0.03500
3053.17508,0.03478
3051.11491,0.03458
3049.05473,0.03457
3046.99456,0.03446
3044.93439,0.03402
3042.87422,0.03340
3040.81404,0.03293
3038.75387,0.03280
3036.69370,0.03268
3034.63353,0.03246
3032.57336,0.03234
3030.51318,0.03212
3028.45301,0.03168
3026.39284,0.03139
3024.33267,0.03121
3022.27250,0.03083
3020.21232,0.03041
3018.15215,0.03032
3016.09198,0.03042
3014.03181,0.03039
3011.97163,0.03019
3009.91146,0.02994
3007.85129,0.02974
3005.79112,0.02958
3003.73095,0.02929
3001.67077,0.02893
2999.61060,0.02863
2997.55043,0.02849
2995.49026,0.02858
2993.43009,0.02880
2991.36991,0.02887
2989.30974,0.02859
2987.24957,0.02827
2985.18940,0.02825
2983.12923,0.02846
2981.06905,0.02882
2979.00888,0.02939
2976.94871,0.03009
2974.88854,0.03068
2972.82836,0.03108
2970.76819,0.03157
2968.70802,0.03219
2966.64785,0.03291
2964.58768,0.03396
2962.52750,0.03525
2960.46733,0.03648
2958.40716,0.03762
2956.34699,0.03870
2954.28682,0.03962
2952.22664,0.04050
2950.16647,0.04145
2948.10630,0.04260
2946.04613,0.04424
2943.98596,0.04627
2941.92578,0.04842
2939.86561,0.05048
2937.80544,0.05256
2935.74527,0.05496
2933.68509,0.05759
2931.62492,0.06003
2929.56475,0.06207
2927.50458,0.06378
2925.44441,0.06543
2923.38423,0.06734
2921.32406,0.06946
2919.26389,0.07113
2917.20372,0.07145
2915.14355,0.06967
2913.08337,0.06609
2911.02320,0.06218
2908.96303,0.05891
2906.90286,0.05619
2904.84268,0.05400
2902.78251,0.05237
2900.72234,0.05095
2898.66217,0.04958
2896.60200,0.04857
2894.54182,0.04787
2892.48165,0.04701
2890.42148,0.04582
2888.36131,0.04458
2886.30114,0.04343
2884.24096,0.04241
2882.18079,0.04158
2880.12062,0.04092
2878.06045,0.04054
2876.00028,0.04043
2873.94010,0.04046
2871.87993,0.04062
2869.81976,0.04084
2867.75959,0.04118
2865.69941,0.04209
2863.63924,0.04369
2861.57907,0.04550
2859.51890,0.04733
2857.45873,0.04946
2855.39855,0.05192
2853.33838,0.05444
2851.27821,0.05666
2849.21804,0.05722
2847.15787,0.05478
2845.09769,0.05016
2843.03752,0.04530
2840.97735,0.04139
2838.91718,0.03866
2836.85700,0.03680
2834.79683,0.03544
2832.73666,0.03427
2830.67649,0.03324
2828.61632,0.03232
2826.55614,0.03150
2824.49597,0.03090
2822.43580,0.03044
2820.37563,0.02987
2818.31546,0.02921
2816.25528,0.02861
2814.19511,0.02816
2812.13494,0.02789
2810.07477,0.02768
2808.01460,0.02735
2805.95442,0.02701
2803.89425,0.02690
2801.83408,0.02695
2799.77391,0.02710
2797.71373,0.02714
2795.65356,0.02673
2793.59339,0.02608
2791.53322,0.02581
2789.47305,0.02598
2787.41287,0.02596
2785.35270,0.02552
2783.29253,0.02508
2781.23236,0.02493
2779.17219,0.02489
2777.11201,0.02488
2775.05184,0.02493
2772.99167,0.02495
2770.93150,0.02490
2768.87133,0.02478
2766.81115,0.02451
2764.75098,0.02425
2762.69081,0.02429
2760.63064,0.02440
2758.57046,0.02417
2756.51029,0.02367
2754.45012,0.02326
2752.38995,0.02316
2750.32978,0.02321
2748.26960,0.02317
2746.20943,0.02319
2744.14926,0.02335
2742.08909,0.02336
2740.02892,0.02316
2737.96874,0.02296
2735.90857,0.02275
2733.84840,0.02257
2731.78823,0.02251
2729.72805,0.02250
2727.66788,0.02260
2725.60771,0.02270
2723.54754,0.02259
2721.48737,0.02249
2719.42719,0.02243
2717.36702,0.02228
2715.30685,0.02210
2713.24668,0.02192
2711.18651,0.02194
2709.12633,0.02213
2707.06616,0.02217
2705.00599,0.02208
2702.94582,0.02197
2700.88565,0.02183
2698.82547,0.02170
2696.76530,0.02153
2694.70513,0.02127
2692.64496,0.02111
2690.58478,0.02107
2688.52461,0.02097
2686.46444,0.02091
2684.40427,0.02087
2682.34410,0.02071
2680.28392,0.02058
2678.22375,0.02055
2676.16358,0.02058
2674.10341,0.02053
2672.04324,0.02030
2669.98306,0.02018
2667.92289,0.02024
2665.86272,0.02028
2663.80255,0.02027
2661.74238,0.02014
2659.68220,0.01998
2657.62203,0.01995
2655.56186,0.01984
2653.50169,0.01949
2651.44151,0.01915
2649.38134,0.01896
2647.32117,0.01884
2645.26100,0.01872
2643.20083,0.01875
2641.14065,0.01894
2639.08048,0.01897
2637.02031,0.01876
2634.96014,0.01857
2632.89997,0.01836
2630.83979,0.01811
2628.77962,0.01809
2626.71945,0.01800
2624.65928,0.01751
2622.59910,0.01701
2620.53893,0.01687
2618.47876,0.01708
2616.41859,0.01728
2614.35842,0.01749
2612.29824,0.01762
2610.23807,0.01729
2608.17790,0.01681
2606.11773,0.01666
2604.05756,0.01661
2601.99738,0.01641
2599.93721,0.01618
2597.87704,0.01592
2595.81687,0.01572
2593.75670,0.01580
2591.69652,0.01584
2589.63635,0.01556
2587.57618,0.01531
2585.51601,0.01520
2583.45583,0.01507
2581.39566,0.01520
2579.33549,0.01530
2577.27532,0.01503
2575.21515,0.01492
2573.15497,0.01500
2571.09480,0.01503
2569.03463,0.01523
2566.97446,0.01525
2564.91429,0.01494
2562.85411,0.01459
2560.79394,0.01432
2558.73377,0.01410
2556.67360,0.01386
2554.61342,0.01364
2552.55325,0.01337
2550.49308,0.01332
2548.43291,0.01357
2546.37274,0.01374
2544.31256,0.01365
2542.25239,0.01318
2540.19222,0.01283
2538.13205,0.01304
2536.07188,0.01349
2534.01170,0.01378
2531.95153,0.01371
2529.89136,0.01328
2527.83119,0.01303
2525.77102,0.01314
2523.71084,0.01336
2521.65067,0.01345
2519.59050,0.01320
2517.53033,0.01286
2515.47015,0.01283
2513.40998,0.01300
2511.34981,0.01302
2509.28964,0.01276
2507.22947,0.01259
2505.16929,0.01275
2503.10912,0.01292
2501.04895,0.01285
2498.98878,0.01256
2496.92861,0.01223
2494.86843,0.01207
2492.80826,0.01193
2490.74809,0.01181
2488.68792,0.01149
2486.62775,0.01111
2484.56757,0.01132
2482.50740,0.01181
2480.44723,0.01192
2478.38706,0.01153
2476.32688,0.01112
2474.26671,0.01114
2472.20654,0.01132
2470.14637,0.01138
2468.08620,0.01126
2466.02602,0.01104
2463.96585,0.01109
2461.90568,0.01132
2459.84551,0.01116
2457.78534,0.01075
2455.72516,0.01047
2453.66499,0.01041
2451.60482,0.01069
2449.54465,0.01101
2447.48447,0.01092
2445.42430,0.01089
2443.36413,0.01116
2441.30396,0.01122
2439.24379,0.01094
2437.18361,0.01066
2435.12344,0.01046
2433.06327,0.01020
2431.00310,0.00984
2428.94293,0.00962
2426.88275,0.00976
2424.82258,0.01006
2422.76241,0.01016
2420.70224,0.00984
2418.64207,0.00952
2416.58189,0.00982
2414.52172,0.01021
2412.46155,0.01011
2410.40138,0.00984
2408.34120,0.00944
2406.28103,0.00913
2404.22086,0.00925
2402.16069,0.00936
2400.10052,0.00931
2398.04034,0.00937
2395.98017,0.00941
2393.92000,0.00917
2391.85983,0.00875
2389.79966,0.00863
2387.73948,0.00896
2385.67931,0.00932
2383.61914,0.00945
2381.55897,0.00948
2379.49880,0.00931
2377.43862,0.00876
2375.37845,0.00800
2373.31828,0.00737
2371.25811,0.00726
2369.19793,0.00798
2367.13776,0.00911
2365.07759,0.00937
2363.01742,0.00796
2360.95725,0.00701
2358.89707,0.00825
2356.83690,0.00884
2354.77673,0.00748
2352.71656,0.00648
2350.65639,0.00676
2348.59621,0.00731
2346.53604,0.00751
2344.47587,0.00749
2342.41570,0.00753
2340.35552,0.00755
2338.29535,0.00689
2336.23518,0.00545
2334.17501,0.00459
2332.11484,0.00545
2330.05466,0.00720
2327.99449,0.00885
2325.93432,0.01016
2323.87415,0.01019
2321.81398,0.00871
2319.75380,0.00713
2317.69363,0.00654
2315.63346,0.00682
2313.57329,0.00722
2311.51312,0.00723
2309.45294,0.00731
2307.39277,0.00773
2305.33260,0.00789
2303.27243,0.00760
2301.21225,0.00752
2299.15208,0.00797
2297.09191,0.00817
2295.03174,0.00764
2292.97157,0.00708
2290.91139,0.00710
2288.85122,0.00725
2286.79105,0.00708
2284.73088,0.00681
2282.67071,0.00646
2280.61053,0.00602
2278.55036,0.00582
2276.49019,0.00585
2274.43002,0.00590
2272.36984,0.00627
2270.30967,0.00672
2268.24950,0.00655
2266.18933,0.00635
2264.12916,0.00689
2262.06898,0.00741
2260.00881,0.00734
2257.94864,0.00700
2255.88847,0.00655
2253.82830,0.00594
2251.76812,0.00551
2249.70795,0.00581
2247.64778,0.00680
2245.58761,0.00742
2243.52744,0.00720
2241.46726,0.00624
2239.40709,0.00510
2237.34692,0.00562
2235.28675,0.00743
2233.22657,0.00791
2231.16640,0.00702
2229.10623,0.00636
2227.04606,0.00557
2224.98589,0.00438
2222.92571,0.00426
2220.86554,0.00474
2218.80537,0.00457
2216.74520,0.00467
2214.68503,0.00530
2212.62485,0.00560
2210.56468,0.00523
2208.50451,0.00482
2206.44434,0.00558
2204.38417,0.00646
2202.32399,0.00635
2200.26382,0.00630
2198.20365,0.00585
2196.14348,0.00494
2194.08330,0.00535
2192.02313,0.00683
2189.96296,0.00773
2187.90279,0.00678
2185.84262,0.00447
2183.78244,0.00262
2181.72227,0.00176
2179.66210,0.00208
2177.60193,0.00287
2175.54176,0.00249
2173.48158,0.00188
2171.42141,0.00244
2169.36124,0.00312
2167.30107,0.00303
2165.24089,0.00339
2163.18072,0.00424
2161.12055,0.00372
2159.06038,0.00179
2157.00021,0.00062
2154.94003,0.00164
2152.87986,0.00300
2150.81969,0.00275
2148.75952,0.00222
2146.69935,0.00222
2144.63917,0.00190
2142.57900,0.00160
2140.51883,0.00185
2138.45866,0.00261
2136.39849,0.00326
2134.33831,0.00316
2132.27814,0.00325
2130.21797,0.00397
2128.15780,0.00444
2126.09762,0.00449
2124.03745,0.00504
2121.97728,0.00626
2119.91711,0.00673
2117.85694,0.00612
2115.79676,0.00552
2113.73659,0.00521
2111.67642,0.00499
2109.61625,0.00459
2107.55608,0.00381
2105.49590,0.00331
2103.43573,0.00355
2101.37556,0.00408
2099.31539,0.00454
2097.25521,0.00488
2095.19504,0.00510
2093.13487,0.00464
2091.07470,0.00363
2089.01453,0.00364
2086.95435,0.00426
2084.89418,0.00390
2082.83401,0.00312
2080.77384,0.00286
2078.71367,0.00356
2076.65349,0.00510
2074.59332,0.00596
2072.53315,0.00541
2070.47298,0.00458
2068.41281,0.00371
2066.35263,0.00256
2064.29246,0.00220
2062.23229,0.00266
2060.17212,0.00306
2058.11194,0.00331
2056.05177,0.00359
2053.99160,0.00400
2051.93143,0.00417
2049.87126,0.00355
2047.81108,0.00261
2045.75091,0.00230
2043.69074,0.00271
2041.63057,0.00301
2039.57040,0.00304
2037.51022,0.00318
2035.45005,0.00283
2033.38988,0.00228
2031.32971,0.00215
2029.26954,0.00157
2027.20936,0.00084
2025.14919,0.00135
2023.08902,0.00251
2021.02885,0.00257
2018.96867,0.00127
2016.90850,0.00000
2014.84833,0.00022
2012.78816,0.00159
2010.72799,0.00253
2008.66781,0.00264
2006.60764,0.00277
2004.54747,0.00303
2002.48730,0.00252
2000.42713,0.00131
1998.36695,0.00089
1996.30678,0.00182
1994.24661,0.00322
1992.18644,0.00437
1990.12626,0.00418
1988.06609,0.00255
1986.00592,0.00164
1983.94575,0.00229
1981.88558,0.00244
1979.82540,0.00135
1977.76523,0.00034
1975.70506,0.00000
1973.64489,0.00023
1971.58472,0.00047
1969.52454,0.00057
1967.46437,0.00155
1965.40420,0.00318
1963.34403,0.00331
1961.28386,0.00180
1959.22368,0.00113
1957.16351,0.00194
1955.10334,0.00256
1953.04317,0.00233
1950.98299,0.00165
1948.92282,0.00128
1946.86265,0.00157
1944.80248,0.00165
1942.74231,0.00126
1940.68213,0.00116
1938.62196,0.00139
1936.56179,0.00203
1934.50162,0.00292
1932.44145,0.00349
1930.38127,0.00350
1928.32110,0.00284
1926.26093,0.00196
1924.20076,0.00153
1922.14059,0.00164
1920.08041,0.00184
1918.02024,0.00182
1915.96007,0.00157
1913.89990,0.00091
1911.83972,0.00021
1909.77955,0.00006
1907.71938,0.00051
1905.65921,0.00140
1903.59904,0.00209
1901.53886,0.00213
1899.47869,0.00208
1897.41852,0.00213
1895.35835,0.00181
1893.29818,0.00113
1891.23800,0.00084
1889.17783,0.00115
1887.11766,0.00129
1885.05749,0.00087
1882.99731,0.00066
1880.93714,0.00104
1878.87697,0.00148
1876.81680,0.00158
1874.75663,0.00151
1872.69645,0.00154
1870.63628,0.00166
1868.57611,0.00159
1866.51594,0.00113
1864.45577,0.00065
1862.39559,0.00058
1860.33542,0.00066
1858.27525,0.00055
1856.21508,0.00048
1854.15491,0.00073
1852.09473,0.00097
1850.03456,0.00103
1847.97439,0.00100
1845.91422,0.00074
1843.85404,0.00025
1841.79387,0.00000
1839.73370,0.00011
1837.67353,0.00034
1835.61336,0.00047
1833.55318,0.00027
1831.49301,0.00000
1829.43284,0.00012
1827.37267,0.00042
1825.31250,0.00040
1823.25232,0.00018
1821.19215,0.00005
1819.13198,0.00003
1817.07181,0.00003
1815.01163,0.00005
1812.95146,0.00014
1810.89129,0.00035
1808.83112,0.00040
1806.77095,0.00008
1804.71077,-0.00029
1802.65060,-0.00042
1800.59043,-0.00041
1798.53026,-0.00041
1796.47009,-0.00035
1794.40991,-0.00016
1792.34974,-0.00003
1790.28957,-0.00006
1788.22940,0.00002
1786.16923,0.00022
1784.10905,0.00021
1782.04888,0.00000
1779.98871,-0.00015
1777.92854,-0.00014
1775.86836,-0.00021
1773.80819,-0.00019
1771.74802,0.00007
1769.68785,0.00052
1767.62768,0.00108
1765.56750,0.00154
1763.50733,0.00185
1761.44716,0.00228
1759.38699,0.00299
1757.32682,0.00370
1755.26664,0.00428
1753.20647,0.00500
1751.14630,0.00622
1749.08613,0.00807
1747.02596,0.01040
1744.96578,0.01321
1742.90561,0.01662
1740.84544,0.02063
1738.78527,0.02492
1736.72509,0.02864
1734.66492,0.03173
1732.60475,0.03430
1730.54458,0.03580
1728.48441,0.03634
1726.42423,0.03622
1724.36406,0.03561
1722.30389,0.03483
1720.24372,0.03409
1718.18355,0.03319
1716.12337,0.03235
1714.06320,0.03214
1712.00303,0.03233
1709.94286,0.03236
1707.88268,0.03182
1705.82251,0.03085
1703.76234,0.03029
1701.70217,0.03009
1699.64200,0.02914
1697.58182,0.02766
1695.52165,0.02673
1693.46148,0.02648
1691.40131,0.02645
1689.34114,0.02637
1687.28096,0.02634
1685.22079,0.02627
1683.16062,0.02606
1681.10045,0.02619
1679.04028,0.02652
1676.98010,0.02663
1674.91993,0.02670
1672.85976,0.02700
1670.79959,0.02749
1668.73941,0.02823
1666.67924,0.02920
1664.61907,0.03019
1662.55890,0.03127
1660.49873,0.03252
1658.43855,0.03384
1656.37838,0.03517
1654.31821,0.03636
1652.25804,0.03710
1650.19787,0.03721
1648.13769,0.03714
1646.07752,0.03746
1644.01735,0.03825
1641.95718,0.03907
1639.89701,0.03963
1637.83683,0.03984
1635.77666,0.04000
1633.71649,0.04075
1631.65632,0.04190
1629.59614,0.04291
1627.53597,0.04354
1625.47580,0.04392
1623.41563,0.04431
1621.35546,0.04490
1619.29528,0.04562
1617.23511,0.04651
1615.17494,0.04759
1613.11477,0.04856
1611.05460,0.04930
1608.99442,0.04992
1606.93425,0.05035
1604.87408,0.05035
1602.81391,0.04991
1600.75373,0.04918
1598.69356,0.04822
1596.63339,0.04702
1594.57322,0.04564
1592.51305,0.04410
1590.45287,0.04246
1588.39270,0.04077
1586.33253,0.03903
1584.27236,0.03734
1582.21219,0.03584
1580.15201,0.03450
1578.09184,0.03294
1576.03167,0.03075
1573.97150,0.02884
1571.91133,0.02778
1569.85115,0.02683
1567.79098,0.02578
1565.73081,0.02496
1563.67064,0.02448
1561.61046,0.02423
1559.55029,0.02362
1557.49012,0.02266
1555.42995,0.02235
1553.36978,0.02255
1551.30960,0.02266
1549.24943,0.02250
1547.18926,0.02234
1545.12909,0.02227
1543.06892,0.02218
1541.00874,0.02206
1538.94857,0.02190
1536.88840,0.02184
1534.82823,0.02166
1532.76805,0.02105
1530.70788,0.02037
1528.64771,0.01969
1526.58754,0.01874
1524.52737,0.01785
1522.46719,0.01749
1520.40702,0.01772
1518.34685,0.01816
1516.28668,0.01834
1514.22651,0.01822
1512.16633,0.01788
1510.10616,0.01709
1508.04599,0.01544
1505.98582,0.01336
1503.92565,0.01212
1501.86547,0.01141
1499.80530,0.01054
1497.74513,0.00933
1495.68496,0.00809
1493.62478,0.00718
1491.56461,0.00634
1489.50444,0.00530
1487.44427,0.00445
1485.38410,0.00411
1483.32392,0.00417
1481.26375,0.00452
1479.20358,0.00512
1477.14341,0.00608
1475.08324,0.00780
1473.02306,0.01053
1470.96289,0.01362
1468.90272,0.01622
1466.84255,0.01867
1464.78238,0.02123
1462.72220,0.02326
1460.66203,0.02428
1458.60186,0.02495
1456.54169,0.02624
1454.48151,0.02785
1452.42134,0.02909
1450.36117,0.03007
1448.30100,0.03103
1446.24083,0.03200
1444.18065,0.03276
1442.12048,0.03316
1440.06031,0.03312
1438.00014,0.03233
1435.93997,0.03076
1433.87979,0.02924
1431.81962,0.02799
1429.75945,0.02667
1427.69928,0.02542
1425.63910,0.02462
1423.57893,0.02435
1421.51876,0.02435
1419.45859,0.02416
1417.39842,0.02392
1415.33824,0.02392
1413.27807,0.02386
1411.21790,0.02360
1409.15773,0.02332
1407.09756,0.02316
1405.03738,0.02301
1402.97721,0.02290
1400.91704,0.02293
1398.85687,0.02307
1396.79670,0.02324
1394.73652,0.02337
1392.67635,0.02351
1390.61618,0.02386
1388.55601,0.02447
1386.49583,0.02516
1384.43566,0.02577
1382.37549,0.02636
1380.31532,0.02708
1378.25515,0.02791
1376.19497,0.02865
1374.13480,0.02927
1372.07463,0.02988
1370.01446,0.03038
1367.95429,0.03067
1365.89411,0.03080
1363.83394,0.03085
1361.77377,0.03094
1359.71360,0.03119
1357.65343,0.03150
1355.59325,0.03180
1353.53308,0.03214
1351.47291,0.03243
1349.41274,0.03253
1347.35256,0.03249
1345.29239,0.03250
1343.23222,0.03270
1341.17205,0.03300
1339.11188,0.03334
1337.05170,0.03385
1334.99153,0.03455
1332.93136,0.03525
1330.87119,0.03583
1328.81102,0.03648
1326.75084,0.03731
1324.69067,0.03815
1322.63050,0.03883
1320.57033,0.03927
1318.51015,0.03946
1316.44998,0.03954
1314.38981,0.03950
1312.32964,0.03931
1310.26947,0.03893
1308.20929,0.03814
1306.14912,0.03685
1304.08895,0.03518
1302.02878,0.03333
1299.96861,0.03149
1297.90843,0.02976
1295.84826,0.02806
1293.78809,0.02651
1291.72792,0.02534
1289.66775,0.02446
1287.60757,0.02380
1285.54740,0.02345
1283.48723,0.02326
1281.42706,0.02312
1279.36688,0.02304
1277.30671,0.02293
1275.24654,0.02285
1273.18637,0.02298
1271.12620,0.02331
1269.06602,0.02384
1267.00585,0.02460
1264.94568,0.02536
1262.88551,0.02592
1260.82534,0.02648
1258.76516,0.02724
1256.70499,0.02805
1254.64482,0.02884
1252.58465,0.02958
1250.52447,0.03021
1248.46430,0.03078
1246.40413,0.03133
1244.34396,0.03183
1242.28379,0.03235
1240.22361,0.03286
1238.16344,0.03326
1236.10327,0.03363
1234.04310,0.03417
1231.98293,0.03477
1229.92275,0.03541
1227.86258,0.03619
1225.80241,0.03697
1223.74224,0.03762
1221.68207,0.03817
1219.62189,0.03870
1217.56172,0.03930
1215.50155,0.03990
1213.44138,0.04047
1211.38120,0.04103
1209.32103,0.04156
1207.26086,0.04228
1205.20069,0.04325
1203.14052,0.04408
1201.08034,0.04455
1199.02017,0.04483
1196.96000,0.04517
1194.89983,0.04553
1192.83966,0.04555
1190.77948,0.04526
1188.71931,0.04487
1186.65914,0.04429
1184.59897,0.04370
1182.53880,0.04331
1180.47862,0.04301
1178.41845,0.04282
1176.35828,0.04291
1174.29811,0.04307
1172.23793,0.04309
1170.17776,0.04316
1168.11759,0.04320
1166.05742,0.04280
1163.99725,0.04219
1161.93707,0.04162
1159.87690,0.04100
1157.81673,0.04029
1155.75656,0.03956
1153.69639,0.03902
1151.63621,0.03856
1149.57604,0.03791
1147.51587,0.03705
1145.45570,0.03586
1143.39552,0.03453
1141.33535,0.03331
1139.27518,0.03208
1137.21501,0.03095
1135.15484,0.03017
1133.09466,0.02968
1131.03449,0.02947
1128.97432,0.02974
1126.91415,0.03044
1124.85398,0.03143
1122.79380,0.03274
1120.73363,0.03444
1118.67346,0.03639
1116.61329,0.03860
1114.55312,0.04117
1112.49294,0.04408
1110.43277,0.04717
1108.37260,0.05050
1106.31243,0.05387
1104.25225,0.05673
1102.19208,0.05879
1100.13191,0.06013
1098.07174,0.06125
1096.01157,0.06246
1093.95139,0.06369
1091.89122,0.06505
1089.83105,0.06675
1087.77088,0.06869
1085.71071,0.07040
1083.65053,0.07191
1081.59036,0.07377
1079.53019,0.07583
1077.47002,0.07774
1075.40985,0.07922
1073.34967,0.08010
1071.28950,0.08092
1069.22933,0.08192
1067.16916,0.08302
1065.10898,0.08426
1063.04881,0.08553
1060.98864,0.08677
1058.92847,0.08819
1056.86830,0.08982
1054.80812,0.09149
1052.74795,0.09311
1050.68778,0.09438
1048.62761,0.09530
1046.56744,0.09631
1044.50726,0.09748
1042.44709,0.09854
1040.38692,0.09947
1038.32675,0.10061
1036.26657,0.10217
1034.20640,0.10415
1032.14623,0.10612
1030.08606,0.10775
1028.02589,0.10899
1025.96571,0.10967
1023.90554,0.10979
1021.84537,0.10948
1019.78520,0.10903
1017.72503,0.10861
1015.66485,0.10791
1013.60468,0.10677
1011.54451,0.10543
1009.48434,0.10420
1007.42417,0.10286
1005.36399,0.10114
1003.30382,0.09899
1001.24365,0.09629
999.18348,0.09340
997.12330,0.09088
995.06313,0.08865
993.00296,0.08635
990.94279,0.08369
988.88262,0.08060
986.82244,0.07704
984.76227,0.07327
982.70210,0.06992
980.64193,0.06692
978.58176,0.06384
976.52158,0.06093
974.46141,0.05826
972.40124,0.05558
970.34107,0.05314
968.28089,0.05124
966.22072,0.04983
964.16055,0.04866
962.10038,0.04707
960.04021,0.04489
957.98003,0.04281
955.91986,0.04074
953.85969,0.03848
951.79952,0.03612
949.73935,0.03376
947.67917,0.03171
945.61900,0.03002
943.55883,0.02831
941.49866,0.02651
939.43849,0.02512
937.37831,0.02438
935.31814,0.02394
933.25797,0.02374
931.19780,0.02354
929.13762,0.02272
927.07745,0.02128
925.01728,0.01988
922.95711,0.01888
920.89694,0.01803
918.83676,0.01716
916.77659,0.01617
914.71642,0.01484
912.65625,0.01329
910.59608,0.01176
908.53590,0.01047
906.47573,0.00959
904.41556,0.00893
902.35539,0.00850
900.29522,0.00856
898.23504,0.00905
896.17487,0.00982
894.11470,0.01045
892.05453,0.01054
889.99435,0.01035
887.93418,0.01003
885.87401,0.00931
883.81384,0.00847
881.75367,0.00804
879.69349,0.00793
877.63332,0.00795
875.57315,0.00833
873.51298,0.00884
871.45281,0.00896
869.39263,0.00865
867.33246,0.00807
865.27229,0.00721
863.21212,0.00635
861.15194,0.00547
859.09177,0.00423
857.03160,0.00304
854.97143,0.00215
852.91126,0.00121
850.85108,0.00049
848.79091,0.00000
846.73074,-0.00017
844.67057,0.00040
842.61040,0.00071
840.55022,0.00026
838.49005,0.00008
836.42988,0.00081
834.36971,0.00178
832.30954,0.00243
830.24936,0.00274
828.18919,0.00291
826.12902,0.00308
824.06885,0.00305
822.00867,0.00305
819.94850,0.00363
817.88833,0.00430
815.82816,0.00429
813.76799,0.00385
811.70781,0.00381
809.64764,0.00427
807.58747,0.00430
805.52730,0.00358
803.46713,0.00252
801.40695,0.00132
799.34678,0.00034
797.28661,0.00000
795.22644,-0.00038
793.16627,-0.00067
791.10609,-0.00061
789.04592,-0.00031
786.98575,0.00011
784.92558,0.00103
782.86540,0.00246
780.80523,0.00316
778.74506,0.00305
776.68489,0.00333
774.62472,0.00397
772.56454,0.00424
770.50437,0.00441
768.44420,0.00503
766.38403,0.00614
764.32386,0.00767
762.26368,0.00896
760.20351,0.00976
758.14334,0.01028
756.08317,0.01065
754.02299,0.01098
751.96282,0.01056
749.90265,0.00927
747.84248,0.00782
745.78231,0.00629
743.72213,0.00482
741.66196,0.00414
739.60179,0.00416
737.54162,0.00399
735.48145,0.00360
733.42127,0.00367
731.36110,0.00441
729.30093,0.00537
727.24076,0.00578
725.18059,0.00554
723.12041,0.00558
721.06024,0.00630
719.00007,0.00703
716.93990,0.00663
714.87972,0.00481
712.81955,0.00323
710.75938,0.00333
708.69921,0.00366
706.63904,0.00290
704.57886,0.00245
702.51869,0.00333
700.45852,0.00410
698.39835,0.00366
696.33818,0.00317
694.27800,0.00370
692.21783,0.00444
690.15766,0.00405
688.09749,0.00246
686.03731,0.00087
683.97714,0.00031
681.91697,0.00076
679.85680,0.00152
677.79663,0.00212
675.73645,0.00251
673.67628,0.00254
671.61611,0.00209
669.55594,0.00183
667.49577,0.00283
665.43559,0.00428
663.37542,0.00386
661.31525,0.00161
659.25508,0.00051
657.19491,0.00152
655.13473,0.00168
653.07456,0.00051
651.01439,0.00077
648.95422,0.00251
646.89404,0.00295
644.83387,0.00131
642.77370,0.00000
640.71353,0.00060
638.65336,0.00236
636.59318,0.00342
634.53301,0.00281
632.47284,0.00129
630.41267,0.00055
628.35250,0.00041
626.29232,0.00037
624.23215,0.00233
622.17198,0.00503
620.11181,0.00609
618.05164,0.00743
615.99146,0.01056
613.93129,0.01184
611.87112,0.01000
609.81095,0.00751
607.75077,0.00534
605.69060,0.00435
603.63043,0.00366
601.57026,0.00204
599.51009,0.00000
