Created as New Dataset,Sample 347 By Analyst Date Tuesday, February 04 2025
cm-1,%T
4000.00,100.13
3999.00,100.13
3998.00,100.13
3997.00,100.13
3996.00,100.13
3995.00,100.13
3994.00,100.13
3993.00,100.12
3992.00,100.12
3991.00,100.13
3990.00,100.13
3989.00,100.13
3988.00,100.13
3987.00,100.13
3986.00,100.12
3985.00,100.12
3984.00,100.12
3983.00,100.12
3982.00,100.12
3981.00,100.12
3980.00,100.12
3979.00,100.13
3978.00,100.13
3977.00,100.13
3976.00,100.13
3975.00,100.13
3974.00,100.13
3973.00,100.13
3972.00,100.13
3971.00,100.13
3970.00,100.13
3969.00,100.13
3968.00,100.13
3967.00,100.13
3966.00,100.12
3965.00,100.12
3964.00,100.12
3963.00,100.12
3962.00,100.12
3961.00,100.12
3960.00,100.12
3959.00,100.12
3958.00,100.12
3957.00,100.12
3956.00,100.12
3955.00,100.12
3954.00,100.12
3953.00,100.12
3952.00,100.12
3951.00,100.12
3950.00,100.12
3949.00,100.11
3948.00,100.11
3947.00,100.11
3946.00,100.11
3945.00,100.11
3944.00,100.11
3943.00,100.11
3942.00,100.11
3941.00,100.11
3940.00,100.11
3939.00,100.11
3938.00,100.12
3937.00,100.12
3936.00,100.12
3935.00,100.12
3934.00,100.11
3933.00,100.11
3932.00,100.11
3931.00,100.11
3930.00,100.11
3929.00,100.11
3928.00,100.11
3927.00,100.11
3926.00,100.11
3925.00,100.12
3924.00,100.12
3923.00,100.11
3922.00,100.11
3921.00,100.10
3920.00,100.10
3919.00,100.10
3918.00,100.10
3917.00,100.11
3916.00,100.11
3915.00,100.12
3914.00,100.12
3913.00,100.12
3912.00,100.12
3911.00,100.12
3910.00,100.12
3909.00,100.12
3908.00,100.12
3907.00,100.11
3906.00,100.10
3905.00,100.10
3904.00,100.09
3903.00,100.08
3902.00,100.07
3901.00,100.07
3900.00,100.07
3899.00,100.08
3898.00,100.09
3897.00,100.09
3896.00,100.10
3895.00,100.10
3894.00,100.10
3893.00,100.10
3892.00,100.11
3891.00,100.11
3890.00,100.11
3889.00,100.10
3888.00,100.09
3887.00,100.08
3886.00,100.08
3885.00,100.09
3884.00,100.09
3883.00,100.09
3882.00,100.08
3881.00,100.08
3880.00,100.09
3879.00,100.09
3878.00,100.09
3877.00,100.09
3876.00,100.09
3875.00,100.09
3874.00,100.10
3873.00,100.11
3872.00,100.10
3871.00,100.09
3870.00,100.08
3869.00,100.09
3868.00,100.09
3867.00,100.08
3866.00,100.07
3865.00,100.08
3864.00,100.08
3863.00,100.09
3862.00,100.09
3861.00,100.08
3860.00,100.09
3859.00,100.09
3858.00,100.11
3857.00,100.12
3856.00,100.13
3855.00,100.12
3854.00,100.11
3853.00,100.10
3852.00,100.09
3851.00,100.09
3850.00,100.09
3849.00,100.09
3848.00,100.09
3847.00,100.09
3846.00,100.09
3845.00,100.09
3844.00,100.10
3843.00,100.10
3842.00,100.10
3841.00,100.09
3840.00,100.09
3839.00,100.09
3838.00,100.09
3837.00,100.08
3836.00,100.08
3835.00,100.08
3834.00,100.08
3833.00,100.08
3832.00,100.09
3831.00,100.09
3830.00,100.09
3829.00,100.09
3828.00,100.09
3827.00,100.09
3826.00,100.09
3825.00,100.10
3824.00,100.09
3823.00,100.08
3822.00,100.07
3821.00,100.08
3820.00,100.09
3819.00,100.09
3818.00,100.08
3817.00,100.08
3816.00,100.09
3815.00,100.10
3814.00,100.10
3813.00,100.10
3812.00,100.10
3811.00,100.11
3810.00,100.11
3809.00,100.11
3808.00,100.10
3807.00,100.10
3806.00,100.10
3805.00,100.10
3804.00,100.10
3803.00,100.09
3802.00,100.09
3801.00,100.10
3800.00,100.10
3799.00,100.10
3798.00,100.09
3797.00,100.08
3796.00,100.09
3795.00,100.10
3794.00,100.10
3793.00,100.10
3792.00,100.11
3791.00,100.11
3790.00,100.11
3789.00,100.11
3788.00,100.11
3787.00,100.11
3786.00,100.11
3785.00,100.11
3784.00,100.11
3783.00,100.11
3782.00,100.11
3781.00,100.10
3780.00,100.10
3779.00,100.11
3778.00,100.11
3777.00,100.11
3776.00,100.11
3775.00,100.11
3774.00,100.11
3773.00,100.11
3772.00,100.11
3771.00,100.10
3770.00,100.10
3769.00,100.10
3768.00,100.09
3767.00,100.09
3766.00,100.09
3765.00,100.10
3764.00,100.10
3763.00,100.10
3762.00,100.09
3761.00,100.08
3760.00,100.09
3759.00,100.09
3758.00,100.09
3757.00,100.09
3756.00,100.09
3755.00,100.08
3754.00,100.08
3753.00,100.08
3752.00,100.08
3751.00,100.07
3750.00,100.06
3749.00,100.06
3748.00,100.06
3747.00,100.06
3746.00,100.05
3745.00,100.05
3744.00,100.06
3743.00,100.07
3742.00,100.06
3741.00,100.05
3740.00,100.05
3739.00,100.04
3738.00,100.04
3737.00,100.04
3736.00,100.05
3735.00,100.06
3734.00,100.06
3733.00,100.06
3732.00,100.06
3731.00,100.06
3730.00,100.07
3729.00,100.07
3728.00,100.07
3727.00,100.07
3726.00,100.08
3725.00,100.08
3724.00,100.08
3723.00,100.08
3722.00,100.08
3721.00,100.09
3720.00,100.09
3719.00,100.09
3718.00,100.09
3717.00,100.09
3716.00,100.09
3715.00,100.09
3714.00,100.08
3713.00,100.08
3712.00,100.07
3711.00,100.07
3710.00,100.07
3709.00,100.07
3708.00,100.08
3707.00,100.08
3706.00,100.09
3705.00,100.09
3704.00,100.09
3703.00,100.10
3702.00,100.10
3701.00,100.10
3700.00,100.10
3699.00,100.10
3698.00,100.10
3697.00,100.10
3696.00,100.10
3695.00,100.10
3694.00,100.10
3693.00,100.10
3692.00,100.10
3691.00,100.10
3690.00,100.09
3689.00,100.09
3688.00,100.09
3687.00,100.09
3686.00,100.09
3685.00,100.09
3684.00,100.09
3683.00,100.09
3682.00,100.09
3681.00,100.09
3680.00,100.09
3679.00,100.09
3678.00,100.08
3677.00,100.07
3676.00,100.06
3675.00,100.07
3674.00,100.07
3673.00,100.07
3672.00,100.06
3671.00,100.05
3670.00,100.06
3669.00,100.08
3668.00,100.08
3667.00,100.08
3666.00,100.08
3665.00,100.09
3664.00,100.09
3663.00,100.10
3662.00,100.10
3661.00,100.10
3660.00,100.11
3659.00,100.10
3658.00,100.10
3657.00,100.09
3656.00,100.09
3655.00,100.09
3654.00,100.09
3653.00,100.07
3652.00,100.06
3651.00,100.05
3650.00,100.05
3649.00,100.05
3648.00,100.05
3647.00,100.05
3646.00,100.06
3645.00,100.06
3644.00,100.07
3643.00,100.08
3642.00,100.09
3641.00,100.10
3640.00,100.10
3639.00,100.10
3638.00,100.10
3637.00,100.10
3636.00,100.09
3635.00,100.09
3634.00,100.09
3633.00,100.09
3632.00,100.09
3631.00,100.07
3630.00,100.06
3629.00,100.06
3628.00,100.06
3627.00,100.07
3626.00,100.07
3625.00,100.07
3624.00,100.08
3623.00,100.08
3622.00,100.09
3621.00,100.09
3620.00,100.09
3619.00,100.09
3618.00,100.08
3617.00,100.07
3616.00,100.07
3615.00,100.06
3614.00,100.06
3613.00,100.06
3612.00,100.06
3611.00,100.06
3610.00,100.06
3609.00,100.06
3608.00,100.07
3607.00,100.08
3606.00,100.08
3605.00,100.09
3604.00,100.09
3603.00,100.09
3602.00,100.09
3601.00,100.09
3600.00,100.09
3599.00,100.09
3598.00,100.08
3597.00,100.08
3596.00,100.08
3595.00,100.08
3594.00,100.08
3593.00,100.08
3592.00,100.08
3591.00,100.08
3590.00,100.07
3589.00,100.07
3588.00,100.07
3587.00,100.07
3586.00,100.08
3585.00,100.08
3584.00,100.08
3583.00,100.09
3582.00,100.09
3581.00,100.10
3580.00,100.10
3579.00,100.10
3578.00,100.10
3577.00,100.10
3576.00,100.10
3575.00,100.10
3574.00,100.10
3573.00,100.10
3572.00,100.09
3571.00,100.08
3570.00,100.07
3569.00,100.06
3568.00,100.06
3567.00,100.06
3566.00,100.07
3565.00,100.07
3564.00,100.07
3563.00,100.08
3562.00,100.08
3561.00,100.09
3560.00,100.10
3559.00,100.10
3558.00,100.10
3557.00,100.10
3556.00,100.10
3555.00,100.10
3554.00,100.10
3553.00,100.10
3552.00,100.10
3551.00,100.10
3550.00,100.09
3549.00,100.09
3548.00,100.08
3547.00,100.08
3546.00,100.09
3545.00,100.09
3544.00,100.09
3543.00,100.09
3542.00,100.09
3541.00,100.09
3540.00,100.10
3539.00,100.10
3538.00,100.10
3537.00,100.11
3536.00,100.11
3535.00,100.11
3534.00,100.10
3533.00,100.10
3532.00,100.10
3531.00,100.10
3530.00,100.10
3529.00,100.10
3528.00,100.09
3527.00,100.09
3526.00,100.09
3525.00,100.09
3524.00,100.09
3523.00,100.09
3522.00,100.10
3521.00,100.09
3520.00,100.09
3519.00,100.10
3518.00,100.10
3517.00,100.10
3516.00,100.10
3515.00,100.10
3514.00,100.10
3513.00,100.10
3512.00,100.10
3511.00,100.10
3510.00,100.10
3509.00,100.10
3508.00,100.10
3507.00,100.10
3506.00,100.10
3505.00,100.10
3504.00,100.10
3503.00,100.10
3502.00,100.10
3501.00,100.10
3500.00,100.10
3499.00,100.10
3498.00,100.10
3497.00,100.11
3496.00,100.11
3495.00,100.11
3494.00,100.11
3493.00,100.11
3492.00,100.11
3491.00,100.11
3490.00,100.11
3489.00,100.11
3488.00,100.11
3487.00,100.11
3486.00,100.11
3485.00,100.11
3484.00,100.11
3483.00,100.11
3482.00,100.11
3481.00,100.11
3480.00,100.11
3479.00,100.11
3478.00,100.11
3477.00,100.11
3476.00,100.11
3475.00,100.11
3474.00,100.11
3473.00,100.11
3472.00,100.11
3471.00,100.11
3470.00,100.11
3469.00,100.10
3468.00,100.10
3467.00,100.11
3466.00,100.11
3465.00,100.11
3464.00,100.11
3463.00,100.11
3462.00,100.11
3461.00,100.11
3460.00,100.11
3459.00,100.11
3458.00,100.11
3457.00,100.11
3456.00,100.11
3455.00,100.11
3454.00,100.11
3453.00,100.11
3452.00,100.11
3451.00,100.11
3450.00,100.11
3449.00,100.11
3448.00,100.11
3447.00,100.11
3446.00,100.11
3445.00,100.11
3444.00,100.10
3443.00,100.11
3442.00,100.11
3441.00,100.11
3440.00,100.11
3439.00,100.11
3438.00,100.11
3437.00,100.11
3436.00,100.11
3435.00,100.11
3434.00,100.11
3433.00,100.11
3432.00,100.11
3431.00,100.11
3430.00,100.11
3429.00,100.11
3428.00,100.11
3427.00,100.11
3426.00,100.11
3425.00,100.11
3424.00,100.11
3423.00,100.11
3422.00,100.11
3421.00,100.11
3420.00,100.11
3419.00,100.11
3418.00,100.11
3417.00,100.11
3416.00,100.11
3415.00,100.11
3414.00,100.11
3413.00,100.11
3412.00,100.11
3411.00,100.11
3410.00,100.11
3409.00,100.11
3408.00,100.11
3407.00,100.11
3406.00,100.11
3405.00,100.11
3404.00,100.11
3403.00,100.11
3402.00,100.11
3401.00,100.11
3400.00,100.11
3399.00,100.11
3398.00,100.11
3397.00,100.11
3396.00,100.11
3395.00,100.11
3394.00,100.11
3393.00,100.11
3392.00,100.11
3391.00,100.11
3390.00,100.11
3389.00,100.11
3388.00,100.11
3387.00,100.11
3386.00,100.11
3385.00,100.11
3384.00,100.11
3383.00,100.11
3382.00,100.11
3381.00,100.11
3380.00,100.11
3379.00,100.11
3378.00,100.11
3377.00,100.11
3376.00,100.11
3375.00,100.11
3374.00,100.11
3373.00,100.11
3372.00,100.11
3371.00,100.11
3370.00,100.11
3369.00,100.11
3368.00,100.11
3367.00,100.11
3366.00,100.11
3365.00,100.11
3364.00,100.11
3363.00,100.11
3362.00,100.11
3361.00,100.11
3360.00,100.11
3359.00,100.11
3358.00,100.11
3357.00,100.11
3356.00,100.11
3355.00,100.11
3354.00,100.11
3353.00,100.11
3352.00,100.11
3351.00,100.11
3350.00,100.11
3349.00,100.11
3348.00,100.11
3347.00,100.11
3346.00,100.11
3345.00,100.11
3344.00,100.11
3343.00,100.12
3342.00,100.12
3341.00,100.12
3340.00,100.11
3339.00,100.11
3338.00,100.11
3337.00,100.11
3336.00,100.11
3335.00,100.11
3334.00,100.11
3333.00,100.11
3332.00,100.11
3331.00,100.11
3330.00,100.11
3329.00,100.11
3328.00,100.12
3327.00,100.12
3326.00,100.12
3325.00,100.12
3324.00,100.12
3323.00,100.12
3322.00,100.12
3321.00,100.12
3320.00,100.12
3319.00,100.11
3318.00,100.11
3317.00,100.11
3316.00,100.11
3315.00,100.11
3314.00,100.12
3313.00,100.12
3312.00,100.12
3311.00,100.12
3310.00,100.12
3309.00,100.12
3308.00,100.12
3307.00,100.12
3306.00,100.12
3305.00,100.12
3304.00,100.11
3303.00,100.11
3302.00,100.11
3301.00,100.11
3300.00,100.11
3299.00,100.11
3298.00,100.11
3297.00,100.11
3296.00,100.11
3295.00,100.11
3294.00,100.11
3293.00,100.11
3292.00,100.11
3291.00,100.11
3290.00,100.11
3289.00,100.11
3288.00,100.11
3287.00,100.11
3286.00,100.11
3285.00,100.11
3284.00,100.12
3283.00,100.12
3282.00,100.12
3281.00,100.12
3280.00,100.12
3279.00,100.11
3278.00,100.11
3277.00,100.11
3276.00,100.11
3275.00,100.11
3274.00,100.11
3273.00,100.12
3272.00,100.12
3271.00,100.12
3270.00,100.12
3269.00,100.12
3268.00,100.12
3267.00,100.12
3266.00,100.12
3265.00,100.12
3264.00,100.12
3263.00,100.11
3262.00,100.11
3261.00,100.11
3260.00,100.11
3259.00,100.11
3258.00,100.11
3257.00,100.12
3256.00,100.11
3255.00,100.11
3254.00,100.11
3253.00,100.11
3252.00,100.11
3251.00,100.12
3250.00,100.12
3249.00,100.12
3248.00,100.12
3247.00,100.12
3246.00,100.11
3245.00,100.11
3244.00,100.11
3243.00,100.11
3242.00,100.11
3241.00,100.12
3240.00,100.12
3239.00,100.12
3238.00,100.12
3237.00,100.11
3236.00,100.11
3235.00,100.11
3234.00,100.11
3233.00,100.11
3232.00,100.12
3231.00,100.12
3230.00,100.12
3229.00,100.11
3228.00,100.11
3227.00,100.11
3226.00,100.11
3225.00,100.11
3224.00,100.11
3223.00,100.12
3222.00,100.12
3221.00,100.12
3220.00,100.12
3219.00,100.11
3218.00,100.11
3217.00,100.11
3216.00,100.11
3215.00,100.11
3214.00,100.11
3213.00,100.11
3212.00,100.11
3211.00,100.11
3210.00,100.11
3209.00,100.11
3208.00,100.12
3207.00,100.12
3206.00,100.12
3205.00,100.12
3204.00,100.12
3203.00,100.12
3202.00,100.12
3201.00,100.12
3200.00,100.12
3199.00,100.11
3198.00,100.11
3197.00,100.11
3196.00,100.12
3195.00,100.12
3194.00,100.12
3193.00,100.12
3192.00,100.12
3191.00,100.12
3190.00,100.12
3189.00,100.12
3188.00,100.11
3187.00,100.11
3186.00,100.11
3185.00,100.11
3184.00,100.12
3183.00,100.12
3182.00,100.12
3181.00,100.11
3180.00,100.11
3179.00,100.11
3178.00,100.11
3177.00,100.11
3176.00,100.11
3175.00,100.11
3174.00,100.11
3173.00,100.12
3172.00,100.12
3171.00,100.12
3170.00,100.11
3169.00,100.11
3168.00,100.11
3167.00,100.11
3166.00,100.11
3165.00,100.11
3164.00,100.12
3163.00,100.12
3162.00,100.12
3161.00,100.12
3160.00,100.12
3159.00,100.12
3158.00,100.11
3157.00,100.12
3156.00,100.12
3155.00,100.12
3154.00,100.12
3153.00,100.12
3152.00,100.12
3151.00,100.12
3150.00,100.12
3149.00,100.11
3148.00,100.11
3147.00,100.11
3146.00,100.11
3145.00,100.12
3144.00,100.12
3143.00,100.12
3142.00,100.12
3141.00,100.12
3140.00,100.12
3139.00,100.11
3138.00,100.11
3137.00,100.11
3136.00,100.11
3135.00,100.12
3134.00,100.11
3133.00,100.11
3132.00,100.11
3131.00,100.12
3130.00,100.12
3129.00,100.12
3128.00,100.12
3127.00,100.12
3126.00,100.11
3125.00,100.11
3124.00,100.11
3123.00,100.11
3122.00,100.11
3121.00,100.11
3120.00,100.11
3119.00,100.11
3118.00,100.11
3117.00,100.11
3116.00,100.11
3115.00,100.11
3114.00,100.11
3113.00,100.11
3112.00,100.11
3111.00,100.11
3110.00,100.11
3109.00,100.11
3108.00,100.12
3107.00,100.12
3106.00,100.12
3105.00,100.12
3104.00,100.12
3103.00,100.12
3102.00,100.11
3101.00,100.11
3100.00,100.11
3099.00,100.11
3098.00,100.11
3097.00,100.11
3096.00,100.11
3095.00,100.11
3094.00,100.11
3093.00,100.11
3092.00,100.11
3091.00,100.11
3090.00,100.11
3089.00,100.11
3088.00,100.11
3087.00,100.11
3086.00,100.11
3085.00,100.11
3084.00,100.11
3083.00,100.11
3082.00,100.11
3081.00,100.11
3080.00,100.11
3079.00,100.11
3078.00,100.11
3077.00,100.11
3076.00,100.11
3075.00,100.11
3074.00,100.11
3073.00,100.11
3072.00,100.11
3071.00,100.11
3070.00,100.11
3069.00,100.11
3068.00,100.11
3067.00,100.11
3066.00,100.11
3065.00,100.11
3064.00,100.11
3063.00,100.11
3062.00,100.11
3061.00,100.11
3060.00,100.11
3059.00,100.11
3058.00,100.11
3057.00,100.11
3056.00,100.11
3055.00,100.11
3054.00,100.11
3053.00,100.11
3052.00,100.11
3051.00,100.11
3050.00,100.11
3049.00,100.11
3048.00,100.11
3047.00,100.11
3046.00,100.11
3045.00,100.11
3044.00,100.11
3043.00,100.11
3042.00,100.11
3041.00,100.11
3040.00,100.11
3039.00,100.11
3038.00,100.11
3037.00,100.10
3036.00,100.10
3035.00,100.10
3034.00,100.10
3033.00,100.10
3032.00,100.10
3031.00,100.11
3030.00,100.11
3029.00,100.11
3028.00,100.11
3027.00,100.11
3026.00,100.10
3025.00,100.10
3024.00,100.10
3023.00,100.10
3022.00,100.10
3021.00,100.11
3020.00,100.11
3019.00,100.11
3018.00,100.11
3017.00,100.11
3016.00,100.11
3015.00,100.11
3014.00,100.11
3013.00,100.11
3012.00,100.10
3011.00,100.11
3010.00,100.11
3009.00,100.11
3008.00,100.11
3007.00,100.11
3006.00,100.11
3005.00,100.11
3004.00,100.11
3003.00,100.11
3002.00,100.11
3001.00,100.11
3000.00,100.11
2999.00,100.11
2998.00,100.11
2997.00,100.11
2996.00,100.11
2995.00,100.11
2994.00,100.11
2993.00,100.10
2992.00,100.10
2991.00,100.10
2990.00,100.10
2989.00,100.10
2988.00,100.10
2987.00,100.10
2986.00,100.10
2985.00,100.10
2984.00,100.10
2983.00,100.10
2982.00,100.10
2981.00,100.10
2980.00,100.10
2979.00,100.10
2978.00,100.10
2977.00,100.10
2976.00,100.10
2975.00,100.10
2974.00,100.10
2973.00,100.10
2972.00,100.10
2971.00,100.10
2970.00,100.10
2969.00,100.10
2968.00,100.11
2967.00,100.11
2966.00,100.11
2965.00,100.10
2964.00,100.10
2963.00,100.10
2962.00,100.10
2961.00,100.10
2960.00,100.10
2959.00,100.11
2958.00,100.11
2957.00,100.11
2956.00,100.11
2955.00,100.11
2954.00,100.11
2953.00,100.11
2952.00,100.11
2951.00,100.10
2950.00,100.10
2949.00,100.10
2948.00,100.10
2947.00,100.10
2946.00,100.10
2945.00,100.10
2944.00,100.10
2943.00,100.10
2942.00,100.10
2941.00,100.10
2940.00,100.10
2939.00,100.10
2938.00,100.10
2937.00,100.10
2936.00,100.10
2935.00,100.10
2934.00,100.10
2933.00,100.10
2932.00,100.10
2931.00,100.10
2930.00,100.10
2929.00,100.10
2928.00,100.11
2927.00,100.11
2926.00,100.11
2925.00,100.11
2924.00,100.11
2923.00,100.11
2922.00,100.11
2921.00,100.11
2920.00,100.11
2919.00,100.11
2918.00,100.11
2917.00,100.11
2916.00,100.11
2915.00,100.11
2914.00,100.11
2913.00,100.11
2912.00,100.11
2911.00,100.11
2910.00,100.11
2909.00,100.11
2908.00,100.11
2907.00,100.11
2906.00,100.10
2905.00,100.10
2904.00,100.10
2903.00,100.10
2902.00,100.10
2901.00,100.10
2900.00,100.10
2899.00,100.10
2898.00,100.10
2897.00,100.10
2896.00,100.10
2895.00,100.10
2894.00,100.10
2893.00,100.10
2892.00,100.10
2891.00,100.10
2890.00,100.10
2889.00,100.10
2888.00,100.10
2887.00,100.10
2886.00,100.10
2885.00,100.10
2884.00,100.10
2883.00,100.11
2882.00,100.11
2881.00,100.10
2880.00,100.10
2879.00,100.10
2878.00,100.10
2877.00,100.10
2876.00,100.10
2875.00,100.10
2874.00,100.10
2873.00,100.10
2872.00,100.10
2871.00,100.10
2870.00,100.10
2869.00,100.10
2868.00,100.10
2867.00,100.10
2866.00,100.10
2865.00,100.10
2864.00,100.10
2863.00,100.10
2862.00,100.10
2861.00,100.10
2860.00,100.10
2859.00,100.11
2858.00,100.11
2857.00,100.11
2856.00,100.11
2855.00,100.11
2854.00,100.11
2853.00,100.11
2852.00,100.11
2851.00,100.11
2850.00,100.11
2849.00,100.11
2848.00,100.11
2847.00,100.11
2846.00,100.11
2845.00,100.11
2844.00,100.11
2843.00,100.11
2842.00,100.11
2841.00,100.11
2840.00,100.10
2839.00,100.10
2838.00,100.10
2837.00,100.10
2836.00,100.10
2835.00,100.10
2834.00,100.10
2833.00,100.10
2832.00,100.10
2831.00,100.10
2830.00,100.10
2829.00,100.11
2828.00,100.11
2827.00,100.11
2826.00,100.11
2825.00,100.11
2824.00,100.11
2823.00,100.11
2822.00,100.11
2821.00,100.10
2820.00,100.10
2819.00,100.10
2818.00,100.10
2817.00,100.10
2816.00,100.10
2815.00,100.10
2814.00,100.10
2813.00,100.10
2812.00,100.10
2811.00,100.10
2810.00,100.10
2809.00,100.10
2808.00,100.10
2807.00,100.10
2806.00,100.10
2805.00,100.10
2804.00,100.10
2803.00,100.10
2802.00,100.10
2801.00,100.10
2800.00,100.10
2799.00,100.10
2798.00,100.10
2797.00,100.10
2796.00,100.10
2795.00,100.10
2794.00,100.10
2793.00,100.10
2792.00,100.10
2791.00,100.10
2790.00,100.10
2789.00,100.10
2788.00,100.10
2787.00,100.10
2786.00,100.10
2785.00,100.10
2784.00,100.10
2783.00,100.11
2782.00,100.11
2781.00,100.10
2780.00,100.10
2779.00,100.10
2778.00,100.10
2777.00,100.10
2776.00,100.10
2775.00,100.10
2774.00,100.10
2773.00,100.10
2772.00,100.10
2771.00,100.10
2770.00,100.10
2769.00,100.10
2768.00,100.10
2767.00,100.10
2766.00,100.10
2765.00,100.10
2764.00,100.10
2763.00,100.10
2762.00,100.10
2761.00,100.10
2760.00,100.10
2759.00,100.10
2758.00,100.10
2757.00,100.10
2756.00,100.10
2755.00,100.10
2754.00,100.10
2753.00,100.10
2752.00,100.10
2751.00,100.10
2750.00,100.10
2749.00,100.10
2748.00,100.10
2747.00,100.10
2746.00,100.10
2745.00,100.10
2744.00,100.10
2743.00,100.10
2742.00,100.10
2741.00,100.10
2740.00,100.10
2739.00,100.10
2738.00,100.10
2737.00,100.10
2736.00,100.10
2735.00,100.10
2734.00,100.10
2733.00,100.10
2732.00,100.10
2731.00,100.10
2730.00,100.10
2729.00,100.10
2728.00,100.10
2727.00,100.10
2726.00,100.10
2725.00,100.10
2724.00,100.10
2723.00,100.10
2722.00,100.10
2721.00,100.10
2720.00,100.10
2719.00,100.10
2718.00,100.10
2717.00,100.10
2716.00,100.10
2715.00,100.10
2714.00,100.10
2713.00,100.10
2712.00,100.10
2711.00,100.10
2710.00,100.10
2709.00,100.10
2708.00,100.10
2707.00,100.10
2706.00,100.10
2705.00,100.10
2704.00,100.10
2703.00,100.10
2702.00,100.10
2701.00,100.10
2700.00,100.10
2699.00,100.10
2698.00,100.10
2697.00,100.10
2696.00,100.10
2695.00,100.10
2694.00,100.10
2693.00,100.10
2692.00,100.10
2691.00,100.10
2690.00,100.10
2689.00,100.10
2688.00,100.10
2687.00,100.10
2686.00,100.10
2685.00,100.10
2684.00,100.10
2683.00,100.10
2682.00,100.10
2681.00,100.10
2680.00,100.10
2679.00,100.10
2678.00,100.10
2677.00,100.10
2676.00,100.10
2675.00,100.10
2674.00,100.10
2673.00,100.10
2672.00,100.10
2671.00,100.10
2670.00,100.10
2669.00,100.10
2668.00,100.10
2667.00,100.10
2666.00,100.10
2665.00,100.10
2664.00,100.10
2663.00,100.10
2662.00,100.10
2661.00,100.10
2660.00,100.10
2659.00,100.10
2658.00,100.10
2657.00,100.10
2656.00,100.10
2655.00,100.10
2654.00,100.10
2653.00,100.10
2652.00,100.10
2651.00,100.10
2650.00,100.10
2649.00,100.10
2648.00,100.10
2647.00,100.10
2646.00,100.10
2645.00,100.10
2644.00,100.10
2643.00,100.10
2642.00,100.10
2641.00,100.10
2640.00,100.10
2639.00,100.10
2638.00,100.10
2637.00,100.10
2636.00,100.10
2635.00,100.10
2634.00,100.10
2633.00,100.10
2632.00,100.10
2631.00,100.10
2630.00,100.10
2629.00,100.10
2628.00,100.10
2627.00,100.10
2626.00,100.10
2625.00,100.10
2624.00,100.10
2623.00,100.10
2622.00,100.10
2621.00,100.10
2620.00,100.10
2619.00,100.10
2618.00,100.10
2617.00,100.10
2616.00,100.10
2615.00,100.10
2614.00,100.10
2613.00,100.10
2612.00,100.10
2611.00,100.10
2610.00,100.10
2609.00,100.10
2608.00,100.10
2607.00,100.10
2606.00,100.10
2605.00,100.10
2604.00,100.10
2603.00,100.10
2602.00,100.10
2601.00,100.10
2600.00,100.10
2599.00,100.10
2598.00,100.10
2597.00,100.10
2596.00,100.10
2595.00,100.10
2594.00,100.10
2593.00,100.10
2592.00,100.10
2591.00,100.10
2590.00,100.10
2589.00,100.10
2588.00,100.10
2587.00,100.10
2586.00,100.10
2585.00,100.10
2584.00,100.10
2583.00,100.10
2582.00,100.10
2581.00,100.10
2580.00,100.10
2579.00,100.10
2578.00,100.10
2577.00,100.10
2576.00,100.10
2575.00,100.10
2574.00,100.10
2573.00,100.10
2572.00,100.10
2571.00,100.10
2570.00,100.10
2569.00,100.10
2568.00,100.10
2567.00,100.10
2566.00,100.10
2565.00,100.10
2564.00,100.10
2563.00,100.10
2562.00,100.10
2561.00,100.10
2560.00,100.10
2559.00,100.10
2558.00,100.10
2557.00,100.10
2556.00,100.09
2555.00,100.10
2554.00,100.10
2553.00,100.10
2552.00,100.10
2551.00,100.10
2550.00,100.10
2549.00,100.10
2548.00,100.10
2547.00,100.10
2546.00,100.10
2545.00,100.10
2544.00,100.10
2543.00,100.10
2542.00,100.10
2541.00,100.10
2540.00,100.10
2539.00,100.10
2538.00,100.10
2537.00,100.10
2536.00,100.10
2535.00,100.10
2534.00,100.10
2533.00,100.10
2532.00,100.10
2531.00,100.10
2530.00,100.10
2529.00,100.10
2528.00,100.10
2527.00,100.10
2526.00,100.10
2525.00,100.10
2524.00,100.10
2523.00,100.10
2522.00,100.10
2521.00,100.10
2520.00,100.10
2519.00,100.10
2518.00,100.10
2517.00,100.10
2516.00,100.10
2515.00,100.10
2514.00,100.10
2513.00,100.10
2512.00,100.10
2511.00,100.10
2510.00,100.10
2509.00,100.10
2508.00,100.10
2507.00,100.10
2506.00,100.10
2505.00,100.10
2504.00,100.10
2503.00,100.10
2502.00,100.10
2501.00,100.10
2500.00,100.10
2499.00,100.10
2498.00,100.10
2497.00,100.10
2496.00,100.10
2495.00,100.10
2494.00,100.10
2493.00,100.10
2492.00,100.10
2491.00,100.10
2490.00,100.10
2489.00,100.10
2488.00,100.10
2487.00,100.10
2486.00,100.10
2485.00,100.10
2484.00,100.10
2483.00,100.10
2482.00,100.10
2481.00,100.10
2480.00,100.10
2479.00,100.10
2478.00,100.10
2477.00,100.10
2476.00,100.10
2475.00,100.10
2474.00,100.10
2473.00,100.10
2472.00,100.10
2471.00,100.10
2470.00,100.10
2469.00,100.10
2468.00,100.10
2467.00,100.10
2466.00,100.10
2465.00,100.10
2464.00,100.10
2463.00,100.10
2462.00,100.10
2461.00,100.10
2460.00,100.10
2459.00,100.10
2458.00,100.10
2457.00,100.10
2456.00,100.10
2455.00,100.10
2454.00,100.10
2453.00,100.10
2452.00,100.10
2451.00,100.10
2450.00,100.10
2449.00,100.10
2448.00,100.10
2447.00,100.10
2446.00,100.10
2445.00,100.10
2444.00,100.10
2443.00,100.10
2442.00,100.10
2441.00,100.10
2440.00,100.10
2439.00,100.10
2438.00,100.10
2437.00,100.10
2436.00,100.10
2435.00,100.10
2434.00,100.10
2433.00,100.10
2432.00,100.10
2431.00,100.10
2430.00,100.10
2429.00,100.10
2428.00,100.10
2427.00,100.10
2426.00,100.10
2425.00,100.10
2424.00,100.10
2423.00,100.10
2422.00,100.10
2421.00,100.10
2420.00,100.10
2419.00,100.10
2418.00,100.10
2417.00,100.10
2416.00,100.10
2415.00,100.10
2414.00,100.10
2413.00,100.10
2412.00,100.10
2411.00,100.10
2410.00,100.10
2409.00,100.10
2408.00,100.10
2407.00,100.10
2406.00,100.10
2405.00,100.10
2404.00,100.10
2403.00,100.10
2402.00,100.10
2401.00,100.10
2400.00,100.10
2399.00,100.10
2398.00,100.10
2397.00,100.10
2396.00,100.10
2395.00,100.10
2394.00,100.10
2393.00,100.10
2392.00,100.10
2391.00,100.10
2390.00,100.10
2389.00,100.10
2388.00,100.10
2387.00,100.10
2386.00,100.10
2385.00,100.10
2384.00,100.10
2383.00,100.10
2382.00,100.10
2381.00,100.10
2380.00,100.10
2379.00,100.10
2378.00,100.10
2377.00,100.10
2376.00,100.10
2375.00,100.10
2374.00,100.10
2373.00,100.10
2372.00,100.10
2371.00,100.10
2370.00,100.10
2369.00,100.10
2368.00,100.10
2367.00,100.10
2366.00,100.10
2365.00,100.10
2364.00,100.10
2363.00,100.10
2362.00,100.09
2361.00,100.09
2360.00,100.09
2359.00,100.09
2358.00,100.09
2357.00,100.09
2356.00,100.09
2355.00,100.09
2354.00,100.09
2353.00,100.09
2352.00,100.10
2351.00,100.10
2350.00,100.10
2349.00,100.09
2348.00,100.07
2347.00,100.07
2346.00,100.08
2345.00,100.09
2344.00,100.09
2343.00,100.09
2342.00,100.09
2341.00,100.08
2340.00,100.08
2339.00,100.08
2338.00,100.08
2337.00,100.08
2336.00,100.08
2335.00,100.08
2334.00,100.08
2333.00,100.08
2332.00,100.08
2331.00,100.08
2330.00,100.08
2329.00,100.08
2328.00,100.08
2327.00,100.07
2326.00,100.07
2325.00,100.07
2324.00,100.07
2323.00,100.07
2322.00,100.08
2321.00,100.08
2320.00,100.08
2319.00,100.08
2318.00,100.08
2317.00,100.07
2316.00,100.07
2315.00,100.07
2314.00,100.08
2313.00,100.08
2312.00,100.08
2311.00,100.08
2310.00,100.08
2309.00,100.08
2308.00,100.08
2307.00,100.08
2306.00,100.08
2305.00,100.08
2304.00,100.09
2303.00,100.09
2302.00,100.09
2301.00,100.09
2300.00,100.09
2299.00,100.09
2298.00,100.09
2297.00,100.09
2296.00,100.09
2295.00,100.09
2294.00,100.09
2293.00,100.10
2292.00,100.09
2291.00,100.09
2290.00,100.09
2289.00,100.09
2288.00,100.10
2287.00,100.10
2286.00,100.10
2285.00,100.10
2284.00,100.10
2283.00,100.10
2282.00,100.10
2281.00,100.10
2280.00,100.09
2279.00,100.10
2278.00,100.10
2277.00,100.10
2276.00,100.10
2275.00,100.10
2274.00,100.10
2273.00,100.10
2272.00,100.10
2271.00,100.10
2270.00,100.10
2269.00,100.10
2268.00,100.10
2267.00,100.10
2266.00,100.10
2265.00,100.10
2264.00,100.10
2263.00,100.10
2262.00,100.10
2261.00,100.10
2260.00,100.10
2259.00,100.10
2258.00,100.10
2257.00,100.10
2256.00,100.10
2255.00,100.10
2254.00,100.10
2253.00,100.10
2252.00,100.10
2251.00,100.10
2250.00,100.10
2249.00,100.10
2248.00,100.10
2247.00,100.10
2246.00,100.10
2245.00,100.10
2244.00,100.10
2243.00,100.10
2242.00,100.10
2241.00,100.10
2240.00,100.10
2239.00,100.10
2238.00,100.10
2237.00,100.10
2236.00,100.10
2235.00,100.10
2234.00,100.10
2233.00,100.10
2232.00,100.10
2231.00,100.10
2230.00,100.10
2229.00,100.10
2228.00,100.10
2227.00,100.10
2226.00,100.10
2225.00,100.10
2224.00,100.10
2223.00,100.10
2222.00,100.10
2221.00,100.10
2220.00,100.10
2219.00,100.10
2218.00,100.10
2217.00,100.10
2216.00,100.10
2215.00,100.10
2214.00,100.10
2213.00,100.10
2212.00,100.10
2211.00,100.10
2210.00,100.10
2209.00,100.10
2208.00,100.10
2207.00,100.10
2206.00,100.10
2205.00,100.10
2204.00,100.10
2203.00,100.10
2202.00,100.10
2201.00,100.10
2200.00,100.10
2199.00,100.10
2198.00,100.10
2197.00,100.10
2196.00,100.10
2195.00,100.10
2194.00,100.10
2193.00,100.10
2192.00,100.10
2191.00,100.10
2190.00,100.10
2189.00,100.10
2188.00,100.10
2187.00,100.10
2186.00,100.10
2185.00,100.09
2184.00,100.09
2183.00,100.09
2182.00,100.09
2181.00,100.09
2180.00,100.09
2179.00,100.09
2178.00,100.09
2177.00,100.09
2176.00,100.09
2175.00,100.09
2174.00,100.09
2173.00,100.10
2172.00,100.10
2171.00,100.10
2170.00,100.10
2169.00,100.10
2168.00,100.10
2167.00,100.10
2166.00,100.10
2165.00,100.10
2164.00,100.10
2163.00,100.10
2162.00,100.10
2161.00,100.10
2160.00,100.09
2159.00,100.09
2158.00,100.09
2157.00,100.09
2156.00,100.09
2155.00,100.09
2154.00,100.09
2153.00,100.09
2152.00,100.09
2151.00,100.09
2150.00,100.10
2149.00,100.10
2148.00,100.10
2147.00,100.10
2146.00,100.10
2145.00,100.10
2144.00,100.10
2143.00,100.10
2142.00,100.10
2141.00,100.10
2140.00,100.10
2139.00,100.10
2138.00,100.09
2137.00,100.09
2136.00,100.10
2135.00,100.10
2134.00,100.10
2133.00,100.10
2132.00,100.10
2131.00,100.10
2130.00,100.10
2129.00,100.09
2128.00,100.09
2127.00,100.09
2126.00,100.10
2125.00,100.10
2124.00,100.10
2123.00,100.10
2122.00,100.10
2121.00,100.10
2120.00,100.10
2119.00,100.10
2118.00,100.09
2117.00,100.09
2116.00,100.09
2115.00,100.09
2114.00,100.09
2113.00,100.09
2112.00,100.09
2111.00,100.09
2110.00,100.10
2109.00,100.10
2108.00,100.10
2107.00,100.10
2106.00,100.10
2105.00,100.10
2104.00,100.10
2103.00,100.10
2102.00,100.10
2101.00,100.10
2100.00,100.10
2099.00,100.10
2098.00,100.10
2097.00,100.10
2096.00,100.10
2095.00,100.10
2094.00,100.10
2093.00,100.09
2092.00,100.09
2091.00,100.09
2090.00,100.09
2089.00,100.10
2088.00,100.10
2087.00,100.10
2086.00,100.10
2085.00,100.10
2084.00,100.10
2083.00,100.10
2082.00,100.10
2081.00,100.10
2080.00,100.10
2079.00,100.10
2078.00,100.10
2077.00,100.10
2076.00,100.10
2075.00,100.10
2074.00,100.10
2073.00,100.10
2072.00,100.10
2071.00,100.10
2070.00,100.10
2069.00,100.10
2068.00,100.10
2067.00,100.10
2066.00,100.10
2065.00,100.10
2064.00,100.10
2063.00,100.10
2062.00,100.10
2061.00,100.10
2060.00,100.10
2059.00,100.10
2058.00,100.10
2057.00,100.09
2056.00,100.10
2055.00,100.10
2054.00,100.10
2053.00,100.09
2052.00,100.09
2051.00,100.09
2050.00,100.09
2049.00,100.10
2048.00,100.10
2047.00,100.10
2046.00,100.10
2045.00,100.10
2044.00,100.10
2043.00,100.10
2042.00,100.10
2041.00,100.10
2040.00,100.10
2039.00,100.10
2038.00,100.10
2037.00,100.10
2036.00,100.10
2035.00,100.10
2034.00,100.10
2033.00,100.10
2032.00,100.10
2031.00,100.10
2030.00,100.10
2029.00,100.10
2028.00,100.10
2027.00,100.10
2026.00,100.10
2025.00,100.10
2024.00,100.10
2023.00,100.09
2022.00,100.09
2021.00,100.09
2020.00,100.09
2019.00,100.10
2018.00,100.10
2017.00,100.10
2016.00,100.10
2015.00,100.10
2014.00,100.10
2013.00,100.10
2012.00,100.10
2011.00,100.10
2010.00,100.10
2009.00,100.10
2008.00,100.10
2007.00,100.10
2006.00,100.10
2005.00,100.10
2004.00,100.10
2003.00,100.10
2002.00,100.10
2001.00,100.10
2000.00,100.10
1999.00,100.10
1998.00,100.10
1997.00,100.09
1996.00,100.10
1995.00,100.10
1994.00,100.10
1993.00,100.10
1992.00,100.10
1991.00,100.10
1990.00,100.10
1989.00,100.10
1988.00,100.10
1987.00,100.10
1986.00,100.10
1985.00,100.10
1984.00,100.10
1983.00,100.10
1982.00,100.10
1981.00,100.10
1980.00,100.09
1979.00,100.09
1978.00,100.09
1977.00,100.09
1976.00,100.10
1975.00,100.10
1974.00,100.10
1973.00,100.10
1972.00,100.09
1971.00,100.09
1970.00,100.10
1969.00,100.10
1968.00,100.10
1967.00,100.10
1966.00,100.10
1965.00,100.10
1964.00,100.10
1963.00,100.10
1962.00,100.10
1961.00,100.10
1960.00,100.10
1959.00,100.10
1958.00,100.10
1957.00,100.10
1956.00,100.10
1955.00,100.10
1954.00,100.10
1953.00,100.10
1952.00,100.10
1951.00,100.10
1950.00,100.10
1949.00,100.10
1948.00,100.10
1947.00,100.10
1946.00,100.10
1945.00,100.10
1944.00,100.10
1943.00,100.10
1942.00,100.10
1941.00,100.10
1940.00,100.10
1939.00,100.09
1938.00,100.09
1937.00,100.09
1936.00,100.09
1935.00,100.09
1934.00,100.10
1933.00,100.10
1932.00,100.10
1931.00,100.10
1930.00,100.10
1929.00,100.10
1928.00,100.10
1927.00,100.10
1926.00,100.10
1925.00,100.10
1924.00,100.10
1923.00,100.10
1922.00,100.10
1921.00,100.09
1920.00,100.09
1919.00,100.09
1918.00,100.09
1917.00,100.09
1916.00,100.09
1915.00,100.09
1914.00,100.09
1913.00,100.09
1912.00,100.09
1911.00,100.09
1910.00,100.10
1909.00,100.10
1908.00,100.10
1907.00,100.10
1906.00,100.09
1905.00,100.09
1904.00,100.09
1903.00,100.09
1902.00,100.09
1901.00,100.09
1900.00,100.09
1899.00,100.10
1898.00,100.10
1897.00,100.10
1896.00,100.10
1895.00,100.10
1894.00,100.10
1893.00,100.10
1892.00,100.10
1891.00,100.10
1890.00,100.10
1889.00,100.10
1888.00,100.10
1887.00,100.09
1886.00,100.09
1885.00,100.09
1884.00,100.09
1883.00,100.09
1882.00,100.09
1881.00,100.09
1880.00,100.10
1879.00,100.10
1878.00,100.10
1877.00,100.10
1876.00,100.10
1875.00,100.09
1874.00,100.09
1873.00,100.09
1872.00,100.09
1871.00,100.09
1870.00,100.09
1869.00,100.09
1868.00,100.09
1867.00,100.09
1866.00,100.09
1865.00,100.09
1864.00,100.09
1863.00,100.09
1862.00,100.10
1861.00,100.10
1860.00,100.10
1859.00,100.10
1858.00,100.10
1857.00,100.10
1856.00,100.10
1855.00,100.10
1854.00,100.10
1853.00,100.10
1852.00,100.10
1851.00,100.10
1850.00,100.10
1849.00,100.10
1848.00,100.10
1847.00,100.10
1846.00,100.10
1845.00,100.10
1844.00,100.10
1843.00,100.09
1842.00,100.09
1841.00,100.09
1840.00,100.09
1839.00,100.09
1838.00,100.10
1837.00,100.10
1836.00,100.10
1835.00,100.10
1834.00,100.09
1833.00,100.09
1832.00,100.09
1831.00,100.10
1830.00,100.10
1829.00,100.10
1828.00,100.10
1827.00,100.09
1826.00,100.09
1825.00,100.09
1824.00,100.09
1823.00,100.09
1822.00,100.09
1821.00,100.09
1820.00,100.09
1819.00,100.10
1818.00,100.09
1817.00,100.09
1816.00,100.09
1815.00,100.09
1814.00,100.09
1813.00,100.09
1812.00,100.10
1811.00,100.10
1810.00,100.09
1809.00,100.09
1808.00,100.09
1807.00,100.09
1806.00,100.09
1805.00,100.09
1804.00,100.09
1803.00,100.09
1802.00,100.09
1801.00,100.09
1800.00,100.09
1799.00,100.10
1798.00,100.10
1797.00,100.10
1796.00,100.10
1795.00,100.10
1794.00,100.09
1793.00,100.09
1792.00,100.09
1791.00,100.09
1790.00,100.09
1789.00,100.09
1788.00,100.09
1787.00,100.09
1786.00,100.09
1785.00,100.09
1784.00,100.09
1783.00,100.09
1782.00,100.09
1781.00,100.09
1780.00,100.09
1779.00,100.09
1778.00,100.09
1777.00,100.09
1776.00,100.09
1775.00,100.09
1774.00,100.09
1773.00,100.09
1772.00,100.09
1771.00,100.09
1770.00,100.09
1769.00,100.08
1768.00,100.08
1767.00,100.08
1766.00,100.09
1765.00,100.09
1764.00,100.09
1763.00,100.09
1762.00,100.09
1761.00,100.10
1760.00,100.09
1759.00,100.09
1758.00,100.09
1757.00,100.09
1756.00,100.09
1755.00,100.08
1754.00,100.08
1753.00,100.06
1752.00,100.06
1751.00,100.06
1750.00,100.07
1749.00,100.08
1748.00,100.08
1747.00,100.09
1746.00,100.09
1745.00,100.09
1744.00,100.09
1743.00,100.09
1742.00,100.09
1741.00,100.09
1740.00,100.09
1739.00,100.10
1738.00,100.10
1737.00,100.09
1736.00,100.08
1735.00,100.07
1734.00,100.07
1733.00,100.07
1732.00,100.07
1731.00,100.08
1730.00,100.08
1729.00,100.09
1728.00,100.09
1727.00,100.09
1726.00,100.09
1725.00,100.09
1724.00,100.09
1723.00,100.09
1722.00,100.09
1721.00,100.09
1720.00,100.09
1719.00,100.08
1718.00,100.08
1717.00,100.08
1716.00,100.08
1715.00,100.08
1714.00,100.08
1713.00,100.09
1712.00,100.09
1711.00,100.09
1710.00,100.09
1709.00,100.09
1708.00,100.09
1707.00,100.09
1706.00,100.09
1705.00,100.09
1704.00,100.10
1703.00,100.09
1702.00,100.09
1701.00,100.09
1700.00,100.09
1699.00,100.09
1698.00,100.08
1697.00,100.07
1696.00,100.07
1695.00,100.08
1694.00,100.08
1693.00,100.08
1692.00,100.08
1691.00,100.08
1690.00,100.08
1689.00,100.09
1688.00,100.09
1687.00,100.08
1686.00,100.07
1685.00,100.07
1684.00,100.08
1683.00,100.08
1682.00,100.09
1681.00,100.09
1680.00,100.08
1679.00,100.09
1678.00,100.09
1677.00,100.09
1676.00,100.09
1675.00,100.09
1674.00,100.09
1673.00,100.09
1672.00,100.08
1671.00,100.08
1670.00,100.09
1669.00,100.09
1668.00,100.09
1667.00,100.09
1666.00,100.09
1665.00,100.09
1664.00,100.09
1663.00,100.09
1662.00,100.09
1661.00,100.09
1660.00,100.08
1659.00,100.08
1658.00,100.09
1657.00,100.09
1656.00,100.10
1655.00,100.10
1654.00,100.10
1653.00,100.10
1652.00,100.10
1651.00,100.09
1650.00,100.09
1649.00,100.08
1648.00,100.08
1647.00,100.08
1646.00,100.08
1645.00,100.08
1644.00,100.08
1643.00,100.08
1642.00,100.08
1641.00,100.08
1640.00,100.08
1639.00,100.09
1638.00,100.09
1637.00,100.09
1636.00,100.09
1635.00,100.09
1634.00,100.09
1633.00,100.09
1632.00,100.09
1631.00,100.09
1630.00,100.09
1629.00,100.09
1628.00,100.09
1627.00,100.09
1626.00,100.09
1625.00,100.09
1624.00,100.09
1623.00,100.09
1622.00,100.09
1621.00,100.09
1620.00,100.09
1619.00,100.09
1618.00,100.09
1617.00,100.10
1616.00,100.10
1615.00,100.09
1614.00,100.09
1613.00,100.09
1612.00,100.09
1611.00,100.09
1610.00,100.09
1609.00,100.10
1608.00,100.09
1607.00,100.09
1606.00,100.10
1605.00,100.10
1604.00,100.09
1603.00,100.09
1602.00,100.09
1601.00,100.09
1600.00,100.09
1599.00,100.09
1598.00,100.10
1597.00,100.10
1596.00,100.10
1595.00,100.10
1594.00,100.10
1593.00,100.10
1592.00,100.10
1591.00,100.10
1590.00,100.10
1589.00,100.10
1588.00,100.10
1587.00,100.10
1586.00,100.10
1585.00,100.10
1584.00,100.10
1583.00,100.09
1582.00,100.09
1581.00,100.10
1580.00,100.10
1579.00,100.10
1578.00,100.10
1577.00,100.10
1576.00,100.10
1575.00,100.09
1574.00,100.10
1573.00,100.09
1572.00,100.09
1571.00,100.09
1570.00,100.09
1569.00,100.09
1568.00,100.09
1567.00,100.09
1566.00,100.08
1565.00,100.09
1564.00,100.09
1563.00,100.09
1562.00,100.10
1561.00,100.10
1560.00,100.09
1559.00,100.08
1558.00,100.08
1557.00,100.08
1556.00,100.07
1555.00,100.07
1554.00,100.07
1553.00,100.07
1552.00,100.08
1551.00,100.08
1550.00,100.08
1549.00,100.08
1548.00,100.08
1547.00,100.07
1546.00,100.07
1545.00,100.08
1544.00,100.08
1543.00,100.08
1542.00,100.08
1541.00,100.08
1540.00,100.08
1539.00,100.08
1538.00,100.08
1537.00,100.08
1536.00,100.08
1535.00,100.08
1534.00,100.08
1533.00,100.09
1532.00,100.09
1531.00,100.08
1530.00,100.08
1529.00,100.08
1528.00,100.08
1527.00,100.08
1526.00,100.08
1525.00,100.08
1524.00,100.08
1523.00,100.08
1522.00,100.08
1521.00,100.08
1520.00,100.08
1519.00,100.08
1518.00,100.08
1517.00,100.08
1516.00,100.08
1515.00,100.08
1514.00,100.07
1513.00,100.07
1512.00,100.07
1511.00,100.08
1510.00,100.08
1509.00,100.08
1508.00,100.08
1507.00,100.08
1506.00,100.08
1505.00,100.08
1504.00,100.08
1503.00,100.08
1502.00,100.08
1501.00,100.08
1500.00,100.09
1499.00,100.09
1498.00,100.09
1497.00,100.09
1496.00,100.09
1495.00,100.09
1494.00,100.09
1493.00,100.09
1492.00,100.09
1491.00,100.09
1490.00,100.09
1489.00,100.09
1488.00,100.09
1487.00,100.09
1486.00,100.09
1485.00,100.09
1484.00,100.09
1483.00,100.09
1482.00,100.09
1481.00,100.09
1480.00,100.09
1479.00,100.09
1478.00,100.09
1477.00,100.09
1476.00,100.09
1475.00,100.08
1474.00,100.08
1473.00,100.07
1472.00,100.08
1471.00,100.09
1470.00,100.09
1469.00,100.09
1468.00,100.09
1467.00,100.10
1466.00,100.09
1465.00,100.09
1464.00,100.09
1463.00,100.09
1462.00,100.09
1461.00,100.09
1460.00,100.09
1459.00,100.09
1458.00,100.09
1457.00,100.08
1456.00,100.08
1455.00,100.08
1454.00,100.08
1453.00,100.08
1452.00,100.09
1451.00,100.09
1450.00,100.09
1449.00,100.09
1448.00,100.09
1447.00,100.10
1446.00,100.10
1445.00,100.10
1444.00,100.10
1443.00,100.10
1442.00,100.10
1441.00,100.10
1440.00,100.10
1439.00,100.10
1438.00,100.10
1437.00,100.09
1436.00,100.09
1435.00,100.09
1434.00,100.09
1433.00,100.09
1432.00,100.09
1431.00,100.10
1430.00,100.10
1429.00,100.10
1428.00,100.09
1427.00,100.09
1426.00,100.09
1425.00,100.09
1424.00,100.09
1423.00,100.09
1422.00,100.09
1421.00,100.09
1420.00,100.09
1419.00,100.09
1418.00,100.09
1417.00,100.09
1416.00,100.09
1415.00,100.09
1414.00,100.09
1413.00,100.10
1412.00,100.10
1411.00,100.10
1410.00,100.10
1409.00,100.10
1408.00,100.10
1407.00,100.10
1406.00,100.10
1405.00,100.09
1404.00,100.09
1403.00,100.09
1402.00,100.09
1401.00,100.09
1400.00,100.09
1399.00,100.09
1398.00,100.09
1397.00,100.09
1396.00,100.09
1395.00,100.10
1394.00,100.10
1393.00,100.10
1392.00,100.09
1391.00,100.09
1390.00,100.10
1389.00,100.10
1388.00,100.10
1387.00,100.10
1386.00,100.10
1385.00,100.10
1384.00,100.10
1383.00,100.10
1382.00,100.10
1381.00,100.10
1380.00,100.10
1379.00,100.09
1378.00,100.09
1377.00,100.09
1376.00,100.09
1375.00,100.09
1374.00,100.10
1373.00,100.10
1372.00,100.10
1371.00,100.10
1370.00,100.10
1369.00,100.10
1368.00,100.10
1367.00,100.10
1366.00,100.10
1365.00,100.10
1364.00,100.10
1363.00,100.10
1362.00,100.10
1361.00,100.10
1360.00,100.10
1359.00,100.10
1358.00,100.10
1357.00,100.10
1356.00,100.10
1355.00,100.10
1354.00,100.10
1353.00,100.10
1352.00,100.10
1351.00,100.10
1350.00,100.10
1349.00,100.10
1348.00,100.10
1347.00,100.10
1346.00,100.10
1345.00,100.10
1344.00,100.10
1343.00,100.10
1342.00,100.10
1341.00,100.10
1340.00,100.10
1339.00,100.10
1338.00,100.10
1337.00,100.10
1336.00,100.10
1335.00,100.10
1334.00,100.10
1333.00,100.10
1332.00,100.10
1331.00,100.10
1330.00,100.10
1329.00,100.10
1328.00,100.10
1327.00,100.10
1326.00,100.10
1325.00,100.10
1324.00,100.10
1323.00,100.10
1322.00,100.10
1321.00,100.10
1320.00,100.10
1319.00,100.10
1318.00,100.10
1317.00,100.10
1316.00,100.10
1315.00,100.10
1314.00,100.10
1313.00,100.10
1312.00,100.10
1311.00,100.10
1310.00,100.10
1309.00,100.10
1308.00,100.10
1307.00,100.10
1306.00,100.10
1305.00,100.10
1304.00,100.10
1303.00,100.10
1302.00,100.10
1301.00,100.10
1300.00,100.10
1299.00,100.10
1298.00,100.10
1297.00,100.11
1296.00,100.11
1295.00,100.11
1294.00,100.11
1293.00,100.11
1292.00,100.11
1291.00,100.11
1290.00,100.11
1289.00,100.11
1288.00,100.11
1287.00,100.11
1286.00,100.11
1285.00,100.10
1284.00,100.10
1283.00,100.10
1282.00,100.10
1281.00,100.11
1280.00,100.11
1279.00,100.11
1278.00,100.10
1277.00,100.10
1276.00,100.10
1275.00,100.10
1274.00,100.10
1273.00,100.10
1272.00,100.10
1271.00,100.10
1270.00,100.11
1269.00,100.11
1268.00,100.11
1267.00,100.11
1266.00,100.11
1265.00,100.11
1264.00,100.11
1263.00,100.11
1262.00,100.11
1261.00,100.11
1260.00,100.11
1259.00,100.11
1258.00,100.11
1257.00,100.11
1256.00,100.11
1255.00,100.11
1254.00,100.11
1253.00,100.11
1252.00,100.11
1251.00,100.11
1250.00,100.11
1249.00,100.12
1248.00,100.12
1247.00,100.12
1246.00,100.11
1245.00,100.11
1244.00,100.11
1243.00,100.11
1242.00,100.11
1241.00,100.11
1240.00,100.11
1239.00,100.11
1238.00,100.11
1237.00,100.11
1236.00,100.10
1235.00,100.10
1234.00,100.10
1233.00,100.11
1232.00,100.11
1231.00,100.11
1230.00,100.10
1229.00,100.10
1228.00,100.10
1227.00,100.11
1226.00,100.11
1225.00,100.11
1224.00,100.11
1223.00,100.10
1222.00,100.10
1221.00,100.10
1220.00,100.10
1219.00,100.10
1218.00,100.11
1217.00,100.11
1216.00,100.11
1215.00,100.11
1214.00,100.11
1213.00,100.11
1212.00,100.11
1211.00,100.11
1210.00,100.11
1209.00,100.11
1208.00,100.11
1207.00,100.11
1206.00,100.11
1205.00,100.11
1204.00,100.11
1203.00,100.11
1202.00,100.11
1201.00,100.11
1200.00,100.11
1199.00,100.11
1198.00,100.11
1197.00,100.11
1196.00,100.11
1195.00,100.11
1194.00,100.11
1193.00,100.11
1192.00,100.11
1191.00,100.11
1190.00,100.11
1189.00,100.11
1188.00,100.11
1187.00,100.11
1186.00,100.11
1185.00,100.11
1184.00,100.11
1183.00,100.11
1182.00,100.11
1181.00,100.11
1180.00,100.11
1179.00,100.11
1178.00,100.12
1177.00,100.12
1176.00,100.12
1175.00,100.11
1174.00,100.11
1173.00,100.11
1172.00,100.11
1171.00,100.11
1170.00,100.11
1169.00,100.11
1168.00,100.11
1167.00,100.11
1166.00,100.11
1165.00,100.11
1164.00,100.11
1163.00,100.11
1162.00,100.11
1161.00,100.11
1160.00,100.11
1159.00,100.11
1158.00,100.11
1157.00,100.11
1156.00,100.11
1155.00,100.11
1154.00,100.12
1153.00,100.12
1152.00,100.12
1151.00,100.12
1150.00,100.12
1149.00,100.12
1148.00,100.12
1147.00,100.12
1146.00,100.12
1145.00,100.12
1144.00,100.12
1143.00,100.12
1142.00,100.12
1141.00,100.12
1140.00,100.12
1139.00,100.12
1138.00,100.12
1137.00,100.11
1136.00,100.11
1135.00,100.11
1134.00,100.11
1133.00,100.11
1132.00,100.11
1131.00,100.12
1130.00,100.12
1129.00,100.12
1128.00,100.12
1127.00,100.11
1126.00,100.11
1125.00,100.11
1124.00,100.11
1123.00,100.11
1122.00,100.11
1121.00,100.12
1120.00,100.12
1119.00,100.13
1118.00,100.13
1117.00,100.13
1116.00,100.12
1115.00,100.12
1114.00,100.12
1113.00,100.12
1112.00,100.12
1111.00,100.12
1110.00,100.12
1109.00,100.12
1108.00,100.12
1107.00,100.12
1106.00,100.12
1105.00,100.12
1104.00,100.12
1103.00,100.12
1102.00,100.12
1101.00,100.12
1100.00,100.12
1099.00,100.11
1098.00,100.11
1097.00,100.11
1096.00,100.11
1095.00,100.11
1094.00,100.11
1093.00,100.11
1092.00,100.11
1091.00,100.11
1090.00,100.11
1089.00,100.11
1088.00,100.11
1087.00,100.11
1086.00,100.11
1085.00,100.11
1084.00,100.11
1083.00,100.11
1082.00,100.12
1081.00,100.12
1080.00,100.12
1079.00,100.12
1078.00,100.12
1077.00,100.12
1076.00,100.11
1075.00,100.11
1074.00,100.11
1073.00,100.11
1072.00,100.11
1071.00,100.11
1070.00,100.11
1069.00,100.11
1068.00,100.11
1067.00,100.11
1066.00,100.10
1065.00,100.10
1064.00,100.10
1063.00,100.10
1062.00,100.10
1061.00,100.11
1060.00,100.11
1059.00,100.11
1058.00,100.10
1057.00,100.10
1056.00,100.10
1055.00,100.10
1054.00,100.11
1053.00,100.11
1052.00,100.11
1051.00,100.11
1050.00,100.11
1049.00,100.11
1048.00,100.10
1047.00,100.10
1046.00,100.10
1045.00,100.10
1044.00,100.10
1043.00,100.10
1042.00,100.10
1041.00,100.11
1040.00,100.10
1039.00,100.10
1038.00,100.10
1037.00,100.10
1036.00,100.10
1035.00,100.10
1034.00,100.11
1033.00,100.11
1032.00,100.11
1031.00,100.11
1030.00,100.10
1029.00,100.10
1028.00,100.10
1027.00,100.10
1026.00,100.11
1025.00,100.11
1024.00,100.11
1023.00,100.11
1022.00,100.11
1021.00,100.11
1020.00,100.10
1019.00,100.10
1018.00,100.10
1017.00,100.10
1016.00,100.10
1015.00,100.10
1014.00,100.10
1013.00,100.10
1012.00,100.10
1011.00,100.10
1010.00,100.10
1009.00,100.10
1008.00,100.10
1007.00,100.10
1006.00,100.10
1005.00,100.10
1004.00,100.10
1003.00,100.10
1002.00,100.10
1001.00,100.10
1000.00,100.10
999.00,100.10
998.00,100.10
997.00,100.10
996.00,100.10
995.00,100.10
994.00,100.10
993.00,100.10
992.00,100.10
991.00,100.10
990.00,100.10
989.00,100.10
988.00,100.10
987.00,100.09
986.00,100.10
985.00,100.10
984.00,100.10
983.00,100.10
982.00,100.10
981.00,100.10
980.00,100.10
979.00,100.10
978.00,100.10
977.00,100.10
976.00,100.10
975.00,100.10
974.00,100.10
973.00,100.10
972.00,100.10
971.00,100.10
970.00,100.10
969.00,100.10
968.00,100.10
967.00,100.10
966.00,100.10
965.00,100.10
964.00,100.10
963.00,100.10
962.00,100.11
961.00,100.11
960.00,100.11
959.00,100.11
958.00,100.11
957.00,100.11
956.00,100.11
955.00,100.11
954.00,100.11
953.00,100.11
952.00,100.11
951.00,100.10
950.00,100.10
949.00,100.11
948.00,100.11
947.00,100.11
946.00,100.11
945.00,100.11
944.00,100.11
943.00,100.11
942.00,100.11
941.00,100.11
940.00,100.10
939.00,100.10
938.00,100.10
937.00,100.10
936.00,100.11
935.00,100.11
934.00,100.11
933.00,100.11
932.00,100.11
931.00,100.11
930.00,100.11
929.00,100.10
928.00,100.10
927.00,100.10
926.00,100.10
925.00,100.10
924.00,100.11
923.00,100.11
922.00,100.12
921.00,100.12
920.00,100.12
919.00,100.12
918.00,100.11
917.00,100.11
916.00,100.11
915.00,100.11
914.00,100.12
913.00,100.12
912.00,100.12
911.00,100.12
910.00,100.11
909.00,100.11
908.00,100.11
907.00,100.11
906.00,100.11
905.00,100.11
904.00,100.11
903.00,100.10
902.00,100.10
901.00,100.10
900.00,100.10
899.00,100.11
898.00,100.11
897.00,100.11
896.00,100.11
895.00,100.11
894.00,100.11
893.00,100.11
892.00,100.11
891.00,100.11
890.00,100.11
889.00,100.11
888.00,100.11
887.00,100.11
886.00,100.11
885.00,100.11
884.00,100.11
883.00,100.11
882.00,100.11
881.00,100.11
880.00,100.11
879.00,100.10
878.00,100.10
877.00,100.11
876.00,100.11
875.00,100.11
874.00,100.11
873.00,100.11
872.00,100.11
871.00,100.11
870.00,100.11
869.00,100.11
868.00,100.11
867.00,100.10
866.00,100.10
865.00,100.10
864.00,100.10
863.00,100.10
862.00,100.10
861.00,100.10
860.00,100.10
859.00,100.10
858.00,100.10
857.00,100.10
856.00,100.10
855.00,100.10
854.00,100.10
853.00,100.10
852.00,100.10
851.00,100.10
850.00,100.10
849.00,100.10
848.00,100.10
847.00,100.10
846.00,100.10
845.00,100.10
844.00,100.10
843.00,100.10
842.00,100.10
841.00,100.10
840.00,100.10
839.00,100.10
838.00,100.10
837.00,100.10
836.00,100.10
835.00,100.10
834.00,100.11
833.00,100.10
832.00,100.10
831.00,100.10
830.00,100.10
829.00,100.10
828.00,100.10
827.00,100.10
826.00,100.10
825.00,100.11
824.00,100.10
823.00,100.10
822.00,100.10
821.00,100.10
820.00,100.10
819.00,100.10
818.00,100.10
817.00,100.10
816.00,100.10
815.00,100.10
814.00,100.10
813.00,100.11
812.00,100.11
811.00,100.11
810.00,100.10
809.00,100.10
808.00,100.10
807.00,100.10
806.00,100.10
805.00,100.10
804.00,100.10
803.00,100.10
802.00,100.10
801.00,100.10
800.00,100.10
799.00,100.10
798.00,100.10
797.00,100.10
796.00,100.10
795.00,100.10
794.00,100.10
793.00,100.10
792.00,100.11
791.00,100.11
790.00,100.11
789.00,100.10
788.00,100.10
787.00,100.10
786.00,100.10
785.00,100.10
784.00,100.10
783.00,100.09
782.00,100.09
781.00,100.09
780.00,100.10
779.00,100.10
778.00,100.10
777.00,100.10
776.00,100.10
775.00,100.10
774.00,100.10
773.00,100.10
772.00,100.10
771.00,100.10
770.00,100.10
769.00,100.10
768.00,100.10
767.00,100.10
766.00,100.11
765.00,100.11
764.00,100.11
763.00,100.10
762.00,100.10
761.00,100.10
760.00,100.09
759.00,100.10
758.00,100.10
757.00,100.10
756.00,100.09
755.00,100.09
754.00,100.10
753.00,100.10
752.00,100.10
751.00,100.10
750.00,100.10
749.00,100.10
748.00,100.10
747.00,100.10
746.00,100.10
745.00,100.10
744.00,100.10
743.00,100.10
742.00,100.10
741.00,100.09
740.00,100.09
739.00,100.09
738.00,100.09
737.00,100.09
736.00,100.10
735.00,100.10
734.00,100.10
733.00,100.09
732.00,100.09
731.00,100.09
730.00,100.09
729.00,100.10
728.00,100.10
727.00,100.10
726.00,100.10
725.00,100.10
724.00,100.10
723.00,100.10
722.00,100.10
721.00,100.10
720.00,100.09
719.00,100.09
718.00,100.09
717.00,100.10
716.00,100.10
715.00,100.10
714.00,100.10
713.00,100.10
712.00,100.10
711.00,100.10
710.00,100.10
709.00,100.10
708.00,100.10
707.00,100.10
706.00,100.10
705.00,100.10
704.00,100.10
703.00,100.10
702.00,100.10
701.00,100.10
700.00,100.11
699.00,100.11
698.00,100.11
697.00,100.10
696.00,100.10
695.00,100.10
694.00,100.10
693.00,100.10
692.00,100.10
691.00,100.10
690.00,100.10
689.00,100.10
688.00,100.11
687.00,100.11
686.00,100.12
685.00,100.13
684.00,100.13
683.00,100.13
682.00,100.13
681.00,100.12
680.00,100.12
679.00,100.12
678.00,100.12
677.00,100.12
676.00,100.11
675.00,100.11
674.00,100.11
673.00,100.12
672.00,100.13
671.00,100.14
670.00,100.16
669.00,100.20
668.00,100.24
667.00,100.23
666.00,100.20
665.00,100.16
664.00,100.14
663.00,100.13
662.00,100.12
661.00,100.11
660.00,100.10
659.00,100.10
658.00,100.11
657.00,100.12
656.00,100.13
655.00,100.13
654.00,100.13
653.00,100.13
652.00,100.13
651.00,100.13
650.00,100.13
649.00,100.12
648.00,100.12
647.00,100.11
646.00,100.12
645.00,100.13
644.00,100.13
643.00,100.12
642.00,100.12
641.00,100.12
640.00,100.12
639.00,100.12
638.00,100.12
637.00,100.12
636.00,100.12
635.00,100.12
634.00,100.12
633.00,100.12
632.00,100.12
631.00,100.12
630.00,100.12
629.00,100.12
628.00,100.11
627.00,100.10
626.00,100.09
625.00,100.08
624.00,100.08
623.00,100.10
622.00,100.11
621.00,100.11
620.00,100.12
619.00,100.12
618.00,100.11
617.00,100.11
616.00,100.10
615.00,100.10
614.00,100.11
613.00,100.11
612.00,100.11
611.00,100.10
610.00,100.10
609.00,100.11
608.00,100.11
607.00,100.12
606.00,100.12
605.00,100.12
604.00,100.13
603.00,100.13
602.00,100.13
601.00,100.11
600.00,100.09
599.00,100.08
598.00,100.08
597.00,100.10
596.00,100.12
595.00,100.14
594.00,100.15
593.00,100.15
592.00,100.13
591.00,100.11
590.00,100.11
589.00,100.11
588.00,100.12
587.00,100.11
586.00,100.11
585.00,100.10
584.00,100.11
583.00,100.12
582.00,100.13
581.00,100.13
580.00,100.12
579.00,100.12
578.00,100.12
577.00,100.13
576.00,100.13
575.00,100.12
574.00,100.12
573.00,100.12
572.00,100.11
571.00,100.11
570.00,100.10
569.00,100.10
568.00,100.10
567.00,100.10
566.00,100.11
565.00,100.12
564.00,100.13
563.00,100.13
562.00,100.13
561.00,100.12
560.00,100.11
559.00,100.11
558.00,100.12
557.00,100.13
556.00,100.14
555.00,100.14
554.00,100.14
553.00,100.14
552.00,100.12
551.00,100.10
550.00,100.08
549.00,100.07
548.00,100.07
547.00,100.09
546.00,100.11
545.00,100.11
544.00,100.11
543.00,100.10
542.00,100.11
541.00,100.12
540.00,100.13
539.00,100.14
538.00,100.14
537.00,100.13
536.00,100.12
535.00,100.12
534.00,100.13
533.00,100.14
532.00,100.14
531.00,100.13
530.00,100.13
529.00,100.12
528.00,100.11
527.00,100.12
526.00,100.12
525.00,100.12
524.00,100.12
523.00,100.12
522.00,100.13
521.00,100.13
520.00,100.13
519.00,100.14
518.00,100.14
517.00,100.14
516.00,100.13
515.00,100.12
514.00,100.11
513.00,100.12
512.00,100.13
511.00,100.15
510.00,100.17
509.00,100.18
508.00,100.17
507.00,100.16
506.00,100.15
505.00,100.14
504.00,100.13
503.00,100.13
502.00,100.15
501.00,100.16
500.00,100.19
