Created as New Dataset,Sample 353 By Analyst Date Tuesday, February 04 2025
cm-1,%T
4000.00,100.44
3999.00,100.44
3998.00,100.44
3997.00,100.44
3996.00,100.44
3995.00,100.44
3994.00,100.44
3993.00,100.44
3992.00,100.44
3991.00,100.44
3990.00,100.44
3989.00,100.44
3988.00,100.44
3987.00,100.43
3986.00,100.43
3985.00,100.43
3984.00,100.43
3983.00,100.43
3982.00,100.43
3981.00,100.43
3980.00,100.44
3979.00,100.44
3978.00,100.44
3977.00,100.44
3976.00,100.44
3975.00,100.44
3974.00,100.44
3973.00,100.43
3972.00,100.43
3971.00,100.43
3970.00,100.43
3969.00,100.43
3968.00,100.44
3967.00,100.43
3966.00,100.43
3965.00,100.43
3964.00,100.43
3963.00,100.43
3962.00,100.43
3961.00,100.43
3960.00,100.43
3959.00,100.42
3958.00,100.42
3957.00,100.43
3956.00,100.43
3955.00,100.43
3954.00,100.43
3953.00,100.42
3952.00,100.42
3951.00,100.41
3950.00,100.41
3949.00,100.40
3948.00,100.40
3947.00,100.39
3946.00,100.39
3945.00,100.38
3944.00,100.39
3943.00,100.40
3942.00,100.40
3941.00,100.41
3940.00,100.40
3939.00,100.40
3938.00,100.41
3937.00,100.41
3936.00,100.41
3935.00,100.40
3934.00,100.38
3933.00,100.38
3932.00,100.38
3931.00,100.39
3930.00,100.39
3929.00,100.39
3928.00,100.39
3927.00,100.39
3926.00,100.40
3925.00,100.40
3924.00,100.40
3923.00,100.39
3922.00,100.38
3921.00,100.36
3920.00,100.35
3919.00,100.35
3918.00,100.35
3917.00,100.36
3916.00,100.37
3915.00,100.38
3914.00,100.39
3913.00,100.40
3912.00,100.41
3911.00,100.42
3910.00,100.42
3909.00,100.42
3908.00,100.41
3907.00,100.40
3906.00,100.38
3905.00,100.35
3904.00,100.32
3903.00,100.29
3902.00,100.26
3901.00,100.25
3900.00,100.26
3899.00,100.29
3898.00,100.31
3897.00,100.33
3896.00,100.34
3895.00,100.35
3894.00,100.36
3893.00,100.37
3892.00,100.38
3891.00,100.38
3890.00,100.37
3889.00,100.35
3888.00,100.32
3887.00,100.30
3886.00,100.31
3885.00,100.33
3884.00,100.33
3883.00,100.31
3882.00,100.30
3881.00,100.30
3880.00,100.33
3879.00,100.34
3878.00,100.34
3877.00,100.32
3876.00,100.32
3875.00,100.33
3874.00,100.35
3873.00,100.35
3872.00,100.32
3871.00,100.29
3870.00,100.29
3869.00,100.30
3868.00,100.30
3867.00,100.29
3866.00,100.27
3865.00,100.29
3864.00,100.31
3863.00,100.32
3862.00,100.31
3861.00,100.31
3860.00,100.31
3859.00,100.34
3858.00,100.37
3857.00,100.41
3856.00,100.42
3855.00,100.41
3854.00,100.37
3853.00,100.34
3852.00,100.32
3851.00,100.30
3850.00,100.29
3849.00,100.30
3848.00,100.31
3847.00,100.33
3846.00,100.34
3845.00,100.34
3844.00,100.34
3843.00,100.34
3842.00,100.33
3841.00,100.32
3840.00,100.31
3839.00,100.30
3838.00,100.29
3837.00,100.29
3836.00,100.29
3835.00,100.30
3834.00,100.30
3833.00,100.30
3832.00,100.31
3831.00,100.33
3830.00,100.34
3829.00,100.34
3828.00,100.34
3827.00,100.34
3826.00,100.35
3825.00,100.36
3824.00,100.34
3823.00,100.31
3822.00,100.30
3821.00,100.31
3820.00,100.32
3819.00,100.31
3818.00,100.28
3817.00,100.28
3816.00,100.30
3815.00,100.34
3814.00,100.36
3813.00,100.36
3812.00,100.36
3811.00,100.37
3810.00,100.38
3809.00,100.38
3808.00,100.37
3807.00,100.36
3806.00,100.36
3805.00,100.35
3804.00,100.33
3803.00,100.31
3802.00,100.31
3801.00,100.33
3800.00,100.34
3799.00,100.32
3798.00,100.30
3797.00,100.31
3796.00,100.33
3795.00,100.36
3794.00,100.37
3793.00,100.37
3792.00,100.38
3791.00,100.39
3790.00,100.40
3789.00,100.41
3788.00,100.40
3787.00,100.40
3786.00,100.40
3785.00,100.40
3784.00,100.40
3783.00,100.39
3782.00,100.38
3781.00,100.37
3780.00,100.37
3779.00,100.37
3778.00,100.38
3777.00,100.38
3776.00,100.38
3775.00,100.38
3774.00,100.39
3773.00,100.39
3772.00,100.38
3771.00,100.36
3770.00,100.36
3769.00,100.35
3768.00,100.34
3767.00,100.33
3766.00,100.32
3765.00,100.34
3764.00,100.35
3763.00,100.34
3762.00,100.33
3761.00,100.32
3760.00,100.33
3759.00,100.33
3758.00,100.33
3757.00,100.32
3756.00,100.31
3755.00,100.30
3754.00,100.29
3753.00,100.28
3752.00,100.27
3751.00,100.25
3750.00,100.23
3749.00,100.22
3748.00,100.22
3747.00,100.21
3746.00,100.20
3745.00,100.20
3744.00,100.23
3743.00,100.24
3742.00,100.23
3741.00,100.20
3740.00,100.19
3739.00,100.18
3738.00,100.17
3737.00,100.17
3736.00,100.19
3735.00,100.21
3734.00,100.22
3733.00,100.22
3732.00,100.23
3731.00,100.25
3730.00,100.27
3729.00,100.27
3728.00,100.27
3727.00,100.28
3726.00,100.29
3725.00,100.30
3724.00,100.30
3723.00,100.29
3722.00,100.30
3721.00,100.31
3720.00,100.32
3719.00,100.33
3718.00,100.33
3717.00,100.33
3716.00,100.33
3715.00,100.32
3714.00,100.31
3713.00,100.30
3712.00,100.29
3711.00,100.29
3710.00,100.28
3709.00,100.29
3708.00,100.30
3707.00,100.32
3706.00,100.33
3705.00,100.35
3704.00,100.36
3703.00,100.37
3702.00,100.38
3701.00,100.38
3700.00,100.38
3699.00,100.37
3698.00,100.36
3697.00,100.37
3696.00,100.38
3695.00,100.38
3694.00,100.37
3693.00,100.36
3692.00,100.35
3691.00,100.35
3690.00,100.34
3689.00,100.32
3688.00,100.31
3687.00,100.32
3686.00,100.32
3685.00,100.32
3684.00,100.33
3683.00,100.34
3682.00,100.34
3681.00,100.34
3680.00,100.34
3679.00,100.33
3678.00,100.31
3677.00,100.27
3676.00,100.25
3675.00,100.26
3674.00,100.26
3673.00,100.24
3672.00,100.21
3671.00,100.21
3670.00,100.25
3669.00,100.28
3668.00,100.30
3667.00,100.30
3666.00,100.31
3665.00,100.33
3664.00,100.35
3663.00,100.37
3662.00,100.38
3661.00,100.38
3660.00,100.38
3659.00,100.37
3658.00,100.36
3657.00,100.35
3656.00,100.34
3655.00,100.33
3654.00,100.31
3653.00,100.27
3652.00,100.24
3651.00,100.22
3650.00,100.21
3649.00,100.19
3648.00,100.18
3647.00,100.19
3646.00,100.22
3645.00,100.25
3644.00,100.28
3643.00,100.31
3642.00,100.34
3641.00,100.36
3640.00,100.37
3639.00,100.37
3638.00,100.37
3637.00,100.37
3636.00,100.36
3635.00,100.35
3634.00,100.35
3633.00,100.34
3632.00,100.32
3631.00,100.29
3630.00,100.26
3629.00,100.26
3628.00,100.27
3627.00,100.27
3626.00,100.27
3625.00,100.28
3624.00,100.30
3623.00,100.32
3622.00,100.34
3621.00,100.34
3620.00,100.34
3619.00,100.33
3618.00,100.31
3617.00,100.28
3616.00,100.26
3615.00,100.25
3614.00,100.25
3613.00,100.25
3612.00,100.25
3611.00,100.24
3610.00,100.24
3609.00,100.24
3608.00,100.27
3607.00,100.29
3606.00,100.31
3605.00,100.32
3604.00,100.33
3603.00,100.34
3602.00,100.35
3601.00,100.36
3600.00,100.36
3599.00,100.35
3598.00,100.34
3597.00,100.33
3596.00,100.33
3595.00,100.33
3594.00,100.33
3593.00,100.33
3592.00,100.32
3591.00,100.30
3590.00,100.28
3589.00,100.28
3588.00,100.28
3587.00,100.29
3586.00,100.30
3585.00,100.30
3584.00,100.31
3583.00,100.33
3582.00,100.35
3581.00,100.37
3580.00,100.38
3579.00,100.39
3578.00,100.39
3577.00,100.39
3576.00,100.39
3575.00,100.39
3574.00,100.38
3573.00,100.38
3572.00,100.36
3571.00,100.34
3570.00,100.31
3569.00,100.28
3568.00,100.27
3567.00,100.28
3566.00,100.28
3565.00,100.28
3564.00,100.29
3563.00,100.30
3562.00,100.33
3561.00,100.35
3560.00,100.37
3559.00,100.38
3558.00,100.38
3557.00,100.39
3556.00,100.39
3555.00,100.39
3554.00,100.39
3553.00,100.39
3552.00,100.38
3551.00,100.38
3550.00,100.36
3549.00,100.35
3548.00,100.34
3547.00,100.34
3546.00,100.34
3545.00,100.35
3544.00,100.36
3543.00,100.36
3542.00,100.37
3541.00,100.38
3540.00,100.39
3539.00,100.39
3538.00,100.40
3537.00,100.40
3536.00,100.41
3535.00,100.41
3534.00,100.40
3533.00,100.40
3532.00,100.39
3531.00,100.39
3530.00,100.39
3529.00,100.38
3528.00,100.37
3527.00,100.37
3526.00,100.36
3525.00,100.36
3524.00,100.36
3523.00,100.37
3522.00,100.38
3521.00,100.38
3520.00,100.39
3519.00,100.39
3518.00,100.40
3517.00,100.41
3516.00,100.41
3515.00,100.41
3514.00,100.41
3513.00,100.41
3512.00,100.41
3511.00,100.41
3510.00,100.41
3509.00,100.41
3508.00,100.40
3507.00,100.40
3506.00,100.39
3505.00,100.39
3504.00,100.39
3503.00,100.40
3502.00,100.40
3501.00,100.40
3500.00,100.40
3499.00,100.40
3498.00,100.41
3497.00,100.41
3496.00,100.42
3495.00,100.42
3494.00,100.43
3493.00,100.43
3492.00,100.43
3491.00,100.42
3490.00,100.42
3489.00,100.42
3488.00,100.42
3487.00,100.42
3486.00,100.42
3485.00,100.42
3484.00,100.42
3483.00,100.43
3482.00,100.43
3481.00,100.43
3480.00,100.43
3479.00,100.42
3478.00,100.43
3477.00,100.43
3476.00,100.44
3475.00,100.44
3474.00,100.44
3473.00,100.44
3472.00,100.43
3471.00,100.43
3470.00,100.43
3469.00,100.43
3468.00,100.43
3467.00,100.43
3466.00,100.43
3465.00,100.43
3464.00,100.43
3463.00,100.43
3462.00,100.43
3461.00,100.43
3460.00,100.43
3459.00,100.43
3458.00,100.43
3457.00,100.43
3456.00,100.44
3455.00,100.44
3454.00,100.44
3453.00,100.44
3452.00,100.44
3451.00,100.43
3450.00,100.43
3449.00,100.43
3448.00,100.43
3447.00,100.43
3446.00,100.42
3445.00,100.42
3444.00,100.42
3443.00,100.43
3442.00,100.43
3441.00,100.44
3440.00,100.44
3439.00,100.43
3438.00,100.43
3437.00,100.43
3436.00,100.43
3435.00,100.43
3434.00,100.43
3433.00,100.43
3432.00,100.43
3431.00,100.43
3430.00,100.43
3429.00,100.43
3428.00,100.43
3427.00,100.43
3426.00,100.44
3425.00,100.44
3424.00,100.44
3423.00,100.44
3422.00,100.43
3421.00,100.43
3420.00,100.43
3419.00,100.43
3418.00,100.43
3417.00,100.43
3416.00,100.43
3415.00,100.43
3414.00,100.43
3413.00,100.43
3412.00,100.43
3411.00,100.44
3410.00,100.44
3409.00,100.44
3408.00,100.44
3407.00,100.44
3406.00,100.44
3405.00,100.44
3404.00,100.44
3403.00,100.44
3402.00,100.44
3401.00,100.43
3400.00,100.43
3399.00,100.44
3398.00,100.44
3397.00,100.44
3396.00,100.44
3395.00,100.44
3394.00,100.44
3393.00,100.44
3392.00,100.44
3391.00,100.44
3390.00,100.44
3389.00,100.44
3388.00,100.44
3387.00,100.44
3386.00,100.44
3385.00,100.45
3384.00,100.44
3383.00,100.44
3382.00,100.44
3381.00,100.44
3380.00,100.44
3379.00,100.44
3378.00,100.44
3377.00,100.44
3376.00,100.44
3375.00,100.44
3374.00,100.44
3373.00,100.44
3372.00,100.43
3371.00,100.43
3370.00,100.43
3369.00,100.43
3368.00,100.43
3367.00,100.43
3366.00,100.43
3365.00,100.43
3364.00,100.43
3363.00,100.43
3362.00,100.43
3361.00,100.43
3360.00,100.43
3359.00,100.43
3358.00,100.43
3357.00,100.44
3356.00,100.44
3355.00,100.44
3354.00,100.44
3353.00,100.44
3352.00,100.44
3351.00,100.44
3350.00,100.44
3349.00,100.44
3348.00,100.44
3347.00,100.44
3346.00,100.44
3345.00,100.44
3344.00,100.44
3343.00,100.44
3342.00,100.44
3341.00,100.44
3340.00,100.44
3339.00,100.44
3338.00,100.43
3337.00,100.43
3336.00,100.43
3335.00,100.44
3334.00,100.44
3333.00,100.44
3332.00,100.44
3331.00,100.44
3330.00,100.44
3329.00,100.44
3328.00,100.44
3327.00,100.44
3326.00,100.44
3325.00,100.44
3324.00,100.44
3323.00,100.44
3322.00,100.44
3321.00,100.44
3320.00,100.44
3319.00,100.44
3318.00,100.44
3317.00,100.44
3316.00,100.44
3315.00,100.44
3314.00,100.44
3313.00,100.44
3312.00,100.44
3311.00,100.44
3310.00,100.44
3309.00,100.43
3308.00,100.43
3307.00,100.43
3306.00,100.44
3305.00,100.44
3304.00,100.44
3303.00,100.44
3302.00,100.44
3301.00,100.44
3300.00,100.44
3299.00,100.44
3298.00,100.44
3297.00,100.44
3296.00,100.43
3295.00,100.43
3294.00,100.43
3293.00,100.43
3292.00,100.43
3291.00,100.44
3290.00,100.44
3289.00,100.44
3288.00,100.44
3287.00,100.44
3286.00,100.44
3285.00,100.44
3284.00,100.44
3283.00,100.44
3282.00,100.44
3281.00,100.44
3280.00,100.44
3279.00,100.44
3278.00,100.44
3277.00,100.44
3276.00,100.43
3275.00,100.43
3274.00,100.43
3273.00,100.43
3272.00,100.44
3271.00,100.44
3270.00,100.44
3269.00,100.44
3268.00,100.44
3267.00,100.44
3266.00,100.44
3265.00,100.44
3264.00,100.44
3263.00,100.44
3262.00,100.43
3261.00,100.43
3260.00,100.43
3259.00,100.43
3258.00,100.43
3257.00,100.43
3256.00,100.43
3255.00,100.43
3254.00,100.43
3253.00,100.43
3252.00,100.44
3251.00,100.44
3250.00,100.44
3249.00,100.44
3248.00,100.44
3247.00,100.43
3246.00,100.43
3245.00,100.43
3244.00,100.43
3243.00,100.43
3242.00,100.44
3241.00,100.44
3240.00,100.44
3239.00,100.44
3238.00,100.44
3237.00,100.44
3236.00,100.43
3235.00,100.43
3234.00,100.44
3233.00,100.44
3232.00,100.44
3231.00,100.43
3230.00,100.43
3229.00,100.43
3228.00,100.43
3227.00,100.43
3226.00,100.43
3225.00,100.43
3224.00,100.43
3223.00,100.44
3222.00,100.44
3221.00,100.43
3220.00,100.43
3219.00,100.43
3218.00,100.43
3217.00,100.43
3216.00,100.43
3215.00,100.43
3214.00,100.43
3213.00,100.43
3212.00,100.44
3211.00,100.44
3210.00,100.44
3209.00,100.44
3208.00,100.44
3207.00,100.43
3206.00,100.44
3205.00,100.44
3204.00,100.44
3203.00,100.44
3202.00,100.43
3201.00,100.43
3200.00,100.43
3199.00,100.43
3198.00,100.43
3197.00,100.43
3196.00,100.43
3195.00,100.44
3194.00,100.44
3193.00,100.44
3192.00,100.44
3191.00,100.44
3190.00,100.44
3189.00,100.44
3188.00,100.43
3187.00,100.43
3186.00,100.43
3185.00,100.43
3184.00,100.43
3183.00,100.44
3182.00,100.44
3181.00,100.43
3180.00,100.43
3179.00,100.43
3178.00,100.43
3177.00,100.42
3176.00,100.42
3175.00,100.43
3174.00,100.43
3173.00,100.43
3172.00,100.43
3171.00,100.43
3170.00,100.43
3169.00,100.43
3168.00,100.43
3167.00,100.43
3166.00,100.43
3165.00,100.43
3164.00,100.43
3163.00,100.43
3162.00,100.43
3161.00,100.43
3160.00,100.43
3159.00,100.43
3158.00,100.43
3157.00,100.43
3156.00,100.43
3155.00,100.43
3154.00,100.43
3153.00,100.43
3152.00,100.43
3151.00,100.43
3150.00,100.43
3149.00,100.43
3148.00,100.43
3147.00,100.43
3146.00,100.43
3145.00,100.43
3144.00,100.43
3143.00,100.43
3142.00,100.43
3141.00,100.43
3140.00,100.42
3139.00,100.42
3138.00,100.42
3137.00,100.43
3136.00,100.43
3135.00,100.43
3134.00,100.42
3133.00,100.42
3132.00,100.42
3131.00,100.42
3130.00,100.43
3129.00,100.43
3128.00,100.43
3127.00,100.42
3126.00,100.42
3125.00,100.42
3124.00,100.42
3123.00,100.42
3122.00,100.42
3121.00,100.42
3120.00,100.42
3119.00,100.42
3118.00,100.42
3117.00,100.42
3116.00,100.42
3115.00,100.42
3114.00,100.42
3113.00,100.42
3112.00,100.42
3111.00,100.42
3110.00,100.42
3109.00,100.42
3108.00,100.42
3107.00,100.42
3106.00,100.43
3105.00,100.43
3104.00,100.43
3103.00,100.42
3102.00,100.42
3101.00,100.41
3100.00,100.41
3099.00,100.42
3098.00,100.42
3097.00,100.42
3096.00,100.41
3095.00,100.41
3094.00,100.41
3093.00,100.41
3092.00,100.41
3091.00,100.41
3090.00,100.41
3089.00,100.41
3088.00,100.42
3087.00,100.42
3086.00,100.42
3085.00,100.42
3084.00,100.42
3083.00,100.42
3082.00,100.41
3081.00,100.41
3080.00,100.41
3079.00,100.41
3078.00,100.41
3077.00,100.42
3076.00,100.42
3075.00,100.42
3074.00,100.42
3073.00,100.42
3072.00,100.41
3071.00,100.41
3070.00,100.41
3069.00,100.41
3068.00,100.41
3067.00,100.41
3066.00,100.41
3065.00,100.41
3064.00,100.41
3063.00,100.41
3062.00,100.42
3061.00,100.42
3060.00,100.42
3059.00,100.41
3058.00,100.41
3057.00,100.41
3056.00,100.41
3055.00,100.41
3054.00,100.41
3053.00,100.41
3052.00,100.41
3051.00,100.41
3050.00,100.41
3049.00,100.41
3048.00,100.41
3047.00,100.41
3046.00,100.41
3045.00,100.41
3044.00,100.41
3043.00,100.41
3042.00,100.41
3041.00,100.41
3040.00,100.41
3039.00,100.41
3038.00,100.41
3037.00,100.41
3036.00,100.40
3035.00,100.40
3034.00,100.40
3033.00,100.40
3032.00,100.40
3031.00,100.40
3030.00,100.41
3029.00,100.41
3028.00,100.41
3027.00,100.40
3026.00,100.40
3025.00,100.40
3024.00,100.40
3023.00,100.40
3022.00,100.40
3021.00,100.41
3020.00,100.41
3019.00,100.41
3018.00,100.41
3017.00,100.41
3016.00,100.41
3015.00,100.40
3014.00,100.40
3013.00,100.40
3012.00,100.40
3011.00,100.40
3010.00,100.41
3009.00,100.41
3008.00,100.41
3007.00,100.41
3006.00,100.41
3005.00,100.40
3004.00,100.40
3003.00,100.41
3002.00,100.41
3001.00,100.41
3000.00,100.40
2999.00,100.40
2998.00,100.40
2997.00,100.40
2996.00,100.40
2995.00,100.40
2994.00,100.40
2993.00,100.40
2992.00,100.40
2991.00,100.40
2990.00,100.40
2989.00,100.40
2988.00,100.40
2987.00,100.40
2986.00,100.40
2985.00,100.40
2984.00,100.40
2983.00,100.40
2982.00,100.40
2981.00,100.40
2980.00,100.40
2979.00,100.40
2978.00,100.40
2977.00,100.40
2976.00,100.40
2975.00,100.40
2974.00,100.40
2973.00,100.40
2972.00,100.40
2971.00,100.40
2970.00,100.40
2969.00,100.40
2968.00,100.41
2967.00,100.41
2966.00,100.41
2965.00,100.40
2964.00,100.40
2963.00,100.41
2962.00,100.41
2961.00,100.41
2960.00,100.41
2959.00,100.41
2958.00,100.41
2957.00,100.41
2956.00,100.41
2955.00,100.41
2954.00,100.41
2953.00,100.41
2952.00,100.41
2951.00,100.40
2950.00,100.40
2949.00,100.40
2948.00,100.40
2947.00,100.39
2946.00,100.39
2945.00,100.39
2944.00,100.39
2943.00,100.39
2942.00,100.39
2941.00,100.39
2940.00,100.39
2939.00,100.39
2938.00,100.39
2937.00,100.39
2936.00,100.39
2935.00,100.39
2934.00,100.39
2933.00,100.39
2932.00,100.39
2931.00,100.39
2930.00,100.39
2929.00,100.40
2928.00,100.40
2927.00,100.41
2926.00,100.41
2925.00,100.42
2924.00,100.42
2923.00,100.42
2922.00,100.43
2921.00,100.43
2920.00,100.43
2919.00,100.43
2918.00,100.43
2917.00,100.43
2916.00,100.43
2915.00,100.42
2914.00,100.42
2913.00,100.42
2912.00,100.41
2911.00,100.41
2910.00,100.41
2909.00,100.41
2908.00,100.40
2907.00,100.40
2906.00,100.40
2905.00,100.40
2904.00,100.40
2903.00,100.40
2902.00,100.40
2901.00,100.40
2900.00,100.40
2899.00,100.40
2898.00,100.40
2897.00,100.40
2896.00,100.40
2895.00,100.40
2894.00,100.40
2893.00,100.40
2892.00,100.40
2891.00,100.40
2890.00,100.40
2889.00,100.40
2888.00,100.40
2887.00,100.40
2886.00,100.39
2885.00,100.39
2884.00,100.39
2883.00,100.40
2882.00,100.40
2881.00,100.39
2880.00,100.39
2879.00,100.39
2878.00,100.39
2877.00,100.39
2876.00,100.39
2875.00,100.39
2874.00,100.39
2873.00,100.39
2872.00,100.39
2871.00,100.39
2870.00,100.39
2869.00,100.39
2868.00,100.39
2867.00,100.39
2866.00,100.39
2865.00,100.40
2864.00,100.39
2863.00,100.40
2862.00,100.40
2861.00,100.40
2860.00,100.40
2859.00,100.40
2858.00,100.41
2857.00,100.41
2856.00,100.42
2855.00,100.42
2854.00,100.42
2853.00,100.42
2852.00,100.42
2851.00,100.43
2850.00,100.43
2849.00,100.43
2848.00,100.42
2847.00,100.42
2846.00,100.42
2845.00,100.42
2844.00,100.41
2843.00,100.41
2842.00,100.41
2841.00,100.40
2840.00,100.40
2839.00,100.40
2838.00,100.39
2837.00,100.39
2836.00,100.39
2835.00,100.39
2834.00,100.39
2833.00,100.39
2832.00,100.39
2831.00,100.39
2830.00,100.39
2829.00,100.39
2828.00,100.39
2827.00,100.39
2826.00,100.39
2825.00,100.39
2824.00,100.39
2823.00,100.39
2822.00,100.39
2821.00,100.39
2820.00,100.39
2819.00,100.39
2818.00,100.39
2817.00,100.39
2816.00,100.39
2815.00,100.39
2814.00,100.39
2813.00,100.39
2812.00,100.39
2811.00,100.39
2810.00,100.39
2809.00,100.39
2808.00,100.39
2807.00,100.39
2806.00,100.39
2805.00,100.39
2804.00,100.39
2803.00,100.39
2802.00,100.39
2801.00,100.39
2800.00,100.39
2799.00,100.39
2798.00,100.39
2797.00,100.39
2796.00,100.39
2795.00,100.39
2794.00,100.39
2793.00,100.39
2792.00,100.39
2791.00,100.39
2790.00,100.39
2789.00,100.39
2788.00,100.39
2787.00,100.39
2786.00,100.39
2785.00,100.39
2784.00,100.39
2783.00,100.39
2782.00,100.39
2781.00,100.39
2780.00,100.39
2779.00,100.39
2778.00,100.39
2777.00,100.39
2776.00,100.38
2775.00,100.38
2774.00,100.38
2773.00,100.38
2772.00,100.39
2771.00,100.39
2770.00,100.39
2769.00,100.38
2768.00,100.38
2767.00,100.38
2766.00,100.38
2765.00,100.38
2764.00,100.38
2763.00,100.38
2762.00,100.39
2761.00,100.39
2760.00,100.39
2759.00,100.39
2758.00,100.39
2757.00,100.38
2756.00,100.38
2755.00,100.38
2754.00,100.38
2753.00,100.39
2752.00,100.39
2751.00,100.39
2750.00,100.39
2749.00,100.39
2748.00,100.39
2747.00,100.39
2746.00,100.39
2745.00,100.39
2744.00,100.39
2743.00,100.38
2742.00,100.38
2741.00,100.39
2740.00,100.39
2739.00,100.39
2738.00,100.39
2737.00,100.39
2736.00,100.39
2735.00,100.39
2734.00,100.38
2733.00,100.38
2732.00,100.38
2731.00,100.38
2730.00,100.38
2729.00,100.38
2728.00,100.38
2727.00,100.38
2726.00,100.38
2725.00,100.38
2724.00,100.38
2723.00,100.38
2722.00,100.38
2721.00,100.38
2720.00,100.38
2719.00,100.38
2718.00,100.39
2717.00,100.39
2716.00,100.39
2715.00,100.39
2714.00,100.39
2713.00,100.38
2712.00,100.38
2711.00,100.38
2710.00,100.39
2709.00,100.39
2708.00,100.39
2707.00,100.38
2706.00,100.38
2705.00,100.38
2704.00,100.38
2703.00,100.38
2702.00,100.38
2701.00,100.38
2700.00,100.38
2699.00,100.38
2698.00,100.38
2697.00,100.38
2696.00,100.38
2695.00,100.38
2694.00,100.38
2693.00,100.38
2692.00,100.38
2691.00,100.38
2690.00,100.38
2689.00,100.39
2688.00,100.38
2687.00,100.38
2686.00,100.38
2685.00,100.38
2684.00,100.38
2683.00,100.38
2682.00,100.38
2681.00,100.38
2680.00,100.38
2679.00,100.38
2678.00,100.38
2677.00,100.38
2676.00,100.38
2675.00,100.38
2674.00,100.38
2673.00,100.38
2672.00,100.38
2671.00,100.38
2670.00,100.38
2669.00,100.38
2668.00,100.38
2667.00,100.38
2666.00,100.38
2665.00,100.38
2664.00,100.38
2663.00,100.38
2662.00,100.38
2661.00,100.38
2660.00,100.38
2659.00,100.38
2658.00,100.39
2657.00,100.39
2656.00,100.39
2655.00,100.39
2654.00,100.39
2653.00,100.38
2652.00,100.38
2651.00,100.38
2650.00,100.38
2649.00,100.38
2648.00,100.38
2647.00,100.38
2646.00,100.38
2645.00,100.38
2644.00,100.38
2643.00,100.38
2642.00,100.38
2641.00,100.38
2640.00,100.38
2639.00,100.38
2638.00,100.38
2637.00,100.38
2636.00,100.38
2635.00,100.38
2634.00,100.38
2633.00,100.38
2632.00,100.38
2631.00,100.38
2630.00,100.38
2629.00,100.38
2628.00,100.38
2627.00,100.38
2626.00,100.38
2625.00,100.38
2624.00,100.38
2623.00,100.38
2622.00,100.38
2621.00,100.38
2620.00,100.38
2619.00,100.38
2618.00,100.38
2617.00,100.38
2616.00,100.38
2615.00,100.38
2614.00,100.38
2613.00,100.38
2612.00,100.38
2611.00,100.38
2610.00,100.38
2609.00,100.38
2608.00,100.38
2607.00,100.38
2606.00,100.38
2605.00,100.38
2604.00,100.38
2603.00,100.38
2602.00,100.38
2601.00,100.38
2600.00,100.38
2599.00,100.38
2598.00,100.38
2597.00,100.38
2596.00,100.38
2595.00,100.38
2594.00,100.38
2593.00,100.38
2592.00,100.38
2591.00,100.38
2590.00,100.38
2589.00,100.38
2588.00,100.38
2587.00,100.38
2586.00,100.38
2585.00,100.38
2584.00,100.38
2583.00,100.38
2582.00,100.38
2581.00,100.38
2580.00,100.38
2579.00,100.38
2578.00,100.38
2577.00,100.38
2576.00,100.38
2575.00,100.38
2574.00,100.38
2573.00,100.38
2572.00,100.38
2571.00,100.38
2570.00,100.38
2569.00,100.38
2568.00,100.38
2567.00,100.38
2566.00,100.38
2565.00,100.38
2564.00,100.38
2563.00,100.38
2562.00,100.38
2561.00,100.38
2560.00,100.38
2559.00,100.38
2558.00,100.38
2557.00,100.38
2556.00,100.38
2555.00,100.38
2554.00,100.38
2553.00,100.38
2552.00,100.38
2551.00,100.38
2550.00,100.38
2549.00,100.38
2548.00,100.38
2547.00,100.38
2546.00,100.38
2545.00,100.38
2544.00,100.38
2543.00,100.38
2542.00,100.38
2541.00,100.38
2540.00,100.38
2539.00,100.38
2538.00,100.38
2537.00,100.38
2536.00,100.38
2535.00,100.38
2534.00,100.38
2533.00,100.38
2532.00,100.38
2531.00,100.38
2530.00,100.38
2529.00,100.38
2528.00,100.38
2527.00,100.38
2526.00,100.38
2525.00,100.38
2524.00,100.38
2523.00,100.38
2522.00,100.38
2521.00,100.38
2520.00,100.38
2519.00,100.38
2518.00,100.38
2517.00,100.38
2516.00,100.38
2515.00,100.38
2514.00,100.38
2513.00,100.38
2512.00,100.38
2511.00,100.38
2510.00,100.38
2509.00,100.38
2508.00,100.38
2507.00,100.38
2506.00,100.38
2505.00,100.38
2504.00,100.38
2503.00,100.38
2502.00,100.38
2501.00,100.38
2500.00,100.38
2499.00,100.38
2498.00,100.38
2497.00,100.38
2496.00,100.38
2495.00,100.38
2494.00,100.38
2493.00,100.38
2492.00,100.38
2491.00,100.38
2490.00,100.38
2489.00,100.38
2488.00,100.38
2487.00,100.38
2486.00,100.38
2485.00,100.38
2484.00,100.38
2483.00,100.38
2482.00,100.38
2481.00,100.38
2480.00,100.38
2479.00,100.38
2478.00,100.38
2477.00,100.38
2476.00,100.38
2475.00,100.38
2474.00,100.38
2473.00,100.38
2472.00,100.38
2471.00,100.38
2470.00,100.38
2469.00,100.38
2468.00,100.38
2467.00,100.38
2466.00,100.38
2465.00,100.38
2464.00,100.38
2463.00,100.38
2462.00,100.38
2461.00,100.38
2460.00,100.38
2459.00,100.38
2458.00,100.38
2457.00,100.38
2456.00,100.38
2455.00,100.38
2454.00,100.38
2453.00,100.38
2452.00,100.38
2451.00,100.37
2450.00,100.37
2449.00,100.37
2448.00,100.38
2447.00,100.38
2446.00,100.38
2445.00,100.38
2444.00,100.38
2443.00,100.37
2442.00,100.37
2441.00,100.37
2440.00,100.37
2439.00,100.38
2438.00,100.38
2437.00,100.38
2436.00,100.38
2435.00,100.38
2434.00,100.38
2433.00,100.38
2432.00,100.38
2431.00,100.38
2430.00,100.38
2429.00,100.38
2428.00,100.38
2427.00,100.38
2426.00,100.38
2425.00,100.38
2424.00,100.38
2423.00,100.38
2422.00,100.38
2421.00,100.38
2420.00,100.38
2419.00,100.38
2418.00,100.38
2417.00,100.38
2416.00,100.38
2415.00,100.38
2414.00,100.38
2413.00,100.38
2412.00,100.38
2411.00,100.38
2410.00,100.38
2409.00,100.38
2408.00,100.38
2407.00,100.38
2406.00,100.38
2405.00,100.38
2404.00,100.37
2403.00,100.37
2402.00,100.37
2401.00,100.37
2400.00,100.37
2399.00,100.37
2398.00,100.37
2397.00,100.37
2396.00,100.37
2395.00,100.38
2394.00,100.38
2393.00,100.38
2392.00,100.38
2391.00,100.37
2390.00,100.37
2389.00,100.37
2388.00,100.37
2387.00,100.36
2386.00,100.36
2385.00,100.36
2384.00,100.36
2383.00,100.36
2382.00,100.36
2381.00,100.37
2380.00,100.37
2379.00,100.38
2378.00,100.39
2377.00,100.39
2376.00,100.39
2375.00,100.39
2374.00,100.38
2373.00,100.37
2372.00,100.36
2371.00,100.36
2370.00,100.36
2369.00,100.37
2368.00,100.37
2367.00,100.37
2366.00,100.37
2365.00,100.36
2364.00,100.36
2363.00,100.36
2362.00,100.36
2361.00,100.36
2360.00,100.36
2359.00,100.36
2358.00,100.35
2357.00,100.35
2356.00,100.35
2355.00,100.34
2354.00,100.34
2353.00,100.35
2352.00,100.37
2351.00,100.38
2350.00,100.36
2349.00,100.34
2348.00,100.31
2347.00,100.30
2346.00,100.32
2345.00,100.35
2344.00,100.35
2343.00,100.34
2342.00,100.33
2341.00,100.33
2340.00,100.33
2339.00,100.33
2338.00,100.33
2337.00,100.33
2336.00,100.33
2335.00,100.32
2334.00,100.32
2333.00,100.32
2332.00,100.32
2331.00,100.33
2330.00,100.33
2329.00,100.33
2328.00,100.32
2327.00,100.32
2326.00,100.31
2325.00,100.31
2324.00,100.31
2323.00,100.32
2322.00,100.32
2321.00,100.32
2320.00,100.32
2319.00,100.32
2318.00,100.32
2317.00,100.32
2316.00,100.32
2315.00,100.32
2314.00,100.33
2313.00,100.33
2312.00,100.34
2311.00,100.34
2310.00,100.34
2309.00,100.34
2308.00,100.34
2307.00,100.34
2306.00,100.34
2305.00,100.34
2304.00,100.34
2303.00,100.34
2302.00,100.34
2301.00,100.35
2300.00,100.35
2299.00,100.35
2298.00,100.35
2297.00,100.35
2296.00,100.36
2295.00,100.36
2294.00,100.36
2293.00,100.36
2292.00,100.36
2291.00,100.36
2290.00,100.36
2289.00,100.37
2288.00,100.37
2287.00,100.37
2286.00,100.36
2285.00,100.36
2284.00,100.36
2283.00,100.36
2282.00,100.36
2281.00,100.37
2280.00,100.37
2279.00,100.37
2278.00,100.37
2277.00,100.37
2276.00,100.38
2275.00,100.38
2274.00,100.38
2273.00,100.38
2272.00,100.38
2271.00,100.38
2270.00,100.38
2269.00,100.38
2268.00,100.38
2267.00,100.38
2266.00,100.38
2265.00,100.38
2264.00,100.38
2263.00,100.38
2262.00,100.38
2261.00,100.37
2260.00,100.37
2259.00,100.37
2258.00,100.37
2257.00,100.37
2256.00,100.37
2255.00,100.37
2254.00,100.37
2253.00,100.37
2252.00,100.37
2251.00,100.37
2250.00,100.37
2249.00,100.37
2248.00,100.37
2247.00,100.37
2246.00,100.37
2245.00,100.37
2244.00,100.37
2243.00,100.37
2242.00,100.37
2241.00,100.37
2240.00,100.37
2239.00,100.37
2238.00,100.37
2237.00,100.37
2236.00,100.37
2235.00,100.37
2234.00,100.37
2233.00,100.37
2232.00,100.37
2231.00,100.37
2230.00,100.37
2229.00,100.37
2228.00,100.37
2227.00,100.37
2226.00,100.37
2225.00,100.37
2224.00,100.37
2223.00,100.37
2222.00,100.37
2221.00,100.37
2220.00,100.37
2219.00,100.37
2218.00,100.37
2217.00,100.37
2216.00,100.37
2215.00,100.37
2214.00,100.37
2213.00,100.37
2212.00,100.37
2211.00,100.37
2210.00,100.37
2209.00,100.37
2208.00,100.37
2207.00,100.37
2206.00,100.37
2205.00,100.37
2204.00,100.37
2203.00,100.37
2202.00,100.37
2201.00,100.37
2200.00,100.37
2199.00,100.37
2198.00,100.37
2197.00,100.37
2196.00,100.37
2195.00,100.37
2194.00,100.37
2193.00,100.37
2192.00,100.37
2191.00,100.37
2190.00,100.37
2189.00,100.37
2188.00,100.37
2187.00,100.37
2186.00,100.37
2185.00,100.37
2184.00,100.37
2183.00,100.37
2182.00,100.37
2181.00,100.37
2180.00,100.37
2179.00,100.37
2178.00,100.37
2177.00,100.37
2176.00,100.37
2175.00,100.37
2174.00,100.37
2173.00,100.37
2172.00,100.37
2171.00,100.37
2170.00,100.37
2169.00,100.37
2168.00,100.37
2167.00,100.37
2166.00,100.37
2165.00,100.37
2164.00,100.37
2163.00,100.37
2162.00,100.37
2161.00,100.37
2160.00,100.37
2159.00,100.37
2158.00,100.37
2157.00,100.37
2156.00,100.37
2155.00,100.37
2154.00,100.37
2153.00,100.37
2152.00,100.37
2151.00,100.37
2150.00,100.37
2149.00,100.37
2148.00,100.37
2147.00,100.37
2146.00,100.37
2145.00,100.37
2144.00,100.37
2143.00,100.37
2142.00,100.37
2141.00,100.37
2140.00,100.37
2139.00,100.37
2138.00,100.37
2137.00,100.37
2136.00,100.37
2135.00,100.37
2134.00,100.37
2133.00,100.37
2132.00,100.37
2131.00,100.37
2130.00,100.37
2129.00,100.37
2128.00,100.37
2127.00,100.37
2126.00,100.37
2125.00,100.37
2124.00,100.37
2123.00,100.37
2122.00,100.37
2121.00,100.37
2120.00,100.37
2119.00,100.37
2118.00,100.37
2117.00,100.37
2116.00,100.37
2115.00,100.37
2114.00,100.37
2113.00,100.37
2112.00,100.37
2111.00,100.37
2110.00,100.37
2109.00,100.37
2108.00,100.37
2107.00,100.37
2106.00,100.37
2105.00,100.37
2104.00,100.37
2103.00,100.37
2102.00,100.37
2101.00,100.37
2100.00,100.37
2099.00,100.37
2098.00,100.37
2097.00,100.37
2096.00,100.37
2095.00,100.37
2094.00,100.37
2093.00,100.36
2092.00,100.36
2091.00,100.36
2090.00,100.37
2089.00,100.37
2088.00,100.37
2087.00,100.37
2086.00,100.37
2085.00,100.37
2084.00,100.37
2083.00,100.37
2082.00,100.37
2081.00,100.37
2080.00,100.37
2079.00,100.37
2078.00,100.37
2077.00,100.37
2076.00,100.37
2075.00,100.37
2074.00,100.37
2073.00,100.37
2072.00,100.37
2071.00,100.37
2070.00,100.37
2069.00,100.37
2068.00,100.37
2067.00,100.37
2066.00,100.37
2065.00,100.37
2064.00,100.37
2063.00,100.37
2062.00,100.36
2061.00,100.36
2060.00,100.37
2059.00,100.37
2058.00,100.37
2057.00,100.37
2056.00,100.37
2055.00,100.37
2054.00,100.37
2053.00,100.37
2052.00,100.37
2051.00,100.37
2050.00,100.37
2049.00,100.37
2048.00,100.37
2047.00,100.37
2046.00,100.37
2045.00,100.37
2044.00,100.37
2043.00,100.37
2042.00,100.37
2041.00,100.37
2040.00,100.37
2039.00,100.37
2038.00,100.37
2037.00,100.37
2036.00,100.37
2035.00,100.37
2034.00,100.37
2033.00,100.37
2032.00,100.37
2031.00,100.37
2030.00,100.37
2029.00,100.37
2028.00,100.37
2027.00,100.37
2026.00,100.37
2025.00,100.37
2024.00,100.37
2023.00,100.36
2022.00,100.36
2021.00,100.36
2020.00,100.36
2019.00,100.37
2018.00,100.37
2017.00,100.37
2016.00,100.37
2015.00,100.36
2014.00,100.36
2013.00,100.36
2012.00,100.36
2011.00,100.37
2010.00,100.37
2009.00,100.37
2008.00,100.37
2007.00,100.37
2006.00,100.37
2005.00,100.37
2004.00,100.37
2003.00,100.36
2002.00,100.36
2001.00,100.36
2000.00,100.36
1999.00,100.36
1998.00,100.36
1997.00,100.36
1996.00,100.36
1995.00,100.37
1994.00,100.37
1993.00,100.37
1992.00,100.37
1991.00,100.37
1990.00,100.37
1989.00,100.36
1988.00,100.36
1987.00,100.37
1986.00,100.37
1985.00,100.37
1984.00,100.37
1983.00,100.37
1982.00,100.37
1981.00,100.37
1980.00,100.37
1979.00,100.36
1978.00,100.36
1977.00,100.36
1976.00,100.36
1975.00,100.36
1974.00,100.36
1973.00,100.36
1972.00,100.36
1971.00,100.36
1970.00,100.36
1969.00,100.37
1968.00,100.37
1967.00,100.37
1966.00,100.37
1965.00,100.36
1964.00,100.36
1963.00,100.36
1962.00,100.37
1961.00,100.37
1960.00,100.37
1959.00,100.37
1958.00,100.37
1957.00,100.37
1956.00,100.37
1955.00,100.37
1954.00,100.37
1953.00,100.37
1952.00,100.36
1951.00,100.36
1950.00,100.36
1949.00,100.36
1948.00,100.36
1947.00,100.36
1946.00,100.36
1945.00,100.36
1944.00,100.37
1943.00,100.37
1942.00,100.37
1941.00,100.36
1940.00,100.36
1939.00,100.35
1938.00,100.35
1937.00,100.36
1936.00,100.36
1935.00,100.37
1934.00,100.37
1933.00,100.37
1932.00,100.37
1931.00,100.37
1930.00,100.36
1929.00,100.36
1928.00,100.36
1927.00,100.36
1926.00,100.36
1925.00,100.37
1924.00,100.37
1923.00,100.37
1922.00,100.37
1921.00,100.36
1920.00,100.35
1919.00,100.35
1918.00,100.35
1917.00,100.35
1916.00,100.35
1915.00,100.35
1914.00,100.35
1913.00,100.35
1912.00,100.36
1911.00,100.36
1910.00,100.36
1909.00,100.37
1908.00,100.37
1907.00,100.36
1906.00,100.36
1905.00,100.36
1904.00,100.36
1903.00,100.36
1902.00,100.36
1901.00,100.36
1900.00,100.36
1899.00,100.36
1898.00,100.36
1897.00,100.37
1896.00,100.37
1895.00,100.37
1894.00,100.36
1893.00,100.36
1892.00,100.36
1891.00,100.36
1890.00,100.36
1889.00,100.37
1888.00,100.37
1887.00,100.36
1886.00,100.36
1885.00,100.36
1884.00,100.36
1883.00,100.36
1882.00,100.36
1881.00,100.36
1880.00,100.36
1879.00,100.36
1878.00,100.36
1877.00,100.36
1876.00,100.36
1875.00,100.36
1874.00,100.35
1873.00,100.35
1872.00,100.35
1871.00,100.35
1870.00,100.35
1869.00,100.36
1868.00,100.36
1867.00,100.36
1866.00,100.35
1865.00,100.35
1864.00,100.35
1863.00,100.35
1862.00,100.36
1861.00,100.36
1860.00,100.37
1859.00,100.37
1858.00,100.36
1857.00,100.36
1856.00,100.36
1855.00,100.36
1854.00,100.36
1853.00,100.36
1852.00,100.36
1851.00,100.36
1850.00,100.36
1849.00,100.36
1848.00,100.36
1847.00,100.36
1846.00,100.36
1845.00,100.36
1844.00,100.35
1843.00,100.35
1842.00,100.34
1841.00,100.34
1840.00,100.34
1839.00,100.35
1838.00,100.36
1837.00,100.36
1836.00,100.36
1835.00,100.35
1834.00,100.35
1833.00,100.35
1832.00,100.36
1831.00,100.36
1830.00,100.37
1829.00,100.36
1828.00,100.35
1827.00,100.35
1826.00,100.34
1825.00,100.35
1824.00,100.35
1823.00,100.35
1822.00,100.35
1821.00,100.35
1820.00,100.35
1819.00,100.36
1818.00,100.36
1817.00,100.36
1816.00,100.36
1815.00,100.36
1814.00,100.36
1813.00,100.35
1812.00,100.36
1811.00,100.36
1810.00,100.36
1809.00,100.35
1808.00,100.35
1807.00,100.35
1806.00,100.35
1805.00,100.35
1804.00,100.35
1803.00,100.35
1802.00,100.35
1801.00,100.34
1800.00,100.34
1799.00,100.34
1798.00,100.34
1797.00,100.35
1796.00,100.35
1795.00,100.35
1794.00,100.34
1793.00,100.34
1792.00,100.34
1791.00,100.34
1790.00,100.34
1789.00,100.33
1788.00,100.33
1787.00,100.33
1786.00,100.33
1785.00,100.33
1784.00,100.34
1783.00,100.34
1782.00,100.34
1781.00,100.35
1780.00,100.35
1779.00,100.35
1778.00,100.34
1777.00,100.34
1776.00,100.34
1775.00,100.34
1774.00,100.34
1773.00,100.33
1772.00,100.33
1771.00,100.33
1770.00,100.32
1769.00,100.31
1768.00,100.31
1767.00,100.32
1766.00,100.33
1765.00,100.33
1764.00,100.34
1763.00,100.34
1762.00,100.35
1761.00,100.35
1760.00,100.34
1759.00,100.34
1758.00,100.34
1757.00,100.33
1756.00,100.33
1755.00,100.32
1754.00,100.30
1753.00,100.27
1752.00,100.25
1751.00,100.25
1750.00,100.28
1749.00,100.30
1748.00,100.31
1747.00,100.32
1746.00,100.32
1745.00,100.33
1744.00,100.33
1743.00,100.34
1742.00,100.35
1741.00,100.34
1740.00,100.34
1739.00,100.35
1738.00,100.35
1737.00,100.34
1736.00,100.31
1735.00,100.29
1734.00,100.28
1733.00,100.28
1732.00,100.29
1731.00,100.31
1730.00,100.32
1729.00,100.33
1728.00,100.34
1727.00,100.34
1726.00,100.35
1725.00,100.35
1724.00,100.35
1723.00,100.35
1722.00,100.34
1721.00,100.34
1720.00,100.33
1719.00,100.32
1718.00,100.30
1717.00,100.30
1716.00,100.31
1715.00,100.31
1714.00,100.31
1713.00,100.32
1712.00,100.33
1711.00,100.33
1710.00,100.33
1709.00,100.34
1708.00,100.35
1707.00,100.35
1706.00,100.35
1705.00,100.35
1704.00,100.36
1703.00,100.35
1702.00,100.33
1701.00,100.32
1700.00,100.33
1699.00,100.32
1698.00,100.30
1697.00,100.28
1696.00,100.29
1695.00,100.32
1694.00,100.32
1693.00,100.32
1692.00,100.32
1691.00,100.32
1690.00,100.33
1689.00,100.33
1688.00,100.33
1687.00,100.32
1686.00,100.30
1685.00,100.30
1684.00,100.31
1683.00,100.32
1682.00,100.33
1681.00,100.33
1680.00,100.32
1679.00,100.33
1678.00,100.33
1677.00,100.33
1676.00,100.33
1675.00,100.33
1674.00,100.33
1673.00,100.32
1672.00,100.32
1671.00,100.32
1670.00,100.33
1669.00,100.34
1668.00,100.34
1667.00,100.34
1666.00,100.34
1665.00,100.34
1664.00,100.34
1663.00,100.35
1662.00,100.35
1661.00,100.34
1660.00,100.34
1659.00,100.33
1658.00,100.34
1657.00,100.35
1656.00,100.36
1655.00,100.36
1654.00,100.37
1653.00,100.37
1652.00,100.36
1651.00,100.35
1650.00,100.34
1649.00,100.32
1648.00,100.32
1647.00,100.31
1646.00,100.32
1645.00,100.32
1644.00,100.32
1643.00,100.33
1642.00,100.33
1641.00,100.33
1640.00,100.34
1639.00,100.34
1638.00,100.34
1637.00,100.34
1636.00,100.34
1635.00,100.34
1634.00,100.34
1633.00,100.34
1632.00,100.34
1631.00,100.34
1630.00,100.34
1629.00,100.34
1628.00,100.35
1627.00,100.35
1626.00,100.35
1625.00,100.35
1624.00,100.35
1623.00,100.35
1622.00,100.36
1621.00,100.36
1620.00,100.36
1619.00,100.36
1618.00,100.36
1617.00,100.37
1616.00,100.37
1615.00,100.36
1614.00,100.36
1613.00,100.36
1612.00,100.36
1611.00,100.36
1610.00,100.36
1609.00,100.36
1608.00,100.36
1607.00,100.36
1606.00,100.36
1605.00,100.37
1604.00,100.36
1603.00,100.36
1602.00,100.36
1601.00,100.36
1600.00,100.36
1599.00,100.36
1598.00,100.36
1597.00,100.37
1596.00,100.37
1595.00,100.36
1594.00,100.36
1593.00,100.37
1592.00,100.37
1591.00,100.36
1590.00,100.37
1589.00,100.37
1588.00,100.37
1587.00,100.36
1586.00,100.36
1585.00,100.37
1584.00,100.36
1583.00,100.36
1582.00,100.36
1581.00,100.37
1580.00,100.37
1579.00,100.38
1578.00,100.38
1577.00,100.38
1576.00,100.37
1575.00,100.36
1574.00,100.36
1573.00,100.36
1572.00,100.35
1571.00,100.35
1570.00,100.36
1569.00,100.36
1568.00,100.34
1567.00,100.33
1566.00,100.33
1565.00,100.33
1564.00,100.34
1563.00,100.35
1562.00,100.36
1561.00,100.36
1560.00,100.34
1559.00,100.31
1558.00,100.30
1557.00,100.30
1556.00,100.30
1555.00,100.29
1554.00,100.29
1553.00,100.30
1552.00,100.30
1551.00,100.30
1550.00,100.31
1549.00,100.31
1548.00,100.30
1547.00,100.29
1546.00,100.30
1545.00,100.31
1544.00,100.32
1543.00,100.33
1542.00,100.32
1541.00,100.31
1540.00,100.31
1539.00,100.31
1538.00,100.31
1537.00,100.31
1536.00,100.31
1535.00,100.31
1534.00,100.31
1533.00,100.31
1532.00,100.32
1531.00,100.32
1530.00,100.31
1529.00,100.31
1528.00,100.32
1527.00,100.32
1526.00,100.31
1525.00,100.30
1524.00,100.30
1523.00,100.30
1522.00,100.30
1521.00,100.30
1520.00,100.31
1519.00,100.30
1518.00,100.30
1517.00,100.30
1516.00,100.30
1515.00,100.30
1514.00,100.29
1513.00,100.28
1512.00,100.29
1511.00,100.30
1510.00,100.31
1509.00,100.30
1508.00,100.30
1507.00,100.30
1506.00,100.29
1505.00,100.30
1504.00,100.31
1503.00,100.32
1502.00,100.32
1501.00,100.33
1500.00,100.33
1499.00,100.34
1498.00,100.34
1497.00,100.34
1496.00,100.34
1495.00,100.34
1494.00,100.33
1493.00,100.33
1492.00,100.33
1491.00,100.32
1490.00,100.32
1489.00,100.32
1488.00,100.33
1487.00,100.33
1486.00,100.33
1485.00,100.34
1484.00,100.34
1483.00,100.35
1482.00,100.35
1481.00,100.35
1480.00,100.35
1479.00,100.34
1478.00,100.33
1477.00,100.33
1476.00,100.33
1475.00,100.32
1474.00,100.30
1473.00,100.29
1472.00,100.30
1471.00,100.32
1470.00,100.33
1469.00,100.33
1468.00,100.34
1467.00,100.35
1466.00,100.35
1465.00,100.34
1464.00,100.34
1463.00,100.34
1462.00,100.33
1461.00,100.33
1460.00,100.34
1459.00,100.35
1458.00,100.34
1457.00,100.32
1456.00,100.31
1455.00,100.32
1454.00,100.32
1453.00,100.33
1452.00,100.34
1451.00,100.35
1450.00,100.35
1449.00,100.35
1448.00,100.35
1447.00,100.35
1446.00,100.36
1445.00,100.36
1444.00,100.36
1443.00,100.36
1442.00,100.36
1441.00,100.36
1440.00,100.36
1439.00,100.36
1438.00,100.36
1437.00,100.35
1436.00,100.34
1435.00,100.34
1434.00,100.34
1433.00,100.34
1432.00,100.34
1431.00,100.35
1430.00,100.36
1429.00,100.35
1428.00,100.35
1427.00,100.35
1426.00,100.35
1425.00,100.34
1424.00,100.34
1423.00,100.34
1422.00,100.35
1421.00,100.34
1420.00,100.34
1419.00,100.34
1418.00,100.33
1417.00,100.33
1416.00,100.33
1415.00,100.34
1414.00,100.35
1413.00,100.36
1412.00,100.36
1411.00,100.36
1410.00,100.37
1409.00,100.37
1408.00,100.36
1407.00,100.36
1406.00,100.36
1405.00,100.36
1404.00,100.35
1403.00,100.35
1402.00,100.35
1401.00,100.34
1400.00,100.34
1399.00,100.33
1398.00,100.34
1397.00,100.34
1396.00,100.34
1395.00,100.34
1394.00,100.35
1393.00,100.35
1392.00,100.34
1391.00,100.35
1390.00,100.35
1389.00,100.36
1388.00,100.37
1387.00,100.37
1386.00,100.37
1385.00,100.37
1384.00,100.37
1383.00,100.37
1382.00,100.37
1381.00,100.37
1380.00,100.36
1379.00,100.36
1378.00,100.36
1377.00,100.36
1376.00,100.36
1375.00,100.36
1374.00,100.37
1373.00,100.37
1372.00,100.36
1371.00,100.36
1370.00,100.36
1369.00,100.36
1368.00,100.36
1367.00,100.36
1366.00,100.36
1365.00,100.36
1364.00,100.37
1363.00,100.37
1362.00,100.37
1361.00,100.37
1360.00,100.36
1359.00,100.36
1358.00,100.36
1357.00,100.36
1356.00,100.37
1355.00,100.37
1354.00,100.37
1353.00,100.37
1352.00,100.37
1351.00,100.37
1350.00,100.37
1349.00,100.37
1348.00,100.37
1347.00,100.37
1346.00,100.37
1345.00,100.37
1344.00,100.37
1343.00,100.37
1342.00,100.37
1341.00,100.37
1340.00,100.37
1339.00,100.37
1338.00,100.37
1337.00,100.37
1336.00,100.37
1335.00,100.37
1334.00,100.37
1333.00,100.37
1332.00,100.37
1331.00,100.37
1330.00,100.37
1329.00,100.37
1328.00,100.37
1327.00,100.37
1326.00,100.37
1325.00,100.37
1324.00,100.37
1323.00,100.37
1322.00,100.37
1321.00,100.37
1320.00,100.37
1319.00,100.37
1318.00,100.37
1317.00,100.37
1316.00,100.37
1315.00,100.37
1314.00,100.37
1313.00,100.37
1312.00,100.37
1311.00,100.37
1310.00,100.37
1309.00,100.37
1308.00,100.37
1307.00,100.38
1306.00,100.38
1305.00,100.37
1304.00,100.37
1303.00,100.37
1302.00,100.37
1301.00,100.37
1300.00,100.37
1299.00,100.37
1298.00,100.37
1297.00,100.37
1296.00,100.37
1295.00,100.37
1294.00,100.37
1293.00,100.37
1292.00,100.37
1291.00,100.38
1290.00,100.38
1289.00,100.38
1288.00,100.38
1287.00,100.38
1286.00,100.38
1285.00,100.37
1284.00,100.37
1283.00,100.37
1282.00,100.37
1281.00,100.37
1280.00,100.37
1279.00,100.37
1278.00,100.37
1277.00,100.37
1276.00,100.37
1275.00,100.37
1274.00,100.37
1273.00,100.37
1272.00,100.37
1271.00,100.37
1270.00,100.38
1269.00,100.38
1268.00,100.38
1267.00,100.38
1266.00,100.38
1265.00,100.38
1264.00,100.39
1263.00,100.39
1262.00,100.39
1261.00,100.39
1260.00,100.39
1259.00,100.40
1258.00,100.40
1257.00,100.40
1256.00,100.41
1255.00,100.41
1254.00,100.41
1253.00,100.41
1252.00,100.41
1251.00,100.41
1250.00,100.41
1249.00,100.41
1248.00,100.42
1247.00,100.41
1246.00,100.41
1245.00,100.41
1244.00,100.41
1243.00,100.40
1242.00,100.40
1241.00,100.40
1240.00,100.39
1239.00,100.39
1238.00,100.39
1237.00,100.39
1236.00,100.38
1235.00,100.38
1234.00,100.38
1233.00,100.38
1232.00,100.38
1231.00,100.38
1230.00,100.38
1229.00,100.38
1228.00,100.38
1227.00,100.38
1226.00,100.38
1225.00,100.38
1224.00,100.37
1223.00,100.37
1222.00,100.38
1221.00,100.38
1220.00,100.38
1219.00,100.38
1218.00,100.38
1217.00,100.38
1216.00,100.38
1215.00,100.38
1214.00,100.38
1213.00,100.38
1212.00,100.38
1211.00,100.38
1210.00,100.38
1209.00,100.38
1208.00,100.38
1207.00,100.39
1206.00,100.39
1205.00,100.39
1204.00,100.39
1203.00,100.39
1202.00,100.39
1201.00,100.39
1200.00,100.39
1199.00,100.39
1198.00,100.39
1197.00,100.39
1196.00,100.39
1195.00,100.39
1194.00,100.39
1193.00,100.39
1192.00,100.39
1191.00,100.39
1190.00,100.39
1189.00,100.39
1188.00,100.39
1187.00,100.39
1186.00,100.39
1185.00,100.39
1184.00,100.39
1183.00,100.40
1182.00,100.40
1181.00,100.39
1180.00,100.39
1179.00,100.39
1178.00,100.40
1177.00,100.40
1176.00,100.40
1175.00,100.40
1174.00,100.40
1173.00,100.40
1172.00,100.40
1171.00,100.40
1170.00,100.39
1169.00,100.39
1168.00,100.39
1167.00,100.39
1166.00,100.39
1165.00,100.39
1164.00,100.39
1163.00,100.39
1162.00,100.39
1161.00,100.40
1160.00,100.40
1159.00,100.39
1158.00,100.39
1157.00,100.40
1156.00,100.40
1155.00,100.40
1154.00,100.40
1153.00,100.40
1152.00,100.40
1151.00,100.40
1150.00,100.40
1149.00,100.40
1148.00,100.39
1147.00,100.40
1146.00,100.40
1145.00,100.40
1144.00,100.40
1143.00,100.40
1142.00,100.40
1141.00,100.40
1140.00,100.40
1139.00,100.40
1138.00,100.40
1137.00,100.40
1136.00,100.40
1135.00,100.40
1134.00,100.40
1133.00,100.40
1132.00,100.40
1131.00,100.41
1130.00,100.41
1129.00,100.41
1128.00,100.41
1127.00,100.40
1126.00,100.40
1125.00,100.40
1124.00,100.40
1123.00,100.40
1122.00,100.40
1121.00,100.41
1120.00,100.42
1119.00,100.42
1118.00,100.42
1117.00,100.42
1116.00,100.42
1115.00,100.41
1114.00,100.41
1113.00,100.41
1112.00,100.41
1111.00,100.41
1110.00,100.41
1109.00,100.41
1108.00,100.41
1107.00,100.41
1106.00,100.41
1105.00,100.41
1104.00,100.41
1103.00,100.41
1102.00,100.41
1101.00,100.40
1100.00,100.40
1099.00,100.40
1098.00,100.40
1097.00,100.40
1096.00,100.40
1095.00,100.40
1094.00,100.40
1093.00,100.40
1092.00,100.40
1091.00,100.40
1090.00,100.40
1089.00,100.40
1088.00,100.41
1087.00,100.41
1086.00,100.41
1085.00,100.41
1084.00,100.41
1083.00,100.41
1082.00,100.41
1081.00,100.41
1080.00,100.41
1079.00,100.41
1078.00,100.41
1077.00,100.41
1076.00,100.41
1075.00,100.40
1074.00,100.40
1073.00,100.40
1072.00,100.40
1071.00,100.40
1070.00,100.40
1069.00,100.40
1068.00,100.40
1067.00,100.39
1066.00,100.39
1065.00,100.39
1064.00,100.39
1063.00,100.39
1062.00,100.39
1061.00,100.39
1060.00,100.38
1059.00,100.38
1058.00,100.38
1057.00,100.39
1056.00,100.39
1055.00,100.39
1054.00,100.40
1053.00,100.40
1052.00,100.40
1051.00,100.40
1050.00,100.39
1049.00,100.39
1048.00,100.38
1047.00,100.38
1046.00,100.38
1045.00,100.38
1044.00,100.37
1043.00,100.37
1042.00,100.38
1041.00,100.38
1040.00,100.37
1039.00,100.37
1038.00,100.37
1037.00,100.37
1036.00,100.38
1035.00,100.38
1034.00,100.38
1033.00,100.38
1032.00,100.38
1031.00,100.38
1030.00,100.38
1029.00,100.38
1028.00,100.38
1027.00,100.38
1026.00,100.38
1025.00,100.37
1024.00,100.37
1023.00,100.37
1022.00,100.37
1021.00,100.37
1020.00,100.37
1019.00,100.37
1018.00,100.37
1017.00,100.37
1016.00,100.36
1015.00,100.36
1014.00,100.36
1013.00,100.36
1012.00,100.35
1011.00,100.35
1010.00,100.35
1009.00,100.35
1008.00,100.35
1007.00,100.35
1006.00,100.35
1005.00,100.35
1004.00,100.35
1003.00,100.35
1002.00,100.35
1001.00,100.35
1000.00,100.35
999.00,100.35
998.00,100.35
997.00,100.35
996.00,100.35
995.00,100.35
994.00,100.35
993.00,100.35
992.00,100.35
991.00,100.36
990.00,100.36
989.00,100.36
988.00,100.35
987.00,100.35
986.00,100.35
985.00,100.36
984.00,100.36
983.00,100.36
982.00,100.35
981.00,100.35
980.00,100.36
979.00,100.36
978.00,100.36
977.00,100.36
976.00,100.35
975.00,100.35
974.00,100.36
973.00,100.36
972.00,100.36
971.00,100.36
970.00,100.36
969.00,100.36
968.00,100.36
967.00,100.36
966.00,100.36
965.00,100.36
964.00,100.36
963.00,100.36
962.00,100.36
961.00,100.37
960.00,100.37
959.00,100.37
958.00,100.37
957.00,100.37
956.00,100.37
955.00,100.37
954.00,100.37
953.00,100.37
952.00,100.37
951.00,100.37
950.00,100.37
949.00,100.37
948.00,100.37
947.00,100.37
946.00,100.38
945.00,100.38
944.00,100.38
943.00,100.38
942.00,100.38
941.00,100.38
940.00,100.38
939.00,100.38
938.00,100.38
937.00,100.38
936.00,100.38
935.00,100.38
934.00,100.39
933.00,100.38
932.00,100.38
931.00,100.38
930.00,100.38
929.00,100.38
928.00,100.38
927.00,100.38
926.00,100.38
925.00,100.38
924.00,100.38
923.00,100.38
922.00,100.39
921.00,100.39
920.00,100.39
919.00,100.39
918.00,100.38
917.00,100.38
916.00,100.39
915.00,100.39
914.00,100.39
913.00,100.40
912.00,100.40
911.00,100.39
910.00,100.39
909.00,100.39
908.00,100.38
907.00,100.38
906.00,100.38
905.00,100.38
904.00,100.38
903.00,100.38
902.00,100.38
901.00,100.38
900.00,100.38
899.00,100.38
898.00,100.38
897.00,100.38
896.00,100.38
895.00,100.38
894.00,100.38
893.00,100.38
892.00,100.38
891.00,100.38
890.00,100.39
889.00,100.39
888.00,100.39
887.00,100.39
886.00,100.38
885.00,100.38
884.00,100.38
883.00,100.38
882.00,100.38
881.00,100.37
880.00,100.37
879.00,100.37
878.00,100.37
877.00,100.37
876.00,100.37
875.00,100.37
874.00,100.37
873.00,100.37
872.00,100.38
871.00,100.38
870.00,100.38
869.00,100.38
868.00,100.37
867.00,100.37
866.00,100.37
865.00,100.37
864.00,100.36
863.00,100.36
862.00,100.36
861.00,100.36
860.00,100.36
859.00,100.36
858.00,100.36
857.00,100.36
856.00,100.36
855.00,100.36
854.00,100.36
853.00,100.36
852.00,100.36
851.00,100.36
850.00,100.37
849.00,100.37
848.00,100.37
847.00,100.36
846.00,100.36
845.00,100.36
844.00,100.36
843.00,100.36
842.00,100.36
841.00,100.36
840.00,100.35
839.00,100.35
838.00,100.35
837.00,100.36
836.00,100.36
835.00,100.36
834.00,100.37
833.00,100.37
832.00,100.37
831.00,100.37
830.00,100.37
829.00,100.37
828.00,100.37
827.00,100.37
826.00,100.37
825.00,100.37
824.00,100.37
823.00,100.37
822.00,100.37
821.00,100.37
820.00,100.37
819.00,100.36
818.00,100.36
817.00,100.36
816.00,100.36
815.00,100.36
814.00,100.37
813.00,100.37
812.00,100.37
811.00,100.37
810.00,100.37
809.00,100.37
808.00,100.37
807.00,100.37
806.00,100.37
805.00,100.37
804.00,100.37
803.00,100.37
802.00,100.37
801.00,100.37
800.00,100.37
799.00,100.37
798.00,100.36
797.00,100.36
796.00,100.36
795.00,100.36
794.00,100.36
793.00,100.36
792.00,100.37
791.00,100.37
790.00,100.37
789.00,100.37
788.00,100.36
787.00,100.35
786.00,100.35
785.00,100.35
784.00,100.36
783.00,100.36
782.00,100.36
781.00,100.36
780.00,100.35
779.00,100.35
778.00,100.35
777.00,100.35
776.00,100.36
775.00,100.36
774.00,100.36
773.00,100.36
772.00,100.36
771.00,100.35
770.00,100.36
769.00,100.36
768.00,100.36
767.00,100.36
766.00,100.37
765.00,100.37
764.00,100.37
763.00,100.36
762.00,100.36
761.00,100.36
760.00,100.36
759.00,100.36
758.00,100.36
757.00,100.36
756.00,100.36
755.00,100.35
754.00,100.35
753.00,100.35
752.00,100.36
751.00,100.36
750.00,100.35
749.00,100.35
748.00,100.36
747.00,100.36
746.00,100.37
745.00,100.36
744.00,100.36
743.00,100.36
742.00,100.35
741.00,100.35
740.00,100.35
739.00,100.34
738.00,100.34
737.00,100.34
736.00,100.35
735.00,100.35
734.00,100.35
733.00,100.35
732.00,100.35
731.00,100.34
730.00,100.34
729.00,100.34
728.00,100.34
727.00,100.35
726.00,100.35
725.00,100.35
724.00,100.36
723.00,100.36
722.00,100.35
721.00,100.35
720.00,100.35
719.00,100.35
718.00,100.35
717.00,100.36
716.00,100.36
715.00,100.36
714.00,100.36
713.00,100.36
712.00,100.37
711.00,100.37
710.00,100.37
709.00,100.37
708.00,100.37
707.00,100.37
706.00,100.37
705.00,100.37
704.00,100.37
703.00,100.37
702.00,100.37
701.00,100.37
700.00,100.37
699.00,100.38
698.00,100.37
697.00,100.37
696.00,100.37
695.00,100.37
694.00,100.37
693.00,100.38
692.00,100.38
691.00,100.39
690.00,100.39
689.00,100.39
688.00,100.40
687.00,100.41
686.00,100.42
685.00,100.42
684.00,100.43
683.00,100.43
682.00,100.43
681.00,100.43
680.00,100.43
679.00,100.43
678.00,100.43
677.00,100.42
676.00,100.42
675.00,100.41
674.00,100.41
673.00,100.42
672.00,100.44
671.00,100.48
670.00,100.53
669.00,100.62
668.00,100.68
667.00,100.64
666.00,100.57
665.00,100.51
664.00,100.45
663.00,100.42
662.00,100.41
661.00,100.41
660.00,100.41
659.00,100.40
658.00,100.41
657.00,100.42
656.00,100.43
655.00,100.43
654.00,100.44
653.00,100.44
652.00,100.43
651.00,100.42
650.00,100.43
649.00,100.43
648.00,100.42
647.00,100.41
646.00,100.42
645.00,100.42
644.00,100.42
643.00,100.41
642.00,100.40
641.00,100.40
640.00,100.40
639.00,100.39
638.00,100.39
637.00,100.40
636.00,100.39
635.00,100.40
634.00,100.40
633.00,100.41
632.00,100.40
631.00,100.40
630.00,100.40
629.00,100.41
628.00,100.40
627.00,100.39
626.00,100.39
625.00,100.39
624.00,100.40
623.00,100.40
622.00,100.41
621.00,100.41
620.00,100.41
619.00,100.41
618.00,100.42
617.00,100.42
616.00,100.41
615.00,100.41
614.00,100.42
613.00,100.42
612.00,100.42
611.00,100.41
610.00,100.42
609.00,100.43
608.00,100.43
607.00,100.43
606.00,100.44
605.00,100.44
604.00,100.44
603.00,100.44
602.00,100.43
601.00,100.42
600.00,100.40
599.00,100.40
598.00,100.40
597.00,100.41
596.00,100.42
595.00,100.44
594.00,100.45
593.00,100.45
592.00,100.43
591.00,100.42
590.00,100.42
589.00,100.42
588.00,100.43
587.00,100.42
586.00,100.42
585.00,100.41
584.00,100.41
583.00,100.42
582.00,100.43
581.00,100.44
580.00,100.43
579.00,100.42
578.00,100.43
577.00,100.43
576.00,100.42
575.00,100.42
574.00,100.44
573.00,100.45
572.00,100.45
571.00,100.44
570.00,100.44
569.00,100.43
568.00,100.42
567.00,100.41
566.00,100.42
565.00,100.42
564.00,100.42
563.00,100.43
562.00,100.44
561.00,100.45
560.00,100.45
559.00,100.45
558.00,100.45
557.00,100.46
556.00,100.44
555.00,100.43
554.00,100.43
553.00,100.42
552.00,100.42
551.00,100.41
550.00,100.40
549.00,100.41
548.00,100.41
547.00,100.41
546.00,100.42
545.00,100.42
544.00,100.41
543.00,100.40
542.00,100.40
541.00,100.40
540.00,100.41
539.00,100.43
538.00,100.44
537.00,100.44
536.00,100.43
535.00,100.43
534.00,100.42
533.00,100.42
532.00,100.42
531.00,100.42
530.00,100.42
529.00,100.42
528.00,100.41
527.00,100.41
526.00,100.42
525.00,100.42
524.00,100.43
523.00,100.45
522.00,100.47
521.00,100.47
520.00,100.47
519.00,100.45
518.00,100.44
517.00,100.42
516.00,100.41
515.00,100.40
514.00,100.40
513.00,100.41
512.00,100.41
511.00,100.42
510.00,100.43
509.00,100.45
508.00,100.46
507.00,100.45
506.00,100.43
505.00,100.41
504.00,100.41
503.00,100.42
502.00,100.43
501.00,100.44
500.00,100.45
