Created as New Dataset,Sample 346 By Analyst Date Tuesday, February 04 2025
cm-1,%T
4000.00,100.02
3999.00,100.02
3998.00,100.02
3997.00,100.02
3996.00,100.01
3995.00,100.02
3994.00,100.02
3993.00,100.01
3992.00,100.01
3991.00,100.02
3990.00,100.02
3989.00,100.02
3988.00,100.01
3987.00,100.01
3986.00,100.01
3985.00,100.01
3984.00,100.01
3983.00,100.01
3982.00,100.01
3981.00,100.01
3980.00,100.01
3979.00,100.02
3978.00,100.02
3977.00,100.01
3976.00,100.01
3975.00,100.01
3974.00,100.01
3973.00,100.01
3972.00,100.01
3971.00,100.01
3970.00,100.01
3969.00,100.01
3968.00,100.01
3967.00,100.01
3966.00,100.01
3965.00,100.01
3964.00,100.01
3963.00,100.01
3962.00,100.01
3961.00,100.01
3960.00,100.01
3959.00,100.01
3958.00,100.01
3957.00,100.01
3956.00,100.01
3955.00,100.01
3954.00,100.01
3953.00,100.01
3952.00,100.01
3951.00,100.01
3950.00,100.01
3949.00,100.01
3948.00,100.01
3947.00,100.01
3946.00,100.01
3945.00,100.01
3944.00,100.00
3943.00,100.00
3942.00,100.00
3941.00,100.01
3940.00,100.01
3939.00,100.01
3938.00,100.01
3937.00,100.01
3936.00,100.01
3935.00,100.01
3934.00,100.01
3933.00,100.01
3932.00,100.01
3931.00,100.01
3930.00,100.01
3929.00,100.01
3928.00,100.01
3927.00,100.01
3926.00,100.01
3925.00,100.01
3924.00,100.01
3923.00,100.01
3922.00,100.01
3921.00,100.01
3920.00,100.01
3919.00,100.01
3918.00,100.01
3917.00,100.01
3916.00,100.01
3915.00,100.01
3914.00,100.01
3913.00,100.02
3912.00,100.02
3911.00,100.02
3910.00,100.01
3909.00,100.01
3908.00,100.01
3907.00,100.01
3906.00,100.01
3905.00,100.01
3904.00,100.01
3903.00,100.01
3902.00,100.00
3901.00,100.00
3900.00,100.00
3899.00,100.00
3898.00,100.01
3897.00,100.01
3896.00,100.01
3895.00,100.01
3894.00,100.01
3893.00,100.01
3892.00,100.01
3891.00,100.01
3890.00,100.01
3889.00,100.01
3888.00,100.01
3887.00,100.01
3886.00,100.01
3885.00,100.01
3884.00,100.00
3883.00,100.00
3882.00,100.00
3881.00,100.00
3880.00,100.01
3879.00,100.01
3878.00,100.01
3877.00,100.01
3876.00,100.01
3875.00,100.01
3874.00,100.01
3873.00,100.01
3872.00,100.01
3871.00,100.01
3870.00,100.01
3869.00,100.01
3868.00,100.01
3867.00,100.01
3866.00,100.01
3865.00,100.01
3864.00,100.01
3863.00,100.01
3862.00,100.01
3861.00,100.00
3860.00,100.00
3859.00,100.01
3858.00,100.01
3857.00,100.01
3856.00,100.02
3855.00,100.01
3854.00,100.01
3853.00,100.01
3852.00,100.01
3851.00,100.01
3850.00,100.01
3849.00,100.01
3848.00,100.01
3847.00,100.01
3846.00,100.01
3845.00,100.01
3844.00,100.01
3843.00,100.01
3842.00,100.01
3841.00,100.01
3840.00,100.01
3839.00,100.01
3838.00,100.01
3837.00,100.01
3836.00,100.01
3835.00,100.01
3834.00,100.01
3833.00,100.01
3832.00,100.01
3831.00,100.01
3830.00,100.01
3829.00,100.01
3828.00,100.01
3827.00,100.01
3826.00,100.01
3825.00,100.01
3824.00,100.01
3823.00,100.01
3822.00,100.01
3821.00,100.01
3820.00,100.01
3819.00,100.01
3818.00,100.01
3817.00,100.01
3816.00,100.01
3815.00,100.01
3814.00,100.01
3813.00,100.01
3812.00,100.01
3811.00,100.01
3810.00,100.01
3809.00,100.01
3808.00,100.01
3807.00,100.01
3806.00,100.01
3805.00,100.01
3804.00,100.01
3803.00,100.01
3802.00,100.01
3801.00,100.01
3800.00,100.01
3799.00,100.01
3798.00,100.01
3797.00,100.01
3796.00,100.01
3795.00,100.01
3794.00,100.01
3793.00,100.01
3792.00,100.01
3791.00,100.01
3790.00,100.01
3789.00,100.01
3788.00,100.01
3787.00,100.01
3786.00,100.01
3785.00,100.01
3784.00,100.01
3783.00,100.01
3782.00,100.01
3781.00,100.01
3780.00,100.01
3779.00,100.01
3778.00,100.01
3777.00,100.01
3776.00,100.01
3775.00,100.01
3774.00,100.01
3773.00,100.01
3772.00,100.01
3771.00,100.01
3770.00,100.01
3769.00,100.01
3768.00,100.01
3767.00,100.01
3766.00,100.01
3765.00,100.01
3764.00,100.01
3763.00,100.01
3762.00,100.00
3761.00,100.00
3760.00,100.01
3759.00,100.01
3758.00,100.01
3757.00,100.01
3756.00,100.00
3755.00,100.00
3754.00,100.01
3753.00,100.01
3752.00,100.01
3751.00,100.01
3750.00,100.01
3749.00,100.01
3748.00,100.01
3747.00,100.00
3746.00,100.00
3745.00,100.00
3744.00,100.00
3743.00,100.00
3742.00,100.00
3741.00,100.00
3740.00,99.99
3739.00,100.00
3738.00,100.00
3737.00,100.00
3736.00,100.00
3735.00,100.00
3734.00,100.00
3733.00,100.00
3732.00,100.01
3731.00,100.01
3730.00,100.00
3729.00,100.00
3728.00,100.00
3727.00,100.01
3726.00,100.01
3725.00,100.01
3724.00,100.00
3723.00,100.00
3722.00,100.00
3721.00,100.00
3720.00,100.01
3719.00,100.01
3718.00,100.01
3717.00,100.00
3716.00,100.00
3715.00,100.00
3714.00,100.00
3713.00,100.00
3712.00,100.00
3711.00,100.00
3710.00,100.00
3709.00,100.00
3708.00,100.01
3707.00,100.01
3706.00,100.01
3705.00,100.00
3704.00,100.00
3703.00,100.00
3702.00,100.00
3701.00,100.00
3700.00,100.00
3699.00,100.00
3698.00,100.00
3697.00,100.00
3696.00,100.00
3695.00,100.00
3694.00,100.01
3693.00,100.01
3692.00,100.01
3691.00,100.01
3690.00,100.01
3689.00,100.01
3688.00,100.01
3687.00,100.01
3686.00,100.01
3685.00,100.00
3684.00,100.00
3683.00,100.00
3682.00,100.00
3681.00,100.00
3680.00,100.00
3679.00,100.00
3678.00,100.00
3677.00,100.00
3676.00,100.00
3675.00,100.00
3674.00,100.00
3673.00,100.00
3672.00,100.00
3671.00,100.00
3670.00,100.01
3669.00,100.01
3668.00,100.00
3667.00,100.00
3666.00,100.00
3665.00,100.00
3664.00,100.00
3663.00,100.00
3662.00,100.00
3661.00,100.00
3660.00,100.00
3659.00,100.01
3658.00,100.01
3657.00,100.01
3656.00,100.01
3655.00,100.01
3654.00,100.01
3653.00,100.00
3652.00,100.00
3651.00,100.00
3650.00,100.00
3649.00,100.00
3648.00,100.00
3647.00,100.00
3646.00,100.00
3645.00,100.00
3644.00,100.00
3643.00,100.00
3642.00,100.00
3641.00,100.00
3640.00,100.01
3639.00,100.00
3638.00,100.00
3637.00,100.00
3636.00,100.00
3635.00,100.00
3634.00,100.00
3633.00,100.00
3632.00,100.00
3631.00,100.00
3630.00,100.00
3629.00,100.00
3628.00,100.00
3627.00,100.00
3626.00,100.00
3625.00,100.00
3624.00,100.00
3623.00,100.00
3622.00,100.01
3621.00,100.01
3620.00,100.01
3619.00,100.01
3618.00,100.00
3617.00,100.00
3616.00,100.00
3615.00,100.00
3614.00,100.00
3613.00,100.00
3612.00,100.00
3611.00,100.00
3610.00,100.00
3609.00,100.00
3608.00,100.00
3607.00,100.00
3606.00,100.00
3605.00,100.00
3604.00,100.00
3603.00,100.00
3602.00,100.00
3601.00,100.00
3600.00,100.00
3599.00,100.00
3598.00,100.00
3597.00,100.00
3596.00,100.00
3595.00,100.00
3594.00,100.00
3593.00,100.00
3592.00,100.00
3591.00,100.00
3590.00,100.00
3589.00,100.00
3588.00,100.00
3587.00,100.00
3586.00,100.00
3585.00,100.00
3584.00,100.00
3583.00,100.00
3582.00,100.00
3581.00,100.00
3580.00,100.00
3579.00,100.00
3578.00,100.00
3577.00,100.00
3576.00,100.00
3575.00,100.00
3574.00,100.00
3573.00,100.00
3572.00,100.00
3571.00,100.00
3570.00,100.00
3569.00,99.99
3568.00,99.99
3567.00,99.99
3566.00,100.00
3565.00,100.00
3564.00,100.00
3563.00,100.00
3562.00,100.00
3561.00,100.00
3560.00,100.00
3559.00,100.00
3558.00,100.00
3557.00,100.00
3556.00,100.00
3555.00,100.00
3554.00,100.01
3553.00,100.01
3552.00,100.01
3551.00,100.00
3550.00,100.00
3549.00,100.00
3548.00,100.00
3547.00,100.00
3546.00,100.00
3545.00,100.00
3544.00,100.00
3543.00,100.00
3542.00,100.00
3541.00,100.00
3540.00,100.01
3539.00,100.01
3538.00,100.01
3537.00,100.01
3536.00,100.01
3535.00,100.01
3534.00,100.01
3533.00,100.01
3532.00,100.00
3531.00,100.00
3530.00,100.00
3529.00,100.00
3528.00,100.00
3527.00,100.00
3526.00,100.00
3525.00,100.00
3524.00,100.00
3523.00,100.00
3522.00,100.00
3521.00,100.00
3520.00,100.00
3519.00,100.00
3518.00,100.00
3517.00,100.00
3516.00,100.00
3515.00,100.01
3514.00,100.01
3513.00,100.01
3512.00,100.01
3511.00,100.01
3510.00,100.01
3509.00,100.01
3508.00,100.01
3507.00,100.01
3506.00,100.01
3505.00,100.01
3504.00,100.01
3503.00,100.01
3502.00,100.01
3501.00,100.00
3500.00,100.01
3499.00,100.01
3498.00,100.01
3497.00,100.01
3496.00,100.01
3495.00,100.01
3494.00,100.01
3493.00,100.01
3492.00,100.01
3491.00,100.01
3490.00,100.01
3489.00,100.01
3488.00,100.01
3487.00,100.01
3486.00,100.01
3485.00,100.01
3484.00,100.01
3483.00,100.01
3482.00,100.01
3481.00,100.01
3480.00,100.01
3479.00,100.01
3478.00,100.01
3477.00,100.01
3476.00,100.01
3475.00,100.01
3474.00,100.01
3473.00,100.01
3472.00,100.01
3471.00,100.01
3470.00,100.01
3469.00,100.01
3468.00,100.01
3467.00,100.01
3466.00,100.01
3465.00,100.01
3464.00,100.01
3463.00,100.01
3462.00,100.01
3461.00,100.01
3460.00,100.01
3459.00,100.01
3458.00,100.01
3457.00,100.01
3456.00,100.01
3455.00,100.01
3454.00,100.01
3453.00,100.01
3452.00,100.01
3451.00,100.01
3450.00,100.01
3449.00,100.01
3448.00,100.01
3447.00,100.01
3446.00,100.01
3445.00,100.01
3444.00,100.01
3443.00,100.01
3442.00,100.01
3441.00,100.01
3440.00,100.01
3439.00,100.01
3438.00,100.01
3437.00,100.01
3436.00,100.01
3435.00,100.01
3434.00,100.01
3433.00,100.01
3432.00,100.01
3431.00,100.01
3430.00,100.01
3429.00,100.01
3428.00,100.01
3427.00,100.01
3426.00,100.01
3425.00,100.01
3424.00,100.01
3423.00,100.01
3422.00,100.01
3421.00,100.01
3420.00,100.01
3419.00,100.01
3418.00,100.01
3417.00,100.01
3416.00,100.01
3415.00,100.01
3414.00,100.01
3413.00,100.01
3412.00,100.01
3411.00,100.01
3410.00,100.01
3409.00,100.01
3408.00,100.01
3407.00,100.01
3406.00,100.01
3405.00,100.01
3404.00,100.01
3403.00,100.01
3402.00,100.01
3401.00,100.01
3400.00,100.01
3399.00,100.01
3398.00,100.01
3397.00,100.02
3396.00,100.02
3395.00,100.02
3394.00,100.02
3393.00,100.02
3392.00,100.02
3391.00,100.01
3390.00,100.01
3389.00,100.01
3388.00,100.01
3387.00,100.01
3386.00,100.01
3385.00,100.02
3384.00,100.02
3383.00,100.02
3382.00,100.02
3381.00,100.02
3380.00,100.02
3379.00,100.02
3378.00,100.01
3377.00,100.01
3376.00,100.01
3375.00,100.01
3374.00,100.01
3373.00,100.01
3372.00,100.01
3371.00,100.01
3370.00,100.01
3369.00,100.01
3368.00,100.01
3367.00,100.01
3366.00,100.01
3365.00,100.01
3364.00,100.01
3363.00,100.01
3362.00,100.01
3361.00,100.01
3360.00,100.01
3359.00,100.01
3358.00,100.01
3357.00,100.01
3356.00,100.01
3355.00,100.01
3354.00,100.01
3353.00,100.01
3352.00,100.01
3351.00,100.01
3350.00,100.01
3349.00,100.01
3348.00,100.01
3347.00,100.01
3346.00,100.01
3345.00,100.02
3344.00,100.02
3343.00,100.02
3342.00,100.01
3341.00,100.01
3340.00,100.01
3339.00,100.01
3338.00,100.01
3337.00,100.01
3336.00,100.01
3335.00,100.01
3334.00,100.01
3333.00,100.01
3332.00,100.01
3331.00,100.01
3330.00,100.01
3329.00,100.01
3328.00,100.01
3327.00,100.01
3326.00,100.01
3325.00,100.01
3324.00,100.01
3323.00,100.01
3322.00,100.01
3321.00,100.01
3320.00,100.01
3319.00,100.01
3318.00,100.01
3317.00,100.01
3316.00,100.01
3315.00,100.01
3314.00,100.01
3313.00,100.02
3312.00,100.02
3311.00,100.02
3310.00,100.02
3309.00,100.01
3308.00,100.01
3307.00,100.01
3306.00,100.01
3305.00,100.01
3304.00,100.01
3303.00,100.01
3302.00,100.01
3301.00,100.01
3300.00,100.01
3299.00,100.01
3298.00,100.01
3297.00,100.01
3296.00,100.01
3295.00,100.01
3294.00,100.01
3293.00,100.01
3292.00,100.01
3291.00,100.01
3290.00,100.01
3289.00,100.01
3288.00,100.01
3287.00,100.01
3286.00,100.01
3285.00,100.01
3284.00,100.01
3283.00,100.01
3282.00,100.02
3281.00,100.02
3280.00,100.02
3279.00,100.01
3278.00,100.01
3277.00,100.01
3276.00,100.01
3275.00,100.01
3274.00,100.01
3273.00,100.02
3272.00,100.02
3271.00,100.02
3270.00,100.02
3269.00,100.02
3268.00,100.02
3267.00,100.02
3266.00,100.02
3265.00,100.02
3264.00,100.01
3263.00,100.01
3262.00,100.01
3261.00,100.01
3260.00,100.01
3259.00,100.01
3258.00,100.01
3257.00,100.01
3256.00,100.01
3255.00,100.01
3254.00,100.01
3253.00,100.01
3252.00,100.01
3251.00,100.01
3250.00,100.01
3249.00,100.01
3248.00,100.01
3247.00,100.01
3246.00,100.01
3245.00,100.01
3244.00,100.01
3243.00,100.01
3242.00,100.01
3241.00,100.01
3240.00,100.01
3239.00,100.01
3238.00,100.01
3237.00,100.01
3236.00,100.01
3235.00,100.01
3234.00,100.02
3233.00,100.02
3232.00,100.02
3231.00,100.02
3230.00,100.01
3229.00,100.01
3228.00,100.01
3227.00,100.01
3226.00,100.01
3225.00,100.01
3224.00,100.01
3223.00,100.01
3222.00,100.01
3221.00,100.01
3220.00,100.01
3219.00,100.01
3218.00,100.01
3217.00,100.01
3216.00,100.01
3215.00,100.01
3214.00,100.01
3213.00,100.01
3212.00,100.01
3211.00,100.01
3210.00,100.01
3209.00,100.01
3208.00,100.01
3207.00,100.01
3206.00,100.02
3205.00,100.02
3204.00,100.01
3203.00,100.01
3202.00,100.01
3201.00,100.01
3200.00,100.01
3199.00,100.01
3198.00,100.01
3197.00,100.01
3196.00,100.01
3195.00,100.01
3194.00,100.01
3193.00,100.01
3192.00,100.01
3191.00,100.02
3190.00,100.02
3189.00,100.01
3188.00,100.01
3187.00,100.01
3186.00,100.01
3185.00,100.01
3184.00,100.01
3183.00,100.01
3182.00,100.01
3181.00,100.01
3180.00,100.01
3179.00,100.01
3178.00,100.01
3177.00,100.01
3176.00,100.01
3175.00,100.01
3174.00,100.01
3173.00,100.01
3172.00,100.01
3171.00,100.01
3170.00,100.01
3169.00,100.01
3168.00,100.01
3167.00,100.01
3166.00,100.01
3165.00,100.01
3164.00,100.01
3163.00,100.01
3162.00,100.01
3161.00,100.01
3160.00,100.01
3159.00,100.01
3158.00,100.01
3157.00,100.01
3156.00,100.01
3155.00,100.01
3154.00,100.01
3153.00,100.01
3152.00,100.01
3151.00,100.01
3150.00,100.01
3149.00,100.01
3148.00,100.01
3147.00,100.01
3146.00,100.01
3145.00,100.01
3144.00,100.02
3143.00,100.02
3142.00,100.02
3141.00,100.01
3140.00,100.01
3139.00,100.01
3138.00,100.01
3137.00,100.01
3136.00,100.01
3135.00,100.01
3134.00,100.01
3133.00,100.01
3132.00,100.01
3131.00,100.01
3130.00,100.01
3129.00,100.01
3128.00,100.01
3127.00,100.01
3126.00,100.01
3125.00,100.01
3124.00,100.01
3123.00,100.01
3122.00,100.01
3121.00,100.01
3120.00,100.01
3119.00,100.01
3118.00,100.01
3117.00,100.01
3116.00,100.01
3115.00,100.01
3114.00,100.01
3113.00,100.01
3112.00,100.01
3111.00,100.01
3110.00,100.01
3109.00,100.01
3108.00,100.01
3107.00,100.01
3106.00,100.02
3105.00,100.02
3104.00,100.02
3103.00,100.01
3102.00,100.01
3101.00,100.01
3100.00,100.01
3099.00,100.01
3098.00,100.01
3097.00,100.01
3096.00,100.01
3095.00,100.01
3094.00,100.01
3093.00,100.01
3092.00,100.01
3091.00,100.01
3090.00,100.01
3089.00,100.01
3088.00,100.01
3087.00,100.01
3086.00,100.01
3085.00,100.01
3084.00,100.01
3083.00,100.01
3082.00,100.01
3081.00,100.01
3080.00,100.01
3079.00,100.01
3078.00,100.01
3077.00,100.01
3076.00,100.01
3075.00,100.01
3074.00,100.01
3073.00,100.01
3072.00,100.01
3071.00,100.01
3070.00,100.01
3069.00,100.01
3068.00,100.01
3067.00,100.01
3066.00,100.01
3065.00,100.01
3064.00,100.01
3063.00,100.01
3062.00,100.01
3061.00,100.01
3060.00,100.01
3059.00,100.01
3058.00,100.01
3057.00,100.01
3056.00,100.01
3055.00,100.01
3054.00,100.01
3053.00,100.01
3052.00,100.01
3051.00,100.01
3050.00,100.01
3049.00,100.01
3048.00,100.01
3047.00,100.01
3046.00,100.01
3045.00,100.01
3044.00,100.01
3043.00,100.01
3042.00,100.01
3041.00,100.01
3040.00,100.01
3039.00,100.01
3038.00,100.01
3037.00,100.01
3036.00,100.01
3035.00,100.01
3034.00,100.01
3033.00,100.01
3032.00,100.01
3031.00,100.01
3030.00,100.01
3029.00,100.01
3028.00,100.01
3027.00,100.01
3026.00,100.00
3025.00,100.00
3024.00,100.00
3023.00,100.01
3022.00,100.01
3021.00,100.01
3020.00,100.01
3019.00,100.01
3018.00,100.01
3017.00,100.01
3016.00,100.01
3015.00,100.01
3014.00,100.01
3013.00,100.01
3012.00,100.01
3011.00,100.01
3010.00,100.01
3009.00,100.01
3008.00,100.01
3007.00,100.01
3006.00,100.01
3005.00,100.01
3004.00,100.01
3003.00,100.01
3002.00,100.01
3001.00,100.01
3000.00,100.01
2999.00,100.01
2998.00,100.01
2997.00,100.01
2996.00,100.01
2995.00,100.01
2994.00,100.01
2993.00,100.01
2992.00,100.01
2991.00,100.00
2990.00,100.00
2989.00,100.00
2988.00,100.00
2987.00,100.00
2986.00,100.01
2985.00,100.01
2984.00,100.01
2983.00,100.01
2982.00,100.01
2981.00,100.01
2980.00,100.01
2979.00,100.01
2978.00,100.01
2977.00,100.01
2976.00,100.01
2975.00,100.01
2974.00,100.01
2973.00,100.01
2972.00,100.01
2971.00,100.01
2970.00,100.01
2969.00,100.01
2968.00,100.01
2967.00,100.01
2966.00,100.01
2965.00,100.01
2964.00,100.01
2963.00,100.01
2962.00,100.01
2961.00,100.01
2960.00,100.01
2959.00,100.01
2958.00,100.01
2957.00,100.01
2956.00,100.01
2955.00,100.01
2954.00,100.01
2953.00,100.01
2952.00,100.01
2951.00,100.01
2950.00,100.01
2949.00,100.01
2948.00,100.01
2947.00,100.01
2946.00,100.01
2945.00,100.00
2944.00,100.00
2943.00,100.00
2942.00,100.00
2941.00,100.00
2940.00,100.00
2939.00,100.01
2938.00,100.01
2937.00,100.01
2936.00,100.01
2935.00,100.01
2934.00,100.01
2933.00,100.01
2932.00,100.01
2931.00,100.01
2930.00,100.01
2929.00,100.01
2928.00,100.01
2927.00,100.01
2926.00,100.01
2925.00,100.02
2924.00,100.01
2923.00,100.01
2922.00,100.01
2921.00,100.01
2920.00,100.01
2919.00,100.01
2918.00,100.01
2917.00,100.01
2916.00,100.01
2915.00,100.01
2914.00,100.01
2913.00,100.01
2912.00,100.01
2911.00,100.01
2910.00,100.01
2909.00,100.01
2908.00,100.01
2907.00,100.01
2906.00,100.01
2905.00,100.00
2904.00,100.00
2903.00,100.00
2902.00,100.01
2901.00,100.01
2900.00,100.01
2899.00,100.01
2898.00,100.01
2897.00,100.01
2896.00,100.01
2895.00,100.01
2894.00,100.01
2893.00,100.01
2892.00,100.01
2891.00,100.01
2890.00,100.01
2889.00,100.01
2888.00,100.01
2887.00,100.01
2886.00,100.01
2885.00,100.01
2884.00,100.01
2883.00,100.01
2882.00,100.01
2881.00,100.01
2880.00,100.01
2879.00,100.01
2878.00,100.01
2877.00,100.01
2876.00,100.01
2875.00,100.01
2874.00,100.01
2873.00,100.01
2872.00,100.01
2871.00,100.01
2870.00,100.00
2869.00,100.00
2868.00,100.00
2867.00,100.01
2866.00,100.01
2865.00,100.01
2864.00,100.01
2863.00,100.01
2862.00,100.01
2861.00,100.01
2860.00,100.01
2859.00,100.01
2858.00,100.01
2857.00,100.01
2856.00,100.01
2855.00,100.01
2854.00,100.01
2853.00,100.01
2852.00,100.01
2851.00,100.01
2850.00,100.01
2849.00,100.01
2848.00,100.02
2847.00,100.01
2846.00,100.01
2845.00,100.01
2844.00,100.01
2843.00,100.01
2842.00,100.01
2841.00,100.01
2840.00,100.01
2839.00,100.01
2838.00,100.01
2837.00,100.01
2836.00,100.01
2835.00,100.01
2834.00,100.01
2833.00,100.01
2832.00,100.01
2831.00,100.01
2830.00,100.01
2829.00,100.01
2828.00,100.01
2827.00,100.01
2826.00,100.01
2825.00,100.01
2824.00,100.01
2823.00,100.01
2822.00,100.01
2821.00,100.01
2820.00,100.01
2819.00,100.01
2818.00,100.01
2817.00,100.01
2816.00,100.01
2815.00,100.01
2814.00,100.01
2813.00,100.01
2812.00,100.01
2811.00,100.01
2810.00,100.01
2809.00,100.01
2808.00,100.01
2807.00,100.01
2806.00,100.01
2805.00,100.01
2804.00,100.00
2803.00,100.00
2802.00,100.00
2801.00,100.00
2800.00,100.00
2799.00,100.00
2798.00,100.00
2797.00,100.00
2796.00,100.01
2795.00,100.01
2794.00,100.01
2793.00,100.01
2792.00,100.01
2791.00,100.01
2790.00,100.01
2789.00,100.00
2788.00,100.00
2787.00,100.01
2786.00,100.01
2785.00,100.01
2784.00,100.01
2783.00,100.01
2782.00,100.01
2781.00,100.01
2780.00,100.01
2779.00,100.00
2778.00,100.00
2777.00,100.01
2776.00,100.01
2775.00,100.01
2774.00,100.00
2773.00,100.01
2772.00,100.01
2771.00,100.01
2770.00,100.01
2769.00,100.00
2768.00,100.00
2767.00,100.00
2766.00,100.00
2765.00,100.00
2764.00,100.00
2763.00,100.00
2762.00,100.00
2761.00,100.00
2760.00,100.01
2759.00,100.01
2758.00,100.01
2757.00,100.01
2756.00,100.00
2755.00,100.00
2754.00,100.00
2753.00,100.01
2752.00,100.01
2751.00,100.01
2750.00,100.00
2749.00,100.00
2748.00,100.00
2747.00,100.00
2746.00,100.00
2745.00,100.00
2744.00,100.00
2743.00,100.00
2742.00,100.00
2741.00,100.00
2740.00,100.00
2739.00,100.00
2738.00,100.01
2737.00,100.01
2736.00,100.01
2735.00,100.01
2734.00,100.00
2733.00,100.00
2732.00,100.00
2731.00,100.00
2730.00,100.00
2729.00,100.00
2728.00,100.00
2727.00,100.00
2726.00,100.00
2725.00,100.00
2724.00,100.01
2723.00,100.01
2722.00,100.01
2721.00,100.01
2720.00,100.00
2719.00,100.00
2718.00,100.00
2717.00,100.00
2716.00,100.00
2715.00,100.01
2714.00,100.01
2713.00,100.01
2712.00,100.01
2711.00,100.01
2710.00,100.01
2709.00,100.01
2708.00,100.01
2707.00,100.00
2706.00,100.00
2705.00,100.01
2704.00,100.01
2703.00,100.01
2702.00,100.01
2701.00,100.01
2700.00,100.01
2699.00,100.00
2698.00,100.00
2697.00,100.00
2696.00,100.00
2695.00,100.01
2694.00,100.01
2693.00,100.00
2692.00,100.00
2691.00,100.01
2690.00,100.01
2689.00,100.01
2688.00,100.01
2687.00,100.00
2686.00,100.00
2685.00,100.00
2684.00,100.00
2683.00,100.01
2682.00,100.01
2681.00,100.00
2680.00,100.00
2679.00,100.00
2678.00,100.00
2677.00,100.00
2676.00,100.00
2675.00,100.00
2674.00,100.00
2673.00,100.00
2672.00,100.00
2671.00,100.00
2670.00,100.00
2669.00,100.00
2668.00,100.00
2667.00,100.00
2666.00,100.00
2665.00,100.01
2664.00,100.01
2663.00,100.01
2662.00,100.01
2661.00,100.01
2660.00,100.01
2659.00,100.01
2658.00,100.01
2657.00,100.01
2656.00,100.01
2655.00,100.01
2654.00,100.01
2653.00,100.01
2652.00,100.01
2651.00,100.01
2650.00,100.01
2649.00,100.00
2648.00,100.00
2647.00,100.01
2646.00,100.00
2645.00,100.00
2644.00,100.00
2643.00,100.00
2642.00,100.00
2641.00,100.01
2640.00,100.01
2639.00,100.00
2638.00,100.00
2637.00,100.00
2636.00,100.00
2635.00,100.00
2634.00,100.00
2633.00,100.00
2632.00,100.00
2631.00,100.00
2630.00,100.01
2629.00,100.01
2628.00,100.01
2627.00,100.01
2626.00,100.00
2625.00,100.00
2624.00,100.00
2623.00,100.00
2622.00,100.00
2621.00,100.00
2620.00,100.00
2619.00,100.00
2618.00,100.00
2617.00,100.00
2616.00,100.00
2615.00,100.00
2614.00,100.00
2613.00,100.00
2612.00,100.00
2611.00,100.00
2610.00,100.00
2609.00,100.00
2608.00,100.00
2607.00,100.00
2606.00,100.01
2605.00,100.00
2604.00,100.00
2603.00,100.00
2602.00,100.00
2601.00,100.00
2600.00,100.00
2599.00,100.00
2598.00,100.00
2597.00,100.00
2596.00,100.00
2595.00,100.01
2594.00,100.00
2593.00,100.00
2592.00,100.00
2591.00,100.01
2590.00,100.01
2589.00,100.01
2588.00,100.00
2587.00,100.01
2586.00,100.01
2585.00,100.01
2584.00,100.01
2583.00,100.00
2582.00,100.00
2581.00,100.00
2580.00,100.00
2579.00,100.00
2578.00,100.00
2577.00,100.00
2576.00,100.01
2575.00,100.01
2574.00,100.01
2573.00,100.00
2572.00,100.00
2571.00,100.00
2570.00,100.01
2569.00,100.01
2568.00,100.00
2567.00,100.00
2566.00,100.01
2565.00,100.01
2564.00,100.01
2563.00,100.01
2562.00,100.01
2561.00,100.01
2560.00,100.00
2559.00,100.00
2558.00,100.00
2557.00,100.00
2556.00,100.00
2555.00,100.00
2554.00,100.00
2553.00,100.00
2552.00,100.00
2551.00,100.00
2550.00,100.00
2549.00,100.00
2548.00,100.00
2547.00,100.00
2546.00,100.00
2545.00,100.00
2544.00,100.00
2543.00,100.00
2542.00,100.00
2541.00,100.00
2540.00,100.00
2539.00,100.00
2538.00,100.00
2537.00,100.00
2536.00,100.00
2535.00,100.00
2534.00,100.01
2533.00,100.01
2532.00,100.01
2531.00,100.00
2530.00,100.00
2529.00,100.01
2528.00,100.01
2527.00,100.01
2526.00,100.01
2525.00,100.00
2524.00,100.00
2523.00,100.00
2522.00,100.00
2521.00,100.00
2520.00,100.00
2519.00,100.00
2518.00,100.00
2517.00,100.00
2516.00,100.00
2515.00,100.00
2514.00,100.00
2513.00,100.00
2512.00,100.00
2511.00,100.00
2510.00,100.00
2509.00,100.00
2508.00,100.00
2507.00,100.00
2506.00,100.01
2505.00,100.01
2504.00,100.01
2503.00,100.01
2502.00,100.01
2501.00,100.00
2500.00,100.00
2499.00,100.00
2498.00,100.00
2497.00,100.00
2496.00,100.00
2495.00,100.00
2494.00,100.00
2493.00,100.00
2492.00,100.00
2491.00,100.00
2490.00,100.00
2489.00,100.00
2488.00,100.00
2487.00,100.00
2486.00,100.00
2485.00,100.00
2484.00,100.00
2483.00,100.00
2482.00,100.00
2481.00,100.00
2480.00,100.00
2479.00,100.00
2478.00,100.00
2477.00,100.00
2476.00,100.00
2475.00,100.00
2474.00,100.00
2473.00,100.00
2472.00,100.00
2471.00,100.00
2470.00,100.00
2469.00,100.01
2468.00,100.01
2467.00,100.01
2466.00,100.00
2465.00,100.00
2464.00,100.00
2463.00,100.00
2462.00,100.00
2461.00,100.00
2460.00,100.00
2459.00,100.00
2458.00,100.00
2457.00,100.00
2456.00,100.00
2455.00,100.00
2454.00,100.00
2453.00,100.00
2452.00,100.00
2451.00,100.00
2450.00,100.00
2449.00,100.00
2448.00,100.00
2447.00,100.00
2446.00,100.00
2445.00,100.00
2444.00,100.00
2443.00,100.00
2442.00,100.00
2441.00,100.00
2440.00,100.00
2439.00,100.00
2438.00,100.00
2437.00,100.00
2436.00,100.01
2435.00,100.00
2434.00,100.00
2433.00,100.00
2432.00,100.00
2431.00,100.00
2430.00,100.00
2429.00,100.00
2428.00,100.00
2427.00,100.00
2426.00,100.00
2425.00,100.00
2424.00,100.00
2423.00,100.00
2422.00,100.00
2421.00,100.00
2420.00,100.00
2419.00,100.00
2418.00,100.00
2417.00,100.00
2416.00,100.01
2415.00,100.00
2414.00,100.00
2413.00,100.00
2412.00,100.00
2411.00,100.00
2410.00,100.00
2409.00,100.00
2408.00,100.00
2407.00,100.00
2406.00,100.00
2405.00,100.00
2404.00,100.00
2403.00,100.00
2402.00,100.00
2401.00,100.00
2400.00,100.00
2399.00,100.00
2398.00,100.00
2397.00,100.00
2396.00,100.00
2395.00,100.00
2394.00,100.00
2393.00,100.00
2392.00,100.00
2391.00,100.00
2390.00,100.00
2389.00,100.00
2388.00,100.00
2387.00,100.00
2386.00,100.00
2385.00,100.00
2384.00,100.00
2383.00,100.00
2382.00,100.00
2381.00,100.00
2380.00,100.00
2379.00,100.00
2378.00,100.00
2377.00,100.00
2376.00,100.00
2375.00,100.00
2374.00,100.00
2373.00,100.00
2372.00,100.00
2371.00,100.00
2370.00,100.00
2369.00,100.00
2368.00,100.00
2367.00,100.00
2366.00,100.00
2365.00,100.00
2364.00,100.00
2363.00,100.00
2362.00,100.00
2361.00,99.99
2360.00,99.99
2359.00,99.99
2358.00,99.99
2357.00,99.99
2356.00,99.99
2355.00,99.99
2354.00,99.99
2353.00,100.00
2352.00,100.00
2351.00,100.00
2350.00,100.00
2349.00,99.99
2348.00,99.99
2347.00,99.98
2346.00,99.99
2345.00,99.99
2344.00,100.00
2343.00,99.99
2342.00,99.99
2341.00,99.99
2340.00,99.99
2339.00,99.99
2338.00,99.99
2337.00,99.99
2336.00,99.99
2335.00,99.99
2334.00,99.99
2333.00,99.99
2332.00,99.99
2331.00,99.99
2330.00,99.99
2329.00,99.99
2328.00,99.99
2327.00,99.99
2326.00,99.99
2325.00,99.98
2324.00,99.99
2323.00,99.99
2322.00,99.99
2321.00,99.99
2320.00,99.99
2319.00,99.99
2318.00,99.99
2317.00,99.99
2316.00,99.99
2315.00,99.99
2314.00,99.99
2313.00,99.99
2312.00,99.99
2311.00,99.99
2310.00,99.99
2309.00,99.99
2308.00,99.99
2307.00,99.99
2306.00,99.99
2305.00,99.99
2304.00,99.99
2303.00,99.99
2302.00,99.99
2301.00,99.99
2300.00,99.99
2299.00,99.99
2298.00,99.99
2297.00,100.00
2296.00,100.00
2295.00,100.00
2294.00,100.00
2293.00,100.00
2292.00,100.00
2291.00,100.00
2290.00,100.00
2289.00,100.00
2288.00,100.00
2287.00,100.00
2286.00,100.00
2285.00,100.00
2284.00,100.00
2283.00,100.00
2282.00,100.00
2281.00,100.00
2280.00,100.00
2279.00,100.00
2278.00,100.00
2277.00,100.00
2276.00,100.00
2275.00,100.00
2274.00,100.00
2273.00,100.00
2272.00,100.00
2271.00,100.00
2270.00,100.00
2269.00,100.00
2268.00,100.00
2267.00,100.00
2266.00,100.00
2265.00,100.00
2264.00,100.00
2263.00,100.00
2262.00,100.00
2261.00,100.00
2260.00,100.00
2259.00,100.00
2258.00,100.00
2257.00,100.00
2256.00,100.00
2255.00,100.00
2254.00,100.00
2253.00,100.00
2252.00,100.00
2251.00,100.00
2250.00,100.00
2249.00,100.00
2248.00,100.00
2247.00,100.00
2246.00,100.00
2245.00,100.00
2244.00,100.00
2243.00,100.00
2242.00,100.00
2241.00,100.00
2240.00,100.00
2239.00,100.00
2238.00,100.00
2237.00,100.00
2236.00,100.00
2235.00,100.00
2234.00,100.00
2233.00,100.00
2232.00,100.00
2231.00,100.00
2230.00,100.00
2229.00,100.00
2228.00,100.00
2227.00,100.00
2226.00,100.00
2225.00,100.00
2224.00,100.00
2223.00,100.00
2222.00,100.00
2221.00,100.00
2220.00,100.00
2219.00,100.00
2218.00,100.00
2217.00,100.00
2216.00,100.00
2215.00,100.00
2214.00,100.00
2213.00,100.00
2212.00,100.00
2211.00,100.00
2210.00,100.00
2209.00,100.00
2208.00,100.00
2207.00,100.00
2206.00,100.00
2205.00,100.00
2204.00,100.00
2203.00,100.00
2202.00,100.00
2201.00,100.00
2200.00,100.00
2199.00,100.00
2198.00,100.00
2197.00,100.00
2196.00,100.00
2195.00,100.00
2194.00,100.00
2193.00,100.00
2192.00,100.00
2191.00,100.00
2190.00,100.00
2189.00,100.00
2188.00,100.00
2187.00,100.00
2186.00,100.00
2185.00,100.00
2184.00,100.00
2183.00,100.00
2182.00,99.99
2181.00,99.99
2180.00,99.99
2179.00,99.99
2178.00,100.00
2177.00,99.99
2176.00,99.99
2175.00,100.00
2174.00,100.00
2173.00,100.00
2172.00,100.00
2171.00,100.00
2170.00,100.00
2169.00,100.00
2168.00,100.00
2167.00,100.00
2166.00,100.00
2165.00,100.00
2164.00,100.00
2163.00,100.00
2162.00,100.00
2161.00,100.00
2160.00,100.00
2159.00,100.00
2158.00,100.00
2157.00,99.99
2156.00,99.99
2155.00,99.99
2154.00,99.99
2153.00,99.99
2152.00,99.99
2151.00,99.99
2150.00,99.99
2149.00,100.00
2148.00,100.00
2147.00,100.00
2146.00,99.99
2145.00,99.99
2144.00,99.99
2143.00,99.99
2142.00,100.00
2141.00,100.00
2140.00,100.00
2139.00,99.99
2138.00,99.99
2137.00,99.99
2136.00,99.99
2135.00,100.00
2134.00,100.00
2133.00,100.00
2132.00,100.00
2131.00,100.00
2130.00,99.99
2129.00,99.99
2128.00,99.99
2127.00,99.99
2126.00,100.00
2125.00,100.00
2124.00,100.00
2123.00,100.00
2122.00,100.00
2121.00,100.00
2120.00,100.00
2119.00,100.00
2118.00,99.99
2117.00,99.99
2116.00,99.99
2115.00,100.00
2114.00,100.00
2113.00,100.00
2112.00,100.00
2111.00,100.00
2110.00,100.00
2109.00,100.00
2108.00,100.00
2107.00,100.00
2106.00,100.00
2105.00,100.00
2104.00,100.00
2103.00,100.00
2102.00,100.00
2101.00,100.00
2100.00,100.00
2099.00,100.00
2098.00,100.00
2097.00,100.00
2096.00,100.00
2095.00,100.00
2094.00,99.99
2093.00,99.99
2092.00,99.99
2091.00,99.99
2090.00,99.99
2089.00,99.99
2088.00,99.99
2087.00,99.99
2086.00,99.99
2085.00,99.99
2084.00,99.99
2083.00,99.99
2082.00,99.99
2081.00,99.99
2080.00,99.99
2079.00,99.99
2078.00,99.99
2077.00,99.99
2076.00,100.00
2075.00,100.00
2074.00,100.00
2073.00,100.00
2072.00,100.00
2071.00,100.00
2070.00,100.00
2069.00,100.00
2068.00,100.00
2067.00,100.00
2066.00,100.00
2065.00,100.00
2064.00,100.00
2063.00,100.00
2062.00,100.00
2061.00,100.00
2060.00,100.00
2059.00,100.00
2058.00,100.00
2057.00,99.99
2056.00,99.99
2055.00,100.00
2054.00,100.00
2053.00,100.00
2052.00,100.00
2051.00,100.00
2050.00,100.00
2049.00,99.99
2048.00,99.99
2047.00,99.99
2046.00,100.00
2045.00,100.00
2044.00,100.00
2043.00,100.00
2042.00,100.00
2041.00,100.00
2040.00,100.00
2039.00,100.00
2038.00,100.00
2037.00,99.99
2036.00,99.99
2035.00,99.99
2034.00,100.00
2033.00,100.00
2032.00,100.00
2031.00,100.00
2030.00,100.00
2029.00,100.00
2028.00,100.00
2027.00,100.00
2026.00,100.00
2025.00,99.99
2024.00,99.99
2023.00,99.99
2022.00,99.99
2021.00,99.99
2020.00,99.99
2019.00,99.99
2018.00,99.99
2017.00,99.99
2016.00,100.00
2015.00,99.99
2014.00,99.99
2013.00,99.99
2012.00,99.99
2011.00,100.00
2010.00,100.00
2009.00,100.00
2008.00,100.00
2007.00,100.00
2006.00,100.00
2005.00,100.00
2004.00,100.00
2003.00,99.99
2002.00,99.99
2001.00,99.99
2000.00,99.99
1999.00,99.99
1998.00,99.99
1997.00,99.99
1996.00,100.00
1995.00,100.00
1994.00,100.00
1993.00,99.99
1992.00,99.99
1991.00,99.99
1990.00,100.00
1989.00,100.00
1988.00,100.00
1987.00,100.00
1986.00,100.00
1985.00,100.00
1984.00,100.00
1983.00,100.00
1982.00,100.00
1981.00,99.99
1980.00,99.99
1979.00,99.99
1978.00,99.99
1977.00,99.99
1976.00,99.99
1975.00,99.99
1974.00,99.99
1973.00,99.99
1972.00,99.99
1971.00,99.99
1970.00,99.99
1969.00,99.99
1968.00,100.00
1967.00,100.00
1966.00,99.99
1965.00,99.99
1964.00,99.99
1963.00,99.99
1962.00,99.99
1961.00,99.99
1960.00,99.99
1959.00,99.99
1958.00,99.99
1957.00,100.00
1956.00,100.00
1955.00,100.00
1954.00,99.99
1953.00,99.99
1952.00,99.99
1951.00,99.99
1950.00,99.99
1949.00,99.99
1948.00,99.99
1947.00,99.99
1946.00,99.99
1945.00,99.99
1944.00,99.99
1943.00,99.99
1942.00,99.99
1941.00,99.99
1940.00,99.99
1939.00,99.99
1938.00,99.99
1937.00,99.99
1936.00,99.99
1935.00,99.99
1934.00,100.00
1933.00,100.00
1932.00,100.00
1931.00,99.99
1930.00,99.99
1929.00,99.99
1928.00,99.99
1927.00,100.00
1926.00,100.00
1925.00,100.00
1924.00,100.00
1923.00,99.99
1922.00,99.99
1921.00,99.99
1920.00,99.99
1919.00,99.99
1918.00,99.99
1917.00,99.99
1916.00,99.99
1915.00,99.99
1914.00,100.00
1913.00,100.00
1912.00,99.99
1911.00,99.99
1910.00,99.99
1909.00,99.99
1908.00,100.00
1907.00,99.99
1906.00,99.99
1905.00,99.99
1904.00,99.99
1903.00,99.99
1902.00,99.99
1901.00,99.99
1900.00,99.99
1899.00,99.99
1898.00,99.99
1897.00,99.99
1896.00,99.99
1895.00,99.99
1894.00,99.99
1893.00,99.99
1892.00,99.99
1891.00,99.99
1890.00,99.99
1889.00,99.99
1888.00,99.99
1887.00,99.99
1886.00,99.99
1885.00,99.99
1884.00,99.99
1883.00,99.99
1882.00,99.99
1881.00,99.99
1880.00,99.99
1879.00,99.99
1878.00,99.99
1877.00,99.99
1876.00,99.99
1875.00,99.99
1874.00,99.99
1873.00,99.99
1872.00,99.99
1871.00,99.99
1870.00,99.99
1869.00,99.99
1868.00,99.99
1867.00,99.99
1866.00,99.99
1865.00,99.99
1864.00,99.99
1863.00,99.99
1862.00,99.99
1861.00,100.00
1860.00,100.00
1859.00,99.99
1858.00,99.99
1857.00,99.99
1856.00,99.99
1855.00,100.00
1854.00,99.99
1853.00,99.99
1852.00,99.99
1851.00,99.99
1850.00,99.99
1849.00,99.99
1848.00,99.99
1847.00,99.99
1846.00,99.99
1845.00,99.99
1844.00,99.99
1843.00,99.99
1842.00,99.99
1841.00,99.99
1840.00,99.99
1839.00,99.99
1838.00,99.99
1837.00,99.99
1836.00,99.99
1835.00,99.99
1834.00,99.99
1833.00,99.99
1832.00,99.99
1831.00,99.99
1830.00,99.99
1829.00,99.99
1828.00,99.99
1827.00,99.99
1826.00,99.99
1825.00,99.99
1824.00,99.99
1823.00,99.99
1822.00,99.99
1821.00,99.99
1820.00,99.99
1819.00,99.99
1818.00,99.99
1817.00,99.99
1816.00,99.99
1815.00,99.99
1814.00,99.99
1813.00,99.99
1812.00,99.99
1811.00,99.99
1810.00,99.99
1809.00,99.99
1808.00,99.99
1807.00,99.99
1806.00,99.99
1805.00,99.99
1804.00,99.99
1803.00,99.99
1802.00,99.99
1801.00,99.99
1800.00,99.99
1799.00,99.99
1798.00,99.99
1797.00,100.00
1796.00,100.00
1795.00,100.00
1794.00,99.99
1793.00,99.99
1792.00,99.99
1791.00,99.99
1790.00,99.99
1789.00,99.99
1788.00,99.99
1787.00,99.99
1786.00,99.99
1785.00,99.99
1784.00,99.99
1783.00,99.99
1782.00,99.99
1781.00,99.99
1780.00,99.99
1779.00,99.99
1778.00,99.99
1777.00,99.99
1776.00,99.99
1775.00,99.99
1774.00,99.99
1773.00,99.99
1772.00,99.99
1771.00,99.99
1770.00,99.99
1769.00,99.99
1768.00,99.99
1767.00,99.99
1766.00,99.99
1765.00,99.99
1764.00,99.99
1763.00,99.99
1762.00,99.99
1761.00,99.99
1760.00,99.99
1759.00,99.99
1758.00,99.99
1757.00,99.99
1756.00,99.99
1755.00,99.99
1754.00,99.99
1753.00,99.99
1752.00,99.98
1751.00,99.99
1750.00,99.99
1749.00,99.99
1748.00,99.99
1747.00,99.99
1746.00,99.99
1745.00,99.99
1744.00,99.99
1743.00,99.99
1742.00,99.99
1741.00,100.00
1740.00,100.00
1739.00,100.00
1738.00,100.00
1737.00,99.99
1736.00,99.99
1735.00,99.99
1734.00,99.99
1733.00,99.99
1732.00,99.99
1731.00,99.99
1730.00,99.99
1729.00,99.99
1728.00,99.99
1727.00,99.99
1726.00,99.99
1725.00,99.99
1724.00,99.99
1723.00,99.99
1722.00,99.99
1721.00,99.99
1720.00,99.99
1719.00,99.99
1718.00,99.99
1717.00,99.99
1716.00,99.99
1715.00,99.99
1714.00,99.99
1713.00,99.99
1712.00,99.99
1711.00,99.99
1710.00,99.99
1709.00,99.99
1708.00,99.99
1707.00,99.99
1706.00,99.99
1705.00,99.99
1704.00,99.99
1703.00,99.99
1702.00,99.99
1701.00,99.99
1700.00,99.99
1699.00,99.99
1698.00,99.99
1697.00,99.99
1696.00,99.99
1695.00,99.99
1694.00,99.99
1693.00,99.99
1692.00,99.99
1691.00,99.99
1690.00,99.99
1689.00,99.99
1688.00,99.99
1687.00,99.99
1686.00,99.99
1685.00,99.99
1684.00,99.99
1683.00,99.99
1682.00,99.99
1681.00,99.99
1680.00,99.99
1679.00,99.99
1678.00,99.99
1677.00,99.99
1676.00,99.99
1675.00,99.99
1674.00,99.99
1673.00,99.99
1672.00,99.99
1671.00,99.99
1670.00,99.99
1669.00,99.99
1668.00,99.99
1667.00,99.99
1666.00,99.99
1665.00,99.99
1664.00,99.99
1663.00,99.99
1662.00,99.99
1661.00,99.99
1660.00,99.99
1659.00,99.99
1658.00,99.99
1657.00,99.99
1656.00,99.99
1655.00,99.99
1654.00,99.99
1653.00,99.99
1652.00,99.99
1651.00,99.99
1650.00,99.99
1649.00,99.99
1648.00,99.99
1647.00,99.99
1646.00,99.99
1645.00,99.99
1644.00,99.99
1643.00,99.99
1642.00,99.99
1641.00,99.99
1640.00,99.99
1639.00,99.99
1638.00,99.99
1637.00,99.99
1636.00,99.99
1635.00,99.99
1634.00,99.99
1633.00,99.99
1632.00,99.99
1631.00,99.99
1630.00,99.99
1629.00,99.99
1628.00,99.99
1627.00,99.99
1626.00,99.99
1625.00,99.99
1624.00,99.99
1623.00,99.99
1622.00,100.00
1621.00,99.99
1620.00,99.99
1619.00,99.99
1618.00,100.00
1617.00,100.00
1616.00,100.00
1615.00,99.99
1614.00,99.99
1613.00,99.99
1612.00,99.99
1611.00,99.99
1610.00,99.99
1609.00,99.99
1608.00,99.99
1607.00,100.00
1606.00,100.00
1605.00,100.00
1604.00,99.99
1603.00,99.99
1602.00,99.99
1601.00,99.99
1600.00,99.99
1599.00,99.99
1598.00,99.99
1597.00,99.99
1596.00,100.00
1595.00,99.99
1594.00,99.99
1593.00,99.99
1592.00,99.99
1591.00,99.99
1590.00,99.99
1589.00,99.99
1588.00,99.99
1587.00,99.99
1586.00,99.99
1585.00,99.99
1584.00,99.99
1583.00,99.99
1582.00,99.99
1581.00,99.99
1580.00,99.99
1579.00,99.99
1578.00,99.99
1577.00,99.99
1576.00,99.99
1575.00,99.99
1574.00,99.99
1573.00,99.99
1572.00,99.99
1571.00,99.99
1570.00,99.99
1569.00,99.99
1568.00,99.99
1567.00,99.99
1566.00,99.99
1565.00,99.99
1564.00,99.99
1563.00,99.99
1562.00,99.99
1561.00,99.99
1560.00,99.99
1559.00,99.99
1558.00,99.99
1557.00,99.99
1556.00,99.98
1555.00,99.98
1554.00,99.98
1553.00,99.98
1552.00,99.99
1551.00,99.99
1550.00,99.99
1549.00,99.99
1548.00,99.99
1547.00,99.99
1546.00,99.99
1545.00,99.99
1544.00,99.99
1543.00,99.98
1542.00,99.98
1541.00,99.98
1540.00,99.99
1539.00,99.99
1538.00,99.99
1537.00,99.99
1536.00,99.99
1535.00,99.98
1534.00,99.98
1533.00,99.99
1532.00,99.99
1531.00,99.99
1530.00,99.99
1529.00,99.99
1528.00,99.99
1527.00,99.99
1526.00,99.99
1525.00,99.99
1524.00,99.99
1523.00,99.99
1522.00,99.99
1521.00,99.99
1520.00,99.99
1519.00,99.99
1518.00,99.99
1517.00,99.99
1516.00,99.99
1515.00,99.98
1514.00,99.98
1513.00,99.99
1512.00,99.99
1511.00,99.99
1510.00,99.99
1509.00,99.99
1508.00,99.99
1507.00,99.99
1506.00,99.99
1505.00,99.99
1504.00,99.99
1503.00,99.99
1502.00,99.99
1501.00,99.99
1500.00,99.99
1499.00,99.99
1498.00,100.00
1497.00,99.99
1496.00,99.99
1495.00,99.99
1494.00,99.99
1493.00,99.99
1492.00,100.00
1491.00,99.99
1490.00,99.99
1489.00,99.99
1488.00,99.99
1487.00,99.99
1486.00,99.99
1485.00,99.99
1484.00,99.99
1483.00,99.99
1482.00,99.99
1481.00,99.99
1480.00,99.99
1479.00,99.99
1478.00,99.99
1477.00,99.99
1476.00,99.99
1475.00,99.99
1474.00,99.99
1473.00,99.99
1472.00,99.99
1471.00,99.99
1470.00,99.99
1469.00,99.99
1468.00,99.99
1467.00,99.99
1466.00,99.99
1465.00,99.99
1464.00,99.99
1463.00,99.99
1462.00,99.99
1461.00,99.99
1460.00,99.99
1459.00,99.99
1458.00,99.99
1457.00,99.99
1456.00,99.99
1455.00,99.99
1454.00,99.99
1453.00,99.99
1452.00,99.99
1451.00,99.99
1450.00,99.99
1449.00,99.99
1448.00,99.99
1447.00,99.99
1446.00,99.99
1445.00,99.99
1444.00,100.00
1443.00,100.00
1442.00,100.00
1441.00,100.00
1440.00,99.99
1439.00,99.99
1438.00,99.99
1437.00,99.99
1436.00,99.99
1435.00,99.99
1434.00,99.99
1433.00,99.99
1432.00,99.99
1431.00,99.99
1430.00,99.99
1429.00,99.99
1428.00,99.99
1427.00,99.99
1426.00,99.99
1425.00,99.99
1424.00,99.99
1423.00,99.99
1422.00,99.99
1421.00,99.99
1420.00,99.99
1419.00,99.99
1418.00,99.99
1417.00,99.99
1416.00,99.99
1415.00,99.99
1414.00,99.99
1413.00,99.99
1412.00,99.99
1411.00,99.99
1410.00,99.99
1409.00,99.99
1408.00,99.99
1407.00,99.99
1406.00,99.99
1405.00,99.99
1404.00,99.99
1403.00,99.99
1402.00,99.99
1401.00,99.99
1400.00,99.99
1399.00,99.99
1398.00,99.99
1397.00,99.99
1396.00,99.99
1395.00,99.99
1394.00,99.99
1393.00,99.99
1392.00,99.99
1391.00,99.99
1390.00,99.99
1389.00,99.99
1388.00,99.99
1387.00,99.99
1386.00,99.99
1385.00,99.99
1384.00,99.99
1383.00,99.99
1382.00,99.99
1381.00,99.99
1380.00,99.99
1379.00,99.99
1378.00,99.99
1377.00,99.99
1376.00,99.99
1375.00,99.99
1374.00,99.99
1373.00,99.99
1372.00,100.00
1371.00,100.00
1370.00,99.99
1369.00,99.99
1368.00,99.99
1367.00,99.99
1366.00,99.99
1365.00,99.99
1364.00,99.99
1363.00,99.99
1362.00,99.99
1361.00,99.99
1360.00,99.99
1359.00,99.99
1358.00,99.99
1357.00,99.99
1356.00,99.99
1355.00,99.99
1354.00,99.99
1353.00,99.99
1352.00,99.99
1351.00,99.99
1350.00,99.99
1349.00,99.99
1348.00,99.99
1347.00,100.00
1346.00,100.00
1345.00,100.00
1344.00,99.99
1343.00,99.99
1342.00,99.99
1341.00,99.99
1340.00,99.99
1339.00,99.99
1338.00,99.99
1337.00,99.99
1336.00,99.99
1335.00,99.99
1334.00,99.99
1333.00,99.99
1332.00,99.99
1331.00,100.00
1330.00,100.00
1329.00,100.00
1328.00,100.00
1327.00,99.99
1326.00,99.99
1325.00,99.99
1324.00,99.99
1323.00,100.00
1322.00,100.00
1321.00,99.99
1320.00,99.99
1319.00,99.99
1318.00,99.99
1317.00,99.99
1316.00,99.99
1315.00,99.99
1314.00,99.99
1313.00,100.00
1312.00,100.00
1311.00,100.00
1310.00,100.00
1309.00,100.00
1308.00,100.00
1307.00,100.00
1306.00,100.00
1305.00,99.99
1304.00,99.99
1303.00,99.99
1302.00,100.00
1301.00,100.00
1300.00,100.00
1299.00,100.00
1298.00,100.00
1297.00,100.00
1296.00,100.00
1295.00,100.00
1294.00,100.00
1293.00,99.99
1292.00,99.99
1291.00,100.00
1290.00,100.00
1289.00,100.00
1288.00,100.00
1287.00,100.00
1286.00,100.00
1285.00,100.00
1284.00,100.00
1283.00,100.00
1282.00,100.00
1281.00,100.00
1280.00,100.00
1279.00,100.00
1278.00,100.00
1277.00,99.99
1276.00,99.99
1275.00,99.99
1274.00,99.99
1273.00,100.00
1272.00,100.00
1271.00,100.00
1270.00,100.00
1269.00,100.00
1268.00,100.00
1267.00,100.00
1266.00,100.00
1265.00,100.00
1264.00,100.00
1263.00,100.00
1262.00,99.99
1261.00,99.99
1260.00,99.99
1259.00,100.00
1258.00,100.00
1257.00,100.00
1256.00,100.00
1255.00,100.00
1254.00,100.00
1253.00,100.00
1252.00,100.00
1251.00,100.00
1250.00,100.00
1249.00,100.00
1248.00,100.00
1247.00,100.00
1246.00,100.00
1245.00,100.00
1244.00,100.00
1243.00,100.00
1242.00,99.99
1241.00,99.99
1240.00,99.99
1239.00,100.00
1238.00,100.00
1237.00,100.00
1236.00,100.00
1235.00,99.99
1234.00,99.99
1233.00,100.00
1232.00,100.00
1231.00,100.00
1230.00,100.00
1229.00,100.00
1228.00,100.00
1227.00,100.00
1226.00,100.00
1225.00,99.99
1224.00,99.99
1223.00,99.99
1222.00,99.99
1221.00,99.99
1220.00,99.99
1219.00,99.99
1218.00,99.99
1217.00,100.00
1216.00,100.00
1215.00,100.00
1214.00,100.00
1213.00,100.00
1212.00,100.00
1211.00,100.00
1210.00,100.00
1209.00,100.00
1208.00,100.00
1207.00,100.00
1206.00,100.00
1205.00,100.00
1204.00,100.00
1203.00,100.00
1202.00,100.00
1201.00,100.00
1200.00,100.00
1199.00,100.00
1198.00,100.00
1197.00,100.00
1196.00,100.00
1195.00,100.00
1194.00,100.00
1193.00,100.00
1192.00,100.00
1191.00,100.00
1190.00,100.00
1189.00,100.00
1188.00,100.00
1187.00,100.00
1186.00,100.00
1185.00,100.00
1184.00,100.00
1183.00,100.00
1182.00,100.00
1181.00,100.00
1180.00,100.00
1179.00,100.00
1178.00,100.00
1177.00,100.01
1176.00,100.00
1175.00,100.00
1174.00,100.00
1173.00,100.00
1172.00,100.00
1171.00,100.00
1170.00,100.00
1169.00,100.00
1168.00,100.00
1167.00,100.00
1166.00,100.00
1165.00,100.00
1164.00,100.00
1163.00,100.00
1162.00,100.00
1161.00,100.00
1160.00,100.00
1159.00,100.00
1158.00,100.00
1157.00,100.00
1156.00,100.00
1155.00,100.00
1154.00,100.00
1153.00,100.00
1152.00,100.01
1151.00,100.01
1150.00,100.00
1149.00,100.00
1148.00,100.00
1147.00,100.00
1146.00,100.00
1145.00,100.00
1144.00,100.00
1143.00,100.00
1142.00,100.00
1141.00,100.00
1140.00,100.00
1139.00,100.00
1138.00,100.00
1137.00,100.00
1136.00,100.00
1135.00,100.00
1134.00,100.00
1133.00,100.00
1132.00,100.00
1131.00,100.00
1130.00,100.00
1129.00,100.00
1128.00,100.00
1127.00,100.00
1126.00,99.99
1125.00,99.99
1124.00,99.99
1123.00,99.99
1122.00,99.99
1121.00,100.00
1120.00,100.00
1119.00,100.01
1118.00,100.01
1117.00,100.01
1116.00,100.00
1115.00,100.00
1114.00,100.00
1113.00,100.00
1112.00,100.00
1111.00,100.00
1110.00,100.00
1109.00,100.00
1108.00,100.00
1107.00,100.00
1106.00,100.00
1105.00,100.00
1104.00,100.00
1103.00,100.00
1102.00,100.00
1101.00,100.00
1100.00,100.00
1099.00,100.00
1098.00,100.00
1097.00,100.00
1096.00,100.00
1095.00,100.00
1094.00,100.00
1093.00,100.00
1092.00,100.00
1091.00,100.00
1090.00,100.00
1089.00,100.00
1088.00,100.00
1087.00,100.00
1086.00,100.00
1085.00,100.01
1084.00,100.01
1083.00,100.01
1082.00,100.01
1081.00,100.01
1080.00,100.01
1079.00,100.00
1078.00,100.00
1077.00,100.00
1076.00,100.00
1075.00,100.00
1074.00,100.00
1073.00,100.00
1072.00,100.00
1071.00,100.00
1070.00,100.00
1069.00,100.00
1068.00,100.00
1067.00,100.00
1066.00,100.00
1065.00,100.00
1064.00,99.99
1063.00,99.99
1062.00,99.99
1061.00,100.00
1060.00,100.00
1059.00,100.00
1058.00,100.00
1057.00,100.00
1056.00,100.00
1055.00,100.00
1054.00,100.00
1053.00,100.00
1052.00,100.00
1051.00,100.00
1050.00,100.00
1049.00,100.00
1048.00,100.00
1047.00,99.99
1046.00,99.99
1045.00,99.99
1044.00,99.99
1043.00,99.99
1042.00,99.99
1041.00,99.99
1040.00,99.99
1039.00,99.99
1038.00,99.99
1037.00,99.99
1036.00,99.99
1035.00,100.00
1034.00,100.00
1033.00,100.00
1032.00,100.00
1031.00,100.00
1030.00,100.00
1029.00,100.00
1028.00,100.00
1027.00,100.00
1026.00,100.00
1025.00,100.00
1024.00,100.00
1023.00,100.00
1022.00,100.00
1021.00,100.00
1020.00,100.00
1019.00,100.00
1018.00,100.00
1017.00,100.00
1016.00,100.00
1015.00,100.00
1014.00,99.99
1013.00,99.99
1012.00,99.99
1011.00,99.99
1010.00,99.99
1009.00,99.99
1008.00,99.99
1007.00,99.99
1006.00,99.99
1005.00,99.99
1004.00,99.99
1003.00,99.99
1002.00,99.99
1001.00,99.99
1000.00,99.99
999.00,99.99
998.00,99.99
997.00,99.99
996.00,99.99
995.00,99.99
994.00,99.99
993.00,99.99
992.00,99.99
991.00,99.99
990.00,100.00
989.00,99.99
988.00,99.99
987.00,99.99
986.00,99.99
985.00,99.99
984.00,99.99
983.00,99.99
982.00,99.99
981.00,99.99
980.00,99.99
979.00,99.99
978.00,99.99
977.00,99.99
976.00,99.99
975.00,99.99
974.00,99.99
973.00,99.99
972.00,99.99
971.00,99.99
970.00,100.00
969.00,99.99
968.00,99.99
967.00,99.99
966.00,99.99
965.00,99.99
964.00,99.99
963.00,99.99
962.00,100.00
961.00,100.00
960.00,100.00
959.00,100.00
958.00,100.00
957.00,100.00
956.00,100.00
955.00,100.00
954.00,100.00
953.00,100.00
952.00,100.00
951.00,100.00
950.00,99.99
949.00,99.99
948.00,99.99
947.00,99.99
946.00,99.99
945.00,100.00
944.00,100.00
943.00,100.00
942.00,100.00
941.00,99.99
940.00,99.99
939.00,99.99
938.00,99.99
937.00,99.99
936.00,100.00
935.00,100.00
934.00,100.00
933.00,100.00
932.00,100.00
931.00,100.00
930.00,99.99
929.00,99.99
928.00,99.99
927.00,99.99
926.00,99.99
925.00,99.99
924.00,99.99
923.00,100.00
922.00,100.00
921.00,100.00
920.00,100.00
919.00,100.00
918.00,100.00
917.00,99.99
916.00,99.99
915.00,100.00
914.00,100.00
913.00,100.00
912.00,100.00
911.00,100.00
910.00,100.00
909.00,100.00
908.00,100.00
907.00,100.00
906.00,99.99
905.00,99.99
904.00,99.99
903.00,99.99
902.00,99.99
901.00,99.99
900.00,99.99
899.00,100.00
898.00,99.99
897.00,99.99
896.00,99.99
895.00,99.99
894.00,100.00
893.00,100.00
892.00,100.00
891.00,100.00
890.00,100.00
889.00,100.01
888.00,100.01
887.00,100.01
886.00,100.00
885.00,100.00
884.00,100.00
883.00,100.00
882.00,100.00
881.00,99.99
880.00,99.99
879.00,99.99
878.00,99.99
877.00,99.99
876.00,99.99
875.00,99.99
874.00,99.99
873.00,99.99
872.00,99.99
871.00,100.00
870.00,100.00
869.00,100.00
868.00,100.00
867.00,100.00
866.00,100.00
865.00,100.00
864.00,99.99
863.00,99.99
862.00,99.99
861.00,99.99
860.00,99.99
859.00,99.99
858.00,99.99
857.00,99.99
856.00,99.99
855.00,99.99
854.00,100.00
853.00,100.00
852.00,100.00
851.00,100.00
850.00,100.00
849.00,100.00
848.00,100.00
847.00,100.00
846.00,100.00
845.00,100.00
844.00,100.00
843.00,100.00
842.00,100.00
841.00,100.00
840.00,100.00
839.00,99.99
838.00,99.99
837.00,99.99
836.00,99.99
835.00,99.99
834.00,99.99
833.00,99.99
832.00,99.99
831.00,99.99
830.00,99.99
829.00,99.99
828.00,99.99
827.00,99.99
826.00,99.99
825.00,99.99
824.00,99.99
823.00,100.00
822.00,100.00
821.00,100.00
820.00,100.00
819.00,100.00
818.00,100.00
817.00,100.00
816.00,100.00
815.00,100.00
814.00,100.00
813.00,100.01
812.00,100.01
811.00,100.00
810.00,100.00
809.00,100.00
808.00,100.00
807.00,100.00
806.00,100.00
805.00,100.00
804.00,100.00
803.00,100.00
802.00,100.00
801.00,100.00
800.00,100.00
799.00,100.00
798.00,99.99
797.00,99.99
796.00,99.99
795.00,99.99
794.00,99.99
793.00,100.00
792.00,100.00
791.00,100.00
790.00,100.00
789.00,100.00
788.00,99.99
787.00,99.99
786.00,99.99
785.00,99.99
784.00,99.99
783.00,99.99
782.00,99.99
781.00,99.99
780.00,99.99
779.00,99.99
778.00,99.99
777.00,99.99
776.00,99.99
775.00,100.00
774.00,100.00
773.00,100.00
772.00,100.00
771.00,100.00
770.00,100.00
769.00,100.00
768.00,100.00
767.00,100.00
766.00,100.00
765.00,100.00
764.00,100.00
763.00,100.00
762.00,99.99
761.00,99.99
760.00,100.00
759.00,100.00
758.00,100.00
757.00,100.00
756.00,99.99
755.00,99.99
754.00,99.99
753.00,99.99
752.00,99.99
751.00,100.00
750.00,99.99
749.00,99.99
748.00,100.00
747.00,100.00
746.00,100.01
745.00,100.01
744.00,100.01
743.00,100.01
742.00,100.00
741.00,99.99
740.00,99.99
739.00,99.99
738.00,99.99
737.00,99.99
736.00,100.00
735.00,100.00
734.00,100.00
733.00,100.00
732.00,99.99
731.00,99.99
730.00,99.99
729.00,99.98
728.00,99.98
727.00,99.99
726.00,99.99
725.00,99.99
724.00,100.00
723.00,100.00
722.00,99.99
721.00,99.99
720.00,99.99
719.00,99.99
718.00,99.99
717.00,100.00
716.00,100.00
715.00,100.00
714.00,100.00
713.00,100.00
712.00,100.00
711.00,100.01
710.00,100.01
709.00,100.01
708.00,100.01
707.00,100.01
706.00,100.00
705.00,100.01
704.00,100.01
703.00,100.01
702.00,100.01
701.00,100.00
700.00,100.00
699.00,100.00
698.00,100.00
697.00,100.00
696.00,100.00
695.00,100.00
694.00,100.00
693.00,100.00
692.00,100.00
691.00,99.99
690.00,99.99
689.00,99.99
688.00,99.99
687.00,100.00
686.00,100.00
685.00,100.01
684.00,100.02
683.00,100.02
682.00,100.02
681.00,100.02
680.00,100.02
679.00,100.01
678.00,100.00
677.00,100.00
676.00,100.00
675.00,100.00
674.00,100.00
673.00,100.00
672.00,100.01
671.00,100.01
670.00,100.02
669.00,100.04
668.00,100.06
667.00,100.06
666.00,100.05
665.00,100.03
664.00,100.02
663.00,100.01
662.00,100.00
661.00,100.00
660.00,100.00
659.00,99.99
658.00,99.99
657.00,100.00
656.00,100.01
655.00,100.02
654.00,100.02
653.00,100.02
652.00,100.01
651.00,100.01
650.00,100.01
649.00,100.00
648.00,100.00
647.00,100.00
646.00,100.01
645.00,100.01
644.00,100.02
643.00,100.01
642.00,100.01
641.00,100.00
640.00,100.00
639.00,100.00
638.00,100.00
637.00,100.01
636.00,100.01
635.00,100.01
634.00,100.02
633.00,100.02
632.00,100.01
631.00,100.01
630.00,100.01
629.00,100.00
628.00,100.00
627.00,99.99
626.00,99.99
625.00,99.99
624.00,99.99
623.00,99.99
622.00,100.00
621.00,100.01
620.00,100.01
619.00,100.01
618.00,100.01
617.00,100.01
616.00,100.00
615.00,100.00
614.00,100.01
613.00,100.01
612.00,100.01
611.00,100.00
610.00,100.01
609.00,100.01
608.00,100.02
607.00,100.03
606.00,100.03
605.00,100.03
604.00,100.03
603.00,100.02
602.00,100.02
601.00,100.01
600.00,100.01
599.00,100.01
598.00,100.00
597.00,100.01
596.00,100.02
595.00,100.03
594.00,100.04
593.00,100.03
592.00,100.01
591.00,100.00
590.00,100.00
589.00,100.01
588.00,100.02
587.00,100.02
586.00,100.01
585.00,100.00
584.00,100.00
583.00,100.01
582.00,100.01
581.00,100.01
580.00,100.01
579.00,100.00
578.00,100.00
577.00,100.01
576.00,100.01
575.00,100.01
574.00,100.01
573.00,100.02
572.00,100.02
571.00,100.01
570.00,100.00
569.00,100.00
568.00,99.99
567.00,100.00
566.00,100.01
565.00,100.02
564.00,100.03
563.00,100.03
562.00,100.04
561.00,100.03
560.00,100.03
559.00,100.02
558.00,100.03
557.00,100.03
556.00,100.02
555.00,100.01
554.00,100.00
553.00,100.00
552.00,99.99
551.00,99.99
550.00,99.98
549.00,99.97
548.00,99.98
547.00,99.99
546.00,100.00
545.00,100.01
544.00,100.01
543.00,100.01
542.00,100.00
541.00,100.01
540.00,100.02
539.00,100.02
538.00,100.02
537.00,100.02
536.00,100.01
535.00,100.02
534.00,100.02
533.00,100.02
532.00,100.02
531.00,100.02
530.00,100.02
529.00,100.01
528.00,100.01
527.00,100.00
526.00,100.00
525.00,100.00
524.00,100.00
523.00,100.01
522.00,100.02
521.00,100.03
520.00,100.03
519.00,100.03
518.00,100.02
517.00,100.02
516.00,100.01
515.00,100.01
514.00,100.00
513.00,100.00
512.00,100.01
511.00,100.01
510.00,100.02
509.00,100.03
508.00,100.04
507.00,100.04
506.00,100.03
505.00,100.02
504.00,100.01
503.00,100.01
502.00,100.01
501.00,100.02
500.00,100.03
