3996.73391,0.00089
3994.67373,0.00106
3992.61356,0.00096
3990.55339,0.00072
3988.49322,0.00057
3986.43305,0.00043
3984.37287,0.00016
3982.31270,0.00000
3980.25253,0.00022
3978.19236,0.00055
3976.13219,0.00068
3974.07201,0.00075
3972.01184,0.00074
3969.95167,0.00069
3967.89150,0.00080
3965.83133,0.00083
3963.77115,0.00051
3961.71098,0.00013
3959.65081,0.00022
3957.59064,0.00070
3955.53046,0.00106
3953.47029,0.00112
3951.41012,0.00095
3949.34995,0.00068
3947.28978,0.00055
3945.22960,0.00062
3943.16943,0.00076
3941.10926,0.00083
3939.04909,0.00069
3936.98892,0.00043
3934.92874,0.00043
3932.86857,0.00080
3930.80840,0.00132
3928.74823,0.00161
3926.68805,0.00150
3924.62788,0.00106
3922.56771,0.00042
3920.50754,0.00000
3918.44737,0.00005
3916.38719,0.00031
3914.32702,0.00044
3912.26685,0.00042
3910.20668,0.00033
3908.14651,0.00036
3906.08633,0.00067
3904.02616,0.00078
3901.96599,0.00033
3899.90582,0.00018
3897.84565,0.00074
3895.78547,0.00107
3893.72530,0.00063
3891.66513,0.00000
3889.60496,0.00014
3887.54478,0.00104
3885.48461,0.00178
3883.42444,0.00188
3881.36427,0.00153
3879.30410,0.00093
3877.24392,0.00043
3875.18375,0.00041
3873.12358,0.00076
3871.06341,0.00096
3869.00324,0.00091
3866.94306,0.00108
3864.88289,0.00150
3862.82272,0.00167
3860.76255,0.00145
3858.70237,0.00107
3856.64220,0.00068
3854.58203,0.00037
3852.52186,0.00041
3850.46169,0.00091
3848.40151,0.00134
3846.34134,0.00128
3844.28117,0.00080
3842.22100,0.00049
3840.16083,0.00062
3838.10065,0.00068
3836.04048,0.00039
3833.98031,0.00023
3831.92014,0.00044
3829.85997,0.00075
3827.79979,0.00087
3825.73962,0.00077
3823.67945,0.00075
3821.61928,0.00094
3819.55910,0.00117
3817.49893,0.00135
3815.43876,0.00123
3813.37859,0.00062
3811.31842,0.00022
3809.25824,0.00056
3807.19807,0.00127
3805.13790,0.00155
3803.07773,0.00123
3801.01756,0.00081
3798.95738,0.00052
3796.89721,0.00035
3794.83704,0.00035
3792.77687,0.00045
3790.71670,0.00058
3788.65652,0.00057
3786.59635,0.00043
3784.53618,0.00039
3782.47601,0.00043
3780.41583,0.00038
3778.35566,0.00031
3776.29549,0.00042
3774.23532,0.00064
3772.17515,0.00089
3770.11497,0.00117
3768.05480,0.00119
3765.99463,0.00084
3763.93446,0.00065
3761.87429,0.00099
3759.81411,0.00130
3757.75394,0.00106
3755.69377,0.00088
3753.63360,0.00122
3751.57342,0.00166
3749.51325,0.00197
3747.45308,0.00219
3745.39291,0.00225
3743.33274,0.00222
3741.27256,0.00199
3739.21239,0.00153
3737.15222,0.00133
3735.09205,0.00182
3733.03188,0.00216
3730.97170,0.00174
3728.91153,0.00127
3726.85136,0.00095
3724.79119,0.00044
3722.73102,0.00014
3720.67084,0.00036
3718.61067,0.00074
3716.55050,0.00086
3714.49033,0.00100
3712.43015,0.00143
3710.36998,0.00158
3708.30981,0.00126
3706.24964,0.00096
3704.18947,0.00099
3702.12929,0.00102
3700.06912,0.00064
3698.00895,0.00013
3695.94878,0.00007
3693.88861,0.00068
3691.82843,0.00145
3689.76826,0.00194
3687.70809,0.00199
3685.64792,0.00161
3683.58775,0.00111
3681.52757,0.00096
3679.46740,0.00124
3677.40723,0.00183
3675.34706,0.00231
3673.28688,0.00227
3671.22671,0.00223
3669.16654,0.00249
3667.10637,0.00267
3665.04620,0.00282
3662.98602,0.00302
3660.92585,0.00317
3658.86568,0.00325
3656.80551,0.00317
3654.74534,0.00319
3652.68516,0.00379
3650.62499,0.00477
3648.56482,0.00533
3646.50465,0.00503
3644.44447,0.00475
3642.38430,0.00515
3640.32413,0.00578
3638.26396,0.00575
3636.20379,0.00531
3634.14361,0.00538
3632.08344,0.00603
3630.02327,0.00684
3627.96310,0.00753
3625.90293,0.00781
3623.84275,0.00806
3621.78258,0.00878
3619.72241,0.00973
3617.66224,0.01041
3615.60207,0.01073
3613.54189,0.01090
3611.48172,0.01133
3609.42155,0.01209
3607.36138,0.01276
3605.30120,0.01294
3603.24103,0.01277
3601.18086,0.01253
3599.12069,0.01237
3597.06052,0.01253
3595.00034,0.01294
3592.94017,0.01345
3590.88000,0.01432
3588.81983,0.01548
3586.75966,0.01585
3584.69948,0.01540
3582.63931,0.01540
3580.57914,0.01608
3578.51897,0.01690
3576.45879,0.01760
3574.39862,0.01806
3572.33845,0.01827
3570.27828,0.01853
3568.21811,0.01901
3566.15793,0.01942
3564.09776,0.01957
3562.03759,0.01967
3559.97742,0.01993
3557.91725,0.02019
3555.85707,0.02025
3553.79690,0.02040
3551.73673,0.02100
3549.67656,0.02185
3547.61639,0.02261
3545.55621,0.02310
3543.49604,0.02334
3541.43587,0.02349
3539.37570,0.02358
3537.31552,0.02373
3535.25535,0.02426
3533.19518,0.02499
3531.13501,0.02541
3529.07484,0.02551
3527.01466,0.02543
3524.95449,0.02543
3522.89432,0.02584
3520.83415,0.02646
3518.77398,0.02703
3516.71380,0.02763
3514.65363,0.02831
3512.59346,0.02885
3510.53329,0.02913
3508.47312,0.02929
3506.41294,0.02970
3504.35277,0.03040
3502.29260,0.03096
3500.23243,0.03109
3498.17225,0.03112
3496.11208,0.03141
3494.05191,0.03179
3491.99174,0.03201
3489.93157,0.03211
3487.87139,0.03224
3485.81122,0.03261
3483.75105,0.03322
3481.69088,0.03360
3479.63071,0.03361
3477.57053,0.03374
3475.51036,0.03430
3473.45019,0.03485
3471.39002,0.03488
3469.32984,0.03465
3467.26967,0.03484
3465.20950,0.03560
3463.14933,0.03625
3461.08916,0.03641
3459.02898,0.03650
3456.96881,0.03673
3454.90864,0.03697
3452.84847,0.03743
3450.78830,0.03813
3448.72812,0.03856
3446.66795,0.03858
3444.60778,0.03865
3442.54761,0.03886
3440.48744,0.03898
3438.42726,0.03908
3436.36709,0.03931
3434.30692,0.03967
3432.24675,0.03998
3430.18657,0.04025
3428.12640,0.04051
3426.06623,0.04069
3424.00606,0.04088
3421.94589,0.04125
3419.88571,0.04169
3417.82554,0.04201
3415.76537,0.04228
3413.70520,0.04262
3411.64503,0.04278
3409.58485,0.04270
3407.52468,0.04262
3405.46451,0.04269
3403.40434,0.04302
3401.34416,0.04338
3399.28399,0.04328
3397.22382,0.04311
3395.16365,0.04340
3393.10348,0.04379
3391.04330,0.04406
3388.98313,0.04441
3386.92296,0.04459
3384.86279,0.04450
3382.80262,0.04456
3380.74244,0.04501
3378.68227,0.04557
3376.62210,0.04576
3374.56193,0.04562
3372.50176,0.04565
3370.44158,0.04582
3368.38141,0.04592
3366.32124,0.04608
3364.26107,0.04616
3362.20089,0.04604
3360.14072,0.04593
3358.08055,0.04591
3356.02038,0.04611
3353.96021,0.04646
3351.90003,0.04651
3349.83986,0.04635
3347.77969,0.04641
3345.71952,0.04662
3343.65935,0.04682
3341.59917,0.04701
3339.53900,0.04712
3337.47883,0.04719
3335.41866,0.04713
3333.35849,0.04690
3331.29831,0.04693
3329.23814,0.04728
3327.17797,0.04736
3325.11780,0.04712
3323.05762,0.04684
3320.99745,0.04663
3318.93728,0.04660
3316.87711,0.04667
3314.81694,0.04698
3312.75676,0.04763
3310.69659,0.04815
3308.63642,0.04830
3306.57625,0.04821
3304.51608,0.04803
3302.45590,0.04794
3300.39573,0.04784
3298.33556,0.04777
3296.27539,0.04810
3294.21521,0.04851
3292.15504,0.04842
3290.09487,0.04825
3288.03470,0.04832
3285.97453,0.04826
3283.91435,0.04800
3281.85418,0.04771
3279.79401,0.04754
3277.73384,0.04780
3275.67367,0.04834
3273.61349,0.04878
3271.55332,0.04906
3269.49315,0.04923
3267.43298,0.04918
3265.37281,0.04911
3263.31263,0.04918
3261.25246,0.04909
3259.19229,0.04887
3257.13212,0.04881
3255.07194,0.04875
3253.01177,0.04857
3250.95160,0.04843
3248.89143,0.04830
3246.83126,0.04807
3244.77108,0.04790
3242.71091,0.04810
3240.65074,0.04863
3238.59057,0.04904
3236.53040,0.04898
3234.47022,0.04864
3232.41005,0.04847
3230.34988,0.04851
3228.28971,0.04857
3226.22954,0.04837
3224.16936,0.04790
3222.10919,0.04767
3220.04902,0.04790
3217.98885,0.04812
3215.92867,0.04816
3213.86850,0.04833
3211.80833,0.04862
3209.74816,0.04861
3207.68799,0.04831
3205.62781,0.04811
3203.56764,0.04806
3201.50747,0.04806
3199.44730,0.04810
3197.38713,0.04818
3195.32695,0.04825
3193.26678,0.04814
3191.20661,0.04776
3189.14644,0.04722
3187.08626,0.04680
3185.02609,0.04681
3182.96592,0.04709
3180.90575,0.04724
3178.84558,0.04722
3176.78540,0.04706
3174.72523,0.04679
3172.66506,0.04664
3170.60489,0.04669
3168.54472,0.04658
3166.48454,0.04625
3164.42437,0.04605
3162.36420,0.04593
3160.30403,0.04579
3158.24386,0.04581
3156.18368,0.04580
3154.12351,0.04546
3152.06334,0.04519
3150.00317,0.04525
3147.94299,0.04524
3145.88282,0.04502
3143.82265,0.04492
3141.76248,0.04492
3139.70231,0.04477
3137.64213,0.04434
3135.58196,0.04379
3133.52179,0.04349
3131.46162,0.04357
3129.40145,0.04358
3127.34127,0.04328
3125.28110,0.04298
3123.22093,0.04292
3121.16076,0.04299
3119.10058,0.04289
3117.04041,0.04253
3114.98024,0.04215
3112.92007,0.04191
3110.85990,0.04188
3108.79972,0.04186
3106.73955,0.04151
3104.67938,0.04113
3102.61921,0.04092
3100.55904,0.04079
3098.49886,0.04073
3096.43869,0.04070
3094.37852,0.04062
3092.31835,0.04034
3090.25818,0.03998
3088.19800,0.03994
3086.13783,0.04004
3084.07766,0.03991
3082.01749,0.03970
3079.95731,0.03953
3077.89714,0.03922
3075.83697,0.03884
3073.77680,0.03851
3071.71663,0.03832
3069.65645,0.03823
3067.59628,0.03808
3065.53611,0.03784
3063.47594,0.03757
3061.41577,0.03739
3059.35559,0.03722
3057.29542,0.03687
3055.23525,0.03656
3053.17508,0.03639
3051.11491,0.03608
3049.05473,0.03571
3046.99456,0.03543
3044.93439,0.03529
3042.87422,0.03523
3040.81404,0.03505
3038.75387,0.03470
3036.69370,0.03444
3034.63353,0.03451
3032.57336,0.03461
3030.51318,0.03439
3028.45301,0.03411
3026.39284,0.03391
3024.33267,0.03363
3022.27250,0.03317
3020.21232,0.03272
3018.15215,0.03266
3016.09198,0.03290
3014.03181,0.03281
3011.97163,0.03228
3009.91146,0.03188
3007.85129,0.03182
3005.79112,0.03181
3003.73095,0.03147
3001.67077,0.03105
2999.61060,0.03097
2997.55043,0.03105
2995.49026,0.03083
2993.43009,0.03050
2991.36991,0.03052
2989.30974,0.03065
2987.24957,0.03035
2985.18940,0.02995
2983.12923,0.02987
2981.06905,0.02971
2979.00888,0.02935
2976.94871,0.02912
2974.88854,0.02894
2972.82836,0.02890
2970.76819,0.02913
2968.70802,0.02932
2966.64785,0.02920
2964.58768,0.02893
2962.52750,0.02876
2960.46733,0.02882
2958.40716,0.02886
2956.34699,0.02872
2954.28682,0.02859
2952.22664,0.02858
2950.16647,0.02861
2948.10630,0.02850
2946.04613,0.02830
2943.98596,0.02835
2941.92578,0.02852
2939.86561,0.02846
2937.80544,0.02820
2935.74527,0.02786
2933.68509,0.02758
2931.62492,0.02756
2929.56475,0.02771
2927.50458,0.02772
2925.44441,0.02742
2923.38423,0.02713
2921.32406,0.02699
2919.26389,0.02692
2917.20372,0.02691
2915.14355,0.02681
2913.08337,0.02654
2911.02320,0.02637
2908.96303,0.02632
2906.90286,0.02629
2904.84268,0.02619
2902.78251,0.02596
2900.72234,0.02570
2898.66217,0.02556
2896.60200,0.02542
2894.54182,0.02524
2892.48165,0.02524
2890.42148,0.02529
2888.36131,0.02515
2886.30114,0.02495
2884.24096,0.02479
2882.18079,0.02463
2880.12062,0.02463
2878.06045,0.02473
2876.00028,0.02472
2873.94010,0.02473
2871.87993,0.02480
2869.81976,0.02466
2867.75959,0.02427
2865.69941,0.02394
2863.63924,0.02398
2861.57907,0.02414
2859.51890,0.02407
2857.45873,0.02395
2855.39855,0.02390
2853.33838,0.02372
2851.27821,0.02338
2849.21804,0.02314
2847.15787,0.02305
2845.09769,0.02301
2843.03752,0.02288
2840.97735,0.02260
2838.91718,0.02248
2836.85700,0.02260
2834.79683,0.02251
2832.73666,0.02212
2830.67649,0.02180
2828.61632,0.02178
2826.55614,0.02185
2824.49597,0.02175
2822.43580,0.02156
2820.37563,0.02155
2818.31546,0.02155
2816.25528,0.02124
2814.19511,0.02094
2812.13494,0.02097
2810.07477,0.02095
2808.01460,0.02073
2805.95442,0.02069
2803.89425,0.02073
2801.83408,0.02053
2799.77391,0.02025
2797.71373,0.02011
2795.65356,0.02017
2793.59339,0.02024
2791.53322,0.02024
2789.47305,0.02022
2787.41287,0.02005
2785.35270,0.01977
2783.29253,0.01961
2781.23236,0.01957
2779.17219,0.01946
2777.11201,0.01934
2775.05184,0.01925
2772.99167,0.01899
2770.93150,0.01867
2768.87133,0.01865
2766.81115,0.01887
2764.75098,0.01902
2762.69081,0.01888
2760.63064,0.01861
2758.57046,0.01847
2756.51029,0.01834
2754.45012,0.01827
2752.38995,0.01834
2750.32978,0.01835
2748.26960,0.01820
2746.20943,0.01805
2744.14926,0.01789
2742.08909,0.01773
2740.02892,0.01771
2737.96874,0.01776
2735.90857,0.01754
2733.84840,0.01711
2731.78823,0.01692
2729.72805,0.01708
2727.66788,0.01721
2725.60771,0.01700
2723.54754,0.01672
2721.48737,0.01664
2719.42719,0.01671
2717.36702,0.01660
2715.30685,0.01630
2713.24668,0.01616
2711.18651,0.01628
2709.12633,0.01650
2707.06616,0.01654
2705.00599,0.01634
2702.94582,0.01609
2700.88565,0.01581
2698.82547,0.01549
2696.76530,0.01521
2694.70513,0.01511
2692.64496,0.01507
2690.58478,0.01504
2688.52461,0.01500
2686.46444,0.01491
2684.40427,0.01475
2682.34410,0.01458
2680.28392,0.01447
2678.22375,0.01451
2676.16358,0.01468
2674.10341,0.01460
2672.04324,0.01409
2669.98306,0.01378
2667.92289,0.01378
2665.86272,0.01376
2663.80255,0.01368
2661.74238,0.01356
2659.68220,0.01345
2657.62203,0.01333
2655.56186,0.01325
2653.50169,0.01321
2651.44151,0.01323
2649.38134,0.01325
2647.32117,0.01298
2645.26100,0.01258
2643.20083,0.01243
2641.14065,0.01236
2639.08048,0.01224
2637.02031,0.01213
2634.96014,0.01206
2632.89997,0.01196
2630.83979,0.01192
2628.77962,0.01199
2626.71945,0.01177
2624.65928,0.01137
2622.59910,0.01128
2620.53893,0.01141
2618.47876,0.01125
2616.41859,0.01076
2614.35842,0.01048
2612.29824,0.01062
2610.23807,0.01076
2608.17790,0.01066
2606.11773,0.01064
2604.05756,0.01076
2601.99738,0.01081
2599.93721,0.01064
2597.87704,0.01026
2595.81687,0.01010
2593.75670,0.01027
2591.69652,0.01035
2589.63635,0.01011
2587.57618,0.00978
2585.51601,0.00961
2583.45583,0.00952
2581.39566,0.00960
2579.33549,0.00991
2577.27532,0.01019
2575.21515,0.01051
2573.15497,0.01076
2571.09480,0.01050
2569.03463,0.00999
2566.97446,0.00965
2564.91429,0.00947
2562.85411,0.00959
2560.79394,0.00970
2558.73377,0.00937
2556.67360,0.00919
2554.61342,0.00942
2552.55325,0.00968
2550.49308,0.00990
2548.43291,0.00974
2546.37274,0.00934
2544.31256,0.00950
2542.25239,0.01001
2540.19222,0.00996
2538.13205,0.00956
2536.07188,0.00960
2534.01170,0.00979
2531.95153,0.00958
2529.89136,0.00936
2527.83119,0.00934
2525.77102,0.00931
2523.71084,0.00930
2521.65067,0.00945
2519.59050,0.00953
2517.53033,0.00944
2515.47015,0.00934
2513.40998,0.00907
2511.34981,0.00873
2509.28964,0.00895
2507.22947,0.00968
2505.16929,0.00982
2503.10912,0.00921
2501.04895,0.00909
2498.98878,0.00965
2496.92861,0.00999
2494.86843,0.00986
2492.80826,0.00975
2490.74809,0.00993
2488.68792,0.01010
2486.62775,0.01020
2484.56757,0.01045
2482.50740,0.01081
2480.44723,0.01085
2478.38706,0.01044
2476.32688,0.01011
2474.26671,0.01008
2472.20654,0.01020
2470.14637,0.01041
2468.08620,0.01067
2466.02602,0.01097
2463.96585,0.01106
2461.90568,0.01083
2459.84551,0.01059
2457.78534,0.01071
2455.72516,0.01109
2453.66499,0.01134
2451.60482,0.01133
2449.54465,0.01125
2447.48447,0.01134
2445.42430,0.01148
2443.36413,0.01135
2441.30396,0.01099
2439.24379,0.01077
2437.18361,0.01088
2435.12344,0.01117
2433.06327,0.01145
2431.00310,0.01142
2428.94293,0.01114
2426.88275,0.01108
2424.82258,0.01122
2422.76241,0.01130
2420.70224,0.01127
2418.64207,0.01103
2416.58189,0.01073
2414.52172,0.01085
2412.46155,0.01112
2410.40138,0.01090
2408.34120,0.01048
2406.28103,0.01044
2404.22086,0.01060
2402.16069,0.01055
2400.10052,0.01036
2398.04034,0.01030
2395.98017,0.01061
2393.92000,0.01089
2391.85983,0.01087
2389.79966,0.01087
2387.73948,0.01093
2385.67931,0.01081
2383.61914,0.01063
2381.55897,0.01050
2379.49880,0.01052
2377.43862,0.01077
2375.37845,0.01135
2373.31828,0.01163
2371.25811,0.01129
2369.19793,0.01106
2367.13776,0.01116
2365.07759,0.01251
2363.01742,0.01578
2360.95725,0.01643
2358.89707,0.01558
2356.83690,0.01464
2354.77673,0.01417
2352.71656,0.01298
2350.65639,0.00909
2348.59621,0.00781
2346.53604,0.01275
2344.47587,0.01371
2342.41570,0.01169
2340.35552,0.01062
2338.29535,0.01027
2336.23518,0.01027
2334.17501,0.01026
2332.11484,0.01091
2330.05466,0.01164
2327.99449,0.01207
2325.93432,0.01136
2323.87415,0.01173
2321.81398,0.01312
2319.75380,0.01429
2317.69363,0.01362
2315.63346,0.01278
2313.57329,0.01199
2311.51312,0.01111
2309.45294,0.01046
2307.39277,0.00997
2305.33260,0.00973
2303.27243,0.00973
2301.21225,0.00990
2299.15208,0.00992
2297.09191,0.01010
2295.03174,0.01042
2292.97157,0.01044
2290.91139,0.01035
2288.85122,0.01038
2286.79105,0.01043
2284.73088,0.01040
2282.67071,0.01029
2280.61053,0.00986
2278.55036,0.00919
2276.49019,0.00876
2274.43002,0.00872
2272.36984,0.00897
2270.30967,0.00914
2268.24950,0.00886
2266.18933,0.00852
2264.12916,0.00871
2262.06898,0.00909
2260.00881,0.00915
2257.94864,0.00895
2255.88847,0.00842
2253.82830,0.00767
2251.76812,0.00743
2249.70795,0.00777
2247.64778,0.00828
2245.58761,0.00849
2243.52744,0.00795
2241.46726,0.00754
2239.40709,0.00756
2237.34692,0.00757
2235.28675,0.00760
2233.22657,0.00737
2231.16640,0.00743
2229.10623,0.00830
2227.04606,0.00866
2224.98589,0.00793
2222.92571,0.00732
2220.86554,0.00736
2218.80537,0.00728
2216.74520,0.00727
2214.68503,0.00755
2212.62485,0.00736
2210.56468,0.00692
2208.50451,0.00688
2206.44434,0.00693
2204.38417,0.00681
2202.32399,0.00728
2200.26382,0.00797
2198.20365,0.00744
2196.14348,0.00616
2194.08330,0.00561
2192.02313,0.00581
2189.96296,0.00603
2187.90279,0.00606
2185.84262,0.00572
2183.78244,0.00519
2181.72227,0.00492
2179.66210,0.00486
2177.60193,0.00427
2175.54176,0.00333
2173.48158,0.00355
2171.42141,0.00465
2169.36124,0.00537
2167.30107,0.00503
2165.24089,0.00367
2163.18072,0.00240
2161.12055,0.00150
2159.06038,0.00038
2157.00021,0.00036
2154.94003,0.00254
2152.87986,0.00483
2150.81969,0.00528
2148.75952,0.00478
2146.69935,0.00444
2144.63917,0.00409
2142.57900,0.00378
2140.51883,0.00357
2138.45866,0.00326
2136.39849,0.00316
2134.33831,0.00323
2132.27814,0.00261
2130.21797,0.00120
2128.15780,0.00086
2126.09762,0.00239
2124.03745,0.00353
2121.97728,0.00317
2119.91711,0.00280
2117.85694,0.00346
2115.79676,0.00475
2113.73659,0.00535
2111.67642,0.00506
2109.61625,0.00490
2107.55608,0.00482
2105.49590,0.00452
2103.43573,0.00471
2101.37556,0.00491
2099.31539,0.00469
2097.25521,0.00496
2095.19504,0.00492
2093.13487,0.00373
2091.07470,0.00306
2089.01453,0.00392
2086.95435,0.00518
2084.89418,0.00548
2082.83401,0.00436
2080.77384,0.00310
2078.71367,0.00268
2076.65349,0.00263
2074.59332,0.00295
2072.53315,0.00357
2070.47298,0.00359
2068.41281,0.00289
2066.35263,0.00218
2064.29246,0.00237
2062.23229,0.00347
2060.17212,0.00426
2058.11194,0.00422
2056.05177,0.00425
2053.99160,0.00474
2051.93143,0.00470
2049.87126,0.00369
2047.81108,0.00295
2045.75091,0.00322
2043.69074,0.00350
2041.63057,0.00295
2039.57040,0.00265
2037.51022,0.00308
2035.45005,0.00260
2033.38988,0.00151
2031.32971,0.00161
2029.26954,0.00159
2027.20936,0.00081
2025.14919,0.00107
2023.08902,0.00163
2021.02885,0.00118
2018.96867,0.00119
2016.90850,0.00241
2014.84833,0.00334
2012.78816,0.00334
2010.72799,0.00323
2008.66781,0.00299
2006.60764,0.00206
2004.54747,0.00177
2002.48730,0.00293
2000.42713,0.00370
1998.36695,0.00330
1996.30678,0.00279
1994.24661,0.00265
1992.18644,0.00313
1990.12626,0.00397
1988.06609,0.00437
1986.00592,0.00452
1983.94575,0.00451
1981.88558,0.00418
1979.82540,0.00341
1977.76523,0.00171
1975.70506,0.00020
1973.64489,0.00081
1971.58472,0.00214
1969.52454,0.00192
1967.46437,0.00125
1965.40420,0.00155
1963.34403,0.00181
1961.28386,0.00120
1959.22368,0.00034
1957.16351,0.00016
1955.10334,0.00091
1953.04317,0.00165
1950.98299,0.00167
1948.92282,0.00152
1946.86265,0.00146
1944.80248,0.00087
1942.74231,0.00001
1940.68213,0.00000
1938.62196,0.00082
1936.56179,0.00178
1934.50162,0.00251
1932.44145,0.00254
1930.38127,0.00201
1928.32110,0.00187
1926.26093,0.00226
1924.20076,0.00274
1922.14059,0.00311
1920.08041,0.00323
1918.02024,0.00296
1915.96007,0.00254
1913.89990,0.00232
1911.83972,0.00227
1909.77955,0.00224
1907.71938,0.00210
1905.65921,0.00186
1903.59904,0.00178
1901.53886,0.00197
1899.47869,0.00215
1897.41852,0.00194
1895.35835,0.00174
1893.29818,0.00212
1891.23800,0.00263
1889.17783,0.00279
1887.11766,0.00279
1885.05749,0.00292
1882.99731,0.00308
1880.93714,0.00310
1878.87697,0.00311
1876.81680,0.00313
1874.75663,0.00299
1872.69645,0.00284
1870.63628,0.00278
1868.57611,0.00277
1866.51594,0.00279
1864.45577,0.00279
1862.39559,0.00272
1860.33542,0.00281
1858.27525,0.00313
1856.21508,0.00322
1854.15491,0.00293
1852.09473,0.00271
1850.03456,0.00293
1847.97439,0.00337
1845.91422,0.00348
1843.85404,0.00326
1841.79387,0.00319
1839.73370,0.00328
1837.67353,0.00330
1835.61336,0.00332
1833.55318,0.00345
1831.49301,0.00357
1829.43284,0.00358
1827.37267,0.00350
1825.31250,0.00345
1823.25232,0.00342
1821.19215,0.00327
1819.13198,0.00297
1817.07181,0.00274
1815.01163,0.00280
1812.95146,0.00308
1810.89129,0.00339
1808.83112,0.00350
1806.77095,0.00349
1804.71077,0.00367
1802.65060,0.00400
1800.59043,0.00411
1798.53026,0.00394
1796.47009,0.00374
1794.40991,0.00356
1792.34974,0.00342
1790.28957,0.00358
1788.22940,0.00401
1786.16923,0.00444
1784.10905,0.00471
1782.04888,0.00478
1779.98871,0.00467
1777.92854,0.00446
1775.86836,0.00423
1773.80819,0.00408
1771.74802,0.00408
1769.68785,0.00427
1767.62768,0.00449
1765.56750,0.00468
1763.50733,0.00483
1761.44716,0.00487
1759.38699,0.00497
1757.32682,0.00526
1755.26664,0.00553
1753.20647,0.00562
1751.14630,0.00568
1749.08613,0.00576
1747.02596,0.00580
1744.96578,0.00592
1742.90561,0.00621
1740.84544,0.00643
1738.78527,0.00632
1736.72509,0.00606
1734.66492,0.00599
1732.60475,0.00606
1730.54458,0.00620
1728.48441,0.00662
1726.42423,0.00728
1724.36406,0.00769
1722.30389,0.00766
1720.24372,0.00769
1718.18355,0.00808
1716.12337,0.00839
1714.06320,0.00846
1712.00303,0.00858
1709.94286,0.00876
1707.88268,0.00899
1705.82251,0.00938
1703.76234,0.00991
1701.70217,0.01034
1699.64200,0.01053
1697.58182,0.01066
1695.52165,0.01093
1693.46148,0.01126
1691.40131,0.01155
1689.34114,0.01189
1687.28096,0.01240
1685.22079,0.01290
1683.16062,0.01316
1681.10045,0.01331
1679.04028,0.01359
1676.98010,0.01394
1674.91993,0.01421
1672.85976,0.01450
1670.79959,0.01506
1668.73941,0.01571
1666.67924,0.01595
1664.61907,0.01592
1662.55890,0.01600
1660.49873,0.01618
1658.43855,0.01643
1656.37838,0.01681
1654.31821,0.01710
1652.25804,0.01711
1650.19787,0.01711
1648.13769,0.01719
1646.07752,0.01725
1644.01735,0.01721
1641.95718,0.01715
1639.89701,0.01715
1637.83683,0.01701
1635.77666,0.01646
1633.71649,0.01588
1631.65632,0.01565
1629.59614,0.01565
1627.53597,0.01571
1625.47580,0.01573
1623.41563,0.01548
1621.35546,0.01504
1619.29528,0.01470
1617.23511,0.01439
1615.17494,0.01398
1613.11477,0.01370
1611.05460,0.01355
1608.99442,0.01339
1606.93425,0.01324
1604.87408,0.01305
1602.81391,0.01269
1600.75373,0.01225
1598.69356,0.01181
1596.63339,0.01139
1594.57322,0.01104
1592.51305,0.01067
1590.45287,0.01020
1588.39270,0.00972
1586.33253,0.00931
1584.27236,0.00896
1582.21219,0.00864
1580.15201,0.00843
1578.09184,0.00826
1576.03167,0.00785
1573.97150,0.00744
1571.91133,0.00730
1569.85115,0.00714
1567.79098,0.00679
1565.73081,0.00645
1563.67064,0.00626
1561.61046,0.00618
1559.55029,0.00589
1557.49012,0.00533
1555.42995,0.00504
1553.36978,0.00493
1551.30960,0.00482
1549.24943,0.00476
1547.18926,0.00468
1545.12909,0.00445
1543.06892,0.00415
1541.00874,0.00397
1538.94857,0.00400
1536.88840,0.00404
1534.82823,0.00395
1532.76805,0.00380
1530.70788,0.00362
1528.64771,0.00345
1526.58754,0.00334
1524.52737,0.00328
1522.46719,0.00309
1520.40702,0.00263
1518.34685,0.00212
1516.28668,0.00180
1514.22651,0.00176
1512.16633,0.00194
1510.10616,0.00226
1508.04599,0.00244
1505.98582,0.00220
1503.92565,0.00191
1501.86547,0.00181
1499.80530,0.00169
1497.74513,0.00149
1495.68496,0.00147
1493.62478,0.00167
1491.56461,0.00190
1489.50444,0.00199
1487.44427,0.00191
1485.38410,0.00178
1483.32392,0.00172
1481.26375,0.00174
1479.20358,0.00188
1477.14341,0.00213
1475.08324,0.00234
1473.02306,0.00238
1470.96289,0.00231
1468.90272,0.00224
1466.84255,0.00216
1464.78238,0.00217
1462.72220,0.00243
1460.66203,0.00279
1458.60186,0.00295
1456.54169,0.00279
1454.48151,0.00259
1452.42134,0.00251
1450.36117,0.00243
1448.30100,0.00229
1446.24083,0.00216
1444.18065,0.00212
1442.12048,0.00215
1440.06031,0.00218
1438.00014,0.00202
1435.93997,0.00174
1433.87979,0.00171
1431.81962,0.00191
1429.75945,0.00209
1427.69928,0.00222
1425.63910,0.00244
1423.57893,0.00275
1421.51876,0.00304
1419.45859,0.00308
1417.39842,0.00283
1415.33824,0.00265
1413.27807,0.00268
1411.21790,0.00273
1409.15773,0.00266
1407.09756,0.00255
1405.03738,0.00247
1402.97721,0.00242
1400.91704,0.00241
1398.85687,0.00240
1396.79670,0.00231
1394.73652,0.00218
1392.67635,0.00213
1390.61618,0.00219
1388.55601,0.00226
1386.49583,0.00222
1384.43566,0.00198
1382.37549,0.00170
1380.31532,0.00161
1378.25515,0.00179
1376.19497,0.00211
1374.13480,0.00234
1372.07463,0.00230
1370.01446,0.00210
1367.95429,0.00196
1365.89411,0.00195
1363.83394,0.00193
1361.77377,0.00175
1359.71360,0.00151
1357.65343,0.00139
1355.59325,0.00133
1353.53308,0.00125
1351.47291,0.00124
1349.41274,0.00134
1347.35256,0.00140
1345.29239,0.00142
1343.23222,0.00150
1341.17205,0.00159
1339.11188,0.00151
1337.05170,0.00131
1334.99153,0.00125
1332.93136,0.00133
1330.87119,0.00135
1328.81102,0.00122
1326.75084,0.00110
1324.69067,0.00111
1322.63050,0.00126
1320.57033,0.00141
1318.51015,0.00136
1316.44998,0.00124
1314.38981,0.00125
1312.32964,0.00131
1310.26947,0.00136
1308.20929,0.00142
1306.14912,0.00148
1304.08895,0.00155
1302.02878,0.00167
1299.96861,0.00173
1297.90843,0.00173
1295.84826,0.00179
1293.78809,0.00193
1291.72792,0.00211
1289.66775,0.00228
1287.60757,0.00241
1285.54740,0.00251
1283.48723,0.00250
1281.42706,0.00238
1279.36688,0.00235
1277.30671,0.00250
1275.24654,0.00273
1273.18637,0.00280
1271.12620,0.00267
1269.06602,0.00259
1267.00585,0.00269
1264.94568,0.00276
1262.88551,0.00269
1260.82534,0.00256
1258.76516,0.00252
1256.70499,0.00257
1254.64482,0.00259
1252.58465,0.00260
1250.52447,0.00264
1248.46430,0.00267
1246.40413,0.00262
1244.34396,0.00244
1242.28379,0.00215
1240.22361,0.00191
1238.16344,0.00172
1236.10327,0.00159
1234.04310,0.00160
1231.98293,0.00167
1229.92275,0.00155
1227.86258,0.00127
1225.80241,0.00102
1223.74224,0.00085
1221.68207,0.00075
1219.62189,0.00060
1217.56172,0.00029
1215.50155,0.00000
1213.44138,-0.00004
1211.38120,0.00005
1209.32103,0.00008
1207.26086,0.00005
1205.20069,-0.00002
1203.14052,0.00002
1201.08034,0.00026
1199.02017,0.00043
1196.96000,0.00045
1194.89983,0.00048
1192.83966,0.00063
1190.77948,0.00100
1188.71931,0.00154
1186.65914,0.00212
1184.59897,0.00278
1182.53880,0.00358
1180.47862,0.00443
1178.41845,0.00531
1176.35828,0.00610
1174.29811,0.00684
1172.23793,0.00770
1170.17776,0.00861
1168.11759,0.00943
1166.05742,0.01025
1163.99725,0.01113
1161.93707,0.01201
1159.87690,0.01288
1157.81673,0.01369
1155.75656,0.01457
1153.69639,0.01562
1151.63621,0.01670
1149.57604,0.01767
1147.51587,0.01867
1145.45570,0.01984
1143.39552,0.02106
1141.33535,0.02236
1139.27518,0.02377
1137.21501,0.02502
1135.15484,0.02610
1133.09466,0.02738
1131.03449,0.02877
1128.97432,0.02996
1126.91415,0.03115
1124.85398,0.03268
1122.79380,0.03437
1120.73363,0.03572
1118.67346,0.03685
1116.61329,0.03811
1114.55312,0.03947
1112.49294,0.04073
1110.43277,0.04181
1108.37260,0.04298
1106.31243,0.04442
1104.25225,0.04594
1102.19208,0.04744
1100.13191,0.04879
1098.07174,0.04986
1096.01157,0.05084
1093.95139,0.05184
1091.89122,0.05289
1089.83105,0.05404
1087.77088,0.05509
1085.71071,0.05588
1083.65053,0.05656
1081.59036,0.05732
1079.53019,0.05814
1077.47002,0.05902
1075.40985,0.05993
1073.34967,0.06064
1071.28950,0.06105
1069.22933,0.06132
1067.16916,0.06128
1065.10898,0.06087
1063.04881,0.06044
1060.98864,0.06005
1058.92847,0.05950
1056.86830,0.05883
1054.80812,0.05807
1052.74795,0.05715
1050.68778,0.05620
1048.62761,0.05514
1046.56744,0.05367
1044.50726,0.05197
1042.44709,0.05035
1040.38692,0.04888
1038.32675,0.04743
1036.26657,0.04585
1034.20640,0.04426
1032.14623,0.04288
1030.08606,0.04169
1028.02589,0.04049
1025.96571,0.03928
1023.90554,0.03836
1021.84537,0.03767
1019.78520,0.03676
1017.72503,0.03564
1015.66485,0.03465
1013.60468,0.03394
1011.54451,0.03359
1009.48434,0.03360
1007.42417,0.03368
1005.36399,0.03383
1003.30382,0.03430
1001.24365,0.03490
999.18348,0.03546
997.12330,0.03624
995.06313,0.03728
993.00296,0.03831
990.94279,0.03918
988.88262,0.03986
986.82244,0.04041
984.76227,0.04086
982.70210,0.04106
980.64193,0.04094
978.58176,0.04056
976.52158,0.03985
974.46141,0.03886
972.40124,0.03778
970.34107,0.03663
968.28089,0.03529
966.22072,0.03370
964.16055,0.03196
962.10038,0.03018
960.04021,0.02856
957.98003,0.02731
955.91986,0.02640
953.85969,0.02556
951.79952,0.02462
949.73935,0.02363
947.67917,0.02277
945.61900,0.02222
943.55883,0.02187
941.49866,0.02167
939.43849,0.02159
937.37831,0.02150
935.31814,0.02146
933.25797,0.02140
931.19780,0.02110
929.13762,0.02073
927.07745,0.02053
925.01728,0.02037
922.95711,0.02011
920.89694,0.01969
918.83676,0.01913
916.77659,0.01862
914.71642,0.01816
912.65625,0.01757
910.59608,0.01700
908.53590,0.01681
906.47573,0.01692
904.41556,0.01675
902.35539,0.01632
900.29522,0.01613
898.23504,0.01606
896.17487,0.01608
894.11470,0.01656
892.05453,0.01718
889.99435,0.01725
887.93418,0.01711
885.87401,0.01754
883.81384,0.01839
881.75367,0.01906
879.69349,0.01939
877.63332,0.01954
875.57315,0.01977
873.51298,0.02042
871.45281,0.02129
869.39263,0.02176
867.33246,0.02194
865.27229,0.02191
863.21212,0.02164
861.15194,0.02169
859.09177,0.02204
857.03160,0.02209
854.97143,0.02179
852.91126,0.02123
850.85108,0.02040
848.79091,0.01975
846.73074,0.01973
844.67057,0.01957
842.61040,0.01841
840.55022,0.01697
838.49005,0.01625
836.42988,0.01598
834.36971,0.01574
832.30954,0.01514
830.24936,0.01397
828.18919,0.01276
826.12902,0.01201
824.06885,0.01157
822.00867,0.01120
819.94850,0.01074
817.88833,0.01009
815.82816,0.00934
813.76799,0.00859
811.70781,0.00830
809.64764,0.00876
807.58747,0.00926
805.52730,0.00921
803.46713,0.00863
801.40695,0.00769
799.34678,0.00706
797.28661,0.00718
795.22644,0.00746
793.16627,0.00768
791.10609,0.00799
789.04592,0.00782
786.98575,0.00705
784.92558,0.00658
782.86540,0.00665
780.80523,0.00692
778.74506,0.00719
776.68489,0.00733
774.62472,0.00713
772.56454,0.00605
770.50437,0.00482
768.44420,0.00454
766.38403,0.00484
764.32386,0.00500
762.26368,0.00478
760.20351,0.00445
758.14334,0.00458
756.08317,0.00530
754.02299,0.00596
751.96282,0.00579
749.90265,0.00507
747.84248,0.00461
745.78231,0.00454
743.72213,0.00467
741.66196,0.00492
739.60179,0.00484
737.54162,0.00429
735.48145,0.00389
733.42127,0.00407
731.36110,0.00448
729.30093,0.00448
727.24076,0.00410
725.18059,0.00391
723.12041,0.00374
721.06024,0.00425
719.00007,0.00428
716.93990,0.00421
714.87972,0.00442
712.81955,0.00454
710.75938,0.00440
708.69921,0.00420
706.63904,0.00432
704.57886,0.00471
702.51869,0.00484
700.45852,0.00432
698.39835,0.00362
696.33818,0.00329
694.27800,0.00296
692.21783,0.00235
690.15766,0.00180
688.09749,0.00168
686.03731,0.00193
683.97714,0.00214
681.91697,0.00213
679.85680,0.00203
677.79663,0.00202
675.73645,0.00210
673.67628,0.00131
671.61611,0.00000
669.55594,0.00488
667.49577,0.00881
665.43559,0.00065
663.37542,0.00081
661.31525,0.00214
659.25508,0.00231
657.19491,0.00270
655.13473,0.00346
653.07456,0.00433
651.01439,0.00461
648.95422,0.00428
646.89404,0.00402
644.83387,0.00408
642.77370,0.00348
640.71353,0.00243
638.65336,0.00137
636.59318,0.00039
634.53301,0.00000
632.47284,0.00072
630.41267,0.00212
628.35250,0.00226
626.29232,0.00095
624.23215,0.00065
622.17198,0.00190
620.11181,0.00378
618.05164,0.00453
615.99146,0.00330
613.93129,0.00098
611.87112,-0.00003
609.81095,0.00068
607.75077,0.00069
605.69060,-0.00112
603.63043,-0.00300
601.57026,-0.00213
599.51009,0.00000
