3996.73391,-0.00033
3994.67373,0.00006
3992.61356,0.00020
3990.55339,0.00027
3988.49322,0.00052
3986.43305,0.00059
3984.37287,0.00020
3982.31270,-0.00006
3980.25253,0.00019
3978.19236,0.00033
3976.13219,0.00008
3974.07201,0.00000
3972.01184,0.00026
3969.95167,0.00048
3967.89150,0.00052
3965.83133,0.00057
3963.77115,0.00066
3961.71098,0.00065
3959.65081,0.00050
3957.59064,0.00032
3955.53046,0.00036
3953.47029,0.00067
3951.41012,0.00095
3949.34995,0.00120
3947.28978,0.00161
3945.22960,0.00150
3943.16943,0.00072
3941.10926,0.00052
3939.04909,0.00080
3936.98892,0.00090
3934.92874,0.00067
3932.86857,0.00050
3930.80840,0.00092
3928.74823,0.00134
3926.68805,0.00100
3924.62788,0.00062
3922.56771,0.00086
3920.50754,0.00090
3918.44737,0.00066
3916.38719,0.00090
3914.32702,0.00153
3912.26685,0.00175
3910.20668,0.00170
3908.14651,0.00169
3906.08633,0.00144
3904.02616,0.00130
3901.96599,0.00139
3899.90582,0.00145
3897.84565,0.00223
3895.78547,0.00268
3893.72530,0.00173
3891.66513,0.00123
3889.60496,0.00225
3887.54478,0.00228
3885.48461,0.00174
3883.42444,0.00222
3881.36427,0.00196
3879.30410,0.00193
3877.24392,0.00226
3875.18375,0.00190
3873.12358,0.00199
3871.06341,0.00182
3869.00324,0.00200
3866.94306,0.00232
3864.88289,0.00170
3862.82272,0.00197
3860.76255,0.00281
3858.70237,0.00310
3856.64220,0.00200
3854.58203,0.00000
3852.52186,0.00086
3850.46169,0.00349
3848.40151,0.00408
3846.34134,0.00323
3844.28117,0.00248
3842.22100,0.00236
3840.16083,0.00202
3838.10065,0.00180
3836.04048,0.00241
3833.98031,0.00252
3831.92014,0.00210
3829.85997,0.00222
3827.79979,0.00254
3825.73962,0.00308
3823.67945,0.00283
3821.61928,0.00168
3819.55910,0.00213
3817.49893,0.00187
3815.43876,0.00137
3813.37859,0.00216
3811.31842,0.00216
3809.25824,0.00125
3807.19807,0.00102
3805.13790,0.00206
3803.07773,0.00164
3801.01756,0.00121
3798.95738,0.00242
3796.89721,0.00267
3794.83704,0.00273
3792.77687,0.00283
3790.71670,0.00267
3788.65652,0.00261
3786.59635,0.00229
3784.53618,0.00199
3782.47601,0.00185
3780.41583,0.00135
3778.35566,0.00148
3776.29549,0.00224
3774.23532,0.00264
3772.17515,0.00248
3770.11497,0.00214
3768.05480,0.00219
3765.99463,0.00200
3763.93446,0.00216
3761.87429,0.00226
3759.81411,0.00217
3757.75394,0.00282
3755.69377,0.00336
3753.63360,0.00263
3751.57342,0.00167
3749.51325,0.00248
3747.45308,0.00320
3745.39291,0.00205
3743.33274,0.00256
3741.27256,0.00409
3739.21239,0.00383
3737.15222,0.00249
3735.09205,0.00148
3733.03188,0.00151
3730.97170,0.00238
3728.91153,0.00275
3726.85136,0.00193
3724.79119,0.00145
3722.73102,0.00164
3720.67084,0.00204
3718.61067,0.00244
3716.55050,0.00268
3714.49033,0.00214
3712.43015,0.00140
3710.36998,0.00208
3708.30981,0.00309
3706.24964,0.00296
3704.18947,0.00185
3702.12929,0.00106
3700.06912,0.00172
3698.00895,0.00252
3695.94878,0.00295
3693.88861,0.00334
3691.82843,0.00296
3689.76826,0.00230
3687.70809,0.00281
3685.64792,0.00345
3683.58775,0.00323
3681.52757,0.00325
3679.46740,0.00348
3677.40723,0.00246
3675.34706,0.00175
3673.28688,0.00312
3671.22671,0.00252
3669.16654,0.00189
3667.10637,0.00319
3665.04620,0.00374
3662.98602,0.00366
3660.92585,0.00399
3658.86568,0.00411
3656.80551,0.00413
3654.74534,0.00547
3652.68516,0.00629
3650.62499,0.00595
3648.56482,0.00675
3646.50465,0.00771
3644.44447,0.00742
3642.38430,0.00647
3640.32413,0.00631
3638.26396,0.00709
3636.20379,0.00806
3634.14361,0.00874
3632.08344,0.00860
3630.02327,0.00707
3627.96310,0.00711
3625.90293,0.00913
3623.84275,0.00987
3621.78258,0.00905
3619.72241,0.00845
3617.66224,0.00993
3615.60207,0.01163
3613.54189,0.01204
3611.48172,0.01219
3609.42155,0.01202
3607.36138,0.01215
3605.30120,0.01290
3603.24103,0.01311
3601.18086,0.01313
3599.12069,0.01385
3597.06052,0.01458
3595.00034,0.01501
3592.94017,0.01565
3590.88000,0.01583
3588.81983,0.01513
3586.75966,0.01525
3584.69948,0.01643
3582.63931,0.01702
3580.57914,0.01715
3578.51897,0.01733
3576.45879,0.01768
3574.39862,0.01851
3572.33845,0.01951
3570.27828,0.01968
3568.21811,0.01906
3566.15793,0.01940
3564.09776,0.02064
3562.03759,0.02122
3559.97742,0.02122
3557.91725,0.02136
3555.85707,0.02184
3553.79690,0.02241
3551.73673,0.02296
3549.67656,0.02327
3547.61639,0.02307
3545.55621,0.02306
3543.49604,0.02371
3541.43587,0.02435
3539.37570,0.02464
3537.31552,0.02504
3535.25535,0.02571
3533.19518,0.02609
3531.13501,0.02611
3529.07484,0.02630
3527.01466,0.02697
3524.95449,0.02777
3522.89432,0.02839
3520.83415,0.02880
3518.77398,0.02885
3516.71380,0.02887
3514.65363,0.02928
3512.59346,0.02988
3510.53329,0.03027
3508.47312,0.03072
3506.41294,0.03114
3504.35277,0.03102
3502.29260,0.03087
3500.23243,0.03101
3498.17225,0.03142
3496.11208,0.03219
3494.05191,0.03301
3491.99174,0.03334
3489.93157,0.03337
3487.87139,0.03356
3485.81122,0.03399
3483.75105,0.03420
3481.69088,0.03427
3479.63071,0.03460
3477.57053,0.03484
3475.51036,0.03492
3473.45019,0.03525
3471.39002,0.03573
3469.32984,0.03620
3467.26967,0.03682
3465.20950,0.03738
3463.14933,0.03752
3461.08916,0.03768
3459.02898,0.03797
3456.96881,0.03801
3454.90864,0.03801
3452.84847,0.03830
3450.78830,0.03880
3448.72812,0.03914
3446.66795,0.03940
3444.60778,0.03990
3442.54761,0.04045
3440.48744,0.04085
3438.42726,0.04082
3436.36709,0.04067
3434.30692,0.04077
3432.24675,0.04100
3430.18657,0.04111
3428.12640,0.04124
3426.06623,0.04161
3424.00606,0.04204
3421.94589,0.04235
3419.88571,0.04254
3417.82554,0.04260
3415.76537,0.04284
3413.70520,0.04313
3411.64503,0.04310
3409.58485,0.04312
3407.52468,0.04359
3405.46451,0.04424
3403.40434,0.04449
3401.34416,0.04436
3399.28399,0.04435
3397.22382,0.04446
3395.16365,0.04447
3393.10348,0.04452
3391.04330,0.04491
3388.98313,0.04521
3386.92296,0.04517
3384.86279,0.04520
3382.80262,0.04541
3380.74244,0.04552
3378.68227,0.04552
3376.62210,0.04564
3374.56193,0.04588
3372.50176,0.04598
3370.44158,0.04589
3368.38141,0.04573
3366.32124,0.04580
3364.26107,0.04633
3362.20089,0.04682
3360.14072,0.04692
3358.08055,0.04684
3356.02038,0.04683
3353.96021,0.04699
3351.90003,0.04719
3349.83986,0.04721
3347.77969,0.04706
3345.71952,0.04687
3343.65935,0.04666
3341.59917,0.04651
3339.53900,0.04662
3337.47883,0.04687
3335.41866,0.04712
3333.35849,0.04730
3331.29831,0.04733
3329.23814,0.04733
3327.17797,0.04726
3325.11780,0.04710
3323.05762,0.04704
3320.99745,0.04724
3318.93728,0.04755
3316.87711,0.04772
3314.81694,0.04787
3312.75676,0.04802
3310.69659,0.04788
3308.63642,0.04758
3306.57625,0.04760
3304.51608,0.04778
3302.45590,0.04790
3300.39573,0.04797
3298.33556,0.04800
3296.27539,0.04800
3294.21521,0.04798
3292.15504,0.04785
3290.09487,0.04769
3288.03470,0.04775
3285.97453,0.04800
3283.91435,0.04832
3281.85418,0.04845
3279.79401,0.04831
3277.73384,0.04815
3275.67367,0.04809
3273.61349,0.04811
3271.55332,0.04832
3269.49315,0.04856
3267.43298,0.04848
3265.37281,0.04836
3263.31263,0.04851
3261.25246,0.04865
3259.19229,0.04873
3257.13212,0.04868
3255.07194,0.04844
3253.01177,0.04830
3250.95160,0.04832
3248.89143,0.04840
3246.83126,0.04848
3244.77108,0.04855
3242.71091,0.04844
3240.65074,0.04815
3238.59057,0.04806
3236.53040,0.04814
3234.47022,0.04815
3232.41005,0.04810
3230.34988,0.04802
3228.28971,0.04798
3226.22954,0.04814
3224.16936,0.04832
3222.10919,0.04819
3220.04902,0.04795
3217.98885,0.04798
3215.92867,0.04796
3213.86850,0.04769
3211.80833,0.04750
3209.74816,0.04742
3207.68799,0.04741
3205.62781,0.04735
3203.56764,0.04720
3201.50747,0.04709
3199.44730,0.04707
3197.38713,0.04709
3195.32695,0.04698
3193.26678,0.04676
3191.20661,0.04670
3189.14644,0.04679
3187.08626,0.04685
3185.02609,0.04666
3182.96592,0.04633
3180.90575,0.04617
3178.84558,0.04610
3176.78540,0.04577
3174.72523,0.04530
3172.66506,0.04523
3170.60489,0.04549
3168.54472,0.04539
3166.48454,0.04497
3164.42437,0.04483
3162.36420,0.04504
3160.30403,0.04516
3158.24386,0.04488
3156.18368,0.04453
3154.12351,0.04444
3152.06334,0.04429
3150.00317,0.04384
3147.94299,0.04345
3145.88282,0.04343
3143.82265,0.04362
3141.76248,0.04373
3139.70231,0.04370
3137.64213,0.04359
3135.58196,0.04332
3133.52179,0.04290
3131.46162,0.04267
3129.40145,0.04260
3127.34127,0.04259
3125.28110,0.04247
3123.22093,0.04215
3121.16076,0.04182
3119.10058,0.04164
3117.04041,0.04156
3114.98024,0.04153
3112.92007,0.04150
3110.85990,0.04126
3108.79972,0.04079
3106.73955,0.04039
3104.67938,0.04021
3102.61921,0.04004
3100.55904,0.03989
3098.49886,0.03982
3096.43869,0.03964
3094.37852,0.03945
3092.31835,0.03939
3090.25818,0.03937
3088.19800,0.03918
3086.13783,0.03880
3084.07766,0.03837
3082.01749,0.03810
3079.95731,0.03809
3077.89714,0.03804
3075.83697,0.03766
3073.77680,0.03722
3071.71663,0.03696
3069.65645,0.03685
3067.59628,0.03673
3065.53611,0.03647
3063.47594,0.03626
3061.41577,0.03629
3059.35559,0.03632
3057.29542,0.03601
3055.23525,0.03551
3053.17508,0.03528
3051.11491,0.03543
3049.05473,0.03563
3046.99456,0.03543
3044.93439,0.03496
3042.87422,0.03448
3040.81404,0.03399
3038.75387,0.03372
3036.69370,0.03363
3034.63353,0.03336
3032.57336,0.03302
3030.51318,0.03287
3028.45301,0.03273
3026.39284,0.03252
3024.33267,0.03247
3022.27250,0.03251
3020.21232,0.03249
3018.15215,0.03240
3016.09198,0.03213
3014.03181,0.03189
3011.97163,0.03188
3009.91146,0.03180
3007.85129,0.03143
3005.79112,0.03096
3003.73095,0.03064
3001.67077,0.03052
2999.61060,0.03045
2997.55043,0.03020
2995.49026,0.02986
2993.43009,0.02969
2991.36991,0.02962
2989.30974,0.02953
2987.24957,0.02941
2985.18940,0.02920
2983.12923,0.02907
2981.06905,0.02914
2979.00888,0.02906
2976.94871,0.02874
2974.88854,0.02854
2972.82836,0.02847
2970.76819,0.02844
2968.70802,0.02843
2966.64785,0.02838
2964.58768,0.02836
2962.52750,0.02837
2960.46733,0.02832
2958.40716,0.02834
2956.34699,0.02849
2954.28682,0.02852
2952.22664,0.02837
2950.16647,0.02828
2948.10630,0.02837
2946.04613,0.02855
2943.98596,0.02859
2941.92578,0.02848
2939.86561,0.02838
2937.80544,0.02830
2935.74527,0.02834
2933.68509,0.02846
2931.62492,0.02844
2929.56475,0.02827
2927.50458,0.02807
2925.44441,0.02797
2923.38423,0.02802
2921.32406,0.02796
2919.26389,0.02755
2917.20372,0.02708
2915.14355,0.02696
2913.08337,0.02709
2911.02320,0.02709
2908.96303,0.02682
2906.90286,0.02651
2904.84268,0.02642
2902.78251,0.02639
2900.72234,0.02624
2898.66217,0.02617
2896.60200,0.02626
2894.54182,0.02628
2892.48165,0.02623
2890.42148,0.02615
2888.36131,0.02602
2886.30114,0.02596
2884.24096,0.02605
2882.18079,0.02616
2880.12062,0.02608
2878.06045,0.02583
2876.00028,0.02559
2873.94010,0.02542
2871.87993,0.02517
2869.81976,0.02481
2867.75959,0.02461
2865.69941,0.02466
2863.63924,0.02470
2861.57907,0.02457
2859.51890,0.02440
2857.45873,0.02425
2855.39855,0.02408
2853.33838,0.02391
2851.27821,0.02374
2849.21804,0.02354
2847.15787,0.02335
2845.09769,0.02328
2843.03752,0.02331
2840.97735,0.02322
2838.91718,0.02297
2836.85700,0.02269
2834.79683,0.02251
2832.73666,0.02242
2830.67649,0.02232
2828.61632,0.02228
2826.55614,0.02222
2824.49597,0.02210
2822.43580,0.02206
2820.37563,0.02202
2818.31546,0.02191
2816.25528,0.02198
2814.19511,0.02206
2812.13494,0.02190
2810.07477,0.02159
2808.01460,0.02123
2805.95442,0.02097
2803.89425,0.02090
2801.83408,0.02092
2799.77391,0.02088
2797.71373,0.02073
2795.65356,0.02057
2793.59339,0.02043
2791.53322,0.02028
2789.47305,0.02031
2787.41287,0.02040
2785.35270,0.02017
2783.29253,0.01975
2781.23236,0.01958
2779.17219,0.01974
2777.11201,0.01982
2775.05184,0.01966
2772.99167,0.01944
2770.93150,0.01922
2768.87133,0.01913
2766.81115,0.01929
2764.75098,0.01938
2762.69081,0.01915
2760.63064,0.01879
2758.57046,0.01864
2756.51029,0.01873
2754.45012,0.01874
2752.38995,0.01858
2750.32978,0.01840
2748.26960,0.01827
2746.20943,0.01824
2744.14926,0.01836
2742.08909,0.01850
2740.02892,0.01848
2737.96874,0.01829
2735.90857,0.01807
2733.84840,0.01800
2731.78823,0.01800
2729.72805,0.01784
2727.66788,0.01758
2725.60771,0.01734
2723.54754,0.01722
2721.48737,0.01727
2719.42719,0.01725
2717.36702,0.01710
2715.30685,0.01693
2713.24668,0.01666
2711.18651,0.01635
2709.12633,0.01622
2707.06616,0.01624
2705.00599,0.01630
2702.94582,0.01635
2700.88565,0.01628
2698.82547,0.01600
2696.76530,0.01572
2694.70513,0.01559
2692.64496,0.01554
2690.58478,0.01548
2688.52461,0.01541
2686.46444,0.01537
2684.40427,0.01544
2682.34410,0.01556
2680.28392,0.01543
2678.22375,0.01502
2676.16358,0.01468
2674.10341,0.01449
2672.04324,0.01431
2669.98306,0.01423
2667.92289,0.01432
2665.86272,0.01426
2663.80255,0.01410
2661.74238,0.01416
2659.68220,0.01421
2657.62203,0.01401
2655.56186,0.01385
2653.50169,0.01378
2651.44151,0.01356
2649.38134,0.01323
2647.32117,0.01291
2645.26100,0.01264
2643.20083,0.01246
2641.14065,0.01247
2639.08048,0.01267
2637.02031,0.01271
2634.96014,0.01251
2632.89997,0.01237
2630.83979,0.01228
2628.77962,0.01212
2626.71945,0.01193
2624.65928,0.01179
2622.59910,0.01163
2620.53893,0.01133
2618.47876,0.01115
2616.41859,0.01113
2614.35842,0.01107
2612.29824,0.01102
2610.23807,0.01093
2608.17790,0.01078
2606.11773,0.01065
2604.05756,0.01056
2601.99738,0.01045
2599.93721,0.01031
2597.87704,0.01030
2595.81687,0.01036
2593.75670,0.01027
2591.69652,0.01009
2589.63635,0.01015
2587.57618,0.01031
2585.51601,0.01017
2583.45583,0.00997
2581.39566,0.00993
2579.33549,0.00965
2577.27532,0.00926
2575.21515,0.00902
2573.15497,0.00879
2571.09480,0.00876
2569.03463,0.00920
2566.97446,0.00980
2564.91429,0.01022
2562.85411,0.01038
2560.79394,0.01035
2558.73377,0.01010
2556.67360,0.00966
2554.61342,0.00924
2552.55325,0.00909
2550.49308,0.00939
2548.43291,0.00982
2546.37274,0.01016
2544.31256,0.01034
2542.25239,0.01010
2540.19222,0.00973
2538.13205,0.00952
2536.07188,0.00936
2534.01170,0.00933
2531.95153,0.00935
2529.89136,0.00924
2527.83119,0.00926
2525.77102,0.00955
2523.71084,0.00991
2521.65067,0.01011
2519.59050,0.00985
2517.53033,0.00934
2515.47015,0.00914
2513.40998,0.00936
2511.34981,0.00963
2509.28964,0.00974
2507.22947,0.00968
2505.16929,0.00945
2503.10912,0.00933
2501.04895,0.00945
2498.98878,0.00949
2496.92861,0.00943
2494.86843,0.00953
2492.80826,0.00966
2490.74809,0.00942
2488.68792,0.00918
2486.62775,0.00944
2484.56757,0.01003
2482.50740,0.01047
2480.44723,0.01048
2478.38706,0.01014
2476.32688,0.00986
2474.26671,0.00992
2472.20654,0.01030
2470.14637,0.01064
2468.08620,0.01048
2466.02602,0.01018
2463.96585,0.01032
2461.90568,0.01067
2459.84551,0.01083
2457.78534,0.01068
2455.72516,0.01040
2453.66499,0.01035
2451.60482,0.01056
2449.54465,0.01080
2447.48447,0.01092
2445.42430,0.01088
2443.36413,0.01074
2441.30396,0.01049
2439.24379,0.01015
2437.18361,0.01012
2435.12344,0.01026
2433.06327,0.01023
2431.00310,0.01021
2428.94293,0.01030
2426.88275,0.01034
2424.82258,0.01025
2422.76241,0.01018
2420.70224,0.01023
2418.64207,0.01038
2416.58189,0.01049
2414.52172,0.01029
2412.46155,0.01001
2410.40138,0.01007
2408.34120,0.01020
2406.28103,0.01012
2404.22086,0.00991
2402.16069,0.00972
2400.10052,0.00976
2398.04034,0.00966
2395.98017,0.00955
2393.92000,0.00957
2391.85983,0.00986
2389.79966,0.01025
2387.73948,0.01044
2385.67931,0.01045
2383.61914,0.01047
2381.55897,0.01040
2379.49880,0.01006
2377.43862,0.00963
2375.37845,0.00944
2373.31828,0.00954
2371.25811,0.00984
2369.19793,0.01004
2367.13776,0.01041
2365.07759,0.01187
2363.01742,0.01363
2360.95725,0.01413
2358.89707,0.01332
2356.83690,0.01220
2354.77673,0.01167
2352.71656,0.01148
2350.65639,0.01115
2348.59621,0.01070
2346.53604,0.01017
2344.47587,0.00936
2342.41570,0.00891
2340.35552,0.00947
2338.29535,0.01007
2336.23518,0.01034
2334.17501,0.01056
2332.11484,0.01047
2330.05466,0.01059
2327.99449,0.01132
2325.93432,0.01180
2323.87415,0.01123
2321.81398,0.01022
2319.75380,0.00987
2317.69363,0.00992
2315.63346,0.00963
2313.57329,0.00895
2311.51312,0.00831
2309.45294,0.00840
2307.39277,0.00915
2305.33260,0.00979
2303.27243,0.01011
2301.21225,0.01023
2299.15208,0.01000
2297.09191,0.00935
2295.03174,0.00886
2292.97157,0.00905
2290.91139,0.00950
2288.85122,0.00957
2286.79105,0.00920
2284.73088,0.00870
2282.67071,0.00846
2280.61053,0.00866
2278.55036,0.00893
2276.49019,0.00870
2274.43002,0.00798
2272.36984,0.00730
2270.30967,0.00688
2268.24950,0.00666
2266.18933,0.00657
2264.12916,0.00660
2262.06898,0.00690
2260.00881,0.00744
2257.94864,0.00773
2255.88847,0.00757
2253.82830,0.00744
2251.76812,0.00755
2249.70795,0.00739
2247.64778,0.00713
2245.58761,0.00711
2243.52744,0.00678
2241.46726,0.00620
2239.40709,0.00611
2237.34692,0.00619
2235.28675,0.00588
2233.22657,0.00560
2231.16640,0.00561
2229.10623,0.00577
2227.04606,0.00609
2224.98589,0.00643
2222.92571,0.00630
2220.86554,0.00568
2218.80537,0.00545
2216.74520,0.00566
2214.68503,0.00556
2212.62485,0.00519
2210.56468,0.00492
2208.50451,0.00508
2206.44434,0.00523
2204.38417,0.00486
2202.32399,0.00473
2200.26382,0.00529
2198.20365,0.00586
2196.14348,0.00547
2194.08330,0.00407
2192.02313,0.00302
2189.96296,0.00330
2187.90279,0.00421
2185.84262,0.00453
2183.78244,0.00454
2181.72227,0.00518
2179.66210,0.00585
2177.60193,0.00539
2175.54176,0.00438
2173.48158,0.00444
2171.42141,0.00566
2169.36124,0.00697
2167.30107,0.00720
2165.24089,0.00598
2163.18072,0.00461
2161.12055,0.00408
2159.06038,0.00393
2157.00021,0.00371
2154.94003,0.00305
2152.87986,0.00217
2150.81969,0.00196
2148.75952,0.00225
2146.69935,0.00248
2144.63917,0.00257
2142.57900,0.00251
2140.51883,0.00202
2138.45866,0.00090
2136.39849,0.00031
2134.33831,0.00126
2132.27814,0.00273
2130.21797,0.00355
2128.15780,0.00348
2126.09762,0.00331
2124.03745,0.00401
2121.97728,0.00486
2119.91711,0.00483
2117.85694,0.00446
2115.79676,0.00449
2113.73659,0.00463
2111.67642,0.00419
2109.61625,0.00345
2107.55608,0.00332
2105.49590,0.00356
2103.43573,0.00355
2101.37556,0.00341
2099.31539,0.00341
2097.25521,0.00377
2095.19504,0.00409
2093.13487,0.00394
2091.07470,0.00380
2089.01453,0.00407
2086.95435,0.00417
2084.89418,0.00390
2082.83401,0.00354
2080.77384,0.00305
2078.71367,0.00295
2076.65349,0.00348
2074.59332,0.00356
2072.53315,0.00302
2070.47298,0.00297
2068.41281,0.00355
2066.35263,0.00394
2064.29246,0.00387
2062.23229,0.00348
2060.17212,0.00294
2058.11194,0.00265
2056.05177,0.00296
2053.99160,0.00369
2051.93143,0.00359
2049.87126,0.00247
2047.81108,0.00188
2045.75091,0.00260
2043.69074,0.00389
2041.63057,0.00404
2039.57040,0.00244
2037.51022,0.00068
2035.45005,0.00009
2033.38988,0.00037
2031.32971,0.00075
2029.26954,0.00095
2027.20936,0.00157
2025.14919,0.00268
2023.08902,0.00281
2021.02885,0.00161
2018.96867,0.00026
2016.90850,0.00000
2014.84833,0.00157
2012.78816,0.00289
2010.72799,0.00195
2008.66781,0.00048
2006.60764,0.00075
2004.54747,0.00185
2002.48730,0.00235
2000.42713,0.00204
1998.36695,0.00129
1996.30678,0.00142
1994.24661,0.00251
1992.18644,0.00296
1990.12626,0.00265
1988.06609,0.00234
1986.00592,0.00200
1983.94575,0.00162
1981.88558,0.00182
1979.82540,0.00220
1977.76523,0.00204
1975.70506,0.00174
1973.64489,0.00154
1971.58472,0.00144
1969.52454,0.00160
1967.46437,0.00204
1965.40420,0.00256
1963.34403,0.00251
1961.28386,0.00214
1959.22368,0.00193
1957.16351,0.00159
1955.10334,0.00116
1953.04317,0.00105
1950.98299,0.00133
1948.92282,0.00154
1946.86265,0.00161
1944.80248,0.00129
1942.74231,0.00046
1940.68213,0.00035
1938.62196,0.00070
1936.56179,0.00070
1934.50162,0.00068
1932.44145,0.00121
1930.38127,0.00215
1928.32110,0.00227
1926.26093,0.00113
1924.20076,0.00000
1922.14059,0.00033
1920.08041,0.00086
1918.02024,0.00066
1915.96007,0.00100
1913.89990,0.00107
1911.83972,0.00066
1909.77955,0.00086
1907.71938,0.00177
1905.65921,0.00232
1903.59904,0.00198
1901.53886,0.00140
1899.47869,0.00128
1897.41852,0.00143
1895.35835,0.00154
1893.29818,0.00168
1891.23800,0.00123
1889.17783,0.00062
1887.11766,0.00077
1885.05749,0.00111
1882.99731,0.00136
1880.93714,0.00152
1878.87697,0.00167
1876.81680,0.00197
1874.75663,0.00232
1872.69645,0.00242
1870.63628,0.00175
1868.57611,0.00122
1866.51594,0.00187
1864.45577,0.00251
1862.39559,0.00244
1860.33542,0.00205
1858.27525,0.00165
1856.21508,0.00136
1854.15491,0.00127
1852.09473,0.00147
1850.03456,0.00186
1847.97439,0.00213
1845.91422,0.00166
1843.85404,0.00125
1841.79387,0.00205
1839.73370,0.00243
1837.67353,0.00204
1835.61336,0.00193
1833.55318,0.00201
1831.49301,0.00150
1829.43284,0.00128
1827.37267,0.00168
1825.31250,0.00156
1823.25232,0.00160
1821.19215,0.00161
1819.13198,0.00117
1817.07181,0.00106
1815.01163,0.00158
1812.95146,0.00202
1810.89129,0.00218
1808.83112,0.00239
1806.77095,0.00255
1804.71077,0.00259
1802.65060,0.00247
1800.59043,0.00242
1798.53026,0.00274
1796.47009,0.00293
1794.40991,0.00236
1792.34974,0.00182
1790.28957,0.00267
1788.22940,0.00337
1786.16923,0.00299
1784.10905,0.00270
1782.04888,0.00261
1779.98871,0.00268
1777.92854,0.00326
1775.86836,0.00350
1773.80819,0.00279
1771.74802,0.00240
1769.68785,0.00299
1767.62768,0.00343
1765.56750,0.00380
1763.50733,0.00350
1761.44716,0.00331
1759.38699,0.00385
1757.32682,0.00411
1755.26664,0.00469
1753.20647,0.00480
1751.14630,0.00418
1749.08613,0.00458
1747.02596,0.00565
1744.96578,0.00624
1742.90561,0.00623
1740.84544,0.00596
1738.78527,0.00635
1736.72509,0.00628
1734.66492,0.00484
1732.60475,0.00542
1730.54458,0.00665
1728.48441,0.00673
1726.42423,0.00662
1724.36406,0.00669
1722.30389,0.00733
1720.24372,0.00726
1718.18355,0.00617
1716.12337,0.00661
1714.06320,0.00801
1712.00303,0.00872
1709.94286,0.00867
1707.88268,0.00821
1705.82251,0.00830
1703.76234,0.00925
1701.70217,0.00872
1699.64200,0.00853
1697.58182,0.00969
1695.52165,0.01008
1693.46148,0.01123
1691.40131,0.01169
1689.34114,0.01186
1687.28096,0.01203
1685.22079,0.01092
1683.16062,0.01175
1681.10045,0.01409
1679.04028,0.01469
1676.98010,0.01395
1674.91993,0.01398
1672.85976,0.01509
1670.79959,0.01473
1668.73941,0.01478
1666.67924,0.01616
1664.61907,0.01607
1662.55890,0.01540
1660.49873,0.01642
1658.43855,0.01773
1656.37838,0.01732
1654.31821,0.01521
1652.25804,0.01656
1650.19787,0.01961
1648.13769,0.01832
1646.07752,0.01669
1644.01735,0.01762
1641.95718,0.01831
1639.89701,0.01810
1637.83683,0.01685
1635.77666,0.01574
1633.71649,0.01721
1631.65632,0.01823
1629.59614,0.01737
1627.53597,0.01685
1625.47580,0.01684
1623.41563,0.01658
1621.35546,0.01714
1619.29528,0.01679
1617.23511,0.01520
1615.17494,0.01551
1613.11477,0.01640
1611.05460,0.01602
1608.99442,0.01548
1606.93425,0.01542
1604.87408,0.01539
1602.81391,0.01513
1600.75373,0.01481
1598.69356,0.01429
1596.63339,0.01347
1594.57322,0.01270
1592.51305,0.01223
1590.45287,0.01180
1588.39270,0.01126
1586.33253,0.01070
1584.27236,0.01023
1582.21219,0.01011
1580.15201,0.01007
1578.09184,0.00874
1576.03167,0.00748
1573.97150,0.00856
1571.91133,0.00853
1569.85115,0.00695
1567.79098,0.00700
1565.73081,0.00764
1563.67064,0.00810
1561.61046,0.00673
1559.55029,0.00340
1557.49012,0.00436
1555.42995,0.00623
1553.36978,0.00610
1551.30960,0.00550
1549.24943,0.00539
1547.18926,0.00575
1545.12909,0.00550
1543.06892,0.00462
1541.00874,0.00292
1538.94857,0.00323
1536.88840,0.00506
1534.82823,0.00407
1532.76805,0.00284
1530.70788,0.00355
1528.64771,0.00352
1526.58754,0.00315
1524.52737,0.00320
1522.46719,0.00245
1520.40702,0.00244
1518.34685,0.00270
1516.28668,0.00239
1514.22651,0.00300
1512.16633,0.00356
1510.10616,0.00288
1508.04599,0.00045
1505.98582,0.00000
1503.92565,0.00236
1501.86547,0.00304
1499.80530,0.00194
1497.74513,0.00098
1495.68496,0.00149
1493.62478,0.00233
1491.56461,0.00157
1489.50444,0.00084
1487.44427,0.00159
1485.38410,0.00223
1483.32392,0.00193
1481.26375,0.00159
1479.20358,0.00190
1477.14341,0.00213
1475.08324,0.00198
1473.02306,0.00180
1470.96289,0.00290
1468.90272,0.00395
1466.84255,0.00324
1464.78238,0.00272
1462.72220,0.00401
1460.66203,0.00453
1458.60186,0.00292
1456.54169,0.00242
1454.48151,0.00413
1452.42134,0.00472
1450.36117,0.00414
1448.30100,0.00366
1446.24083,0.00387
1444.18065,0.00419
1442.12048,0.00430
1440.06031,0.00426
1438.00014,0.00340
1435.93997,0.00329
1433.87979,0.00439
1431.81962,0.00435
1429.75945,0.00395
1427.69928,0.00443
1425.63910,0.00478
1423.57893,0.00510
1421.51876,0.00515
1419.45859,0.00444
1417.39842,0.00479
1415.33824,0.00537
1413.27807,0.00508
1411.21790,0.00478
1409.15773,0.00493
1407.09756,0.00487
1405.03738,0.00463
1402.97721,0.00485
1400.91704,0.00475
1398.85687,0.00432
1396.79670,0.00408
1394.73652,0.00380
1392.67635,0.00417
1390.61618,0.00435
1388.55601,0.00369
1386.49583,0.00355
1384.43566,0.00415
1382.37549,0.00442
1380.31532,0.00449
1378.25515,0.00470
1376.19497,0.00463
1374.13480,0.00434
1372.07463,0.00451
1370.01446,0.00455
1367.95429,0.00447
1365.89411,0.00443
1363.83394,0.00389
1361.77377,0.00361
1359.71360,0.00394
1357.65343,0.00407
1355.59325,0.00385
1353.53308,0.00355
1351.47291,0.00324
1349.41274,0.00305
1347.35256,0.00306
1345.29239,0.00323
1343.23222,0.00339
1341.17205,0.00319
1339.11188,0.00305
1337.05170,0.00340
1334.99153,0.00353
1332.93136,0.00318
1330.87119,0.00282
1328.81102,0.00273
1326.75084,0.00274
1324.69067,0.00275
1322.63050,0.00281
1320.57033,0.00282
1318.51015,0.00281
1316.44998,0.00281
1314.38981,0.00259
1312.32964,0.00248
1310.26947,0.00271
1308.20929,0.00284
1306.14912,0.00274
1304.08895,0.00260
1302.02878,0.00258
1299.96861,0.00265
1297.90843,0.00272
1295.84826,0.00283
1293.78809,0.00301
1291.72792,0.00317
1289.66775,0.00321
1287.60757,0.00321
1285.54740,0.00329
1283.48723,0.00339
1281.42706,0.00340
1279.36688,0.00332
1277.30671,0.00324
1275.24654,0.00330
1273.18637,0.00345
1271.12620,0.00360
1269.06602,0.00370
1267.00585,0.00370
1264.94568,0.00357
1262.88551,0.00344
1260.82534,0.00342
1258.76516,0.00350
1256.70499,0.00353
1254.64482,0.00340
1252.58465,0.00317
1250.52447,0.00297
1248.46430,0.00287
1246.40413,0.00278
1244.34396,0.00274
1242.28379,0.00272
1240.22361,0.00258
1238.16344,0.00237
1236.10327,0.00222
1234.04310,0.00215
1231.98293,0.00213
1229.92275,0.00211
1227.86258,0.00203
1225.80241,0.00184
1223.74224,0.00155
1221.68207,0.00133
1219.62189,0.00122
1217.56172,0.00099
1215.50155,0.00072
1213.44138,0.00053
1211.38120,0.00036
1209.32103,0.00017
1207.26086,0.00000
1205.20069,-0.00002
1203.14052,0.00012
1201.08034,0.00023
1199.02017,0.00032
1196.96000,0.00056
1194.89983,0.00087
1192.83966,0.00117
1190.77948,0.00153
1188.71931,0.00194
1186.65914,0.00229
1184.59897,0.00272
1182.53880,0.00353
1180.47862,0.00459
1178.41845,0.00551
1176.35828,0.00632
1174.29811,0.00723
1172.23793,0.00814
1170.17776,0.00903
1168.11759,0.00991
1166.05742,0.01076
1163.99725,0.01156
1161.93707,0.01242
1159.87690,0.01334
1157.81673,0.01408
1155.75656,0.01469
1153.69639,0.01532
1151.63621,0.01612
1149.57604,0.01716
1147.51587,0.01837
1145.45570,0.01956
1143.39552,0.02065
1141.33535,0.02173
1139.27518,0.02286
1137.21501,0.02411
1135.15484,0.02525
1133.09466,0.02614
1131.03449,0.02710
1128.97432,0.02810
1126.91415,0.02899
1124.85398,0.02987
1122.79380,0.03093
1120.73363,0.03219
1118.67346,0.03341
1116.61329,0.03443
1114.55312,0.03545
1112.49294,0.03666
1110.43277,0.03802
1108.37260,0.03941
1106.31243,0.04071
1104.25225,0.04189
1102.19208,0.04317
1100.13191,0.04465
1098.07174,0.04611
1096.01157,0.04744
1093.95139,0.04880
1091.89122,0.05015
1089.83105,0.05134
1087.77088,0.05240
1085.71071,0.05335
1083.65053,0.05427
1081.59036,0.05535
1079.53019,0.05663
1077.47002,0.05790
1075.40985,0.05881
1073.34967,0.05928
1071.28950,0.05982
1069.22933,0.06036
1067.16916,0.06045
1065.10898,0.06039
1063.04881,0.06050
1060.98864,0.06054
1058.92847,0.06038
1056.86830,0.06018
1054.80812,0.05991
1052.74795,0.05948
1050.68778,0.05901
1048.62761,0.05864
1046.56744,0.05808
1044.50726,0.05699
1042.44709,0.05570
1040.38692,0.05467
1038.32675,0.05371
1036.26657,0.05253
1034.20640,0.05119
1032.14623,0.04986
1030.08606,0.04881
1028.02589,0.04789
1025.96571,0.04671
1023.90554,0.04551
1021.84537,0.04456
1019.78520,0.04367
1017.72503,0.04275
1015.66485,0.04172
1013.60468,0.04041
1011.54451,0.03907
1009.48434,0.03805
1007.42417,0.03749
1005.36399,0.03720
1003.30382,0.03696
1001.24365,0.03680
999.18348,0.03676
997.12330,0.03698
995.06313,0.03750
993.00296,0.03819
990.94279,0.03903
988.88262,0.03971
986.82244,0.03999
984.76227,0.04017
982.70210,0.04025
980.64193,0.03985
978.58176,0.03890
976.52158,0.03775
974.46141,0.03677
972.40124,0.03574
970.34107,0.03429
968.28089,0.03253
966.22072,0.03080
964.16055,0.02924
962.10038,0.02788
960.04021,0.02662
957.98003,0.02516
955.91986,0.02374
953.85969,0.02279
951.79952,0.02210
949.73935,0.02142
947.67917,0.02091
945.61900,0.02054
943.55883,0.02035
941.49866,0.02016
939.43849,0.01981
937.37831,0.01972
935.31814,0.01986
933.25797,0.01980
931.19780,0.01954
929.13762,0.01931
927.07745,0.01909
925.01728,0.01889
922.95711,0.01844
920.89694,0.01766
918.83676,0.01697
916.77659,0.01640
914.71642,0.01565
912.65625,0.01485
910.59608,0.01422
908.53590,0.01392
906.47573,0.01388
904.41556,0.01366
902.35539,0.01321
900.29522,0.01301
898.23504,0.01315
896.17487,0.01336
894.11470,0.01353
892.05453,0.01360
889.99435,0.01350
887.93418,0.01346
885.87401,0.01387
883.81384,0.01456
881.75367,0.01504
879.69349,0.01540
877.63332,0.01584
875.57315,0.01632
873.51298,0.01690
871.45281,0.01752
869.39263,0.01788
867.33246,0.01784
865.27229,0.01763
863.21212,0.01756
861.15194,0.01769
859.09177,0.01761
857.03160,0.01712
854.97143,0.01658
852.91126,0.01621
850.85108,0.01585
848.79091,0.01541
846.73074,0.01491
844.67057,0.01417
842.61040,0.01333
840.55022,0.01284
838.49005,0.01256
836.42988,0.01214
834.36971,0.01161
832.30954,0.01124
830.24936,0.01079
828.18919,0.00985
826.12902,0.00880
824.06885,0.00828
822.00867,0.00824
819.94850,0.00821
817.88833,0.00807
815.82816,0.00777
813.76799,0.00714
811.70781,0.00654
809.64764,0.00650
807.58747,0.00673
805.52730,0.00669
803.46713,0.00636
801.40695,0.00576
799.34678,0.00497
797.28661,0.00442
795.22644,0.00417
793.16627,0.00403
791.10609,0.00414
789.04592,0.00420
786.98575,0.00391
784.92558,0.00371
782.86540,0.00385
780.80523,0.00412
778.74506,0.00437
776.68489,0.00431
774.62472,0.00369
772.56454,0.00316
770.50437,0.00340
768.44420,0.00401
766.38403,0.00443
764.32386,0.00442
762.26368,0.00380
760.20351,0.00289
758.14334,0.00225
756.08317,0.00218
754.02299,0.00257
751.96282,0.00265
749.90265,0.00226
747.84248,0.00209
745.78231,0.00211
743.72213,0.00196
741.66196,0.00156
739.60179,0.00138
737.54162,0.00192
735.48145,0.00227
733.42127,0.00184
731.36110,0.00145
729.30093,0.00163
727.24076,0.00196
725.18059,0.00179
723.12041,0.00166
721.06024,0.00175
719.00007,0.00195
716.93990,0.00219
714.87972,0.00241
712.81955,0.00244
710.75938,0.00272
708.69921,0.00346
706.63904,0.00376
704.57886,0.00313
702.51869,0.00225
700.45852,0.00174
698.39835,0.00150
696.33818,0.00145
694.27800,0.00162
692.21783,0.00178
690.15766,0.00191
688.09749,0.00225
686.03731,0.00262
683.97714,0.00275
681.91697,0.00280
679.85680,0.00297
677.79663,0.00302
675.73645,0.00300
673.67628,0.00304
671.61611,0.00256
669.55594,0.00177
667.49577,0.00223
665.43559,0.00329
663.37542,0.00371
661.31525,0.00347
659.25508,0.00311
657.19491,0.00254
655.13473,0.00178
653.07456,0.00182
651.01439,0.00293
648.95422,0.00416
646.89404,0.00489
644.83387,0.00502
642.77370,0.00486
640.71353,0.00441
638.65336,0.00338
636.59318,0.00225
634.53301,0.00178
632.47284,0.00242
630.41267,0.00349
628.35250,0.00378
626.29232,0.00314
624.23215,0.00252
622.17198,0.00260
620.11181,0.00310
618.05164,0.00301
615.99146,0.00227
613.93129,0.00109
611.87112,0.00008
609.81095,0.00000
607.75077,-0.00091
605.69060,-0.00143
603.63043,-0.00066
601.57026,0.00037
599.51009,0.00000
