3996.73391,-0.00024
3994.67373,0.00012
3992.61356,0.00032
3990.55339,0.00032
3988.49322,0.00032
3986.43305,0.00025
3984.37287,0.00003
3982.31270,0.00001
3980.25253,0.00033
3978.19236,0.00056
3976.13219,0.00057
3974.07201,0.00066
3972.01184,0.00093
3969.95167,0.00098
3967.89150,0.00070
3965.83133,0.00052
3963.77115,0.00056
3961.71098,0.00054
3959.65081,0.00047
3957.59064,0.00046
3955.53046,0.00044
3953.47029,0.00032
3951.41012,0.00023
3949.34995,0.00016
3947.28978,0.00000
3945.22960,-0.00015
3943.16943,-0.00022
3941.10926,-0.00011
3939.04909,0.00025
3936.98892,0.00061
3934.92874,0.00077
3932.86857,0.00089
3930.80840,0.00092
3928.74823,0.00074
3926.68805,0.00050
3924.62788,0.00042
3922.56771,0.00063
3920.50754,0.00108
3918.44737,0.00133
3916.38719,0.00102
3914.32702,0.00059
3912.26685,0.00055
3910.20668,0.00061
3908.14651,0.00034
3906.08633,0.00000
3904.02616,0.00028
3901.96599,0.00111
3899.90582,0.00149
3897.84565,0.00133
3895.78547,0.00126
3893.72530,0.00131
3891.66513,0.00115
3889.60496,0.00091
3887.54478,0.00090
3885.48461,0.00110
3883.42444,0.00124
3881.36427,0.00124
3879.30410,0.00113
3877.24392,0.00097
3875.18375,0.00096
3873.12358,0.00108
3871.06341,0.00117
3869.00324,0.00130
3866.94306,0.00135
3864.88289,0.00114
3862.82272,0.00096
3860.76255,0.00112
3858.70237,0.00148
3856.64220,0.00173
3854.58203,0.00155
3852.52186,0.00113
3850.46169,0.00101
3848.40151,0.00098
3846.34134,0.00086
3844.28117,0.00081
3842.22100,0.00096
3840.16083,0.00125
3838.10065,0.00157
3836.04048,0.00189
3833.98031,0.00183
3831.92014,0.00134
3829.85997,0.00095
3827.79979,0.00088
3825.73962,0.00106
3823.67945,0.00147
3821.61928,0.00161
3819.55910,0.00093
3817.49893,0.00011
3815.43876,0.00000
3813.37859,0.00042
3811.31842,0.00075
3809.25824,0.00100
3807.19807,0.00130
3805.13790,0.00145
3803.07773,0.00138
3801.01756,0.00125
3798.95738,0.00103
3796.89721,0.00085
3794.83704,0.00089
3792.77687,0.00089
3790.71670,0.00076
3788.65652,0.00072
3786.59635,0.00081
3784.53618,0.00094
3782.47601,0.00117
3780.41583,0.00149
3778.35566,0.00164
3776.29549,0.00146
3774.23532,0.00115
3772.17515,0.00083
3770.11497,0.00060
3768.05480,0.00074
3765.99463,0.00111
3763.93446,0.00123
3761.87429,0.00117
3759.81411,0.00119
3757.75394,0.00113
3755.69377,0.00092
3753.63360,0.00079
3751.57342,0.00099
3749.51325,0.00159
3747.45308,0.00199
3745.39291,0.00173
3743.33274,0.00096
3741.27256,0.00037
3739.21239,0.00030
3737.15222,0.00045
3735.09205,0.00060
3733.03188,0.00098
3730.97170,0.00168
3728.91153,0.00231
3726.85136,0.00241
3724.79119,0.00182
3722.73102,0.00112
3720.67084,0.00092
3718.61067,0.00091
3716.55050,0.00090
3714.49033,0.00107
3712.43015,0.00123
3710.36998,0.00106
3708.30981,0.00079
3706.24964,0.00066
3704.18947,0.00045
3702.12929,0.00011
3700.06912,0.00000
3698.00895,0.00017
3695.94878,0.00063
3693.88861,0.00114
3691.82843,0.00106
3689.76826,0.00035
3687.70809,0.00000
3685.64792,0.00037
3683.58775,0.00096
3681.52757,0.00124
3679.46740,0.00131
3677.40723,0.00179
3675.34706,0.00274
3673.28688,0.00333
3671.22671,0.00336
3669.16654,0.00305
3667.10637,0.00269
3665.04620,0.00277
3662.98602,0.00324
3660.92585,0.00351
3658.86568,0.00336
3656.80551,0.00328
3654.74534,0.00354
3652.68516,0.00360
3650.62499,0.00295
3648.56482,0.00214
3646.50465,0.00229
3644.44447,0.00298
3642.38430,0.00341
3640.32413,0.00362
3638.26396,0.00385
3636.20379,0.00414
3634.14361,0.00461
3632.08344,0.00521
3630.02327,0.00559
3627.96310,0.00561
3625.90293,0.00553
3623.84275,0.00559
3621.78258,0.00582
3619.72241,0.00620
3617.66224,0.00666
3615.60207,0.00695
3613.54189,0.00715
3611.48172,0.00757
3609.42155,0.00828
3607.36138,0.00908
3605.30120,0.00940
3603.24103,0.00937
3601.18086,0.00966
3599.12069,0.01035
3597.06052,0.01098
3595.00034,0.01127
3592.94017,0.01133
3590.88000,0.01154
3588.81983,0.01185
3586.75966,0.01180
3584.69948,0.01141
3582.63931,0.01138
3580.57914,0.01200
3578.51897,0.01298
3576.45879,0.01408
3574.39862,0.01499
3572.33845,0.01536
3570.27828,0.01541
3568.21811,0.01541
3566.15793,0.01551
3564.09776,0.01611
3562.03759,0.01702
3559.97742,0.01772
3557.91725,0.01810
3555.85707,0.01822
3553.79690,0.01820
3551.73673,0.01852
3549.67656,0.01933
3547.61639,0.01999
3545.55621,0.02022
3543.49604,0.02060
3541.43587,0.02130
3539.37570,0.02207
3537.31552,0.02262
3535.25535,0.02287
3533.19518,0.02311
3531.13501,0.02369
3529.07484,0.02456
3527.01466,0.02533
3524.95449,0.02575
3522.89432,0.02610
3520.83415,0.02649
3518.77398,0.02675
3516.71380,0.02698
3514.65363,0.02744
3512.59346,0.02813
3510.53329,0.02871
3508.47312,0.02903
3506.41294,0.02943
3504.35277,0.02996
3502.29260,0.03042
3500.23243,0.03102
3498.17225,0.03172
3496.11208,0.03212
3494.05191,0.03221
3491.99174,0.03230
3489.93157,0.03264
3487.87139,0.03304
3485.81122,0.03331
3483.75105,0.03375
3481.69088,0.03451
3479.63071,0.03511
3477.57053,0.03519
3475.51036,0.03512
3473.45019,0.03540
3471.39002,0.03594
3469.32984,0.03652
3467.26967,0.03723
3465.20950,0.03802
3463.14933,0.03863
3461.08916,0.03901
3459.02898,0.03929
3456.96881,0.03971
3454.90864,0.04036
3452.84847,0.04107
3450.78830,0.04175
3448.72812,0.04230
3446.66795,0.04260
3444.60778,0.04265
3442.54761,0.04263
3440.48744,0.04303
3438.42726,0.04395
3436.36709,0.04470
3434.30692,0.04493
3432.24675,0.04507
3430.18657,0.04550
3428.12640,0.04614
3426.06623,0.04663
3424.00606,0.04675
3421.94589,0.04674
3419.88571,0.04700
3417.82554,0.04759
3415.76537,0.04829
3413.70520,0.04895
3411.64503,0.04950
3409.58485,0.04979
3407.52468,0.04995
3405.46451,0.05039
3403.40434,0.05104
3401.34416,0.05138
3399.28399,0.05140
3397.22382,0.05147
3395.16365,0.05153
3393.10348,0.05149
3391.04330,0.05187
3388.98313,0.05283
3386.92296,0.05358
3384.86279,0.05356
3382.80262,0.05319
3380.74244,0.05317
3378.68227,0.05374
3376.62210,0.05471
3374.56193,0.05551
3372.50176,0.05575
3370.44158,0.05580
3368.38141,0.05594
3366.32124,0.05577
3364.26107,0.05535
3362.20089,0.05539
3360.14072,0.05606
3358.08055,0.05666
3356.02038,0.05686
3353.96021,0.05710
3351.90003,0.05755
3349.83986,0.05769
3347.77969,0.05752
3345.71952,0.05751
3343.65935,0.05768
3341.59917,0.05791
3339.53900,0.05828
3337.47883,0.05873
3335.41866,0.05899
3333.35849,0.05887
3331.29831,0.05866
3329.23814,0.05883
3327.17797,0.05944
3325.11780,0.05996
3323.05762,0.06001
3320.99745,0.05983
3318.93728,0.05983
3316.87711,0.05991
3314.81694,0.05964
3312.75676,0.05923
3310.69659,0.05932
3308.63642,0.05979
3306.57625,0.05994
3304.51608,0.05979
3302.45590,0.05999
3300.39573,0.06037
3298.33556,0.06035
3296.27539,0.06028
3294.21521,0.06046
3292.15504,0.06054
3290.09487,0.06049
3288.03470,0.06071
3285.97453,0.06116
3283.91435,0.06143
3281.85418,0.06145
3279.79401,0.06123
3277.73384,0.06094
3275.67367,0.06090
3273.61349,0.06113
3271.55332,0.06129
3269.49315,0.06112
3267.43298,0.06079
3265.37281,0.06057
3263.31263,0.06036
3261.25246,0.06021
3259.19229,0.06039
3257.13212,0.06063
3255.07194,0.06055
3253.01177,0.06028
3250.95160,0.05999
3248.89143,0.05977
3246.83126,0.05959
3244.77108,0.05943
3242.71091,0.05951
3240.65074,0.05970
3238.59057,0.05971
3236.53040,0.05968
3234.47022,0.05971
3232.41005,0.05955
3230.34988,0.05906
3228.28971,0.05859
3226.22954,0.05840
3224.16936,0.05826
3222.10919,0.05801
3220.04902,0.05776
3217.98885,0.05764
3215.92867,0.05774
3213.86850,0.05791
3211.80833,0.05785
3209.74816,0.05757
3207.68799,0.05718
3205.62781,0.05678
3203.56764,0.05657
3201.50747,0.05650
3199.44730,0.05630
3197.38713,0.05599
3195.32695,0.05571
3193.26678,0.05557
3191.20661,0.05549
3189.14644,0.05525
3187.08626,0.05491
3185.02609,0.05463
3182.96592,0.05430
3180.90575,0.05383
3178.84558,0.05360
3176.78540,0.05388
3174.72523,0.05427
3172.66506,0.05415
3170.60489,0.05342
3168.54472,0.05270
3166.48454,0.05267
3164.42437,0.05294
3162.36420,0.05282
3160.30403,0.05237
3158.24386,0.05199
3156.18368,0.05182
3154.12351,0.05169
3152.06334,0.05157
3150.00317,0.05136
3147.94299,0.05096
3145.88282,0.05050
3143.82265,0.05011
3141.76248,0.04989
3139.70231,0.04975
3137.64213,0.04961
3135.58196,0.04950
3133.52179,0.04927
3131.46162,0.04890
3129.40145,0.04848
3127.34127,0.04819
3125.28110,0.04810
3123.22093,0.04788
3121.16076,0.04752
3119.10058,0.04732
3117.04041,0.04714
3114.98024,0.04682
3112.92007,0.04644
3110.85990,0.04596
3108.79972,0.04546
3106.73955,0.04504
3104.67938,0.04464
3102.61921,0.04442
3100.55904,0.04441
3098.49886,0.04436
3096.43869,0.04409
3094.37852,0.04360
3092.31835,0.04323
3090.25818,0.04315
3088.19800,0.04320
3086.13783,0.04316
3084.07766,0.04304
3082.01749,0.04299
3079.95731,0.04272
3077.89714,0.04214
3075.83697,0.04163
3073.77680,0.04139
3071.71663,0.04140
3069.65645,0.04134
3067.59628,0.04106
3065.53611,0.04077
3063.47594,0.04050
3061.41577,0.04021
3059.35559,0.04000
3057.29542,0.03987
3055.23525,0.03976
3053.17508,0.03956
3051.11491,0.03933
3049.05473,0.03913
3046.99456,0.03889
3044.93439,0.03854
3042.87422,0.03796
3040.81404,0.03728
3038.75387,0.03683
3036.69370,0.03669
3034.63353,0.03670
3032.57336,0.03657
3030.51318,0.03609
3028.45301,0.03555
3026.39284,0.03529
3024.33267,0.03514
3022.27250,0.03483
3020.21232,0.03449
3018.15215,0.03435
3016.09198,0.03439
3014.03181,0.03438
3011.97163,0.03410
3009.91146,0.03377
3007.85129,0.03358
3005.79112,0.03338
3003.73095,0.03313
3001.67077,0.03310
2999.61060,0.03332
2997.55043,0.03345
2995.49026,0.03335
2993.43009,0.03313
2991.36991,0.03283
2989.30974,0.03256
2987.24957,0.03252
2985.18940,0.03273
2983.12923,0.03309
2981.06905,0.03346
2979.00888,0.03388
2976.94871,0.03446
2974.88854,0.03502
2972.82836,0.03541
2970.76819,0.03597
2968.70802,0.03673
2966.64785,0.03754
2964.58768,0.03876
2962.52750,0.04033
2960.46733,0.04170
2958.40716,0.04281
2956.34699,0.04407
2954.28682,0.04541
2952.22664,0.04649
2950.16647,0.04740
2948.10630,0.04858
2946.04613,0.05026
2943.98596,0.05245
2941.92578,0.05497
2939.86561,0.05771
2937.80544,0.06065
2935.74527,0.06354
2933.68509,0.06624
2931.62492,0.06873
2929.56475,0.07093
2927.50458,0.07306
2925.44441,0.07542
2923.38423,0.07789
2921.32406,0.08022
2919.26389,0.08197
2917.20372,0.08238
2915.14355,0.08061
2913.08337,0.07659
2911.02320,0.07186
2908.96303,0.06791
2906.90286,0.06477
2904.84268,0.06229
2902.78251,0.06041
2900.72234,0.05888
2898.66217,0.05747
2896.60200,0.05602
2894.54182,0.05457
2892.48165,0.05325
2890.42148,0.05200
2888.36131,0.05071
2886.30114,0.04942
2884.24096,0.04835
2882.18079,0.04751
2880.12062,0.04689
2878.06045,0.04654
2876.00028,0.04635
2873.94010,0.04624
2871.87993,0.04643
2869.81976,0.04695
2867.75959,0.04765
2865.69941,0.04874
2863.63924,0.05020
2861.57907,0.05195
2859.51890,0.05415
2857.45873,0.05665
2855.39855,0.05933
2853.33838,0.06231
2851.27821,0.06514
2849.21804,0.06600
2847.15787,0.06313
2845.09769,0.05762
2843.03752,0.05191
2840.97735,0.04726
2838.91718,0.04403
2836.85700,0.04186
2834.79683,0.04015
2832.73666,0.03870
2830.67649,0.03752
2828.61632,0.03659
2826.55614,0.03591
2824.49597,0.03539
2822.43580,0.03485
2820.37563,0.03427
2818.31546,0.03360
2816.25528,0.03289
2814.19511,0.03233
2812.13494,0.03209
2810.07477,0.03199
2808.01460,0.03166
2805.95442,0.03108
2803.89425,0.03072
2801.83408,0.03083
2799.77391,0.03099
2797.71373,0.03080
2795.65356,0.03026
2793.59339,0.02973
2791.53322,0.02958
2789.47305,0.02958
2787.41287,0.02927
2785.35270,0.02872
2783.29253,0.02837
2781.23236,0.02833
2779.17219,0.02833
2777.11201,0.02825
2775.05184,0.02814
2772.99167,0.02801
2770.93150,0.02790
2768.87133,0.02783
2766.81115,0.02764
2764.75098,0.02739
2762.69081,0.02730
2760.63064,0.02727
2758.57046,0.02722
2756.51029,0.02711
2754.45012,0.02679
2752.38995,0.02663
2750.32978,0.02672
2748.26960,0.02675
2746.20943,0.02678
2744.14926,0.02690
2742.08909,0.02686
2740.02892,0.02666
2737.96874,0.02640
2735.90857,0.02614
2733.84840,0.02591
2731.78823,0.02590
2729.72805,0.02609
2727.66788,0.02627
2725.60771,0.02633
2723.54754,0.02619
2721.48737,0.02590
2719.42719,0.02565
2717.36702,0.02555
2715.30685,0.02558
2713.24668,0.02553
2711.18651,0.02545
2709.12633,0.02545
2707.06616,0.02539
2705.00599,0.02522
2702.94582,0.02499
2700.88565,0.02485
2698.82547,0.02488
2696.76530,0.02486
2694.70513,0.02458
2692.64496,0.02433
2690.58478,0.02433
2688.52461,0.02449
2686.46444,0.02468
2684.40427,0.02477
2682.34410,0.02469
2680.28392,0.02440
2678.22375,0.02409
2676.16358,0.02396
2674.10341,0.02382
2672.04324,0.02368
2669.98306,0.02360
2667.92289,0.02345
2665.86272,0.02343
2663.80255,0.02354
2661.74238,0.02339
2659.68220,0.02316
2657.62203,0.02308
2655.56186,0.02309
2653.50169,0.02302
2651.44151,0.02271
2649.38134,0.02227
2647.32117,0.02195
2645.26100,0.02180
2643.20083,0.02178
2641.14065,0.02195
2639.08048,0.02202
2637.02031,0.02173
2634.96014,0.02132
2632.89997,0.02099
2630.83979,0.02086
2628.77962,0.02110
2626.71945,0.02132
2624.65928,0.02110
2622.59910,0.02077
2620.53893,0.02068
2618.47876,0.02058
2616.41859,0.02045
2614.35842,0.02067
2612.29824,0.02098
2610.23807,0.02076
2608.17790,0.02026
2606.11773,0.01993
2604.05756,0.01991
2601.99738,0.02001
2599.93721,0.01984
2597.87704,0.01921
2595.81687,0.01866
2593.75670,0.01877
2591.69652,0.01901
2589.63635,0.01881
2587.57618,0.01856
2585.51601,0.01847
2583.45583,0.01863
2581.39566,0.01918
2579.33549,0.01938
2577.27532,0.01883
2575.21515,0.01838
2573.15497,0.01813
2571.09480,0.01791
2569.03463,0.01807
2566.97446,0.01832
2564.91429,0.01829
2562.85411,0.01807
2560.79394,0.01780
2558.73377,0.01763
2556.67360,0.01762
2554.61342,0.01764
2552.55325,0.01717
2550.49308,0.01664
2548.43291,0.01665
2546.37274,0.01666
2544.31256,0.01642
2542.25239,0.01626
2540.19222,0.01632
2538.13205,0.01647
2536.07188,0.01659
2534.01170,0.01672
2531.95153,0.01679
2529.89136,0.01679
2527.83119,0.01671
2525.77102,0.01637
2523.71084,0.01610
2521.65067,0.01620
2519.59050,0.01621
2517.53033,0.01615
2515.47015,0.01619
2513.40998,0.01630
2511.34981,0.01658
2509.28964,0.01674
2507.22947,0.01649
2505.16929,0.01614
2503.10912,0.01600
2501.04895,0.01609
2498.98878,0.01611
2496.92861,0.01593
2494.86843,0.01570
2492.80826,0.01534
2490.74809,0.01504
2488.68792,0.01463
2486.62775,0.01410
2484.56757,0.01392
2482.50740,0.01398
2480.44723,0.01407
2478.38706,0.01408
2476.32688,0.01415
2474.26671,0.01448
2472.20654,0.01457
2470.14637,0.01436
2468.08620,0.01416
2466.02602,0.01384
2463.96585,0.01378
2461.90568,0.01405
2459.84551,0.01410
2457.78534,0.01398
2455.72516,0.01378
2453.66499,0.01347
2451.60482,0.01341
2449.54465,0.01365
2447.48447,0.01377
2445.42430,0.01383
2443.36413,0.01395
2441.30396,0.01391
2439.24379,0.01354
2437.18361,0.01285
2435.12344,0.01232
2433.06327,0.01226
2431.00310,0.01241
2428.94293,0.01267
2426.88275,0.01308
2424.82258,0.01321
2422.76241,0.01287
2420.70224,0.01244
2418.64207,0.01227
2416.58189,0.01248
2414.52172,0.01284
2412.46155,0.01285
2410.40138,0.01262
2408.34120,0.01233
2406.28103,0.01202
2404.22086,0.01186
2402.16069,0.01174
2400.10052,0.01175
2398.04034,0.01181
2395.98017,0.01177
2393.92000,0.01166
2391.85983,0.01168
2389.79966,0.01184
2387.73948,0.01192
2385.67931,0.01192
2383.61914,0.01198
2381.55897,0.01208
2379.49880,0.01209
2377.43862,0.01193
2375.37845,0.01151
2373.31828,0.01093
2371.25811,0.01019
2369.19793,0.00922
2367.13776,0.00925
2365.07759,0.01096
2363.01742,0.01216
2360.95725,0.01257
2358.89707,0.01262
2356.83690,0.01178
2354.77673,0.01019
2352.71656,0.00993
2350.65639,0.01196
2348.59621,0.01348
2346.53604,0.01251
2344.47587,0.01237
2342.41570,0.01277
2340.35552,0.01281
2338.29535,0.01268
2336.23518,0.01232
2334.17501,0.01231
2332.11484,0.01267
2330.05466,0.01286
2327.99449,0.01294
2325.93432,0.01358
2323.87415,0.01339
2321.81398,0.01210
2319.75380,0.01063
2317.69363,0.01014
2315.63346,0.01024
2313.57329,0.01052
2311.51312,0.01091
2309.45294,0.01134
2307.39277,0.01145
2305.33260,0.01110
2303.27243,0.01075
2301.21225,0.01071
2299.15208,0.01098
2297.09191,0.01125
2295.03174,0.01128
2292.97157,0.01131
2290.91139,0.01143
2288.85122,0.01132
2286.79105,0.01073
2284.73088,0.00998
2282.67071,0.00958
2280.61053,0.00944
2278.55036,0.00941
2276.49019,0.00976
2274.43002,0.01048
2272.36984,0.01081
2270.30967,0.01030
2268.24950,0.00974
2266.18933,0.00984
2264.12916,0.00990
2262.06898,0.00946
2260.00881,0.00909
2257.94864,0.00909
2255.88847,0.00895
2253.82830,0.00850
2251.76812,0.00852
2249.70795,0.00941
2247.64778,0.01014
2245.58761,0.01002
2243.52744,0.00955
2241.46726,0.00888
2239.40709,0.00814
2237.34692,0.00796
2235.28675,0.00864
2233.22657,0.00907
2231.16640,0.00872
2229.10623,0.00841
2227.04606,0.00780
2224.98589,0.00679
2222.92571,0.00672
2220.86554,0.00717
2218.80537,0.00676
2216.74520,0.00639
2214.68503,0.00732
2212.62485,0.00859
2210.56468,0.00866
2208.50451,0.00786
2206.44434,0.00782
2204.38417,0.00869
2202.32399,0.00915
2200.26382,0.00869
2198.20365,0.00808
2196.14348,0.00848
2194.08330,0.00936
2192.02313,0.00987
2189.96296,0.00986
2187.90279,0.00846
2185.84262,0.00643
2183.78244,0.00482
2181.72227,0.00330
2179.66210,0.00375
2177.60193,0.00649
2175.54176,0.00803
2173.48158,0.00735
2171.42141,0.00654
2169.36124,0.00683
2167.30107,0.00781
2165.24089,0.00841
2163.18072,0.00745
2161.12055,0.00483
2159.06038,0.00307
2157.00021,0.00339
2154.94003,0.00383
2152.87986,0.00378
2150.81969,0.00361
2148.75952,0.00389
2146.69935,0.00459
2144.63917,0.00479
2142.57900,0.00479
2140.51883,0.00500
2138.45866,0.00522
2136.39849,0.00553
2134.33831,0.00580
2132.27814,0.00584
2130.21797,0.00589
2128.15780,0.00621
2126.09762,0.00644
2124.03745,0.00642
2121.97728,0.00672
2119.91711,0.00741
2117.85694,0.00749
2115.79676,0.00708
2113.73659,0.00734
2111.67642,0.00806
2109.61625,0.00828
2107.55608,0.00780
2105.49590,0.00690
2103.43573,0.00652
2101.37556,0.00708
2099.31539,0.00725
2097.25521,0.00708
2095.19504,0.00779
2093.13487,0.00833
2091.07470,0.00772
2089.01453,0.00759
2086.95435,0.00822
2084.89418,0.00828
2082.83401,0.00808
2080.77384,0.00808
2078.71367,0.00806
2076.65349,0.00821
2074.59332,0.00862
2072.53315,0.00857
2070.47298,0.00783
2068.41281,0.00691
2066.35263,0.00596
2064.29246,0.00552
2062.23229,0.00587
2060.17212,0.00655
2058.11194,0.00678
2056.05177,0.00642
2053.99160,0.00650
2051.93143,0.00702
2049.87126,0.00715
2047.81108,0.00676
2045.75091,0.00591
2043.69074,0.00507
2041.63057,0.00467
2039.57040,0.00477
2037.51022,0.00523
2035.45005,0.00556
2033.38988,0.00604
2031.32971,0.00647
2029.26954,0.00632
2027.20936,0.00617
2025.14919,0.00538
2023.08902,0.00379
2021.02885,0.00295
2018.96867,0.00343
2016.90850,0.00440
2014.84833,0.00543
2012.78816,0.00674
2010.72799,0.00723
2008.66781,0.00620
2006.60764,0.00503
2004.54747,0.00443
2002.48730,0.00387
2000.42713,0.00334
1998.36695,0.00351
1996.30678,0.00438
1994.24661,0.00597
1992.18644,0.00770
1990.12626,0.00754
1988.06609,0.00607
1986.00592,0.00554
1983.94575,0.00550
1981.88558,0.00473
1979.82540,0.00330
1977.76523,0.00139
1975.70506,0.00000
1973.64489,0.00059
1971.58472,0.00259
1969.52454,0.00403
1967.46437,0.00416
1965.40420,0.00391
1963.34403,0.00391
1961.28386,0.00363
1959.22368,0.00329
1957.16351,0.00325
1955.10334,0.00328
1953.04317,0.00353
1950.98299,0.00381
1948.92282,0.00372
1946.86265,0.00348
1944.80248,0.00377
1942.74231,0.00448
1940.68213,0.00458
1938.62196,0.00406
1936.56179,0.00391
1934.50162,0.00400
1932.44145,0.00395
1930.38127,0.00427
1928.32110,0.00499
1926.26093,0.00537
1924.20076,0.00484
1922.14059,0.00417
1920.08041,0.00408
1918.02024,0.00412
1915.96007,0.00388
1913.89990,0.00346
1911.83972,0.00326
1909.77955,0.00324
1907.71938,0.00336
1905.65921,0.00384
1903.59904,0.00399
1901.53886,0.00353
1899.47869,0.00315
1897.41852,0.00296
1895.35835,0.00282
1893.29818,0.00284
1891.23800,0.00292
1889.17783,0.00285
1887.11766,0.00259
1885.05749,0.00231
1882.99731,0.00218
1880.93714,0.00230
1878.87697,0.00271
1876.81680,0.00321
1874.75663,0.00335
1872.69645,0.00312
1870.63628,0.00286
1868.57611,0.00257
1866.51594,0.00227
1864.45577,0.00199
1862.39559,0.00172
1860.33542,0.00152
1858.27525,0.00146
1856.21508,0.00150
1854.15491,0.00154
1852.09473,0.00152
1850.03456,0.00151
1847.97439,0.00162
1845.91422,0.00150
1843.85404,0.00098
1841.79387,0.00058
1839.73370,0.00060
1837.67353,0.00074
1835.61336,0.00069
1833.55318,0.00046
1831.49301,0.00036
1829.43284,0.00059
1827.37267,0.00081
1825.31250,0.00070
1823.25232,0.00033
1821.19215,0.00000
1819.13198,-0.00006
1817.07181,0.00009
1815.01163,0.00012
1812.95146,0.00004
1810.89129,0.00004
1808.83112,0.00004
1806.77095,-0.00010
1804.71077,-0.00026
1802.65060,-0.00029
1800.59043,-0.00018
1798.53026,-0.00009
1796.47009,-0.00012
1794.40991,-0.00005
1792.34974,0.00004
1790.28957,-0.00009
1788.22940,-0.00017
1786.16923,-0.00001
1784.10905,0.00010
1782.04888,0.00000
1779.98871,-0.00014
1777.92854,-0.00017
1775.86836,-0.00021
1773.80819,-0.00010
1771.74802,0.00006
1769.68785,0.00007
1767.62768,0.00017
1765.56750,0.00060
1763.50733,0.00124
1761.44716,0.00194
1759.38699,0.00277
1757.32682,0.00374
1755.26664,0.00469
1753.20647,0.00567
1751.14630,0.00695
1749.08613,0.00879
1747.02596,0.01129
1744.96578,0.01453
1742.90561,0.01846
1740.84544,0.02316
1738.78527,0.02820
1736.72509,0.03244
1734.66492,0.03600
1732.60475,0.03925
1730.54458,0.04122
1728.48441,0.04185
1726.42423,0.04165
1724.36406,0.04096
1722.30389,0.04027
1720.24372,0.03984
1718.18355,0.03921
1716.12337,0.03840
1714.06320,0.03808
1712.00303,0.03817
1709.94286,0.03817
1707.88268,0.03774
1705.82251,0.03687
1703.76234,0.03607
1701.70217,0.03522
1699.64200,0.03362
1697.58182,0.03186
1695.52165,0.03081
1693.46148,0.03040
1691.40131,0.03019
1689.34114,0.02993
1687.28096,0.02969
1685.22079,0.02930
1683.16062,0.02871
1681.10045,0.02856
1679.04028,0.02875
1676.98010,0.02875
1674.91993,0.02853
1672.85976,0.02861
1670.79959,0.02906
1668.73941,0.02956
1666.67924,0.03030
1664.61907,0.03140
1662.55890,0.03260
1660.49873,0.03376
1658.43855,0.03497
1656.37838,0.03628
1654.31821,0.03742
1652.25804,0.03812
1650.19787,0.03854
1648.13769,0.03887
1646.07752,0.03906
1644.01735,0.03922
1641.95718,0.03959
1639.89701,0.04020
1637.83683,0.04082
1635.77666,0.04126
1633.71649,0.04187
1631.65632,0.04276
1629.59614,0.04366
1627.53597,0.04435
1625.47580,0.04493
1623.41563,0.04554
1621.35546,0.04629
1619.29528,0.04725
1617.23511,0.04841
1615.17494,0.04961
1613.11477,0.05062
1611.05460,0.05140
1608.99442,0.05198
1606.93425,0.05241
1604.87408,0.05266
1602.81391,0.05246
1600.75373,0.05178
1598.69356,0.05080
1596.63339,0.04952
1594.57322,0.04783
1592.51305,0.04588
1590.45287,0.04388
1588.39270,0.04189
1586.33253,0.03995
1584.27236,0.03811
1582.21219,0.03636
1580.15201,0.03466
1578.09184,0.03278
1576.03167,0.03050
1573.97150,0.02865
1571.91133,0.02750
1569.85115,0.02637
1567.79098,0.02521
1565.73081,0.02441
1563.67064,0.02404
1561.61046,0.02394
1559.55029,0.02319
1557.49012,0.02164
1555.42995,0.02115
1553.36978,0.02177
1551.30960,0.02242
1549.24943,0.02246
1547.18926,0.02213
1545.12909,0.02192
1543.06892,0.02188
1541.00874,0.02180
1538.94857,0.02155
1536.88840,0.02125
1534.82823,0.02072
1532.76805,0.02000
1530.70788,0.01957
1528.64771,0.01916
1526.58754,0.01828
1524.52737,0.01737
1522.46719,0.01685
1520.40702,0.01674
1518.34685,0.01702
1516.28668,0.01730
1514.22651,0.01727
1512.16633,0.01703
1510.10616,0.01658
1508.04599,0.01541
1505.98582,0.01338
1503.92565,0.01173
1501.86547,0.01072
1499.80530,0.00976
1497.74513,0.00848
1495.68496,0.00717
1493.62478,0.00624
1491.56461,0.00526
1489.50444,0.00392
1487.44427,0.00293
1485.38410,0.00258
1483.32392,0.00246
1481.26375,0.00254
1479.20358,0.00312
1477.14341,0.00445
1475.08324,0.00669
1473.02306,0.00974
1470.96289,0.01293
1468.90272,0.01575
1466.84255,0.01861
1464.78238,0.02160
1462.72220,0.02381
1460.66203,0.02475
1458.60186,0.02531
1456.54169,0.02665
1454.48151,0.02850
1452.42134,0.03001
1450.36117,0.03120
1448.30100,0.03228
1446.24083,0.03326
1444.18065,0.03405
1442.12048,0.03452
1440.06031,0.03442
1438.00014,0.03335
1435.93997,0.03139
1433.87979,0.02960
1431.81962,0.02824
1429.75945,0.02691
1427.69928,0.02577
1425.63910,0.02506
1423.57893,0.02468
1421.51876,0.02455
1419.45859,0.02447
1417.39842,0.02438
1415.33824,0.02436
1413.27807,0.02428
1411.21790,0.02402
1409.15773,0.02370
1407.09756,0.02339
1405.03738,0.02312
1402.97721,0.02295
1400.91704,0.02292
1398.85687,0.02301
1396.79670,0.02324
1394.73652,0.02358
1392.67635,0.02398
1390.61618,0.02449
1388.55601,0.02517
1386.49583,0.02600
1384.43566,0.02687
1382.37549,0.02778
1380.31532,0.02874
1378.25515,0.02966
1376.19497,0.03052
1374.13480,0.03138
1372.07463,0.03221
1370.01446,0.03293
1367.95429,0.03352
1365.89411,0.03395
1363.83394,0.03415
1361.77377,0.03421
1359.71360,0.03440
1357.65343,0.03477
1355.59325,0.03518
1353.53308,0.03561
1351.47291,0.03616
1349.41274,0.03672
1347.35256,0.03712
1345.29239,0.03732
1343.23222,0.03751
1341.17205,0.03782
1339.11188,0.03831
1337.05170,0.03890
1334.99153,0.03949
1332.93136,0.04009
1330.87119,0.04076
1328.81102,0.04149
1326.75084,0.04221
1324.69067,0.04294
1322.63050,0.04365
1320.57033,0.04412
1318.51015,0.04425
1316.44998,0.04412
1314.38981,0.04376
1312.32964,0.04319
1310.26947,0.04252
1308.20929,0.04162
1306.14912,0.04023
1304.08895,0.03843
1302.02878,0.03643
1299.96861,0.03429
1297.90843,0.03208
1295.84826,0.03001
1293.78809,0.02830
1291.72792,0.02702
1289.66775,0.02609
1287.60757,0.02543
1285.54740,0.02498
1283.48723,0.02462
1281.42706,0.02429
1279.36688,0.02417
1277.30671,0.02421
1275.24654,0.02418
1273.18637,0.02429
1271.12620,0.02475
1269.06602,0.02542
1267.00585,0.02621
1264.94568,0.02703
1262.88551,0.02782
1260.82534,0.02854
1258.76516,0.02913
1256.70499,0.02974
1254.64482,0.03050
1252.58465,0.03135
1250.52447,0.03222
1248.46430,0.03308
1246.40413,0.03378
1244.34396,0.03435
1242.28379,0.03501
1240.22361,0.03593
1238.16344,0.03700
1236.10327,0.03789
1234.04310,0.03861
1231.98293,0.03939
1229.92275,0.04023
1227.86258,0.04098
1225.80241,0.04178
1223.74224,0.04278
1221.68207,0.04381
1219.62189,0.04470
1217.56172,0.04555
1215.50155,0.04635
1213.44138,0.04714
1211.38120,0.04796
1209.32103,0.04877
1207.26086,0.04974
1205.20069,0.05093
1203.14052,0.05206
1201.08034,0.05298
1199.02017,0.05370
1196.96000,0.05424
1194.89983,0.05445
1192.83966,0.05410
1190.77948,0.05336
1188.71931,0.05243
1186.65914,0.05145
1184.59897,0.05062
1182.53880,0.04975
1180.47862,0.04879
1178.41845,0.04816
1176.35828,0.04797
1174.29811,0.04784
1172.23793,0.04770
1170.17776,0.04774
1168.11759,0.04768
1166.05742,0.04725
1163.99725,0.04656
1161.93707,0.04568
1159.87690,0.04460
1157.81673,0.04362
1155.75656,0.04288
1153.69639,0.04214
1151.63621,0.04124
1149.57604,0.04034
1147.51587,0.03949
1145.45570,0.03846
1143.39552,0.03722
1141.33535,0.03595
1139.27518,0.03470
1137.21501,0.03362
1135.15484,0.03297
1133.09466,0.03265
1131.03449,0.03243
1128.97432,0.03259
1126.91415,0.03326
1124.85398,0.03431
1122.79380,0.03589
1120.73363,0.03803
1118.67346,0.04028
1116.61329,0.04248
1114.55312,0.04506
1112.49294,0.04823
1110.43277,0.05167
1108.37260,0.05496
1106.31243,0.05809
1104.25225,0.06112
1102.19208,0.06362
1100.13191,0.06544
1098.07174,0.06699
1096.01157,0.06834
1093.95139,0.06967
1091.89122,0.07112
1089.83105,0.07269
1087.77088,0.07463
1085.71071,0.07669
1083.65053,0.07860
1081.59036,0.08069
1079.53019,0.08303
1077.47002,0.08539
1075.40985,0.08762
1073.34967,0.08942
1071.28950,0.09072
1069.22933,0.09180
1067.16916,0.09303
1065.10898,0.09438
1063.04881,0.09567
1060.98864,0.09686
1058.92847,0.09814
1056.86830,0.09976
1054.80812,0.10163
1052.74795,0.10350
1050.68778,0.10511
1048.62761,0.10661
1046.56744,0.10812
1044.50726,0.10974
1042.44709,0.11151
1040.38692,0.11332
1038.32675,0.11525
1036.26657,0.11733
1034.20640,0.11954
1032.14623,0.12189
1030.08606,0.12392
1028.02589,0.12503
1025.96571,0.12558
1023.90554,0.12609
1021.84537,0.12628
1019.78520,0.12609
1017.72503,0.12573
1015.66485,0.12505
1013.60468,0.12400
1011.54451,0.12264
1009.48434,0.12090
1007.42417,0.11867
1005.36399,0.11632
1003.30382,0.11388
1001.24365,0.11103
999.18348,0.10800
997.12330,0.10510
995.06313,0.10227
993.00296,0.09930
990.94279,0.09606
988.88262,0.09246
986.82244,0.08859
984.76227,0.08481
982.70210,0.08130
980.64193,0.07786
978.58176,0.07440
976.52158,0.07109
974.46141,0.06813
972.40124,0.06550
970.34107,0.06329
968.28089,0.06141
966.22072,0.05936
964.16055,0.05732
962.10038,0.05557
960.04021,0.05378
957.98003,0.05184
955.91986,0.04960
953.85969,0.04708
951.79952,0.04451
949.73935,0.04198
947.67917,0.03944
945.61900,0.03679
943.55883,0.03417
941.49866,0.03193
939.43849,0.03058
937.37831,0.02976
935.31814,0.02873
933.25797,0.02783
931.19780,0.02731
929.13762,0.02652
927.07745,0.02525
925.01728,0.02406
922.95711,0.02299
920.89694,0.02177
918.83676,0.02071
916.77659,0.01955
914.71642,0.01796
912.65625,0.01639
910.59608,0.01502
908.53590,0.01355
906.47573,0.01195
904.41556,0.01077
902.35539,0.01051
900.29522,0.01070
898.23504,0.01064
896.17487,0.01029
894.11470,0.01000
892.05453,0.01011
889.99435,0.01054
887.93418,0.01060
885.87401,0.00993
883.81384,0.00896
881.75367,0.00838
879.69349,0.00828
877.63332,0.00848
875.57315,0.00919
873.51298,0.00991
871.45281,0.00996
869.39263,0.00977
867.33246,0.00965
865.27229,0.00904
863.21212,0.00765
861.15194,0.00591
859.09177,0.00435
857.03160,0.00326
854.97143,0.00199
852.91126,0.00051
850.85108,0.00000
848.79091,0.00016
846.73074,0.00014
844.67057,0.00015
842.61040,0.00033
840.55022,0.00059
838.49005,0.00133
836.42988,0.00236
834.36971,0.00278
832.30954,0.00274
830.24936,0.00271
828.18919,0.00291
826.12902,0.00325
824.06885,0.00335
822.00867,0.00380
819.94850,0.00489
817.88833,0.00572
815.82816,0.00542
813.76799,0.00445
811.70781,0.00425
809.64764,0.00459
807.58747,0.00412
805.52730,0.00291
803.46713,0.00197
801.40695,0.00157
799.34678,0.00114
797.28661,0.00047
795.22644,0.00000
793.16627,-0.00006
791.10609,0.00085
789.04592,0.00145
786.98575,0.00156
784.92558,0.00220
782.86540,0.00323
780.80523,0.00421
778.74506,0.00467
776.68489,0.00425
774.62472,0.00393
772.56454,0.00453
770.50437,0.00584
768.44420,0.00744
766.38403,0.00916
764.32386,0.01124
762.26368,0.01344
760.20351,0.01533
758.14334,0.01661
756.08317,0.01714
754.02299,0.01692
751.96282,0.01574
749.90265,0.01407
747.84248,0.01230
745.78231,0.01041
743.72213,0.00904
741.66196,0.00810
739.60179,0.00729
737.54162,0.00669
735.48145,0.00652
733.42127,0.00698
731.36110,0.00760
729.30093,0.00765
727.24076,0.00701
725.18059,0.00625
723.12041,0.00619
721.06024,0.00670
719.00007,0.00752
716.93990,0.00727
714.87972,0.00568
712.81955,0.00430
710.75938,0.00442
708.69921,0.00508
706.63904,0.00483
704.57886,0.00425
702.51869,0.00442
700.45852,0.00463
698.39835,0.00378
696.33818,0.00247
694.27800,0.00205
692.21783,0.00247
690.15766,0.00235
688.09749,0.00132
686.03731,0.00070
683.97714,0.00090
681.91697,0.00093
679.85680,0.00036
677.79663,-0.00057
675.73645,-0.00092
673.67628,0.00041
671.61611,0.00279
669.55594,0.00322
667.49577,0.00317
665.43559,0.00600
663.37542,0.00543
661.31525,0.00438
659.25508,0.00378
657.19491,0.00340
655.13473,0.00368
653.07456,0.00485
651.01439,0.00561
648.95422,0.00430
646.89404,0.00170
644.83387,0.00000
642.77370,0.00018
640.71353,0.00155
638.65336,0.00201
636.59318,0.00120
634.53301,0.00069
632.47284,0.00128
630.41267,0.00236
628.35250,0.00309
626.29232,0.00325
624.23215,0.00250
622.17198,-0.00030
620.11181,-0.00371
618.05164,-0.00329
615.99146,0.00185
613.93129,0.00521
611.87112,0.00421
609.81095,0.00104
607.75077,-0.00074
605.69060,0.00170
603.63043,0.00336
601.57026,0.00132
599.51009,0.00000
