3996.73391,-0.00007
3994.67373,0.00011
3992.61356,0.00033
3990.55339,0.00029
3988.49322,0.00017
3986.43305,0.00012
3984.37287,0.00005
3982.31270,-0.00012
3980.25253,-0.00029
3978.19236,-0.00018
3976.13219,0.00010
3974.07201,0.00023
3972.01184,0.00028
3969.95167,0.00036
3967.89150,0.00032
3965.83133,0.00027
3963.77115,0.00045
3961.71098,0.00064
3959.65081,0.00051
3957.59064,0.00016
3955.53046,0.00000
3953.47029,0.00023
3951.41012,0.00072
3949.34995,0.00105
3947.28978,0.00101
3945.22960,0.00069
3943.16943,0.00031
3941.10926,0.00008
3939.04909,0.00001
3936.98892,0.00016
3934.92874,0.00070
3932.86857,0.00124
3930.80840,0.00125
3928.74823,0.00091
3926.68805,0.00047
3924.62788,0.00009
3922.56771,-0.00004
3920.50754,0.00000
3918.44737,0.00008
3916.38719,0.00029
3914.32702,0.00060
3912.26685,0.00093
3910.20668,0.00118
3908.14651,0.00126
3906.08633,0.00133
3904.02616,0.00150
3901.96599,0.00152
3899.90582,0.00131
3897.84565,0.00128
3895.78547,0.00138
3893.72530,0.00112
3891.66513,0.00046
3889.60496,0.00000
3887.54478,0.00003
3885.48461,0.00049
3883.42444,0.00112
3881.36427,0.00136
3879.30410,0.00117
3877.24392,0.00114
3875.18375,0.00157
3873.12358,0.00233
3871.06341,0.00295
3869.00324,0.00285
3866.94306,0.00211
3864.88289,0.00152
3862.82272,0.00144
3860.76255,0.00141
3858.70237,0.00101
3856.64220,0.00053
3854.58203,0.00048
3852.52186,0.00081
3850.46169,0.00095
3848.40151,0.00097
3846.34134,0.00114
3844.28117,0.00115
3842.22100,0.00084
3840.16083,0.00093
3838.10065,0.00158
3836.04048,0.00177
3833.98031,0.00137
3831.92014,0.00107
3829.85997,0.00102
3827.79979,0.00095
3825.73962,0.00093
3823.67945,0.00125
3821.61928,0.00181
3819.55910,0.00191
3817.49893,0.00145
3815.43876,0.00118
3813.37859,0.00150
3811.31842,0.00190
3809.25824,0.00190
3807.19807,0.00180
3805.13790,0.00192
3803.07773,0.00199
3801.01756,0.00197
3798.95738,0.00222
3796.89721,0.00254
3794.83704,0.00249
3792.77687,0.00212
3790.71670,0.00163
3788.65652,0.00100
3786.59635,0.00036
3784.53618,0.00010
3782.47601,0.00031
3780.41583,0.00073
3778.35566,0.00116
3776.29549,0.00139
3774.23532,0.00135
3772.17515,0.00124
3770.11497,0.00129
3768.05480,0.00144
3765.99463,0.00146
3763.93446,0.00137
3761.87429,0.00132
3759.81411,0.00123
3757.75394,0.00102
3755.69377,0.00079
3753.63360,0.00068
3751.57342,0.00096
3749.51325,0.00175
3747.45308,0.00226
3745.39291,0.00185
3743.33274,0.00089
3741.27256,0.00038
3739.21239,0.00057
3737.15222,0.00088
3735.09205,0.00107
3733.03188,0.00140
3730.97170,0.00173
3728.91153,0.00168
3726.85136,0.00135
3724.79119,0.00085
3722.73102,0.00023
3720.67084,0.00000
3718.61067,0.00055
3716.55050,0.00143
3714.49033,0.00184
3712.43015,0.00174
3710.36998,0.00177
3708.30981,0.00170
3706.24964,0.00129
3704.18947,0.00090
3702.12929,0.00101
3700.06912,0.00151
3698.00895,0.00188
3695.94878,0.00209
3693.88861,0.00232
3691.82843,0.00271
3689.76826,0.00291
3687.70809,0.00260
3685.64792,0.00192
3683.58775,0.00134
3681.52757,0.00135
3679.46740,0.00211
3677.40723,0.00281
3675.34706,0.00265
3673.28688,0.00194
3671.22671,0.00138
3669.16654,0.00121
3667.10637,0.00137
3665.04620,0.00151
3662.98602,0.00149
3660.92585,0.00167
3658.86568,0.00227
3656.80551,0.00287
3654.74534,0.00318
3652.68516,0.00341
3650.62499,0.00330
3648.56482,0.00243
3646.50465,0.00195
3644.44447,0.00256
3642.38430,0.00337
3640.32413,0.00379
3638.26396,0.00395
3636.20379,0.00409
3634.14361,0.00415
3632.08344,0.00374
3630.02327,0.00319
3627.96310,0.00380
3625.90293,0.00511
3623.84275,0.00590
3621.78258,0.00635
3619.72241,0.00663
3617.66224,0.00663
3615.60207,0.00692
3613.54189,0.00777
3611.48172,0.00837
3609.42155,0.00826
3607.36138,0.00793
3605.30120,0.00801
3603.24103,0.00865
3601.18086,0.00945
3599.12069,0.00989
3597.06052,0.00981
3595.00034,0.00987
3592.94017,0.01045
3590.88000,0.01120
3588.81983,0.01150
3586.75966,0.01125
3584.69948,0.01120
3582.63931,0.01193
3580.57914,0.01304
3578.51897,0.01377
3576.45879,0.01400
3574.39862,0.01429
3572.33845,0.01495
3570.27828,0.01573
3568.21811,0.01644
3566.15793,0.01691
3564.09776,0.01700
3562.03759,0.01688
3559.97742,0.01687
3557.91725,0.01726
3555.85707,0.01793
3553.79690,0.01870
3551.73673,0.01938
3549.67656,0.01973
3547.61639,0.01991
3545.55621,0.02017
3543.49604,0.02058
3541.43587,0.02124
3539.37570,0.02205
3537.31552,0.02270
3535.25535,0.02282
3533.19518,0.02272
3531.13501,0.02310
3529.07484,0.02408
3527.01466,0.02508
3524.95449,0.02539
3522.89432,0.02527
3520.83415,0.02552
3518.77398,0.02617
3516.71380,0.02688
3514.65363,0.02759
3512.59346,0.02827
3510.53329,0.02878
3508.47312,0.02906
3506.41294,0.02909
3504.35277,0.02899
3502.29260,0.02895
3500.23243,0.02934
3498.17225,0.03045
3496.11208,0.03180
3494.05191,0.03271
3491.99174,0.03327
3489.93157,0.03378
3487.87139,0.03417
3485.81122,0.03432
3483.75105,0.03449
3481.69088,0.03487
3479.63071,0.03513
3477.57053,0.03527
3475.51036,0.03565
3473.45019,0.03636
3471.39002,0.03710
3469.32984,0.03756
3467.26967,0.03781
3465.20950,0.03811
3463.14933,0.03865
3461.08916,0.03943
3459.02898,0.04024
3456.96881,0.04070
3454.90864,0.04079
3452.84847,0.04098
3450.78830,0.04137
3448.72812,0.04153
3446.66795,0.04156
3444.60778,0.04190
3442.54761,0.04262
3440.48744,0.04346
3438.42726,0.04406
3436.36709,0.04444
3434.30692,0.04489
3432.24675,0.04536
3430.18657,0.04565
3428.12640,0.04584
3426.06623,0.04617
3424.00606,0.04681
3421.94589,0.04738
3419.88571,0.04749
3417.82554,0.04743
3415.76537,0.04752
3413.70520,0.04807
3411.64503,0.04907
3409.58485,0.04988
3407.52468,0.05035
3405.46451,0.05079
3403.40434,0.05098
3401.34416,0.05085
3399.28399,0.05097
3397.22382,0.05148
3395.16365,0.05210
3393.10348,0.05277
3391.04330,0.05314
3388.98313,0.05301
3386.92296,0.05301
3384.86279,0.05343
3382.80262,0.05386
3380.74244,0.05406
3378.68227,0.05419
3376.62210,0.05455
3374.56193,0.05488
3372.50176,0.05496
3370.44158,0.05532
3368.38141,0.05610
3366.32124,0.05647
3364.26107,0.05616
3362.20089,0.05573
3360.14072,0.05577
3358.08055,0.05635
3356.02038,0.05719
3353.96021,0.05781
3351.90003,0.05781
3349.83986,0.05768
3347.77969,0.05786
3345.71952,0.05803
3343.65935,0.05792
3341.59917,0.05764
3339.53900,0.05762
3337.47883,0.05795
3335.41866,0.05822
3333.35849,0.05839
3331.29831,0.05880
3329.23814,0.05939
3327.17797,0.05978
3325.11780,0.05976
3323.05762,0.05945
3320.99745,0.05938
3318.93728,0.05981
3316.87711,0.06024
3314.81694,0.06037
3312.75676,0.06026
3310.69659,0.06012
3308.63642,0.06027
3306.57625,0.06060
3304.51608,0.06073
3302.45590,0.06054
3300.39573,0.06023
3298.33556,0.06028
3296.27539,0.06082
3294.21521,0.06111
3292.15504,0.06080
3290.09487,0.06048
3288.03470,0.06056
3285.97453,0.06080
3283.91435,0.06088
3281.85418,0.06091
3279.79401,0.06098
3277.73384,0.06081
3275.67367,0.06058
3273.61349,0.06071
3271.55332,0.06098
3269.49315,0.06111
3267.43298,0.06095
3265.37281,0.06045
3263.31263,0.05997
3261.25246,0.05985
3259.19229,0.05999
3257.13212,0.06007
3255.07194,0.05996
3253.01177,0.05983
3250.95160,0.05986
3248.89143,0.06002
3246.83126,0.06006
3244.77108,0.05988
3242.71091,0.05954
3240.65074,0.05929
3238.59057,0.05903
3236.53040,0.05863
3234.47022,0.05846
3232.41005,0.05845
3230.34988,0.05815
3228.28971,0.05774
3226.22954,0.05770
3224.16936,0.05796
3222.10919,0.05816
3220.04902,0.05809
3217.98885,0.05778
3215.92867,0.05748
3213.86850,0.05742
3211.80833,0.05730
3209.74816,0.05706
3207.68799,0.05696
3205.62781,0.05687
3203.56764,0.05675
3201.50747,0.05662
3199.44730,0.05642
3197.38713,0.05613
3195.32695,0.05592
3193.26678,0.05604
3191.20661,0.05611
3189.14644,0.05569
3187.08626,0.05508
3185.02609,0.05485
3182.96592,0.05485
3180.90575,0.05459
3178.84558,0.05426
3176.78540,0.05412
3174.72523,0.05408
3172.66506,0.05397
3170.60489,0.05366
3168.54472,0.05319
3166.48454,0.05268
3164.42437,0.05230
3162.36420,0.05210
3160.30403,0.05187
3158.24386,0.05159
3156.18368,0.05129
3154.12351,0.05102
3152.06334,0.05084
3150.00317,0.05047
3147.94299,0.04977
3145.88282,0.04930
3143.82265,0.04931
3141.76248,0.04932
3139.70231,0.04902
3137.64213,0.04865
3135.58196,0.04833
3133.52179,0.04798
3131.46162,0.04761
3129.40145,0.04755
3127.34127,0.04770
3125.28110,0.04756
3123.22093,0.04737
3121.16076,0.04722
3119.10058,0.04674
3117.04041,0.04618
3114.98024,0.04577
3112.92007,0.04529
3110.85990,0.04496
3108.79972,0.04508
3106.73955,0.04525
3104.67938,0.04509
3102.61921,0.04464
3100.55904,0.04425
3098.49886,0.04413
3096.43869,0.04404
3094.37852,0.04384
3092.31835,0.04361
3090.25818,0.04335
3088.19800,0.04300
3086.13783,0.04262
3084.07766,0.04240
3082.01749,0.04245
3079.95731,0.04239
3077.89714,0.04199
3075.83697,0.04152
3073.77680,0.04125
3071.71663,0.04127
3069.65645,0.04132
3067.59628,0.04110
3065.53611,0.04079
3063.47594,0.04043
3061.41577,0.03990
3059.35559,0.03953
3057.29542,0.03924
3055.23525,0.03884
3053.17508,0.03870
3051.11491,0.03879
3049.05473,0.03863
3046.99456,0.03822
3044.93439,0.03777
3042.87422,0.03735
3040.81404,0.03688
3038.75387,0.03644
3036.69370,0.03642
3034.63353,0.03673
3032.57336,0.03670
3030.51318,0.03601
3028.45301,0.03517
3026.39284,0.03485
3024.33267,0.03498
3022.27250,0.03496
3020.21232,0.03473
3018.15215,0.03454
3016.09198,0.03431
3014.03181,0.03402
3011.97163,0.03386
3009.91146,0.03380
3007.85129,0.03352
3005.79112,0.03303
3003.73095,0.03275
3001.67077,0.03273
2999.61060,0.03265
2997.55043,0.03252
2995.49026,0.03246
2993.43009,0.03244
2991.36991,0.03262
2989.30974,0.03286
2987.24957,0.03301
2985.18940,0.03310
2983.12923,0.03328
2981.06905,0.03363
2979.00888,0.03404
2976.94871,0.03459
2974.88854,0.03527
2972.82836,0.03591
2970.76819,0.03650
2968.70802,0.03709
2966.64785,0.03799
2964.58768,0.03931
2962.52750,0.04081
2960.46733,0.04231
2958.40716,0.04378
2956.34699,0.04503
2954.28682,0.04603
2952.22664,0.04708
2950.16647,0.04839
2948.10630,0.04996
2946.04613,0.05181
2943.98596,0.05402
2941.92578,0.05638
2939.86561,0.05887
2937.80544,0.06161
2935.74527,0.06438
2933.68509,0.06722
2931.62492,0.06998
2929.56475,0.07233
2927.50458,0.07460
2925.44441,0.07700
2923.38423,0.07907
2921.32406,0.08065
2919.26389,0.08200
2917.20372,0.08230
2915.14355,0.08023
2913.08337,0.07616
2911.02320,0.07155
2908.96303,0.06751
2906.90286,0.06440
2904.84268,0.06197
2902.78251,0.06002
2900.72234,0.05846
2898.66217,0.05710
2896.60200,0.05573
2894.54182,0.05435
2892.48165,0.05308
2890.42148,0.05195
2888.36131,0.05075
2886.30114,0.04954
2884.24096,0.04844
2882.18079,0.04756
2880.12062,0.04698
2878.06045,0.04659
2876.00028,0.04644
2873.94010,0.04652
2871.87993,0.04670
2869.81976,0.04715
2867.75959,0.04792
2865.69941,0.04887
2863.63924,0.05039
2861.57907,0.05273
2859.51890,0.05531
2857.45873,0.05788
2855.39855,0.06062
2853.33838,0.06341
2851.27821,0.06564
2849.21804,0.06574
2847.15787,0.06231
2845.09769,0.05657
2843.03752,0.05112
2840.97735,0.04693
2838.91718,0.04369
2836.85700,0.04123
2834.79683,0.03961
2832.73666,0.03855
2830.67649,0.03759
2828.61632,0.03641
2826.55614,0.03531
2824.49597,0.03470
2822.43580,0.03432
2820.37563,0.03381
2818.31546,0.03325
2816.25528,0.03281
2814.19511,0.03243
2812.13494,0.03199
2810.07477,0.03145
2808.01460,0.03094
2805.95442,0.03054
2803.89425,0.03021
2801.83408,0.02996
2799.77391,0.02983
2797.71373,0.02971
2795.65356,0.02955
2793.59339,0.02948
2791.53322,0.02937
2789.47305,0.02901
2787.41287,0.02857
2785.35270,0.02842
2783.29253,0.02846
2781.23236,0.02834
2779.17219,0.02804
2777.11201,0.02791
2775.05184,0.02794
2772.99167,0.02789
2770.93150,0.02784
2768.87133,0.02778
2766.81115,0.02746
2764.75098,0.02705
2762.69081,0.02694
2760.63064,0.02698
2758.57046,0.02688
2756.51029,0.02666
2754.45012,0.02649
2752.38995,0.02647
2750.32978,0.02654
2748.26960,0.02651
2746.20943,0.02626
2744.14926,0.02598
2742.08909,0.02582
2740.02892,0.02582
2737.96874,0.02590
2735.90857,0.02598
2733.84840,0.02594
2731.78823,0.02581
2729.72805,0.02565
2727.66788,0.02547
2725.60771,0.02557
2723.54754,0.02587
2721.48737,0.02596
2719.42719,0.02584
2717.36702,0.02558
2715.30685,0.02525
2713.24668,0.02510
2711.18651,0.02526
2709.12633,0.02545
2707.06616,0.02529
2705.00599,0.02484
2702.94582,0.02445
2700.88565,0.02427
2698.82547,0.02431
2696.76530,0.02445
2694.70513,0.02448
2692.64496,0.02435
2690.58478,0.02413
2688.52461,0.02399
2686.46444,0.02405
2684.40427,0.02414
2682.34410,0.02414
2680.28392,0.02406
2678.22375,0.02385
2676.16358,0.02345
2674.10341,0.02316
2672.04324,0.02328
2669.98306,0.02350
2667.92289,0.02354
2665.86272,0.02350
2663.80255,0.02337
2661.74238,0.02313
2659.68220,0.02284
2657.62203,0.02272
2655.56186,0.02281
2653.50169,0.02284
2651.44151,0.02271
2649.38134,0.02245
2647.32117,0.02198
2645.26100,0.02163
2643.20083,0.02175
2641.14065,0.02196
2639.08048,0.02171
2637.02031,0.02118
2634.96014,0.02084
2632.89997,0.02059
2630.83979,0.02037
2628.77962,0.02038
2626.71945,0.02046
2624.65928,0.02055
2622.59910,0.02069
2620.53893,0.02049
2618.47876,0.02000
2616.41859,0.01978
2614.35842,0.01969
2612.29824,0.01932
2610.23807,0.01906
2608.17790,0.01906
2606.11773,0.01925
2604.05756,0.01947
2601.99738,0.01923
2599.93721,0.01876
2597.87704,0.01863
2595.81687,0.01896
2593.75670,0.01937
2591.69652,0.01924
2589.63635,0.01864
2587.57618,0.01834
2585.51601,0.01857
2583.45583,0.01860
2581.39566,0.01831
2579.33549,0.01822
2577.27532,0.01830
2575.21515,0.01838
2573.15497,0.01840
2571.09480,0.01828
2569.03463,0.01814
2566.97446,0.01796
2564.91429,0.01771
2562.85411,0.01760
2560.79394,0.01755
2558.73377,0.01728
2556.67360,0.01709
2554.61342,0.01706
2552.55325,0.01679
2550.49308,0.01655
2548.43291,0.01648
2546.37274,0.01639
2544.31256,0.01636
2542.25239,0.01622
2540.19222,0.01615
2538.13205,0.01667
2536.07188,0.01724
2534.01170,0.01706
2531.95153,0.01653
2529.89136,0.01626
2527.83119,0.01616
2525.77102,0.01594
2523.71084,0.01577
2521.65067,0.01590
2519.59050,0.01608
2517.53033,0.01604
2515.47015,0.01567
2513.40998,0.01516
2511.34981,0.01495
2509.28964,0.01509
2507.22947,0.01514
2505.16929,0.01487
2503.10912,0.01457
2501.04895,0.01469
2498.98878,0.01511
2496.92861,0.01519
2494.86843,0.01498
2492.80826,0.01477
2490.74809,0.01441
2488.68792,0.01411
2486.62775,0.01408
2484.56757,0.01403
2482.50740,0.01401
2480.44723,0.01417
2478.38706,0.01427
2476.32688,0.01417
2474.26671,0.01393
2472.20654,0.01390
2470.14637,0.01441
2468.08620,0.01460
2466.02602,0.01403
2463.96585,0.01357
2461.90568,0.01353
2459.84551,0.01360
2457.78534,0.01371
2455.72516,0.01384
2453.66499,0.01378
2451.60482,0.01344
2449.54465,0.01300
2447.48447,0.01277
2445.42430,0.01286
2443.36413,0.01270
2441.30396,0.01232
2439.24379,0.01224
2437.18361,0.01229
2435.12344,0.01236
2433.06327,0.01258
2431.00310,0.01273
2428.94293,0.01264
2426.88275,0.01236
2424.82258,0.01223
2422.76241,0.01219
2420.70224,0.01185
2418.64207,0.01152
2416.58189,0.01172
2414.52172,0.01211
2412.46155,0.01211
2410.40138,0.01192
2408.34120,0.01187
2406.28103,0.01188
2404.22086,0.01190
2402.16069,0.01186
2400.10052,0.01158
2398.04034,0.01142
2395.98017,0.01145
2393.92000,0.01154
2391.85983,0.01148
2389.79966,0.01131
2387.73948,0.01129
2385.67931,0.01150
2383.61914,0.01165
2381.55897,0.01164
2379.49880,0.01181
2377.43862,0.01237
2375.37845,0.01243
2373.31828,0.01171
2371.25811,0.01089
2369.19793,0.01111
2367.13776,0.01326
2365.07759,0.01535
2363.01742,0.01399
2360.95725,0.01214
2358.89707,0.00975
2356.83690,0.00872
2354.77673,0.00921
2352.71656,0.01051
2350.65639,0.01366
2348.59621,0.01482
2346.53604,0.01060
2344.47587,0.01076
2342.41570,0.01289
2340.35552,0.01398
2338.29535,0.01416
2336.23518,0.01348
2334.17501,0.01304
2332.11484,0.01284
2330.05466,0.01345
2327.99449,0.01367
2325.93432,0.01346
2323.87415,0.01187
2321.81398,0.01092
2319.75380,0.01050
2317.69363,0.01124
2315.63346,0.01174
2313.57329,0.01178
2311.51312,0.01169
2309.45294,0.01155
2307.39277,0.01132
2305.33260,0.01081
2303.27243,0.01033
2301.21225,0.00992
2299.15208,0.00986
2297.09191,0.00981
2295.03174,0.00968
2292.97157,0.00998
2290.91139,0.01056
2288.85122,0.01071
2286.79105,0.01024
2284.73088,0.00969
2282.67071,0.00959
2280.61053,0.00986
2278.55036,0.01000
2276.49019,0.00984
2274.43002,0.00958
2272.36984,0.00930
2270.30967,0.00908
2268.24950,0.00895
2266.18933,0.00900
2264.12916,0.00925
2262.06898,0.00959
2260.00881,0.00996
2257.94864,0.00995
2255.88847,0.00908
2253.82830,0.00804
2251.76812,0.00761
2249.70795,0.00752
2247.64778,0.00725
2245.58761,0.00696
2243.52744,0.00729
2241.46726,0.00780
2239.40709,0.00745
2237.34692,0.00667
2235.28675,0.00662
2233.22657,0.00733
2231.16640,0.00769
2229.10623,0.00724
2227.04606,0.00676
2224.98589,0.00696
2222.92571,0.00764
2220.86554,0.00761
2218.80537,0.00717
2216.74520,0.00748
2214.68503,0.00770
2212.62485,0.00733
2210.56468,0.00701
2208.50451,0.00659
2206.44434,0.00578
2204.38417,0.00543
2202.32399,0.00612
2200.26382,0.00673
2198.20365,0.00676
2196.14348,0.00705
2194.08330,0.00756
2192.02313,0.00756
2189.96296,0.00674
2187.90279,0.00544
2185.84262,0.00501
2183.78244,0.00499
2181.72227,0.00393
2179.66210,0.00373
2177.60193,0.00597
2175.54176,0.00777
2173.48158,0.00755
2171.42141,0.00676
2169.36124,0.00565
2167.30107,0.00538
2165.24089,0.00722
2163.18072,0.00843
2161.12055,0.00686
2159.06038,0.00422
2157.00021,0.00269
2154.94003,0.00295
2152.87986,0.00365
2150.81969,0.00380
2148.75952,0.00460
2146.69935,0.00561
2144.63917,0.00591
2142.57900,0.00632
2140.51883,0.00618
2138.45866,0.00538
2136.39849,0.00523
2134.33831,0.00547
2132.27814,0.00534
2130.21797,0.00497
2128.15780,0.00508
2126.09762,0.00566
2124.03745,0.00619
2121.97728,0.00652
2119.91711,0.00658
2117.85694,0.00690
2115.79676,0.00761
2113.73659,0.00780
2111.67642,0.00751
2109.61625,0.00716
2107.55608,0.00659
2105.49590,0.00614
2103.43573,0.00611
2101.37556,0.00633
2099.31539,0.00674
2097.25521,0.00718
2095.19504,0.00751
2093.13487,0.00730
2091.07470,0.00629
2089.01453,0.00528
2086.95435,0.00517
2084.89418,0.00574
2082.83401,0.00616
2080.77384,0.00650
2078.71367,0.00722
2076.65349,0.00768
2074.59332,0.00711
2072.53315,0.00591
2070.47298,0.00526
2068.41281,0.00575
2066.35263,0.00691
2064.29246,0.00748
2062.23229,0.00668
2060.17212,0.00565
2058.11194,0.00527
2056.05177,0.00529
2053.99160,0.00596
2051.93143,0.00723
2049.87126,0.00806
2047.81108,0.00751
2045.75091,0.00602
2043.69074,0.00480
2041.63057,0.00384
2039.57040,0.00278
2037.51022,0.00292
2035.45005,0.00400
2033.38988,0.00372
2031.32971,0.00198
2029.26954,0.00034
2027.20936,0.00000
2025.14919,0.00089
2023.08902,0.00200
2021.02885,0.00245
2018.96867,0.00238
2016.90850,0.00236
2014.84833,0.00250
2012.78816,0.00293
2010.72799,0.00369
2008.66781,0.00465
2006.60764,0.00520
2004.54747,0.00488
2002.48730,0.00432
2000.42713,0.00426
1998.36695,0.00435
1996.30678,0.00443
1994.24661,0.00488
1992.18644,0.00520
1990.12626,0.00480
1988.06609,0.00346
1986.00592,0.00174
1983.94575,0.00129
1981.88558,0.00190
1979.82540,0.00171
1977.76523,0.00106
1975.70506,0.00165
1973.64489,0.00256
1971.58472,0.00207
1969.52454,0.00105
1967.46437,0.00105
1965.40420,0.00218
1963.34403,0.00296
1961.28386,0.00218
1959.22368,0.00116
1957.16351,0.00148
1955.10334,0.00276
1953.04317,0.00391
1950.98299,0.00393
1948.92282,0.00311
1946.86265,0.00298
1944.80248,0.00341
1942.74231,0.00312
1940.68213,0.00278
1938.62196,0.00325
1936.56179,0.00357
1934.50162,0.00281
1932.44145,0.00179
1930.38127,0.00190
1928.32110,0.00262
1926.26093,0.00277
1924.20076,0.00250
1922.14059,0.00263
1920.08041,0.00286
1918.02024,0.00247
1915.96007,0.00211
1913.89990,0.00246
1911.83972,0.00304
1909.77955,0.00347
1907.71938,0.00364
1905.65921,0.00339
1903.59904,0.00276
1901.53886,0.00198
1899.47869,0.00146
1897.41852,0.00114
1895.35835,0.00081
1893.29818,0.00095
1891.23800,0.00167
1889.17783,0.00245
1887.11766,0.00290
1885.05749,0.00294
1882.99731,0.00272
1880.93714,0.00253
1878.87697,0.00250
1876.81680,0.00248
1874.75663,0.00228
1872.69645,0.00194
1870.63628,0.00173
1868.57611,0.00189
1866.51594,0.00221
1864.45577,0.00220
1862.39559,0.00194
1860.33542,0.00184
1858.27525,0.00204
1856.21508,0.00235
1854.15491,0.00254
1852.09473,0.00253
1850.03456,0.00234
1847.97439,0.00206
1845.91422,0.00169
1843.85404,0.00125
1841.79387,0.00098
1839.73370,0.00090
1837.67353,0.00084
1835.61336,0.00078
1833.55318,0.00076
1831.49301,0.00085
1829.43284,0.00085
1827.37267,0.00064
1825.31250,0.00048
1823.25232,0.00040
1821.19215,0.00020
1819.13198,0.00000
1817.07181,0.00010
1815.01163,0.00045
1812.95146,0.00054
1810.89129,0.00020
1808.83112,-0.00011
1806.77095,-0.00005
1804.71077,0.00021
1802.65060,0.00033
1800.59043,0.00020
1798.53026,0.00014
1796.47009,0.00042
1794.40991,0.00082
1792.34974,0.00100
1790.28957,0.00099
1788.22940,0.00099
1786.16923,0.00097
1784.10905,0.00089
1782.04888,0.00076
1779.98871,0.00044
1777.92854,0.00007
1775.86836,0.00000
1773.80819,0.00025
1771.74802,0.00081
1769.68785,0.00136
1767.62768,0.00173
1765.56750,0.00202
1763.50733,0.00240
1761.44716,0.00307
1759.38699,0.00414
1757.32682,0.00541
1755.26664,0.00638
1753.20647,0.00705
1751.14630,0.00828
1749.08613,0.01065
1747.02596,0.01363
1744.96578,0.01688
1742.90561,0.02079
1740.84544,0.02555
1738.78527,0.03060
1736.72509,0.03503
1734.66492,0.03892
1732.60475,0.04209
1730.54458,0.04389
1728.48441,0.04462
1726.42423,0.04456
1724.36406,0.04396
1722.30389,0.04324
1720.24372,0.04264
1718.18355,0.04213
1716.12337,0.04156
1714.06320,0.04112
1712.00303,0.04093
1709.94286,0.04072
1707.88268,0.04012
1705.82251,0.03902
1703.76234,0.03780
1701.70217,0.03668
1699.64200,0.03541
1697.58182,0.03411
1695.52165,0.03327
1693.46148,0.03299
1691.40131,0.03279
1689.34114,0.03247
1687.28096,0.03230
1685.22079,0.03228
1683.16062,0.03209
1681.10045,0.03163
1679.04028,0.03115
1676.98010,0.03093
1674.91993,0.03129
1672.85976,0.03211
1670.79959,0.03282
1668.73941,0.03332
1666.67924,0.03401
1664.61907,0.03498
1662.55890,0.03621
1660.49873,0.03761
1658.43855,0.03887
1656.37838,0.03981
1654.31821,0.04055
1652.25804,0.04129
1650.19787,0.04189
1648.13769,0.04224
1646.07752,0.04254
1644.01735,0.04303
1641.95718,0.04358
1639.89701,0.04407
1637.83683,0.04453
1635.77666,0.04501
1633.71649,0.04561
1631.65632,0.04635
1629.59614,0.04709
1627.53597,0.04770
1625.47580,0.04809
1623.41563,0.04846
1621.35546,0.04911
1619.29528,0.05006
1617.23511,0.05127
1615.17494,0.05245
1613.11477,0.05330
1611.05460,0.05401
1608.99442,0.05481
1606.93425,0.05547
1604.87408,0.05566
1602.81391,0.05537
1600.75373,0.05466
1598.69356,0.05355
1596.63339,0.05207
1594.57322,0.05033
1592.51305,0.04853
1590.45287,0.04667
1588.39270,0.04462
1586.33253,0.04247
1584.27236,0.04034
1582.21219,0.03833
1580.15201,0.03658
1578.09184,0.03493
1576.03167,0.03296
1573.97150,0.03100
1571.91133,0.02948
1569.85115,0.02812
1567.79098,0.02691
1565.73081,0.02608
1563.67064,0.02555
1561.61046,0.02507
1559.55029,0.02431
1557.49012,0.02355
1555.42995,0.02347
1553.36978,0.02372
1551.30960,0.02392
1549.24943,0.02408
1547.18926,0.02416
1545.12909,0.02402
1543.06892,0.02362
1541.00874,0.02314
1538.94857,0.02292
1536.88840,0.02313
1534.82823,0.02317
1532.76805,0.02255
1530.70788,0.02176
1528.64771,0.02116
1526.58754,0.02047
1524.52737,0.01980
1522.46719,0.01947
1520.40702,0.01949
1518.34685,0.01973
1516.28668,0.02001
1514.22651,0.02006
1512.16633,0.01966
1510.10616,0.01885
1508.04599,0.01734
1505.98582,0.01512
1503.92565,0.01366
1501.86547,0.01305
1499.80530,0.01231
1497.74513,0.01089
1495.68496,0.00915
1493.62478,0.00788
1491.56461,0.00697
1489.50444,0.00585
1487.44427,0.00468
1485.38410,0.00410
1483.32392,0.00415
1481.26375,0.00459
1479.20358,0.00525
1477.14341,0.00638
1475.08324,0.00848
1473.02306,0.01169
1470.96289,0.01514
1468.90272,0.01793
1466.84255,0.02035
1464.78238,0.02274
1462.72220,0.02462
1460.66203,0.02562
1458.60186,0.02654
1456.54169,0.02846
1454.48151,0.03065
1452.42134,0.03218
1450.36117,0.03332
1448.30100,0.03434
1446.24083,0.03518
1444.18065,0.03590
1442.12048,0.03640
1440.06031,0.03635
1438.00014,0.03541
1435.93997,0.03368
1433.87979,0.03189
1431.81962,0.03033
1429.75945,0.02879
1427.69928,0.02754
1425.63910,0.02682
1423.57893,0.02648
1421.51876,0.02628
1419.45859,0.02599
1417.39842,0.02577
1415.33824,0.02577
1413.27807,0.02566
1411.21790,0.02531
1409.15773,0.02497
1407.09756,0.02476
1405.03738,0.02456
1402.97721,0.02430
1400.91704,0.02413
1398.85687,0.02416
1396.79670,0.02443
1394.73652,0.02502
1392.67635,0.02585
1390.61618,0.02664
1388.55601,0.02736
1386.49583,0.02818
1384.43566,0.02912
1382.37549,0.03008
1380.31532,0.03109
1378.25515,0.03213
1376.19497,0.03321
1374.13480,0.03430
1372.07463,0.03518
1370.01446,0.03572
1367.95429,0.03599
1365.89411,0.03617
1363.83394,0.03634
1361.77377,0.03649
1359.71360,0.03666
1357.65343,0.03685
1355.59325,0.03713
1353.53308,0.03757
1351.47291,0.03809
1349.41274,0.03857
1347.35256,0.03895
1345.29239,0.03924
1343.23222,0.03951
1341.17205,0.03989
1339.11188,0.04051
1337.05170,0.04132
1334.99153,0.04211
1332.93136,0.04273
1330.87119,0.04329
1328.81102,0.04396
1326.75084,0.04474
1324.69067,0.04549
1322.63050,0.04613
1320.57033,0.04658
1318.51015,0.04683
1316.44998,0.04691
1314.38981,0.04679
1312.32964,0.04643
1310.26947,0.04581
1308.20929,0.04486
1306.14912,0.04350
1304.08895,0.04168
1302.02878,0.03952
1299.96861,0.03722
1297.90843,0.03504
1295.84826,0.03321
1293.78809,0.03180
1291.72792,0.03064
1289.66775,0.02948
1287.60757,0.02840
1285.54740,0.02765
1283.48723,0.02728
1281.42706,0.02709
1279.36688,0.02699
1277.30671,0.02702
1275.24654,0.02715
1273.18637,0.02730
1271.12620,0.02753
1269.06602,0.02807
1267.00585,0.02901
1264.94568,0.02995
1262.88551,0.03050
1260.82534,0.03087
1258.76516,0.03140
1256.70499,0.03203
1254.64482,0.03268
1252.58465,0.03347
1250.52447,0.03434
1248.46430,0.03511
1246.40413,0.03579
1244.34396,0.03648
1242.28379,0.03706
1240.22361,0.03769
1238.16344,0.03864
1236.10327,0.03969
1234.04310,0.04065
1231.98293,0.04158
1229.92275,0.04247
1227.86258,0.04328
1225.80241,0.04401
1223.74224,0.04483
1221.68207,0.04571
1219.62189,0.04648
1217.56172,0.04722
1215.50155,0.04806
1213.44138,0.04888
1211.38120,0.04969
1209.32103,0.05064
1207.26086,0.05169
1205.20069,0.05271
1203.14052,0.05375
1201.08034,0.05480
1199.02017,0.05571
1196.96000,0.05612
1194.89983,0.05597
1192.83966,0.05563
1190.77948,0.05518
1188.71931,0.05453
1186.65914,0.05384
1184.59897,0.05320
1182.53880,0.05256
1180.47862,0.05201
1178.41845,0.05163
1176.35828,0.05124
1174.29811,0.05093
1172.23793,0.05109
1170.17776,0.05147
1168.11759,0.05146
1166.05742,0.05106
1163.99725,0.05052
1161.93707,0.04986
1159.87690,0.04894
1157.81673,0.04773
1155.75656,0.04667
1153.69639,0.04589
1151.63621,0.04480
1149.57604,0.04346
1147.51587,0.04230
1145.45570,0.04113
1143.39552,0.03992
1141.33535,0.03876
1139.27518,0.03751
1137.21501,0.03635
1135.15484,0.03551
1133.09466,0.03500
1131.03449,0.03482
1128.97432,0.03521
1126.91415,0.03616
1124.85398,0.03727
1122.79380,0.03836
1120.73363,0.03977
1118.67346,0.04189
1116.61329,0.04455
1114.55312,0.04748
1112.49294,0.05046
1110.43277,0.05343
1108.37260,0.05650
1106.31243,0.05956
1104.25225,0.06231
1102.19208,0.06458
1100.13191,0.06614
1098.07174,0.06720
1096.01157,0.06834
1093.95139,0.06963
1091.89122,0.07118
1089.83105,0.07307
1087.77088,0.07502
1085.71071,0.07707
1083.65053,0.07929
1081.59036,0.08150
1079.53019,0.08372
1077.47002,0.08609
1075.40985,0.08848
1073.34967,0.09052
1071.28950,0.09204
1069.22933,0.09324
1067.16916,0.09447
1065.10898,0.09570
1063.04881,0.09677
1060.98864,0.09785
1058.92847,0.09903
1056.86830,0.10014
1054.80812,0.10146
1052.74795,0.10318
1050.68778,0.10500
1048.62761,0.10668
1046.56744,0.10823
1044.50726,0.10973
1042.44709,0.11127
1040.38692,0.11302
1038.32675,0.11522
1036.26657,0.11763
1034.20640,0.11990
1032.14623,0.12196
1030.08606,0.12351
1028.02589,0.12435
1025.96571,0.12466
1023.90554,0.12476
1021.84537,0.12500
1019.78520,0.12525
1017.72503,0.12527
1015.66485,0.12488
1013.60468,0.12395
1011.54451,0.12260
1009.48434,0.12079
1007.42417,0.11838
1005.36399,0.11559
1003.30382,0.11253
1001.24365,0.10919
999.18348,0.10579
997.12330,0.10273
995.06313,0.10003
993.00296,0.09719
990.94279,0.09404
988.88262,0.09079
986.82244,0.08734
984.76227,0.08368
982.70210,0.07997
980.64193,0.07630
978.58176,0.07282
976.52158,0.06968
974.46141,0.06667
972.40124,0.06381
970.34107,0.06137
968.28089,0.05926
966.22072,0.05741
964.16055,0.05558
962.10038,0.05364
960.04021,0.05171
957.98003,0.04963
955.91986,0.04710
953.85969,0.04413
951.79952,0.04133
949.73935,0.03894
947.67917,0.03670
945.61900,0.03452
943.55883,0.03232
941.49866,0.02997
939.43849,0.02784
937.37831,0.02631
935.31814,0.02546
933.25797,0.02505
931.19780,0.02438
929.13762,0.02337
927.07745,0.02261
925.01728,0.02214
922.95711,0.02159
920.89694,0.02082
918.83676,0.01946
916.77659,0.01762
914.71642,0.01593
912.65625,0.01437
910.59608,0.01299
908.53590,0.01208
906.47573,0.01150
904.41556,0.01075
902.35539,0.00965
900.29522,0.00890
898.23504,0.00892
896.17487,0.00900
894.11470,0.00879
892.05453,0.00850
889.99435,0.00826
887.93418,0.00797
885.87401,0.00767
883.81384,0.00756
881.75367,0.00738
879.69349,0.00721
877.63332,0.00746
875.57315,0.00818
873.51298,0.00912
871.45281,0.00978
869.39263,0.00987
867.33246,0.00943
865.27229,0.00815
863.21212,0.00635
861.15194,0.00494
859.09177,0.00381
857.03160,0.00245
854.97143,0.00112
852.91126,0.00026
850.85108,0.00000
848.79091,0.00002
846.73074,-0.00004
844.67057,0.00013
842.61040,0.00103
840.55022,0.00174
838.49005,0.00174
836.42988,0.00163
834.36971,0.00198
832.30954,0.00303
830.24936,0.00380
828.18919,0.00326
826.12902,0.00236
824.06885,0.00216
822.00867,0.00247
819.94850,0.00280
817.88833,0.00304
815.82816,0.00356
813.76799,0.00431
811.70781,0.00442
809.64764,0.00380
807.58747,0.00322
805.52730,0.00276
803.46713,0.00202
801.40695,0.00117
799.34678,0.00043
797.28661,0.00000
795.22644,-0.00049
793.16627,-0.00062
791.10609,-0.00052
789.04592,-0.00027
786.98575,0.00044
784.92558,0.00100
782.86540,0.00107
780.80523,0.00134
778.74506,0.00171
776.68489,0.00195
774.62472,0.00235
772.56454,0.00288
770.50437,0.00361
768.44420,0.00492
766.38403,0.00666
764.32386,0.00856
762.26368,0.01070
760.20351,0.01271
758.14334,0.01414
756.08317,0.01478
754.02299,0.01421
751.96282,0.01278
749.90265,0.01101
747.84248,0.00898
745.78231,0.00743
743.72213,0.00634
741.66196,0.00544
739.60179,0.00524
737.54162,0.00514
735.48145,0.00473
733.42127,0.00408
731.36110,0.00335
729.30093,0.00318
727.24076,0.00349
725.18059,0.00424
723.12041,0.00509
721.06024,0.00490
719.00007,0.00500
716.93990,0.00484
714.87972,0.00415
712.81955,0.00362
710.75938,0.00339
708.69921,0.00316
706.63904,0.00320
704.57886,0.00363
702.51869,0.00377
700.45852,0.00375
698.39835,0.00412
696.33818,0.00454
694.27800,0.00455
692.21783,0.00408
690.15766,0.00309
688.09749,0.00130
686.03731,-0.00021
683.97714,0.00016
681.91697,0.00184
679.85680,0.00322
677.79663,0.00327
675.73645,0.00192
673.67628,0.00186
671.61611,0.00454
669.55594,0.00180
667.49577,-0.00273
665.43559,0.00471
663.37542,0.00297
661.31525,0.00123
659.25508,0.00189
657.19491,0.00235
655.13473,0.00219
653.07456,0.00139
651.01439,-0.00001
648.95422,0.00000
646.89404,0.00272
644.83387,0.00474
642.77370,0.00363
640.71353,0.00146
638.65336,0.00116
636.59318,0.00209
634.53301,0.00193
632.47284,0.00017
630.41267,-0.00131
628.35250,-0.00076
626.29232,0.00013
624.23215,-0.00258
622.17198,-0.00553
620.11181,-0.00464
618.05164,-0.00109
615.99146,0.00301
613.93129,0.00578
611.87112,0.00523
609.81095,0.00236
607.75077,-0.00150
605.69060,-0.00384
603.63043,-0.00228
601.57026,0.00005
599.51009,0.00000
