3996.73391,0.00104
3994.67373,0.00102
3992.61356,0.00101
3990.55339,0.00092
3988.49322,0.00073
3986.43305,0.00062
3984.37287,0.00065
3982.31270,0.00067
3980.25253,0.00057
3978.19236,0.00037
3976.13219,0.00024
3974.07201,0.00036
3972.01184,0.00073
3969.95167,0.00123
3967.89150,0.00162
3965.83133,0.00160
3963.77115,0.00127
3961.71098,0.00100
3959.65081,0.00101
3957.59064,0.00135
3955.53046,0.00164
3953.47029,0.00133
3951.41012,0.00055
3949.34995,0.00000
3947.28978,0.00000
3945.22960,0.00014
3943.16943,0.00007
3941.10926,0.00000
3939.04909,0.00026
3936.98892,0.00069
3934.92874,0.00085
3932.86857,0.00060
3930.80840,0.00039
3928.74823,0.00072
3926.68805,0.00129
3924.62788,0.00152
3922.56771,0.00136
3920.50754,0.00114
3918.44737,0.00086
3916.38719,0.00065
3914.32702,0.00074
3912.26685,0.00087
3910.20668,0.00065
3908.14651,0.00029
3906.08633,0.00023
3904.02616,0.00047
3901.96599,0.00047
3899.90582,0.00009
3897.84565,0.00000
3895.78547,0.00061
3893.72530,0.00122
3891.66513,0.00110
3889.60496,0.00066
3887.54478,0.00064
3885.48461,0.00091
3883.42444,0.00111
3881.36427,0.00106
3879.30410,0.00091
3877.24392,0.00103
3875.18375,0.00133
3873.12358,0.00149
3871.06341,0.00161
3869.00324,0.00187
3866.94306,0.00197
3864.88289,0.00167
3862.82272,0.00129
3860.76255,0.00118
3858.70237,0.00115
3856.64220,0.00110
3854.58203,0.00118
3852.52186,0.00108
3850.46169,0.00075
3848.40151,0.00060
3846.34134,0.00059
3844.28117,0.00050
3842.22100,0.00065
3840.16083,0.00139
3838.10065,0.00210
3836.04048,0.00189
3833.98031,0.00117
3831.92014,0.00077
3829.85997,0.00082
3827.79979,0.00106
3825.73962,0.00133
3823.67945,0.00133
3821.61928,0.00084
3819.55910,0.00048
3817.49893,0.00048
3815.43876,0.00040
3813.37859,0.00051
3811.31842,0.00089
3809.25824,0.00107
3807.19807,0.00092
3805.13790,0.00090
3803.07773,0.00106
3801.01756,0.00105
3798.95738,0.00102
3796.89721,0.00118
3794.83704,0.00123
3792.77687,0.00100
3790.71670,0.00086
3788.65652,0.00109
3786.59635,0.00140
3784.53618,0.00159
3782.47601,0.00167
3780.41583,0.00154
3778.35566,0.00121
3776.29549,0.00109
3774.23532,0.00142
3772.17515,0.00177
3770.11497,0.00185
3768.05480,0.00181
3765.99463,0.00173
3763.93446,0.00158
3761.87429,0.00148
3759.81411,0.00135
3757.75394,0.00106
3755.69377,0.00071
3753.63360,0.00065
3751.57342,0.00096
3749.51325,0.00094
3747.45308,0.00026
3745.39291,0.00000
3743.33274,0.00069
3741.27256,0.00141
3739.21239,0.00170
3737.15222,0.00167
3735.09205,0.00121
3733.03188,0.00052
3730.97170,0.00026
3728.91153,0.00056
3726.85136,0.00076
3724.79119,0.00044
3722.73102,0.00011
3720.67084,0.00017
3718.61067,0.00053
3716.55050,0.00086
3714.49033,0.00085
3712.43015,0.00060
3710.36998,0.00026
3708.30981,0.00015
3706.24964,0.00049
3704.18947,0.00115
3702.12929,0.00152
3700.06912,0.00141
3698.00895,0.00143
3695.94878,0.00165
3693.88861,0.00180
3691.82843,0.00195
3689.76826,0.00197
3687.70809,0.00156
3685.64792,0.00113
3683.58775,0.00088
3681.52757,0.00070
3679.46740,0.00061
3677.40723,0.00063
3675.34706,0.00069
3673.28688,0.00076
3671.22671,0.00071
3669.16654,0.00054
3667.10637,0.00068
3665.04620,0.00126
3662.98602,0.00182
3660.92585,0.00207
3658.86568,0.00212
3656.80551,0.00221
3654.74534,0.00240
3652.68516,0.00243
3650.62499,0.00210
3648.56482,0.00185
3646.50465,0.00218
3644.44447,0.00276
3642.38430,0.00326
3640.32413,0.00349
3638.26396,0.00311
3636.20379,0.00242
3634.14361,0.00224
3632.08344,0.00268
3630.02327,0.00314
3627.96310,0.00324
3625.90293,0.00343
3623.84275,0.00390
3621.78258,0.00428
3619.72241,0.00426
3617.66224,0.00415
3615.60207,0.00443
3613.54189,0.00503
3611.48172,0.00569
3609.42155,0.00607
3607.36138,0.00615
3605.30120,0.00609
3603.24103,0.00612
3601.18086,0.00644
3599.12069,0.00674
3597.06052,0.00695
3595.00034,0.00724
3592.94017,0.00739
3590.88000,0.00725
3588.81983,0.00717
3586.75966,0.00724
3584.69948,0.00736
3582.63931,0.00763
3580.57914,0.00790
3578.51897,0.00803
3576.45879,0.00826
3574.39862,0.00863
3572.33845,0.00892
3570.27828,0.00909
3568.21811,0.00922
3566.15793,0.00939
3564.09776,0.00965
3562.03759,0.00991
3559.97742,0.01002
3557.91725,0.01004
3555.85707,0.01011
3553.79690,0.01008
3551.73673,0.00991
3549.67656,0.00996
3547.61639,0.01026
3545.55621,0.01047
3543.49604,0.01055
3541.43587,0.01064
3539.37570,0.01088
3537.31552,0.01127
3535.25535,0.01160
3533.19518,0.01172
3531.13501,0.01171
3529.07484,0.01164
3527.01466,0.01169
3524.95449,0.01203
3522.89432,0.01250
3520.83415,0.01298
3518.77398,0.01340
3516.71380,0.01356
3514.65363,0.01341
3512.59346,0.01321
3510.53329,0.01322
3508.47312,0.01334
3506.41294,0.01351
3504.35277,0.01372
3502.29260,0.01377
3500.23243,0.01370
3498.17225,0.01396
3496.11208,0.01441
3494.05191,0.01460
3491.99174,0.01454
3489.93157,0.01456
3487.87139,0.01481
3485.81122,0.01511
3483.75105,0.01540
3481.69088,0.01578
3479.63071,0.01613
3477.57053,0.01626
3475.51036,0.01635
3473.45019,0.01650
3471.39002,0.01634
3469.32984,0.01592
3467.26967,0.01586
3465.20950,0.01615
3463.14933,0.01632
3461.08916,0.01666
3459.02898,0.01734
3456.96881,0.01774
3454.90864,0.01756
3452.84847,0.01724
3450.78830,0.01719
3448.72812,0.01745
3446.66795,0.01767
3444.60778,0.01763
3442.54761,0.01776
3440.48744,0.01808
3438.42726,0.01828
3436.36709,0.01859
3434.30692,0.01881
3432.24675,0.01856
3430.18657,0.01840
3428.12640,0.01857
3426.06623,0.01859
3424.00606,0.01841
3421.94589,0.01846
3419.88571,0.01876
3417.82554,0.01886
3415.76537,0.01883
3413.70520,0.01916
3411.64503,0.01965
3409.58485,0.01974
3407.52468,0.01968
3405.46451,0.02002
3403.40434,0.02032
3401.34416,0.02032
3399.28399,0.02043
3397.22382,0.02042
3395.16365,0.02033
3393.10348,0.02036
3391.04330,0.02032
3388.98313,0.02023
3386.92296,0.02021
3384.86279,0.02021
3382.80262,0.02025
3380.74244,0.02025
3378.68227,0.02017
3376.62210,0.02033
3374.56193,0.02080
3372.50176,0.02111
3370.44158,0.02112
3368.38141,0.02112
3366.32124,0.02126
3364.26107,0.02139
3362.20089,0.02141
3360.14072,0.02137
3358.08055,0.02140
3356.02038,0.02157
3353.96021,0.02162
3351.90003,0.02160
3349.83986,0.02180
3347.77969,0.02203
3345.71952,0.02209
3343.65935,0.02209
3341.59917,0.02201
3339.53900,0.02177
3337.47883,0.02166
3335.41866,0.02194
3333.35849,0.02238
3331.29831,0.02253
3329.23814,0.02233
3327.17797,0.02212
3325.11780,0.02206
3323.05762,0.02207
3320.99745,0.02207
3318.93728,0.02219
3316.87711,0.02249
3314.81694,0.02254
3312.75676,0.02228
3310.69659,0.02214
3308.63642,0.02225
3306.57625,0.02250
3304.51608,0.02272
3302.45590,0.02289
3300.39573,0.02308
3298.33556,0.02302
3296.27539,0.02273
3294.21521,0.02272
3292.15504,0.02289
3290.09487,0.02282
3288.03470,0.02278
3285.97453,0.02299
3283.91435,0.02313
3281.85418,0.02319
3279.79401,0.02313
3277.73384,0.02301
3275.67367,0.02305
3273.61349,0.02329
3271.55332,0.02357
3269.49315,0.02346
3267.43298,0.02311
3265.37281,0.02309
3263.31263,0.02327
3261.25246,0.02351
3259.19229,0.02372
3257.13212,0.02353
3255.07194,0.02320
3253.01177,0.02319
3250.95160,0.02329
3248.89143,0.02333
3246.83126,0.02341
3244.77108,0.02360
3242.71091,0.02375
3240.65074,0.02358
3238.59057,0.02323
3236.53040,0.02306
3234.47022,0.02318
3232.41005,0.02334
3230.34988,0.02333
3228.28971,0.02324
3226.22954,0.02316
3224.16936,0.02311
3222.10919,0.02328
3220.04902,0.02365
3217.98885,0.02369
3215.92867,0.02336
3213.86850,0.02338
3211.80833,0.02371
3209.74816,0.02364
3207.68799,0.02328
3205.62781,0.02326
3203.56764,0.02340
3201.50747,0.02330
3199.44730,0.02317
3197.38713,0.02304
3195.32695,0.02291
3193.26678,0.02290
3191.20661,0.02288
3189.14644,0.02291
3187.08626,0.02294
3185.02609,0.02280
3182.96592,0.02282
3180.90575,0.02313
3178.84558,0.02331
3176.78540,0.02333
3174.72523,0.02337
3172.66506,0.02332
3170.60489,0.02316
3168.54472,0.02298
3166.48454,0.02275
3164.42437,0.02256
3162.36420,0.02239
3160.30403,0.02213
3158.24386,0.02187
3156.18368,0.02170
3154.12351,0.02169
3152.06334,0.02178
3150.00317,0.02187
3147.94299,0.02212
3145.88282,0.02254
3143.82265,0.02285
3141.76248,0.02276
3139.70231,0.02237
3137.64213,0.02205
3135.58196,0.02201
3133.52179,0.02194
3131.46162,0.02163
3129.40145,0.02127
3127.34127,0.02110
3125.28110,0.02123
3123.22093,0.02140
3121.16076,0.02140
3119.10058,0.02126
3117.04041,0.02096
3114.98024,0.02062
3112.92007,0.02043
3110.85990,0.02041
3108.79972,0.02053
3106.73955,0.02060
3104.67938,0.02040
3102.61921,0.02032
3100.55904,0.02066
3098.49886,0.02096
3096.43869,0.02086
3094.37852,0.02059
3092.31835,0.02053
3090.25818,0.02063
3088.19800,0.02028
3086.13783,0.01956
3084.07766,0.01928
3082.01749,0.01957
3079.95731,0.01970
3077.89714,0.01958
3075.83697,0.01959
3073.77680,0.01959
3071.71663,0.01944
3069.65645,0.01941
3067.59628,0.01953
3065.53611,0.01947
3063.47594,0.01918
3061.41577,0.01889
3059.35559,0.01871
3057.29542,0.01867
3055.23525,0.01856
3053.17508,0.01836
3051.11491,0.01828
3049.05473,0.01820
3046.99456,0.01806
3044.93439,0.01812
3042.87422,0.01827
3040.81404,0.01819
3038.75387,0.01799
3036.69370,0.01787
3034.63353,0.01767
3032.57336,0.01743
3030.51318,0.01739
3028.45301,0.01750
3026.39284,0.01756
3024.33267,0.01738
3022.27250,0.01714
3020.21232,0.01703
3018.15215,0.01702
3016.09198,0.01703
3014.03181,0.01703
3011.97163,0.01688
3009.91146,0.01663
3007.85129,0.01650
3005.79112,0.01646
3003.73095,0.01636
3001.67077,0.01625
2999.61060,0.01628
2997.55043,0.01631
2995.49026,0.01614
2993.43009,0.01602
2991.36991,0.01605
2989.30974,0.01601
2987.24957,0.01593
2985.18940,0.01605
2983.12923,0.01631
2981.06905,0.01634
2979.00888,0.01591
2976.94871,0.01542
2974.88854,0.01531
2972.82836,0.01546
2970.76819,0.01564
2968.70802,0.01568
2966.64785,0.01547
2964.58768,0.01524
2962.52750,0.01526
2960.46733,0.01525
2958.40716,0.01513
2956.34699,0.01522
2954.28682,0.01541
2952.22664,0.01532
2950.16647,0.01498
2948.10630,0.01470
2946.04613,0.01467
2943.98596,0.01485
2941.92578,0.01493
2939.86561,0.01500
2937.80544,0.01532
2935.74527,0.01553
2933.68509,0.01540
2931.62492,0.01515
2929.56475,0.01480
2927.50458,0.01451
2925.44441,0.01450
2923.38423,0.01459
2921.32406,0.01461
2919.26389,0.01461
2917.20372,0.01466
2915.14355,0.01474
2913.08337,0.01465
2911.02320,0.01434
2908.96303,0.01432
2906.90286,0.01463
2904.84268,0.01475
2902.78251,0.01467
2900.72234,0.01461
2898.66217,0.01456
2896.60200,0.01456
2894.54182,0.01444
2892.48165,0.01423
2890.42148,0.01423
2888.36131,0.01438
2886.30114,0.01429
2884.24096,0.01411
2882.18079,0.01424
2880.12062,0.01445
2878.06045,0.01422
2876.00028,0.01379
2873.94010,0.01373
2871.87993,0.01388
2869.81976,0.01378
2867.75959,0.01350
2865.69941,0.01338
2863.63924,0.01348
2861.57907,0.01374
2859.51890,0.01402
2857.45873,0.01403
2855.39855,0.01374
2853.33838,0.01341
2851.27821,0.01315
2849.21804,0.01301
2847.15787,0.01300
2845.09769,0.01299
2843.03752,0.01298
2840.97735,0.01309
2838.91718,0.01317
2836.85700,0.01306
2834.79683,0.01294
2832.73666,0.01288
2830.67649,0.01281
2828.61632,0.01274
2826.55614,0.01257
2824.49597,0.01233
2822.43580,0.01214
2820.37563,0.01217
2818.31546,0.01243
2816.25528,0.01254
2814.19511,0.01244
2812.13494,0.01239
2810.07477,0.01239
2808.01460,0.01241
2805.95442,0.01238
2803.89425,0.01225
2801.83408,0.01213
2799.77391,0.01193
2797.71373,0.01167
2795.65356,0.01168
2793.59339,0.01195
2791.53322,0.01211
2789.47305,0.01201
2787.41287,0.01181
2785.35270,0.01170
2783.29253,0.01159
2781.23236,0.01150
2779.17219,0.01163
2777.11201,0.01173
2775.05184,0.01161
2772.99167,0.01148
2770.93150,0.01146
2768.87133,0.01153
2766.81115,0.01166
2764.75098,0.01167
2762.69081,0.01140
2760.63064,0.01106
2758.57046,0.01102
2756.51029,0.01121
2754.45012,0.01129
2752.38995,0.01120
2750.32978,0.01108
2748.26960,0.01094
2746.20943,0.01075
2744.14926,0.01069
2742.08909,0.01078
2740.02892,0.01098
2737.96874,0.01110
2735.90857,0.01092
2733.84840,0.01063
2731.78823,0.01041
2729.72805,0.01032
2727.66788,0.01043
2725.60771,0.01062
2723.54754,0.01067
2721.48737,0.01056
2719.42719,0.01050
2717.36702,0.01060
2715.30685,0.01059
2713.24668,0.01042
2711.18651,0.01033
2709.12633,0.01024
2707.06616,0.01015
2705.00599,0.01017
2702.94582,0.00999
2700.88565,0.00973
2698.82547,0.00984
2696.76530,0.01000
2694.70513,0.00988
2692.64496,0.00967
2690.58478,0.00941
2688.52461,0.00918
2686.46444,0.00914
2684.40427,0.00925
2682.34410,0.00930
2680.28392,0.00921
2678.22375,0.00913
2676.16358,0.00912
2674.10341,0.00912
2672.04324,0.00910
2669.98306,0.00908
2667.92289,0.00903
2665.86272,0.00897
2663.80255,0.00899
2661.74238,0.00915
2659.68220,0.00930
2657.62203,0.00908
2655.56186,0.00868
2653.50169,0.00864
2651.44151,0.00872
2649.38134,0.00859
2647.32117,0.00854
2645.26100,0.00855
2643.20083,0.00848
2641.14065,0.00847
2639.08048,0.00852
2637.02031,0.00848
2634.96014,0.00826
2632.89997,0.00803
2630.83979,0.00811
2628.77962,0.00823
2626.71945,0.00785
2624.65928,0.00734
2622.59910,0.00734
2620.53893,0.00759
2618.47876,0.00775
2616.41859,0.00786
2614.35842,0.00799
2612.29824,0.00799
2610.23807,0.00774
2608.17790,0.00748
2606.11773,0.00749
2604.05756,0.00763
2601.99738,0.00751
2599.93721,0.00717
2597.87704,0.00691
2595.81687,0.00683
2593.75670,0.00685
2591.69652,0.00680
2589.63635,0.00672
2587.57618,0.00687
2585.51601,0.00711
2583.45583,0.00705
2581.39566,0.00660
2579.33549,0.00622
2577.27532,0.00635
2575.21515,0.00686
2573.15497,0.00718
2571.09480,0.00713
2569.03463,0.00707
2566.97446,0.00691
2564.91429,0.00650
2562.85411,0.00642
2560.79394,0.00676
2558.73377,0.00691
2556.67360,0.00671
2554.61342,0.00658
2552.55325,0.00661
2550.49308,0.00654
2548.43291,0.00639
2546.37274,0.00640
2544.31256,0.00643
2542.25239,0.00627
2540.19222,0.00618
2538.13205,0.00645
2536.07188,0.00697
2534.01170,0.00738
2531.95153,0.00727
2529.89136,0.00671
2527.83119,0.00638
2525.77102,0.00655
2523.71084,0.00677
2521.65067,0.00690
2519.59050,0.00718
2517.53033,0.00742
2515.47015,0.00718
2513.40998,0.00660
2511.34981,0.00627
2509.28964,0.00646
2507.22947,0.00693
2505.16929,0.00722
2503.10912,0.00696
2501.04895,0.00650
2498.98878,0.00635
2496.92861,0.00647
2494.86843,0.00682
2492.80826,0.00718
2490.74809,0.00725
2488.68792,0.00719
2486.62775,0.00706
2484.56757,0.00687
2482.50740,0.00682
2480.44723,0.00688
2478.38706,0.00678
2476.32688,0.00668
2474.26671,0.00668
2472.20654,0.00673
2470.14637,0.00692
2468.08620,0.00718
2466.02602,0.00726
2463.96585,0.00713
2461.90568,0.00702
2459.84551,0.00703
2457.78534,0.00700
2455.72516,0.00687
2453.66499,0.00688
2451.60482,0.00696
2449.54465,0.00693
2447.48447,0.00709
2445.42430,0.00728
2443.36413,0.00730
2441.30396,0.00740
2439.24379,0.00739
2437.18361,0.00719
2435.12344,0.00706
2433.06327,0.00708
2431.00310,0.00726
2428.94293,0.00733
2426.88275,0.00718
2424.82258,0.00735
2422.76241,0.00768
2420.70224,0.00759
2418.64207,0.00728
2416.58189,0.00716
2414.52172,0.00715
2412.46155,0.00707
2410.40138,0.00709
2408.34120,0.00720
2406.28103,0.00725
2404.22086,0.00758
2402.16069,0.00799
2400.10052,0.00795
2398.04034,0.00744
2395.98017,0.00697
2393.92000,0.00655
2391.85983,0.00629
2389.79966,0.00637
2387.73948,0.00667
2385.67931,0.00679
2383.61914,0.00665
2381.55897,0.00648
2379.49880,0.00650
2377.43862,0.00646
2375.37845,0.00619
2373.31828,0.00550
2371.25811,0.00484
2369.19793,0.00546
2367.13776,0.00744
2365.07759,0.00913
2363.01742,0.00863
2360.95725,0.00364
2358.89707,0.00014
2356.83690,0.00207
2354.77673,0.00576
2352.71656,0.00699
2350.65639,0.00489
2348.59621,0.00463
2346.53604,0.00901
2344.47587,0.00999
2342.41570,0.00846
2340.35552,0.00732
2338.29535,0.00688
2336.23518,0.00683
2334.17501,0.00632
2332.11484,0.00603
2330.05466,0.00631
2327.99449,0.00762
2325.93432,0.00854
2323.87415,0.00864
2321.81398,0.00757
2319.75380,0.00686
2317.69363,0.00669
2315.63346,0.00731
2313.57329,0.00789
2311.51312,0.00782
2309.45294,0.00733
2307.39277,0.00679
2305.33260,0.00631
2303.27243,0.00603
2301.21225,0.00632
2299.15208,0.00671
2297.09191,0.00704
2295.03174,0.00737
2292.97157,0.00744
2290.91139,0.00720
2288.85122,0.00690
2286.79105,0.00674
2284.73088,0.00677
2282.67071,0.00704
2280.61053,0.00744
2278.55036,0.00751
2276.49019,0.00693
2274.43002,0.00617
2272.36984,0.00606
2270.30967,0.00636
2268.24950,0.00642
2266.18933,0.00635
2264.12916,0.00625
2262.06898,0.00605
2260.00881,0.00602
2257.94864,0.00619
2255.88847,0.00639
2253.82830,0.00638
2251.76812,0.00608
2249.70795,0.00564
2247.64778,0.00492
2245.58761,0.00467
2243.52744,0.00581
2241.46726,0.00680
2239.40709,0.00663
2237.34692,0.00619
2235.28675,0.00575
2233.22657,0.00551
2231.16640,0.00546
2229.10623,0.00501
2227.04606,0.00478
2224.98589,0.00460
2222.92571,0.00399
2220.86554,0.00392
2218.80537,0.00428
2216.74520,0.00483
2214.68503,0.00537
2212.62485,0.00515
2210.56468,0.00432
2208.50451,0.00403
2206.44434,0.00505
2204.38417,0.00637
2202.32399,0.00649
2200.26382,0.00578
2198.20365,0.00535
2196.14348,0.00539
2194.08330,0.00530
2192.02313,0.00466
2189.96296,0.00403
2187.90279,0.00377
2185.84262,0.00349
2183.78244,0.00358
2181.72227,0.00425
2179.66210,0.00466
2177.60193,0.00420
2175.54176,0.00373
2173.48158,0.00363
2171.42141,0.00341
2169.36124,0.00369
2167.30107,0.00438
2165.24089,0.00413
2163.18072,0.00311
2161.12055,0.00186
2159.06038,0.00086
2157.00021,0.00196
2154.94003,0.00365
2152.87986,0.00378
2150.81969,0.00381
2148.75952,0.00417
2146.69935,0.00387
2144.63917,0.00268
2142.57900,0.00122
2140.51883,0.00036
2138.45866,0.00059
2136.39849,0.00166
2134.33831,0.00234
2132.27814,0.00234
2130.21797,0.00235
2128.15780,0.00253
2126.09762,0.00286
2124.03745,0.00354
2121.97728,0.00444
2119.91711,0.00471
2117.85694,0.00433
2115.79676,0.00428
2113.73659,0.00437
2111.67642,0.00425
2109.61625,0.00419
2107.55608,0.00384
2105.49590,0.00352
2103.43573,0.00414
2101.37556,0.00520
2099.31539,0.00558
2097.25521,0.00509
2095.19504,0.00441
2093.13487,0.00411
2091.07470,0.00395
2089.01453,0.00349
2086.95435,0.00279
2084.89418,0.00248
2082.83401,0.00288
2080.77384,0.00352
2078.71367,0.00350
2076.65349,0.00266
2074.59332,0.00195
2072.53315,0.00181
2070.47298,0.00164
2068.41281,0.00171
2066.35263,0.00249
2064.29246,0.00300
2062.23229,0.00295
2060.17212,0.00329
2058.11194,0.00366
2056.05177,0.00359
2053.99160,0.00391
2051.93143,0.00456
2049.87126,0.00492
2047.81108,0.00498
2045.75091,0.00445
2043.69074,0.00338
2041.63057,0.00249
2039.57040,0.00250
2037.51022,0.00307
2035.45005,0.00286
2033.38988,0.00208
2031.32971,0.00155
2029.26954,0.00109
2027.20936,0.00088
2025.14919,0.00158
2023.08902,0.00267
2021.02885,0.00304
2018.96867,0.00288
2016.90850,0.00321
2014.84833,0.00364
2012.78816,0.00279
2010.72799,0.00110
2008.66781,0.00015
2006.60764,0.00031
2004.54747,0.00105
2002.48730,0.00210
2000.42713,0.00312
1998.36695,0.00359
1996.30678,0.00368
1994.24661,0.00402
1992.18644,0.00482
1990.12626,0.00527
1988.06609,0.00465
1986.00592,0.00366
1983.94575,0.00334
1981.88558,0.00343
1979.82540,0.00276
1977.76523,0.00163
1975.70506,0.00125
1973.64489,0.00115
1971.58472,0.00120
1969.52454,0.00207
1967.46437,0.00236
1965.40420,0.00143
1963.34403,0.00076
1961.28386,0.00053
1959.22368,0.00021
1957.16351,0.00000
1955.10334,0.00025
1953.04317,0.00079
1950.98299,0.00145
1948.92282,0.00223
1946.86265,0.00267
1944.80248,0.00279
1942.74231,0.00291
1940.68213,0.00274
1938.62196,0.00237
1936.56179,0.00215
1934.50162,0.00197
1932.44145,0.00149
1930.38127,0.00114
1928.32110,0.00161
1926.26093,0.00222
1924.20076,0.00199
1922.14059,0.00154
1920.08041,0.00199
1918.02024,0.00283
1915.96007,0.00288
1913.89990,0.00211
1911.83972,0.00142
1909.77955,0.00140
1907.71938,0.00195
1905.65921,0.00265
1903.59904,0.00301
1901.53886,0.00273
1899.47869,0.00244
1897.41852,0.00279
1895.35835,0.00313
1893.29818,0.00288
1891.23800,0.00257
1889.17783,0.00252
1887.11766,0.00240
1885.05749,0.00216
1882.99731,0.00213
1880.93714,0.00235
1878.87697,0.00243
1876.81680,0.00222
1874.75663,0.00206
1872.69645,0.00196
1870.63628,0.00197
1868.57611,0.00233
1866.51594,0.00268
1864.45577,0.00239
1862.39559,0.00184
1860.33542,0.00189
1858.27525,0.00265
1856.21508,0.00353
1854.15491,0.00392
1852.09473,0.00359
1850.03456,0.00296
1847.97439,0.00259
1845.91422,0.00261
1843.85404,0.00265
1841.79387,0.00236
1839.73370,0.00207
1837.67353,0.00222
1835.61336,0.00255
1833.55318,0.00269
1831.49301,0.00267
1829.43284,0.00253
1827.37267,0.00228
1825.31250,0.00204
1823.25232,0.00203
1821.19215,0.00226
1819.13198,0.00252
1817.07181,0.00260
1815.01163,0.00257
1812.95146,0.00265
1810.89129,0.00288
1808.83112,0.00305
1806.77095,0.00300
1804.71077,0.00286
1802.65060,0.00283
1800.59043,0.00275
1798.53026,0.00266
1796.47009,0.00279
1794.40991,0.00301
1792.34974,0.00308
1790.28957,0.00301
1788.22940,0.00301
1786.16923,0.00301
1784.10905,0.00289
1782.04888,0.00281
1779.98871,0.00306
1777.92854,0.00345
1775.86836,0.00359
1773.80819,0.00336
1771.74802,0.00301
1769.68785,0.00289
1767.62768,0.00304
1765.56750,0.00320
1763.50733,0.00322
1761.44716,0.00315
1759.38699,0.00309
1757.32682,0.00318
1755.26664,0.00357
1753.20647,0.00404
1751.14630,0.00410
1749.08613,0.00379
1747.02596,0.00364
1744.96578,0.00384
1742.90561,0.00421
1740.84544,0.00455
1738.78527,0.00464
1736.72509,0.00448
1734.66492,0.00445
1732.60475,0.00472
1730.54458,0.00480
1728.48441,0.00463
1726.42423,0.00455
1724.36406,0.00469
1722.30389,0.00510
1720.24372,0.00573
1718.18355,0.00620
1716.12337,0.00600
1714.06320,0.00535
1712.00303,0.00494
1709.94286,0.00496
1707.88268,0.00526
1705.82251,0.00571
1703.76234,0.00617
1701.70217,0.00650
1699.64200,0.00649
1697.58182,0.00623
1695.52165,0.00612
1693.46148,0.00628
1691.40131,0.00654
1689.34114,0.00677
1687.28096,0.00694
1685.22079,0.00701
1683.16062,0.00695
1681.10045,0.00703
1679.04028,0.00727
1676.98010,0.00751
1674.91993,0.00767
1672.85976,0.00793
1670.79959,0.00832
1668.73941,0.00849
1666.67924,0.00834
1664.61907,0.00822
1662.55890,0.00837
1660.49873,0.00859
1658.43855,0.00871
1656.37838,0.00879
1654.31821,0.00885
1652.25804,0.00888
1650.19787,0.00888
1648.13769,0.00890
1646.07752,0.00888
1644.01735,0.00870
1641.95718,0.00848
1639.89701,0.00832
1637.83683,0.00816
1635.77666,0.00812
1633.71649,0.00827
1631.65632,0.00843
1629.59614,0.00844
1627.53597,0.00819
1625.47580,0.00783
1623.41563,0.00763
1621.35546,0.00765
1619.29528,0.00773
1617.23511,0.00773
1615.17494,0.00766
1613.11477,0.00761
1611.05460,0.00756
1608.99442,0.00743
1606.93425,0.00723
1604.87408,0.00707
1602.81391,0.00695
1600.75373,0.00680
1598.69356,0.00650
1596.63339,0.00615
1594.57322,0.00595
1592.51305,0.00589
1590.45287,0.00578
1588.39270,0.00554
1586.33253,0.00526
1584.27236,0.00499
1582.21219,0.00478
1580.15201,0.00471
1578.09184,0.00475
1576.03167,0.00473
1573.97150,0.00457
1571.91133,0.00439
1569.85115,0.00424
1567.79098,0.00409
1565.73081,0.00396
1563.67064,0.00387
1561.61046,0.00371
1559.55029,0.00346
1557.49012,0.00335
1555.42995,0.00336
1553.36978,0.00329
1551.30960,0.00310
1549.24943,0.00286
1547.18926,0.00267
1545.12909,0.00257
1543.06892,0.00256
1541.00874,0.00269
1538.94857,0.00291
1536.88840,0.00299
1534.82823,0.00291
1532.76805,0.00275
1530.70788,0.00257
1528.64771,0.00245
1526.58754,0.00243
1524.52737,0.00247
1522.46719,0.00246
1520.40702,0.00230
1518.34685,0.00218
1516.28668,0.00222
1514.22651,0.00227
1512.16633,0.00234
1510.10616,0.00252
1508.04599,0.00268
1505.98582,0.00256
1503.92565,0.00227
1501.86547,0.00206
1499.80530,0.00201
1497.74513,0.00204
1495.68496,0.00199
1493.62478,0.00175
1491.56461,0.00149
1489.50444,0.00139
1487.44427,0.00142
1485.38410,0.00142
1483.32392,0.00147
1481.26375,0.00157
1479.20358,0.00160
1477.14341,0.00154
1475.08324,0.00153
1473.02306,0.00167
1470.96289,0.00184
1468.90272,0.00179
1466.84255,0.00170
1464.78238,0.00179
1462.72220,0.00198
1460.66203,0.00211
1458.60186,0.00219
1456.54169,0.00225
1454.48151,0.00222
1452.42134,0.00215
1450.36117,0.00217
1448.30100,0.00225
1446.24083,0.00229
1444.18065,0.00222
1442.12048,0.00208
1440.06031,0.00200
1438.00014,0.00205
1435.93997,0.00210
1433.87979,0.00201
1431.81962,0.00183
1429.75945,0.00173
1427.69928,0.00176
1425.63910,0.00179
1423.57893,0.00178
1421.51876,0.00181
1419.45859,0.00191
1417.39842,0.00200
1415.33824,0.00205
1413.27807,0.00209
1411.21790,0.00209
1409.15773,0.00201
1407.09756,0.00186
1405.03738,0.00168
1402.97721,0.00163
1400.91704,0.00174
1398.85687,0.00185
1396.79670,0.00196
1394.73652,0.00206
1392.67635,0.00199
1390.61618,0.00182
1388.55601,0.00176
1386.49583,0.00179
1384.43566,0.00185
1382.37549,0.00197
1380.31532,0.00211
1378.25515,0.00230
1376.19497,0.00247
1374.13480,0.00242
1372.07463,0.00218
1370.01446,0.00205
1367.95429,0.00209
1365.89411,0.00216
1363.83394,0.00229
1361.77377,0.00247
1359.71360,0.00256
1357.65343,0.00247
1355.59325,0.00226
1353.53308,0.00211
1351.47291,0.00216
1349.41274,0.00230
1347.35256,0.00237
1345.29239,0.00239
1343.23222,0.00232
1341.17205,0.00223
1339.11188,0.00227
1337.05170,0.00241
1334.99153,0.00248
1332.93136,0.00238
1330.87119,0.00215
1328.81102,0.00198
1326.75084,0.00205
1324.69067,0.00224
1322.63050,0.00232
1320.57033,0.00228
1318.51015,0.00222
1316.44998,0.00215
1314.38981,0.00206
1312.32964,0.00202
1310.26947,0.00197
1308.20929,0.00188
1306.14912,0.00184
1304.08895,0.00190
1302.02878,0.00193
1299.96861,0.00190
1297.90843,0.00201
1295.84826,0.00215
1293.78809,0.00206
1291.72792,0.00194
1289.66775,0.00199
1287.60757,0.00207
1285.54740,0.00216
1283.48723,0.00226
1281.42706,0.00234
1279.36688,0.00243
1277.30671,0.00246
1275.24654,0.00230
1273.18637,0.00219
1271.12620,0.00231
1269.06602,0.00252
1267.00585,0.00263
1264.94568,0.00253
1262.88551,0.00224
1260.82534,0.00212
1258.76516,0.00221
1256.70499,0.00217
1254.64482,0.00200
1252.58465,0.00201
1250.52447,0.00213
1248.46430,0.00210
1246.40413,0.00184
1244.34396,0.00163
1242.28379,0.00170
1240.22361,0.00185
1238.16344,0.00179
1236.10327,0.00163
1234.04310,0.00162
1231.98293,0.00175
1229.92275,0.00186
1227.86258,0.00186
1225.80241,0.00165
1223.74224,0.00143
1221.68207,0.00140
1219.62189,0.00145
1217.56172,0.00151
1215.50155,0.00155
1213.44138,0.00150
1211.38120,0.00133
1209.32103,0.00113
1207.26086,0.00114
1205.20069,0.00127
1203.14052,0.00128
1201.08034,0.00134
1199.02017,0.00164
1196.96000,0.00191
1194.89983,0.00201
1192.83966,0.00209
1190.77948,0.00236
1188.71931,0.00283
1186.65914,0.00323
1184.59897,0.00348
1182.53880,0.00383
1180.47862,0.00424
1178.41845,0.00458
1176.35828,0.00491
1174.29811,0.00523
1172.23793,0.00561
1170.17776,0.00611
1168.11759,0.00662
1166.05742,0.00710
1163.99725,0.00750
1161.93707,0.00778
1159.87690,0.00806
1157.81673,0.00849
1155.75656,0.00895
1153.69639,0.00921
1151.63621,0.00947
1149.57604,0.00998
1147.51587,0.01059
1145.45570,0.01116
1143.39552,0.01173
1141.33535,0.01237
1139.27518,0.01298
1137.21501,0.01342
1135.15484,0.01388
1133.09466,0.01454
1131.03449,0.01525
1128.97432,0.01588
1126.91415,0.01651
1124.85398,0.01717
1122.79380,0.01772
1120.73363,0.01820
1118.67346,0.01880
1116.61329,0.01942
1114.55312,0.01992
1112.49294,0.02039
1110.43277,0.02094
1108.37260,0.02158
1106.31243,0.02227
1104.25225,0.02293
1102.19208,0.02351
1100.13191,0.02412
1098.07174,0.02470
1096.01157,0.02522
1093.95139,0.02564
1091.89122,0.02606
1089.83105,0.02665
1087.77088,0.02734
1085.71071,0.02792
1083.65053,0.02838
1081.59036,0.02881
1079.53019,0.02925
1077.47002,0.02964
1075.40985,0.02985
1073.34967,0.02991
1071.28950,0.02998
1069.22933,0.03010
1067.16916,0.03041
1065.10898,0.03078
1063.04881,0.03090
1060.98864,0.03074
1058.92847,0.03044
1056.86830,0.03028
1054.80812,0.03029
1052.74795,0.03017
1050.68778,0.02991
1048.62761,0.02961
1046.56744,0.02923
1044.50726,0.02871
1042.44709,0.02798
1040.38692,0.02723
1038.32675,0.02665
1036.26657,0.02615
1034.20640,0.02560
1032.14623,0.02496
1030.08606,0.02430
1028.02589,0.02366
1025.96571,0.02300
1023.90554,0.02249
1021.84537,0.02214
1019.78520,0.02186
1017.72503,0.02164
1015.66485,0.02131
1013.60468,0.02083
1011.54451,0.02062
1009.48434,0.02068
1007.42417,0.02053
1005.36399,0.02014
1003.30382,0.01988
1001.24365,0.01998
999.18348,0.02035
997.12330,0.02066
995.06313,0.02080
993.00296,0.02108
990.94279,0.02160
988.88262,0.02218
986.82244,0.02261
984.76227,0.02266
982.70210,0.02245
980.64193,0.02223
978.58176,0.02200
976.52158,0.02193
974.46141,0.02200
972.40124,0.02168
970.34107,0.02089
968.28089,0.02006
966.22072,0.01941
964.16055,0.01887
962.10038,0.01829
960.04021,0.01764
957.98003,0.01716
955.91986,0.01678
953.85969,0.01619
951.79952,0.01560
949.73935,0.01535
947.67917,0.01528
945.61900,0.01513
943.55883,0.01482
941.49866,0.01469
939.43849,0.01498
937.37831,0.01525
935.31814,0.01511
933.25797,0.01477
931.19780,0.01470
929.13762,0.01478
927.07745,0.01456
925.01728,0.01419
922.95711,0.01409
920.89694,0.01431
918.83676,0.01447
916.77659,0.01423
914.71642,0.01366
912.65625,0.01312
910.59608,0.01279
908.53590,0.01257
906.47573,0.01264
904.41556,0.01298
902.35539,0.01306
900.29522,0.01256
898.23504,0.01189
896.17487,0.01174
894.11470,0.01220
892.05453,0.01260
889.99435,0.01266
887.93418,0.01269
885.87401,0.01272
883.81384,0.01272
881.75367,0.01284
879.69349,0.01324
877.63332,0.01379
875.57315,0.01395
873.51298,0.01388
871.45281,0.01419
869.39263,0.01447
867.33246,0.01424
865.27229,0.01401
863.21212,0.01399
861.15194,0.01396
859.09177,0.01396
857.03160,0.01405
854.97143,0.01408
852.91126,0.01392
850.85108,0.01352
848.79091,0.01297
846.73074,0.01256
844.67057,0.01221
842.61040,0.01186
840.55022,0.01174
838.49005,0.01165
836.42988,0.01127
834.36971,0.01076
832.30954,0.01047
830.24936,0.01035
828.18919,0.01005
826.12902,0.00949
824.06885,0.00880
822.00867,0.00838
819.94850,0.00834
817.88833,0.00818
815.82816,0.00782
813.76799,0.00755
811.70781,0.00756
809.64764,0.00763
807.58747,0.00755
805.52730,0.00726
803.46713,0.00677
801.40695,0.00663
799.34678,0.00688
797.28661,0.00687
795.22644,0.00649
793.16627,0.00613
791.10609,0.00608
789.04592,0.00611
786.98575,0.00596
784.92558,0.00617
782.86540,0.00658
780.80523,0.00649
778.74506,0.00594
776.68489,0.00540
774.62472,0.00523
772.56454,0.00522
770.50437,0.00498
768.44420,0.00510
766.38403,0.00584
764.32386,0.00627
762.26368,0.00578
760.20351,0.00482
758.14334,0.00440
756.08317,0.00451
754.02299,0.00439
751.96282,0.00418
749.90265,0.00440
747.84248,0.00498
745.78231,0.00506
743.72213,0.00451
741.66196,0.00414
739.60179,0.00437
737.54162,0.00495
735.48145,0.00521
733.42127,0.00497
731.36110,0.00469
729.30093,0.00450
727.24076,0.00416
725.18059,0.00391
723.12041,0.00425
721.06024,0.00488
719.00007,0.00445
716.93990,0.00404
714.87972,0.00454
712.81955,0.00503
710.75938,0.00472
708.69921,0.00400
706.63904,0.00368
704.57886,0.00388
702.51869,0.00409
700.45852,0.00382
698.39835,0.00318
696.33818,0.00295
694.27800,0.00312
692.21783,0.00297
690.15766,0.00285
688.09749,0.00319
686.03731,0.00313
683.97714,0.00246
681.91697,0.00221
679.85680,0.00253
677.79663,0.00283
675.73645,0.00318
673.67628,0.00278
671.61611,0.00162
669.55594,0.00500
667.49577,0.00758
665.43559,0.00163
663.37542,0.00256
661.31525,0.00467
659.25508,0.00491
657.19491,0.00376
655.13473,0.00226
653.07456,0.00112
651.01439,0.00017
648.95422,0.00000
646.89404,0.00082
644.83387,0.00206
642.77370,0.00218
640.71353,0.00148
638.65336,0.00099
636.59318,0.00095
634.53301,0.00125
632.47284,0.00162
630.41267,0.00175
628.35250,0.00204
626.29232,0.00239
624.23215,0.00184
622.17198,0.00107
620.11181,0.00076
618.05164,0.00094
615.99146,0.00141
613.93129,0.00101
611.87112,-0.00006
609.81095,-0.00152
607.75077,-0.00254
605.69060,-0.00169
603.63043,0.00008
601.57026,0.00059
599.51009,0.00000
