3996.73391,0.00154
3994.67373,0.00158
3992.61356,0.00166
3990.55339,0.00165
3988.49322,0.00145
3986.43305,0.00109
3984.37287,0.00065
3982.31270,0.00043
3980.25253,0.00065
3978.19236,0.00087
3976.13219,0.00083
3974.07201,0.00087
3972.01184,0.00114
3969.95167,0.00136
3967.89150,0.00128
3965.83133,0.00117
3963.77115,0.00122
3961.71098,0.00138
3959.65081,0.00154
3957.59064,0.00158
3955.53046,0.00143
3953.47029,0.00090
3951.41012,0.00015
3949.34995,0.00000
3947.28978,0.00077
3945.22960,0.00117
3943.16943,0.00068
3941.10926,0.00064
3939.04909,0.00119
3936.98892,0.00158
3934.92874,0.00137
3932.86857,0.00070
3930.80840,0.00062
3928.74823,0.00108
3926.68805,0.00109
3924.62788,0.00125
3922.56771,0.00202
3920.50754,0.00214
3918.44737,0.00154
3916.38719,0.00140
3914.32702,0.00186
3912.26685,0.00204
3910.20668,0.00194
3908.14651,0.00161
3906.08633,0.00091
3904.02616,0.00086
3901.96599,0.00130
3899.90582,0.00118
3897.84565,0.00172
3895.78547,0.00238
3893.72530,0.00148
3891.66513,0.00033
3889.60496,0.00089
3887.54478,0.00128
3885.48461,0.00145
3883.42444,0.00225
3881.36427,0.00177
3879.30410,0.00176
3877.24392,0.00256
3875.18375,0.00235
3873.12358,0.00203
3871.06341,0.00167
3869.00324,0.00253
3866.94306,0.00363
3864.88289,0.00282
3862.82272,0.00248
3860.76255,0.00327
3858.70237,0.00372
3856.64220,0.00259
3854.58203,0.00030
3852.52186,0.00041
3850.46169,0.00241
3848.40151,0.00314
3846.34134,0.00272
3844.28117,0.00210
3842.22100,0.00201
3840.16083,0.00208
3838.10065,0.00232
3836.04048,0.00285
3833.98031,0.00264
3831.92014,0.00215
3829.85997,0.00230
3827.79979,0.00243
3825.73962,0.00268
3823.67945,0.00213
3821.61928,0.00087
3819.55910,0.00183
3817.49893,0.00218
3815.43876,0.00189
3813.37859,0.00305
3811.31842,0.00346
3809.25824,0.00230
3807.19807,0.00137
3805.13790,0.00196
3803.07773,0.00124
3801.01756,0.00041
3798.95738,0.00130
3796.89721,0.00156
3794.83704,0.00206
3792.77687,0.00245
3790.71670,0.00219
3788.65652,0.00216
3786.59635,0.00236
3784.53618,0.00268
3782.47601,0.00285
3780.41583,0.00236
3778.35566,0.00252
3776.29549,0.00332
3774.23532,0.00347
3772.17515,0.00270
3770.11497,0.00196
3768.05480,0.00234
3765.99463,0.00283
3763.93446,0.00318
3761.87429,0.00270
3759.81411,0.00171
3757.75394,0.00204
3755.69377,0.00279
3753.63360,0.00207
3751.57342,0.00105
3749.51325,0.00204
3747.45308,0.00265
3745.39291,0.00141
3743.33274,0.00252
3741.27256,0.00475
3739.21239,0.00475
3737.15222,0.00325
3735.09205,0.00197
3733.03188,0.00196
3730.97170,0.00304
3728.91153,0.00385
3726.85136,0.00336
3724.79119,0.00265
3722.73102,0.00221
3720.67084,0.00217
3718.61067,0.00260
3716.55050,0.00309
3714.49033,0.00229
3712.43015,0.00036
3710.36998,0.00000
3708.30981,0.00145
3706.24964,0.00285
3704.18947,0.00334
3702.12929,0.00359
3700.06912,0.00427
3698.00895,0.00434
3695.94878,0.00395
3693.88861,0.00360
3691.82843,0.00261
3689.76826,0.00183
3687.70809,0.00306
3685.64792,0.00464
3683.58775,0.00465
3681.52757,0.00388
3679.46740,0.00323
3677.40723,0.00231
3675.34706,0.00258
3673.28688,0.00458
3671.22671,0.00375
3669.16654,0.00259
3667.10637,0.00349
3665.04620,0.00381
3662.98602,0.00367
3660.92585,0.00397
3658.86568,0.00412
3656.80551,0.00421
3654.74534,0.00546
3652.68516,0.00553
3650.62499,0.00331
3648.56482,0.00252
3646.50465,0.00443
3644.44447,0.00610
3642.38430,0.00624
3640.32413,0.00603
3638.26396,0.00592
3636.20379,0.00577
3634.14361,0.00606
3632.08344,0.00667
3630.02327,0.00628
3627.96310,0.00672
3625.90293,0.00829
3623.84275,0.00868
3621.78258,0.00785
3619.72241,0.00697
3617.66224,0.00737
3615.60207,0.00781
3613.54189,0.00788
3611.48172,0.00861
3609.42155,0.00895
3607.36138,0.00914
3605.30120,0.00967
3603.24103,0.00936
3601.18086,0.00882
3599.12069,0.00936
3597.06052,0.01031
3595.00034,0.01110
3592.94017,0.01192
3590.88000,0.01189
3588.81983,0.01066
3586.75966,0.01032
3584.69948,0.01135
3582.63931,0.01189
3580.57914,0.01188
3578.51897,0.01187
3576.45879,0.01202
3574.39862,0.01261
3572.33845,0.01348
3570.27828,0.01354
3568.21811,0.01266
3566.15793,0.01275
3564.09776,0.01385
3562.03759,0.01431
3559.97742,0.01438
3557.91725,0.01462
3555.85707,0.01465
3553.79690,0.01433
3551.73673,0.01444
3549.67656,0.01516
3547.61639,0.01541
3545.55621,0.01523
3543.49604,0.01558
3541.43587,0.01631
3539.37570,0.01683
3537.31552,0.01713
3535.25535,0.01758
3533.19518,0.01796
3531.13501,0.01791
3529.07484,0.01775
3527.01466,0.01788
3524.95449,0.01810
3522.89432,0.01838
3520.83415,0.01894
3518.77398,0.01936
3516.71380,0.01945
3514.65363,0.01936
3512.59346,0.01928
3510.53329,0.01931
3508.47312,0.01967
3506.41294,0.02009
3504.35277,0.02010
3502.29260,0.02015
3500.23243,0.02036
3498.17225,0.02055
3496.11208,0.02090
3494.05191,0.02111
3491.99174,0.02090
3489.93157,0.02073
3487.87139,0.02115
3485.81122,0.02188
3483.75105,0.02217
3481.69088,0.02229
3479.63071,0.02266
3477.57053,0.02274
3475.51036,0.02264
3473.45019,0.02275
3471.39002,0.02277
3469.32984,0.02281
3467.26967,0.02325
3465.20950,0.02367
3463.14933,0.02369
3461.08916,0.02391
3459.02898,0.02432
3456.96881,0.02441
3454.90864,0.02432
3452.84847,0.02442
3450.78830,0.02473
3448.72812,0.02490
3446.66795,0.02518
3444.60778,0.02557
3442.54761,0.02561
3440.48744,0.02555
3438.42726,0.02546
3436.36709,0.02575
3434.30692,0.02634
3432.24675,0.02651
3430.18657,0.02625
3428.12640,0.02583
3426.06623,0.02561
3424.00606,0.02567
3421.94589,0.02573
3419.88571,0.02599
3417.82554,0.02656
3415.76537,0.02692
3413.70520,0.02712
3411.64503,0.02742
3409.58485,0.02751
3407.52468,0.02741
3405.46451,0.02763
3403.40434,0.02796
3401.34416,0.02788
3399.28399,0.02759
3397.22382,0.02749
3395.16365,0.02768
3393.10348,0.02775
3391.04330,0.02791
3388.98313,0.02817
3386.92296,0.02818
3384.86279,0.02817
3382.80262,0.02831
3380.74244,0.02827
3378.68227,0.02805
3376.62210,0.02810
3374.56193,0.02855
3372.50176,0.02898
3370.44158,0.02902
3368.38141,0.02884
3366.32124,0.02902
3364.26107,0.02942
3362.20089,0.02930
3360.14072,0.02890
3358.08055,0.02895
3356.02038,0.02928
3353.96021,0.02922
3351.90003,0.02889
3349.83986,0.02900
3347.77969,0.02926
3345.71952,0.02918
3343.65935,0.02892
3341.59917,0.02869
3339.53900,0.02874
3337.47883,0.02910
3335.41866,0.02956
3333.35849,0.02994
3331.29831,0.03010
3329.23814,0.03002
3327.17797,0.02986
3325.11780,0.02979
3323.05762,0.02979
3320.99745,0.02958
3318.93728,0.02921
3316.87711,0.02908
3314.81694,0.02921
3312.75676,0.02939
3310.69659,0.02951
3308.63642,0.02971
3306.57625,0.02988
3304.51608,0.02983
3302.45590,0.02985
3300.39573,0.03004
3298.33556,0.03010
3296.27539,0.03014
3294.21521,0.03035
3292.15504,0.03049
3290.09487,0.03043
3288.03470,0.03039
3285.97453,0.03037
3283.91435,0.03013
3281.85418,0.02990
3279.79401,0.03009
3277.73384,0.03036
3275.67367,0.03041
3273.61349,0.03049
3271.55332,0.03058
3269.49315,0.03038
3267.43298,0.03011
3265.37281,0.03028
3263.31263,0.03069
3261.25246,0.03090
3259.19229,0.03084
3257.13212,0.03052
3255.07194,0.03022
3253.01177,0.03030
3250.95160,0.03059
3248.89143,0.03086
3246.83126,0.03101
3244.77108,0.03101
3242.71091,0.03099
3240.65074,0.03077
3238.59057,0.03044
3236.53040,0.03048
3234.47022,0.03072
3232.41005,0.03079
3230.34988,0.03060
3228.28971,0.03030
3226.22954,0.03029
3224.16936,0.03050
3222.10919,0.03057
3220.04902,0.03051
3217.98885,0.03041
3215.92867,0.03043
3213.86850,0.03076
3211.80833,0.03100
3209.74816,0.03065
3207.68799,0.03009
3205.62781,0.02988
3203.56764,0.02996
3201.50747,0.02995
3199.44730,0.02988
3197.38713,0.02981
3195.32695,0.02967
3193.26678,0.02958
3191.20661,0.02973
3189.14644,0.02988
3187.08626,0.02960
3185.02609,0.02920
3182.96592,0.02929
3180.90575,0.02948
3178.84558,0.02934
3176.78540,0.02932
3174.72523,0.02941
3172.66506,0.02927
3170.60489,0.02910
3168.54472,0.02910
3166.48454,0.02916
3164.42437,0.02918
3162.36420,0.02914
3160.30403,0.02896
3158.24386,0.02860
3156.18368,0.02820
3154.12351,0.02802
3152.06334,0.02826
3150.00317,0.02865
3147.94299,0.02888
3145.88282,0.02893
3143.82265,0.02871
3141.76248,0.02834
3139.70231,0.02818
3137.64213,0.02824
3135.58196,0.02818
3133.52179,0.02779
3131.46162,0.02732
3129.40145,0.02706
3127.34127,0.02709
3125.28110,0.02730
3123.22093,0.02747
3121.16076,0.02744
3119.10058,0.02720
3117.04041,0.02695
3114.98024,0.02692
3112.92007,0.02694
3110.85990,0.02680
3108.79972,0.02663
3106.73955,0.02639
3104.67938,0.02606
3102.61921,0.02596
3100.55904,0.02612
3098.49886,0.02620
3096.43869,0.02605
3094.37852,0.02593
3092.31835,0.02598
3090.25818,0.02604
3088.19800,0.02590
3086.13783,0.02562
3084.07766,0.02546
3082.01749,0.02549
3079.95731,0.02547
3077.89714,0.02538
3075.83697,0.02538
3073.77680,0.02526
3071.71663,0.02499
3069.65645,0.02498
3067.59628,0.02514
3065.53611,0.02494
3063.47594,0.02445
3061.41577,0.02408
3059.35559,0.02388
3057.29542,0.02371
3055.23525,0.02369
3053.17508,0.02382
3051.11491,0.02380
3049.05473,0.02363
3046.99456,0.02339
3044.93439,0.02320
3042.87422,0.02318
3040.81404,0.02312
3038.75387,0.02292
3036.69370,0.02276
3034.63353,0.02270
3032.57336,0.02270
3030.51318,0.02273
3028.45301,0.02271
3026.39284,0.02250
3024.33267,0.02213
3022.27250,0.02190
3020.21232,0.02186
3018.15215,0.02182
3016.09198,0.02175
3014.03181,0.02160
3011.97163,0.02128
3009.91146,0.02103
3007.85129,0.02110
3005.79112,0.02114
3003.73095,0.02090
3001.67077,0.02067
2999.61060,0.02076
2997.55043,0.02088
2995.49026,0.02072
2993.43009,0.02047
2991.36991,0.02027
2989.30974,0.02006
2987.24957,0.01992
2985.18940,0.02000
2983.12923,0.02020
2981.06905,0.02023
2979.00888,0.01998
2976.94871,0.01969
2974.88854,0.01941
2972.82836,0.01922
2970.76819,0.01939
2968.70802,0.01969
2966.64785,0.01970
2964.58768,0.01953
2962.52750,0.01946
2960.46733,0.01951
2958.40716,0.01959
2956.34699,0.01963
2954.28682,0.01955
2952.22664,0.01939
2950.16647,0.01939
2948.10630,0.01945
2946.04613,0.01930
2943.98596,0.01908
2941.92578,0.01894
2939.86561,0.01900
2937.80544,0.01926
2935.74527,0.01939
2933.68509,0.01929
2931.62492,0.01907
2929.56475,0.01879
2927.50458,0.01860
2925.44441,0.01859
2923.38423,0.01874
2921.32406,0.01880
2919.26389,0.01849
2917.20372,0.01828
2915.14355,0.01849
2913.08337,0.01855
2911.02320,0.01822
2908.96303,0.01805
2906.90286,0.01827
2904.84268,0.01838
2902.78251,0.01817
2900.72234,0.01800
2898.66217,0.01816
2896.60200,0.01838
2894.54182,0.01830
2892.48165,0.01802
2890.42148,0.01782
2888.36131,0.01780
2886.30114,0.01779
2884.24096,0.01780
2882.18079,0.01803
2880.12062,0.01825
2878.06045,0.01801
2876.00028,0.01758
2873.94010,0.01755
2871.87993,0.01774
2869.81976,0.01759
2867.75959,0.01709
2865.69941,0.01671
2863.63924,0.01679
2861.57907,0.01712
2859.51890,0.01723
2857.45873,0.01698
2855.39855,0.01659
2853.33838,0.01632
2851.27821,0.01624
2849.21804,0.01627
2847.15787,0.01633
2845.09769,0.01629
2843.03752,0.01605
2840.97735,0.01586
2838.91718,0.01588
2836.85700,0.01588
2834.79683,0.01581
2832.73666,0.01572
2830.67649,0.01554
2828.61632,0.01538
2826.55614,0.01537
2824.49597,0.01551
2822.43580,0.01561
2820.37563,0.01561
2818.31546,0.01560
2816.25528,0.01550
2814.19511,0.01531
2812.13494,0.01518
2810.07477,0.01518
2808.01460,0.01519
2805.95442,0.01505
2803.89425,0.01489
2801.83408,0.01484
2799.77391,0.01476
2797.71373,0.01455
2795.65356,0.01448
2793.59339,0.01467
2791.53322,0.01476
2789.47305,0.01458
2787.41287,0.01435
2785.35270,0.01450
2783.29253,0.01470
2781.23236,0.01446
2779.17219,0.01420
2777.11201,0.01424
2775.05184,0.01426
2772.99167,0.01415
2770.93150,0.01416
2768.87133,0.01429
2766.81115,0.01426
2764.75098,0.01403
2762.69081,0.01374
2760.63064,0.01347
2758.57046,0.01344
2756.51029,0.01360
2754.45012,0.01366
2752.38995,0.01362
2750.32978,0.01358
2748.26960,0.01351
2746.20943,0.01332
2744.14926,0.01326
2742.08909,0.01337
2740.02892,0.01333
2737.96874,0.01313
2735.90857,0.01303
2733.84840,0.01310
2731.78823,0.01305
2729.72805,0.01292
2727.66788,0.01299
2725.60771,0.01311
2723.54754,0.01309
2721.48737,0.01296
2719.42719,0.01286
2717.36702,0.01284
2715.30685,0.01274
2713.24668,0.01259
2711.18651,0.01253
2709.12633,0.01247
2707.06616,0.01243
2705.00599,0.01239
2702.94582,0.01208
2700.88565,0.01162
2698.82547,0.01144
2696.76530,0.01157
2694.70513,0.01172
2692.64496,0.01169
2690.58478,0.01163
2688.52461,0.01166
2686.46444,0.01167
2684.40427,0.01164
2682.34410,0.01158
2680.28392,0.01147
2678.22375,0.01139
2676.16358,0.01134
2674.10341,0.01128
2672.04324,0.01121
2669.98306,0.01111
2667.92289,0.01100
2665.86272,0.01083
2663.80255,0.01065
2661.74238,0.01065
2659.68220,0.01080
2657.62203,0.01080
2655.56186,0.01068
2653.50169,0.01064
2651.44151,0.01072
2649.38134,0.01076
2647.32117,0.01068
2645.26100,0.01055
2643.20083,0.01043
2641.14065,0.01023
2639.08048,0.00994
2637.02031,0.00979
2634.96014,0.00981
2632.89997,0.00982
2630.83979,0.00987
2628.77962,0.00977
2626.71945,0.00930
2624.65928,0.00898
2622.59910,0.00915
2620.53893,0.00945
2618.47876,0.00952
2616.41859,0.00944
2614.35842,0.00931
2612.29824,0.00911
2610.23807,0.00885
2608.17790,0.00874
2606.11773,0.00879
2604.05756,0.00874
2601.99738,0.00856
2599.93721,0.00843
2597.87704,0.00843
2595.81687,0.00850
2593.75670,0.00856
2591.69652,0.00847
2589.63635,0.00849
2587.57618,0.00873
2585.51601,0.00897
2583.45583,0.00912
2581.39566,0.00898
2579.33549,0.00848
2577.27532,0.00803
2575.21515,0.00798
2573.15497,0.00822
2571.09480,0.00825
2569.03463,0.00803
2566.97446,0.00789
2564.91429,0.00800
2562.85411,0.00839
2560.79394,0.00867
2558.73377,0.00854
2556.67360,0.00830
2554.61342,0.00820
2552.55325,0.00822
2550.49308,0.00821
2548.43291,0.00799
2546.37274,0.00775
2544.31256,0.00773
2542.25239,0.00777
2540.19222,0.00770
2538.13205,0.00765
2536.07188,0.00775
2534.01170,0.00799
2531.95153,0.00808
2529.89136,0.00775
2527.83119,0.00756
2525.77102,0.00784
2523.71084,0.00824
2521.65067,0.00846
2519.59050,0.00859
2517.53033,0.00862
2515.47015,0.00836
2513.40998,0.00797
2511.34981,0.00791
2509.28964,0.00826
2507.22947,0.00870
2505.16929,0.00891
2503.10912,0.00874
2501.04895,0.00847
2498.98878,0.00825
2496.92861,0.00798
2494.86843,0.00805
2492.80826,0.00856
2490.74809,0.00876
2488.68792,0.00857
2486.62775,0.00862
2484.56757,0.00888
2482.50740,0.00892
2480.44723,0.00865
2478.38706,0.00836
2476.32688,0.00823
2474.26671,0.00821
2472.20654,0.00836
2470.14637,0.00871
2468.08620,0.00906
2466.02602,0.00907
2463.96585,0.00868
2461.90568,0.00841
2459.84551,0.00837
2457.78534,0.00832
2455.72516,0.00848
2453.66499,0.00889
2451.60482,0.00905
2449.54465,0.00879
2447.48447,0.00869
2445.42430,0.00885
2443.36413,0.00893
2441.30396,0.00885
2439.24379,0.00868
2437.18361,0.00863
2435.12344,0.00872
2433.06327,0.00859
2431.00310,0.00850
2428.94293,0.00881
2426.88275,0.00907
2424.82258,0.00910
2422.76241,0.00910
2420.70224,0.00899
2418.64207,0.00885
2416.58189,0.00874
2414.52172,0.00854
2412.46155,0.00823
2410.40138,0.00811
2408.34120,0.00820
2406.28103,0.00823
2404.22086,0.00850
2402.16069,0.00910
2400.10052,0.00924
2398.04034,0.00878
2395.98017,0.00830
2393.92000,0.00809
2391.85983,0.00811
2389.79966,0.00825
2387.73948,0.00844
2385.67931,0.00861
2383.61914,0.00866
2381.55897,0.00869
2379.49880,0.00911
2377.43862,0.00985
2375.37845,0.00994
2373.31828,0.00887
2371.25811,0.00725
2369.19793,0.00664
2367.13776,0.00849
2365.07759,0.01153
2363.01742,0.01258
2360.95725,0.01089
2358.89707,0.00800
2356.83690,0.00777
2354.77673,0.00880
2352.71656,0.00829
2350.65639,0.00816
2348.59621,0.00851
2346.53604,0.00760
2344.47587,0.00806
2342.41570,0.00904
2340.35552,0.00958
2338.29535,0.01003
2336.23518,0.00994
2334.17501,0.00933
2332.11484,0.00904
2330.05466,0.01001
2327.99449,0.01147
2325.93432,0.01236
2323.87415,0.01163
2321.81398,0.01010
2319.75380,0.00873
2317.69363,0.00836
2315.63346,0.00854
2313.57329,0.00888
2311.51312,0.00921
2309.45294,0.00923
2307.39277,0.00889
2305.33260,0.00853
2303.27243,0.00819
2301.21225,0.00775
2299.15208,0.00769
2297.09191,0.00810
2295.03174,0.00844
2292.97157,0.00847
2290.91139,0.00844
2288.85122,0.00857
2286.79105,0.00879
2284.73088,0.00892
2282.67071,0.00878
2280.61053,0.00836
2278.55036,0.00796
2276.49019,0.00763
2274.43002,0.00729
2272.36984,0.00730
2270.30967,0.00760
2268.24950,0.00748
2266.18933,0.00693
2264.12916,0.00635
2262.06898,0.00604
2260.00881,0.00610
2257.94864,0.00626
2255.88847,0.00664
2253.82830,0.00727
2251.76812,0.00744
2249.70795,0.00695
2247.64778,0.00617
2245.58761,0.00559
2243.52744,0.00603
2241.46726,0.00694
2239.40709,0.00747
2237.34692,0.00801
2235.28675,0.00826
2233.22657,0.00800
2231.16640,0.00728
2229.10623,0.00592
2227.04606,0.00493
2224.98589,0.00499
2222.92571,0.00541
2220.86554,0.00563
2218.80537,0.00579
2216.74520,0.00608
2214.68503,0.00616
2212.62485,0.00613
2210.56468,0.00620
2208.50451,0.00570
2206.44434,0.00502
2204.38417,0.00500
2202.32399,0.00584
2200.26382,0.00712
2198.20365,0.00741
2196.14348,0.00649
2194.08330,0.00570
2192.02313,0.00552
2189.96296,0.00473
2187.90279,0.00306
2185.84262,0.00238
2183.78244,0.00359
2181.72227,0.00540
2179.66210,0.00559
2177.60193,0.00418
2175.54176,0.00382
2173.48158,0.00462
2171.42141,0.00431
2169.36124,0.00385
2167.30107,0.00443
2165.24089,0.00415
2163.18072,0.00336
2161.12055,0.00380
2159.06038,0.00483
2157.00021,0.00578
2154.94003,0.00548
2152.87986,0.00371
2150.81969,0.00264
2148.75952,0.00289
2146.69935,0.00353
2144.63917,0.00330
2142.57900,0.00202
2140.51883,0.00180
2138.45866,0.00347
2136.39849,0.00486
2134.33831,0.00438
2132.27814,0.00338
2130.21797,0.00359
2128.15780,0.00432
2126.09762,0.00429
2124.03745,0.00418
2121.97728,0.00455
2119.91711,0.00443
2117.85694,0.00403
2115.79676,0.00480
2113.73659,0.00597
2111.67642,0.00604
2109.61625,0.00542
2107.55608,0.00482
2105.49590,0.00453
2103.43573,0.00475
2101.37556,0.00529
2099.31539,0.00562
2097.25521,0.00552
2095.19504,0.00538
2093.13487,0.00541
2091.07470,0.00487
2089.01453,0.00386
2086.95435,0.00329
2084.89418,0.00320
2082.83401,0.00340
2080.77384,0.00390
2078.71367,0.00440
2076.65349,0.00422
2074.59332,0.00348
2072.53315,0.00280
2070.47298,0.00237
2068.41281,0.00252
2066.35263,0.00325
2064.29246,0.00399
2062.23229,0.00440
2060.17212,0.00447
2058.11194,0.00396
2056.05177,0.00314
2053.99160,0.00343
2051.93143,0.00511
2049.87126,0.00645
2047.81108,0.00579
2045.75091,0.00417
2043.69074,0.00343
2041.63057,0.00321
2039.57040,0.00333
2037.51022,0.00415
2035.45005,0.00428
2033.38988,0.00316
2031.32971,0.00188
2029.26954,0.00065
2027.20936,0.00000
2025.14919,0.00065
2023.08902,0.00209
2021.02885,0.00372
2018.96867,0.00520
2016.90850,0.00651
2014.84833,0.00704
2012.78816,0.00536
2010.72799,0.00203
2008.66781,-0.00002
2006.60764,0.00066
2004.54747,0.00223
2002.48730,0.00306
2000.42713,0.00343
1998.36695,0.00407
1996.30678,0.00496
1994.24661,0.00514
1992.18644,0.00480
1990.12626,0.00500
1988.06609,0.00481
1986.00592,0.00422
1983.94575,0.00439
1981.88558,0.00482
1979.82540,0.00397
1977.76523,0.00227
1975.70506,0.00185
1973.64489,0.00233
1971.58472,0.00210
1969.52454,0.00128
1967.46437,0.00086
1965.40420,0.00110
1963.34403,0.00099
1961.28386,0.00055
1959.22368,0.00025
1957.16351,0.00000
1955.10334,0.00033
1953.04317,0.00106
1950.98299,0.00114
1948.92282,0.00099
1946.86265,0.00156
1944.80248,0.00199
1942.74231,0.00177
1940.68213,0.00244
1938.62196,0.00311
1936.56179,0.00264
1934.50162,0.00203
1932.44145,0.00198
1930.38127,0.00244
1928.32110,0.00306
1926.26093,0.00310
1924.20076,0.00206
1922.14059,0.00152
1920.08041,0.00215
1918.02024,0.00280
1915.96007,0.00323
1913.89990,0.00272
1911.83972,0.00191
1909.77955,0.00190
1907.71938,0.00250
1905.65921,0.00298
1903.59904,0.00308
1901.53886,0.00302
1899.47869,0.00294
1897.41852,0.00272
1895.35835,0.00239
1893.29818,0.00233
1891.23800,0.00223
1889.17783,0.00240
1887.11766,0.00293
1885.05749,0.00307
1882.99731,0.00312
1880.93714,0.00328
1878.87697,0.00324
1876.81680,0.00299
1874.75663,0.00273
1872.69645,0.00244
1870.63628,0.00177
1868.57611,0.00165
1866.51594,0.00280
1864.45577,0.00349
1862.39559,0.00303
1860.33542,0.00246
1858.27525,0.00241
1856.21508,0.00282
1854.15491,0.00336
1852.09473,0.00367
1850.03456,0.00365
1847.97439,0.00331
1845.91422,0.00232
1843.85404,0.00169
1841.79387,0.00247
1839.73370,0.00284
1837.67353,0.00257
1835.61336,0.00270
1833.55318,0.00291
1831.49301,0.00253
1829.43284,0.00253
1827.37267,0.00297
1825.31250,0.00256
1823.25232,0.00231
1821.19215,0.00246
1819.13198,0.00245
1817.07181,0.00252
1815.01163,0.00278
1812.95146,0.00270
1810.89129,0.00245
1808.83112,0.00271
1806.77095,0.00302
1804.71077,0.00282
1802.65060,0.00220
1800.59043,0.00196
1798.53026,0.00255
1796.47009,0.00311
1794.40991,0.00273
1792.34974,0.00213
1790.28957,0.00288
1788.22940,0.00364
1786.16923,0.00328
1784.10905,0.00284
1782.04888,0.00264
1779.98871,0.00276
1777.92854,0.00347
1775.86836,0.00362
1773.80819,0.00251
1771.74802,0.00192
1769.68785,0.00287
1767.62768,0.00368
1765.56750,0.00402
1763.50733,0.00327
1761.44716,0.00261
1759.38699,0.00306
1757.32682,0.00349
1755.26664,0.00432
1753.20647,0.00447
1751.14630,0.00347
1749.08613,0.00326
1747.02596,0.00396
1744.96578,0.00446
1742.90561,0.00455
1740.84544,0.00457
1738.78527,0.00534
1736.72509,0.00549
1734.66492,0.00407
1732.60475,0.00457
1730.54458,0.00573
1728.48441,0.00582
1726.42423,0.00569
1724.36406,0.00566
1722.30389,0.00625
1720.24372,0.00611
1718.18355,0.00476
1716.12337,0.00486
1714.06320,0.00606
1712.00303,0.00681
1709.94286,0.00691
1707.88268,0.00654
1705.82251,0.00659
1703.76234,0.00755
1701.70217,0.00704
1699.64200,0.00650
1697.58182,0.00688
1695.52165,0.00690
1693.46148,0.00820
1691.40131,0.00864
1689.34114,0.00846
1687.28096,0.00811
1685.22079,0.00625
1683.16062,0.00651
1681.10045,0.00906
1679.04028,0.01004
1676.98010,0.00920
1674.91993,0.00881
1672.85976,0.00977
1670.79959,0.00940
1668.73941,0.00937
1666.67924,0.01066
1664.61907,0.01049
1662.55890,0.00997
1660.49873,0.01130
1658.43855,0.01259
1656.37838,0.01174
1654.31821,0.00893
1652.25804,0.00975
1650.19787,0.01279
1648.13769,0.01179
1646.07752,0.01057
1644.01735,0.01176
1641.95718,0.01238
1639.89701,0.01193
1637.83683,0.01022
1635.77666,0.00868
1633.71649,0.01027
1631.65632,0.01166
1629.59614,0.01105
1627.53597,0.01056
1625.47580,0.01037
1623.41563,0.01003
1621.35546,0.01085
1619.29528,0.01080
1617.23511,0.00941
1615.17494,0.00984
1613.11477,0.01073
1611.05460,0.01029
1608.99442,0.00972
1606.93425,0.00957
1604.87408,0.00935
1602.81391,0.00896
1600.75373,0.00874
1598.69356,0.00849
1596.63339,0.00802
1594.57322,0.00775
1592.51305,0.00769
1590.45287,0.00743
1588.39270,0.00709
1586.33253,0.00683
1584.27236,0.00661
1582.21219,0.00659
1580.15201,0.00656
1578.09184,0.00546
1576.03167,0.00465
1573.97150,0.00598
1571.91133,0.00587
1569.85115,0.00428
1567.79098,0.00459
1565.73081,0.00541
1563.67064,0.00579
1561.61046,0.00418
1559.55029,0.00074
1557.49012,0.00214
1555.42995,0.00449
1553.36978,0.00453
1551.30960,0.00397
1549.24943,0.00396
1547.18926,0.00433
1545.12909,0.00376
1543.06892,0.00247
1541.00874,0.00092
1538.94857,0.00211
1536.88840,0.00467
1534.82823,0.00390
1532.76805,0.00276
1530.70788,0.00348
1528.64771,0.00319
1526.58754,0.00239
1524.52737,0.00210
1522.46719,0.00113
1520.40702,0.00120
1518.34685,0.00194
1516.28668,0.00208
1514.22651,0.00286
1512.16633,0.00343
1510.10616,0.00263
1508.04599,0.00004
1505.98582,0.00000
1503.92565,0.00300
1501.86547,0.00379
1499.80530,0.00234
1497.74513,0.00107
1495.68496,0.00167
1493.62478,0.00273
1491.56461,0.00173
1489.50444,0.00043
1487.44427,0.00091
1485.38410,0.00174
1483.32392,0.00182
1481.26375,0.00173
1479.20358,0.00200
1477.14341,0.00183
1475.08324,0.00103
1473.02306,0.00052
1470.96289,0.00186
1468.90272,0.00308
1466.84255,0.00216
1464.78238,0.00148
1462.72220,0.00282
1460.66203,0.00312
1458.60186,0.00101
1456.54169,0.00057
1454.48151,0.00292
1452.42134,0.00380
1450.36117,0.00302
1448.30100,0.00225
1446.24083,0.00251
1444.18065,0.00296
1442.12048,0.00296
1440.06031,0.00260
1438.00014,0.00146
1435.93997,0.00137
1433.87979,0.00259
1431.81962,0.00240
1429.75945,0.00179
1427.69928,0.00211
1425.63910,0.00223
1423.57893,0.00226
1421.51876,0.00208
1419.45859,0.00118
1417.39842,0.00163
1415.33824,0.00264
1413.27807,0.00267
1411.21790,0.00233
1409.15773,0.00230
1407.09756,0.00212
1405.03738,0.00196
1402.97721,0.00243
1400.91704,0.00232
1398.85687,0.00167
1396.79670,0.00145
1394.73652,0.00161
1392.67635,0.00242
1390.61618,0.00275
1388.55601,0.00204
1386.49583,0.00179
1384.43566,0.00228
1382.37549,0.00249
1380.31532,0.00256
1378.25515,0.00270
1376.19497,0.00251
1374.13480,0.00233
1372.07463,0.00276
1370.01446,0.00291
1367.95429,0.00281
1365.89411,0.00272
1363.83394,0.00222
1361.77377,0.00227
1359.71360,0.00289
1357.65343,0.00287
1355.59325,0.00243
1353.53308,0.00224
1351.47291,0.00227
1349.41274,0.00230
1347.35256,0.00233
1345.29239,0.00234
1343.23222,0.00225
1341.17205,0.00189
1339.11188,0.00180
1337.05170,0.00231
1334.99153,0.00264
1332.93136,0.00254
1330.87119,0.00232
1328.81102,0.00216
1326.75084,0.00209
1324.69067,0.00212
1322.63050,0.00215
1320.57033,0.00199
1318.51015,0.00184
1316.44998,0.00176
1314.38981,0.00153
1312.32964,0.00139
1310.26947,0.00141
1308.20929,0.00129
1306.14912,0.00121
1304.08895,0.00132
1302.02878,0.00143
1299.96861,0.00140
1297.90843,0.00139
1295.84826,0.00145
1293.78809,0.00145
1291.72792,0.00141
1289.66775,0.00139
1287.60757,0.00143
1285.54740,0.00154
1283.48723,0.00150
1281.42706,0.00140
1279.36688,0.00145
1277.30671,0.00155
1275.24654,0.00158
1273.18637,0.00162
1271.12620,0.00178
1269.06602,0.00197
1267.00585,0.00209
1264.94568,0.00215
1262.88551,0.00199
1260.82534,0.00174
1258.76516,0.00176
1256.70499,0.00186
1254.64482,0.00185
1252.58465,0.00180
1250.52447,0.00167
1248.46430,0.00147
1246.40413,0.00125
1244.34396,0.00109
1242.28379,0.00121
1240.22361,0.00143
1238.16344,0.00141
1236.10327,0.00132
1234.04310,0.00145
1231.98293,0.00164
1229.92275,0.00166
1227.86258,0.00148
1225.80241,0.00125
1223.74224,0.00120
1221.68207,0.00136
1219.62189,0.00142
1217.56172,0.00132
1215.50155,0.00129
1213.44138,0.00131
1211.38120,0.00118
1209.32103,0.00091
1207.26086,0.00070
1205.20069,0.00061
1203.14052,0.00055
1201.08034,0.00065
1199.02017,0.00087
1196.96000,0.00094
1194.89983,0.00089
1192.83966,0.00095
1190.77948,0.00119
1188.71931,0.00147
1186.65914,0.00164
1184.59897,0.00180
1182.53880,0.00218
1180.47862,0.00268
1178.41845,0.00309
1176.35828,0.00338
1174.29811,0.00371
1172.23793,0.00420
1170.17776,0.00475
1168.11759,0.00524
1166.05742,0.00561
1163.99725,0.00592
1161.93707,0.00633
1159.87690,0.00675
1157.81673,0.00712
1155.75656,0.00758
1153.69639,0.00806
1151.63621,0.00855
1149.57604,0.00909
1147.51587,0.00957
1145.45570,0.01003
1143.39552,0.01052
1141.33535,0.01108
1139.27518,0.01183
1137.21501,0.01253
1135.15484,0.01302
1133.09466,0.01350
1131.03449,0.01411
1128.97432,0.01494
1126.91415,0.01580
1124.85398,0.01645
1122.79380,0.01696
1120.73363,0.01747
1118.67346,0.01799
1116.61329,0.01860
1114.55312,0.01932
1112.49294,0.02001
1110.43277,0.02069
1108.37260,0.02154
1106.31243,0.02238
1104.25225,0.02312
1102.19208,0.02390
1100.13191,0.02471
1098.07174,0.02540
1096.01157,0.02601
1093.95139,0.02665
1091.89122,0.02738
1089.83105,0.02824
1087.77088,0.02907
1085.71071,0.02980
1083.65053,0.03055
1081.59036,0.03128
1079.53019,0.03185
1077.47002,0.03226
1075.40985,0.03255
1073.34967,0.03280
1071.28950,0.03310
1069.22933,0.03341
1067.16916,0.03357
1065.10898,0.03355
1063.04881,0.03367
1060.98864,0.03385
1058.92847,0.03376
1056.86830,0.03356
1054.80812,0.03342
1052.74795,0.03339
1050.68778,0.03340
1048.62761,0.03309
1046.56744,0.03259
1044.50726,0.03225
1042.44709,0.03184
1040.38692,0.03119
1038.32675,0.03052
1036.26657,0.02987
1034.20640,0.02915
1032.14623,0.02848
1030.08606,0.02782
1028.02589,0.02711
1025.96571,0.02650
1023.90554,0.02591
1021.84537,0.02512
1019.78520,0.02446
1017.72503,0.02423
1015.66485,0.02400
1013.60468,0.02348
1011.54451,0.02308
1009.48434,0.02292
1007.42417,0.02268
1005.36399,0.02230
1003.30382,0.02204
1001.24365,0.02207
999.18348,0.02230
997.12330,0.02242
995.06313,0.02245
993.00296,0.02276
990.94279,0.02347
988.88262,0.02411
986.82244,0.02434
984.76227,0.02438
982.70210,0.02434
980.64193,0.02419
978.58176,0.02404
976.52158,0.02379
974.46141,0.02321
972.40124,0.02238
970.34107,0.02140
968.28089,0.02047
966.22072,0.01987
964.16055,0.01951
962.10038,0.01897
960.04021,0.01815
957.98003,0.01727
955.91986,0.01654
953.85969,0.01597
951.79952,0.01555
949.73935,0.01532
947.67917,0.01522
945.61900,0.01516
943.55883,0.01494
941.49866,0.01470
939.43849,0.01450
937.37831,0.01419
935.31814,0.01394
933.25797,0.01400
931.19780,0.01401
929.13762,0.01365
927.07745,0.01340
925.01728,0.01364
922.95711,0.01386
920.89694,0.01371
918.83676,0.01332
916.77659,0.01268
914.71642,0.01201
912.65625,0.01176
910.59608,0.01165
908.53590,0.01139
906.47573,0.01134
904.41556,0.01137
902.35539,0.01117
900.29522,0.01097
898.23504,0.01078
896.17487,0.01058
894.11470,0.01048
892.05453,0.01036
889.99435,0.01047
887.93418,0.01094
885.87401,0.01131
883.81384,0.01147
881.75367,0.01158
879.69349,0.01169
877.63332,0.01192
875.57315,0.01199
873.51298,0.01197
871.45281,0.01234
869.39263,0.01278
867.33246,0.01282
865.27229,0.01261
863.21212,0.01245
861.15194,0.01265
859.09177,0.01307
857.03160,0.01340
854.97143,0.01338
852.91126,0.01302
850.85108,0.01263
848.79091,0.01224
846.73074,0.01187
844.67057,0.01158
842.61040,0.01141
840.55022,0.01148
838.49005,0.01153
836.42988,0.01133
834.36971,0.01099
832.30954,0.01062
830.24936,0.00999
828.18919,0.00913
826.12902,0.00856
824.06885,0.00830
822.00867,0.00805
819.94850,0.00774
817.88833,0.00743
815.82816,0.00721
813.76799,0.00721
811.70781,0.00745
809.64764,0.00761
807.58747,0.00748
805.52730,0.00712
803.46713,0.00673
801.40695,0.00655
799.34678,0.00636
797.28661,0.00623
795.22644,0.00633
793.16627,0.00616
791.10609,0.00582
789.04592,0.00572
786.98575,0.00561
784.92558,0.00551
782.86540,0.00560
780.80523,0.00596
778.74506,0.00600
776.68489,0.00536
774.62472,0.00477
772.56454,0.00476
770.50437,0.00534
768.44420,0.00618
766.38403,0.00641
764.32386,0.00566
762.26368,0.00475
760.20351,0.00424
758.14334,0.00408
756.08317,0.00434
754.02299,0.00447
751.96282,0.00413
749.90265,0.00406
747.84248,0.00445
745.78231,0.00470
743.72213,0.00436
741.66196,0.00362
739.60179,0.00357
737.54162,0.00394
735.48145,0.00371
733.42127,0.00347
731.36110,0.00356
729.30093,0.00356
727.24076,0.00354
725.18059,0.00378
723.12041,0.00416
721.06024,0.00404
719.00007,0.00385
716.93990,0.00364
714.87972,0.00368
712.81955,0.00411
710.75938,0.00433
708.69921,0.00416
706.63904,0.00412
704.57886,0.00432
702.51869,0.00435
700.45852,0.00422
698.39835,0.00429
696.33818,0.00461
694.27800,0.00494
692.21783,0.00502
690.15766,0.00490
688.09749,0.00480
686.03731,0.00456
683.97714,0.00396
681.91697,0.00370
679.85680,0.00440
677.79663,0.00535
675.73645,0.00560
673.67628,0.00545
671.61611,0.00525
669.55594,0.00246
667.49577,0.00000
665.43559,0.00312
663.37542,0.00417
661.31525,0.00461
659.25508,0.00518
657.19491,0.00586
655.13473,0.00657
653.07456,0.00695
651.01439,0.00644
648.95422,0.00508
646.89404,0.00417
644.83387,0.00418
642.77370,0.00378
640.71353,0.00216
638.65336,0.00115
636.59318,0.00166
634.53301,0.00220
632.47284,0.00244
630.41267,0.00339
628.35250,0.00481
626.29232,0.00521
624.23215,0.00401
622.17198,0.00288
620.11181,0.00245
618.05164,0.00216
615.99146,0.00212
613.93129,0.00252
611.87112,0.00384
609.81095,0.00465
607.75077,0.00306
605.69060,0.00032
603.63043,-0.00067
601.57026,-0.00040
599.51009,0.00000
