3996.73391,0.00083
3994.67373,0.00107
3992.61356,0.00122
3990.55339,0.00099
3988.49322,0.00107
3986.43305,0.00161
3984.37287,0.00191
3982.31270,0.00198
3980.25253,0.00214
3978.19236,0.00216
3976.13219,0.00194
3974.07201,0.00183
3972.01184,0.00180
3969.95167,0.00155
3967.89150,0.00120
3965.83133,0.00085
3963.77115,0.00048
3961.71098,0.00037
3959.65081,0.00068
3957.59064,0.00107
3955.53046,0.00111
3953.47029,0.00076
3951.41012,0.00026
3949.34995,0.00000
3947.28978,0.00032
3945.22960,0.00098
3943.16943,0.00138
3941.10926,0.00140
3939.04909,0.00125
3936.98892,0.00111
3934.92874,0.00106
3932.86857,0.00099
3930.80840,0.00086
3928.74823,0.00086
3926.68805,0.00094
3924.62788,0.00089
3922.56771,0.00086
3920.50754,0.00104
3918.44737,0.00135
3916.38719,0.00177
3914.32702,0.00225
3912.26685,0.00244
3910.20668,0.00222
3908.14651,0.00161
3906.08633,0.00068
3904.02616,0.00000
3901.96599,0.00003
3899.90582,0.00042
3897.84565,0.00092
3895.78547,0.00145
3893.72530,0.00180
3891.66513,0.00199
3889.60496,0.00201
3887.54478,0.00163
3885.48461,0.00127
3883.42444,0.00160
3881.36427,0.00203
3879.30410,0.00168
3877.24392,0.00095
3875.18375,0.00068
3873.12358,0.00102
3871.06341,0.00151
3869.00324,0.00177
3866.94306,0.00169
3864.88289,0.00140
3862.82272,0.00158
3860.76255,0.00224
3858.70237,0.00251
3856.64220,0.00193
3854.58203,0.00088
3852.52186,0.00049
3850.46169,0.00115
3848.40151,0.00193
3846.34134,0.00231
3844.28117,0.00215
3842.22100,0.00136
3840.16083,0.00074
3838.10065,0.00142
3836.04048,0.00244
3833.98031,0.00224
3831.92014,0.00163
3829.85997,0.00165
3827.79979,0.00176
3825.73962,0.00144
3823.67945,0.00104
3821.61928,0.00074
3819.55910,0.00043
3817.49893,0.00024
3815.43876,0.00061
3813.37859,0.00131
3811.31842,0.00163
3809.25824,0.00171
3807.19807,0.00213
3805.13790,0.00263
3803.07773,0.00242
3801.01756,0.00178
3798.95738,0.00175
3796.89721,0.00226
3794.83704,0.00253
3792.77687,0.00216
3790.71670,0.00166
3788.65652,0.00172
3786.59635,0.00208
3784.53618,0.00204
3782.47601,0.00171
3780.41583,0.00186
3778.35566,0.00232
3776.29549,0.00237
3774.23532,0.00211
3772.17515,0.00186
3770.11497,0.00171
3768.05480,0.00180
3765.99463,0.00197
3763.93446,0.00183
3761.87429,0.00148
3759.81411,0.00161
3757.75394,0.00222
3755.69377,0.00235
3753.63360,0.00163
3751.57342,0.00077
3749.51325,0.00041
3747.45308,0.00013
3745.39291,0.00000
3743.33274,0.00057
3741.27256,0.00134
3739.21239,0.00153
3737.15222,0.00150
3735.09205,0.00189
3733.03188,0.00198
3730.97170,0.00155
3728.91153,0.00152
3726.85136,0.00182
3724.79119,0.00159
3722.73102,0.00087
3720.67084,0.00051
3718.61067,0.00094
3716.55050,0.00178
3714.49033,0.00216
3712.43015,0.00164
3710.36998,0.00105
3708.30981,0.00132
3706.24964,0.00187
3704.18947,0.00202
3702.12929,0.00216
3700.06912,0.00271
3698.00895,0.00307
3695.94878,0.00276
3693.88861,0.00204
3691.82843,0.00145
3689.76826,0.00117
3687.70809,0.00108
3685.64792,0.00132
3683.58775,0.00179
3681.52757,0.00211
3679.46740,0.00238
3677.40723,0.00280
3675.34706,0.00303
3673.28688,0.00269
3671.22671,0.00207
3669.16654,0.00158
3667.10637,0.00139
3665.04620,0.00143
3662.98602,0.00153
3660.92585,0.00159
3658.86568,0.00169
3656.80551,0.00193
3654.74534,0.00240
3652.68516,0.00295
3650.62499,0.00320
3648.56482,0.00322
3646.50465,0.00340
3644.44447,0.00344
3642.38430,0.00317
3640.32413,0.00294
3638.26396,0.00295
3636.20379,0.00326
3634.14361,0.00392
3632.08344,0.00471
3630.02327,0.00499
3627.96310,0.00463
3625.90293,0.00439
3623.84275,0.00453
3621.78258,0.00443
3619.72241,0.00407
3617.66224,0.00432
3615.60207,0.00539
3613.54189,0.00629
3611.48172,0.00648
3609.42155,0.00644
3607.36138,0.00619
3605.30120,0.00567
3603.24103,0.00541
3601.18086,0.00573
3599.12069,0.00635
3597.06052,0.00647
3595.00034,0.00614
3592.94017,0.00620
3590.88000,0.00632
3588.81983,0.00580
3586.75966,0.00551
3584.69948,0.00636
3582.63931,0.00752
3580.57914,0.00815
3578.51897,0.00829
3576.45879,0.00840
3574.39862,0.00854
3572.33845,0.00849
3570.27828,0.00848
3568.21811,0.00872
3566.15793,0.00901
3564.09776,0.00903
3562.03759,0.00896
3559.97742,0.00901
3557.91725,0.00949
3555.85707,0.01041
3553.79690,0.01103
3551.73673,0.01097
3549.67656,0.01083
3547.61639,0.01109
3545.55621,0.01146
3543.49604,0.01172
3541.43587,0.01208
3539.37570,0.01246
3537.31552,0.01274
3535.25535,0.01310
3533.19518,0.01337
3531.13501,0.01327
3529.07484,0.01325
3527.01466,0.01377
3524.95449,0.01435
3522.89432,0.01449
3520.83415,0.01455
3518.77398,0.01494
3516.71380,0.01545
3514.65363,0.01560
3512.59346,0.01537
3510.53329,0.01523
3508.47312,0.01550
3506.41294,0.01589
3504.35277,0.01607
3502.29260,0.01624
3500.23243,0.01662
3498.17225,0.01692
3496.11208,0.01700
3494.05191,0.01711
3491.99174,0.01723
3489.93157,0.01730
3487.87139,0.01753
3485.81122,0.01799
3483.75105,0.01860
3481.69088,0.01917
3479.63071,0.01939
3477.57053,0.01937
3475.51036,0.01955
3473.45019,0.02005
3471.39002,0.02055
3469.32984,0.02080
3467.26967,0.02083
3465.20950,0.02086
3463.14933,0.02090
3461.08916,0.02082
3459.02898,0.02094
3456.96881,0.02147
3454.90864,0.02202
3452.84847,0.02242
3450.78830,0.02294
3448.72812,0.02357
3446.66795,0.02360
3444.60778,0.02322
3442.54761,0.02336
3440.48744,0.02378
3438.42726,0.02404
3436.36709,0.02433
3434.30692,0.02451
3432.24675,0.02449
3430.18657,0.02467
3428.12640,0.02498
3426.06623,0.02498
3424.00606,0.02485
3421.94589,0.02495
3419.88571,0.02539
3417.82554,0.02581
3415.76537,0.02587
3413.70520,0.02588
3411.64503,0.02611
3409.58485,0.02616
3407.52468,0.02595
3405.46451,0.02626
3403.40434,0.02704
3401.34416,0.02738
3399.28399,0.02729
3397.22382,0.02752
3395.16365,0.02805
3393.10348,0.02833
3391.04330,0.02832
3388.98313,0.02826
3386.92296,0.02849
3384.86279,0.02908
3382.80262,0.02935
3380.74244,0.02890
3378.68227,0.02830
3376.62210,0.02809
3374.56193,0.02828
3372.50176,0.02883
3370.44158,0.02944
3368.38141,0.02967
3366.32124,0.02960
3364.26107,0.02955
3362.20089,0.02949
3360.14072,0.02952
3358.08055,0.03003
3356.02038,0.03070
3353.96021,0.03095
3351.90003,0.03117
3349.83986,0.03145
3347.77969,0.03140
3345.71952,0.03124
3343.65935,0.03111
3341.59917,0.03099
3339.53900,0.03122
3337.47883,0.03163
3335.41866,0.03178
3333.35849,0.03164
3331.29831,0.03149
3329.23814,0.03158
3327.17797,0.03199
3325.11780,0.03247
3323.05762,0.03252
3320.99745,0.03233
3318.93728,0.03220
3316.87711,0.03205
3314.81694,0.03207
3312.75676,0.03237
3310.69659,0.03263
3308.63642,0.03276
3306.57625,0.03288
3304.51608,0.03303
3302.45590,0.03311
3300.39573,0.03311
3298.33556,0.03326
3296.27539,0.03347
3294.21521,0.03334
3292.15504,0.03310
3290.09487,0.03324
3288.03470,0.03352
3285.97453,0.03353
3283.91435,0.03337
3281.85418,0.03316
3279.79401,0.03288
3277.73384,0.03267
3275.67367,0.03272
3273.61349,0.03304
3271.55332,0.03320
3269.49315,0.03312
3267.43298,0.03324
3265.37281,0.03333
3263.31263,0.03299
3261.25246,0.03271
3259.19229,0.03280
3257.13212,0.03300
3255.07194,0.03317
3253.01177,0.03320
3250.95160,0.03298
3248.89143,0.03272
3246.83126,0.03265
3244.77108,0.03264
3242.71091,0.03254
3240.65074,0.03236
3238.59057,0.03216
3236.53040,0.03207
3234.47022,0.03216
3232.41005,0.03233
3230.34988,0.03253
3228.28971,0.03276
3226.22954,0.03300
3224.16936,0.03286
3222.10919,0.03224
3220.04902,0.03169
3217.98885,0.03173
3215.92867,0.03211
3213.86850,0.03200
3211.80833,0.03137
3209.74816,0.03099
3207.68799,0.03107
3205.62781,0.03127
3203.56764,0.03126
3201.50747,0.03089
3199.44730,0.03053
3197.38713,0.03054
3195.32695,0.03071
3193.26678,0.03045
3191.20661,0.02987
3189.14644,0.02957
3187.08626,0.02957
3185.02609,0.02957
3182.96592,0.02959
3180.90575,0.02972
3178.84558,0.02966
3176.78540,0.02939
3174.72523,0.02933
3172.66506,0.02942
3170.60489,0.02919
3168.54472,0.02865
3166.48454,0.02819
3164.42437,0.02806
3162.36420,0.02810
3160.30403,0.02827
3158.24386,0.02869
3156.18368,0.02903
3154.12351,0.02879
3152.06334,0.02810
3150.00317,0.02757
3147.94299,0.02727
3145.88282,0.02686
3143.82265,0.02659
3141.76248,0.02677
3139.70231,0.02698
3137.64213,0.02668
3135.58196,0.02613
3133.52179,0.02586
3131.46162,0.02599
3129.40145,0.02615
3127.34127,0.02591
3125.28110,0.02549
3123.22093,0.02534
3121.16076,0.02539
3119.10058,0.02546
3117.04041,0.02533
3114.98024,0.02482
3112.92007,0.02451
3110.85990,0.02480
3108.79972,0.02517
3106.73955,0.02525
3104.67938,0.02519
3102.61921,0.02494
3100.55904,0.02446
3098.49886,0.02402
3096.43869,0.02385
3094.37852,0.02384
3092.31835,0.02376
3090.25818,0.02374
3088.19800,0.02400
3086.13783,0.02430
3084.07766,0.02425
3082.01749,0.02381
3079.95731,0.02346
3077.89714,0.02346
3075.83697,0.02355
3073.77680,0.02345
3071.71663,0.02311
3069.65645,0.02272
3067.59628,0.02248
3065.53611,0.02248
3063.47594,0.02254
3061.41577,0.02257
3059.35559,0.02259
3057.29542,0.02248
3055.23525,0.02230
3053.17508,0.02211
3051.11491,0.02192
3049.05473,0.02180
3046.99456,0.02171
3044.93439,0.02157
3042.87422,0.02138
3040.81404,0.02118
3038.75387,0.02110
3036.69370,0.02102
3034.63353,0.02090
3032.57336,0.02077
3030.51318,0.02053
3028.45301,0.02029
3026.39284,0.02030
3024.33267,0.02039
3022.27250,0.02037
3020.21232,0.02037
3018.15215,0.02031
3016.09198,0.02007
3014.03181,0.01987
3011.97163,0.01986
3009.91146,0.01992
3007.85129,0.01987
3005.79112,0.01966
3003.73095,0.01945
3001.67077,0.01934
2999.61060,0.01941
2997.55043,0.01934
2995.49026,0.01883
2993.43009,0.01839
2991.36991,0.01854
2989.30974,0.01874
2987.24957,0.01855
2985.18940,0.01844
2983.12923,0.01867
2981.06905,0.01904
2979.00888,0.01939
2976.94871,0.01954
2974.88854,0.01968
2972.82836,0.02014
2970.76819,0.02071
2968.70802,0.02113
2966.64785,0.02139
2964.58768,0.02172
2962.52750,0.02237
2960.46733,0.02302
2958.40716,0.02354
2956.34699,0.02413
2954.28682,0.02454
2952.22664,0.02486
2950.16647,0.02544
2948.10630,0.02621
2946.04613,0.02692
2943.98596,0.02756
2941.92578,0.02844
2939.86561,0.02965
2937.80544,0.03073
2935.74527,0.03161
2933.68509,0.03271
2931.62492,0.03408
2929.56475,0.03543
2927.50458,0.03636
2925.44441,0.03685
2923.38423,0.03729
2921.32406,0.03789
2919.26389,0.03832
2917.20372,0.03817
2915.14355,0.03741
2913.08337,0.03622
2911.02320,0.03486
2908.96303,0.03354
2906.90286,0.03237
2904.84268,0.03141
2902.78251,0.03062
2900.72234,0.02993
2898.66217,0.02932
2896.60200,0.02890
2894.54182,0.02851
2892.48165,0.02787
2890.42148,0.02709
2888.36131,0.02644
2886.30114,0.02596
2884.24096,0.02568
2882.18079,0.02556
2880.12062,0.02548
2878.06045,0.02541
2876.00028,0.02541
2873.94010,0.02554
2871.87993,0.02561
2869.81976,0.02553
2867.75959,0.02555
2865.69941,0.02576
2863.63924,0.02615
2861.57907,0.02673
2859.51890,0.02748
2857.45873,0.02840
2855.39855,0.02952
2853.33838,0.03075
2851.27821,0.03177
2849.21804,0.03187
2847.15787,0.03052
2845.09769,0.02834
2843.03752,0.02628
2840.97735,0.02445
2838.91718,0.02300
2836.85700,0.02225
2834.79683,0.02193
2832.73666,0.02175
2830.67649,0.02151
2828.61632,0.02078
2826.55614,0.01995
2824.49597,0.01973
2822.43580,0.01992
2820.37563,0.01995
2818.31546,0.01956
2816.25528,0.01889
2814.19511,0.01855
2812.13494,0.01864
2810.07477,0.01859
2808.01460,0.01835
2805.95442,0.01822
2803.89425,0.01811
2801.83408,0.01785
2799.77391,0.01768
2797.71373,0.01775
2795.65356,0.01779
2793.59339,0.01760
2791.53322,0.01729
2789.47305,0.01715
2787.41287,0.01723
2785.35270,0.01732
2783.29253,0.01726
2781.23236,0.01697
2779.17219,0.01660
2777.11201,0.01650
2775.05184,0.01662
2772.99167,0.01662
2770.93150,0.01655
2768.87133,0.01656
2766.81115,0.01651
2764.75098,0.01647
2762.69081,0.01654
2760.63064,0.01653
2758.57046,0.01648
2756.51029,0.01658
2754.45012,0.01665
2752.38995,0.01651
2750.32978,0.01623
2748.26960,0.01585
2746.20943,0.01562
2744.14926,0.01575
2742.08909,0.01594
2740.02892,0.01612
2737.96874,0.01625
2735.90857,0.01607
2733.84840,0.01569
2731.78823,0.01548
2729.72805,0.01565
2727.66788,0.01589
2725.60771,0.01591
2723.54754,0.01578
2721.48737,0.01555
2719.42719,0.01532
2717.36702,0.01513
2715.30685,0.01503
2713.24668,0.01514
2711.18651,0.01534
2709.12633,0.01554
2707.06616,0.01573
2705.00599,0.01557
2702.94582,0.01504
2700.88565,0.01461
2698.82547,0.01449
2696.76530,0.01463
2694.70513,0.01492
2692.64496,0.01516
2690.58478,0.01518
2688.52461,0.01513
2686.46444,0.01501
2684.40427,0.01472
2682.34410,0.01445
2680.28392,0.01434
2678.22375,0.01426
2676.16358,0.01411
2674.10341,0.01416
2672.04324,0.01444
2669.98306,0.01465
2667.92289,0.01451
2665.86272,0.01419
2663.80255,0.01421
2661.74238,0.01454
2659.68220,0.01476
2657.62203,0.01481
2655.56186,0.01471
2653.50169,0.01437
2651.44151,0.01402
2649.38134,0.01384
2647.32117,0.01376
2645.26100,0.01374
2643.20083,0.01380
2641.14065,0.01374
2639.08048,0.01353
2637.02031,0.01344
2634.96014,0.01338
2632.89997,0.01331
2630.83979,0.01344
2628.77962,0.01361
2626.71945,0.01345
2624.65928,0.01328
2622.59910,0.01317
2620.53893,0.01290
2618.47876,0.01280
2616.41859,0.01283
2614.35842,0.01278
2612.29824,0.01281
2610.23807,0.01274
2608.17790,0.01231
2606.11773,0.01187
2604.05756,0.01182
2601.99738,0.01173
2599.93721,0.01149
2597.87704,0.01161
2595.81687,0.01196
2593.75670,0.01195
2591.69652,0.01168
2589.63635,0.01156
2587.57618,0.01170
2585.51601,0.01218
2583.45583,0.01257
2581.39566,0.01238
2579.33549,0.01200
2577.27532,0.01174
2575.21515,0.01143
2573.15497,0.01125
2571.09480,0.01146
2569.03463,0.01157
2566.97446,0.01119
2564.91429,0.01093
2562.85411,0.01113
2560.79394,0.01110
2558.73377,0.01070
2556.67360,0.01062
2554.61342,0.01089
2552.55325,0.01119
2550.49308,0.01146
2548.43291,0.01149
2546.37274,0.01138
2544.31256,0.01112
2542.25239,0.01051
2540.19222,0.01023
2538.13205,0.01071
2536.07188,0.01121
2534.01170,0.01133
2531.95153,0.01115
2529.89136,0.01069
2527.83119,0.01048
2525.77102,0.01062
2523.71084,0.01042
2521.65067,0.01009
2519.59050,0.01023
2517.53033,0.01050
2515.47015,0.01058
2513.40998,0.01047
2511.34981,0.01009
2509.28964,0.00963
2507.22947,0.00939
2505.16929,0.00935
2503.10912,0.00964
2501.04895,0.01025
2498.98878,0.01063
2496.92861,0.01037
2494.86843,0.00954
2492.80826,0.00885
2490.74809,0.00900
2488.68792,0.00956
2486.62775,0.00999
2484.56757,0.01034
2482.50740,0.01062
2480.44723,0.01078
2478.38706,0.01074
2476.32688,0.01033
2474.26671,0.00999
2472.20654,0.00996
2470.14637,0.00988
2468.08620,0.00943
2466.02602,0.00903
2463.96585,0.00920
2461.90568,0.00973
2459.84551,0.01006
2457.78534,0.00977
2455.72516,0.00947
2453.66499,0.00964
2451.60482,0.00960
2449.54465,0.00933
2447.48447,0.00940
2445.42430,0.00947
2443.36413,0.00913
2441.30396,0.00892
2439.24379,0.00915
2437.18361,0.00913
2435.12344,0.00867
2433.06327,0.00824
2431.00310,0.00825
2428.94293,0.00881
2426.88275,0.00929
2424.82258,0.00908
2422.76241,0.00871
2420.70224,0.00874
2418.64207,0.00865
2416.58189,0.00844
2414.52172,0.00845
2412.46155,0.00862
2410.40138,0.00894
2408.34120,0.00908
2406.28103,0.00880
2404.22086,0.00844
2402.16069,0.00838
2400.10052,0.00856
2398.04034,0.00854
2395.98017,0.00840
2393.92000,0.00833
2391.85983,0.00852
2389.79966,0.00873
2387.73948,0.00864
2385.67931,0.00845
2383.61914,0.00844
2381.55897,0.00855
2379.49880,0.00867
2377.43862,0.00883
2375.37845,0.00898
2373.31828,0.00883
2371.25811,0.00842
2369.19793,0.00903
2367.13776,0.01154
2365.07759,0.01365
2363.01742,0.01197
2360.95725,0.00850
2358.89707,0.00624
2356.83690,0.00552
2354.77673,0.00529
2352.71656,0.00621
2350.65639,0.00891
2348.59621,0.01080
2346.53604,0.00954
2344.47587,0.00782
2342.41570,0.00664
2340.35552,0.00651
2338.29535,0.00731
2336.23518,0.00787
2334.17501,0.00784
2332.11484,0.00771
2330.05466,0.00783
2327.99449,0.00803
2325.93432,0.00860
2323.87415,0.00863
2321.81398,0.00807
2319.75380,0.00771
2317.69363,0.00797
2315.63346,0.00787
2313.57329,0.00776
2311.51312,0.00799
2309.45294,0.00792
2307.39277,0.00766
2305.33260,0.00783
2303.27243,0.00836
2301.21225,0.00867
2299.15208,0.00860
2297.09191,0.00829
2295.03174,0.00788
2292.97157,0.00755
2290.91139,0.00743
2288.85122,0.00764
2286.79105,0.00785
2284.73088,0.00753
2282.67071,0.00691
2280.61053,0.00673
2278.55036,0.00697
2276.49019,0.00726
2274.43002,0.00757
2272.36984,0.00753
2270.30967,0.00709
2268.24950,0.00729
2266.18933,0.00801
2264.12916,0.00802
2262.06898,0.00775
2260.00881,0.00787
2257.94864,0.00812
2255.88847,0.00814
2253.82830,0.00745
2251.76812,0.00680
2249.70795,0.00718
2247.64778,0.00793
2245.58761,0.00796
2243.52744,0.00724
2241.46726,0.00659
2239.40709,0.00673
2237.34692,0.00752
2235.28675,0.00831
2233.22657,0.00811
2231.16640,0.00706
2229.10623,0.00672
2227.04606,0.00738
2224.98589,0.00765
2222.92571,0.00711
2220.86554,0.00682
2218.80537,0.00678
2216.74520,0.00624
2214.68503,0.00584
2212.62485,0.00559
2210.56468,0.00427
2208.50451,0.00326
2206.44434,0.00462
2204.38417,0.00605
2202.32399,0.00557
2200.26382,0.00546
2198.20365,0.00652
2196.14348,0.00717
2194.08330,0.00746
2192.02313,0.00812
2189.96296,0.00846
2187.90279,0.00793
2185.84262,0.00801
2183.78244,0.00840
2181.72227,0.00708
2179.66210,0.00567
2177.60193,0.00612
2175.54176,0.00642
2173.48158,0.00543
2171.42141,0.00509
2169.36124,0.00617
2167.30107,0.00712
2165.24089,0.00690
2163.18072,0.00656
2161.12055,0.00590
2159.06038,0.00552
2157.00021,0.00700
2154.94003,0.00814
2152.87986,0.00790
2150.81969,0.00736
2148.75952,0.00664
2146.69935,0.00561
2144.63917,0.00474
2142.57900,0.00377
2140.51883,0.00368
2138.45866,0.00508
2136.39849,0.00592
2134.33831,0.00556
2132.27814,0.00496
2130.21797,0.00438
2128.15780,0.00458
2126.09762,0.00595
2124.03745,0.00681
2121.97728,0.00657
2119.91711,0.00680
2117.85694,0.00779
2115.79676,0.00814
2113.73659,0.00772
2111.67642,0.00733
2109.61625,0.00692
2107.55608,0.00650
2105.49590,0.00662
2103.43573,0.00752
2101.37556,0.00777
2099.31539,0.00658
2097.25521,0.00546
2095.19504,0.00554
2093.13487,0.00631
2091.07470,0.00646
2089.01453,0.00601
2086.95435,0.00600
2084.89418,0.00618
2082.83401,0.00604
2080.77384,0.00619
2078.71367,0.00679
2076.65349,0.00735
2074.59332,0.00722
2072.53315,0.00632
2070.47298,0.00586
2068.41281,0.00619
2066.35263,0.00668
2064.29246,0.00648
2062.23229,0.00505
2060.17212,0.00358
2058.11194,0.00337
2056.05177,0.00425
2053.99160,0.00543
2051.93143,0.00647
2049.87126,0.00710
2047.81108,0.00722
2045.75091,0.00714
2043.69074,0.00661
2041.63057,0.00531
2039.57040,0.00428
2037.51022,0.00495
2035.45005,0.00623
2033.38988,0.00545
2031.32971,0.00335
2029.26954,0.00246
2027.20936,0.00262
2025.14919,0.00162
2023.08902,0.00010
2021.02885,0.00067
2018.96867,0.00160
2016.90850,0.00079
2014.84833,0.00000
2012.78816,0.00051
2010.72799,0.00257
2008.66781,0.00504
2006.60764,0.00524
2004.54747,0.00375
2002.48730,0.00325
2000.42713,0.00405
1998.36695,0.00523
1996.30678,0.00568
1994.24661,0.00482
1992.18644,0.00354
1990.12626,0.00222
1988.06609,0.00125
1986.00592,0.00208
1983.94575,0.00389
1981.88558,0.00474
1979.82540,0.00524
1977.76523,0.00588
1975.70506,0.00527
1973.64489,0.00399
1971.58472,0.00438
1969.52454,0.00592
1967.46437,0.00561
1965.40420,0.00374
1963.34403,0.00360
1961.28386,0.00503
1959.22368,0.00564
1957.16351,0.00544
1955.10334,0.00575
1953.04317,0.00604
1950.98299,0.00517
1948.92282,0.00371
1946.86265,0.00342
1944.80248,0.00431
1942.74231,0.00432
1940.68213,0.00299
1938.62196,0.00187
1936.56179,0.00160
1934.50162,0.00176
1932.44145,0.00202
1930.38127,0.00235
1928.32110,0.00280
1926.26093,0.00308
1924.20076,0.00289
1922.14059,0.00253
1920.08041,0.00237
1918.02024,0.00237
1915.96007,0.00234
1913.89990,0.00229
1911.83972,0.00236
1909.77955,0.00269
1907.71938,0.00329
1905.65921,0.00372
1903.59904,0.00373
1901.53886,0.00342
1899.47869,0.00292
1897.41852,0.00244
1895.35835,0.00214
1893.29818,0.00222
1891.23800,0.00262
1889.17783,0.00264
1887.11766,0.00203
1885.05749,0.00153
1882.99731,0.00164
1880.93714,0.00192
1878.87697,0.00208
1876.81680,0.00248
1874.75663,0.00317
1872.69645,0.00324
1870.63628,0.00221
1868.57611,0.00121
1866.51594,0.00139
1864.45577,0.00206
1862.39559,0.00230
1860.33542,0.00209
1858.27525,0.00196
1856.21508,0.00232
1854.15491,0.00280
1852.09473,0.00271
1850.03456,0.00222
1847.97439,0.00205
1845.91422,0.00240
1843.85404,0.00277
1841.79387,0.00263
1839.73370,0.00226
1837.67353,0.00202
1835.61336,0.00180
1833.55318,0.00152
1831.49301,0.00130
1829.43284,0.00120
1827.37267,0.00116
1825.31250,0.00105
1823.25232,0.00108
1821.19215,0.00130
1819.13198,0.00147
1817.07181,0.00157
1815.01163,0.00164
1812.95146,0.00161
1810.89129,0.00135
1808.83112,0.00092
1806.77095,0.00059
1804.71077,0.00044
1802.65060,0.00044
1800.59043,0.00061
1798.53026,0.00061
1796.47009,0.00025
1794.40991,0.00000
1792.34974,0.00014
1790.28957,0.00042
1788.22940,0.00038
1786.16923,0.00015
1784.10905,0.00005
1782.04888,0.00008
1779.98871,0.00025
1777.92854,0.00060
1775.86836,0.00081
1773.80819,0.00065
1771.74802,0.00039
1769.68785,0.00060
1767.62768,0.00129
1765.56750,0.00178
1763.50733,0.00162
1761.44716,0.00135
1759.38699,0.00167
1757.32682,0.00236
1755.26664,0.00285
1753.20647,0.00320
1751.14630,0.00387
1749.08613,0.00498
1747.02596,0.00630
1744.96578,0.00784
1742.90561,0.00962
1740.84544,0.01167
1738.78527,0.01400
1736.72509,0.01628
1734.66492,0.01807
1732.60475,0.01924
1730.54458,0.02010
1728.48441,0.02084
1726.42423,0.02104
1724.36406,0.02050
1722.30389,0.01980
1720.24372,0.01957
1718.18355,0.01947
1716.12337,0.01909
1714.06320,0.01905
1712.00303,0.01944
1709.94286,0.01961
1707.88268,0.01922
1705.82251,0.01865
1703.76234,0.01856
1701.70217,0.01869
1699.64200,0.01806
1697.58182,0.01686
1695.52165,0.01614
1693.46148,0.01625
1691.40131,0.01669
1689.34114,0.01703
1687.28096,0.01720
1685.22079,0.01699
1683.16062,0.01639
1681.10045,0.01614
1679.04028,0.01647
1676.98010,0.01716
1674.91993,0.01783
1672.85976,0.01815
1670.79959,0.01815
1668.73941,0.01830
1666.67924,0.01916
1664.61907,0.02028
1662.55890,0.02095
1660.49873,0.02144
1658.43855,0.02233
1656.37838,0.02321
1654.31821,0.02337
1652.25804,0.02331
1650.19787,0.02393
1648.13769,0.02433
1646.07752,0.02424
1644.01735,0.02459
1641.95718,0.02536
1639.89701,0.02589
1637.83683,0.02580
1635.77666,0.02536
1633.71649,0.02570
1631.65632,0.02674
1629.59614,0.02745
1627.53597,0.02759
1625.47580,0.02778
1623.41563,0.02819
1621.35546,0.02865
1619.29528,0.02909
1617.23511,0.02924
1615.17494,0.02932
1613.11477,0.02994
1611.05460,0.03076
1608.99442,0.03110
1606.93425,0.03093
1604.87408,0.03058
1602.81391,0.03023
1600.75373,0.02990
1598.69356,0.02959
1596.63339,0.02917
1594.57322,0.02836
1592.51305,0.02721
1590.45287,0.02609
1588.39270,0.02511
1586.33253,0.02408
1584.27236,0.02304
1582.21219,0.02214
1580.15201,0.02142
1578.09184,0.02044
1576.03167,0.01883
1573.97150,0.01744
1571.91133,0.01671
1569.85115,0.01607
1567.79098,0.01551
1565.73081,0.01523
1563.67064,0.01503
1561.61046,0.01455
1559.55029,0.01343
1557.49012,0.01282
1555.42995,0.01364
1553.36978,0.01435
1551.30960,0.01438
1549.24943,0.01435
1547.18926,0.01451
1545.12909,0.01446
1543.06892,0.01400
1541.00874,0.01351
1538.94857,0.01353
1536.88840,0.01401
1534.82823,0.01421
1532.76805,0.01390
1530.70788,0.01354
1528.64771,0.01322
1526.58754,0.01273
1524.52737,0.01217
1522.46719,0.01159
1520.40702,0.01129
1518.34685,0.01146
1516.28668,0.01162
1514.22651,0.01160
1512.16633,0.01152
1510.10616,0.01106
1508.04599,0.00972
1505.98582,0.00827
1503.92565,0.00804
1501.86547,0.00818
1499.80530,0.00782
1497.74513,0.00688
1495.68496,0.00577
1493.62478,0.00497
1491.56461,0.00426
1489.50444,0.00339
1487.44427,0.00275
1485.38410,0.00258
1483.32392,0.00260
1481.26375,0.00272
1479.20358,0.00303
1477.14341,0.00354
1475.08324,0.00430
1473.02306,0.00566
1470.96289,0.00762
1468.90272,0.00955
1466.84255,0.01102
1464.78238,0.01203
1462.72220,0.01282
1460.66203,0.01343
1458.60186,0.01378
1456.54169,0.01428
1454.48151,0.01554
1452.42134,0.01705
1450.36117,0.01807
1448.30100,0.01842
1446.24083,0.01870
1444.18065,0.01930
1442.12048,0.01975
1440.06031,0.01962
1438.00014,0.01889
1435.93997,0.01782
1433.87979,0.01717
1431.81962,0.01679
1429.75945,0.01601
1427.69928,0.01512
1425.63910,0.01457
1423.57893,0.01431
1421.51876,0.01413
1419.45859,0.01367
1417.39842,0.01310
1415.33824,0.01307
1413.27807,0.01335
1411.21790,0.01344
1409.15773,0.01332
1407.09756,0.01301
1405.03738,0.01269
1402.97721,0.01268
1400.91704,0.01285
1398.85687,0.01276
1396.79670,0.01251
1394.73652,0.01249
1392.67635,0.01284
1390.61618,0.01332
1388.55601,0.01369
1386.49583,0.01391
1384.43566,0.01428
1382.37549,0.01490
1380.31532,0.01558
1378.25515,0.01610
1376.19497,0.01642
1374.13480,0.01675
1372.07463,0.01738
1370.01446,0.01803
1367.95429,0.01825
1365.89411,0.01812
1363.83394,0.01793
1361.77377,0.01789
1359.71360,0.01811
1357.65343,0.01836
1355.59325,0.01849
1353.53308,0.01858
1351.47291,0.01880
1349.41274,0.01906
1347.35256,0.01922
1345.29239,0.01942
1343.23222,0.01983
1341.17205,0.02019
1339.11188,0.02023
1337.05170,0.02025
1334.99153,0.02055
1332.93136,0.02120
1330.87119,0.02207
1328.81102,0.02281
1326.75084,0.02325
1324.69067,0.02360
1322.63050,0.02398
1320.57033,0.02440
1318.51015,0.02480
1316.44998,0.02506
1314.38981,0.02517
1312.32964,0.02515
1310.26947,0.02490
1308.20929,0.02424
1306.14912,0.02311
1304.08895,0.02178
1302.02878,0.02057
1299.96861,0.01951
1297.90843,0.01839
1295.84826,0.01707
1293.78809,0.01572
1291.72792,0.01466
1289.66775,0.01396
1287.60757,0.01348
1285.54740,0.01318
1283.48723,0.01299
1281.42706,0.01280
1279.36688,0.01263
1277.30671,0.01267
1275.24654,0.01291
1273.18637,0.01308
1271.12620,0.01324
1269.06602,0.01355
1267.00585,0.01396
1264.94568,0.01447
1262.88551,0.01492
1260.82534,0.01515
1258.76516,0.01545
1256.70499,0.01587
1254.64482,0.01620
1252.58465,0.01655
1250.52447,0.01702
1248.46430,0.01748
1246.40413,0.01793
1244.34396,0.01846
1242.28379,0.01881
1240.22361,0.01899
1238.16344,0.01931
1236.10327,0.01971
1234.04310,0.02022
1231.98293,0.02099
1229.92275,0.02160
1227.86258,0.02179
1225.80241,0.02195
1223.74224,0.02232
1221.68207,0.02305
1219.62189,0.02390
1217.56172,0.02442
1215.50155,0.02452
1213.44138,0.02450
1211.38120,0.02466
1209.32103,0.02502
1207.26086,0.02546
1205.20069,0.02584
1203.14052,0.02623
1201.08034,0.02661
1199.02017,0.02706
1196.96000,0.02755
1194.89983,0.02759
1192.83966,0.02723
1190.77948,0.02685
1188.71931,0.02646
1186.65914,0.02624
1184.59897,0.02618
1182.53880,0.02597
1180.47862,0.02563
1178.41845,0.02537
1176.35828,0.02526
1174.29811,0.02537
1172.23793,0.02568
1170.17776,0.02592
1168.11759,0.02591
1166.05742,0.02586
1163.99725,0.02588
1161.93707,0.02557
1159.87690,0.02498
1157.81673,0.02456
1155.75656,0.02438
1153.69639,0.02421
1151.63621,0.02376
1149.57604,0.02302
1147.51587,0.02209
1145.45570,0.02105
1143.39552,0.02000
1141.33535,0.01909
1139.27518,0.01852
1137.21501,0.01817
1135.15484,0.01779
1133.09466,0.01754
1131.03449,0.01763
1128.97432,0.01792
1126.91415,0.01830
1124.85398,0.01877
1122.79380,0.01937
1120.73363,0.02018
1118.67346,0.02112
1116.61329,0.02222
1114.55312,0.02371
1112.49294,0.02547
1110.43277,0.02724
1108.37260,0.02891
1106.31243,0.03057
1104.25225,0.03220
1102.19208,0.03349
1100.13191,0.03436
1098.07174,0.03515
1096.01157,0.03603
1093.95139,0.03680
1091.89122,0.03747
1089.83105,0.03829
1087.77088,0.03925
1085.71071,0.04038
1083.65053,0.04175
1081.59036,0.04321
1079.53019,0.04458
1077.47002,0.04583
1075.40985,0.04690
1073.34967,0.04758
1071.28950,0.04809
1069.22933,0.04870
1067.16916,0.04938
1065.10898,0.05011
1063.04881,0.05077
1060.98864,0.05124
1058.92847,0.05163
1056.86830,0.05217
1054.80812,0.05305
1052.74795,0.05421
1050.68778,0.05542
1048.62761,0.05644
1046.56744,0.05726
1044.50726,0.05805
1042.44709,0.05888
1040.38692,0.05963
1038.32675,0.06043
1036.26657,0.06154
1034.20640,0.06279
1032.14623,0.06395
1030.08606,0.06486
1028.02589,0.06553
1025.96571,0.06611
1023.90554,0.06652
1021.84537,0.06649
1019.78520,0.06604
1017.72503,0.06577
1015.66485,0.06589
1013.60468,0.06573
1011.54451,0.06465
1009.48434,0.06325
1007.42417,0.06224
1005.36399,0.06132
1003.30382,0.06035
1001.24365,0.05934
999.18348,0.05805
997.12330,0.05649
995.06313,0.05498
993.00296,0.05375
990.94279,0.05243
988.88262,0.05079
986.82244,0.04905
984.76227,0.04712
982.70210,0.04476
980.64193,0.04226
978.58176,0.04018
976.52158,0.03844
974.46141,0.03653
972.40124,0.03446
970.34107,0.03290
968.28089,0.03217
966.22072,0.03176
964.16055,0.03104
962.10038,0.02975
960.04021,0.02820
957.98003,0.02684
955.91986,0.02576
953.85969,0.02481
951.79952,0.02368
949.73935,0.02236
947.67917,0.02099
945.61900,0.01953
943.55883,0.01820
941.49866,0.01729
939.43849,0.01680
937.37831,0.01644
935.31814,0.01604
933.25797,0.01582
931.19780,0.01558
929.13762,0.01495
927.07745,0.01428
925.01728,0.01385
922.95711,0.01318
920.89694,0.01233
918.83676,0.01164
916.77659,0.01072
914.71642,0.00970
912.65625,0.00905
910.59608,0.00837
908.53590,0.00727
906.47573,0.00635
904.41556,0.00608
902.35539,0.00611
900.29522,0.00615
898.23504,0.00631
896.17487,0.00651
894.11470,0.00641
892.05453,0.00628
889.99435,0.00658
887.93418,0.00654
885.87401,0.00591
883.81384,0.00552
881.75367,0.00524
879.69349,0.00468
877.63332,0.00423
875.57315,0.00432
873.51298,0.00494
871.45281,0.00542
869.39263,0.00550
867.33246,0.00539
865.27229,0.00512
863.21212,0.00455
861.15194,0.00354
859.09177,0.00248
857.03160,0.00166
854.97143,0.00087
852.91126,0.00055
850.85108,0.00063
848.79091,0.00027
846.73074,0.00000
844.67057,0.00028
842.61040,0.00055
840.55022,0.00050
838.49005,0.00042
836.42988,0.00066
834.36971,0.00112
832.30954,0.00139
830.24936,0.00104
828.18919,0.00033
826.12902,-0.00007
824.06885,-0.00031
822.00867,-0.00026
819.94850,0.00036
817.88833,0.00069
815.82816,0.00027
813.76799,-0.00014
811.70781,-0.00010
809.64764,0.00006
807.58747,0.00028
805.52730,0.00076
803.46713,0.00106
801.40695,0.00060
799.34678,0.00000
797.28661,-0.00027
795.22644,-0.00065
793.16627,-0.00118
791.10609,-0.00136
789.04592,-0.00178
786.98575,-0.00222
784.92558,-0.00182
782.86540,-0.00117
780.80523,-0.00081
778.74506,-0.00036
776.68489,0.00005
774.62472,-0.00007
772.56454,-0.00010
770.50437,0.00046
768.44420,0.00122
766.38403,0.00201
764.32386,0.00286
762.26368,0.00381
760.20351,0.00498
758.14334,0.00644
756.08317,0.00731
754.02299,0.00658
751.96282,0.00479
749.90265,0.00371
747.84248,0.00393
745.78231,0.00426
743.72213,0.00398
741.66196,0.00309
739.60179,0.00246
737.54162,0.00269
735.48145,0.00319
733.42127,0.00326
731.36110,0.00238
729.30093,0.00170
727.24076,0.00167
725.18059,0.00139
723.12041,0.00134
721.06024,0.00120
719.00007,0.00130
716.93990,0.00167
714.87972,0.00219
712.81955,0.00248
710.75938,0.00212
708.69921,0.00150
706.63904,0.00116
704.57886,0.00124
702.51869,0.00150
700.45852,0.00176
698.39835,0.00212
696.33818,0.00227
694.27800,0.00177
692.21783,0.00096
690.15766,0.00075
688.09749,0.00131
686.03731,0.00125
683.97714,0.00002
681.91697,-0.00075
679.85680,-0.00085
677.79663,-0.00119
675.73645,-0.00111
673.67628,0.00002
671.61611,0.00157
669.55594,0.00137
667.49577,0.00035
665.43559,0.00265
663.37542,0.00245
661.31525,0.00213
659.25508,0.00164
657.19491,0.00014
655.13473,-0.00106
653.07456,-0.00062
651.01439,0.00015
648.95422,0.00000
646.89404,-0.00028
644.83387,-0.00007
642.77370,0.00004
640.71353,-0.00059
638.65336,-0.00207
636.59318,-0.00304
634.53301,-0.00201
632.47284,-0.00043
630.41267,-0.00093
628.35250,-0.00277
626.29232,-0.00348
624.23215,-0.00331
622.17198,-0.00251
620.11181,-0.00165
618.05164,-0.00127
615.99146,-0.00005
613.93129,0.00052
611.87112,-0.00126
609.81095,-0.00272
607.75077,-0.00352
605.69060,-0.00578
603.63043,-0.00735
601.57026,-0.00520
599.51009,0.00000
