3996.73391,0.00084
3994.67373,0.00092
3992.61356,0.00095
3990.55339,0.00075
3988.49322,0.00070
3986.43305,0.00103
3984.37287,0.00131
3982.31270,0.00131
3980.25253,0.00112
3978.19236,0.00088
3976.13219,0.00092
3974.07201,0.00128
3972.01184,0.00163
3969.95167,0.00174
3967.89150,0.00163
3965.83133,0.00132
3963.77115,0.00080
3961.71098,0.00025
3959.65081,0.00000
3957.59064,0.00025
3955.53046,0.00068
3953.47029,0.00087
3951.41012,0.00074
3949.34995,0.00051
3947.28978,0.00055
3945.22960,0.00090
3943.16943,0.00114
3941.10926,0.00130
3939.04909,0.00161
3936.98892,0.00200
3934.92874,0.00227
3932.86857,0.00223
3930.80840,0.00193
3928.74823,0.00162
3926.68805,0.00138
3924.62788,0.00108
3922.56771,0.00079
3920.50754,0.00080
3918.44737,0.00119
3916.38719,0.00161
3914.32702,0.00167
3912.26685,0.00144
3910.20668,0.00122
3908.14651,0.00105
3906.08633,0.00084
3904.02616,0.00070
3901.96599,0.00054
3899.90582,0.00038
3897.84565,0.00061
3895.78547,0.00129
3893.72530,0.00210
3891.66513,0.00273
3889.60496,0.00280
3887.54478,0.00232
3885.48461,0.00189
3883.42444,0.00194
3881.36427,0.00207
3879.30410,0.00178
3877.24392,0.00151
3875.18375,0.00179
3873.12358,0.00213
3871.06341,0.00200
3869.00324,0.00189
3866.94306,0.00185
3864.88289,0.00162
3862.82272,0.00156
3860.76255,0.00181
3858.70237,0.00220
3856.64220,0.00241
3854.58203,0.00207
3852.52186,0.00130
3850.46169,0.00107
3848.40151,0.00167
3846.34134,0.00246
3844.28117,0.00266
3842.22100,0.00208
3840.16083,0.00148
3838.10065,0.00163
3836.04048,0.00213
3833.98031,0.00209
3831.92014,0.00175
3829.85997,0.00177
3827.79979,0.00194
3825.73962,0.00192
3823.67945,0.00161
3821.61928,0.00117
3819.55910,0.00107
3817.49893,0.00145
3815.43876,0.00188
3813.37859,0.00202
3811.31842,0.00192
3809.25824,0.00175
3807.19807,0.00183
3805.13790,0.00227
3803.07773,0.00259
3801.01756,0.00245
3798.95738,0.00231
3796.89721,0.00251
3794.83704,0.00253
3792.77687,0.00216
3790.71670,0.00196
3788.65652,0.00224
3786.59635,0.00250
3784.53618,0.00255
3782.47601,0.00281
3780.41583,0.00319
3778.35566,0.00308
3776.29549,0.00244
3774.23532,0.00182
3772.17515,0.00141
3770.11497,0.00135
3768.05480,0.00176
3765.99463,0.00209
3763.93446,0.00180
3761.87429,0.00113
3759.81411,0.00065
3757.75394,0.00085
3755.69377,0.00135
3753.63360,0.00137
3751.57342,0.00099
3749.51325,0.00065
3747.45308,0.00023
3745.39291,0.00000
3743.33274,0.00061
3741.27256,0.00157
3739.21239,0.00217
3737.15222,0.00277
3735.09205,0.00349
3733.03188,0.00338
3730.97170,0.00272
3728.91153,0.00246
3726.85136,0.00229
3724.79119,0.00180
3722.73102,0.00133
3720.67084,0.00110
3718.61067,0.00121
3716.55050,0.00150
3714.49033,0.00160
3712.43015,0.00179
3710.36998,0.00248
3708.30981,0.00296
3706.24964,0.00260
3704.18947,0.00191
3702.12929,0.00169
3700.06912,0.00201
3698.00895,0.00224
3695.94878,0.00218
3693.88861,0.00207
3691.82843,0.00220
3689.76826,0.00269
3687.70809,0.00295
3685.64792,0.00268
3683.58775,0.00226
3681.52757,0.00190
3679.46740,0.00178
3677.40723,0.00200
3675.34706,0.00226
3673.28688,0.00234
3671.22671,0.00252
3669.16654,0.00295
3667.10637,0.00317
3665.04620,0.00316
3662.98602,0.00332
3660.92585,0.00359
3658.86568,0.00371
3656.80551,0.00358
3654.74534,0.00330
3652.68516,0.00292
3650.62499,0.00304
3648.56482,0.00442
3646.50465,0.00564
3644.44447,0.00548
3642.38430,0.00493
3640.32413,0.00474
3638.26396,0.00479
3636.20379,0.00499
3634.14361,0.00543
3632.08344,0.00612
3630.02327,0.00697
3627.96310,0.00754
3625.90293,0.00757
3623.84275,0.00755
3621.78258,0.00756
3619.72241,0.00765
3617.66224,0.00810
3615.60207,0.00852
3613.54189,0.00872
3611.48172,0.00905
3609.42155,0.00945
3607.36138,0.00958
3605.30120,0.00935
3603.24103,0.00901
3601.18086,0.00901
3599.12069,0.00968
3597.06052,0.01058
3595.00034,0.01119
3592.94017,0.01144
3590.88000,0.01138
3588.81983,0.01136
3586.75966,0.01167
3584.69948,0.01219
3582.63931,0.01298
3580.57914,0.01383
3578.51897,0.01427
3576.45879,0.01456
3574.39862,0.01511
3572.33845,0.01567
3570.27828,0.01607
3568.21811,0.01656
3566.15793,0.01714
3564.09776,0.01736
3562.03759,0.01725
3559.97742,0.01743
3557.91725,0.01817
3555.85707,0.01896
3553.79690,0.01942
3551.73673,0.01987
3549.67656,0.02079
3547.61639,0.02186
3545.55621,0.02211
3543.49604,0.02175
3541.43587,0.02186
3539.37570,0.02263
3537.31552,0.02354
3535.25535,0.02417
3533.19518,0.02447
3531.13501,0.02474
3529.07484,0.02529
3527.01466,0.02594
3524.95449,0.02610
3522.89432,0.02580
3520.83415,0.02576
3518.77398,0.02635
3516.71380,0.02716
3514.65363,0.02779
3512.59346,0.02839
3510.53329,0.02912
3508.47312,0.02978
3506.41294,0.03012
3504.35277,0.03008
3502.29260,0.03003
3500.23243,0.03050
3498.17225,0.03139
3496.11208,0.03223
3494.05191,0.03298
3491.99174,0.03360
3489.93157,0.03397
3487.87139,0.03430
3485.81122,0.03486
3483.75105,0.03558
3481.69088,0.03626
3479.63071,0.03677
3477.57053,0.03711
3475.51036,0.03739
3473.45019,0.03758
3471.39002,0.03774
3469.32984,0.03812
3467.26967,0.03883
3465.20950,0.03960
3463.14933,0.04009
3461.08916,0.04041
3459.02898,0.04069
3456.96881,0.04105
3454.90864,0.04156
3452.84847,0.04208
3450.78830,0.04258
3448.72812,0.04314
3446.66795,0.04358
3444.60778,0.04398
3442.54761,0.04458
3440.48744,0.04508
3438.42726,0.04530
3436.36709,0.04556
3434.30692,0.04597
3432.24675,0.04639
3430.18657,0.04681
3428.12640,0.04728
3426.06623,0.04778
3424.00606,0.04824
3421.94589,0.04836
3419.88571,0.04838
3417.82554,0.04859
3415.76537,0.04882
3413.70520,0.04914
3411.64503,0.04951
3409.58485,0.04971
3407.52468,0.04999
3405.46451,0.05095
3403.40434,0.05226
3401.34416,0.05302
3399.28399,0.05328
3397.22382,0.05349
3395.16365,0.05356
3393.10348,0.05345
3391.04330,0.05336
3388.98313,0.05338
3386.92296,0.05377
3384.86279,0.05456
3382.80262,0.05506
3380.74244,0.05493
3378.68227,0.05453
3376.62210,0.05443
3374.56193,0.05484
3372.50176,0.05544
3370.44158,0.05595
3368.38141,0.05624
3366.32124,0.05645
3364.26107,0.05669
3362.20089,0.05683
3360.14072,0.05702
3358.08055,0.05738
3356.02038,0.05783
3353.96021,0.05815
3351.90003,0.05844
3349.83986,0.05870
3347.77969,0.05884
3345.71952,0.05918
3343.65935,0.05957
3341.59917,0.05957
3339.53900,0.05941
3337.47883,0.05933
3335.41866,0.05934
3333.35849,0.05958
3331.29831,0.06002
3329.23814,0.06034
3327.17797,0.06045
3325.11780,0.06065
3323.05762,0.06087
3320.99745,0.06092
3318.93728,0.06093
3316.87711,0.06074
3314.81694,0.06054
3312.75676,0.06101
3310.69659,0.06168
3308.63642,0.06146
3306.57625,0.06075
3304.51608,0.06049
3302.45590,0.06078
3300.39573,0.06120
3298.33556,0.06157
3296.27539,0.06193
3294.21521,0.06209
3292.15504,0.06204
3290.09487,0.06217
3288.03470,0.06226
3285.97453,0.06189
3283.91435,0.06135
3281.85418,0.06104
3279.79401,0.06095
3277.73384,0.06099
3275.67367,0.06126
3273.61349,0.06178
3271.55332,0.06220
3269.49315,0.06232
3267.43298,0.06223
3265.37281,0.06176
3263.31263,0.06119
3261.25246,0.06092
3259.19229,0.06083
3257.13212,0.06075
3255.07194,0.06084
3253.01177,0.06105
3250.95160,0.06094
3248.89143,0.06048
3246.83126,0.06022
3244.77108,0.06018
3242.71091,0.06000
3240.65074,0.05977
3238.59057,0.05959
3236.53040,0.05963
3234.47022,0.05982
3232.41005,0.05987
3230.34988,0.05972
3228.28971,0.05944
3226.22954,0.05924
3224.16936,0.05903
3222.10919,0.05859
3220.04902,0.05819
3217.98885,0.05809
3215.92867,0.05823
3213.86850,0.05827
3211.80833,0.05789
3209.74816,0.05729
3207.68799,0.05694
3205.62781,0.05686
3203.56764,0.05681
3201.50747,0.05657
3199.44730,0.05617
3197.38713,0.05591
3195.32695,0.05580
3193.26678,0.05545
3191.20661,0.05504
3189.14644,0.05502
3187.08626,0.05496
3185.02609,0.05460
3182.96592,0.05442
3180.90575,0.05447
3178.84558,0.05416
3176.78540,0.05369
3174.72523,0.05371
3172.66506,0.05389
3170.60489,0.05353
3168.54472,0.05280
3166.48454,0.05220
3164.42437,0.05176
3162.36420,0.05148
3160.30403,0.05137
3158.24386,0.05148
3156.18368,0.05157
3154.12351,0.05100
3152.06334,0.05002
3150.00317,0.04967
3147.94299,0.04991
3145.88282,0.04987
3143.82265,0.04943
3141.76248,0.04908
3139.70231,0.04887
3137.64213,0.04856
3135.58196,0.04810
3133.52179,0.04764
3131.46162,0.04733
3129.40145,0.04708
3127.34127,0.04668
3125.28110,0.04636
3123.22093,0.04633
3121.16076,0.04639
3119.10058,0.04624
3117.04041,0.04590
3114.98024,0.04542
3112.92007,0.04493
3110.85990,0.04469
3108.79972,0.04468
3106.73955,0.04474
3104.67938,0.04452
3102.61921,0.04386
3100.55904,0.04325
3098.49886,0.04302
3096.43869,0.04297
3094.37852,0.04289
3092.31835,0.04254
3090.25818,0.04201
3088.19800,0.04171
3086.13783,0.04162
3084.07766,0.04135
3082.01749,0.04102
3079.95731,0.04111
3077.89714,0.04146
3075.83697,0.04149
3073.77680,0.04092
3071.71663,0.04011
3069.65645,0.03959
3067.59628,0.03950
3065.53611,0.03952
3063.47594,0.03930
3061.41577,0.03892
3059.35559,0.03861
3057.29542,0.03837
3055.23525,0.03823
3053.17508,0.03814
3051.11491,0.03780
3049.05473,0.03721
3046.99456,0.03679
3044.93439,0.03671
3042.87422,0.03654
3040.81404,0.03619
3038.75387,0.03591
3036.69370,0.03578
3034.63353,0.03580
3032.57336,0.03565
3030.51318,0.03505
3028.45301,0.03437
3026.39284,0.03412
3024.33267,0.03426
3022.27250,0.03453
3020.21232,0.03451
3018.15215,0.03408
3016.09198,0.03363
3014.03181,0.03334
3011.97163,0.03319
3009.91146,0.03312
3007.85129,0.03295
3005.79112,0.03267
3003.73095,0.03240
3001.67077,0.03225
2999.61060,0.03212
2997.55043,0.03186
2995.49026,0.03144
2993.43009,0.03122
2991.36991,0.03157
2989.30974,0.03205
2987.24957,0.03224
2985.18940,0.03234
2983.12923,0.03249
2981.06905,0.03275
2979.00888,0.03320
2976.94871,0.03360
2974.88854,0.03411
2972.82836,0.03485
2970.76819,0.03545
2968.70802,0.03606
2966.64785,0.03683
2964.58768,0.03771
2962.52750,0.03897
2960.46733,0.04033
2958.40716,0.04137
2956.34699,0.04221
2954.28682,0.04309
2952.22664,0.04398
2950.16647,0.04494
2948.10630,0.04615
2946.04613,0.04741
2943.98596,0.04871
2941.92578,0.05044
2939.86561,0.05254
2937.80544,0.05483
2935.74527,0.05734
2933.68509,0.05990
2931.62492,0.06237
2929.56475,0.06446
2927.50458,0.06605
2925.44441,0.06746
2923.38423,0.06883
2921.32406,0.07013
2919.26389,0.07109
2917.20372,0.07100
2915.14355,0.06927
2913.08337,0.06617
2911.02320,0.06289
2908.96303,0.06026
2906.90286,0.05813
2904.84268,0.05627
2902.78251,0.05481
2900.72234,0.05349
2898.66217,0.05204
2896.60200,0.05079
2894.54182,0.04992
2892.48165,0.04912
2890.42148,0.04810
2888.36131,0.04703
2886.30114,0.04602
2884.24096,0.04515
2882.18079,0.04473
2880.12062,0.04446
2878.06045,0.04410
2876.00028,0.04407
2873.94010,0.04443
2871.87993,0.04468
2869.81976,0.04452
2867.75959,0.04429
2865.69941,0.04458
2863.63924,0.04560
2861.57907,0.04712
2859.51890,0.04890
2857.45873,0.05088
2855.39855,0.05294
2853.33838,0.05510
2851.27821,0.05694
2849.21804,0.05706
2847.15787,0.05464
2845.09769,0.05057
2843.03752,0.04608
2840.97735,0.04223
2838.91718,0.03973
2836.85700,0.03812
2834.79683,0.03673
2832.73666,0.03562
2830.67649,0.03478
2828.61632,0.03390
2826.55614,0.03301
2824.49597,0.03238
2822.43580,0.03196
2820.37563,0.03150
2818.31546,0.03105
2816.25528,0.03070
2814.19511,0.03041
2812.13494,0.03012
2810.07477,0.02972
2808.01460,0.02942
2805.95442,0.02936
2803.89425,0.02901
2801.83408,0.02839
2799.77391,0.02828
2797.71373,0.02857
2795.65356,0.02844
2793.59339,0.02792
2791.53322,0.02760
2789.47305,0.02755
2787.41287,0.02755
2785.35270,0.02754
2783.29253,0.02733
2781.23236,0.02674
2779.17219,0.02618
2777.11201,0.02609
2775.05184,0.02625
2772.99167,0.02610
2770.93150,0.02573
2768.87133,0.02557
2766.81115,0.02559
2764.75098,0.02550
2762.69081,0.02522
2760.63064,0.02510
2758.57046,0.02521
2756.51029,0.02519
2754.45012,0.02489
2752.38995,0.02451
2750.32978,0.02442
2748.26960,0.02441
2746.20943,0.02423
2744.14926,0.02408
2742.08909,0.02399
2740.02892,0.02404
2737.96874,0.02426
2735.90857,0.02425
2733.84840,0.02392
2731.78823,0.02370
2729.72805,0.02390
2727.66788,0.02429
2725.60771,0.02443
2723.54754,0.02435
2721.48737,0.02413
2719.42719,0.02386
2717.36702,0.02366
2715.30685,0.02360
2713.24668,0.02370
2711.18651,0.02367
2709.12633,0.02359
2707.06616,0.02373
2705.00599,0.02369
2702.94582,0.02319
2700.88565,0.02265
2698.82547,0.02247
2696.76530,0.02259
2694.70513,0.02273
2692.64496,0.02273
2690.58478,0.02266
2688.52461,0.02264
2686.46444,0.02233
2684.40427,0.02189
2682.34410,0.02191
2680.28392,0.02211
2678.22375,0.02199
2676.16358,0.02172
2674.10341,0.02170
2672.04324,0.02189
2669.98306,0.02182
2667.92289,0.02142
2665.86272,0.02106
2663.80255,0.02114
2661.74238,0.02153
2659.68220,0.02174
2657.62203,0.02158
2655.56186,0.02117
2653.50169,0.02073
2651.44151,0.02047
2649.38134,0.02021
2647.32117,0.01988
2645.26100,0.01970
2643.20083,0.01969
2641.14065,0.01973
2639.08048,0.01971
2637.02031,0.01964
2634.96014,0.01934
2632.89997,0.01901
2630.83979,0.01895
2628.77962,0.01895
2626.71945,0.01895
2624.65928,0.01915
2622.59910,0.01923
2620.53893,0.01892
2618.47876,0.01857
2616.41859,0.01827
2614.35842,0.01805
2612.29824,0.01798
2610.23807,0.01785
2608.17790,0.01750
2606.11773,0.01718
2604.05756,0.01725
2601.99738,0.01721
2599.93721,0.01692
2597.87704,0.01686
2595.81687,0.01688
2593.75670,0.01682
2591.69652,0.01676
2589.63635,0.01677
2587.57618,0.01688
2585.51601,0.01714
2583.45583,0.01711
2581.39566,0.01680
2579.33549,0.01674
2577.27532,0.01684
2575.21515,0.01679
2573.15497,0.01648
2571.09480,0.01610
2569.03463,0.01567
2566.97446,0.01529
2564.91429,0.01542
2562.85411,0.01581
2560.79394,0.01582
2558.73377,0.01540
2556.67360,0.01497
2554.61342,0.01481
2552.55325,0.01496
2550.49308,0.01501
2548.43291,0.01480
2546.37274,0.01485
2544.31256,0.01513
2542.25239,0.01509
2540.19222,0.01500
2538.13205,0.01517
2536.07188,0.01533
2534.01170,0.01527
2531.95153,0.01489
2529.89136,0.01464
2527.83119,0.01481
2525.77102,0.01497
2523.71084,0.01466
2521.65067,0.01406
2519.59050,0.01381
2517.53033,0.01407
2515.47015,0.01423
2513.40998,0.01390
2511.34981,0.01321
2509.28964,0.01262
2507.22947,0.01257
2505.16929,0.01270
2503.10912,0.01260
2501.04895,0.01278
2498.98878,0.01344
2496.92861,0.01376
2494.86843,0.01314
2492.80826,0.01216
2490.74809,0.01188
2488.68792,0.01256
2486.62775,0.01318
2484.56757,0.01303
2482.50740,0.01277
2480.44723,0.01285
2478.38706,0.01305
2476.32688,0.01275
2474.26671,0.01203
2472.20654,0.01197
2470.14637,0.01247
2468.08620,0.01248
2466.02602,0.01213
2463.96585,0.01221
2461.90568,0.01263
2459.84551,0.01273
2457.78534,0.01245
2455.72516,0.01238
2453.66499,0.01254
2451.60482,0.01230
2449.54465,0.01175
2447.48447,0.01133
2445.42430,0.01107
2443.36413,0.01081
2441.30396,0.01052
2439.24379,0.01041
2437.18361,0.01063
2435.12344,0.01077
2433.06327,0.01067
2431.00310,0.01083
2428.94293,0.01147
2426.88275,0.01203
2424.82258,0.01182
2422.76241,0.01135
2420.70224,0.01105
2418.64207,0.01057
2416.58189,0.01013
2414.52172,0.00995
2412.46155,0.01013
2410.40138,0.01062
2408.34120,0.01080
2406.28103,0.01053
2404.22086,0.01041
2402.16069,0.01064
2400.10052,0.01082
2398.04034,0.01040
2395.98017,0.00983
2393.92000,0.00974
2391.85983,0.01009
2389.79966,0.01030
2387.73948,0.01024
2385.67931,0.01016
2383.61914,0.00997
2381.55897,0.00950
2379.49880,0.00903
2377.43862,0.00893
2375.37845,0.00905
2373.31828,0.00902
2371.25811,0.00890
2369.19793,0.00904
2367.13776,0.00937
2365.07759,0.00898
2363.01742,0.00690
2360.95725,0.00428
2358.89707,0.00340
2356.83690,0.00468
2354.77673,0.00647
2352.71656,0.00784
2350.65639,0.00901
2348.59621,0.00940
2346.53604,0.00842
2344.47587,0.00680
2342.41570,0.00631
2340.35552,0.00750
2338.29535,0.00891
2336.23518,0.00914
2334.17501,0.00852
2332.11484,0.00789
2330.05466,0.00771
2327.99449,0.00814
2325.93432,0.00878
2323.87415,0.00885
2321.81398,0.00839
2319.75380,0.00820
2317.69363,0.00850
2315.63346,0.00892
2313.57329,0.00920
2311.51312,0.00917
2309.45294,0.00899
2307.39277,0.00904
2305.33260,0.00917
2303.27243,0.00891
2301.21225,0.00830
2299.15208,0.00787
2297.09191,0.00785
2295.03174,0.00794
2292.97157,0.00781
2290.91139,0.00762
2288.85122,0.00778
2286.79105,0.00822
2284.73088,0.00838
2282.67071,0.00802
2280.61053,0.00764
2278.55036,0.00773
2276.49019,0.00823
2274.43002,0.00857
2272.36984,0.00821
2270.30967,0.00729
2268.24950,0.00696
2266.18933,0.00751
2264.12916,0.00768
2262.06898,0.00736
2260.00881,0.00712
2257.94864,0.00696
2255.88847,0.00710
2253.82830,0.00702
2251.76812,0.00671
2249.70795,0.00727
2247.64778,0.00827
2245.58761,0.00833
2243.52744,0.00782
2241.46726,0.00742
2239.40709,0.00781
2237.34692,0.00852
2235.28675,0.00814
2233.22657,0.00719
2231.16640,0.00675
2229.10623,0.00727
2227.04606,0.00774
2224.98589,0.00668
2222.92571,0.00565
2220.86554,0.00639
2218.80537,0.00738
2216.74520,0.00773
2214.68503,0.00829
2212.62485,0.00830
2210.56468,0.00692
2208.50451,0.00575
2206.44434,0.00620
2204.38417,0.00700
2202.32399,0.00672
2200.26382,0.00632
2198.20365,0.00631
2196.14348,0.00669
2194.08330,0.00799
2192.02313,0.00886
2189.96296,0.00806
2187.90279,0.00748
2185.84262,0.00864
2183.78244,0.00882
2181.72227,0.00585
2179.66210,0.00307
2177.60193,0.00386
2175.54176,0.00588
2173.48158,0.00581
2171.42141,0.00469
2169.36124,0.00490
2167.30107,0.00595
2165.24089,0.00569
2163.18072,0.00422
2161.12055,0.00290
2159.06038,0.00238
2157.00021,0.00242
2154.94003,0.00287
2152.87986,0.00363
2150.81969,0.00386
2148.75952,0.00371
2146.69935,0.00392
2144.63917,0.00440
2142.57900,0.00381
2140.51883,0.00329
2138.45866,0.00482
2136.39849,0.00576
2134.33831,0.00489
2132.27814,0.00430
2130.21797,0.00404
2128.15780,0.00404
2126.09762,0.00463
2124.03745,0.00471
2121.97728,0.00437
2119.91711,0.00478
2117.85694,0.00548
2115.79676,0.00544
2113.73659,0.00506
2111.67642,0.00524
2109.61625,0.00568
2107.55608,0.00578
2105.49590,0.00611
2103.43573,0.00714
2101.37556,0.00744
2099.31539,0.00568
2097.25521,0.00349
2095.19504,0.00375
2093.13487,0.00603
2091.07470,0.00702
2089.01453,0.00623
2086.95435,0.00524
2084.89418,0.00408
2082.83401,0.00350
2080.77384,0.00459
2078.71367,0.00579
2076.65349,0.00577
2074.59332,0.00501
2072.53315,0.00466
2070.47298,0.00500
2068.41281,0.00529
2066.35263,0.00594
2064.29246,0.00654
2062.23229,0.00601
2060.17212,0.00489
2058.11194,0.00360
2056.05177,0.00272
2053.99160,0.00339
2051.93143,0.00495
2049.87126,0.00546
2047.81108,0.00492
2045.75091,0.00475
2043.69074,0.00447
2041.63057,0.00367
2039.57040,0.00368
2037.51022,0.00415
2035.45005,0.00409
2033.38988,0.00376
2031.32971,0.00373
2029.26954,0.00406
2027.20936,0.00395
2025.14919,0.00349
2023.08902,0.00342
2021.02885,0.00337
2018.96867,0.00293
2016.90850,0.00213
2014.84833,0.00095
2012.78816,0.00000
2010.72799,0.00015
2008.66781,0.00114
2006.60764,0.00229
2004.54747,0.00346
2002.48730,0.00355
2000.42713,0.00239
1998.36695,0.00170
1996.30678,0.00192
1994.24661,0.00308
1992.18644,0.00475
1990.12626,0.00466
1988.06609,0.00282
1986.00592,0.00195
1983.94575,0.00268
1981.88558,0.00353
1979.82540,0.00372
1977.76523,0.00366
1975.70506,0.00354
1973.64489,0.00347
1971.58472,0.00382
1969.52454,0.00379
1967.46437,0.00275
1965.40420,0.00161
1963.34403,0.00234
1961.28386,0.00444
1959.22368,0.00457
1957.16351,0.00334
1955.10334,0.00386
1953.04317,0.00488
1950.98299,0.00408
1948.92282,0.00292
1946.86265,0.00319
1944.80248,0.00385
1942.74231,0.00361
1940.68213,0.00286
1938.62196,0.00259
1936.56179,0.00277
1934.50162,0.00233
1932.44145,0.00134
1930.38127,0.00085
1928.32110,0.00116
1926.26093,0.00179
1924.20076,0.00205
1922.14059,0.00187
1920.08041,0.00185
1918.02024,0.00236
1915.96007,0.00295
1913.89990,0.00260
1911.83972,0.00160
1909.77955,0.00146
1907.71938,0.00243
1905.65921,0.00327
1903.59904,0.00334
1901.53886,0.00293
1899.47869,0.00254
1897.41852,0.00243
1895.35835,0.00234
1893.29818,0.00188
1891.23800,0.00138
1889.17783,0.00119
1887.11766,0.00123
1885.05749,0.00137
1882.99731,0.00149
1880.93714,0.00161
1878.87697,0.00176
1876.81680,0.00177
1874.75663,0.00185
1872.69645,0.00219
1870.63628,0.00220
1868.57611,0.00176
1866.51594,0.00188
1864.45577,0.00259
1862.39559,0.00273
1860.33542,0.00196
1858.27525,0.00128
1856.21508,0.00154
1854.15491,0.00208
1852.09473,0.00208
1850.03456,0.00179
1847.97439,0.00166
1845.91422,0.00173
1843.85404,0.00176
1841.79387,0.00150
1839.73370,0.00116
1837.67353,0.00102
1835.61336,0.00103
1833.55318,0.00100
1831.49301,0.00087
1829.43284,0.00064
1827.37267,0.00028
1825.31250,0.00000
1823.25232,0.00014
1821.19215,0.00062
1819.13198,0.00088
1817.07181,0.00080
1815.01163,0.00064
1812.95146,0.00067
1810.89129,0.00080
1808.83112,0.00073
1806.77095,0.00042
1804.71077,0.00016
1802.65060,0.00026
1800.59043,0.00059
1798.53026,0.00059
1796.47009,0.00018
1794.40991,-0.00014
1792.34974,-0.00012
1790.28957,-0.00004
1788.22940,-0.00004
1786.16923,0.00009
1784.10905,0.00023
1782.04888,0.00011
1779.98871,0.00000
1777.92854,0.00012
1775.86836,0.00043
1773.80819,0.00074
1771.74802,0.00099
1769.68785,0.00120
1767.62768,0.00148
1765.56750,0.00182
1763.50733,0.00206
1761.44716,0.00235
1759.38699,0.00312
1757.32682,0.00431
1755.26664,0.00548
1753.20647,0.00669
1751.14630,0.00837
1749.08613,0.01035
1747.02596,0.01246
1744.96578,0.01500
1742.90561,0.01818
1740.84544,0.02210
1738.78527,0.02629
1736.72509,0.02994
1734.66492,0.03344
1732.60475,0.03637
1730.54458,0.03763
1728.48441,0.03803
1726.42423,0.03816
1724.36406,0.03796
1722.30389,0.03768
1720.24372,0.03764
1718.18355,0.03754
1716.12337,0.03703
1714.06320,0.03650
1712.00303,0.03623
1709.94286,0.03603
1707.88268,0.03574
1705.82251,0.03521
1703.76234,0.03446
1701.70217,0.03364
1699.64200,0.03276
1697.58182,0.03197
1695.52165,0.03139
1693.46148,0.03102
1691.40131,0.03069
1689.34114,0.03044
1687.28096,0.03048
1685.22079,0.03040
1683.16062,0.02955
1681.10045,0.02864
1679.04028,0.02862
1676.98010,0.02955
1674.91993,0.03066
1672.85976,0.03115
1670.79959,0.03133
1668.73941,0.03194
1666.67924,0.03303
1664.61907,0.03427
1662.55890,0.03543
1660.49873,0.03663
1658.43855,0.03818
1656.37838,0.03979
1654.31821,0.04072
1652.25804,0.04110
1650.19787,0.04174
1648.13769,0.04249
1646.07752,0.04300
1644.01735,0.04340
1641.95718,0.04386
1639.89701,0.04446
1637.83683,0.04498
1635.77666,0.04521
1633.71649,0.04546
1631.65632,0.04598
1629.59614,0.04671
1627.53597,0.04754
1625.47580,0.04833
1623.41563,0.04901
1621.35546,0.04966
1619.29528,0.05032
1617.23511,0.05100
1615.17494,0.05174
1613.11477,0.05251
1611.05460,0.05323
1608.99442,0.05378
1606.93425,0.05401
1604.87408,0.05396
1602.81391,0.05361
1600.75373,0.05282
1598.69356,0.05169
1596.63339,0.05048
1594.57322,0.04916
1592.51305,0.04757
1590.45287,0.04578
1588.39270,0.04393
1586.33253,0.04206
1584.27236,0.04014
1582.21219,0.03837
1580.15201,0.03689
1578.09184,0.03534
1576.03167,0.03335
1573.97150,0.03147
1571.91133,0.02989
1569.85115,0.02828
1567.79098,0.02709
1565.73081,0.02654
1563.67064,0.02607
1561.61046,0.02548
1559.55029,0.02488
1557.49012,0.02465
1555.42995,0.02487
1553.36978,0.02510
1551.30960,0.02524
1549.24943,0.02532
1547.18926,0.02545
1545.12909,0.02586
1543.06892,0.02647
1541.00874,0.02664
1538.94857,0.02615
1536.88840,0.02569
1534.82823,0.02522
1532.76805,0.02438
1530.70788,0.02344
1528.64771,0.02262
1526.58754,0.02195
1524.52737,0.02156
1522.46719,0.02150
1520.40702,0.02187
1518.34685,0.02241
1516.28668,0.02252
1514.22651,0.02212
1512.16633,0.02157
1510.10616,0.02097
1508.04599,0.01979
1505.98582,0.01791
1503.92565,0.01659
1501.86547,0.01585
1499.80530,0.01500
1497.74513,0.01362
1495.68496,0.01183
1493.62478,0.01018
1491.56461,0.00882
1489.50444,0.00757
1487.44427,0.00666
1485.38410,0.00625
1483.32392,0.00617
1481.26375,0.00638
1479.20358,0.00702
1477.14341,0.00831
1475.08324,0.01041
1473.02306,0.01338
1470.96289,0.01658
1468.90272,0.01924
1466.84255,0.02164
1464.78238,0.02392
1462.72220,0.02550
1460.66203,0.02640
1458.60186,0.02745
1456.54169,0.02908
1454.48151,0.03075
1452.42134,0.03213
1450.36117,0.03339
1448.30100,0.03451
1446.24083,0.03523
1444.18065,0.03548
1442.12048,0.03543
1440.06031,0.03522
1438.00014,0.03456
1435.93997,0.03323
1433.87979,0.03179
1431.81962,0.03045
1429.75945,0.02906
1427.69928,0.02807
1425.63910,0.02763
1423.57893,0.02743
1421.51876,0.02735
1419.45859,0.02721
1417.39842,0.02682
1415.33824,0.02653
1413.27807,0.02645
1411.21790,0.02632
1409.15773,0.02604
1407.09756,0.02559
1405.03738,0.02511
1402.97721,0.02497
1400.91704,0.02521
1398.85687,0.02544
1396.79670,0.02557
1394.73652,0.02586
1392.67635,0.02642
1390.61618,0.02707
1388.55601,0.02775
1386.49583,0.02854
1384.43566,0.02948
1382.37549,0.03052
1380.31532,0.03151
1378.25515,0.03238
1376.19497,0.03321
1374.13480,0.03405
1372.07463,0.03476
1370.01446,0.03533
1367.95429,0.03575
1365.89411,0.03592
1363.83394,0.03583
1361.77377,0.03579
1359.71360,0.03599
1357.65343,0.03624
1355.59325,0.03649
1353.53308,0.03686
1351.47291,0.03741
1349.41274,0.03792
1347.35256,0.03822
1345.29239,0.03850
1343.23222,0.03903
1341.17205,0.03967
1339.11188,0.04007
1337.05170,0.04038
1334.99153,0.04100
1332.93136,0.04194
1330.87119,0.04296
1328.81102,0.04376
1326.75084,0.04435
1324.69067,0.04489
1322.63050,0.04540
1320.57033,0.04588
1318.51015,0.04636
1316.44998,0.04656
1314.38981,0.04634
1312.32964,0.04587
1310.26947,0.04527
1308.20929,0.04431
1306.14912,0.04283
1304.08895,0.04089
1302.02878,0.03871
1299.96861,0.03665
1297.90843,0.03481
1295.84826,0.03288
1293.78809,0.03086
1291.72792,0.02920
1289.66775,0.02806
1287.60757,0.02723
1285.54740,0.02667
1283.48723,0.02642
1281.42706,0.02632
1279.36688,0.02626
1277.30671,0.02630
1275.24654,0.02651
1273.18637,0.02691
1271.12620,0.02749
1269.06602,0.02819
1267.00585,0.02896
1264.94568,0.02965
1262.88551,0.03008
1260.82534,0.03046
1258.76516,0.03116
1256.70499,0.03199
1254.64482,0.03261
1252.58465,0.03313
1250.52447,0.03373
1248.46430,0.03443
1246.40413,0.03524
1244.34396,0.03620
1242.28379,0.03710
1240.22361,0.03792
1238.16344,0.03884
1236.10327,0.03967
1234.04310,0.04034
1231.98293,0.04114
1229.92275,0.04225
1227.86258,0.04344
1225.80241,0.04428
1223.74224,0.04483
1221.68207,0.04553
1219.62189,0.04632
1217.56172,0.04695
1215.50155,0.04746
1213.44138,0.04780
1211.38120,0.04828
1209.32103,0.04917
1207.26086,0.05021
1205.20069,0.05119
1203.14052,0.05198
1201.08034,0.05247
1199.02017,0.05291
1196.96000,0.05334
1194.89983,0.05331
1192.83966,0.05268
1190.77948,0.05188
1188.71931,0.05129
1186.65914,0.05088
1184.59897,0.05022
1182.53880,0.04911
1180.47862,0.04799
1178.41845,0.04732
1176.35828,0.04700
1174.29811,0.04679
1172.23793,0.04678
1170.17776,0.04692
1168.11759,0.04679
1166.05742,0.04639
1163.99725,0.04602
1161.93707,0.04547
1159.87690,0.04468
1157.81673,0.04392
1155.75656,0.04324
1153.69639,0.04251
1151.63621,0.04159
1149.57604,0.04048
1147.51587,0.03938
1145.45570,0.03850
1143.39552,0.03761
1141.33535,0.03652
1139.27518,0.03536
1137.21501,0.03435
1135.15484,0.03364
1133.09466,0.03324
1131.03449,0.03317
1128.97432,0.03358
1126.91415,0.03434
1124.85398,0.03536
1122.79380,0.03684
1120.73363,0.03855
1118.67346,0.04006
1116.61329,0.04184
1114.55312,0.04440
1112.49294,0.04734
1110.43277,0.05018
1108.37260,0.05296
1106.31243,0.05562
1104.25225,0.05774
1102.19208,0.05943
1100.13191,0.06109
1098.07174,0.06247
1096.01157,0.06347
1093.95139,0.06462
1091.89122,0.06599
1089.83105,0.06746
1087.77088,0.06950
1085.71071,0.07228
1083.65053,0.07511
1081.59036,0.07767
1079.53019,0.08010
1077.47002,0.08219
1075.40985,0.08405
1073.34967,0.08572
1071.28950,0.08701
1069.22933,0.08823
1067.16916,0.08950
1065.10898,0.09056
1063.04881,0.09156
1060.98864,0.09255
1058.92847,0.09336
1056.86830,0.09418
1054.80812,0.09534
1052.74795,0.09702
1050.68778,0.09890
1048.62761,0.10052
1046.56744,0.10197
1044.50726,0.10346
1042.44709,0.10490
1040.38692,0.10633
1038.32675,0.10792
1036.26657,0.10982
1034.20640,0.11193
1032.14623,0.11408
1030.08606,0.11594
1028.02589,0.11733
1025.96571,0.11843
1023.90554,0.11900
1021.84537,0.11885
1019.78520,0.11846
1017.72503,0.11815
1015.66485,0.11768
1013.60468,0.11709
1011.54451,0.11601
1009.48434,0.11377
1007.42417,0.11104
1005.36399,0.10860
1003.30382,0.10608
1001.24365,0.10305
999.18348,0.09970
997.12330,0.09661
995.06313,0.09397
993.00296,0.09153
990.94279,0.08902
988.88262,0.08614
986.82244,0.08307
984.76227,0.07994
982.70210,0.07638
980.64193,0.07259
978.58176,0.06929
976.52158,0.06644
974.46141,0.06347
972.40124,0.06017
970.34107,0.05723
968.28089,0.05538
966.22072,0.05418
964.16055,0.05252
962.10038,0.05033
960.04021,0.04808
957.98003,0.04586
955.91986,0.04370
953.85969,0.04164
951.79952,0.03949
949.73935,0.03692
947.67917,0.03421
945.61900,0.03214
943.55883,0.03057
941.49866,0.02882
939.43849,0.02717
937.37831,0.02616
935.31814,0.02550
933.25797,0.02475
931.19780,0.02401
929.13762,0.02315
927.07745,0.02198
925.01728,0.02083
922.95711,0.01982
920.89694,0.01892
918.83676,0.01796
916.77659,0.01680
914.71642,0.01573
912.65625,0.01466
910.59608,0.01300
908.53590,0.01098
906.47573,0.00965
904.41556,0.00915
902.35539,0.00898
900.29522,0.00888
898.23504,0.00859
896.17487,0.00834
894.11470,0.00815
892.05453,0.00793
889.99435,0.00804
887.93418,0.00811
885.87401,0.00780
883.81384,0.00777
881.75367,0.00788
879.69349,0.00756
877.63332,0.00703
875.57315,0.00690
873.51298,0.00761
871.45281,0.00856
869.39263,0.00880
867.33246,0.00837
865.27229,0.00765
863.21212,0.00676
861.15194,0.00562
859.09177,0.00420
857.03160,0.00276
854.97143,0.00176
852.91126,0.00121
850.85108,0.00061
848.79091,0.00000
846.73074,-0.00009
844.67057,0.00040
842.61040,0.00090
840.55022,0.00117
838.49005,0.00159
836.42988,0.00269
834.36971,0.00413
832.30954,0.00485
830.24936,0.00385
828.18919,0.00226
826.12902,0.00224
824.06885,0.00309
822.00867,0.00342
819.94850,0.00371
817.88833,0.00401
815.82816,0.00420
813.76799,0.00438
811.70781,0.00354
809.64764,0.00198
807.58747,0.00128
805.52730,0.00151
803.46713,0.00131
801.40695,0.00037
799.34678,0.00000
797.28661,0.00008
795.22644,0.00011
793.16627,-0.00011
791.10609,-0.00058
789.04592,-0.00094
786.98575,-0.00041
784.92558,0.00058
782.86540,0.00129
780.80523,0.00206
778.74506,0.00302
776.68489,0.00347
774.62472,0.00331
772.56454,0.00320
770.50437,0.00341
768.44420,0.00434
766.38403,0.00621
764.32386,0.00854
762.26368,0.01063
760.20351,0.01223
758.14334,0.01376
756.08317,0.01499
754.02299,0.01501
751.96282,0.01412
749.90265,0.01289
747.84248,0.01113
745.78231,0.00943
743.72213,0.00855
741.66196,0.00833
739.60179,0.00805
737.54162,0.00713
735.48145,0.00647
733.42127,0.00710
731.36110,0.00814
729.30093,0.00812
727.24076,0.00750
725.18059,0.00724
723.12041,0.00738
721.06024,0.00815
719.00007,0.00868
716.93990,0.00791
714.87972,0.00689
712.81955,0.00651
710.75938,0.00652
708.69921,0.00689
706.63904,0.00719
704.57886,0.00689
702.51869,0.00632
700.45852,0.00592
698.39835,0.00590
696.33818,0.00575
694.27800,0.00463
692.21783,0.00367
690.15766,0.00435
688.09749,0.00530
686.03731,0.00473
683.97714,0.00359
681.91697,0.00324
679.85680,0.00264
677.79663,0.00150
675.73645,0.00146
673.67628,0.00206
671.61611,0.00209
669.55594,0.00157
667.49577,0.00087
665.43559,0.00156
663.37542,0.00401
661.31525,0.00608
659.25508,0.00611
657.19491,0.00537
655.13473,0.00556
653.07456,0.00651
651.01439,0.00735
648.95422,0.00755
646.89404,0.00698
644.83387,0.00638
642.77370,0.00618
640.71353,0.00557
638.65336,0.00506
636.59318,0.00726
634.53301,0.01190
632.47284,0.01346
630.41267,0.00857
628.35250,0.00183
626.29232,0.00000
624.23215,0.00238
622.17198,0.00622
620.11181,0.00758
618.05164,0.00561
615.99146,0.00525
613.93129,0.00695
611.87112,0.00839
609.81095,0.01038
607.75077,0.01025
605.69060,0.00489
603.63043,-0.00171
601.57026,-0.00338
599.51009,0.00000
