3996.73391,0.00051
3994.67373,0.00129
3992.61356,0.00187
3990.55339,0.00177
3988.49322,0.00139
3986.43305,0.00122
3984.37287,0.00132
3982.31270,0.00148
3980.25253,0.00137
3978.19236,0.00076
3976.13219,0.00020
3974.07201,0.00032
3972.01184,0.00075
3969.95167,0.00101
3967.89150,0.00104
3965.83133,0.00076
3963.77115,0.00026
3961.71098,0.00000
3959.65081,0.00020
3957.59064,0.00077
3955.53046,0.00155
3953.47029,0.00199
3951.41012,0.00164
3949.34995,0.00091
3947.28978,0.00074
3945.22960,0.00086
3943.16943,0.00075
3941.10926,0.00104
3939.04909,0.00151
3936.98892,0.00192
3934.92874,0.00219
3932.86857,0.00203
3930.80840,0.00199
3928.74823,0.00222
3926.68805,0.00177
3924.62788,0.00108
3922.56771,0.00135
3920.50754,0.00171
3918.44737,0.00163
3916.38719,0.00168
3914.32702,0.00195
3912.26685,0.00224
3910.20668,0.00290
3908.14651,0.00351
3906.08633,0.00325
3904.02616,0.00281
3901.96599,0.00269
3899.90582,0.00245
3897.84565,0.00293
3895.78547,0.00335
3893.72530,0.00250
3891.66513,0.00196
3889.60496,0.00281
3887.54478,0.00224
3885.48461,0.00076
3883.42444,0.00048
3881.36427,-0.00009
3879.30410,0.00074
3877.24392,0.00264
3875.18375,0.00307
3873.12358,0.00296
3871.06341,0.00237
3869.00324,0.00267
3866.94306,0.00325
3864.88289,0.00214
3862.82272,0.00181
3860.76255,0.00291
3858.70237,0.00382
3856.64220,0.00278
3854.58203,0.00000
3852.52186,0.00023
3850.46169,0.00316
3848.40151,0.00426
3846.34134,0.00410
3844.28117,0.00433
3842.22100,0.00478
3840.16083,0.00381
3838.10065,0.00273
3836.04048,0.00351
3833.98031,0.00402
3831.92014,0.00353
3829.85997,0.00352
3827.79979,0.00368
3825.73962,0.00387
3823.67945,0.00295
3821.61928,0.00113
3819.55910,0.00189
3817.49893,0.00230
3815.43876,0.00175
3813.37859,0.00229
3811.31842,0.00253
3809.25824,0.00189
3807.19807,0.00160
3805.13790,0.00270
3803.07773,0.00227
3801.01756,0.00179
3798.95738,0.00281
3796.89721,0.00242
3794.83704,0.00206
3792.77687,0.00209
3790.71670,0.00203
3788.65652,0.00214
3786.59635,0.00205
3784.53618,0.00222
3782.47601,0.00261
3780.41583,0.00201
3778.35566,0.00186
3776.29549,0.00262
3774.23532,0.00287
3772.17515,0.00237
3770.11497,0.00206
3768.05480,0.00273
3765.99463,0.00319
3763.93446,0.00366
3761.87429,0.00352
3759.81411,0.00284
3757.75394,0.00348
3755.69377,0.00445
3753.63360,0.00337
3751.57342,0.00142
3749.51325,0.00218
3747.45308,0.00356
3745.39291,0.00255
3743.33274,0.00282
3741.27256,0.00420
3739.21239,0.00399
3737.15222,0.00315
3735.09205,0.00290
3733.03188,0.00258
3730.97170,0.00217
3728.91153,0.00177
3726.85136,0.00093
3724.79119,0.00075
3722.73102,0.00110
3720.67084,0.00124
3718.61067,0.00100
3716.55050,0.00091
3714.49033,0.00064
3712.43015,0.00000
3710.36998,0.00042
3708.30981,0.00155
3706.24964,0.00199
3704.18947,0.00133
3702.12929,0.00065
3700.06912,0.00123
3698.00895,0.00172
3695.94878,0.00185
3693.88861,0.00221
3691.82843,0.00173
3689.76826,0.00088
3687.70809,0.00163
3685.64792,0.00282
3683.58775,0.00292
3681.52757,0.00293
3679.46740,0.00367
3677.40723,0.00389
3675.34706,0.00373
3673.28688,0.00461
3671.22671,0.00337
3669.16654,0.00238
3667.10637,0.00340
3665.04620,0.00362
3662.98602,0.00320
3660.92585,0.00317
3658.86568,0.00306
3656.80551,0.00286
3654.74534,0.00391
3652.68516,0.00416
3650.62499,0.00223
3648.56482,0.00123
3646.50465,0.00270
3644.44447,0.00436
3642.38430,0.00453
3640.32413,0.00416
3638.26396,0.00431
3636.20379,0.00502
3634.14361,0.00610
3632.08344,0.00708
3630.02327,0.00635
3627.96310,0.00597
3625.90293,0.00738
3623.84275,0.00824
3621.78258,0.00772
3619.72241,0.00682
3617.66224,0.00744
3615.60207,0.00840
3613.54189,0.00865
3611.48172,0.00934
3609.42155,0.00950
3607.36138,0.00901
3605.30120,0.00914
3603.24103,0.00956
3601.18086,0.00983
3599.12069,0.01007
3597.06052,0.00989
3595.00034,0.00975
3592.94017,0.01081
3590.88000,0.01201
3588.81983,0.01210
3586.75966,0.01256
3584.69948,0.01376
3582.63931,0.01412
3580.57914,0.01396
3578.51897,0.01385
3576.45879,0.01378
3574.39862,0.01417
3572.33845,0.01528
3570.27828,0.01618
3568.21811,0.01639
3566.15793,0.01709
3564.09776,0.01809
3562.03759,0.01776
3559.97742,0.01672
3557.91725,0.01665
3555.85707,0.01749
3553.79690,0.01813
3551.73673,0.01867
3549.67656,0.01961
3547.61639,0.02028
3545.55621,0.02041
3543.49604,0.02047
3541.43587,0.02090
3539.37570,0.02167
3537.31552,0.02227
3535.25535,0.02249
3533.19518,0.02269
3531.13501,0.02321
3529.07484,0.02394
3527.01466,0.02464
3524.95449,0.02512
3522.89432,0.02532
3520.83415,0.02549
3518.77398,0.02570
3516.71380,0.02605
3514.65363,0.02652
3512.59346,0.02715
3510.53329,0.02788
3508.47312,0.02850
3506.41294,0.02863
3504.35277,0.02830
3502.29260,0.02878
3500.23243,0.03002
3498.17225,0.03053
3496.11208,0.03047
3494.05191,0.03109
3491.99174,0.03244
3489.93157,0.03355
3487.87139,0.03396
3485.81122,0.03403
3483.75105,0.03386
3481.69088,0.03354
3479.63071,0.03358
3477.57053,0.03389
3475.51036,0.03441
3473.45019,0.03537
3471.39002,0.03647
3469.32984,0.03719
3467.26967,0.03761
3465.20950,0.03783
3463.14933,0.03781
3461.08916,0.03795
3459.02898,0.03836
3456.96881,0.03860
3454.90864,0.03871
3452.84847,0.03914
3450.78830,0.03986
3448.72812,0.04027
3446.66795,0.04066
3444.60778,0.04133
3442.54761,0.04173
3440.48744,0.04216
3438.42726,0.04280
3436.36709,0.04312
3434.30692,0.04292
3432.24675,0.04278
3430.18657,0.04323
3428.12640,0.04396
3426.06623,0.04454
3424.00606,0.04492
3421.94589,0.04502
3419.88571,0.04526
3417.82554,0.04594
3415.76537,0.04670
3413.70520,0.04743
3411.64503,0.04806
3409.58485,0.04844
3407.52468,0.04853
3405.46451,0.04844
3403.40434,0.04857
3401.34416,0.04891
3399.28399,0.04916
3397.22382,0.04959
3395.16365,0.05022
3393.10348,0.05083
3391.04330,0.05146
3388.98313,0.05169
3386.92296,0.05136
3384.86279,0.05087
3382.80262,0.05070
3380.74244,0.05100
3378.68227,0.05153
3376.62210,0.05215
3374.56193,0.05281
3372.50176,0.05359
3370.44158,0.05418
3368.38141,0.05407
3366.32124,0.05376
3364.26107,0.05401
3362.20089,0.05443
3360.14072,0.05469
3358.08055,0.05493
3356.02038,0.05518
3353.96021,0.05555
3351.90003,0.05595
3349.83986,0.05602
3347.77969,0.05573
3345.71952,0.05561
3343.65935,0.05576
3341.59917,0.05585
3339.53900,0.05596
3337.47883,0.05609
3335.41866,0.05634
3333.35849,0.05675
3331.29831,0.05679
3329.23814,0.05626
3327.17797,0.05586
3325.11780,0.05633
3323.05762,0.05734
3320.99745,0.05772
3318.93728,0.05766
3316.87711,0.05777
3314.81694,0.05763
3312.75676,0.05728
3310.69659,0.05731
3308.63642,0.05776
3306.57625,0.05822
3304.51608,0.05811
3302.45590,0.05759
3300.39573,0.05753
3298.33556,0.05808
3296.27539,0.05861
3294.21521,0.05864
3292.15504,0.05837
3290.09487,0.05825
3288.03470,0.05828
3285.97453,0.05833
3283.91435,0.05843
3281.85418,0.05858
3279.79401,0.05883
3277.73384,0.05899
3275.67367,0.05893
3273.61349,0.05874
3271.55332,0.05849
3269.49315,0.05827
3267.43298,0.05809
3265.37281,0.05788
3263.31263,0.05789
3261.25246,0.05812
3259.19229,0.05804
3257.13212,0.05777
3255.07194,0.05774
3253.01177,0.05774
3250.95160,0.05746
3248.89143,0.05696
3246.83126,0.05660
3244.77108,0.05657
3242.71091,0.05656
3240.65074,0.05629
3238.59057,0.05615
3236.53040,0.05645
3234.47022,0.05648
3232.41005,0.05585
3230.34988,0.05544
3228.28971,0.05562
3226.22954,0.05570
3224.16936,0.05552
3222.10919,0.05559
3220.04902,0.05564
3217.98885,0.05523
3215.92867,0.05475
3213.86850,0.05450
3211.80833,0.05424
3209.74816,0.05412
3207.68799,0.05451
3205.62781,0.05480
3203.56764,0.05449
3201.50747,0.05384
3199.44730,0.05322
3197.38713,0.05287
3195.32695,0.05275
3193.26678,0.05240
3191.20661,0.05183
3189.14644,0.05159
3187.08626,0.05172
3185.02609,0.05163
3182.96592,0.05126
3180.90575,0.05098
3178.84558,0.05078
3176.78540,0.05064
3174.72523,0.05063
3172.66506,0.05054
3170.60489,0.05028
3168.54472,0.05008
3166.48454,0.04990
3164.42437,0.04957
3162.36420,0.04918
3160.30403,0.04890
3158.24386,0.04863
3156.18368,0.04841
3154.12351,0.04843
3152.06334,0.04834
3150.00317,0.04779
3147.94299,0.04723
3145.88282,0.04699
3143.82265,0.04693
3141.76248,0.04677
3139.70231,0.04634
3137.64213,0.04592
3135.58196,0.04581
3133.52179,0.04583
3131.46162,0.04576
3129.40145,0.04534
3127.34127,0.04479
3125.28110,0.04440
3123.22093,0.04409
3121.16076,0.04373
3119.10058,0.04320
3117.04041,0.04273
3114.98024,0.04261
3112.92007,0.04262
3110.85990,0.04249
3108.79972,0.04228
3106.73955,0.04226
3104.67938,0.04242
3102.61921,0.04247
3100.55904,0.04232
3098.49886,0.04188
3096.43869,0.04131
3094.37852,0.04102
3092.31835,0.04087
3090.25818,0.04070
3088.19800,0.04055
3086.13783,0.04043
3084.07766,0.04048
3082.01749,0.04040
3079.95731,0.03978
3077.89714,0.03901
3075.83697,0.03859
3073.77680,0.03846
3071.71663,0.03852
3069.65645,0.03852
3067.59628,0.03810
3065.53611,0.03756
3063.47594,0.03746
3061.41577,0.03758
3059.35559,0.03768
3057.29542,0.03767
3055.23525,0.03748
3053.17508,0.03719
3051.11491,0.03687
3049.05473,0.03662
3046.99456,0.03638
3044.93439,0.03617
3042.87422,0.03610
3040.81404,0.03601
3038.75387,0.03554
3036.69370,0.03479
3034.63353,0.03435
3032.57336,0.03425
3030.51318,0.03401
3028.45301,0.03358
3026.39284,0.03330
3024.33267,0.03322
3022.27250,0.03316
3020.21232,0.03298
3018.15215,0.03268
3016.09198,0.03228
3014.03181,0.03194
3011.97163,0.03171
3009.91146,0.03149
3007.85129,0.03130
3005.79112,0.03111
3003.73095,0.03083
3001.67077,0.03066
2999.61060,0.03090
2997.55043,0.03123
2995.49026,0.03113
2993.43009,0.03079
2991.36991,0.03070
2989.30974,0.03084
2987.24957,0.03101
2985.18940,0.03127
2983.12923,0.03157
2981.06905,0.03194
2979.00888,0.03223
2976.94871,0.03239
2974.88854,0.03292
2972.82836,0.03365
2970.76819,0.03407
2968.70802,0.03456
2966.64785,0.03544
2964.58768,0.03655
2962.52750,0.03773
2960.46733,0.03877
2958.40716,0.03974
2956.34699,0.04077
2954.28682,0.04166
2952.22664,0.04249
2950.16647,0.04354
2948.10630,0.04480
2946.04613,0.04625
2943.98596,0.04789
2941.92578,0.04964
2939.86561,0.05127
2937.80544,0.05269
2935.74527,0.05453
2933.68509,0.05707
2931.62492,0.05974
2929.56475,0.06236
2927.50458,0.06484
2925.44441,0.06672
2923.38423,0.06799
2921.32406,0.06924
2919.26389,0.07048
2917.20372,0.07072
2915.14355,0.06890
2913.08337,0.06539
2911.02320,0.06159
2908.96303,0.05857
2906.90286,0.05631
2904.84268,0.05436
2902.78251,0.05276
2900.72234,0.05165
2898.66217,0.05061
2896.60200,0.04933
2894.54182,0.04813
2892.48165,0.04725
2890.42148,0.04653
2888.36131,0.04588
2886.30114,0.04509
2884.24096,0.04409
2882.18079,0.04307
2880.12062,0.04220
2878.06045,0.04152
2876.00028,0.04120
2873.94010,0.04124
2871.87993,0.04145
2869.81976,0.04186
2867.75959,0.04252
2865.69941,0.04337
2863.63924,0.04451
2861.57907,0.04597
2859.51890,0.04766
2857.45873,0.04951
2855.39855,0.05173
2853.33838,0.05422
2851.27821,0.05618
2849.21804,0.05626
2847.15787,0.05350
2845.09769,0.04895
2843.03752,0.04465
2840.97735,0.04135
2838.91718,0.03884
2836.85700,0.03699
2834.79683,0.03550
2832.73666,0.03422
2830.67649,0.03328
2828.61632,0.03255
2826.55614,0.03187
2824.49597,0.03130
2822.43580,0.03098
2820.37563,0.03079
2818.31546,0.03047
2816.25528,0.02994
2814.19511,0.02932
2812.13494,0.02882
2810.07477,0.02844
2808.01460,0.02817
2805.95442,0.02779
2803.89425,0.02727
2801.83408,0.02693
2799.77391,0.02687
2797.71373,0.02683
2795.65356,0.02670
2793.59339,0.02645
2791.53322,0.02607
2789.47305,0.02573
2787.41287,0.02555
2785.35270,0.02550
2783.29253,0.02544
2781.23236,0.02531
2779.17219,0.02517
2777.11201,0.02494
2775.05184,0.02468
2772.99167,0.02452
2770.93150,0.02453
2768.87133,0.02469
2766.81115,0.02457
2764.75098,0.02413
2762.69081,0.02393
2760.63064,0.02394
2758.57046,0.02391
2756.51029,0.02393
2754.45012,0.02398
2752.38995,0.02396
2750.32978,0.02385
2748.26960,0.02360
2746.20943,0.02329
2744.14926,0.02314
2742.08909,0.02321
2740.02892,0.02335
2737.96874,0.02340
2735.90857,0.02348
2733.84840,0.02365
2731.78823,0.02357
2729.72805,0.02314
2727.66788,0.02286
2725.60771,0.02288
2723.54754,0.02286
2721.48737,0.02274
2719.42719,0.02272
2717.36702,0.02291
2715.30685,0.02309
2713.24668,0.02294
2711.18651,0.02278
2709.12633,0.02281
2707.06616,0.02266
2705.00599,0.02237
2702.94582,0.02219
2700.88565,0.02208
2698.82547,0.02191
2696.76530,0.02171
2694.70513,0.02159
2692.64496,0.02153
2690.58478,0.02140
2688.52461,0.02125
2686.46444,0.02121
2684.40427,0.02111
2682.34410,0.02095
2680.28392,0.02100
2678.22375,0.02118
2676.16358,0.02109
2674.10341,0.02060
2672.04324,0.02022
2669.98306,0.02025
2667.92289,0.02020
2665.86272,0.02008
2663.80255,0.02029
2661.74238,0.02051
2659.68220,0.02051
2657.62203,0.02063
2655.56186,0.02072
2653.50169,0.02030
2651.44151,0.01974
2649.38134,0.01970
2647.32117,0.01985
2645.26100,0.01946
2643.20083,0.01881
2641.14065,0.01868
2639.08048,0.01897
2637.02031,0.01896
2634.96014,0.01849
2632.89997,0.01810
2630.83979,0.01806
2628.77962,0.01825
2626.71945,0.01840
2624.65928,0.01842
2622.59910,0.01850
2620.53893,0.01843
2618.47876,0.01799
2616.41859,0.01758
2614.35842,0.01729
2612.29824,0.01713
2610.23807,0.01719
2608.17790,0.01725
2606.11773,0.01701
2604.05756,0.01656
2601.99738,0.01632
2599.93721,0.01661
2597.87704,0.01703
2595.81687,0.01698
2593.75670,0.01671
2591.69652,0.01676
2589.63635,0.01707
2587.57618,0.01717
2585.51601,0.01688
2583.45583,0.01654
2581.39566,0.01644
2579.33549,0.01642
2577.27532,0.01623
2575.21515,0.01588
2573.15497,0.01551
2571.09480,0.01546
2569.03463,0.01585
2566.97446,0.01596
2564.91429,0.01544
2562.85411,0.01487
2560.79394,0.01476
2558.73377,0.01483
2556.67360,0.01487
2554.61342,0.01502
2552.55325,0.01517
2550.49308,0.01510
2548.43291,0.01469
2546.37274,0.01406
2544.31256,0.01371
2542.25239,0.01396
2540.19222,0.01410
2538.13205,0.01369
2536.07188,0.01338
2534.01170,0.01355
2531.95153,0.01414
2529.89136,0.01492
2527.83119,0.01512
2525.77102,0.01476
2523.71084,0.01446
2521.65067,0.01398
2519.59050,0.01329
2517.53033,0.01282
2515.47015,0.01267
2513.40998,0.01295
2511.34981,0.01328
2509.28964,0.01319
2507.22947,0.01263
2505.16929,0.01199
2503.10912,0.01183
2501.04895,0.01228
2498.98878,0.01272
2496.92861,0.01272
2494.86843,0.01281
2492.80826,0.01298
2490.74809,0.01265
2488.68792,0.01213
2486.62775,0.01198
2484.56757,0.01189
2482.50740,0.01147
2480.44723,0.01111
2478.38706,0.01122
2476.32688,0.01137
2474.26671,0.01126
2472.20654,0.01123
2470.14637,0.01111
2468.08620,0.01084
2466.02602,0.01091
2463.96585,0.01108
2461.90568,0.01101
2459.84551,0.01104
2457.78534,0.01130
2455.72516,0.01153
2453.66499,0.01154
2451.60482,0.01125
2449.54465,0.01085
2447.48447,0.01066
2445.42430,0.01059
2443.36413,0.01056
2441.30396,0.01070
2439.24379,0.01090
2437.18361,0.01105
2435.12344,0.01105
2433.06327,0.01085
2431.00310,0.01071
2428.94293,0.01040
2426.88275,0.01009
2424.82258,0.01044
2422.76241,0.01093
2420.70224,0.01099
2418.64207,0.01101
2416.58189,0.01075
2414.52172,0.01014
2412.46155,0.00994
2410.40138,0.00986
2408.34120,0.00947
2406.28103,0.00929
2404.22086,0.00942
2402.16069,0.00938
2400.10052,0.00925
2398.04034,0.00938
2395.98017,0.00952
2393.92000,0.00952
2391.85983,0.00958
2389.79966,0.00955
2387.73948,0.00918
2385.67931,0.00871
2383.61914,0.00872
2381.55897,0.00921
2379.49880,0.00960
2377.43862,0.00953
2375.37845,0.00914
2373.31828,0.00865
2371.25811,0.00842
2369.19793,0.00886
2367.13776,0.00950
2365.07759,0.00904
2363.01742,0.00732
2360.95725,0.00585
2358.89707,0.00641
2356.83690,0.00836
2354.77673,0.00921
2352.71656,0.00876
2350.65639,0.00845
2348.59621,0.00844
2346.53604,0.00805
2344.47587,0.00736
2342.41570,0.00713
2340.35552,0.00751
2338.29535,0.00784
2336.23518,0.00758
2334.17501,0.00717
2332.11484,0.00741
2330.05466,0.00824
2327.99449,0.00901
2325.93432,0.00933
2323.87415,0.00904
2321.81398,0.00839
2319.75380,0.00797
2317.69363,0.00789
2315.63346,0.00744
2313.57329,0.00664
2311.51312,0.00667
2309.45294,0.00763
2307.39277,0.00827
2305.33260,0.00825
2303.27243,0.00821
2301.21225,0.00835
2299.15208,0.00836
2297.09191,0.00820
2295.03174,0.00816
2292.97157,0.00831
2290.91139,0.00819
2288.85122,0.00768
2286.79105,0.00732
2284.73088,0.00750
2282.67071,0.00771
2280.61053,0.00727
2278.55036,0.00642
2276.49019,0.00575
2274.43002,0.00542
2272.36984,0.00589
2270.30967,0.00692
2268.24950,0.00701
2266.18933,0.00616
2264.12916,0.00600
2262.06898,0.00716
2260.00881,0.00803
2257.94864,0.00719
2255.88847,0.00548
2253.82830,0.00431
2251.76812,0.00444
2249.70795,0.00568
2247.64778,0.00697
2245.58761,0.00720
2243.52744,0.00680
2241.46726,0.00650
2239.40709,0.00592
2237.34692,0.00532
2235.28675,0.00545
2233.22657,0.00566
2231.16640,0.00540
2229.10623,0.00550
2227.04606,0.00572
2224.98589,0.00533
2222.92571,0.00509
2220.86554,0.00560
2218.80537,0.00618
2216.74520,0.00633
2214.68503,0.00535
2212.62485,0.00313
2210.56468,0.00193
2208.50451,0.00290
2206.44434,0.00409
2204.38417,0.00437
2202.32399,0.00436
2200.26382,0.00519
2198.20365,0.00646
2196.14348,0.00602
2194.08330,0.00511
2192.02313,0.00530
2189.96296,0.00516
2187.90279,0.00441
2185.84262,0.00374
2183.78244,0.00409
2181.72227,0.00515
2179.66210,0.00472
2177.60193,0.00342
2175.54176,0.00310
2173.48158,0.00305
2171.42141,0.00276
2169.36124,0.00341
2167.30107,0.00496
2165.24089,0.00583
2163.18072,0.00577
2161.12055,0.00385
2159.06038,0.00067
2157.00021,0.00071
2154.94003,0.00212
2152.87986,0.00147
2150.81969,0.00087
2148.75952,0.00141
2146.69935,0.00250
2144.63917,0.00405
2142.57900,0.00469
2140.51883,0.00409
2138.45866,0.00280
2136.39849,0.00169
2134.33831,0.00206
2132.27814,0.00294
2130.21797,0.00299
2128.15780,0.00281
2126.09762,0.00328
2124.03745,0.00409
2121.97728,0.00452
2119.91711,0.00445
2117.85694,0.00432
2115.79676,0.00417
2113.73659,0.00425
2111.67642,0.00502
2109.61625,0.00582
2107.55608,0.00588
2105.49590,0.00514
2103.43573,0.00414
2101.37556,0.00312
2099.31539,0.00285
2097.25521,0.00407
2095.19504,0.00523
2093.13487,0.00470
2091.07470,0.00329
2089.01453,0.00285
2086.95435,0.00393
2084.89418,0.00531
2082.83401,0.00580
2080.77384,0.00531
2078.71367,0.00480
2076.65349,0.00512
2074.59332,0.00525
2072.53315,0.00419
2070.47298,0.00295
2068.41281,0.00264
2066.35263,0.00336
2064.29246,0.00420
2062.23229,0.00483
2060.17212,0.00539
2058.11194,0.00510
2056.05177,0.00449
2053.99160,0.00410
2051.93143,0.00308
2049.87126,0.00158
2047.81108,0.00033
2045.75091,0.00056
2043.69074,0.00264
2041.63057,0.00438
2039.57040,0.00487
2037.51022,0.00445
2035.45005,0.00311
2033.38988,0.00227
2031.32971,0.00260
2029.26954,0.00313
2027.20936,0.00326
2025.14919,0.00340
2023.08902,0.00406
2021.02885,0.00401
2018.96867,0.00273
2016.90850,0.00216
2014.84833,0.00244
2012.78816,0.00234
2010.72799,0.00186
2008.66781,0.00070
2006.60764,0.00000
2004.54747,0.00089
2002.48730,0.00159
2000.42713,0.00132
1998.36695,0.00124
1996.30678,0.00160
1994.24661,0.00228
1992.18644,0.00385
1990.12626,0.00549
1988.06609,0.00556
1986.00592,0.00446
1983.94575,0.00255
1981.88558,0.00068
1979.82540,0.00000
1977.76523,0.00023
1975.70506,0.00058
1973.64489,0.00085
1971.58472,0.00129
1969.52454,0.00151
1967.46437,0.00146
1965.40420,0.00281
1963.34403,0.00450
1961.28386,0.00348
1959.22368,0.00111
1957.16351,0.00043
1955.10334,0.00119
1953.04317,0.00211
1950.98299,0.00263
1948.92282,0.00290
1946.86265,0.00295
1944.80248,0.00209
1942.74231,0.00111
1940.68213,0.00164
1938.62196,0.00209
1936.56179,0.00134
1934.50162,0.00068
1932.44145,0.00129
1930.38127,0.00243
1928.32110,0.00259
1926.26093,0.00212
1924.20076,0.00152
1922.14059,0.00134
1920.08041,0.00172
1918.02024,0.00198
1915.96007,0.00229
1913.89990,0.00240
1911.83972,0.00219
1909.77955,0.00159
1907.71938,0.00129
1905.65921,0.00163
1903.59904,0.00149
1901.53886,0.00051
1899.47869,0.00000
1897.41852,0.00046
1895.35835,0.00097
1893.29818,0.00130
1891.23800,0.00154
1889.17783,0.00201
1887.11766,0.00231
1885.05749,0.00174
1882.99731,0.00118
1880.93714,0.00105
1878.87697,0.00099
1876.81680,0.00118
1874.75663,0.00186
1872.69645,0.00239
1870.63628,0.00174
1868.57611,0.00092
1866.51594,0.00137
1864.45577,0.00179
1862.39559,0.00132
1860.33542,0.00075
1858.27525,0.00092
1856.21508,0.00158
1854.15491,0.00195
1852.09473,0.00191
1850.03456,0.00177
1847.97439,0.00174
1845.91422,0.00122
1843.85404,0.00045
1841.79387,0.00060
1839.73370,0.00051
1837.67353,0.00000
1835.61336,0.00011
1833.55318,0.00077
1831.49301,0.00083
1829.43284,0.00068
1827.37267,0.00087
1825.31250,0.00046
1823.25232,0.00028
1821.19215,0.00027
1819.13198,0.00001
1817.07181,-0.00001
1815.01163,0.00024
1812.95146,0.00021
1810.89129,0.00009
1808.83112,0.00024
1806.77095,0.00019
1804.71077,-0.00006
1802.65060,-0.00026
1800.59043,-0.00015
1798.53026,0.00032
1796.47009,0.00060
1794.40991,0.00006
1792.34974,-0.00060
1790.28957,0.00036
1788.22940,0.00131
1786.16923,0.00102
1784.10905,0.00072
1782.04888,0.00037
1779.98871,0.00000
1777.92854,0.00040
1775.86836,0.00073
1773.80819,0.00013
1771.74802,-0.00001
1769.68785,0.00103
1767.62768,0.00178
1765.56750,0.00237
1763.50733,0.00230
1761.44716,0.00259
1759.38699,0.00379
1757.32682,0.00456
1755.26664,0.00606
1753.20647,0.00759
1751.14630,0.00869
1749.08613,0.01117
1747.02596,0.01442
1744.96578,0.01717
1742.90561,0.01992
1740.84544,0.02326
1738.78527,0.02779
1736.72509,0.03159
1734.66492,0.03317
1732.60475,0.03597
1730.54458,0.03834
1728.48441,0.03888
1726.42423,0.03880
1724.36406,0.03850
1722.30389,0.03888
1720.24372,0.03886
1718.18355,0.03760
1716.12337,0.03737
1714.06320,0.03791
1712.00303,0.03828
1709.94286,0.03833
1707.88268,0.03758
1705.82251,0.03669
1703.76234,0.03703
1701.70217,0.03618
1699.64200,0.03467
1697.58182,0.03364
1695.52165,0.03207
1693.46148,0.03222
1691.40131,0.03209
1689.34114,0.03182
1687.28096,0.03174
1685.22079,0.02967
1683.16062,0.02898
1681.10045,0.03092
1679.04028,0.03196
1676.98010,0.03152
1674.91993,0.03157
1672.85976,0.03300
1670.79959,0.03286
1668.73941,0.03309
1666.67924,0.03521
1664.61907,0.03595
1662.55890,0.03616
1660.49873,0.03858
1658.43855,0.04151
1656.37838,0.04253
1654.31821,0.04134
1652.25804,0.04316
1650.19787,0.04681
1648.13769,0.04597
1646.07752,0.04453
1644.01735,0.04567
1641.95718,0.04668
1639.89701,0.04730
1637.83683,0.04708
1635.77666,0.04646
1633.71649,0.04813
1631.65632,0.04959
1629.59614,0.04963
1627.53597,0.05042
1625.47580,0.05168
1623.41563,0.05232
1621.35546,0.05396
1619.29528,0.05464
1617.23511,0.05345
1615.17494,0.05418
1613.11477,0.05604
1611.05460,0.05673
1608.99442,0.05703
1606.93425,0.05755
1604.87408,0.05766
1602.81391,0.05703
1600.75373,0.05617
1598.69356,0.05515
1596.63339,0.05372
1594.57322,0.05225
1592.51305,0.05101
1590.45287,0.04938
1588.39270,0.04720
1586.33253,0.04490
1584.27236,0.04290
1582.21219,0.04155
1580.15201,0.04056
1578.09184,0.03817
1576.03167,0.03540
1573.97150,0.03548
1571.91133,0.03483
1569.85115,0.03219
1567.79098,0.03115
1565.73081,0.03098
1563.67064,0.03119
1561.61046,0.03015
1559.55029,0.02677
1557.49012,0.02740
1555.42995,0.02919
1553.36978,0.02923
1551.30960,0.02880
1549.24943,0.02897
1547.18926,0.02999
1545.12909,0.03072
1543.06892,0.03090
1541.00874,0.02946
1538.94857,0.02963
1536.88840,0.03164
1534.82823,0.03033
1532.76805,0.02824
1530.70788,0.02828
1528.64771,0.02762
1526.58754,0.02658
1524.52737,0.02608
1522.46719,0.02469
1520.40702,0.02451
1518.34685,0.02524
1516.28668,0.02526
1514.22651,0.02572
1512.16633,0.02589
1510.10616,0.02482
1508.04599,0.02107
1505.98582,0.01827
1503.92565,0.01899
1501.86547,0.01853
1499.80530,0.01595
1497.74513,0.01306
1495.68496,0.01204
1493.62478,0.01225
1491.56461,0.01065
1489.50444,0.00821
1487.44427,0.00741
1485.38410,0.00735
1483.32392,0.00693
1481.26375,0.00680
1479.20358,0.00775
1477.14341,0.00912
1475.08324,0.01061
1473.02306,0.01264
1470.96289,0.01665
1468.90272,0.02043
1466.84255,0.02182
1464.78238,0.02314
1462.72220,0.02610
1460.66203,0.02764
1458.60186,0.02682
1456.54169,0.02823
1454.48151,0.03253
1452.42134,0.03485
1450.36117,0.03516
1448.30100,0.03526
1446.24083,0.03627
1444.18065,0.03746
1442.12048,0.03806
1440.06031,0.03792
1438.00014,0.03600
1435.93997,0.03388
1433.87979,0.03318
1431.81962,0.03163
1429.75945,0.02961
1427.69928,0.02871
1425.63910,0.02812
1423.57893,0.02795
1421.51876,0.02787
1419.45859,0.02678
1417.39842,0.02663
1415.33824,0.02697
1413.27807,0.02652
1411.21790,0.02606
1409.15773,0.02616
1407.09756,0.02604
1405.03738,0.02574
1402.97721,0.02620
1400.91704,0.02634
1398.85687,0.02615
1396.79670,0.02648
1394.73652,0.02682
1392.67635,0.02757
1390.61618,0.02814
1388.55601,0.02813
1386.49583,0.02887
1384.43566,0.03039
1382.37549,0.03165
1380.31532,0.03293
1378.25515,0.03429
1376.19497,0.03501
1374.13480,0.03545
1372.07463,0.03660
1370.01446,0.03744
1367.95429,0.03776
1365.89411,0.03795
1363.83394,0.03766
1361.77377,0.03783
1359.71360,0.03872
1357.65343,0.03924
1355.59325,0.03927
1353.53308,0.03931
1351.47291,0.03944
1349.41274,0.03969
1347.35256,0.04025
1345.29239,0.04100
1343.23222,0.04156
1341.17205,0.04165
1339.11188,0.04184
1337.05170,0.04276
1334.99153,0.04386
1332.93136,0.04478
1330.87119,0.04553
1328.81102,0.04627
1326.75084,0.04716
1324.69067,0.04820
1322.63050,0.04922
1320.57033,0.04984
1318.51015,0.05015
1316.44998,0.05037
1314.38981,0.05018
1312.32964,0.04962
1310.26947,0.04887
1308.20929,0.04771
1306.14912,0.04611
1304.08895,0.04418
1302.02878,0.04209
1299.96861,0.03987
1297.90843,0.03742
1295.84826,0.03497
1293.78809,0.03303
1291.72792,0.03173
1289.66775,0.03066
1287.60757,0.02964
1285.54740,0.02880
1283.48723,0.02816
1281.42706,0.02775
1279.36688,0.02759
1277.30671,0.02765
1275.24654,0.02789
1273.18637,0.02813
1271.12620,0.02838
1269.06602,0.02888
1267.00585,0.02957
1264.94568,0.03012
1262.88551,0.03053
1260.82534,0.03119
1258.76516,0.03205
1256.70499,0.03259
1254.64482,0.03300
1252.58465,0.03377
1250.52447,0.03480
1248.46430,0.03582
1246.40413,0.03682
1244.34396,0.03778
1242.28379,0.03855
1240.22361,0.03941
1238.16344,0.04055
1236.10327,0.04158
1234.04310,0.04241
1231.98293,0.04325
1229.92275,0.04413
1227.86258,0.04509
1225.80241,0.04596
1223.74224,0.04674
1221.68207,0.04757
1219.62189,0.04862
1217.56172,0.04979
1215.50155,0.05070
1213.44138,0.05140
1211.38120,0.05222
1209.32103,0.05321
1207.26086,0.05426
1205.20069,0.05525
1203.14052,0.05627
1201.08034,0.05719
1199.02017,0.05787
1196.96000,0.05841
1194.89983,0.05866
1192.83966,0.05843
1190.77948,0.05777
1188.71931,0.05692
1186.65914,0.05593
1184.59897,0.05476
1182.53880,0.05362
1180.47862,0.05284
1178.41845,0.05254
1176.35828,0.05219
1174.29811,0.05173
1172.23793,0.05167
1170.17776,0.05189
1168.11759,0.05171
1166.05742,0.05108
1163.99725,0.05062
1161.93707,0.05013
1159.87690,0.04912
1157.81673,0.04797
1155.75656,0.04700
1153.69639,0.04584
1151.63621,0.04438
1149.57604,0.04299
1147.51587,0.04187
1145.45570,0.04071
1143.39552,0.03952
1141.33535,0.03846
1139.27518,0.03726
1137.21501,0.03607
1135.15484,0.03511
1133.09466,0.03449
1131.03449,0.03454
1128.97432,0.03510
1126.91415,0.03599
1124.85398,0.03717
1122.79380,0.03838
1120.73363,0.03994
1118.67346,0.04203
1116.61329,0.04428
1114.55312,0.04674
1112.49294,0.04956
1110.43277,0.05244
1108.37260,0.05520
1106.31243,0.05791
1104.25225,0.06052
1102.19208,0.06298
1100.13191,0.06519
1098.07174,0.06697
1096.01157,0.06833
1093.95139,0.06950
1091.89122,0.07086
1089.83105,0.07244
1087.77088,0.07427
1085.71071,0.07649
1083.65053,0.07889
1081.59036,0.08110
1079.53019,0.08325
1077.47002,0.08564
1075.40985,0.08773
1073.34967,0.08899
1071.28950,0.09003
1069.22933,0.09138
1067.16916,0.09240
1065.10898,0.09325
1063.04881,0.09439
1060.98864,0.09534
1058.92847,0.09593
1056.86830,0.09641
1054.80812,0.09715
1052.74795,0.09835
1050.68778,0.09994
1048.62761,0.10187
1046.56744,0.10382
1044.50726,0.10563
1042.44709,0.10768
1040.38692,0.11029
1038.32675,0.11299
1036.26657,0.11523
1034.20640,0.11717
1032.14623,0.11899
1030.08606,0.12076
1028.02589,0.12231
1025.96571,0.12328
1023.90554,0.12374
1021.84537,0.12400
1019.78520,0.12397
1017.72503,0.12342
1015.66485,0.12239
1013.60468,0.12105
1011.54451,0.11954
1009.48434,0.11771
1007.42417,0.11537
1005.36399,0.11277
1003.30382,0.11030
1001.24365,0.10752
999.18348,0.10425
997.12330,0.10097
995.06313,0.09782
993.00296,0.09490
990.94279,0.09216
988.88262,0.08919
986.82244,0.08575
984.76227,0.08199
982.70210,0.07833
980.64193,0.07476
978.58176,0.07118
976.52158,0.06794
974.46141,0.06512
972.40124,0.06245
970.34107,0.06005
968.28089,0.05794
966.22072,0.05598
964.16055,0.05411
962.10038,0.05222
960.04021,0.05045
957.98003,0.04866
955.91986,0.04643
953.85969,0.04390
951.79952,0.04134
949.73935,0.03886
947.67917,0.03675
945.61900,0.03460
943.55883,0.03214
941.49866,0.03010
939.43849,0.02866
937.37831,0.02751
935.31814,0.02645
933.25797,0.02549
931.19780,0.02465
929.13762,0.02365
927.07745,0.02243
925.01728,0.02125
922.95711,0.02035
920.89694,0.01977
918.83676,0.01892
916.77659,0.01721
914.71642,0.01528
912.65625,0.01405
910.59608,0.01315
908.53590,0.01212
906.47573,0.01095
904.41556,0.00966
902.35539,0.00893
900.29522,0.00903
898.23504,0.00924
896.17487,0.00911
894.11470,0.00900
892.05453,0.00902
889.99435,0.00862
887.93418,0.00798
885.87401,0.00760
883.81384,0.00749
881.75367,0.00765
879.69349,0.00814
877.63332,0.00878
875.57315,0.00934
873.51298,0.00977
871.45281,0.00981
869.39263,0.00913
867.33246,0.00788
865.27229,0.00690
863.21212,0.00637
861.15194,0.00552
859.09177,0.00413
857.03160,0.00273
854.97143,0.00171
852.91126,0.00096
850.85108,0.00025
848.79091,0.00000
846.73074,0.00035
844.67057,0.00064
842.61040,0.00081
840.55022,0.00147
838.49005,0.00205
836.42988,0.00229
834.36971,0.00276
832.30954,0.00285
830.24936,0.00221
828.18919,0.00219
826.12902,0.00290
824.06885,0.00328
822.00867,0.00314
819.94850,0.00299
817.88833,0.00288
815.82816,0.00225
813.76799,0.00145
811.70781,0.00105
809.64764,0.00109
807.58747,0.00126
805.52730,0.00106
803.46713,0.00069
801.40695,0.00033
799.34678,0.00000
797.28661,-0.00011
795.22644,0.00031
793.16627,0.00013
791.10609,-0.00092
789.04592,-0.00183
786.98575,-0.00151
784.92558,-0.00028
782.86540,0.00072
780.80523,0.00092
778.74506,0.00050
776.68489,0.00020
774.62472,0.00024
772.56454,0.00106
770.50437,0.00304
768.44420,0.00482
766.38403,0.00605
764.32386,0.00798
762.26368,0.01050
760.20351,0.01300
758.14334,0.01507
756.08317,0.01584
754.02299,0.01535
751.96282,0.01410
749.90265,0.01207
747.84248,0.01011
745.78231,0.00902
743.72213,0.00853
741.66196,0.00819
739.60179,0.00741
737.54162,0.00635
735.48145,0.00512
733.42127,0.00415
731.36110,0.00406
729.30093,0.00390
727.24076,0.00370
725.18059,0.00433
723.12041,0.00472
721.06024,0.00448
719.00007,0.00425
716.93990,0.00384
714.87972,0.00291
712.81955,0.00215
710.75938,0.00181
708.69921,0.00138
706.63904,0.00143
704.57886,0.00212
702.51869,0.00268
700.45852,0.00326
698.39835,0.00371
696.33818,0.00362
694.27800,0.00317
692.21783,0.00233
690.15766,0.00126
688.09749,0.00019
686.03731,-0.00081
683.97714,-0.00130
681.91697,-0.00124
679.85680,-0.00040
677.79663,0.00169
675.73645,0.00399
673.67628,0.00518
671.61611,0.00549
669.55594,0.00532
667.49577,0.00426
665.43559,0.00362
663.37542,0.00427
661.31525,0.00461
659.25508,0.00434
657.19491,0.00425
655.13473,0.00363
653.07456,0.00199
651.01439,0.00037
648.95422,0.00000
646.89404,0.00080
644.83387,0.00290
642.77370,0.00481
640.71353,0.00425
638.65336,0.00157
636.59318,-0.00094
634.53301,-0.00240
632.47284,-0.00260
630.41267,-0.00080
628.35250,0.00257
626.29232,0.00543
624.23215,0.00572
622.17198,0.00423
620.11181,0.00422
618.05164,0.00515
615.99146,0.00407
613.93129,0.00162
611.87112,0.00127
609.81095,0.00252
607.75077,0.00242
605.69060,0.00168
603.63043,0.00152
601.57026,0.00168
599.51009,0.00000
