3996.73391,-0.00046
3994.67373,0.00000
3992.61356,0.00040
3990.55339,0.00060
3988.49322,0.00045
3986.43305,0.00018
3984.37287,0.00021
3982.31270,0.00044
3980.25253,0.00044
3978.19236,0.00011
3976.13219,-0.00010
3974.07201,0.00006
3972.01184,0.00031
3969.95167,0.00039
3967.89150,0.00044
3965.83133,0.00050
3963.77115,0.00050
3961.71098,0.00030
3959.65081,0.00000
3957.59064,0.00006
3955.53046,0.00059
3953.47029,0.00108
3951.41012,0.00115
3949.34995,0.00095
3947.28978,0.00069
3945.22960,0.00047
3943.16943,0.00039
3941.10926,0.00043
3939.04909,0.00065
3936.98892,0.00129
3934.92874,0.00201
3932.86857,0.00204
3930.80840,0.00142
3928.74823,0.00094
3926.68805,0.00074
3924.62788,0.00077
3922.56771,0.00108
3920.50754,0.00133
3918.44737,0.00148
3916.38719,0.00155
3914.32702,0.00145
3912.26685,0.00140
3910.20668,0.00152
3908.14651,0.00159
3906.08633,0.00151
3904.02616,0.00145
3901.96599,0.00140
3899.90582,0.00127
3897.84565,0.00119
3895.78547,0.00118
3893.72530,0.00107
3891.66513,0.00088
3889.60496,0.00069
3887.54478,0.00034
3885.48461,-0.00003
3883.42444,0.00000
3881.36427,0.00014
3879.30410,0.00040
3877.24392,0.00113
3875.18375,0.00188
3873.12358,0.00217
3871.06341,0.00214
3869.00324,0.00200
3866.94306,0.00176
3864.88289,0.00144
3862.82272,0.00109
3860.76255,0.00095
3858.70237,0.00120
3856.64220,0.00151
3854.58203,0.00121
3852.52186,0.00064
3850.46169,0.00079
3848.40151,0.00119
3846.34134,0.00158
3844.28117,0.00200
3842.22100,0.00219
3840.16083,0.00195
3838.10065,0.00164
3836.04048,0.00168
3833.98031,0.00182
3831.92014,0.00196
3829.85997,0.00219
3827.79979,0.00214
3825.73962,0.00154
3823.67945,0.00109
3821.61928,0.00142
3819.55910,0.00205
3817.49893,0.00213
3815.43876,0.00163
3813.37859,0.00112
3811.31842,0.00094
3809.25824,0.00098
3807.19807,0.00122
3805.13790,0.00162
3803.07773,0.00181
3801.01756,0.00174
3798.95738,0.00163
3796.89721,0.00150
3794.83704,0.00134
3792.77687,0.00125
3790.71670,0.00137
3788.65652,0.00158
3786.59635,0.00166
3784.53618,0.00175
3782.47601,0.00198
3780.41583,0.00217
3778.35566,0.00220
3776.29549,0.00213
3774.23532,0.00216
3772.17515,0.00234
3770.11497,0.00226
3768.05480,0.00177
3765.99463,0.00150
3763.93446,0.00183
3761.87429,0.00211
3759.81411,0.00196
3757.75394,0.00193
3755.69377,0.00210
3753.63360,0.00176
3751.57342,0.00076
3749.51325,0.00000
3747.45308,0.00034
3745.39291,0.00136
3743.33274,0.00182
3741.27256,0.00155
3739.21239,0.00129
3737.15222,0.00151
3735.09205,0.00209
3733.03188,0.00226
3730.97170,0.00199
3728.91153,0.00156
3726.85136,0.00103
3724.79119,0.00067
3722.73102,0.00049
3720.67084,0.00021
3718.61067,0.00000
3716.55050,0.00025
3714.49033,0.00075
3712.43015,0.00095
3710.36998,0.00087
3708.30981,0.00085
3706.24964,0.00107
3704.18947,0.00113
3702.12929,0.00099
3700.06912,0.00115
3698.00895,0.00155
3695.94878,0.00168
3693.88861,0.00146
3691.82843,0.00125
3689.76826,0.00127
3687.70809,0.00157
3685.64792,0.00179
3683.58775,0.00160
3681.52757,0.00138
3679.46740,0.00193
3677.40723,0.00318
3675.34706,0.00394
3673.28688,0.00361
3671.22671,0.00293
3669.16654,0.00231
3667.10637,0.00197
3665.04620,0.00197
3662.98602,0.00211
3660.92585,0.00236
3658.86568,0.00260
3656.80551,0.00253
3654.74534,0.00220
3652.68516,0.00187
3650.62499,0.00150
3648.56482,0.00177
3646.50465,0.00313
3644.44447,0.00397
3642.38430,0.00384
3640.32413,0.00393
3638.26396,0.00485
3636.20379,0.00567
3634.14361,0.00574
3632.08344,0.00578
3630.02327,0.00623
3627.96310,0.00661
3625.90293,0.00686
3623.84275,0.00725
3621.78258,0.00732
3619.72241,0.00692
3617.66224,0.00698
3615.60207,0.00781
3613.54189,0.00856
3611.48172,0.00889
3609.42155,0.00908
3607.36138,0.00914
3605.30120,0.00937
3603.24103,0.01001
3601.18086,0.01050
3599.12069,0.01064
3597.06052,0.01098
3595.00034,0.01164
3592.94017,0.01198
3590.88000,0.01212
3588.81983,0.01291
3586.75966,0.01435
3584.69948,0.01519
3582.63931,0.01517
3580.57914,0.01509
3578.51897,0.01541
3576.45879,0.01590
3574.39862,0.01638
3572.33845,0.01683
3570.27828,0.01727
3568.21811,0.01803
3566.15793,0.01896
3564.09776,0.01938
3562.03759,0.01919
3559.97742,0.01885
3557.91725,0.01895
3555.85707,0.01961
3553.79690,0.02041
3551.73673,0.02097
3549.67656,0.02140
3547.61639,0.02221
3545.55621,0.02326
3543.49604,0.02380
3541.43587,0.02390
3539.37570,0.02424
3537.31552,0.02484
3535.25535,0.02537
3533.19518,0.02590
3531.13501,0.02656
3529.07484,0.02714
3527.01466,0.02765
3524.95449,0.02829
3522.89432,0.02897
3520.83415,0.02944
3518.77398,0.02960
3516.71380,0.02975
3514.65363,0.03027
3512.59346,0.03101
3510.53329,0.03152
3508.47312,0.03173
3506.41294,0.03185
3504.35277,0.03205
3502.29260,0.03266
3500.23243,0.03365
3498.17225,0.03444
3496.11208,0.03496
3494.05191,0.03556
3491.99174,0.03639
3489.93157,0.03726
3487.87139,0.03784
3485.81122,0.03813
3483.75105,0.03847
3481.69088,0.03901
3479.63071,0.03957
3477.57053,0.04003
3475.51036,0.04039
3473.45019,0.04090
3471.39002,0.04159
3469.32984,0.04203
3467.26967,0.04203
3465.20950,0.04212
3463.14933,0.04263
3461.08916,0.04331
3459.02898,0.04383
3456.96881,0.04401
3454.90864,0.04420
3452.84847,0.04490
3450.78830,0.04578
3448.72812,0.04646
3446.66795,0.04698
3444.60778,0.04713
3442.54761,0.04718
3440.48744,0.04747
3438.42726,0.04795
3436.36709,0.04858
3434.30692,0.04926
3432.24675,0.04993
3430.18657,0.05055
3428.12640,0.05098
3426.06623,0.05127
3424.00606,0.05154
3421.94589,0.05164
3419.88571,0.05176
3417.82554,0.05219
3415.76537,0.05272
3413.70520,0.05334
3411.64503,0.05406
3409.58485,0.05476
3407.52468,0.05528
3405.46451,0.05542
3403.40434,0.05543
3401.34416,0.05535
3399.28399,0.05533
3397.22382,0.05573
3395.16365,0.05624
3393.10348,0.05665
3391.04330,0.05712
3388.98313,0.05742
3386.92296,0.05758
3384.86279,0.05790
3382.80262,0.05819
3380.74244,0.05820
3378.68227,0.05836
3376.62210,0.05918
3374.56193,0.05991
3372.50176,0.05980
3370.44158,0.05958
3368.38141,0.06003
3366.32124,0.06091
3364.26107,0.06160
3362.20089,0.06158
3360.14072,0.06127
3358.08055,0.06134
3356.02038,0.06165
3353.96021,0.06201
3351.90003,0.06251
3349.83986,0.06294
3347.77969,0.06290
3345.71952,0.06261
3343.65935,0.06261
3341.59917,0.06282
3339.53900,0.06301
3337.47883,0.06313
3335.41866,0.06322
3333.35849,0.06346
3331.29831,0.06384
3329.23814,0.06399
3327.17797,0.06389
3325.11780,0.06406
3323.05762,0.06467
3320.99745,0.06531
3318.93728,0.06583
3316.87711,0.06612
3314.81694,0.06565
3312.75676,0.06487
3310.69659,0.06474
3308.63642,0.06534
3306.57625,0.06629
3304.51608,0.06684
3302.45590,0.06635
3300.39573,0.06534
3298.33556,0.06487
3296.27539,0.06520
3294.21521,0.06559
3292.15504,0.06558
3290.09487,0.06558
3288.03470,0.06570
3285.97453,0.06575
3283.91435,0.06576
3281.85418,0.06579
3279.79401,0.06586
3277.73384,0.06610
3275.67367,0.06638
3273.61349,0.06628
3271.55332,0.06598
3269.49315,0.06580
3267.43298,0.06555
3265.37281,0.06533
3263.31263,0.06539
3261.25246,0.06550
3259.19229,0.06549
3257.13212,0.06549
3255.07194,0.06546
3253.01177,0.06532
3250.95160,0.06500
3248.89143,0.06461
3246.83126,0.06451
3244.77108,0.06451
3242.71091,0.06429
3240.65074,0.06410
3238.59057,0.06395
3236.53040,0.06363
3234.47022,0.06347
3232.41005,0.06357
3230.34988,0.06344
3228.28971,0.06307
3226.22954,0.06280
3224.16936,0.06264
3222.10919,0.06248
3220.04902,0.06212
3217.98885,0.06147
3215.92867,0.06099
3213.86850,0.06106
3211.80833,0.06118
3209.74816,0.06098
3207.68799,0.06060
3205.62781,0.06032
3203.56764,0.06040
3201.50747,0.06038
3199.44730,0.06010
3197.38713,0.06002
3195.32695,0.06004
3193.26678,0.05981
3191.20661,0.05935
3189.14644,0.05889
3187.08626,0.05853
3185.02609,0.05809
3182.96592,0.05744
3180.90575,0.05707
3178.84558,0.05725
3176.78540,0.05751
3174.72523,0.05733
3172.66506,0.05688
3170.60489,0.05655
3168.54472,0.05624
3166.48454,0.05573
3164.42437,0.05520
3162.36420,0.05487
3160.30403,0.05492
3158.24386,0.05523
3156.18368,0.05525
3154.12351,0.05481
3152.06334,0.05405
3150.00317,0.05307
3147.94299,0.05234
3145.88282,0.05224
3143.82265,0.05251
3141.76248,0.05263
3139.70231,0.05240
3137.64213,0.05202
3135.58196,0.05162
3133.52179,0.05146
3131.46162,0.05131
3129.40145,0.05059
3127.34127,0.04974
3125.28110,0.04936
3123.22093,0.04941
3121.16076,0.04966
3119.10058,0.04962
3117.04041,0.04913
3114.98024,0.04864
3112.92007,0.04837
3110.85990,0.04812
3108.79972,0.04778
3106.73955,0.04741
3104.67938,0.04725
3102.61921,0.04755
3100.55904,0.04769
3098.49886,0.04701
3096.43869,0.04619
3094.37852,0.04601
3092.31835,0.04607
3090.25818,0.04588
3088.19800,0.04569
3086.13783,0.04570
3084.07766,0.04556
3082.01749,0.04494
3079.95731,0.04411
3077.89714,0.04364
3075.83697,0.04367
3073.77680,0.04370
3071.71663,0.04360
3069.65645,0.04374
3067.59628,0.04389
3065.53611,0.04364
3063.47594,0.04312
3061.41577,0.04259
3059.35559,0.04223
3057.29542,0.04202
3055.23525,0.04178
3053.17508,0.04161
3051.11491,0.04139
3049.05473,0.04088
3046.99456,0.04042
3044.93439,0.04033
3042.87422,0.04038
3040.81404,0.04021
3038.75387,0.03977
3036.69370,0.03920
3034.63353,0.03878
3032.57336,0.03860
3030.51318,0.03843
3028.45301,0.03812
3026.39284,0.03796
3024.33267,0.03787
3022.27250,0.03748
3020.21232,0.03702
3018.15215,0.03692
3016.09198,0.03693
3014.03181,0.03660
3011.97163,0.03610
3009.91146,0.03572
3007.85129,0.03544
3005.79112,0.03522
3003.73095,0.03502
3001.67077,0.03468
2999.61060,0.03444
2997.55043,0.03453
2995.49026,0.03454
2993.43009,0.03442
2991.36991,0.03447
2989.30974,0.03460
2987.24957,0.03488
2985.18940,0.03540
2983.12923,0.03580
2981.06905,0.03589
2979.00888,0.03588
2976.94871,0.03609
2974.88854,0.03675
2972.82836,0.03775
2970.76819,0.03845
2968.70802,0.03881
2966.64785,0.03947
2964.58768,0.04059
2962.52750,0.04190
2960.46733,0.04333
2958.40716,0.04487
2956.34699,0.04619
2954.28682,0.04717
2952.22664,0.04809
2950.16647,0.04911
2948.10630,0.05036
2946.04613,0.05186
2943.98596,0.05356
2941.92578,0.05554
2939.86561,0.05766
2937.80544,0.05977
2935.74527,0.06201
2933.68509,0.06449
2931.62492,0.06716
2929.56475,0.06990
2927.50458,0.07268
2925.44441,0.07496
2923.38423,0.07632
2921.32406,0.07747
2919.26389,0.07867
2917.20372,0.07882
2915.14355,0.07675
2913.08337,0.07283
2911.02320,0.06880
2908.96303,0.06571
2906.90286,0.06326
2904.84268,0.06109
2902.78251,0.05930
2900.72234,0.05802
2898.66217,0.05697
2896.60200,0.05561
2894.54182,0.05401
2892.48165,0.05256
2890.42148,0.05137
2888.36131,0.05043
2886.30114,0.04958
2884.24096,0.04874
2882.18079,0.04796
2880.12062,0.04736
2878.06045,0.04695
2876.00028,0.04670
2873.94010,0.04671
2871.87993,0.04690
2869.81976,0.04714
2867.75959,0.04751
2865.69941,0.04818
2863.63924,0.04935
2861.57907,0.05118
2859.51890,0.05345
2857.45873,0.05570
2855.39855,0.05804
2853.33838,0.06061
2851.27821,0.06261
2849.21804,0.06262
2847.15787,0.05957
2845.09769,0.05433
2843.03752,0.04927
2840.97735,0.04569
2838.91718,0.04332
2836.85700,0.04155
2834.79683,0.03982
2832.73666,0.03822
2830.67649,0.03712
2828.61632,0.03618
2826.55614,0.03521
2824.49597,0.03458
2822.43580,0.03441
2820.37563,0.03437
2818.31546,0.03415
2816.25528,0.03361
2814.19511,0.03289
2812.13494,0.03238
2810.07477,0.03218
2808.01460,0.03194
2805.95442,0.03151
2803.89425,0.03104
2801.83408,0.03069
2799.77391,0.03047
2797.71373,0.03027
2795.65356,0.03002
2793.59339,0.02964
2791.53322,0.02926
2789.47305,0.02907
2787.41287,0.02885
2785.35270,0.02861
2783.29253,0.02856
2781.23236,0.02860
2779.17219,0.02856
2777.11201,0.02832
2775.05184,0.02802
2772.99167,0.02785
2770.93150,0.02787
2768.87133,0.02796
2766.81115,0.02782
2764.75098,0.02748
2762.69081,0.02728
2760.63064,0.02730
2758.57046,0.02720
2756.51029,0.02690
2754.45012,0.02669
2752.38995,0.02664
2750.32978,0.02679
2748.26960,0.02701
2746.20943,0.02694
2744.14926,0.02673
2742.08909,0.02660
2740.02892,0.02645
2737.96874,0.02638
2735.90857,0.02652
2733.84840,0.02667
2731.78823,0.02664
2729.72805,0.02653
2727.66788,0.02655
2725.60771,0.02663
2723.54754,0.02644
2721.48737,0.02602
2719.42719,0.02572
2717.36702,0.02573
2715.30685,0.02580
2713.24668,0.02572
2711.18651,0.02577
2709.12633,0.02582
2707.06616,0.02551
2705.00599,0.02515
2702.94582,0.02496
2700.88565,0.02489
2698.82547,0.02489
2696.76530,0.02477
2694.70513,0.02464
2692.64496,0.02463
2690.58478,0.02466
2688.52461,0.02457
2686.46444,0.02418
2684.40427,0.02376
2682.34410,0.02363
2680.28392,0.02370
2678.22375,0.02378
2676.16358,0.02362
2674.10341,0.02323
2672.04324,0.02303
2669.98306,0.02320
2667.92289,0.02350
2665.86272,0.02370
2663.80255,0.02379
2661.74238,0.02377
2659.68220,0.02357
2657.62203,0.02341
2655.56186,0.02348
2653.50169,0.02335
2651.44151,0.02277
2649.38134,0.02237
2647.32117,0.02236
2645.26100,0.02217
2643.20083,0.02175
2641.14065,0.02157
2639.08048,0.02167
2637.02031,0.02177
2634.96014,0.02167
2632.89997,0.02144
2630.83979,0.02123
2628.77962,0.02110
2626.71945,0.02127
2624.65928,0.02161
2622.59910,0.02172
2620.53893,0.02134
2618.47876,0.02069
2616.41859,0.02033
2614.35842,0.02002
2612.29824,0.01968
2610.23807,0.01945
2608.17790,0.01907
2606.11773,0.01862
2604.05756,0.01828
2601.99738,0.01837
2599.93721,0.01917
2597.87704,0.01978
2595.81687,0.01967
2593.75670,0.01952
2591.69652,0.01952
2589.63635,0.01924
2587.57618,0.01892
2585.51601,0.01890
2583.45583,0.01879
2581.39566,0.01848
2579.33549,0.01812
2577.27532,0.01785
2575.21515,0.01778
2573.15497,0.01769
2571.09480,0.01765
2569.03463,0.01778
2566.97446,0.01762
2564.91429,0.01728
2562.85411,0.01727
2560.79394,0.01716
2558.73377,0.01676
2556.67360,0.01662
2554.61342,0.01695
2552.55325,0.01731
2550.49308,0.01711
2548.43291,0.01651
2546.37274,0.01609
2544.31256,0.01592
2542.25239,0.01576
2540.19222,0.01557
2538.13205,0.01554
2536.07188,0.01573
2534.01170,0.01601
2531.95153,0.01631
2529.89136,0.01651
2527.83119,0.01651
2525.77102,0.01652
2523.71084,0.01641
2521.65067,0.01585
2519.59050,0.01541
2517.53033,0.01537
2515.47015,0.01506
2513.40998,0.01476
2511.34981,0.01482
2509.28964,0.01468
2507.22947,0.01429
2505.16929,0.01405
2503.10912,0.01378
2501.04895,0.01374
2498.98878,0.01399
2496.92861,0.01392
2494.86843,0.01403
2492.80826,0.01469
2490.74809,0.01494
2488.68792,0.01464
2486.62775,0.01459
2484.56757,0.01466
2482.50740,0.01411
2480.44723,0.01339
2478.38706,0.01343
2476.32688,0.01387
2474.26671,0.01416
2472.20654,0.01439
2470.14637,0.01417
2468.08620,0.01339
2466.02602,0.01283
2463.96585,0.01272
2461.90568,0.01265
2459.84551,0.01266
2457.78534,0.01293
2455.72516,0.01301
2453.66499,0.01277
2451.60482,0.01252
2449.54465,0.01232
2447.48447,0.01215
2445.42430,0.01219
2443.36413,0.01246
2441.30396,0.01259
2439.24379,0.01229
2437.18361,0.01210
2435.12344,0.01246
2433.06327,0.01272
2431.00310,0.01244
2428.94293,0.01170
2426.88275,0.01113
2424.82258,0.01134
2422.76241,0.01160
2420.70224,0.01161
2418.64207,0.01194
2416.58189,0.01221
2414.52172,0.01214
2412.46155,0.01216
2410.40138,0.01185
2408.34120,0.01102
2406.28103,0.01077
2404.22086,0.01139
2402.16069,0.01168
2400.10052,0.01132
2398.04034,0.01139
2395.98017,0.01159
2393.92000,0.01145
2391.85983,0.01131
2389.79966,0.01147
2387.73948,0.01151
2385.67931,0.01129
2383.61914,0.01124
2381.55897,0.01135
2379.49880,0.01145
2377.43862,0.01188
2375.37845,0.01227
2373.31828,0.01258
2371.25811,0.01264
2369.19793,0.01123
2367.13776,0.00936
2365.07759,0.00877
2363.01742,0.00843
2360.95725,0.00936
2358.89707,0.00989
2356.83690,0.01038
2354.77673,0.01046
2352.71656,0.01064
2350.65639,0.01306
2348.59621,0.01456
2346.53604,0.01125
2344.47587,0.00980
2342.41570,0.00977
2340.35552,0.01003
2338.29535,0.01062
2336.23518,0.01031
2334.17501,0.00971
2332.11484,0.01026
2330.05466,0.01223
2327.99449,0.01356
2325.93432,0.01389
2323.87415,0.01266
2321.81398,0.01139
2319.75380,0.01011
2317.69363,0.00978
2315.63346,0.00959
2313.57329,0.00943
2311.51312,0.00963
2309.45294,0.01005
2307.39277,0.01040
2305.33260,0.01046
2303.27243,0.01025
2301.21225,0.00977
2299.15208,0.00945
2297.09191,0.00941
2295.03174,0.00974
2292.97157,0.01029
2290.91139,0.01039
2288.85122,0.00998
2286.79105,0.00966
2284.73088,0.00948
2282.67071,0.00916
2280.61053,0.00873
2278.55036,0.00825
2276.49019,0.00776
2274.43002,0.00759
2272.36984,0.00797
2270.30967,0.00857
2268.24950,0.00881
2266.18933,0.00879
2264.12916,0.00885
2262.06898,0.00909
2260.00881,0.00877
2257.94864,0.00719
2255.88847,0.00537
2253.82830,0.00537
2251.76812,0.00723
2249.70795,0.00869
2247.64778,0.00839
2245.58761,0.00755
2243.52744,0.00736
2241.46726,0.00791
2239.40709,0.00777
2237.34692,0.00631
2235.28675,0.00552
2233.22657,0.00617
2231.16640,0.00681
2229.10623,0.00688
2227.04606,0.00617
2224.98589,0.00512
2222.92571,0.00511
2220.86554,0.00641
2218.80537,0.00778
2216.74520,0.00844
2214.68503,0.00830
2212.62485,0.00727
2210.56468,0.00683
2208.50451,0.00764
2206.44434,0.00803
2204.38417,0.00658
2202.32399,0.00461
2200.26382,0.00443
2198.20365,0.00523
2196.14348,0.00601
2194.08330,0.00646
2192.02313,0.00557
2189.96296,0.00477
2187.90279,0.00530
2185.84262,0.00516
2183.78244,0.00382
2181.72227,0.00315
2179.66210,0.00347
2177.60193,0.00452
2175.54176,0.00592
2173.48158,0.00623
2171.42141,0.00562
2169.36124,0.00530
2167.30107,0.00528
2165.24089,0.00541
2163.18072,0.00552
2161.12055,0.00451
2159.06038,0.00339
2157.00021,0.00455
2154.94003,0.00549
2152.87986,0.00411
2150.81969,0.00253
2148.75952,0.00212
2146.69935,0.00273
2144.63917,0.00363
2142.57900,0.00376
2140.51883,0.00380
2138.45866,0.00411
2136.39849,0.00379
2134.33831,0.00417
2132.27814,0.00510
2130.21797,0.00489
2128.15780,0.00480
2126.09762,0.00567
2124.03745,0.00668
2121.97728,0.00739
2119.91711,0.00735
2117.85694,0.00691
2115.79676,0.00670
2113.73659,0.00634
2111.67642,0.00608
2109.61625,0.00644
2107.55608,0.00667
2105.49590,0.00601
2103.43573,0.00503
2101.37556,0.00474
2099.31539,0.00544
2097.25521,0.00651
2095.19504,0.00659
2093.13487,0.00559
2091.07470,0.00496
2089.01453,0.00503
2086.95435,0.00541
2084.89418,0.00610
2082.83401,0.00671
2080.77384,0.00690
2078.71367,0.00694
2076.65349,0.00725
2074.59332,0.00717
2072.53315,0.00616
2070.47298,0.00512
2068.41281,0.00489
2066.35263,0.00535
2064.29246,0.00535
2062.23229,0.00463
2060.17212,0.00422
2058.11194,0.00438
2056.05177,0.00505
2053.99160,0.00566
2051.93143,0.00474
2049.87126,0.00306
2047.81108,0.00273
2045.75091,0.00316
2043.69074,0.00323
2041.63057,0.00318
2039.57040,0.00405
2037.51022,0.00531
2035.45005,0.00412
2033.38988,0.00115
2031.32971,0.00000
2029.26954,0.00025
2027.20936,0.00045
2025.14919,0.00137
2023.08902,0.00212
2021.02885,0.00204
2018.96867,0.00198
2016.90850,0.00270
2014.84833,0.00449
2012.78816,0.00517
2010.72799,0.00326
2008.66781,0.00103
2006.60764,0.00101
2004.54747,0.00240
2002.48730,0.00296
2000.42713,0.00256
1998.36695,0.00205
1996.30678,0.00159
1994.24661,0.00224
1992.18644,0.00422
1990.12626,0.00551
1988.06609,0.00541
1986.00592,0.00451
1983.94575,0.00347
1981.88558,0.00320
1979.82540,0.00350
1977.76523,0.00355
1975.70506,0.00250
1973.64489,0.00079
1971.58472,0.00029
1969.52454,0.00086
1967.46437,0.00152
1965.40420,0.00270
1963.34403,0.00429
1961.28386,0.00458
1959.22368,0.00340
1957.16351,0.00255
1955.10334,0.00229
1953.04317,0.00181
1950.98299,0.00118
1948.92282,0.00100
1946.86265,0.00144
1944.80248,0.00223
1942.74231,0.00282
1940.68213,0.00259
1938.62196,0.00190
1936.56179,0.00174
1934.50162,0.00211
1932.44145,0.00250
1930.38127,0.00280
1928.32110,0.00267
1926.26093,0.00217
1924.20076,0.00176
1922.14059,0.00158
1920.08041,0.00171
1918.02024,0.00213
1915.96007,0.00244
1913.89990,0.00247
1911.83972,0.00254
1909.77955,0.00259
1907.71938,0.00247
1905.65921,0.00216
1903.59904,0.00148
1901.53886,0.00065
1899.47869,0.00041
1897.41852,0.00082
1895.35835,0.00124
1893.29818,0.00137
1891.23800,0.00137
1889.17783,0.00139
1887.11766,0.00152
1885.05749,0.00172
1882.99731,0.00196
1880.93714,0.00222
1878.87697,0.00242
1876.81680,0.00246
1874.75663,0.00236
1872.69645,0.00233
1870.63628,0.00247
1868.57611,0.00253
1866.51594,0.00222
1864.45577,0.00165
1862.39559,0.00113
1860.33542,0.00084
1858.27525,0.00087
1856.21508,0.00121
1854.15491,0.00165
1852.09473,0.00182
1850.03456,0.00160
1847.97439,0.00113
1845.91422,0.00078
1843.85404,0.00080
1841.79387,0.00078
1839.73370,0.00049
1837.67353,0.00041
1835.61336,0.00073
1833.55318,0.00110
1831.49301,0.00118
1829.43284,0.00094
1827.37267,0.00057
1825.31250,0.00018
1823.25232,0.00000
1821.19215,0.00022
1819.13198,0.00056
1817.07181,0.00054
1815.01163,0.00020
1812.95146,-0.00008
1810.89129,-0.00019
1808.83112,-0.00020
1806.77095,-0.00012
1804.71077,0.00001
1802.65060,0.00014
1800.59043,0.00017
1798.53026,-0.00003
1796.47009,-0.00023
1794.40991,-0.00020
1792.34974,0.00001
1790.28957,0.00037
1788.22940,0.00081
1786.16923,0.00103
1784.10905,0.00093
1782.04888,0.00071
1779.98871,0.00062
1777.92854,0.00064
1775.86836,0.00041
1773.80819,0.00000
1771.74802,0.00007
1769.68785,0.00096
1767.62768,0.00193
1765.56750,0.00255
1763.50733,0.00297
1761.44716,0.00353
1759.38699,0.00435
1757.32682,0.00547
1755.26664,0.00674
1753.20647,0.00800
1751.14630,0.00966
1749.08613,0.01222
1747.02596,0.01540
1744.96578,0.01875
1742.90561,0.02220
1740.84544,0.02606
1738.78527,0.03036
1736.72509,0.03443
1734.66492,0.03833
1732.60475,0.04185
1730.54458,0.04381
1728.48441,0.04435
1726.42423,0.04411
1724.36406,0.04368
1722.30389,0.04340
1720.24372,0.04316
1718.18355,0.04288
1716.12337,0.04297
1714.06320,0.04339
1712.00303,0.04359
1709.94286,0.04350
1707.88268,0.04311
1705.82251,0.04226
1703.76234,0.04120
1701.70217,0.04024
1699.64200,0.03926
1697.58182,0.03853
1695.52165,0.03824
1693.46148,0.03800
1691.40131,0.03754
1689.34114,0.03707
1687.28096,0.03679
1685.22079,0.03636
1683.16062,0.03569
1681.10045,0.03546
1679.04028,0.03568
1676.98010,0.03608
1674.91993,0.03666
1672.85976,0.03731
1670.79959,0.03798
1668.73941,0.03890
1666.67924,0.03996
1664.61907,0.04101
1662.55890,0.04240
1660.49873,0.04415
1658.43855,0.04572
1656.37838,0.04710
1654.31821,0.04859
1652.25804,0.04983
1650.19787,0.05029
1648.13769,0.05066
1646.07752,0.05138
1644.01735,0.05195
1641.95718,0.05226
1639.89701,0.05264
1637.83683,0.05330
1635.77666,0.05422
1633.71649,0.05483
1631.65632,0.05499
1629.59614,0.05532
1627.53597,0.05613
1625.47580,0.05713
1623.41563,0.05819
1621.35546,0.05924
1619.29528,0.06015
1617.23511,0.06113
1615.17494,0.06214
1613.11477,0.06289
1611.05460,0.06344
1608.99442,0.06390
1606.93425,0.06423
1604.87408,0.06425
1602.81391,0.06371
1600.75373,0.06264
1598.69356,0.06133
1596.63339,0.05977
1594.57322,0.05801
1592.51305,0.05612
1590.45287,0.05392
1588.39270,0.05153
1586.33253,0.04929
1584.27236,0.04708
1582.21219,0.04473
1580.15201,0.04252
1578.09184,0.04069
1576.03167,0.03894
1573.97150,0.03725
1571.91133,0.03579
1569.85115,0.03434
1567.79098,0.03291
1565.73081,0.03177
1563.67064,0.03091
1561.61046,0.03010
1559.55029,0.02931
1557.49012,0.02925
1555.42995,0.02983
1553.36978,0.03024
1551.30960,0.03038
1549.24943,0.03046
1547.18926,0.03063
1545.12909,0.03094
1543.06892,0.03141
1541.00874,0.03210
1538.94857,0.03290
1536.88840,0.03286
1534.82823,0.03195
1532.76805,0.03084
1530.70788,0.02990
1528.64771,0.02895
1526.58754,0.02796
1524.52737,0.02726
1522.46719,0.02699
1520.40702,0.02708
1518.34685,0.02738
1516.28668,0.02771
1514.22651,0.02771
1512.16633,0.02711
1510.10616,0.02602
1508.04599,0.02442
1505.98582,0.02228
1503.92565,0.02048
1501.86547,0.01898
1499.80530,0.01729
1497.74513,0.01547
1495.68496,0.01399
1493.62478,0.01289
1491.56461,0.01173
1489.50444,0.01032
1487.44427,0.00909
1485.38410,0.00846
1483.32392,0.00822
1481.26375,0.00814
1479.20358,0.00828
1477.14341,0.00916
1475.08324,0.01138
1473.02306,0.01503
1470.96289,0.01888
1468.90272,0.02181
1466.84255,0.02432
1464.78238,0.02677
1462.72220,0.02840
1460.66203,0.02901
1458.60186,0.02994
1456.54169,0.03258
1454.48151,0.03557
1452.42134,0.03737
1450.36117,0.03847
1448.30100,0.03960
1446.24083,0.04077
1444.18065,0.04156
1442.12048,0.04173
1440.06031,0.04128
1438.00014,0.04018
1435.93997,0.03837
1433.87979,0.03629
1431.81962,0.03439
1429.75945,0.03275
1427.69928,0.03148
1425.63910,0.03060
1423.57893,0.03010
1421.51876,0.02998
1419.45859,0.03000
1417.39842,0.02997
1415.33824,0.02984
1413.27807,0.02958
1411.21790,0.02930
1409.15773,0.02899
1407.09756,0.02849
1405.03738,0.02800
1402.97721,0.02789
1400.91704,0.02813
1398.85687,0.02842
1396.79670,0.02871
1394.73652,0.02908
1392.67635,0.02951
1390.61618,0.03001
1388.55601,0.03080
1386.49583,0.03202
1384.43566,0.03333
1382.37549,0.03455
1380.31532,0.03585
1378.25515,0.03721
1376.19497,0.03841
1374.13480,0.03946
1372.07463,0.04039
1370.01446,0.04103
1367.95429,0.04126
1365.89411,0.04124
1363.83394,0.04124
1361.77377,0.04142
1359.71360,0.04182
1357.65343,0.04219
1355.59325,0.04246
1353.53308,0.04269
1351.47291,0.04292
1349.41274,0.04333
1347.35256,0.04387
1345.29239,0.04435
1343.23222,0.04481
1341.17205,0.04547
1339.11188,0.04630
1337.05170,0.04720
1334.99153,0.04813
1332.93136,0.04913
1330.87119,0.05016
1328.81102,0.05122
1326.75084,0.05228
1324.69067,0.05330
1322.63050,0.05433
1320.57033,0.05525
1318.51015,0.05575
1316.44998,0.05591
1314.38981,0.05578
1312.32964,0.05523
1310.26947,0.05431
1308.20929,0.05308
1306.14912,0.05130
1304.08895,0.04910
1302.02878,0.04687
1299.96861,0.04457
1297.90843,0.04206
1295.84826,0.03952
1293.78809,0.03729
1291.72792,0.03552
1289.66775,0.03423
1287.60757,0.03328
1285.54740,0.03236
1283.48723,0.03162
1281.42706,0.03137
1279.36688,0.03145
1277.30671,0.03162
1275.24654,0.03197
1273.18637,0.03264
1271.12620,0.03331
1269.06602,0.03377
1267.00585,0.03431
1264.94568,0.03493
1262.88551,0.03535
1260.82534,0.03575
1258.76516,0.03626
1256.70499,0.03664
1254.64482,0.03708
1252.58465,0.03791
1250.52447,0.03884
1248.46430,0.03965
1246.40413,0.04054
1244.34396,0.04148
1242.28379,0.04239
1240.22361,0.04359
1238.16344,0.04509
1236.10327,0.04637
1234.04310,0.04736
1231.98293,0.04825
1229.92275,0.04921
1227.86258,0.05026
1225.80241,0.05122
1223.74224,0.05218
1221.68207,0.05330
1219.62189,0.05430
1217.56172,0.05508
1215.50155,0.05591
1213.44138,0.05689
1211.38120,0.05783
1209.32103,0.05879
1207.26086,0.05991
1205.20069,0.06094
1203.14052,0.06188
1201.08034,0.06295
1199.02017,0.06388
1196.96000,0.06430
1194.89983,0.06440
1192.83966,0.06438
1190.77948,0.06406
1188.71931,0.06338
1186.65914,0.06258
1184.59897,0.06193
1182.53880,0.06137
1180.47862,0.06085
1178.41845,0.06055
1176.35828,0.06036
1174.29811,0.06025
1172.23793,0.06040
1170.17776,0.06068
1168.11759,0.06065
1166.05742,0.06020
1163.99725,0.05953
1161.93707,0.05873
1159.87690,0.05766
1157.81673,0.05638
1155.75656,0.05506
1153.69639,0.05369
1151.63621,0.05211
1149.57604,0.05048
1147.51587,0.04913
1145.45570,0.04793
1143.39552,0.04654
1141.33535,0.04506
1139.27518,0.04361
1137.21501,0.04217
1135.15484,0.04094
1133.09466,0.04009
1131.03449,0.03987
1128.97432,0.04048
1126.91415,0.04167
1124.85398,0.04297
1122.79380,0.04438
1120.73363,0.04630
1118.67346,0.04865
1116.61329,0.05108
1114.55312,0.05356
1112.49294,0.05620
1110.43277,0.05894
1108.37260,0.06170
1106.31243,0.06448
1104.25225,0.06702
1102.19208,0.06922
1100.13191,0.07135
1098.07174,0.07343
1096.01157,0.07522
1093.95139,0.07689
1091.89122,0.07880
1089.83105,0.08092
1087.77088,0.08310
1085.71071,0.08542
1083.65053,0.08785
1081.59036,0.09014
1079.53019,0.09243
1077.47002,0.09466
1075.40985,0.09643
1073.34967,0.09780
1071.28950,0.09917
1069.22933,0.10063
1067.16916,0.10190
1065.10898,0.10262
1063.04881,0.10293
1060.98864,0.10341
1058.92847,0.10424
1056.86830,0.10522
1054.80812,0.10628
1052.74795,0.10748
1050.68778,0.10912
1048.62761,0.11103
1046.56744,0.11254
1044.50726,0.11400
1042.44709,0.11628
1040.38692,0.11892
1038.32675,0.12103
1036.26657,0.12282
1034.20640,0.12484
1032.14623,0.12711
1030.08606,0.12929
1028.02589,0.13097
1025.96571,0.13222
1023.90554,0.13305
1021.84537,0.13338
1019.78520,0.13343
1017.72503,0.13341
1015.66485,0.13298
1013.60468,0.13179
1011.54451,0.13008
1009.48434,0.12788
1007.42417,0.12498
1005.36399,0.12167
1003.30382,0.11825
1001.24365,0.11476
999.18348,0.11120
997.12330,0.10750
995.06313,0.10369
993.00296,0.10030
990.94279,0.09736
988.88262,0.09441
986.82244,0.09093
984.76227,0.08696
982.70210,0.08292
980.64193,0.07873
978.58176,0.07460
976.52158,0.07113
974.46141,0.06824
972.40124,0.06549
970.34107,0.06282
968.28089,0.06061
966.22072,0.05910
964.16055,0.05779
962.10038,0.05611
960.04021,0.05406
957.98003,0.05183
955.91986,0.04950
953.85969,0.04702
951.79952,0.04428
949.73935,0.04148
947.67917,0.03929
945.61900,0.03767
943.55883,0.03574
941.49866,0.03327
939.43849,0.03100
937.37831,0.02947
935.31814,0.02826
933.25797,0.02701
931.19780,0.02594
929.13762,0.02510
927.07745,0.02423
925.01728,0.02329
922.95711,0.02250
920.89694,0.02173
918.83676,0.02052
916.77659,0.01876
914.71642,0.01667
912.65625,0.01495
910.59608,0.01362
908.53590,0.01196
906.47573,0.01043
904.41556,0.00985
902.35539,0.00981
900.29522,0.00983
898.23504,0.01003
896.17487,0.01002
894.11470,0.00969
892.05453,0.00956
889.99435,0.00951
887.93418,0.00913
885.87401,0.00851
883.81384,0.00789
881.75367,0.00767
879.69349,0.00799
877.63332,0.00868
875.57315,0.00969
873.51298,0.01077
871.45281,0.01127
869.39263,0.01070
867.33246,0.00931
865.27229,0.00820
863.21212,0.00775
861.15194,0.00688
859.09177,0.00515
857.03160,0.00320
854.97143,0.00165
852.91126,0.00076
850.85108,0.00058
848.79091,0.00054
846.73074,0.00024
844.67057,0.00000
842.61040,0.00036
840.55022,0.00163
838.49005,0.00252
836.42988,0.00273
834.36971,0.00337
832.30954,0.00405
830.24936,0.00401
828.18919,0.00414
826.12902,0.00462
824.06885,0.00439
822.00867,0.00365
819.94850,0.00299
817.88833,0.00239
815.82816,0.00176
813.76799,0.00151
811.70781,0.00163
809.64764,0.00181
807.58747,0.00203
805.52730,0.00196
803.46713,0.00159
801.40695,0.00119
799.34678,0.00056
797.28661,0.00000
795.22644,-0.00044
793.16627,-0.00070
791.10609,-0.00081
789.04592,-0.00026
786.98575,0.00077
784.92558,0.00155
782.86540,0.00166
780.80523,0.00153
778.74506,0.00148
776.68489,0.00149
774.62472,0.00138
772.56454,0.00176
770.50437,0.00309
768.44420,0.00442
766.38403,0.00550
764.32386,0.00746
762.26368,0.01050
760.20351,0.01335
758.14334,0.01514
756.08317,0.01634
754.02299,0.01698
751.96282,0.01614
749.90265,0.01431
747.84248,0.01234
745.78231,0.00994
743.72213,0.00756
741.66196,0.00627
739.60179,0.00602
737.54162,0.00610
735.48145,0.00550
733.42127,0.00473
731.36110,0.00548
729.30093,0.00685
727.24076,0.00754
725.18059,0.00763
723.12041,0.00732
721.06024,0.00633
719.00007,0.00595
716.93990,0.00581
714.87972,0.00541
712.81955,0.00493
710.75938,0.00446
708.69921,0.00396
706.63904,0.00382
704.57886,0.00409
702.51869,0.00384
700.45852,0.00331
698.39835,0.00330
696.33818,0.00315
694.27800,0.00205
692.21783,0.00050
690.15766,-0.00022
688.09749,0.00024
686.03731,0.00072
683.97714,0.00063
681.91697,0.00049
679.85680,0.00098
677.79663,0.00223
675.73645,0.00278
673.67628,0.00231
671.61611,0.00306
669.55594,0.00116
667.49577,-0.00107
665.43559,0.00602
663.37542,0.00430
661.31525,0.00192
659.25508,0.00166
657.19491,0.00227
655.13473,0.00246
653.07456,0.00162
651.01439,0.00033
648.95422,0.00000
646.89404,0.00170
644.83387,0.00464
642.77370,0.00637
640.71353,0.00556
638.65336,0.00311
636.59318,-0.00011
634.53301,-0.00311
632.47284,-0.00406
630.41267,-0.00186
628.35250,0.00087
626.29232,-0.00028
624.23215,-0.00451
622.17198,-0.00703
620.11181,-0.00563
618.05164,-0.00192
615.99146,0.00111
613.93129,0.00142
611.87112,-0.00062
609.81095,-0.00381
607.75077,-0.00616
605.69060,-0.00490
603.63043,-0.00144
601.57026,0.00090
599.51009,0.00000
