3996.73391,0.00183
3994.67373,0.00220
3992.61356,0.00212
3990.55339,0.00132
3988.49322,0.00034
3986.43305,0.00000
3984.37287,0.00028
3982.31270,0.00074
3980.25253,0.00108
3978.19236,0.00094
3976.13219,0.00057
3974.07201,0.00064
3972.01184,0.00109
3969.95167,0.00156
3967.89150,0.00189
3965.83133,0.00182
3963.77115,0.00136
3961.71098,0.00098
3959.65081,0.00084
3957.59064,0.00063
3955.53046,0.00045
3953.47029,0.00061
3951.41012,0.00098
3949.34995,0.00102
3947.28978,0.00059
3945.22960,0.00011
3943.16943,0.00000
3941.10926,0.00037
3939.04909,0.00110
3936.98892,0.00177
3934.92874,0.00198
3932.86857,0.00172
3930.80840,0.00119
3928.74823,0.00094
3926.68805,0.00125
3924.62788,0.00170
3922.56771,0.00183
3920.50754,0.00159
3918.44737,0.00117
3916.38719,0.00120
3914.32702,0.00185
3912.26685,0.00234
3910.20668,0.00224
3908.14651,0.00192
3906.08633,0.00163
3904.02616,0.00126
3901.96599,0.00103
3899.90582,0.00118
3897.84565,0.00140
3895.78547,0.00172
3893.72530,0.00231
3891.66513,0.00274
3889.60496,0.00249
3887.54478,0.00194
3885.48461,0.00160
3883.42444,0.00159
3881.36427,0.00184
3879.30410,0.00198
3877.24392,0.00172
3875.18375,0.00117
3873.12358,0.00086
3871.06341,0.00127
3869.00324,0.00172
3866.94306,0.00161
3864.88289,0.00146
3862.82272,0.00143
3860.76255,0.00128
3858.70237,0.00123
3856.64220,0.00134
3854.58203,0.00128
3852.52186,0.00109
3850.46169,0.00152
3848.40151,0.00235
3846.34134,0.00273
3844.28117,0.00260
3842.22100,0.00254
3840.16083,0.00274
3838.10065,0.00275
3836.04048,0.00240
3833.98031,0.00198
3831.92014,0.00168
3829.85997,0.00155
3827.79979,0.00156
3825.73962,0.00172
3823.67945,0.00192
3821.61928,0.00196
3819.55910,0.00175
3817.49893,0.00151
3815.43876,0.00145
3813.37859,0.00148
3811.31842,0.00139
3809.25824,0.00122
3807.19807,0.00112
3805.13790,0.00128
3803.07773,0.00175
3801.01756,0.00218
3798.95738,0.00203
3796.89721,0.00150
3794.83704,0.00118
3792.77687,0.00134
3790.71670,0.00149
3788.65652,0.00126
3786.59635,0.00087
3784.53618,0.00068
3782.47601,0.00089
3780.41583,0.00149
3778.35566,0.00205
3776.29549,0.00232
3774.23532,0.00245
3772.17515,0.00220
3770.11497,0.00122
3768.05480,0.00042
3765.99463,0.00086
3763.93446,0.00184
3761.87429,0.00234
3759.81411,0.00251
3757.75394,0.00263
3755.69377,0.00272
3753.63360,0.00276
3751.57342,0.00271
3749.51325,0.00269
3747.45308,0.00268
3745.39291,0.00198
3743.33274,0.00060
3741.27256,0.00000
3739.21239,0.00047
3737.15222,0.00097
3735.09205,0.00071
3733.03188,0.00026
3730.97170,0.00035
3728.91153,0.00057
3726.85136,0.00059
3724.79119,0.00065
3722.73102,0.00099
3720.67084,0.00132
3718.61067,0.00115
3716.55050,0.00085
3714.49033,0.00125
3712.43015,0.00233
3710.36998,0.00302
3708.30981,0.00281
3706.24964,0.00229
3704.18947,0.00180
3702.12929,0.00163
3700.06912,0.00196
3698.00895,0.00225
3695.94878,0.00229
3693.88861,0.00254
3691.82843,0.00308
3689.76826,0.00320
3687.70809,0.00257
3685.64792,0.00192
3683.58775,0.00157
3681.52757,0.00163
3679.46740,0.00218
3677.40723,0.00257
3675.34706,0.00200
3673.28688,0.00124
3671.22671,0.00120
3669.16654,0.00157
3667.10637,0.00186
3665.04620,0.00190
3662.98602,0.00180
3660.92585,0.00188
3658.86568,0.00237
3656.80551,0.00297
3654.74534,0.00315
3652.68516,0.00309
3650.62499,0.00349
3648.56482,0.00410
3646.50465,0.00391
3644.44447,0.00356
3642.38430,0.00372
3640.32413,0.00406
3638.26396,0.00421
3636.20379,0.00420
3634.14361,0.00413
3632.08344,0.00408
3630.02327,0.00451
3627.96310,0.00561
3625.90293,0.00624
3623.84275,0.00589
3621.78258,0.00533
3619.72241,0.00539
3617.66224,0.00596
3615.60207,0.00596
3613.54189,0.00511
3611.48172,0.00470
3609.42155,0.00557
3607.36138,0.00679
3605.30120,0.00744
3603.24103,0.00758
3601.18086,0.00768
3599.12069,0.00795
3597.06052,0.00817
3595.00034,0.00825
3592.94017,0.00848
3590.88000,0.00895
3588.81983,0.00929
3586.75966,0.00930
3584.69948,0.00937
3582.63931,0.00968
3580.57914,0.01007
3578.51897,0.01045
3576.45879,0.01076
3574.39862,0.01114
3572.33845,0.01185
3570.27828,0.01261
3568.21811,0.01295
3566.15793,0.01290
3564.09776,0.01295
3562.03759,0.01331
3559.97742,0.01377
3557.91725,0.01413
3555.85707,0.01454
3553.79690,0.01515
3551.73673,0.01573
3549.67656,0.01590
3547.61639,0.01571
3545.55621,0.01555
3543.49604,0.01584
3541.43587,0.01663
3539.37570,0.01761
3537.31552,0.01827
3535.25535,0.01851
3533.19518,0.01885
3531.13501,0.01936
3529.07484,0.01949
3527.01466,0.01913
3524.95449,0.01922
3522.89432,0.02011
3520.83415,0.02074
3518.77398,0.02057
3516.71380,0.02043
3514.65363,0.02087
3512.59346,0.02135
3510.53329,0.02177
3508.47312,0.02243
3506.41294,0.02294
3504.35277,0.02303
3502.29260,0.02314
3500.23243,0.02354
3498.17225,0.02405
3496.11208,0.02458
3494.05191,0.02496
3491.99174,0.02515
3489.93157,0.02546
3487.87139,0.02613
3485.81122,0.02701
3483.75105,0.02772
3481.69088,0.02784
3479.63071,0.02747
3477.57053,0.02730
3475.51036,0.02763
3473.45019,0.02813
3471.39002,0.02854
3469.32984,0.02912
3467.26967,0.02979
3465.20950,0.03029
3463.14933,0.03083
3461.08916,0.03131
3459.02898,0.03158
3456.96881,0.03181
3454.90864,0.03178
3452.84847,0.03150
3450.78830,0.03182
3448.72812,0.03266
3446.66795,0.03308
3444.60778,0.03297
3442.54761,0.03274
3440.48744,0.03289
3438.42726,0.03341
3436.36709,0.03383
3434.30692,0.03412
3432.24675,0.03448
3430.18657,0.03501
3428.12640,0.03567
3426.06623,0.03606
3424.00606,0.03629
3421.94589,0.03675
3419.88571,0.03719
3417.82554,0.03739
3415.76537,0.03756
3413.70520,0.03791
3411.64503,0.03839
3409.58485,0.03866
3407.52468,0.03875
3405.46451,0.03900
3403.40434,0.03930
3401.34416,0.03932
3399.28399,0.03915
3397.22382,0.03927
3395.16365,0.03971
3393.10348,0.04005
3391.04330,0.04027
3388.98313,0.04069
3386.92296,0.04132
3384.86279,0.04174
3382.80262,0.04166
3380.74244,0.04160
3378.68227,0.04204
3376.62210,0.04245
3374.56193,0.04266
3372.50176,0.04295
3370.44158,0.04307
3368.38141,0.04308
3366.32124,0.04315
3364.26107,0.04319
3362.20089,0.04324
3360.14072,0.04325
3358.08055,0.04344
3356.02038,0.04385
3353.96021,0.04406
3351.90003,0.04401
3349.83986,0.04412
3347.77969,0.04457
3345.71952,0.04474
3343.65935,0.04451
3341.59917,0.04463
3339.53900,0.04516
3337.47883,0.04580
3335.41866,0.04614
3333.35849,0.04579
3331.29831,0.04512
3329.23814,0.04476
3327.17797,0.04486
3325.11780,0.04504
3323.05762,0.04508
3320.99745,0.04518
3318.93728,0.04542
3316.87711,0.04572
3314.81694,0.04607
3312.75676,0.04629
3310.69659,0.04632
3308.63642,0.04632
3306.57625,0.04647
3304.51608,0.04685
3302.45590,0.04730
3300.39573,0.04746
3298.33556,0.04721
3296.27539,0.04678
3294.21521,0.04667
3292.15504,0.04707
3290.09487,0.04748
3288.03470,0.04737
3285.97453,0.04703
3283.91435,0.04685
3281.85418,0.04682
3279.79401,0.04704
3277.73384,0.04746
3275.67367,0.04780
3273.61349,0.04780
3271.55332,0.04744
3269.49315,0.04700
3267.43298,0.04669
3265.37281,0.04647
3263.31263,0.04644
3261.25246,0.04676
3259.19229,0.04723
3257.13212,0.04740
3255.07194,0.04730
3253.01177,0.04716
3250.95160,0.04668
3248.89143,0.04608
3246.83126,0.04581
3244.77108,0.04567
3242.71091,0.04547
3240.65074,0.04533
3238.59057,0.04531
3236.53040,0.04523
3234.47022,0.04519
3232.41005,0.04537
3230.34988,0.04527
3228.28971,0.04457
3226.22954,0.04379
3224.16936,0.04351
3222.10919,0.04377
3220.04902,0.04423
3217.98885,0.04449
3215.92867,0.04441
3213.86850,0.04423
3211.80833,0.04411
3209.74816,0.04388
3207.68799,0.04362
3205.62781,0.04337
3203.56764,0.04290
3201.50747,0.04244
3199.44730,0.04230
3197.38713,0.04228
3195.32695,0.04223
3193.26678,0.04230
3191.20661,0.04228
3189.14644,0.04200
3187.08626,0.04173
3185.02609,0.04164
3182.96592,0.04147
3180.90575,0.04119
3178.84558,0.04100
3176.78540,0.04083
3174.72523,0.04071
3172.66506,0.04077
3170.60489,0.04058
3168.54472,0.03995
3166.48454,0.03936
3164.42437,0.03923
3162.36420,0.03943
3160.30403,0.03957
3158.24386,0.03932
3156.18368,0.03878
3154.12351,0.03823
3152.06334,0.03781
3150.00317,0.03757
3147.94299,0.03750
3145.88282,0.03750
3143.82265,0.03747
3141.76248,0.03733
3139.70231,0.03721
3137.64213,0.03722
3135.58196,0.03716
3133.52179,0.03693
3131.46162,0.03674
3129.40145,0.03651
3127.34127,0.03597
3125.28110,0.03547
3123.22093,0.03549
3121.16076,0.03562
3119.10058,0.03535
3117.04041,0.03490
3114.98024,0.03460
3112.92007,0.03439
3110.85990,0.03419
3108.79972,0.03403
3106.73955,0.03383
3104.67938,0.03364
3102.61921,0.03365
3100.55904,0.03358
3098.49886,0.03316
3096.43869,0.03265
3094.37852,0.03241
3092.31835,0.03244
3090.25818,0.03247
3088.19800,0.03241
3086.13783,0.03249
3084.07766,0.03266
3082.01749,0.03249
3079.95731,0.03183
3077.89714,0.03112
3075.83697,0.03088
3073.77680,0.03087
3071.71663,0.03061
3069.65645,0.03036
3067.59628,0.03044
3065.53611,0.03064
3063.47594,0.03067
3061.41577,0.03043
3059.35559,0.02997
3057.29542,0.02952
3055.23525,0.02953
3053.17508,0.02985
3051.11491,0.02975
3049.05473,0.02924
3046.99456,0.02902
3044.93439,0.02917
3042.87422,0.02916
3040.81404,0.02874
3038.75387,0.02821
3036.69370,0.02789
3034.63353,0.02765
3032.57336,0.02734
3030.51318,0.02705
3028.45301,0.02672
3026.39284,0.02639
3024.33267,0.02622
3022.27250,0.02617
3020.21232,0.02627
3018.15215,0.02635
3016.09198,0.02619
3014.03181,0.02603
3011.97163,0.02585
3009.91146,0.02540
3007.85129,0.02506
3005.79112,0.02520
3003.73095,0.02532
3001.67077,0.02498
2999.61060,0.02447
2997.55043,0.02412
2995.49026,0.02409
2993.43009,0.02446
2991.36991,0.02498
2989.30974,0.02510
2987.24957,0.02486
2985.18940,0.02465
2983.12923,0.02481
2981.06905,0.02532
2979.00888,0.02597
2976.94871,0.02659
2974.88854,0.02696
2972.82836,0.02713
2970.76819,0.02722
2968.70802,0.02742
2966.64785,0.02811
2964.58768,0.02932
2962.52750,0.03059
2960.46733,0.03151
2958.40716,0.03201
2956.34699,0.03257
2954.28682,0.03349
2952.22664,0.03452
2950.16647,0.03559
2948.10630,0.03686
2946.04613,0.03829
2943.98596,0.03980
2941.92578,0.04137
2939.86561,0.04287
2937.80544,0.04449
2935.74527,0.04662
2933.68509,0.04894
2931.62492,0.05092
2929.56475,0.05261
2927.50458,0.05433
2925.44441,0.05605
2923.38423,0.05732
2921.32406,0.05806
2919.26389,0.05851
2917.20372,0.05828
2915.14355,0.05671
2913.08337,0.05402
2911.02320,0.05144
2908.96303,0.04950
2906.90286,0.04780
2904.84268,0.04619
2902.78251,0.04482
2900.72234,0.04372
2898.66217,0.04272
2896.60200,0.04172
2894.54182,0.04082
2892.48165,0.04011
2890.42148,0.03941
2888.36131,0.03870
2886.30114,0.03806
2884.24096,0.03734
2882.18079,0.03656
2880.12062,0.03592
2878.06045,0.03566
2876.00028,0.03568
2873.94010,0.03572
2871.87993,0.03576
2869.81976,0.03587
2867.75959,0.03626
2865.69941,0.03685
2863.63924,0.03745
2861.57907,0.03866
2859.51890,0.04050
2857.45873,0.04236
2855.39855,0.04413
2853.33838,0.04588
2851.27821,0.04747
2849.21804,0.04794
2847.15787,0.04589
2845.09769,0.04200
2843.03752,0.03823
2840.97735,0.03531
2838.91718,0.03305
2836.85700,0.03138
2834.79683,0.03025
2832.73666,0.02940
2830.67649,0.02858
2828.61632,0.02788
2826.55614,0.02738
2824.49597,0.02691
2822.43580,0.02640
2820.37563,0.02589
2818.31546,0.02545
2816.25528,0.02520
2814.19511,0.02513
2812.13494,0.02518
2810.07477,0.02509
2808.01460,0.02480
2805.95442,0.02459
2803.89425,0.02449
2801.83408,0.02432
2799.77391,0.02399
2797.71373,0.02365
2795.65356,0.02338
2793.59339,0.02299
2791.53322,0.02254
2789.47305,0.02215
2787.41287,0.02193
2785.35270,0.02198
2783.29253,0.02218
2781.23236,0.02227
2779.17219,0.02215
2777.11201,0.02204
2775.05184,0.02195
2772.99167,0.02172
2770.93150,0.02154
2768.87133,0.02143
2766.81115,0.02122
2764.75098,0.02095
2762.69081,0.02066
2760.63064,0.02029
2758.57046,0.02008
2756.51029,0.02031
2754.45012,0.02058
2752.38995,0.02061
2750.32978,0.02067
2748.26960,0.02068
2746.20943,0.02063
2744.14926,0.02061
2742.08909,0.02047
2740.02892,0.02008
2737.96874,0.01972
2735.90857,0.01972
2733.84840,0.01984
2731.78823,0.01966
2729.72805,0.01937
2727.66788,0.01937
2725.60771,0.01957
2723.54754,0.01985
2721.48737,0.02012
2719.42719,0.02002
2717.36702,0.01964
2715.30685,0.01951
2713.24668,0.01959
2711.18651,0.01943
2709.12633,0.01921
2707.06616,0.01923
2705.00599,0.01917
2702.94582,0.01896
2700.88565,0.01893
2698.82547,0.01907
2696.76530,0.01908
2694.70513,0.01884
2692.64496,0.01858
2690.58478,0.01863
2688.52461,0.01884
2686.46444,0.01881
2684.40427,0.01862
2682.34410,0.01851
2680.28392,0.01857
2678.22375,0.01869
2676.16358,0.01865
2674.10341,0.01845
2672.04324,0.01822
2669.98306,0.01802
2667.92289,0.01781
2665.86272,0.01772
2663.80255,0.01797
2661.74238,0.01822
2659.68220,0.01809
2657.62203,0.01772
2655.56186,0.01736
2653.50169,0.01711
2651.44151,0.01705
2649.38134,0.01721
2647.32117,0.01745
2645.26100,0.01761
2643.20083,0.01748
2641.14065,0.01713
2639.08048,0.01688
2637.02031,0.01686
2634.96014,0.01698
2632.89997,0.01696
2630.83979,0.01673
2628.77962,0.01654
2626.71945,0.01644
2624.65928,0.01629
2622.59910,0.01606
2620.53893,0.01612
2618.47876,0.01639
2616.41859,0.01642
2614.35842,0.01597
2612.29824,0.01537
2610.23807,0.01518
2608.17790,0.01539
2606.11773,0.01553
2604.05756,0.01538
2601.99738,0.01522
2599.93721,0.01511
2597.87704,0.01491
2595.81687,0.01495
2593.75670,0.01518
2591.69652,0.01497
2589.63635,0.01444
2587.57618,0.01425
2585.51601,0.01444
2583.45583,0.01437
2581.39566,0.01413
2579.33549,0.01420
2577.27532,0.01428
2575.21515,0.01425
2573.15497,0.01417
2571.09480,0.01400
2569.03463,0.01392
2566.97446,0.01392
2564.91429,0.01400
2562.85411,0.01416
2560.79394,0.01415
2558.73377,0.01381
2556.67360,0.01337
2554.61342,0.01311
2552.55325,0.01286
2550.49308,0.01251
2548.43291,0.01257
2546.37274,0.01320
2544.31256,0.01370
2542.25239,0.01366
2540.19222,0.01347
2538.13205,0.01350
2536.07188,0.01359
2534.01170,0.01363
2531.95153,0.01353
2529.89136,0.01336
2527.83119,0.01322
2525.77102,0.01286
2523.71084,0.01272
2521.65067,0.01326
2519.59050,0.01353
2517.53033,0.01280
2515.47015,0.01190
2513.40998,0.01164
2511.34981,0.01184
2509.28964,0.01228
2507.22947,0.01266
2505.16929,0.01274
2503.10912,0.01265
2501.04895,0.01270
2498.98878,0.01286
2496.92861,0.01288
2494.86843,0.01263
2492.80826,0.01219
2490.74809,0.01183
2488.68792,0.01166
2486.62775,0.01156
2484.56757,0.01135
2482.50740,0.01090
2480.44723,0.01077
2478.38706,0.01118
2476.32688,0.01140
2474.26671,0.01142
2472.20654,0.01169
2470.14637,0.01198
2468.08620,0.01188
2466.02602,0.01149
2463.96585,0.01128
2461.90568,0.01124
2459.84551,0.01093
2457.78534,0.01040
2455.72516,0.00995
2453.66499,0.01001
2451.60482,0.01067
2449.54465,0.01134
2447.48447,0.01166
2445.42430,0.01145
2443.36413,0.01068
2441.30396,0.01003
2439.24379,0.00987
2437.18361,0.00986
2435.12344,0.00977
2433.06327,0.00940
2431.00310,0.00897
2428.94293,0.00907
2426.88275,0.00936
2424.82258,0.00956
2422.76241,0.00975
2420.70224,0.00973
2418.64207,0.00958
2416.58189,0.00957
2414.52172,0.00967
2412.46155,0.00963
2410.40138,0.00920
2408.34120,0.00863
2406.28103,0.00842
2404.22086,0.00862
2402.16069,0.00879
2400.10052,0.00865
2398.04034,0.00860
2395.98017,0.00887
2393.92000,0.00916
2391.85983,0.00918
2389.79966,0.00906
2387.73948,0.00910
2385.67931,0.00912
2383.61914,0.00894
2381.55897,0.00889
2379.49880,0.00914
2377.43862,0.00944
2375.37845,0.00936
2373.31828,0.00850
2371.25811,0.00742
2369.19793,0.00737
2367.13776,0.00832
2365.07759,0.00899
2363.01742,0.00891
2360.95725,0.00832
2358.89707,0.00690
2356.83690,0.00506
2354.77673,0.00444
2352.71656,0.00568
2350.65639,0.00744
2348.59621,0.00848
2346.53604,0.00861
2344.47587,0.00796
2342.41570,0.00731
2340.35552,0.00761
2338.29535,0.00819
2336.23518,0.00792
2334.17501,0.00759
2332.11484,0.00812
2330.05466,0.00868
2327.99449,0.00880
2325.93432,0.00918
2323.87415,0.00953
2321.81398,0.00915
2319.75380,0.00860
2317.69363,0.00862
2315.63346,0.00907
2313.57329,0.00904
2311.51312,0.00839
2309.45294,0.00794
2307.39277,0.00786
2305.33260,0.00794
2303.27243,0.00825
2301.21225,0.00844
2299.15208,0.00827
2297.09191,0.00793
2295.03174,0.00769
2292.97157,0.00752
2290.91139,0.00737
2288.85122,0.00739
2286.79105,0.00761
2284.73088,0.00759
2282.67071,0.00701
2280.61053,0.00657
2278.55036,0.00671
2276.49019,0.00682
2274.43002,0.00674
2272.36984,0.00649
2270.30967,0.00625
2268.24950,0.00654
2266.18933,0.00699
2264.12916,0.00713
2262.06898,0.00717
2260.00881,0.00708
2257.94864,0.00715
2255.88847,0.00800
2253.82830,0.00879
2251.76812,0.00859
2249.70795,0.00805
2247.64778,0.00766
2245.58761,0.00704
2243.52744,0.00669
2241.46726,0.00677
2239.40709,0.00671
2237.34692,0.00600
2235.28675,0.00496
2233.22657,0.00455
2231.16640,0.00498
2229.10623,0.00558
2227.04606,0.00537
2224.98589,0.00493
2222.92571,0.00588
2220.86554,0.00743
2218.80537,0.00744
2216.74520,0.00659
2214.68503,0.00634
2212.62485,0.00644
2210.56468,0.00689
2208.50451,0.00731
2206.44434,0.00675
2204.38417,0.00555
2202.32399,0.00521
2200.26382,0.00597
2198.20365,0.00607
2196.14348,0.00562
2194.08330,0.00566
2192.02313,0.00494
2189.96296,0.00320
2187.90279,0.00215
2185.84262,0.00239
2183.78244,0.00237
2181.72227,0.00164
2179.66210,0.00210
2177.60193,0.00389
2175.54176,0.00551
2173.48158,0.00592
2171.42141,0.00502
2169.36124,0.00367
2167.30107,0.00298
2165.24089,0.00479
2163.18072,0.00736
2161.12055,0.00575
2159.06038,0.00194
2157.00021,0.00088
2154.94003,0.00146
2152.87986,0.00094
2150.81969,0.00000
2148.75952,0.00168
2146.69935,0.00504
2144.63917,0.00581
2142.57900,0.00414
2140.51883,0.00343
2138.45866,0.00369
2136.39849,0.00311
2134.33831,0.00235
2132.27814,0.00287
2130.21797,0.00450
2128.15780,0.00534
2126.09762,0.00456
2124.03745,0.00393
2121.97728,0.00448
2119.91711,0.00523
2117.85694,0.00557
2115.79676,0.00568
2113.73659,0.00583
2111.67642,0.00576
2109.61625,0.00558
2107.55608,0.00554
2105.49590,0.00509
2103.43573,0.00457
2101.37556,0.00453
2099.31539,0.00458
2097.25521,0.00469
2095.19504,0.00502
2093.13487,0.00579
2091.07470,0.00690
2089.01453,0.00700
2086.95435,0.00580
2084.89418,0.00480
2082.83401,0.00458
2080.77384,0.00453
2078.71367,0.00402
2076.65349,0.00344
2074.59332,0.00353
2072.53315,0.00427
2070.47298,0.00526
2068.41281,0.00587
2066.35263,0.00550
2064.29246,0.00476
2062.23229,0.00479
2060.17212,0.00469
2058.11194,0.00351
2056.05177,0.00271
2053.99160,0.00328
2051.93143,0.00459
2049.87126,0.00526
2047.81108,0.00424
2045.75091,0.00279
2043.69074,0.00251
2041.63057,0.00303
2039.57040,0.00389
2037.51022,0.00403
2035.45005,0.00298
2033.38988,0.00205
2031.32971,0.00144
2029.26954,0.00132
2027.20936,0.00215
2025.14919,0.00322
2023.08902,0.00422
2021.02885,0.00543
2018.96867,0.00593
2016.90850,0.00459
2014.84833,0.00326
2012.78816,0.00310
2010.72799,0.00288
2008.66781,0.00274
2006.60764,0.00271
2004.54747,0.00236
2002.48730,0.00292
2000.42713,0.00429
1998.36695,0.00469
1996.30678,0.00368
1994.24661,0.00214
1992.18644,0.00162
1990.12626,0.00266
1988.06609,0.00388
1986.00592,0.00437
1983.94575,0.00355
1981.88558,0.00161
1979.82540,0.00095
1977.76523,0.00262
1975.70506,0.00388
1973.64489,0.00306
1971.58472,0.00144
1969.52454,0.00019
1967.46437,0.00000
1965.40420,0.00140
1963.34403,0.00333
1961.28386,0.00394
1959.22368,0.00281
1957.16351,0.00150
1955.10334,0.00136
1953.04317,0.00213
1950.98299,0.00278
1948.92282,0.00254
1946.86265,0.00201
1944.80248,0.00268
1942.74231,0.00380
1940.68213,0.00337
1938.62196,0.00208
1936.56179,0.00176
1934.50162,0.00231
1932.44145,0.00253
1930.38127,0.00234
1928.32110,0.00257
1926.26093,0.00304
1924.20076,0.00292
1922.14059,0.00224
1920.08041,0.00195
1918.02024,0.00248
1915.96007,0.00338
1913.89990,0.00396
1911.83972,0.00392
1909.77955,0.00364
1907.71938,0.00366
1905.65921,0.00372
1903.59904,0.00344
1901.53886,0.00301
1899.47869,0.00273
1897.41852,0.00279
1895.35835,0.00284
1893.29818,0.00255
1891.23800,0.00218
1889.17783,0.00210
1887.11766,0.00219
1885.05749,0.00189
1882.99731,0.00137
1880.93714,0.00119
1878.87697,0.00121
1876.81680,0.00112
1874.75663,0.00106
1872.69645,0.00127
1870.63628,0.00165
1868.57611,0.00182
1866.51594,0.00158
1864.45577,0.00105
1862.39559,0.00062
1860.33542,0.00071
1858.27525,0.00112
1856.21508,0.00136
1854.15491,0.00141
1852.09473,0.00138
1850.03456,0.00138
1847.97439,0.00147
1845.91422,0.00139
1843.85404,0.00115
1841.79387,0.00110
1839.73370,0.00121
1837.67353,0.00139
1835.61336,0.00158
1833.55318,0.00163
1831.49301,0.00162
1829.43284,0.00155
1827.37267,0.00133
1825.31250,0.00124
1823.25232,0.00147
1821.19215,0.00149
1819.13198,0.00102
1817.07181,0.00056
1815.01163,0.00044
1812.95146,0.00039
1810.89129,0.00030
1808.83112,0.00039
1806.77095,0.00060
1804.71077,0.00059
1802.65060,0.00025
1800.59043,0.00000
1798.53026,0.00015
1796.47009,0.00046
1794.40991,0.00063
1792.34974,0.00078
1790.28957,0.00092
1788.22940,0.00093
1786.16923,0.00083
1784.10905,0.00061
1782.04888,0.00023
1779.98871,0.00000
1777.92854,-0.00003
1775.86836,-0.00007
1773.80819,0.00001
1771.74802,0.00058
1769.68785,0.00118
1767.62768,0.00148
1765.56750,0.00177
1763.50733,0.00216
1761.44716,0.00257
1759.38699,0.00322
1757.32682,0.00423
1755.26664,0.00536
1753.20647,0.00638
1751.14630,0.00755
1749.08613,0.00918
1747.02596,0.01124
1744.96578,0.01363
1742.90561,0.01637
1740.84544,0.01985
1738.78527,0.02397
1736.72509,0.02751
1734.66492,0.03003
1732.60475,0.03178
1730.54458,0.03285
1728.48441,0.03351
1726.42423,0.03387
1724.36406,0.03380
1722.30389,0.03335
1720.24372,0.03273
1718.18355,0.03188
1716.12337,0.03122
1714.06320,0.03133
1712.00303,0.03161
1709.94286,0.03139
1707.88268,0.03060
1705.82251,0.02954
1703.76234,0.02862
1701.70217,0.02781
1699.64200,0.02703
1697.58182,0.02666
1695.52165,0.02648
1693.46148,0.02626
1691.40131,0.02621
1689.34114,0.02628
1687.28096,0.02611
1685.22079,0.02547
1683.16062,0.02477
1681.10045,0.02480
1679.04028,0.02538
1676.98010,0.02587
1674.91993,0.02596
1672.85976,0.02598
1670.79959,0.02623
1668.73941,0.02672
1666.67924,0.02757
1664.61907,0.02861
1662.55890,0.02964
1660.49873,0.03074
1658.43855,0.03204
1656.37838,0.03335
1654.31821,0.03417
1652.25804,0.03429
1650.19787,0.03448
1648.13769,0.03493
1646.07752,0.03533
1644.01735,0.03572
1641.95718,0.03623
1639.89701,0.03684
1637.83683,0.03742
1635.77666,0.03781
1633.71649,0.03824
1631.65632,0.03879
1629.59614,0.03917
1627.53597,0.03936
1625.47580,0.03948
1623.41563,0.03945
1621.35546,0.03960
1619.29528,0.04018
1617.23511,0.04081
1615.17494,0.04135
1613.11477,0.04208
1611.05460,0.04294
1608.99442,0.04372
1606.93425,0.04413
1604.87408,0.04401
1602.81391,0.04353
1600.75373,0.04295
1598.69356,0.04230
1596.63339,0.04143
1594.57322,0.04030
1592.51305,0.03899
1590.45287,0.03741
1588.39270,0.03560
1586.33253,0.03397
1584.27236,0.03265
1582.21219,0.03141
1580.15201,0.03018
1578.09184,0.02881
1576.03167,0.02697
1573.97150,0.02526
1571.91133,0.02432
1569.85115,0.02365
1567.79098,0.02280
1565.73081,0.02186
1563.67064,0.02116
1561.61046,0.02072
1559.55029,0.01999
1557.49012,0.01911
1555.42995,0.01899
1553.36978,0.01935
1551.30960,0.01981
1549.24943,0.02017
1547.18926,0.02042
1545.12909,0.02081
1543.06892,0.02146
1541.00874,0.02187
1538.94857,0.02146
1536.88840,0.02099
1534.82823,0.02075
1532.76805,0.02048
1530.70788,0.02016
1528.64771,0.01973
1526.58754,0.01903
1524.52737,0.01817
1522.46719,0.01741
1520.40702,0.01712
1518.34685,0.01742
1516.28668,0.01780
1514.22651,0.01791
1512.16633,0.01791
1510.10616,0.01779
1508.04599,0.01651
1505.98582,0.01380
1503.92565,0.01207
1501.86547,0.01149
1499.80530,0.01102
1497.74513,0.01009
1495.68496,0.00873
1493.62478,0.00756
1491.56461,0.00669
1489.50444,0.00556
1487.44427,0.00423
1485.38410,0.00344
1483.32392,0.00336
1481.26375,0.00368
1479.20358,0.00417
1477.14341,0.00501
1475.08324,0.00664
1473.02306,0.00914
1470.96289,0.01166
1468.90272,0.01367
1466.84255,0.01552
1464.78238,0.01738
1462.72220,0.01896
1460.66203,0.02021
1458.60186,0.02127
1456.54169,0.02226
1454.48151,0.02330
1452.42134,0.02435
1450.36117,0.02533
1448.30100,0.02629
1446.24083,0.02718
1444.18065,0.02792
1442.12048,0.02833
1440.06031,0.02823
1438.00014,0.02742
1435.93997,0.02598
1433.87979,0.02457
1431.81962,0.02345
1429.75945,0.02237
1427.69928,0.02146
1425.63910,0.02098
1423.57893,0.02085
1421.51876,0.02091
1419.45859,0.02079
1417.39842,0.02025
1415.33824,0.01977
1413.27807,0.01953
1411.21790,0.01936
1409.15773,0.01927
1407.09756,0.01925
1405.03738,0.01917
1402.97721,0.01915
1400.91704,0.01925
1398.85687,0.01927
1396.79670,0.01924
1394.73652,0.01924
1392.67635,0.01943
1390.61618,0.01996
1388.55601,0.02065
1386.49583,0.02130
1384.43566,0.02191
1382.37549,0.02264
1380.31532,0.02364
1378.25515,0.02475
1376.19497,0.02563
1374.13480,0.02626
1372.07463,0.02681
1370.01446,0.02729
1367.95429,0.02762
1365.89411,0.02793
1363.83394,0.02824
1361.77377,0.02829
1359.71360,0.02820
1357.65343,0.02826
1355.59325,0.02850
1353.53308,0.02881
1351.47291,0.02909
1349.41274,0.02924
1347.35256,0.02935
1345.29239,0.02963
1343.23222,0.03006
1341.17205,0.03045
1339.11188,0.03075
1337.05170,0.03118
1334.99153,0.03186
1332.93136,0.03261
1330.87119,0.03328
1328.81102,0.03393
1326.75084,0.03460
1324.69067,0.03526
1322.63050,0.03582
1320.57033,0.03630
1318.51015,0.03666
1316.44998,0.03692
1314.38981,0.03711
1312.32964,0.03704
1310.26947,0.03636
1308.20929,0.03509
1306.14912,0.03367
1304.08895,0.03251
1302.02878,0.03136
1299.96861,0.02980
1297.90843,0.02790
1295.84826,0.02600
1293.78809,0.02442
1291.72792,0.02318
1289.66775,0.02230
1287.60757,0.02173
1285.54740,0.02126
1283.48723,0.02082
1281.42706,0.02047
1279.36688,0.02029
1277.30671,0.02029
1275.24654,0.02054
1273.18637,0.02100
1271.12620,0.02145
1269.06602,0.02194
1267.00585,0.02239
1264.94568,0.02267
1262.88551,0.02313
1260.82534,0.02395
1258.76516,0.02467
1256.70499,0.02501
1254.64482,0.02525
1252.58465,0.02570
1250.52447,0.02628
1248.46430,0.02687
1246.40413,0.02748
1244.34396,0.02806
1242.28379,0.02871
1240.22361,0.02957
1238.16344,0.03056
1236.10327,0.03144
1234.04310,0.03204
1231.98293,0.03264
1229.92275,0.03335
1227.86258,0.03393
1225.80241,0.03438
1223.74224,0.03498
1221.68207,0.03585
1219.62189,0.03670
1217.56172,0.03722
1215.50155,0.03757
1213.44138,0.03811
1211.38120,0.03883
1209.32103,0.03958
1207.26086,0.04034
1205.20069,0.04116
1203.14052,0.04193
1201.08034,0.04258
1199.02017,0.04301
1196.96000,0.04310
1194.89983,0.04297
1192.83966,0.04274
1190.77948,0.04253
1188.71931,0.04232
1186.65914,0.04183
1184.59897,0.04120
1182.53880,0.04074
1180.47862,0.04028
1178.41845,0.03988
1176.35828,0.03980
1174.29811,0.04002
1172.23793,0.04043
1170.17776,0.04080
1168.11759,0.04095
1166.05742,0.04094
1163.99725,0.04077
1161.93707,0.04030
1159.87690,0.03951
1157.81673,0.03828
1155.75656,0.03687
1153.69639,0.03592
1151.63621,0.03548
1149.57604,0.03494
1147.51587,0.03402
1145.45570,0.03276
1143.39552,0.03138
1141.33535,0.03019
1139.27518,0.02898
1137.21501,0.02784
1135.15484,0.02716
1133.09466,0.02678
1131.03449,0.02656
1128.97432,0.02681
1126.91415,0.02764
1124.85398,0.02889
1122.79380,0.03033
1120.73363,0.03172
1118.67346,0.03307
1116.61329,0.03465
1114.55312,0.03665
1112.49294,0.03904
1110.43277,0.04153
1108.37260,0.04397
1106.31243,0.04621
1104.25225,0.04827
1102.19208,0.05023
1100.13191,0.05185
1098.07174,0.05321
1096.01157,0.05452
1093.95139,0.05565
1091.89122,0.05672
1089.83105,0.05802
1087.77088,0.05928
1085.71071,0.06077
1083.65053,0.06298
1081.59036,0.06525
1079.53019,0.06693
1077.47002,0.06850
1075.40985,0.07030
1073.34967,0.07194
1071.28950,0.07319
1069.22933,0.07417
1067.16916,0.07501
1065.10898,0.07593
1063.04881,0.07693
1060.98864,0.07781
1058.92847,0.07859
1056.86830,0.07947
1054.80812,0.08060
1052.74795,0.08209
1050.68778,0.08359
1048.62761,0.08461
1046.56744,0.08554
1044.50726,0.08680
1042.44709,0.08822
1040.38692,0.08981
1038.32675,0.09147
1036.26657,0.09322
1034.20640,0.09521
1032.14623,0.09707
1030.08606,0.09844
1028.02589,0.09939
1025.96571,0.10008
1023.90554,0.10064
1021.84537,0.10100
1019.78520,0.10088
1017.72503,0.10056
1015.66485,0.10032
1013.60468,0.09971
1011.54451,0.09878
1009.48434,0.09762
1007.42417,0.09579
1005.36399,0.09345
1003.30382,0.09102
1001.24365,0.08849
999.18348,0.08601
997.12330,0.08368
995.06313,0.08135
993.00296,0.07880
990.94279,0.07605
988.88262,0.07346
986.82244,0.07110
984.76227,0.06868
982.70210,0.06605
980.64193,0.06315
978.58176,0.06020
976.52158,0.05760
974.46141,0.05524
972.40124,0.05281
970.34107,0.05059
968.28089,0.04903
966.22072,0.04788
964.16055,0.04661
962.10038,0.04492
960.04021,0.04293
957.98003,0.04103
955.91986,0.03930
953.85969,0.03752
951.79952,0.03541
949.73935,0.03304
947.67917,0.03077
945.61900,0.02885
943.55883,0.02719
941.49866,0.02552
939.43849,0.02376
937.37831,0.02239
935.31814,0.02187
933.25797,0.02149
931.19780,0.02056
929.13762,0.01954
927.07745,0.01884
925.01728,0.01832
922.95711,0.01782
920.89694,0.01726
918.83676,0.01636
916.77659,0.01501
914.71642,0.01365
912.65625,0.01241
910.59608,0.01131
908.53590,0.01044
906.47573,0.00967
904.41556,0.00913
902.35539,0.00888
900.29522,0.00879
898.23504,0.00887
896.17487,0.00898
894.11470,0.00888
892.05453,0.00850
889.99435,0.00804
887.93418,0.00762
885.87401,0.00692
883.81384,0.00648
881.75367,0.00694
879.69349,0.00747
877.63332,0.00767
875.57315,0.00793
873.51298,0.00777
871.45281,0.00698
869.39263,0.00618
867.33246,0.00545
865.27229,0.00497
863.21212,0.00468
861.15194,0.00385
859.09177,0.00262
857.03160,0.00188
854.97143,0.00166
852.91126,0.00118
850.85108,0.00055
848.79091,0.00030
846.73074,0.00021
844.67057,0.00000
842.61040,0.00004
840.55022,0.00047
838.49005,0.00072
836.42988,0.00085
834.36971,0.00153
832.30954,0.00253
830.24936,0.00274
828.18919,0.00213
826.12902,0.00205
824.06885,0.00265
822.00867,0.00317
819.94850,0.00376
817.88833,0.00391
815.82816,0.00300
813.76799,0.00194
811.70781,0.00152
809.64764,0.00177
807.58747,0.00245
805.52730,0.00252
803.46713,0.00181
801.40695,0.00113
799.34678,0.00041
797.28661,0.00000
795.22644,-0.00009
793.16627,0.00014
791.10609,-0.00032
789.04592,-0.00089
786.98575,-0.00012
784.92558,0.00102
782.86540,0.00110
780.80523,0.00054
778.74506,0.00052
776.68489,0.00107
774.62472,0.00176
772.56454,0.00268
770.50437,0.00386
768.44420,0.00540
766.38403,0.00697
764.32386,0.00824
762.26368,0.00948
760.20351,0.01077
758.14334,0.01165
756.08317,0.01182
754.02299,0.01146
751.96282,0.01103
749.90265,0.01076
747.84248,0.01020
745.78231,0.00881
743.72213,0.00740
741.66196,0.00685
739.60179,0.00587
737.54162,0.00438
735.48145,0.00423
733.42127,0.00535
731.36110,0.00605
729.30093,0.00576
727.24076,0.00527
725.18059,0.00482
723.12041,0.00484
721.06024,0.00536
719.00007,0.00535
716.93990,0.00414
714.87972,0.00216
712.81955,0.00075
710.75938,0.00095
708.69921,0.00219
706.63904,0.00338
704.57886,0.00387
702.51869,0.00405
700.45852,0.00439
698.39835,0.00375
696.33818,0.00183
694.27800,0.00033
692.21783,0.00009
690.15766,0.00069
688.09749,0.00212
686.03731,0.00400
683.97714,0.00453
681.91697,0.00338
679.85680,0.00250
677.79663,0.00238
675.73645,0.00200
673.67628,0.00131
671.61611,0.00038
669.55594,-0.00027
667.49577,0.00092
665.43559,0.00273
663.37542,0.00326
661.31525,0.00354
659.25508,0.00436
657.19491,0.00460
655.13473,0.00399
653.07456,0.00355
651.01439,0.00321
648.95422,0.00221
646.89404,0.00134
644.83387,0.00187
642.77370,0.00302
640.71353,0.00324
638.65336,0.00267
636.59318,0.00270
634.53301,0.00401
632.47284,0.00540
630.41267,0.00525
628.35250,0.00437
626.29232,0.00486
624.23215,0.00586
622.17198,0.00602
620.11181,0.00663
618.05164,0.00859
615.99146,0.01026
613.93129,0.01056
611.87112,0.01052
609.81095,0.00884
607.75077,0.00541
605.69060,0.00299
603.63043,0.00153
601.57026,0.00076
599.51009,0.00000
