3996.73391,0.00077
3994.67373,0.00096
3992.61356,0.00099
3990.55339,0.00083
3988.49322,0.00057
3986.43305,0.00026
3984.37287,0.00000
3982.31270,0.00022
3980.25253,0.00072
3978.19236,0.00084
3976.13219,0.00067
3974.07201,0.00059
3972.01184,0.00059
3969.95167,0.00078
3967.89150,0.00121
3965.83133,0.00156
3963.77115,0.00145
3961.71098,0.00111
3959.65081,0.00097
3957.59064,0.00097
3955.53046,0.00085
3953.47029,0.00074
3951.41012,0.00082
3949.34995,0.00088
3947.28978,0.00073
3945.22960,0.00044
3943.16943,0.00021
3941.10926,0.00037
3939.04909,0.00095
3936.98892,0.00156
3934.92874,0.00169
3932.86857,0.00125
3930.80840,0.00071
3928.74823,0.00056
3926.68805,0.00081
3924.62788,0.00110
3922.56771,0.00120
3920.50754,0.00091
3918.44737,0.00037
3916.38719,0.00024
3914.32702,0.00070
3912.26685,0.00121
3910.20668,0.00149
3908.14651,0.00155
3906.08633,0.00140
3904.02616,0.00129
3901.96599,0.00138
3899.90582,0.00137
3897.84565,0.00102
3895.78547,0.00065
3893.72530,0.00050
3891.66513,0.00041
3889.60496,0.00040
3887.54478,0.00049
3885.48461,0.00062
3883.42444,0.00102
3881.36427,0.00150
3879.30410,0.00154
3877.24392,0.00122
3875.18375,0.00089
3873.12358,0.00078
3871.06341,0.00110
3869.00324,0.00144
3866.94306,0.00129
3864.88289,0.00077
3862.82272,0.00022
3860.76255,0.00000
3858.70237,0.00030
3856.64220,0.00083
3854.58203,0.00109
3852.52186,0.00101
3850.46169,0.00136
3848.40151,0.00191
3846.34134,0.00187
3844.28117,0.00162
3842.22100,0.00191
3840.16083,0.00215
3838.10065,0.00172
3836.04048,0.00161
3833.98031,0.00195
3831.92014,0.00158
3829.85997,0.00066
3827.79979,0.00023
3825.73962,0.00047
3823.67945,0.00080
3821.61928,0.00066
3819.55910,0.00032
3817.49893,0.00047
3815.43876,0.00109
3813.37859,0.00164
3811.31842,0.00179
3809.25824,0.00160
3807.19807,0.00128
3805.13790,0.00112
3803.07773,0.00149
3801.01756,0.00218
3798.95738,0.00247
3796.89721,0.00202
3794.83704,0.00138
3792.77687,0.00131
3790.71670,0.00146
3788.65652,0.00130
3786.59635,0.00100
3784.53618,0.00077
3782.47601,0.00072
3780.41583,0.00093
3778.35566,0.00115
3776.29549,0.00124
3774.23532,0.00130
3772.17515,0.00116
3770.11497,0.00055
3768.05480,0.00001
3765.99463,0.00013
3763.93446,0.00050
3761.87429,0.00073
3759.81411,0.00102
3757.75394,0.00139
3755.69377,0.00178
3753.63360,0.00231
3751.57342,0.00269
3749.51325,0.00244
3747.45308,0.00209
3745.39291,0.00197
3743.33274,0.00150
3741.27256,0.00089
3739.21239,0.00054
3737.15222,0.00019
3735.09205,-0.00000
3733.03188,0.00034
3730.97170,0.00073
3728.91153,0.00072
3726.85136,0.00054
3724.79119,0.00056
3722.73102,0.00051
3720.67084,0.00018
3718.61067,0.00000
3716.55050,0.00037
3714.49033,0.00112
3712.43015,0.00173
3710.36998,0.00191
3708.30981,0.00190
3706.24964,0.00184
3704.18947,0.00154
3702.12929,0.00112
3700.06912,0.00094
3698.00895,0.00098
3695.94878,0.00112
3693.88861,0.00134
3691.82843,0.00137
3689.76826,0.00091
3687.70809,0.00056
3685.64792,0.00087
3683.58775,0.00146
3681.52757,0.00187
3679.46740,0.00173
3677.40723,0.00090
3675.34706,0.00012
3673.28688,0.00030
3671.22671,0.00085
3669.16654,0.00093
3667.10637,0.00064
3665.04620,0.00059
3662.98602,0.00093
3660.92585,0.00147
3658.86568,0.00200
3656.80551,0.00229
3654.74534,0.00234
3652.68516,0.00246
3650.62499,0.00287
3648.56482,0.00347
3646.50465,0.00372
3644.44447,0.00370
3642.38430,0.00391
3640.32413,0.00445
3638.26396,0.00484
3636.20379,0.00475
3634.14361,0.00462
3632.08344,0.00486
3630.02327,0.00529
3627.96310,0.00589
3625.90293,0.00668
3623.84275,0.00710
3621.78258,0.00670
3619.72241,0.00583
3617.66224,0.00529
3615.60207,0.00539
3613.54189,0.00578
3611.48172,0.00605
3609.42155,0.00642
3607.36138,0.00712
3605.30120,0.00782
3603.24103,0.00830
3601.18086,0.00849
3599.12069,0.00859
3597.06052,0.00896
3595.00034,0.00966
3592.94017,0.01031
3590.88000,0.01050
3588.81983,0.01010
3586.75966,0.00971
3584.69948,0.00984
3582.63931,0.01005
3580.57914,0.01026
3578.51897,0.01076
3576.45879,0.01138
3574.39862,0.01187
3572.33845,0.01244
3570.27828,0.01310
3568.21811,0.01325
3566.15793,0.01283
3564.09776,0.01285
3562.03759,0.01366
3559.97742,0.01461
3557.91725,0.01517
3555.85707,0.01546
3553.79690,0.01617
3551.73673,0.01730
3549.67656,0.01787
3547.61639,0.01740
3545.55621,0.01663
3543.49604,0.01646
3541.43587,0.01705
3539.37570,0.01808
3537.31552,0.01901
3535.25535,0.01976
3533.19518,0.02048
3531.13501,0.02097
3529.07484,0.02107
3527.01466,0.02093
3524.95449,0.02128
3522.89432,0.02225
3520.83415,0.02281
3518.77398,0.02266
3516.71380,0.02248
3514.65363,0.02249
3512.59346,0.02271
3510.53329,0.02358
3508.47312,0.02481
3506.41294,0.02532
3504.35277,0.02491
3502.29260,0.02449
3500.23243,0.02481
3498.17225,0.02563
3496.11208,0.02653
3494.05191,0.02722
3491.99174,0.02737
3489.93157,0.02729
3487.87139,0.02767
3485.81122,0.02848
3483.75105,0.02924
3481.69088,0.02973
3479.63071,0.03009
3477.57053,0.03044
3475.51036,0.03072
3473.45019,0.03082
3471.39002,0.03098
3469.32984,0.03151
3467.26967,0.03200
3465.20950,0.03206
3463.14933,0.03203
3461.08916,0.03215
3459.02898,0.03241
3456.96881,0.03288
3454.90864,0.03336
3452.84847,0.03384
3450.78830,0.03475
3448.72812,0.03557
3446.66795,0.03544
3444.60778,0.03484
3442.54761,0.03481
3440.48744,0.03536
3438.42726,0.03588
3436.36709,0.03619
3434.30692,0.03664
3432.24675,0.03741
3430.18657,0.03822
3428.12640,0.03863
3426.06623,0.03863
3424.00606,0.03889
3421.94589,0.03951
3419.88571,0.03975
3417.82554,0.03958
3415.76537,0.03959
3413.70520,0.03998
3411.64503,0.04061
3409.58485,0.04127
3407.52468,0.04172
3405.46451,0.04175
3403.40434,0.04164
3401.34416,0.04164
3399.28399,0.04171
3397.22382,0.04189
3395.16365,0.04213
3393.10348,0.04234
3391.04330,0.04265
3388.98313,0.04325
3386.92296,0.04398
3384.86279,0.04443
3382.80262,0.04457
3380.74244,0.04484
3378.68227,0.04532
3376.62210,0.04546
3374.56193,0.04517
3372.50176,0.04491
3370.44158,0.04494
3368.38141,0.04518
3366.32124,0.04554
3364.26107,0.04594
3362.20089,0.04607
3360.14072,0.04609
3358.08055,0.04640
3356.02038,0.04675
3353.96021,0.04701
3351.90003,0.04729
3349.83986,0.04755
3347.77969,0.04773
3345.71952,0.04763
3343.65935,0.04733
3341.59917,0.04732
3339.53900,0.04778
3337.47883,0.04849
3335.41866,0.04886
3333.35849,0.04881
3331.29831,0.04879
3329.23814,0.04875
3327.17797,0.04845
3325.11780,0.04819
3323.05762,0.04838
3320.99745,0.04881
3318.93728,0.04899
3316.87711,0.04891
3314.81694,0.04873
3312.75676,0.04851
3310.69659,0.04847
3308.63642,0.04879
3306.57625,0.04914
3304.51608,0.04929
3302.45590,0.04949
3300.39573,0.04990
3298.33556,0.05009
3296.27539,0.04960
3294.21521,0.04896
3292.15504,0.04901
3290.09487,0.04972
3288.03470,0.05037
3285.97453,0.05048
3283.91435,0.05011
3281.85418,0.04973
3279.79401,0.04982
3277.73384,0.05010
3275.67367,0.05026
3273.61349,0.05021
3271.55332,0.04988
3269.49315,0.04954
3267.43298,0.04940
3265.37281,0.04914
3263.31263,0.04861
3261.25246,0.04836
3259.19229,0.04869
3257.13212,0.04916
3255.07194,0.04931
3253.01177,0.04905
3250.95160,0.04850
3248.89143,0.04818
3246.83126,0.04841
3244.77108,0.04854
3242.71091,0.04826
3240.65074,0.04818
3238.59057,0.04844
3236.53040,0.04854
3234.47022,0.04849
3232.41005,0.04837
3230.34988,0.04787
3228.28971,0.04717
3226.22954,0.04665
3224.16936,0.04632
3222.10919,0.04619
3220.04902,0.04635
3217.98885,0.04646
3215.92867,0.04615
3213.86850,0.04573
3211.80833,0.04561
3209.74816,0.04563
3207.68799,0.04558
3205.62781,0.04534
3203.56764,0.04480
3201.50747,0.04429
3199.44730,0.04419
3197.38713,0.04427
3195.32695,0.04423
3193.26678,0.04404
3191.20661,0.04378
3189.14644,0.04361
3187.08626,0.04367
3185.02609,0.04388
3182.96592,0.04379
3180.90575,0.04326
3178.84558,0.04279
3176.78540,0.04240
3174.72523,0.04193
3172.66506,0.04162
3170.60489,0.04138
3168.54472,0.04104
3166.48454,0.04088
3164.42437,0.04100
3162.36420,0.04113
3160.30403,0.04090
3158.24386,0.04017
3156.18368,0.03945
3154.12351,0.03939
3152.06334,0.03964
3150.00317,0.03954
3147.94299,0.03925
3145.88282,0.03897
3143.82265,0.03868
3141.76248,0.03865
3139.70231,0.03877
3137.64213,0.03863
3135.58196,0.03843
3133.52179,0.03830
3131.46162,0.03793
3129.40145,0.03750
3127.34127,0.03715
3125.28110,0.03676
3123.22093,0.03651
3121.16076,0.03638
3119.10058,0.03617
3117.04041,0.03611
3114.98024,0.03618
3112.92007,0.03604
3110.85990,0.03577
3108.79972,0.03545
3106.73955,0.03499
3104.67938,0.03460
3102.61921,0.03438
3100.55904,0.03428
3098.49886,0.03429
3096.43869,0.03414
3094.37852,0.03391
3092.31835,0.03392
3090.25818,0.03397
3088.19800,0.03376
3086.13783,0.03339
3084.07766,0.03310
3082.01749,0.03316
3079.95731,0.03323
3077.89714,0.03294
3075.83697,0.03260
3073.77680,0.03231
3071.71663,0.03197
3069.65645,0.03197
3067.59628,0.03231
3065.53611,0.03225
3063.47594,0.03162
3061.41577,0.03098
3059.35559,0.03075
3057.29542,0.03078
3055.23525,0.03071
3053.17508,0.03057
3051.11491,0.03055
3049.05473,0.03049
3046.99456,0.03029
3044.93439,0.03008
3042.87422,0.02975
3040.81404,0.02914
3038.75387,0.02850
3036.69370,0.02812
3034.63353,0.02792
3032.57336,0.02789
3030.51318,0.02794
3028.45301,0.02767
3026.39284,0.02722
3024.33267,0.02704
3022.27250,0.02706
3020.21232,0.02698
3018.15215,0.02681
3016.09198,0.02670
3014.03181,0.02663
3011.97163,0.02648
3009.91146,0.02615
3007.85129,0.02574
3005.79112,0.02559
3003.73095,0.02561
3001.67077,0.02550
2999.61060,0.02530
2997.55043,0.02516
2995.49026,0.02516
2993.43009,0.02526
2991.36991,0.02542
2989.30974,0.02563
2987.24957,0.02576
2985.18940,0.02577
2983.12923,0.02590
2981.06905,0.02615
2979.00888,0.02652
2976.94871,0.02724
2974.88854,0.02799
2972.82836,0.02852
2970.76819,0.02875
2968.70802,0.02905
2966.64785,0.02993
2964.58768,0.03115
2962.52750,0.03231
2960.46733,0.03322
2958.40716,0.03404
2956.34699,0.03519
2954.28682,0.03648
2952.22664,0.03764
2950.16647,0.03874
2948.10630,0.03990
2946.04613,0.04136
2943.98596,0.04304
2941.92578,0.04480
2939.86561,0.04671
2937.80544,0.04876
2935.74527,0.05098
2933.68509,0.05349
2931.62492,0.05605
2929.56475,0.05830
2927.50458,0.06038
2925.44441,0.06255
2923.38423,0.06470
2921.32406,0.06639
2919.26389,0.06735
2917.20372,0.06765
2915.14355,0.06647
2913.08337,0.06329
2911.02320,0.05934
2908.96303,0.05604
2906.90286,0.05363
2904.84268,0.05177
2902.78251,0.05019
2900.72234,0.04879
2898.66217,0.04738
2896.60200,0.04607
2894.54182,0.04494
2892.48165,0.04390
2890.42148,0.04294
2888.36131,0.04200
2886.30114,0.04111
2884.24096,0.04029
2882.18079,0.03940
2880.12062,0.03853
2878.06045,0.03791
2876.00028,0.03771
2873.94010,0.03788
2871.87993,0.03831
2869.81976,0.03882
2867.75959,0.03914
2865.69941,0.03955
2863.63924,0.04061
2861.57907,0.04233
2859.51890,0.04438
2857.45873,0.04676
2855.39855,0.04939
2853.33838,0.05199
2851.27821,0.05431
2849.21804,0.05502
2847.15787,0.05248
2845.09769,0.04760
2843.03752,0.04263
2840.97735,0.03863
2838.91718,0.03586
2836.85700,0.03404
2834.79683,0.03254
2832.73666,0.03128
2830.67649,0.03046
2828.61632,0.02993
2826.55614,0.02928
2824.49597,0.02838
2822.43580,0.02742
2820.37563,0.02663
2818.31546,0.02629
2816.25528,0.02632
2814.19511,0.02645
2812.13494,0.02654
2810.07477,0.02644
2808.01460,0.02602
2805.95442,0.02537
2803.89425,0.02486
2801.83408,0.02468
2799.77391,0.02445
2797.71373,0.02410
2795.65356,0.02389
2793.59339,0.02370
2791.53322,0.02340
2789.47305,0.02301
2787.41287,0.02266
2785.35270,0.02267
2783.29253,0.02290
2781.23236,0.02287
2779.17219,0.02269
2777.11201,0.02261
2775.05184,0.02254
2772.99167,0.02249
2770.93150,0.02245
2768.87133,0.02217
2766.81115,0.02177
2764.75098,0.02134
2762.69081,0.02082
2760.63064,0.02049
2758.57046,0.02053
2756.51029,0.02074
2754.45012,0.02087
2752.38995,0.02096
2750.32978,0.02119
2748.26960,0.02137
2746.20943,0.02137
2744.14926,0.02124
2742.08909,0.02090
2740.02892,0.02055
2737.96874,0.02039
2735.90857,0.02042
2733.84840,0.02044
2731.78823,0.02018
2729.72805,0.01988
2727.66788,0.01989
2725.60771,0.01998
2723.54754,0.02005
2721.48737,0.02018
2719.42719,0.02011
2717.36702,0.01994
2715.30685,0.01992
2713.24668,0.01982
2711.18651,0.01962
2709.12633,0.01951
2707.06616,0.01959
2705.00599,0.01983
2702.94582,0.01988
2700.88565,0.01963
2698.82547,0.01947
2696.76530,0.01938
2694.70513,0.01910
2692.64496,0.01879
2690.58478,0.01876
2688.52461,0.01891
2686.46444,0.01905
2684.40427,0.01911
2682.34410,0.01900
2680.28392,0.01895
2678.22375,0.01897
2676.16358,0.01869
2674.10341,0.01821
2672.04324,0.01783
2669.98306,0.01765
2667.92289,0.01755
2665.86272,0.01761
2663.80255,0.01796
2661.74238,0.01823
2659.68220,0.01814
2657.62203,0.01787
2655.56186,0.01760
2653.50169,0.01740
2651.44151,0.01733
2649.38134,0.01744
2647.32117,0.01761
2645.26100,0.01761
2643.20083,0.01744
2641.14065,0.01737
2639.08048,0.01747
2637.02031,0.01758
2634.96014,0.01762
2632.89997,0.01753
2630.83979,0.01729
2628.77962,0.01699
2626.71945,0.01665
2624.65928,0.01619
2622.59910,0.01591
2620.53893,0.01605
2618.47876,0.01628
2616.41859,0.01637
2614.35842,0.01626
2612.29824,0.01614
2610.23807,0.01620
2608.17790,0.01613
2606.11773,0.01569
2604.05756,0.01506
2601.99738,0.01477
2599.93721,0.01479
2597.87704,0.01476
2595.81687,0.01477
2593.75670,0.01492
2591.69652,0.01487
2589.63635,0.01457
2587.57618,0.01450
2585.51601,0.01444
2583.45583,0.01429
2581.39566,0.01445
2579.33549,0.01458
2577.27532,0.01443
2575.21515,0.01424
2573.15497,0.01384
2571.09480,0.01350
2569.03463,0.01348
2566.97446,0.01350
2564.91429,0.01372
2562.85411,0.01418
2560.79394,0.01462
2558.73377,0.01477
2556.67360,0.01430
2554.61342,0.01348
2552.55325,0.01293
2550.49308,0.01275
2548.43291,0.01297
2546.37274,0.01339
2544.31256,0.01332
2542.25239,0.01306
2540.19222,0.01362
2538.13205,0.01446
2536.07188,0.01444
2534.01170,0.01397
2531.95153,0.01350
2529.89136,0.01297
2527.83119,0.01283
2525.77102,0.01310
2523.71084,0.01346
2521.65067,0.01378
2519.59050,0.01374
2517.53033,0.01318
2515.47015,0.01255
2513.40998,0.01227
2511.34981,0.01229
2509.28964,0.01248
2507.22947,0.01274
2505.16929,0.01274
2503.10912,0.01235
2501.04895,0.01206
2498.98878,0.01229
2496.92861,0.01269
2494.86843,0.01264
2492.80826,0.01222
2490.74809,0.01168
2488.68792,0.01088
2486.62775,0.01033
2484.56757,0.01064
2482.50740,0.01136
2480.44723,0.01153
2478.38706,0.01122
2476.32688,0.01094
2474.26671,0.01087
2472.20654,0.01122
2470.14637,0.01160
2468.08620,0.01131
2466.02602,0.01072
2463.96585,0.01072
2461.90568,0.01116
2459.84551,0.01122
2457.78534,0.01077
2455.72516,0.01016
2453.66499,0.01005
2451.60482,0.01057
2449.54465,0.01097
2447.48447,0.01117
2445.42430,0.01142
2443.36413,0.01140
2441.30396,0.01102
2439.24379,0.01069
2437.18361,0.01062
2435.12344,0.01053
2433.06327,0.01010
2431.00310,0.00976
2428.94293,0.00982
2426.88275,0.00990
2424.82258,0.01001
2422.76241,0.01027
2420.70224,0.01051
2418.64207,0.01074
2416.58189,0.01064
2414.52172,0.01029
2412.46155,0.01009
2410.40138,0.00974
2408.34120,0.00924
2406.28103,0.00917
2404.22086,0.00926
2402.16069,0.00902
2400.10052,0.00880
2398.04034,0.00900
2395.98017,0.00944
2393.92000,0.00959
2391.85983,0.00921
2389.79966,0.00867
2387.73948,0.00848
2385.67931,0.00857
2383.61914,0.00865
2381.55897,0.00893
2379.49880,0.00958
2377.43862,0.01013
2375.37845,0.00968
2373.31828,0.00825
2371.25811,0.00674
2369.19793,0.00564
2367.13776,0.00584
2365.07759,0.00736
2363.01742,0.00818
2360.95725,0.00896
2358.89707,0.00904
2356.83690,0.00779
2354.77673,0.00561
2352.71656,0.00553
2350.65639,0.00881
2348.59621,0.01105
2346.53604,0.00875
2344.47587,0.00697
2342.41570,0.00694
2340.35552,0.00825
2338.29535,0.00979
2336.23518,0.01029
2334.17501,0.01032
2332.11484,0.01022
2330.05466,0.00985
2327.99449,0.00932
2325.93432,0.00955
2323.87415,0.00959
2321.81398,0.00945
2319.75380,0.00922
2317.69363,0.00943
2315.63346,0.00894
2313.57329,0.00800
2311.51312,0.00764
2309.45294,0.00772
2307.39277,0.00767
2305.33260,0.00767
2303.27243,0.00803
2301.21225,0.00850
2299.15208,0.00892
2297.09191,0.00888
2295.03174,0.00833
2292.97157,0.00769
2290.91139,0.00715
2288.85122,0.00681
2286.79105,0.00690
2284.73088,0.00729
2282.67071,0.00742
2280.61053,0.00725
2278.55036,0.00729
2276.49019,0.00753
2274.43002,0.00769
2272.36984,0.00772
2270.30967,0.00767
2268.24950,0.00739
2266.18933,0.00702
2264.12916,0.00692
2262.06898,0.00681
2260.00881,0.00670
2257.94864,0.00736
2255.88847,0.00837
2253.82830,0.00853
2251.76812,0.00783
2249.70795,0.00717
2247.64778,0.00699
2245.58761,0.00712
2243.52744,0.00752
2241.46726,0.00770
2239.40709,0.00713
2237.34692,0.00607
2235.28675,0.00573
2233.22657,0.00625
2231.16640,0.00643
2229.10623,0.00643
2227.04606,0.00653
2224.98589,0.00636
2222.92571,0.00626
2220.86554,0.00618
2218.80537,0.00531
2216.74520,0.00451
2214.68503,0.00488
2212.62485,0.00586
2210.56468,0.00665
2208.50451,0.00633
2206.44434,0.00511
2204.38417,0.00421
2202.32399,0.00472
2200.26382,0.00615
2198.20365,0.00638
2196.14348,0.00568
2194.08330,0.00525
2192.02313,0.00472
2189.96296,0.00400
2187.90279,0.00333
2185.84262,0.00298
2183.78244,0.00295
2181.72227,0.00309
2179.66210,0.00325
2177.60193,0.00382
2175.54176,0.00480
2173.48158,0.00499
2171.42141,0.00429
2169.36124,0.00314
2167.30107,0.00228
2165.24089,0.00345
2163.18072,0.00502
2161.12055,0.00368
2159.06038,0.00148
2157.00021,0.00069
2154.94003,0.00048
2152.87986,0.00111
2150.81969,0.00265
2148.75952,0.00440
2146.69935,0.00487
2144.63917,0.00337
2142.57900,0.00212
2140.51883,0.00295
2138.45866,0.00419
2136.39849,0.00402
2134.33831,0.00402
2132.27814,0.00512
2130.21797,0.00555
2128.15780,0.00514
2126.09762,0.00499
2124.03745,0.00519
2121.97728,0.00505
2119.91711,0.00457
2117.85694,0.00451
2115.79676,0.00481
2113.73659,0.00525
2111.67642,0.00519
2109.61625,0.00427
2107.55608,0.00366
2105.49590,0.00434
2103.43573,0.00603
2101.37556,0.00732
2099.31539,0.00687
2097.25521,0.00520
2095.19504,0.00400
2093.13487,0.00384
2091.07470,0.00421
2089.01453,0.00461
2086.95435,0.00501
2084.89418,0.00502
2082.83401,0.00435
2080.77384,0.00387
2078.71367,0.00408
2076.65349,0.00473
2074.59332,0.00524
2072.53315,0.00534
2070.47298,0.00516
2068.41281,0.00480
2066.35263,0.00467
2064.29246,0.00479
2062.23229,0.00478
2060.17212,0.00482
2058.11194,0.00503
2056.05177,0.00484
2053.99160,0.00444
2051.93143,0.00459
2049.87126,0.00456
2047.81108,0.00345
2045.75091,0.00240
2043.69074,0.00277
2041.63057,0.00360
2039.57040,0.00354
2037.51022,0.00317
2035.45005,0.00301
2033.38988,0.00264
2031.32971,0.00209
2029.26954,0.00216
2027.20936,0.00329
2025.14919,0.00385
2023.08902,0.00218
2021.02885,0.00041
2018.96867,0.00079
2016.90850,0.00183
2014.84833,0.00253
2012.78816,0.00295
2010.72799,0.00241
2008.66781,0.00181
2006.60764,0.00213
2004.54747,0.00262
2002.48730,0.00325
2000.42713,0.00402
1998.36695,0.00473
1996.30678,0.00521
1994.24661,0.00416
1992.18644,0.00232
1990.12626,0.00254
1988.06609,0.00472
1986.00592,0.00595
1983.94575,0.00484
1981.88558,0.00280
1979.82540,0.00128
1977.76523,0.00028
1975.70506,0.00000
1973.64489,0.00096
1971.58472,0.00216
1969.52454,0.00253
1967.46437,0.00233
1965.40420,0.00194
1963.34403,0.00165
1961.28386,0.00169
1959.22368,0.00180
1957.16351,0.00178
1955.10334,0.00191
1953.04317,0.00220
1950.98299,0.00254
1948.92282,0.00263
1946.86265,0.00247
1944.80248,0.00276
1942.74231,0.00320
1940.68213,0.00273
1938.62196,0.00198
1936.56179,0.00211
1934.50162,0.00288
1932.44145,0.00296
1930.38127,0.00183
1928.32110,0.00111
1926.26093,0.00150
1924.20076,0.00173
1922.14059,0.00146
1920.08041,0.00132
1918.02024,0.00146
1915.96007,0.00186
1913.89990,0.00228
1911.83972,0.00230
1909.77955,0.00205
1907.71938,0.00219
1905.65921,0.00270
1903.59904,0.00292
1901.53886,0.00269
1899.47869,0.00265
1897.41852,0.00302
1895.35835,0.00321
1893.29818,0.00295
1891.23800,0.00252
1889.17783,0.00215
1887.11766,0.00191
1885.05749,0.00160
1882.99731,0.00134
1880.93714,0.00165
1878.87697,0.00212
1876.81680,0.00203
1874.75663,0.00150
1872.69645,0.00098
1870.63628,0.00071
1868.57611,0.00074
1866.51594,0.00082
1864.45577,0.00081
1862.39559,0.00082
1860.33542,0.00077
1858.27525,0.00065
1856.21508,0.00073
1854.15491,0.00095
1852.09473,0.00096
1850.03456,0.00096
1847.97439,0.00108
1845.91422,0.00100
1843.85404,0.00091
1841.79387,0.00114
1839.73370,0.00124
1837.67353,0.00096
1835.61336,0.00058
1833.55318,0.00033
1831.49301,0.00032
1829.43284,0.00067
1827.37267,0.00099
1825.31250,0.00089
1823.25232,0.00074
1821.19215,0.00081
1819.13198,0.00080
1817.07181,0.00055
1815.01163,0.00039
1812.95146,0.00039
1810.89129,0.00025
1808.83112,0.00007
1806.77095,0.00016
1804.71077,0.00025
1802.65060,0.00004
1800.59043,-0.00017
1798.53026,-0.00005
1796.47009,0.00021
1794.40991,0.00030
1792.34974,0.00017
1790.28957,0.00015
1788.22940,0.00045
1786.16923,0.00063
1784.10905,0.00041
1782.04888,0.00007
1779.98871,0.00000
1777.92854,0.00008
1775.86836,0.00022
1773.80819,0.00047
1771.74802,0.00079
1769.68785,0.00089
1767.62768,0.00106
1765.56750,0.00168
1763.50733,0.00252
1761.44716,0.00323
1759.38699,0.00387
1757.32682,0.00472
1755.26664,0.00568
1753.20647,0.00655
1751.14630,0.00761
1749.08613,0.00926
1747.02596,0.01155
1744.96578,0.01431
1742.90561,0.01745
1740.84544,0.02137
1738.78527,0.02619
1736.72509,0.03070
1734.66492,0.03437
1732.60475,0.03695
1730.54458,0.03794
1728.48441,0.03805
1726.42423,0.03793
1724.36406,0.03738
1722.30389,0.03636
1720.24372,0.03529
1718.18355,0.03423
1716.12337,0.03350
1714.06320,0.03350
1712.00303,0.03394
1709.94286,0.03422
1707.88268,0.03375
1705.82251,0.03241
1703.76234,0.03095
1701.70217,0.02977
1699.64200,0.02867
1697.58182,0.02784
1695.52165,0.02742
1693.46148,0.02741
1691.40131,0.02757
1689.34114,0.02759
1687.28096,0.02733
1685.22079,0.02664
1683.16062,0.02597
1681.10045,0.02620
1679.04028,0.02694
1676.98010,0.02737
1674.91993,0.02732
1672.85976,0.02724
1670.79959,0.02761
1668.73941,0.02852
1666.67924,0.02968
1664.61907,0.03061
1662.55890,0.03138
1660.49873,0.03252
1658.43855,0.03395
1656.37838,0.03499
1654.31821,0.03530
1652.25804,0.03545
1650.19787,0.03621
1648.13769,0.03690
1646.07752,0.03719
1644.01735,0.03757
1641.95718,0.03815
1639.89701,0.03871
1637.83683,0.03904
1635.77666,0.03916
1633.71649,0.03959
1631.65632,0.04034
1629.59614,0.04093
1627.53597,0.04125
1625.47580,0.04133
1623.41563,0.04136
1621.35546,0.04184
1619.29528,0.04273
1617.23511,0.04350
1615.17494,0.04407
1613.11477,0.04467
1611.05460,0.04530
1608.99442,0.04595
1606.93425,0.04648
1604.87408,0.04661
1602.81391,0.04625
1600.75373,0.04562
1598.69356,0.04487
1596.63339,0.04374
1594.57322,0.04209
1592.51305,0.04031
1590.45287,0.03862
1588.39270,0.03693
1586.33253,0.03520
1584.27236,0.03352
1582.21219,0.03212
1580.15201,0.03110
1578.09184,0.02996
1576.03167,0.02819
1573.97150,0.02654
1571.91133,0.02541
1569.85115,0.02420
1567.79098,0.02315
1565.73081,0.02261
1563.67064,0.02218
1561.61046,0.02156
1559.55029,0.02058
1557.49012,0.01988
1555.42995,0.02024
1553.36978,0.02096
1551.30960,0.02156
1549.24943,0.02194
1547.18926,0.02198
1545.12909,0.02169
1543.06892,0.02146
1541.00874,0.02169
1538.94857,0.02216
1536.88840,0.02243
1534.82823,0.02213
1532.76805,0.02132
1530.70788,0.02067
1528.64771,0.02026
1526.58754,0.01964
1524.52737,0.01879
1522.46719,0.01808
1520.40702,0.01783
1518.34685,0.01811
1516.28668,0.01867
1514.22651,0.01927
1512.16633,0.01968
1510.10616,0.01944
1508.04599,0.01763
1505.98582,0.01477
1503.92565,0.01353
1501.86547,0.01339
1499.80530,0.01285
1497.74513,0.01134
1495.68496,0.00945
1493.62478,0.00821
1491.56461,0.00740
1489.50444,0.00628
1487.44427,0.00513
1485.38410,0.00464
1483.32392,0.00476
1481.26375,0.00518
1479.20358,0.00573
1477.14341,0.00659
1475.08324,0.00832
1473.02306,0.01114
1470.96289,0.01419
1468.90272,0.01668
1466.84255,0.01884
1464.78238,0.02085
1462.72220,0.02236
1460.66203,0.02315
1458.60186,0.02361
1456.54169,0.02455
1454.48151,0.02600
1452.42134,0.02732
1450.36117,0.02839
1448.30100,0.02930
1446.24083,0.03004
1444.18065,0.03055
1442.12048,0.03083
1440.06031,0.03074
1438.00014,0.03003
1435.93997,0.02879
1433.87979,0.02760
1431.81962,0.02642
1429.75945,0.02502
1427.69928,0.02382
1425.63910,0.02309
1423.57893,0.02262
1421.51876,0.02231
1419.45859,0.02194
1417.39842,0.02153
1415.33824,0.02141
1413.27807,0.02139
1411.21790,0.02121
1409.15773,0.02101
1407.09756,0.02087
1405.03738,0.02066
1402.97721,0.02044
1400.91704,0.02034
1398.85687,0.02034
1396.79670,0.02042
1394.73652,0.02055
1392.67635,0.02089
1390.61618,0.02144
1388.55601,0.02202
1386.49583,0.02271
1384.43566,0.02362
1382.37549,0.02463
1380.31532,0.02573
1378.25515,0.02692
1376.19497,0.02800
1374.13480,0.02881
1372.07463,0.02945
1370.01446,0.02995
1367.95429,0.03018
1365.89411,0.03025
1363.83394,0.03034
1361.77377,0.03034
1359.71360,0.03029
1357.65343,0.03043
1355.59325,0.03079
1353.53308,0.03119
1351.47291,0.03147
1349.41274,0.03166
1347.35256,0.03190
1345.29239,0.03222
1343.23222,0.03259
1341.17205,0.03300
1339.11188,0.03345
1337.05170,0.03404
1334.99153,0.03478
1332.93136,0.03544
1330.87119,0.03597
1328.81102,0.03669
1326.75084,0.03767
1324.69067,0.03860
1322.63050,0.03942
1320.57033,0.04005
1318.51015,0.04021
1316.44998,0.04008
1314.38981,0.04007
1312.32964,0.03995
1310.26947,0.03935
1308.20929,0.03836
1306.14912,0.03711
1304.08895,0.03568
1302.02878,0.03411
1299.96861,0.03238
1297.90843,0.03063
1295.84826,0.02895
1293.78809,0.02735
1291.72792,0.02604
1289.66775,0.02524
1287.60757,0.02481
1285.54740,0.02445
1283.48723,0.02414
1281.42706,0.02388
1279.36688,0.02367
1277.30671,0.02366
1275.24654,0.02395
1273.18637,0.02436
1271.12620,0.02490
1269.06602,0.02571
1267.00585,0.02646
1264.94568,0.02684
1262.88551,0.02728
1260.82534,0.02800
1258.76516,0.02875
1256.70499,0.02931
1254.64482,0.02965
1252.58465,0.03007
1250.52447,0.03079
1248.46430,0.03174
1246.40413,0.03276
1244.34396,0.03360
1242.28379,0.03434
1240.22361,0.03525
1238.16344,0.03613
1236.10327,0.03674
1234.04310,0.03738
1231.98293,0.03825
1229.92275,0.03905
1227.86258,0.03954
1225.80241,0.03999
1223.74224,0.04067
1221.68207,0.04154
1219.62189,0.04241
1217.56172,0.04292
1215.50155,0.04296
1213.44138,0.04307
1211.38120,0.04371
1209.32103,0.04476
1207.26086,0.04579
1205.20069,0.04666
1203.14052,0.04750
1201.08034,0.04827
1199.02017,0.04892
1196.96000,0.04931
1194.89983,0.04923
1192.83966,0.04891
1190.77948,0.04869
1188.71931,0.04841
1186.65914,0.04801
1184.59897,0.04760
1182.53880,0.04725
1180.47862,0.04690
1178.41845,0.04657
1176.35828,0.04651
1174.29811,0.04695
1172.23793,0.04774
1170.17776,0.04848
1168.11759,0.04881
1166.05742,0.04865
1163.99725,0.04815
1161.93707,0.04739
1159.87690,0.04640
1157.81673,0.04525
1155.75656,0.04408
1153.69639,0.04324
1151.63621,0.04257
1149.57604,0.04140
1147.51587,0.03992
1145.45570,0.03877
1143.39552,0.03775
1141.33535,0.03652
1139.27518,0.03523
1137.21501,0.03423
1135.15484,0.03362
1133.09466,0.03334
1131.03449,0.03350
1128.97432,0.03395
1126.91415,0.03464
1124.85398,0.03582
1122.79380,0.03738
1120.73363,0.03890
1118.67346,0.04023
1116.61329,0.04192
1114.55312,0.04448
1112.49294,0.04744
1110.43277,0.04989
1108.37260,0.05185
1106.31243,0.05401
1104.25225,0.05623
1102.19208,0.05807
1100.13191,0.05976
1098.07174,0.06147
1096.01157,0.06288
1093.95139,0.06379
1091.89122,0.06470
1089.83105,0.06597
1087.77088,0.06733
1085.71071,0.06888
1083.65053,0.07078
1081.59036,0.07264
1079.53019,0.07427
1077.47002,0.07600
1075.40985,0.07798
1073.34967,0.07961
1071.28950,0.08044
1069.22933,0.08091
1067.16916,0.08170
1065.10898,0.08293
1063.04881,0.08440
1060.98864,0.08563
1058.92847,0.08649
1056.86830,0.08734
1054.80812,0.08827
1052.74795,0.08936
1050.68778,0.09083
1048.62761,0.09224
1046.56744,0.09310
1044.50726,0.09379
1042.44709,0.09494
1040.38692,0.09680
1038.32675,0.09893
1036.26657,0.10076
1034.20640,0.10224
1032.14623,0.10354
1030.08606,0.10463
1028.02589,0.10554
1025.96571,0.10639
1023.90554,0.10710
1021.84537,0.10745
1019.78520,0.10728
1017.72503,0.10687
1015.66485,0.10640
1013.60468,0.10556
1011.54451,0.10431
1009.48434,0.10287
1007.42417,0.10127
1005.36399,0.09915
1003.30382,0.09625
1001.24365,0.09312
999.18348,0.09029
997.12330,0.08767
995.06313,0.08520
993.00296,0.08256
990.94279,0.07963
988.88262,0.07716
986.82244,0.07514
984.76227,0.07272
982.70210,0.06964
980.64193,0.06615
978.58176,0.06281
976.52158,0.06015
974.46141,0.05785
972.40124,0.05555
970.34107,0.05365
968.28089,0.05217
966.22072,0.05044
964.16055,0.04856
962.10038,0.04711
960.04021,0.04588
957.98003,0.04407
955.91986,0.04181
953.85969,0.03967
951.79952,0.03743
949.73935,0.03513
947.67917,0.03316
945.61900,0.03151
943.55883,0.02971
941.49866,0.02748
939.43849,0.02530
937.37831,0.02404
935.31814,0.02374
933.25797,0.02348
931.19780,0.02259
929.13762,0.02139
927.07745,0.02051
925.01728,0.01997
922.95711,0.01923
920.89694,0.01784
918.83676,0.01623
916.77659,0.01520
914.71642,0.01441
912.65625,0.01329
910.59608,0.01220
908.53590,0.01122
906.47573,0.01004
904.41556,0.00917
902.35539,0.00879
900.29522,0.00837
898.23504,0.00812
896.17487,0.00837
894.11470,0.00841
892.05453,0.00795
889.99435,0.00765
887.93418,0.00760
885.87401,0.00748
883.81384,0.00753
881.75367,0.00783
879.69349,0.00783
877.63332,0.00753
875.57315,0.00755
873.51298,0.00771
871.45281,0.00744
869.39263,0.00684
867.33246,0.00653
865.27229,0.00666
863.21212,0.00622
861.15194,0.00468
859.09177,0.00287
857.03160,0.00150
854.97143,0.00057
852.91126,0.00000
850.85108,-0.00016
848.79091,0.00009
846.73074,0.00057
844.67057,0.00115
842.61040,0.00176
840.55022,0.00186
838.49005,0.00145
836.42988,0.00159
834.36971,0.00249
832.30954,0.00310
830.24936,0.00246
828.18919,0.00140
826.12902,0.00132
824.06885,0.00192
822.00867,0.00240
819.94850,0.00249
817.88833,0.00272
815.82816,0.00329
813.76799,0.00340
811.70781,0.00303
809.64764,0.00272
807.58747,0.00204
805.52730,0.00104
803.46713,0.00050
801.40695,0.00030
799.34678,0.00000
797.28661,-0.00059
795.22644,-0.00098
793.16627,-0.00148
791.10609,-0.00206
789.04592,-0.00211
786.98575,-0.00128
784.92558,-0.00020
782.86540,0.00027
780.80523,0.00032
778.74506,0.00040
776.68489,0.00044
774.62472,0.00074
772.56454,0.00170
770.50437,0.00280
768.44420,0.00404
766.38403,0.00562
764.32386,0.00692
762.26368,0.00799
760.20351,0.00923
758.14334,0.01035
756.08317,0.01094
754.02299,0.01074
751.96282,0.01008
749.90265,0.00937
747.84248,0.00846
745.78231,0.00736
743.72213,0.00638
741.66196,0.00541
739.60179,0.00420
737.54162,0.00339
735.48145,0.00347
733.42127,0.00427
731.36110,0.00536
729.30093,0.00583
727.24076,0.00558
725.18059,0.00509
723.12041,0.00504
721.06024,0.00531
719.00007,0.00559
716.93990,0.00447
714.87972,0.00277
712.81955,0.00147
710.75938,0.00019
708.69921,-0.00033
706.63904,0.00034
704.57886,0.00154
702.51869,0.00298
700.45852,0.00355
698.39835,0.00211
696.33818,0.00042
694.27800,0.00014
692.21783,0.00052
690.15766,0.00115
688.09749,0.00203
686.03731,0.00241
683.97714,0.00210
681.91697,0.00170
679.85680,0.00202
677.79663,0.00304
675.73645,0.00374
673.67628,0.00421
671.61611,0.00462
669.55594,0.00145
667.49577,-0.00125
665.43559,0.00417
663.37542,0.00463
661.31525,0.00492
659.25508,0.00586
657.19491,0.00524
655.13473,0.00343
653.07456,0.00255
651.01439,0.00291
648.95422,0.00265
646.89404,0.00125
644.83387,0.00000
642.77370,0.00019
640.71353,0.00187
638.65336,0.00388
636.59318,0.00545
634.53301,0.00606
632.47284,0.00515
630.41267,0.00325
628.35250,0.00145
626.29232,0.00122
624.23215,0.00369
622.17198,0.00543
620.11181,0.00482
618.05164,0.00607
615.99146,0.00817
613.93129,0.00792
611.87112,0.00816
609.81095,0.01007
607.75077,0.01062
605.69060,0.00757
603.63043,0.00388
601.57026,0.00225
599.51009,0.00000
