3996.73391,0.00000
3994.67373,0.00027
3992.61356,0.00054
3990.55339,0.00069
3988.49322,0.00070
3986.43305,0.00062
3984.37287,0.00053
3982.31270,0.00048
3980.25253,0.00060
3978.19236,0.00095
3976.13219,0.00123
3974.07201,0.00115
3972.01184,0.00092
3969.95167,0.00086
3967.89150,0.00091
3965.83133,0.00094
3963.77115,0.00099
3961.71098,0.00087
3959.65081,0.00060
3957.59064,0.00061
3955.53046,0.00082
3953.47029,0.00090
3951.41012,0.00094
3949.34995,0.00091
3947.28978,0.00066
3945.22960,0.00061
3943.16943,0.00094
3941.10926,0.00129
3939.04909,0.00135
3936.98892,0.00112
3934.92874,0.00083
3932.86857,0.00064
3930.80840,0.00067
3928.74823,0.00102
3926.68805,0.00142
3924.62788,0.00164
3922.56771,0.00178
3920.50754,0.00189
3918.44737,0.00165
3916.38719,0.00118
3914.32702,0.00110
3912.26685,0.00145
3910.20668,0.00186
3908.14651,0.00232
3906.08633,0.00272
3904.02616,0.00256
3901.96599,0.00175
3899.90582,0.00109
3897.84565,0.00124
3895.78547,0.00215
3893.72530,0.00318
3891.66513,0.00358
3889.60496,0.00333
3887.54478,0.00289
3885.48461,0.00214
3883.42444,0.00122
3881.36427,0.00069
3879.30410,0.00076
3877.24392,0.00146
3875.18375,0.00220
3873.12358,0.00261
3871.06341,0.00266
3869.00324,0.00217
3866.94306,0.00164
3864.88289,0.00147
3862.82272,0.00139
3860.76255,0.00147
3858.70237,0.00202
3856.64220,0.00273
3854.58203,0.00256
3852.52186,0.00134
3850.46169,0.00088
3848.40151,0.00146
3846.34134,0.00219
3844.28117,0.00285
3842.22100,0.00354
3840.16083,0.00407
3838.10065,0.00405
3836.04048,0.00345
3833.98031,0.00269
3831.92014,0.00206
3829.85997,0.00182
3827.79979,0.00208
3825.73962,0.00261
3823.67945,0.00305
3821.61928,0.00294
3819.55910,0.00260
3817.49893,0.00278
3815.43876,0.00283
3813.37859,0.00261
3811.31842,0.00269
3809.25824,0.00270
3807.19807,0.00220
3805.13790,0.00192
3803.07773,0.00229
3801.01756,0.00240
3798.95738,0.00193
3796.89721,0.00153
3794.83704,0.00145
3792.77687,0.00170
3790.71670,0.00206
3788.65652,0.00224
3786.59635,0.00218
3784.53618,0.00196
3782.47601,0.00182
3780.41583,0.00173
3778.35566,0.00135
3776.29549,0.00103
3774.23532,0.00122
3772.17515,0.00159
3770.11497,0.00148
3768.05480,0.00102
3765.99463,0.00095
3763.93446,0.00139
3761.87429,0.00199
3759.81411,0.00217
3757.75394,0.00181
3755.69377,0.00194
3753.63360,0.00300
3751.57342,0.00380
3749.51325,0.00347
3747.45308,0.00296
3745.39291,0.00227
3743.33274,0.00112
3741.27256,0.00096
3739.21239,0.00195
3737.15222,0.00259
3735.09205,0.00199
3733.03188,0.00099
3730.97170,0.00074
3728.91153,0.00125
3726.85136,0.00186
3724.79119,0.00183
3722.73102,0.00119
3720.67084,0.00075
3718.61067,0.00097
3716.55050,0.00144
3714.49033,0.00192
3712.43015,0.00229
3710.36998,0.00209
3708.30981,0.00152
3706.24964,0.00129
3704.18947,0.00148
3702.12929,0.00175
3700.06912,0.00204
3698.00895,0.00243
3695.94878,0.00267
3693.88861,0.00256
3691.82843,0.00211
3689.76826,0.00154
3687.70809,0.00121
3685.64792,0.00137
3683.58775,0.00183
3681.52757,0.00244
3679.46740,0.00306
3677.40723,0.00321
3675.34706,0.00280
3673.28688,0.00284
3671.22671,0.00334
3669.16654,0.00322
3667.10637,0.00283
3665.04620,0.00304
3662.98602,0.00375
3660.92585,0.00453
3658.86568,0.00508
3656.80551,0.00533
3654.74534,0.00560
3652.68516,0.00627
3650.62499,0.00686
3648.56482,0.00657
3646.50465,0.00619
3644.44447,0.00666
3642.38430,0.00740
3640.32413,0.00787
3638.26396,0.00828
3636.20379,0.00893
3634.14361,0.00973
3632.08344,0.01035
3630.02327,0.01069
3627.96310,0.01075
3625.90293,0.01100
3623.84275,0.01186
3621.78258,0.01299
3619.72241,0.01354
3617.66224,0.01332
3615.60207,0.01317
3613.54189,0.01340
3611.48172,0.01401
3609.42155,0.01460
3607.36138,0.01487
3605.30120,0.01528
3603.24103,0.01601
3601.18086,0.01679
3599.12069,0.01746
3597.06052,0.01805
3595.00034,0.01855
3592.94017,0.01905
3590.88000,0.01945
3588.81983,0.01955
3586.75966,0.01948
3584.69948,0.01988
3582.63931,0.02071
3580.57914,0.02141
3578.51897,0.02166
3576.45879,0.02169
3574.39862,0.02200
3572.33845,0.02281
3570.27828,0.02400
3568.21811,0.02499
3566.15793,0.02525
3564.09776,0.02532
3562.03759,0.02562
3559.97742,0.02590
3557.91725,0.02618
3555.85707,0.02681
3553.79690,0.02780
3551.73673,0.02861
3549.67656,0.02903
3547.61639,0.02927
3545.55621,0.02938
3543.49604,0.02950
3541.43587,0.02989
3539.37570,0.03059
3537.31552,0.03130
3535.25535,0.03170
3533.19518,0.03195
3531.13501,0.03238
3529.07484,0.03303
3527.01466,0.03381
3524.95449,0.03463
3522.89432,0.03527
3520.83415,0.03562
3518.77398,0.03579
3516.71380,0.03609
3514.65363,0.03666
3512.59346,0.03722
3510.53329,0.03752
3508.47312,0.03770
3506.41294,0.03794
3504.35277,0.03813
3502.29260,0.03836
3500.23243,0.03890
3498.17225,0.03950
3496.11208,0.03985
3494.05191,0.04019
3491.99174,0.04086
3489.93157,0.04171
3487.87139,0.04239
3485.81122,0.04293
3483.75105,0.04335
3481.69088,0.04349
3479.63071,0.04349
3477.57053,0.04374
3475.51036,0.04436
3473.45019,0.04503
3471.39002,0.04543
3469.32984,0.04563
3467.26967,0.04594
3465.20950,0.04624
3463.14933,0.04627
3461.08916,0.04638
3459.02898,0.04682
3456.96881,0.04743
3454.90864,0.04800
3452.84847,0.04857
3450.78830,0.04929
3448.72812,0.04988
3446.66795,0.05001
3444.60778,0.05002
3442.54761,0.05023
3440.48744,0.05057
3438.42726,0.05093
3436.36709,0.05131
3434.30692,0.05157
3432.24675,0.05168
3430.18657,0.05188
3428.12640,0.05227
3426.06623,0.05267
3424.00606,0.05302
3421.94589,0.05327
3419.88571,0.05348
3417.82554,0.05363
3415.76537,0.05359
3413.70520,0.05357
3411.64503,0.05395
3409.58485,0.05456
3407.52468,0.05511
3405.46451,0.05561
3403.40434,0.05583
3401.34416,0.05573
3399.28399,0.05596
3397.22382,0.05644
3395.16365,0.05648
3393.10348,0.05620
3391.04330,0.05626
3388.98313,0.05671
3386.92296,0.05715
3384.86279,0.05730
3382.80262,0.05736
3380.74244,0.05764
3378.68227,0.05802
3376.62210,0.05831
3374.56193,0.05862
3372.50176,0.05877
3370.44158,0.05853
3368.38141,0.05817
3366.32124,0.05803
3364.26107,0.05824
3362.20089,0.05883
3360.14072,0.05955
3358.08055,0.05986
3356.02038,0.05973
3353.96021,0.05967
3351.90003,0.06000
3349.83986,0.06048
3347.77969,0.06048
3345.71952,0.06008
3343.65935,0.05994
3341.59917,0.06019
3339.53900,0.06046
3337.47883,0.06035
3335.41866,0.05987
3333.35849,0.05972
3331.29831,0.06025
3329.23814,0.06076
3327.17797,0.06095
3325.11780,0.06105
3323.05762,0.06103
3320.99745,0.06097
3318.93728,0.06112
3316.87711,0.06135
3314.81694,0.06139
3312.75676,0.06142
3310.69659,0.06147
3308.63642,0.06140
3306.57625,0.06146
3304.51608,0.06156
3302.45590,0.06146
3300.39573,0.06151
3298.33556,0.06163
3296.27539,0.06158
3294.21521,0.06170
3292.15504,0.06211
3290.09487,0.06237
3288.03470,0.06226
3285.97453,0.06206
3283.91435,0.06205
3281.85418,0.06214
3279.79401,0.06217
3277.73384,0.06222
3275.67367,0.06233
3273.61349,0.06253
3271.55332,0.06290
3269.49315,0.06326
3267.43298,0.06334
3265.37281,0.06317
3263.31263,0.06325
3261.25246,0.06365
3259.19229,0.06381
3257.13212,0.06351
3255.07194,0.06307
3253.01177,0.06280
3250.95160,0.06273
3248.89143,0.06280
3246.83126,0.06295
3244.77108,0.06299
3242.71091,0.06297
3240.65074,0.06300
3238.59057,0.06296
3236.53040,0.06292
3234.47022,0.06300
3232.41005,0.06317
3230.34988,0.06331
3228.28971,0.06331
3226.22954,0.06326
3224.16936,0.06300
3222.10919,0.06265
3220.04902,0.06278
3217.98885,0.06321
3215.92867,0.06313
3213.86850,0.06262
3211.80833,0.06251
3209.74816,0.06283
3207.68799,0.06308
3205.62781,0.06316
3203.56764,0.06296
3201.50747,0.06251
3199.44730,0.06236
3197.38713,0.06246
3195.32695,0.06238
3193.26678,0.06227
3191.20661,0.06215
3189.14644,0.06183
3187.08626,0.06145
3185.02609,0.06125
3182.96592,0.06134
3180.90575,0.06135
3178.84558,0.06105
3176.78540,0.06079
3174.72523,0.06065
3172.66506,0.06046
3170.60489,0.06041
3168.54472,0.06061
3166.48454,0.06069
3164.42437,0.06037
3162.36420,0.05981
3160.30403,0.05933
3158.24386,0.05915
3156.18368,0.05915
3154.12351,0.05916
3152.06334,0.05912
3150.00317,0.05892
3147.94299,0.05863
3145.88282,0.05854
3143.82265,0.05861
3141.76248,0.05851
3139.70231,0.05836
3137.64213,0.05822
3135.58196,0.05805
3133.52179,0.05782
3131.46162,0.05739
3129.40145,0.05686
3127.34127,0.05648
3125.28110,0.05631
3123.22093,0.05622
3121.16076,0.05617
3119.10058,0.05620
3117.04041,0.05614
3114.98024,0.05584
3112.92007,0.05544
3110.85990,0.05509
3108.79972,0.05487
3106.73955,0.05491
3104.67938,0.05496
3102.61921,0.05459
3100.55904,0.05387
3098.49886,0.05330
3096.43869,0.05327
3094.37852,0.05358
3092.31835,0.05361
3090.25818,0.05315
3088.19800,0.05262
3086.13783,0.05235
3084.07766,0.05224
3082.01749,0.05210
3079.95731,0.05191
3077.89714,0.05161
3075.83697,0.05139
3073.77680,0.05122
3071.71663,0.05083
3069.65645,0.05040
3067.59628,0.05008
3065.53611,0.04971
3063.47594,0.04943
3061.41577,0.04933
3059.35559,0.04914
3057.29542,0.04880
3055.23525,0.04857
3053.17508,0.04848
3051.11491,0.04833
3049.05473,0.04804
3046.99456,0.04753
3044.93439,0.04694
3042.87422,0.04663
3040.81404,0.04653
3038.75387,0.04643
3036.69370,0.04627
3034.63353,0.04603
3032.57336,0.04569
3030.51318,0.04533
3028.45301,0.04496
3026.39284,0.04450
3024.33267,0.04404
3022.27250,0.04376
3020.21232,0.04378
3018.15215,0.04397
3016.09198,0.04394
3014.03181,0.04368
3011.97163,0.04337
3009.91146,0.04291
3007.85129,0.04238
3005.79112,0.04203
3003.73095,0.04179
3001.67077,0.04134
2999.61060,0.04080
2997.55043,0.04067
2995.49026,0.04083
2993.43009,0.04089
2991.36991,0.04074
2989.30974,0.04045
2987.24957,0.04018
2985.18940,0.03994
2983.12923,0.03976
2981.06905,0.03975
2979.00888,0.03962
2976.94871,0.03944
2974.88854,0.03948
2972.82836,0.03936
2970.76819,0.03902
2968.70802,0.03894
2966.64785,0.03914
2964.58768,0.03918
2962.52750,0.03877
2960.46733,0.03819
2958.40716,0.03784
2956.34699,0.03782
2954.28682,0.03807
2952.22664,0.03834
2950.16647,0.03845
2948.10630,0.03848
2946.04613,0.03842
2943.98596,0.03827
2941.92578,0.03808
2939.86561,0.03795
2937.80544,0.03778
2935.74527,0.03750
2933.68509,0.03738
2931.62492,0.03752
2929.56475,0.03762
2927.50458,0.03737
2925.44441,0.03686
2923.38423,0.03651
2921.32406,0.03631
2919.26389,0.03621
2917.20372,0.03638
2915.14355,0.03643
2913.08337,0.03602
2911.02320,0.03550
2908.96303,0.03516
2906.90286,0.03500
2904.84268,0.03489
2902.78251,0.03476
2900.72234,0.03467
2898.66217,0.03464
2896.60200,0.03464
2894.54182,0.03466
2892.48165,0.03470
2890.42148,0.03457
2888.36131,0.03431
2886.30114,0.03414
2884.24096,0.03398
2882.18079,0.03380
2880.12062,0.03396
2878.06045,0.03424
2876.00028,0.03412
2873.94010,0.03379
2871.87993,0.03352
2869.81976,0.03313
2867.75959,0.03289
2865.69941,0.03301
2863.63924,0.03317
2861.57907,0.03308
2859.51890,0.03289
2857.45873,0.03281
2855.39855,0.03268
2853.33838,0.03231
2851.27821,0.03194
2849.21804,0.03185
2847.15787,0.03180
2845.09769,0.03151
2843.03752,0.03106
2840.97735,0.03064
2838.91718,0.03043
2836.85700,0.03047
2834.79683,0.03048
2832.73666,0.03030
2830.67649,0.03000
2828.61632,0.02960
2826.55614,0.02926
2824.49597,0.02920
2822.43580,0.02924
2820.37563,0.02911
2818.31546,0.02901
2816.25528,0.02905
2814.19511,0.02891
2812.13494,0.02860
2810.07477,0.02840
2808.01460,0.02839
2805.95442,0.02846
2803.89425,0.02827
2801.83408,0.02792
2799.77391,0.02783
2797.71373,0.02771
2795.65356,0.02733
2793.59339,0.02716
2791.53322,0.02727
2789.47305,0.02723
2787.41287,0.02701
2785.35270,0.02686
2783.29253,0.02677
2781.23236,0.02673
2779.17219,0.02660
2777.11201,0.02627
2775.05184,0.02603
2772.99167,0.02610
2770.93150,0.02625
2768.87133,0.02629
2766.81115,0.02620
2764.75098,0.02601
2762.69081,0.02576
2760.63064,0.02552
2758.57046,0.02543
2756.51029,0.02547
2754.45012,0.02534
2752.38995,0.02502
2750.32978,0.02475
2748.26960,0.02455
2746.20943,0.02433
2744.14926,0.02418
2742.08909,0.02412
2740.02892,0.02410
2737.96874,0.02414
2735.90857,0.02417
2733.84840,0.02406
2731.78823,0.02374
2729.72805,0.02351
2727.66788,0.02353
2725.60771,0.02347
2723.54754,0.02316
2721.48737,0.02287
2719.42719,0.02277
2717.36702,0.02270
2715.30685,0.02245
2713.24668,0.02217
2711.18651,0.02200
2709.12633,0.02192
2707.06616,0.02198
2705.00599,0.02193
2702.94582,0.02162
2700.88565,0.02131
2698.82547,0.02126
2696.76530,0.02138
2694.70513,0.02145
2692.64496,0.02127
2690.58478,0.02092
2688.52461,0.02061
2686.46444,0.02037
2684.40427,0.02011
2682.34410,0.01989
2680.28392,0.01980
2678.22375,0.01988
2676.16358,0.01995
2674.10341,0.01988
2672.04324,0.01961
2669.98306,0.01918
2667.92289,0.01896
2665.86272,0.01905
2663.80255,0.01909
2661.74238,0.01896
2659.68220,0.01884
2657.62203,0.01863
2655.56186,0.01835
2653.50169,0.01819
2651.44151,0.01801
2649.38134,0.01778
2647.32117,0.01768
2645.26100,0.01762
2643.20083,0.01756
2641.14065,0.01763
2639.08048,0.01757
2637.02031,0.01718
2634.96014,0.01685
2632.89997,0.01683
2630.83979,0.01683
2628.77962,0.01660
2626.71945,0.01640
2624.65928,0.01621
2622.59910,0.01565
2620.53893,0.01519
2618.47876,0.01524
2616.41859,0.01519
2614.35842,0.01490
2612.29824,0.01495
2610.23807,0.01522
2608.17790,0.01525
2606.11773,0.01507
2604.05756,0.01492
2601.99738,0.01493
2599.93721,0.01500
2597.87704,0.01493
2595.81687,0.01471
2593.75670,0.01469
2591.69652,0.01484
2589.63635,0.01466
2587.57618,0.01429
2585.51601,0.01404
2583.45583,0.01403
2581.39566,0.01403
2579.33549,0.01399
2577.27532,0.01416
2575.21515,0.01422
2573.15497,0.01398
2571.09480,0.01391
2569.03463,0.01408
2566.97446,0.01415
2564.91429,0.01382
2562.85411,0.01343
2560.79394,0.01345
2558.73377,0.01350
2556.67360,0.01334
2554.61342,0.01350
2552.55325,0.01389
2550.49308,0.01389
2548.43291,0.01370
2546.37274,0.01371
2544.31256,0.01352
2542.25239,0.01306
2540.19222,0.01296
2538.13205,0.01322
2536.07188,0.01329
2534.01170,0.01315
2531.95153,0.01313
2529.89136,0.01307
2527.83119,0.01306
2525.77102,0.01343
2523.71084,0.01401
2521.65067,0.01432
2519.59050,0.01405
2517.53033,0.01353
2515.47015,0.01337
2513.40998,0.01340
2511.34981,0.01343
2509.28964,0.01393
2507.22947,0.01449
2505.16929,0.01438
2503.10912,0.01415
2501.04895,0.01426
2498.98878,0.01447
2496.92861,0.01458
2494.86843,0.01457
2492.80826,0.01455
2490.74809,0.01449
2488.68792,0.01438
2486.62775,0.01435
2484.56757,0.01442
2482.50740,0.01443
2480.44723,0.01430
2478.38706,0.01424
2476.32688,0.01438
2474.26671,0.01441
2472.20654,0.01439
2470.14637,0.01453
2468.08620,0.01483
2466.02602,0.01509
2463.96585,0.01524
2461.90568,0.01546
2459.84551,0.01558
2457.78534,0.01529
2455.72516,0.01498
2453.66499,0.01500
2451.60482,0.01503
2449.54465,0.01495
2447.48447,0.01464
2445.42430,0.01446
2443.36413,0.01487
2441.30396,0.01530
2439.24379,0.01538
2437.18361,0.01522
2435.12344,0.01498
2433.06327,0.01499
2431.00310,0.01513
2428.94293,0.01529
2426.88275,0.01547
2424.82258,0.01544
2422.76241,0.01517
2420.70224,0.01493
2418.64207,0.01480
2416.58189,0.01475
2414.52172,0.01491
2412.46155,0.01495
2410.40138,0.01469
2408.34120,0.01489
2406.28103,0.01543
2404.22086,0.01544
2402.16069,0.01507
2400.10052,0.01481
2398.04034,0.01470
2395.98017,0.01467
2393.92000,0.01476
2391.85983,0.01497
2389.79966,0.01513
2387.73948,0.01511
2385.67931,0.01507
2383.61914,0.01545
2381.55897,0.01598
2379.49880,0.01595
2377.43862,0.01553
2375.37845,0.01558
2373.31828,0.01603
2371.25811,0.01659
2369.19793,0.01702
2367.13776,0.01587
2365.07759,0.01276
2363.01742,0.01081
2360.95725,0.01114
2358.89707,0.01354
2356.83690,0.01478
2354.77673,0.01357
2352.71656,0.01211
2350.65639,0.01100
2348.59621,0.01149
2346.53604,0.01394
2344.47587,0.01388
2342.41570,0.01241
2340.35552,0.01133
2338.29535,0.01127
2336.23518,0.01264
2334.17501,0.01417
2332.11484,0.01513
2330.05466,0.01536
2327.99449,0.01534
2325.93432,0.01473
2323.87415,0.01391
2321.81398,0.01278
2319.75380,0.01214
2317.69363,0.01198
2315.63346,0.01239
2313.57329,0.01302
2311.51312,0.01367
2309.45294,0.01410
2307.39277,0.01415
2305.33260,0.01401
2303.27243,0.01391
2301.21225,0.01391
2299.15208,0.01372
2297.09191,0.01359
2295.03174,0.01365
2292.97157,0.01370
2290.91139,0.01362
2288.85122,0.01338
2286.79105,0.01318
2284.73088,0.01318
2282.67071,0.01319
2280.61053,0.01293
2278.55036,0.01251
2276.49019,0.01218
2274.43002,0.01191
2272.36984,0.01171
2270.30967,0.01180
2268.24950,0.01203
2266.18933,0.01195
2264.12916,0.01159
2262.06898,0.01146
2260.00881,0.01178
2257.94864,0.01222
2255.88847,0.01209
2253.82830,0.01128
2251.76812,0.01065
2249.70795,0.01058
2247.64778,0.01032
2245.58761,0.01000
2243.52744,0.01045
2241.46726,0.01118
2239.40709,0.01146
2237.34692,0.01161
2235.28675,0.01169
2233.22657,0.01113
2231.16640,0.01039
2229.10623,0.01017
2227.04606,0.01000
2224.98589,0.00953
2222.92571,0.00946
2220.86554,0.01021
2218.80537,0.01072
2216.74520,0.01027
2214.68503,0.00968
2212.62485,0.00914
2210.56468,0.00823
2208.50451,0.00795
2206.44434,0.00866
2204.38417,0.00906
2202.32399,0.00913
2200.26382,0.00906
2198.20365,0.00848
2196.14348,0.00828
2194.08330,0.00859
2192.02313,0.00818
2189.96296,0.00734
2187.90279,0.00688
2185.84262,0.00670
2183.78244,0.00694
2181.72227,0.00749
2179.66210,0.00787
2177.60193,0.00759
2175.54176,0.00672
2173.48158,0.00639
2171.42141,0.00721
2169.36124,0.00852
2167.30107,0.00883
2165.24089,0.00773
2163.18072,0.00622
2161.12055,0.00462
2159.06038,0.00368
2157.00021,0.00426
2154.94003,0.00588
2152.87986,0.00692
2150.81969,0.00629
2148.75952,0.00549
2146.69935,0.00562
2144.63917,0.00591
2142.57900,0.00573
2140.51883,0.00567
2138.45866,0.00610
2136.39849,0.00598
2134.33831,0.00525
2132.27814,0.00504
2130.21797,0.00552
2128.15780,0.00594
2126.09762,0.00559
2124.03745,0.00528
2121.97728,0.00595
2119.91711,0.00667
2117.85694,0.00693
2115.79676,0.00706
2113.73659,0.00692
2111.67642,0.00678
2109.61625,0.00675
2107.55608,0.00682
2105.49590,0.00699
2103.43573,0.00692
2101.37556,0.00680
2099.31539,0.00677
2097.25521,0.00652
2095.19504,0.00592
2093.13487,0.00538
2091.07470,0.00590
2089.01453,0.00763
2086.95435,0.00884
2084.89418,0.00829
2082.83401,0.00715
2080.77384,0.00694
2078.71367,0.00734
2076.65349,0.00748
2074.59332,0.00736
2072.53315,0.00699
2070.47298,0.00646
2068.41281,0.00644
2066.35263,0.00650
2064.29246,0.00560
2062.23229,0.00441
2060.17212,0.00392
2058.11194,0.00403
2056.05177,0.00466
2053.99160,0.00557
2051.93143,0.00610
2049.87126,0.00568
2047.81108,0.00460
2045.75091,0.00386
2043.69074,0.00401
2041.63057,0.00457
2039.57040,0.00446
2037.51022,0.00340
2035.45005,0.00264
2033.38988,0.00293
2031.32971,0.00367
2029.26954,0.00428
2027.20936,0.00490
2025.14919,0.00580
2023.08902,0.00631
2021.02885,0.00538
2018.96867,0.00411
2016.90850,0.00360
2014.84833,0.00273
2012.78816,0.00198
2010.72799,0.00209
2008.66781,0.00183
2006.60764,0.00132
2004.54747,0.00183
2002.48730,0.00312
2000.42713,0.00404
1998.36695,0.00442
1996.30678,0.00502
1994.24661,0.00596
1992.18644,0.00609
1990.12626,0.00548
1988.06609,0.00570
1986.00592,0.00644
1983.94575,0.00621
1981.88558,0.00535
1979.82540,0.00501
1977.76523,0.00479
1975.70506,0.00408
1973.64489,0.00353
1971.58472,0.00392
1969.52454,0.00420
1967.46437,0.00313
1965.40420,0.00171
1963.34403,0.00133
1961.28386,0.00193
1959.22368,0.00253
1957.16351,0.00257
1955.10334,0.00237
1953.04317,0.00257
1950.98299,0.00346
1948.92282,0.00423
1946.86265,0.00398
1944.80248,0.00347
1942.74231,0.00386
1940.68213,0.00449
1938.62196,0.00452
1936.56179,0.00430
1934.50162,0.00422
1932.44145,0.00416
1930.38127,0.00376
1928.32110,0.00340
1926.26093,0.00358
1924.20076,0.00400
1922.14059,0.00423
1920.08041,0.00430
1918.02024,0.00434
1915.96007,0.00463
1913.89990,0.00527
1911.83972,0.00530
1909.77955,0.00408
1907.71938,0.00298
1905.65921,0.00304
1903.59904,0.00358
1901.53886,0.00380
1899.47869,0.00357
1897.41852,0.00322
1895.35835,0.00319
1893.29818,0.00332
1891.23800,0.00329
1889.17783,0.00316
1887.11766,0.00331
1885.05749,0.00374
1882.99731,0.00393
1880.93714,0.00374
1878.87697,0.00359
1876.81680,0.00354
1874.75663,0.00352
1872.69645,0.00366
1870.63628,0.00397
1868.57611,0.00423
1866.51594,0.00416
1864.45577,0.00385
1862.39559,0.00367
1860.33542,0.00380
1858.27525,0.00408
1856.21508,0.00419
1854.15491,0.00398
1852.09473,0.00368
1850.03456,0.00364
1847.97439,0.00384
1845.91422,0.00388
1843.85404,0.00371
1841.79387,0.00384
1839.73370,0.00417
1837.67353,0.00401
1835.61336,0.00350
1833.55318,0.00340
1831.49301,0.00388
1829.43284,0.00447
1827.37267,0.00475
1825.31250,0.00464
1823.25232,0.00441
1821.19215,0.00428
1819.13198,0.00415
1817.07181,0.00394
1815.01163,0.00383
1812.95146,0.00405
1810.89129,0.00442
1808.83112,0.00454
1806.77095,0.00439
1804.71077,0.00421
1802.65060,0.00413
1800.59043,0.00412
1798.53026,0.00419
1796.47009,0.00430
1794.40991,0.00416
1792.34974,0.00375
1790.28957,0.00365
1788.22940,0.00409
1786.16923,0.00462
1784.10905,0.00483
1782.04888,0.00478
1779.98871,0.00465
1777.92854,0.00450
1775.86836,0.00440
1773.80819,0.00438
1771.74802,0.00438
1769.68785,0.00443
1767.62768,0.00458
1765.56750,0.00480
1763.50733,0.00507
1761.44716,0.00524
1759.38699,0.00527
1757.32682,0.00535
1755.26664,0.00571
1753.20647,0.00627
1751.14630,0.00660
1749.08613,0.00664
1747.02596,0.00677
1744.96578,0.00709
1742.90561,0.00751
1740.84544,0.00784
1738.78527,0.00796
1736.72509,0.00797
1734.66492,0.00794
1732.60475,0.00796
1730.54458,0.00820
1728.48441,0.00865
1726.42423,0.00920
1724.36406,0.00971
1722.30389,0.01006
1720.24372,0.01033
1718.18355,0.01059
1716.12337,0.01077
1714.06320,0.01093
1712.00303,0.01112
1709.94286,0.01133
1707.88268,0.01169
1705.82251,0.01212
1703.76234,0.01235
1701.70217,0.01252
1699.64200,0.01298
1697.58182,0.01366
1695.52165,0.01400
1693.46148,0.01412
1691.40131,0.01450
1689.34114,0.01517
1687.28096,0.01592
1685.22079,0.01643
1683.16062,0.01654
1681.10045,0.01667
1679.04028,0.01704
1676.98010,0.01742
1674.91993,0.01774
1672.85976,0.01812
1670.79959,0.01845
1668.73941,0.01868
1666.67924,0.01904
1664.61907,0.01945
1662.55890,0.01973
1660.49873,0.02009
1658.43855,0.02060
1656.37838,0.02102
1654.31821,0.02111
1652.25804,0.02096
1650.19787,0.02114
1648.13769,0.02142
1646.07752,0.02128
1644.01735,0.02109
1641.95718,0.02107
1639.89701,0.02097
1637.83683,0.02074
1635.77666,0.02044
1633.71649,0.02016
1631.65632,0.01991
1629.59614,0.01957
1627.53597,0.01933
1625.47580,0.01925
1623.41563,0.01909
1621.35546,0.01880
1619.29528,0.01848
1617.23511,0.01801
1615.17494,0.01755
1613.11477,0.01743
1611.05460,0.01750
1608.99442,0.01741
1606.93425,0.01705
1604.87408,0.01658
1602.81391,0.01617
1600.75373,0.01588
1598.69356,0.01553
1596.63339,0.01501
1594.57322,0.01446
1592.51305,0.01400
1590.45287,0.01350
1588.39270,0.01289
1586.33253,0.01223
1584.27236,0.01166
1582.21219,0.01119
1580.15201,0.01079
1578.09184,0.01044
1576.03167,0.01016
1573.97150,0.00998
1571.91133,0.00973
1569.85115,0.00929
1567.79098,0.00898
1565.73081,0.00899
1563.67064,0.00910
1561.61046,0.00927
1559.55029,0.00912
1557.49012,0.00814
1555.42995,0.00717
1553.36978,0.00673
1551.30960,0.00664
1549.24943,0.00657
1547.18926,0.00657
1545.12909,0.00681
1543.06892,0.00686
1541.00874,0.00610
1538.94857,0.00506
1536.88840,0.00480
1534.82823,0.00491
1532.76805,0.00487
1530.70788,0.00485
1528.64771,0.00489
1526.58754,0.00469
1524.52737,0.00425
1522.46719,0.00398
1520.40702,0.00408
1518.34685,0.00414
1516.28668,0.00395
1514.22651,0.00384
1512.16633,0.00401
1510.10616,0.00426
1508.04599,0.00412
1505.98582,0.00325
1503.92565,0.00268
1501.86547,0.00276
1499.80530,0.00289
1497.74513,0.00271
1495.68496,0.00240
1493.62478,0.00236
1491.56461,0.00256
1489.50444,0.00266
1487.44427,0.00251
1485.38410,0.00232
1483.32392,0.00235
1481.26375,0.00260
1479.20358,0.00293
1477.14341,0.00323
1475.08324,0.00333
1473.02306,0.00313
1470.96289,0.00293
1468.90272,0.00307
1466.84255,0.00338
1464.78238,0.00356
1462.72220,0.00365
1460.66203,0.00391
1458.60186,0.00429
1456.54169,0.00444
1454.48151,0.00435
1452.42134,0.00432
1450.36117,0.00438
1448.30100,0.00430
1446.24083,0.00401
1444.18065,0.00376
1442.12048,0.00374
1440.06031,0.00390
1438.00014,0.00394
1435.93997,0.00375
1433.87979,0.00355
1431.81962,0.00346
1429.75945,0.00336
1427.69928,0.00333
1425.63910,0.00346
1423.57893,0.00368
1421.51876,0.00400
1419.45859,0.00425
1417.39842,0.00407
1415.33824,0.00372
1413.27807,0.00362
1411.21790,0.00374
1409.15773,0.00387
1407.09756,0.00387
1405.03738,0.00372
1402.97721,0.00354
1400.91704,0.00353
1398.85687,0.00365
1396.79670,0.00367
1394.73652,0.00351
1392.67635,0.00343
1390.61618,0.00359
1388.55601,0.00378
1386.49583,0.00379
1384.43566,0.00378
1382.37549,0.00387
1380.31532,0.00403
1378.25515,0.00423
1376.19497,0.00447
1374.13480,0.00466
1372.07463,0.00470
1370.01446,0.00466
1367.95429,0.00463
1365.89411,0.00462
1363.83394,0.00447
1361.77377,0.00415
1359.71360,0.00392
1357.65343,0.00400
1355.59325,0.00423
1353.53308,0.00430
1351.47291,0.00414
1349.41274,0.00391
1347.35256,0.00378
1345.29239,0.00377
1343.23222,0.00386
1341.17205,0.00395
1339.11188,0.00398
1337.05170,0.00392
1334.99153,0.00385
1332.93136,0.00388
1330.87119,0.00398
1328.81102,0.00400
1326.75084,0.00385
1324.69067,0.00359
1322.63050,0.00341
1320.57033,0.00349
1318.51015,0.00363
1316.44998,0.00354
1314.38981,0.00323
1312.32964,0.00293
1310.26947,0.00287
1308.20929,0.00304
1306.14912,0.00322
1304.08895,0.00325
1302.02878,0.00319
1299.96861,0.00310
1297.90843,0.00306
1295.84826,0.00316
1293.78809,0.00337
1291.72792,0.00358
1289.66775,0.00374
1287.60757,0.00376
1285.54740,0.00368
1283.48723,0.00369
1281.42706,0.00378
1279.36688,0.00385
1277.30671,0.00392
1275.24654,0.00404
1273.18637,0.00424
1271.12620,0.00449
1269.06602,0.00455
1267.00585,0.00429
1264.94568,0.00395
1262.88551,0.00375
1260.82534,0.00358
1258.76516,0.00345
1256.70499,0.00349
1254.64482,0.00367
1252.58465,0.00379
1250.52447,0.00373
1248.46430,0.00361
1246.40413,0.00346
1244.34396,0.00326
1242.28379,0.00305
1240.22361,0.00285
1238.16344,0.00268
1236.10327,0.00255
1234.04310,0.00263
1231.98293,0.00286
1229.92275,0.00291
1227.86258,0.00270
1225.80241,0.00250
1223.74224,0.00236
1221.68207,0.00218
1219.62189,0.00197
1217.56172,0.00191
1215.50155,0.00191
1213.44138,0.00188
1211.38120,0.00185
1209.32103,0.00173
1207.26086,0.00159
1205.20069,0.00155
1203.14052,0.00165
1201.08034,0.00179
1199.02017,0.00190
1196.96000,0.00201
1194.89983,0.00211
1192.83966,0.00230
1190.77948,0.00263
1188.71931,0.00300
1186.65914,0.00351
1184.59897,0.00415
1182.53880,0.00471
1180.47862,0.00529
1178.41845,0.00608
1176.35828,0.00714
1174.29811,0.00834
1172.23793,0.00955
1170.17776,0.01068
1168.11759,0.01163
1166.05742,0.01246
1163.99725,0.01332
1161.93707,0.01438
1159.87690,0.01550
1157.81673,0.01642
1155.75656,0.01708
1153.69639,0.01767
1151.63621,0.01851
1149.57604,0.01958
1147.51587,0.02064
1145.45570,0.02166
1143.39552,0.02272
1141.33535,0.02387
1139.27518,0.02504
1137.21501,0.02634
1135.15484,0.02782
1133.09466,0.02930
1131.03449,0.03064
1128.97432,0.03186
1126.91415,0.03303
1124.85398,0.03414
1122.79380,0.03535
1120.73363,0.03668
1118.67346,0.03783
1116.61329,0.03893
1114.55312,0.04024
1112.49294,0.04175
1110.43277,0.04337
1108.37260,0.04500
1106.31243,0.04667
1104.25225,0.04834
1102.19208,0.04980
1100.13191,0.05123
1098.07174,0.05276
1096.01157,0.05415
1093.95139,0.05539
1091.89122,0.05668
1089.83105,0.05798
1087.77088,0.05929
1085.71071,0.06066
1083.65053,0.06185
1081.59036,0.06283
1079.53019,0.06392
1077.47002,0.06512
1075.40985,0.06620
1073.34967,0.06708
1071.28950,0.06769
1069.22933,0.06822
1067.16916,0.06876
1065.10898,0.06894
1063.04881,0.06899
1060.98864,0.06929
1058.92847,0.06951
1056.86830,0.06930
1054.80812,0.06879
1052.74795,0.06827
1050.68778,0.06778
1048.62761,0.06708
1046.56744,0.06604
1044.50726,0.06486
1042.44709,0.06357
1040.38692,0.06208
1038.32675,0.06059
1036.26657,0.05932
1034.20640,0.05830
1032.14623,0.05739
1030.08606,0.05631
1028.02589,0.05514
1025.96571,0.05397
1023.90554,0.05256
1021.84537,0.05116
1019.78520,0.05000
1017.72503,0.04883
1015.66485,0.04777
1013.60468,0.04706
1011.54451,0.04664
1009.48434,0.04630
1007.42417,0.04583
1005.36399,0.04525
1003.30382,0.04489
1001.24365,0.04496
999.18348,0.04537
997.12330,0.04597
995.06313,0.04682
993.00296,0.04799
990.94279,0.04918
988.88262,0.05007
986.82244,0.05065
984.76227,0.05086
982.70210,0.05089
980.64193,0.05088
978.58176,0.05060
976.52158,0.04980
974.46141,0.04862
972.40124,0.04713
970.34107,0.04517
968.28089,0.04302
966.22072,0.04118
964.16055,0.03965
962.10038,0.03814
960.04021,0.03667
957.98003,0.03540
955.91986,0.03417
953.85969,0.03299
951.79952,0.03200
949.73935,0.03130
947.67917,0.03098
945.61900,0.03087
943.55883,0.03062
941.49866,0.03015
939.43849,0.02979
937.37831,0.02980
935.31814,0.03007
933.25797,0.03025
931.19780,0.02997
929.13762,0.02947
927.07745,0.02924
925.01728,0.02908
922.95711,0.02863
920.89694,0.02792
918.83676,0.02715
916.77659,0.02639
914.71642,0.02565
912.65625,0.02492
910.59608,0.02406
908.53590,0.02326
906.47573,0.02262
904.41556,0.02232
902.35539,0.02246
900.29522,0.02259
898.23504,0.02243
896.17487,0.02206
894.11470,0.02177
892.05453,0.02181
889.99435,0.02207
887.93418,0.02242
885.87401,0.02280
883.81384,0.02334
881.75367,0.02429
879.69349,0.02525
877.63332,0.02581
875.57315,0.02611
873.51298,0.02612
871.45281,0.02605
869.39263,0.02619
867.33246,0.02659
865.27229,0.02713
863.21212,0.02726
861.15194,0.02698
859.09177,0.02685
857.03160,0.02669
854.97143,0.02608
852.91126,0.02519
850.85108,0.02433
848.79091,0.02367
846.73074,0.02324
844.67057,0.02279
842.61040,0.02221
840.55022,0.02159
838.49005,0.02094
836.42988,0.02030
834.36971,0.01950
832.30954,0.01852
830.24936,0.01780
828.18919,0.01725
826.12902,0.01652
824.06885,0.01567
822.00867,0.01471
819.94850,0.01383
817.88833,0.01341
815.82816,0.01333
813.76799,0.01298
811.70781,0.01249
809.64764,0.01235
807.58747,0.01224
805.52730,0.01205
803.46713,0.01193
801.40695,0.01146
799.34678,0.01071
797.28661,0.01036
795.22644,0.01034
793.16627,0.01001
791.10609,0.00941
789.04592,0.00928
786.98575,0.00942
784.92558,0.00922
782.86540,0.00899
780.80523,0.00869
778.74506,0.00813
776.68489,0.00761
774.62472,0.00736
772.56454,0.00778
770.50437,0.00839
768.44420,0.00826
766.38403,0.00779
764.32386,0.00761
762.26368,0.00763
760.20351,0.00757
758.14334,0.00738
756.08317,0.00723
754.02299,0.00694
751.96282,0.00662
749.90265,0.00648
747.84248,0.00610
745.78231,0.00563
743.72213,0.00552
741.66196,0.00520
739.60179,0.00457
737.54162,0.00440
735.48145,0.00492
733.42127,0.00581
731.36110,0.00648
729.30093,0.00628
727.24076,0.00551
725.18059,0.00524
723.12041,0.00548
721.06024,0.00613
719.00007,0.00631
716.93990,0.00610
714.87972,0.00578
712.81955,0.00564
710.75938,0.00596
708.69921,0.00627
706.63904,0.00600
704.57886,0.00559
702.51869,0.00549
700.45852,0.00523
698.39835,0.00471
696.33818,0.00468
694.27800,0.00541
692.21783,0.00629
690.15766,0.00654
688.09749,0.00611
686.03731,0.00560
683.97714,0.00513
681.91697,0.00475
679.85680,0.00476
677.79663,0.00465
675.73645,0.00382
673.67628,0.00260
671.61611,0.00177
669.55594,0.00372
667.49577,0.00528
665.43559,0.00178
663.37542,0.00184
661.31525,0.00328
659.25508,0.00377
657.19491,0.00307
655.13473,0.00256
653.07456,0.00314
651.01439,0.00448
648.95422,0.00579
646.89404,0.00617
644.83387,0.00545
642.77370,0.00375
640.71353,0.00229
638.65336,0.00252
636.59318,0.00383
634.53301,0.00426
632.47284,0.00334
630.41267,0.00265
628.35250,0.00344
626.29232,0.00480
624.23215,0.00467
622.17198,0.00266
620.11181,0.00102
618.05164,0.00202
615.99146,0.00314
613.93129,0.00204
611.87112,0.00122
609.81095,0.00121
607.75077,0.00068
605.69060,0.00051
603.63043,0.00043
601.57026,0.00000
599.51009,0.00000
