3996.73391,0.00094
3994.67373,0.00077
3992.61356,0.00053
3990.55339,0.00029
3988.49322,0.00029
3986.43305,0.00059
3984.37287,0.00094
3982.31270,0.00113
3980.25253,0.00133
3978.19236,0.00151
3976.13219,0.00147
3974.07201,0.00123
3972.01184,0.00098
3969.95167,0.00083
3967.89150,0.00080
3965.83133,0.00068
3963.77115,0.00035
3961.71098,0.00002
3959.65081,0.00000
3957.59064,0.00027
3955.53046,0.00051
3953.47029,0.00045
3951.41012,0.00033
3949.34995,0.00050
3947.28978,0.00079
3945.22960,0.00075
3943.16943,0.00049
3941.10926,0.00048
3939.04909,0.00067
3936.98892,0.00079
3934.92874,0.00085
3932.86857,0.00081
3930.80840,0.00065
3928.74823,0.00060
3926.68805,0.00083
3924.62788,0.00115
3922.56771,0.00117
3920.50754,0.00090
3918.44737,0.00072
3916.38719,0.00071
3914.32702,0.00071
3912.26685,0.00080
3910.20668,0.00106
3908.14651,0.00114
3906.08633,0.00093
3904.02616,0.00067
3901.96599,0.00073
3899.90582,0.00122
3897.84565,0.00154
3895.78547,0.00132
3893.72530,0.00094
3891.66513,0.00082
3889.60496,0.00082
3887.54478,0.00068
3885.48461,0.00067
3883.42444,0.00083
3881.36427,0.00090
3879.30410,0.00093
3877.24392,0.00090
3875.18375,0.00071
3873.12358,0.00058
3871.06341,0.00077
3869.00324,0.00111
3866.94306,0.00122
3864.88289,0.00134
3862.82272,0.00155
3860.76255,0.00144
3858.70237,0.00111
3856.64220,0.00089
3854.58203,0.00101
3852.52186,0.00142
3850.46169,0.00159
3848.40151,0.00125
3846.34134,0.00071
3844.28117,0.00052
3842.22100,0.00083
3840.16083,0.00126
3838.10065,0.00148
3836.04048,0.00146
3833.98031,0.00141
3831.92014,0.00159
3829.85997,0.00168
3827.79979,0.00141
3825.73962,0.00117
3823.67945,0.00117
3821.61928,0.00121
3819.55910,0.00110
3817.49893,0.00104
3815.43876,0.00145
3813.37859,0.00183
3811.31842,0.00153
3809.25824,0.00104
3807.19807,0.00111
3805.13790,0.00155
3803.07773,0.00177
3801.01756,0.00176
3798.95738,0.00154
3796.89721,0.00125
3794.83704,0.00130
3792.77687,0.00157
3790.71670,0.00160
3788.65652,0.00125
3786.59635,0.00075
3784.53618,0.00041
3782.47601,0.00044
3780.41583,0.00082
3778.35566,0.00120
3776.29549,0.00118
3774.23532,0.00087
3772.17515,0.00069
3770.11497,0.00072
3768.05480,0.00071
3765.99463,0.00069
3763.93446,0.00075
3761.87429,0.00072
3759.81411,0.00071
3757.75394,0.00103
3755.69377,0.00146
3753.63360,0.00165
3751.57342,0.00176
3749.51325,0.00170
3747.45308,0.00120
3745.39291,0.00094
3743.33274,0.00125
3741.27256,0.00149
3739.21239,0.00171
3737.15222,0.00227
3735.09205,0.00266
3733.03188,0.00236
3730.97170,0.00196
3728.91153,0.00168
3726.85136,0.00143
3724.79119,0.00150
3722.73102,0.00196
3720.67084,0.00239
3718.61067,0.00260
3716.55050,0.00258
3714.49033,0.00208
3712.43015,0.00141
3710.36998,0.00139
3708.30981,0.00175
3706.24964,0.00178
3704.18947,0.00162
3702.12929,0.00175
3700.06912,0.00211
3698.00895,0.00214
3695.94878,0.00193
3693.88861,0.00196
3691.82843,0.00232
3689.76826,0.00250
3687.70809,0.00221
3685.64792,0.00197
3683.58775,0.00216
3681.52757,0.00263
3679.46740,0.00317
3677.40723,0.00375
3675.34706,0.00407
3673.28688,0.00370
3671.22671,0.00321
3669.16654,0.00349
3667.10637,0.00422
3665.04620,0.00454
3662.98602,0.00451
3660.92585,0.00449
3658.86568,0.00462
3656.80551,0.00520
3654.74534,0.00605
3652.68516,0.00635
3650.62499,0.00648
3648.56482,0.00721
3646.50465,0.00758
3644.44447,0.00723
3642.38430,0.00718
3640.32413,0.00775
3638.26396,0.00837
3636.20379,0.00865
3634.14361,0.00884
3632.08344,0.00942
3630.02327,0.01031
3627.96310,0.01089
3625.90293,0.01090
3623.84275,0.01100
3621.78258,0.01150
3619.72241,0.01218
3617.66224,0.01284
3615.60207,0.01336
3613.54189,0.01403
3611.48172,0.01492
3609.42155,0.01563
3607.36138,0.01597
3605.30120,0.01622
3603.24103,0.01654
3601.18086,0.01672
3599.12069,0.01680
3597.06052,0.01711
3595.00034,0.01775
3592.94017,0.01842
3590.88000,0.01896
3588.81983,0.01946
3586.75966,0.02000
3584.69948,0.02063
3582.63931,0.02131
3580.57914,0.02172
3578.51897,0.02178
3576.45879,0.02202
3574.39862,0.02260
3572.33845,0.02304
3570.27828,0.02336
3568.21811,0.02407
3566.15793,0.02525
3564.09776,0.02608
3562.03759,0.02607
3559.97742,0.02574
3557.91725,0.02586
3555.85707,0.02653
3553.79690,0.02732
3551.73673,0.02802
3549.67656,0.02865
3547.61639,0.02930
3545.55621,0.03000
3543.49604,0.03049
3541.43587,0.03060
3539.37570,0.03068
3537.31552,0.03103
3535.25535,0.03146
3533.19518,0.03189
3531.13501,0.03249
3529.07484,0.03320
3527.01466,0.03375
3524.95449,0.03420
3522.89432,0.03482
3520.83415,0.03541
3518.77398,0.03570
3516.71380,0.03591
3514.65363,0.03624
3512.59346,0.03663
3510.53329,0.03710
3508.47312,0.03761
3506.41294,0.03783
3504.35277,0.03804
3502.29260,0.03879
3500.23243,0.03955
3498.17225,0.03986
3496.11208,0.04026
3494.05191,0.04085
3491.99174,0.04119
3489.93157,0.04144
3487.87139,0.04195
3485.81122,0.04237
3483.75105,0.04225
3481.69088,0.04214
3479.63071,0.04273
3477.57053,0.04359
3475.51036,0.04420
3473.45019,0.04453
3471.39002,0.04493
3469.32984,0.04555
3467.26967,0.04611
3465.20950,0.04645
3463.14933,0.04682
3461.08916,0.04708
3459.02898,0.04705
3456.96881,0.04706
3454.90864,0.04731
3452.84847,0.04772
3450.78830,0.04835
3448.72812,0.04896
3446.66795,0.04919
3444.60778,0.04932
3442.54761,0.04956
3440.48744,0.04977
3438.42726,0.05011
3436.36709,0.05041
3434.30692,0.05051
3432.24675,0.05078
3430.18657,0.05111
3428.12640,0.05132
3426.06623,0.05155
3424.00606,0.05164
3421.94589,0.05157
3419.88571,0.05171
3417.82554,0.05219
3415.76537,0.05266
3413.70520,0.05289
3411.64503,0.05306
3409.58485,0.05338
3407.52468,0.05369
3405.46451,0.05385
3403.40434,0.05419
3401.34416,0.05469
3399.28399,0.05476
3397.22382,0.05453
3395.16365,0.05472
3393.10348,0.05538
3391.04330,0.05584
3388.98313,0.05595
3386.92296,0.05602
3384.86279,0.05605
3382.80262,0.05606
3380.74244,0.05601
3378.68227,0.05590
3376.62210,0.05596
3374.56193,0.05619
3372.50176,0.05639
3370.44158,0.05647
3368.38141,0.05640
3366.32124,0.05633
3364.26107,0.05649
3362.20089,0.05668
3360.14072,0.05669
3358.08055,0.05658
3356.02038,0.05647
3353.96021,0.05654
3351.90003,0.05697
3349.83986,0.05745
3347.77969,0.05748
3345.71952,0.05744
3343.65935,0.05777
3341.59917,0.05812
3339.53900,0.05808
3337.47883,0.05775
3335.41866,0.05749
3333.35849,0.05748
3331.29831,0.05757
3329.23814,0.05768
3327.17797,0.05795
3325.11780,0.05836
3323.05762,0.05873
3320.99745,0.05892
3318.93728,0.05892
3316.87711,0.05882
3314.81694,0.05867
3312.75676,0.05869
3310.69659,0.05882
3308.63642,0.05867
3306.57625,0.05842
3304.51608,0.05835
3302.45590,0.05842
3300.39573,0.05857
3298.33556,0.05866
3296.27539,0.05869
3294.21521,0.05866
3292.15504,0.05837
3290.09487,0.05812
3288.03470,0.05831
3285.97453,0.05856
3283.91435,0.05859
3281.85418,0.05861
3279.79401,0.05864
3277.73384,0.05865
3275.67367,0.05882
3273.61349,0.05910
3271.55332,0.05917
3269.49315,0.05902
3267.43298,0.05891
3265.37281,0.05889
3263.31263,0.05874
3261.25246,0.05837
3259.19229,0.05812
3257.13212,0.05832
3255.07194,0.05872
3253.01177,0.05905
3250.95160,0.05931
3248.89143,0.05928
3246.83126,0.05894
3244.77108,0.05876
3242.71091,0.05891
3240.65074,0.05905
3238.59057,0.05902
3236.53040,0.05891
3234.47022,0.05857
3232.41005,0.05831
3230.34988,0.05840
3228.28971,0.05834
3226.22954,0.05801
3224.16936,0.05783
3222.10919,0.05775
3220.04902,0.05760
3217.98885,0.05755
3215.92867,0.05780
3213.86850,0.05810
3211.80833,0.05812
3209.74816,0.05804
3207.68799,0.05792
3205.62781,0.05775
3203.56764,0.05769
3201.50747,0.05761
3199.44730,0.05731
3197.38713,0.05709
3195.32695,0.05701
3193.26678,0.05692
3191.20661,0.05679
3189.14644,0.05645
3187.08626,0.05601
3185.02609,0.05578
3182.96592,0.05585
3180.90575,0.05596
3178.84558,0.05585
3176.78540,0.05562
3174.72523,0.05544
3172.66506,0.05537
3170.60489,0.05534
3168.54472,0.05527
3166.48454,0.05516
3164.42437,0.05494
3162.36420,0.05445
3160.30403,0.05388
3158.24386,0.05372
3156.18368,0.05409
3154.12351,0.05442
3152.06334,0.05411
3150.00317,0.05341
3147.94299,0.05306
3145.88282,0.05312
3143.82265,0.05317
3141.76248,0.05311
3139.70231,0.05306
3137.64213,0.05301
3135.58196,0.05282
3133.52179,0.05245
3131.46162,0.05203
3129.40145,0.05161
3127.34127,0.05113
3125.28110,0.05068
3123.22093,0.05057
3121.16076,0.05075
3119.10058,0.05065
3117.04041,0.05033
3114.98024,0.05021
3112.92007,0.05005
3110.85990,0.04963
3108.79972,0.04925
3106.73955,0.04909
3104.67938,0.04894
3102.61921,0.04874
3100.55904,0.04870
3098.49886,0.04858
3096.43869,0.04810
3094.37852,0.04762
3092.31835,0.04743
3090.25818,0.04719
3088.19800,0.04665
3086.13783,0.04619
3084.07766,0.04613
3082.01749,0.04622
3079.95731,0.04613
3077.89714,0.04591
3075.83697,0.04554
3073.77680,0.04500
3071.71663,0.04457
3069.65645,0.04444
3067.59628,0.04448
3065.53611,0.04444
3063.47594,0.04420
3061.41577,0.04396
3059.35559,0.04369
3057.29542,0.04321
3055.23525,0.04273
3053.17508,0.04249
3051.11491,0.04234
3049.05473,0.04231
3046.99456,0.04245
3044.93439,0.04228
3042.87422,0.04175
3040.81404,0.04131
3038.75387,0.04107
3036.69370,0.04093
3034.63353,0.04073
3032.57336,0.04043
3030.51318,0.04020
3028.45301,0.03997
3026.39284,0.03974
3024.33267,0.03959
3022.27250,0.03938
3020.21232,0.03896
3018.15215,0.03850
3016.09198,0.03824
3014.03181,0.03796
3011.97163,0.03751
3009.91146,0.03723
3007.85129,0.03726
3005.79112,0.03724
3003.73095,0.03692
3001.67077,0.03653
2999.61060,0.03641
2997.55043,0.03642
2995.49026,0.03629
2993.43009,0.03606
2991.36991,0.03584
2989.30974,0.03552
2987.24957,0.03511
2985.18940,0.03471
2983.12923,0.03448
2981.06905,0.03459
2979.00888,0.03467
2976.94871,0.03443
2974.88854,0.03420
2972.82836,0.03410
2970.76819,0.03413
2968.70802,0.03412
2966.64785,0.03396
2964.58768,0.03375
2962.52750,0.03351
2960.46733,0.03335
2958.40716,0.03345
2956.34699,0.03357
2954.28682,0.03351
2952.22664,0.03343
2950.16647,0.03346
2948.10630,0.03340
2946.04613,0.03306
2943.98596,0.03274
2941.92578,0.03262
2939.86561,0.03258
2937.80544,0.03260
2935.74527,0.03271
2933.68509,0.03275
2931.62492,0.03261
2929.56475,0.03246
2927.50458,0.03232
2925.44441,0.03211
2923.38423,0.03186
2921.32406,0.03160
2919.26389,0.03134
2917.20372,0.03117
2915.14355,0.03120
2913.08337,0.03128
2911.02320,0.03116
2908.96303,0.03080
2906.90286,0.03036
2904.84268,0.02996
2902.78251,0.02975
2900.72234,0.02987
2898.66217,0.03001
2896.60200,0.02993
2894.54182,0.02981
2892.48165,0.02975
2890.42148,0.02965
2888.36131,0.02958
2886.30114,0.02959
2884.24096,0.02954
2882.18079,0.02933
2880.12062,0.02915
2878.06045,0.02901
2876.00028,0.02884
2873.94010,0.02865
2871.87993,0.02839
2869.81976,0.02825
2867.75959,0.02825
2865.69941,0.02801
2863.63924,0.02763
2861.57907,0.02739
2859.51890,0.02725
2857.45873,0.02713
2855.39855,0.02694
2853.33838,0.02677
2851.27821,0.02679
2849.21804,0.02688
2847.15787,0.02684
2845.09769,0.02654
2843.03752,0.02610
2840.97735,0.02587
2838.91718,0.02593
2836.85700,0.02591
2834.79683,0.02567
2832.73666,0.02543
2830.67649,0.02535
2828.61632,0.02519
2826.55614,0.02492
2824.49597,0.02481
2822.43580,0.02474
2820.37563,0.02451
2818.31546,0.02433
2816.25528,0.02423
2814.19511,0.02410
2812.13494,0.02405
2810.07477,0.02398
2808.01460,0.02385
2805.95442,0.02378
2803.89425,0.02366
2801.83408,0.02337
2799.77391,0.02309
2797.71373,0.02300
2795.65356,0.02301
2793.59339,0.02304
2791.53322,0.02297
2789.47305,0.02275
2787.41287,0.02249
2785.35270,0.02237
2783.29253,0.02246
2781.23236,0.02248
2779.17219,0.02219
2777.11201,0.02190
2775.05184,0.02182
2772.99167,0.02172
2770.93150,0.02160
2768.87133,0.02156
2766.81115,0.02140
2764.75098,0.02114
2762.69081,0.02097
2760.63064,0.02090
2758.57046,0.02098
2756.51029,0.02104
2754.45012,0.02077
2752.38995,0.02047
2750.32978,0.02043
2748.26960,0.02045
2746.20943,0.02040
2744.14926,0.02029
2742.08909,0.02017
2740.02892,0.02006
2737.96874,0.01991
2735.90857,0.01974
2733.84840,0.01968
2731.78823,0.01961
2729.72805,0.01944
2727.66788,0.01934
2725.60771,0.01936
2723.54754,0.01939
2721.48737,0.01933
2719.42719,0.01906
2717.36702,0.01878
2715.30685,0.01860
2713.24668,0.01849
2711.18651,0.01858
2709.12633,0.01867
2707.06616,0.01853
2705.00599,0.01827
2702.94582,0.01806
2700.88565,0.01798
2698.82547,0.01800
2696.76530,0.01785
2694.70513,0.01744
2692.64496,0.01704
2690.58478,0.01696
2688.52461,0.01708
2686.46444,0.01713
2684.40427,0.01713
2682.34410,0.01712
2680.28392,0.01690
2678.22375,0.01646
2676.16358,0.01615
2674.10341,0.01612
2672.04324,0.01613
2669.98306,0.01611
2667.92289,0.01603
2665.86272,0.01582
2663.80255,0.01564
2661.74238,0.01559
2659.68220,0.01552
2657.62203,0.01543
2655.56186,0.01532
2653.50169,0.01511
2651.44151,0.01492
2649.38134,0.01487
2647.32117,0.01485
2645.26100,0.01462
2643.20083,0.01436
2641.14065,0.01434
2639.08048,0.01440
2637.02031,0.01426
2634.96014,0.01399
2632.89997,0.01379
2630.83979,0.01373
2628.77962,0.01370
2626.71945,0.01333
2624.65928,0.01298
2622.59910,0.01306
2620.53893,0.01299
2618.47876,0.01261
2616.41859,0.01242
2614.35842,0.01237
2612.29824,0.01248
2610.23807,0.01273
2608.17790,0.01256
2606.11773,0.01218
2604.05756,0.01224
2601.99738,0.01236
2599.93721,0.01217
2597.87704,0.01187
2595.81687,0.01169
2593.75670,0.01185
2591.69652,0.01214
2589.63635,0.01211
2587.57618,0.01171
2585.51601,0.01127
2583.45583,0.01126
2581.39566,0.01158
2579.33549,0.01168
2577.27532,0.01154
2575.21515,0.01149
2573.15497,0.01155
2571.09480,0.01169
2569.03463,0.01159
2566.97446,0.01111
2564.91429,0.01070
2562.85411,0.01067
2560.79394,0.01088
2558.73377,0.01101
2556.67360,0.01107
2554.61342,0.01123
2552.55325,0.01139
2550.49308,0.01139
2548.43291,0.01135
2546.37274,0.01127
2544.31256,0.01099
2542.25239,0.01069
2540.19222,0.01050
2538.13205,0.01051
2536.07188,0.01084
2534.01170,0.01124
2531.95153,0.01131
2529.89136,0.01130
2527.83119,0.01153
2525.77102,0.01181
2523.71084,0.01178
2521.65067,0.01128
2519.59050,0.01085
2517.53033,0.01087
2515.47015,0.01110
2513.40998,0.01138
2511.34981,0.01152
2509.28964,0.01136
2507.22947,0.01121
2505.16929,0.01125
2503.10912,0.01123
2501.04895,0.01127
2498.98878,0.01145
2496.92861,0.01136
2494.86843,0.01099
2492.80826,0.01097
2490.74809,0.01150
2488.68792,0.01168
2486.62775,0.01128
2484.56757,0.01122
2482.50740,0.01169
2480.44723,0.01186
2478.38706,0.01161
2476.32688,0.01155
2474.26671,0.01170
2472.20654,0.01184
2470.14637,0.01189
2468.08620,0.01188
2466.02602,0.01182
2463.96585,0.01174
2461.90568,0.01186
2459.84551,0.01216
2457.78534,0.01248
2455.72516,0.01266
2453.66499,0.01238
2451.60482,0.01198
2449.54465,0.01211
2447.48447,0.01251
2445.42430,0.01275
2443.36413,0.01262
2441.30396,0.01235
2439.24379,0.01247
2437.18361,0.01275
2435.12344,0.01282
2433.06327,0.01264
2431.00310,0.01224
2428.94293,0.01196
2426.88275,0.01190
2424.82258,0.01206
2422.76241,0.01237
2420.70224,0.01271
2418.64207,0.01296
2416.58189,0.01301
2414.52172,0.01278
2412.46155,0.01229
2410.40138,0.01207
2408.34120,0.01227
2406.28103,0.01251
2404.22086,0.01252
2402.16069,0.01221
2400.10052,0.01181
2398.04034,0.01177
2395.98017,0.01213
2393.92000,0.01246
2391.85983,0.01247
2389.79966,0.01227
2387.73948,0.01215
2385.67931,0.01224
2383.61914,0.01231
2381.55897,0.01224
2379.49880,0.01220
2377.43862,0.01230
2375.37845,0.01222
2373.31828,0.01205
2371.25811,0.01196
2369.19793,0.01201
2367.13776,0.01215
2365.07759,0.01175
2363.01742,0.01067
2360.95725,0.01083
2358.89707,0.01170
2356.83690,0.01246
2354.77673,0.01303
2352.71656,0.01345
2350.65639,0.01409
2348.59621,0.01403
2346.53604,0.01250
2344.47587,0.01251
2342.41570,0.01300
2340.35552,0.01300
2338.29535,0.01327
2336.23518,0.01374
2334.17501,0.01373
2332.11484,0.01315
2330.05466,0.01298
2327.99449,0.01332
2325.93432,0.01390
2323.87415,0.01390
2321.81398,0.01351
2319.75380,0.01260
2317.69363,0.01200
2315.63346,0.01190
2313.57329,0.01216
2311.51312,0.01212
2309.45294,0.01141
2307.39277,0.01079
2305.33260,0.01093
2303.27243,0.01143
2301.21225,0.01148
2299.15208,0.01132
2297.09191,0.01137
2295.03174,0.01148
2292.97157,0.01157
2290.91139,0.01151
2288.85122,0.01115
2286.79105,0.01070
2284.73088,0.01054
2282.67071,0.01082
2280.61053,0.01145
2278.55036,0.01176
2276.49019,0.01110
2274.43002,0.01011
2272.36984,0.00983
2270.30967,0.01018
2268.24950,0.01049
2266.18933,0.01075
2264.12916,0.01108
2262.06898,0.01135
2260.00881,0.01137
2257.94864,0.01102
2255.88847,0.01043
2253.82830,0.00986
2251.76812,0.00944
2249.70795,0.00940
2247.64778,0.00991
2245.58761,0.01041
2243.52744,0.00996
2241.46726,0.00890
2239.40709,0.00840
2237.34692,0.00859
2235.28675,0.00895
2233.22657,0.00956
2231.16640,0.00997
2229.10623,0.00923
2227.04606,0.00796
2224.98589,0.00744
2222.92571,0.00759
2220.86554,0.00767
2218.80537,0.00759
2216.74520,0.00739
2214.68503,0.00659
2212.62485,0.00535
2210.56468,0.00529
2208.50451,0.00732
2206.44434,0.00913
2204.38417,0.00905
2202.32399,0.00874
2200.26382,0.00878
2198.20365,0.00766
2196.14348,0.00613
2194.08330,0.00585
2192.02313,0.00656
2189.96296,0.00741
2187.90279,0.00753
2185.84262,0.00719
2183.78244,0.00752
2181.72227,0.00821
2179.66210,0.00831
2177.60193,0.00806
2175.54176,0.00761
2173.48158,0.00675
2171.42141,0.00607
2169.36124,0.00583
2167.30107,0.00596
2165.24089,0.00639
2163.18072,0.00616
2161.12055,0.00447
2159.06038,0.00347
2157.00021,0.00470
2154.94003,0.00520
2152.87986,0.00387
2150.81969,0.00322
2148.75952,0.00425
2146.69935,0.00546
2144.63917,0.00552
2142.57900,0.00486
2140.51883,0.00468
2138.45866,0.00473
2136.39849,0.00471
2134.33831,0.00523
2132.27814,0.00581
2130.21797,0.00611
2128.15780,0.00623
2126.09762,0.00606
2124.03745,0.00611
2121.97728,0.00666
2119.91711,0.00683
2117.85694,0.00648
2115.79676,0.00623
2113.73659,0.00610
2111.67642,0.00608
2109.61625,0.00603
2107.55608,0.00564
2105.49590,0.00533
2103.43573,0.00566
2101.37556,0.00623
2099.31539,0.00647
2097.25521,0.00634
2095.19504,0.00633
2093.13487,0.00683
2091.07470,0.00748
2089.01453,0.00754
2086.95435,0.00688
2084.89418,0.00623
2082.83401,0.00571
2080.77384,0.00497
2078.71367,0.00491
2076.65349,0.00573
2074.59332,0.00622
2072.53315,0.00607
2070.47298,0.00558
2068.41281,0.00517
2066.35263,0.00543
2064.29246,0.00595
2062.23229,0.00608
2060.17212,0.00625
2058.11194,0.00642
2056.05177,0.00587
2053.99160,0.00524
2051.93143,0.00512
2049.87126,0.00479
2047.81108,0.00433
2045.75091,0.00432
2043.69074,0.00455
2041.63057,0.00516
2039.57040,0.00590
2037.51022,0.00555
2035.45005,0.00432
2033.38988,0.00330
2031.32971,0.00364
2029.26954,0.00518
2027.20936,0.00573
2025.14919,0.00445
2023.08902,0.00324
2021.02885,0.00316
2018.96867,0.00310
2016.90850,0.00311
2014.84833,0.00320
2012.78816,0.00250
2010.72799,0.00144
2008.66781,0.00065
2006.60764,0.00088
2004.54747,0.00217
2002.48730,0.00311
2000.42713,0.00342
1998.36695,0.00363
1996.30678,0.00311
1994.24661,0.00159
1992.18644,0.00030
1990.12626,0.00029
1988.06609,0.00154
1986.00592,0.00357
1983.94575,0.00488
1981.88558,0.00515
1979.82540,0.00494
1977.76523,0.00407
1975.70506,0.00343
1973.64489,0.00386
1971.58472,0.00428
1969.52454,0.00341
1967.46437,0.00227
1965.40420,0.00250
1963.34403,0.00346
1961.28386,0.00392
1959.22368,0.00421
1957.16351,0.00474
1955.10334,0.00453
1953.04317,0.00364
1950.98299,0.00338
1948.92282,0.00375
1946.86265,0.00422
1944.80248,0.00447
1942.74231,0.00414
1940.68213,0.00340
1938.62196,0.00281
1936.56179,0.00254
1934.50162,0.00254
1932.44145,0.00274
1930.38127,0.00286
1928.32110,0.00264
1926.26093,0.00244
1924.20076,0.00269
1922.14059,0.00301
1920.08041,0.00312
1918.02024,0.00336
1915.96007,0.00380
1913.89990,0.00398
1911.83972,0.00371
1909.77955,0.00365
1907.71938,0.00409
1905.65921,0.00407
1903.59904,0.00344
1901.53886,0.00318
1899.47869,0.00339
1897.41852,0.00367
1895.35835,0.00389
1893.29818,0.00371
1891.23800,0.00316
1889.17783,0.00300
1887.11766,0.00343
1885.05749,0.00390
1882.99731,0.00402
1880.93714,0.00399
1878.87697,0.00412
1876.81680,0.00438
1874.75663,0.00454
1872.69645,0.00442
1870.63628,0.00409
1868.57611,0.00386
1866.51594,0.00404
1864.45577,0.00443
1862.39559,0.00462
1860.33542,0.00458
1858.27525,0.00450
1856.21508,0.00435
1854.15491,0.00423
1852.09473,0.00429
1850.03456,0.00454
1847.97439,0.00482
1845.91422,0.00487
1843.85404,0.00459
1841.79387,0.00426
1839.73370,0.00418
1837.67353,0.00439
1835.61336,0.00452
1833.55318,0.00432
1831.49301,0.00409
1829.43284,0.00418
1827.37267,0.00440
1825.31250,0.00451
1823.25232,0.00450
1821.19215,0.00432
1819.13198,0.00415
1817.07181,0.00422
1815.01163,0.00434
1812.95146,0.00427
1810.89129,0.00418
1808.83112,0.00435
1806.77095,0.00463
1804.71077,0.00477
1802.65060,0.00480
1800.59043,0.00481
1798.53026,0.00476
1796.47009,0.00460
1794.40991,0.00452
1792.34974,0.00467
1790.28957,0.00497
1788.22940,0.00520
1786.16923,0.00524
1784.10905,0.00514
1782.04888,0.00505
1779.98871,0.00501
1777.92854,0.00498
1775.86836,0.00498
1773.80819,0.00505
1771.74802,0.00534
1769.68785,0.00578
1767.62768,0.00602
1765.56750,0.00587
1763.50733,0.00560
1761.44716,0.00560
1759.38699,0.00581
1757.32682,0.00594
1755.26664,0.00594
1753.20647,0.00600
1751.14630,0.00631
1749.08613,0.00682
1747.02596,0.00729
1744.96578,0.00746
1742.90561,0.00737
1740.84544,0.00742
1738.78527,0.00762
1736.72509,0.00773
1734.66492,0.00789
1732.60475,0.00824
1730.54458,0.00853
1728.48441,0.00866
1726.42423,0.00875
1724.36406,0.00889
1722.30389,0.00899
1720.24372,0.00907
1718.18355,0.00937
1716.12337,0.00986
1714.06320,0.01019
1712.00303,0.01036
1709.94286,0.01057
1707.88268,0.01089
1705.82251,0.01128
1703.76234,0.01166
1701.70217,0.01208
1699.64200,0.01261
1697.58182,0.01306
1695.52165,0.01351
1693.46148,0.01389
1691.40131,0.01406
1689.34114,0.01439
1687.28096,0.01505
1685.22079,0.01593
1683.16062,0.01679
1681.10045,0.01721
1679.04028,0.01719
1676.98010,0.01718
1674.91993,0.01761
1672.85976,0.01830
1670.79959,0.01906
1668.73941,0.01987
1666.67924,0.02029
1664.61907,0.02038
1662.55890,0.02057
1660.49873,0.02081
1658.43855,0.02086
1656.37838,0.02073
1654.31821,0.02085
1652.25804,0.02164
1650.19787,0.02238
1648.13769,0.02261
1646.07752,0.02247
1644.01735,0.02211
1641.95718,0.02167
1639.89701,0.02134
1637.83683,0.02130
1635.77666,0.02153
1633.71649,0.02145
1631.65632,0.02095
1629.59614,0.02047
1627.53597,0.02024
1625.47580,0.02014
1623.41563,0.02000
1621.35546,0.01986
1619.29528,0.01969
1617.23511,0.01949
1615.17494,0.01918
1613.11477,0.01881
1611.05460,0.01844
1608.99442,0.01802
1606.93425,0.01755
1604.87408,0.01719
1602.81391,0.01696
1600.75373,0.01669
1598.69356,0.01632
1596.63339,0.01588
1594.57322,0.01543
1592.51305,0.01491
1590.45287,0.01427
1588.39270,0.01364
1586.33253,0.01314
1584.27236,0.01277
1582.21219,0.01241
1580.15201,0.01199
1578.09184,0.01163
1576.03167,0.01138
1573.97150,0.01113
1571.91133,0.01092
1569.85115,0.01073
1567.79098,0.01032
1565.73081,0.00971
1563.67064,0.00906
1561.61046,0.00831
1559.55029,0.00766
1557.49012,0.00772
1555.42995,0.00796
1553.36978,0.00780
1551.30960,0.00753
1549.24943,0.00737
1547.18926,0.00714
1545.12909,0.00672
1543.06892,0.00640
1541.00874,0.00639
1538.94857,0.00634
1536.88840,0.00601
1534.82823,0.00573
1532.76805,0.00574
1530.70788,0.00585
1528.64771,0.00582
1526.58754,0.00558
1524.52737,0.00528
1522.46719,0.00517
1520.40702,0.00526
1518.34685,0.00528
1516.28668,0.00515
1514.22651,0.00487
1512.16633,0.00460
1510.10616,0.00459
1508.04599,0.00493
1505.98582,0.00510
1503.92565,0.00464
1501.86547,0.00402
1499.80530,0.00365
1497.74513,0.00364
1495.68496,0.00379
1493.62478,0.00370
1491.56461,0.00348
1489.50444,0.00361
1487.44427,0.00401
1485.38410,0.00422
1483.32392,0.00420
1481.26375,0.00413
1479.20358,0.00412
1477.14341,0.00414
1475.08324,0.00416
1473.02306,0.00426
1470.96289,0.00442
1468.90272,0.00453
1466.84255,0.00461
1464.78238,0.00467
1462.72220,0.00461
1460.66203,0.00455
1458.60186,0.00464
1456.54169,0.00476
1454.48151,0.00474
1452.42134,0.00474
1450.36117,0.00484
1448.30100,0.00492
1446.24083,0.00487
1444.18065,0.00474
1442.12048,0.00456
1440.06031,0.00442
1438.00014,0.00446
1435.93997,0.00472
1433.87979,0.00494
1431.81962,0.00507
1429.75945,0.00522
1427.69928,0.00533
1425.63910,0.00532
1423.57893,0.00530
1421.51876,0.00528
1419.45859,0.00522
1417.39842,0.00527
1415.33824,0.00543
1413.27807,0.00552
1411.21790,0.00548
1409.15773,0.00538
1407.09756,0.00534
1405.03738,0.00537
1402.97721,0.00532
1400.91704,0.00509
1398.85687,0.00478
1396.79670,0.00452
1394.73652,0.00434
1392.67635,0.00423
1390.61618,0.00420
1388.55601,0.00429
1386.49583,0.00443
1384.43566,0.00446
1382.37549,0.00431
1380.31532,0.00414
1378.25515,0.00416
1376.19497,0.00447
1374.13480,0.00483
1372.07463,0.00487
1370.01446,0.00461
1367.95429,0.00432
1365.89411,0.00407
1363.83394,0.00382
1361.77377,0.00365
1359.71360,0.00366
1357.65343,0.00373
1355.59325,0.00367
1353.53308,0.00341
1351.47291,0.00318
1349.41274,0.00319
1347.35256,0.00326
1345.29239,0.00316
1343.23222,0.00298
1341.17205,0.00286
1339.11188,0.00289
1337.05170,0.00297
1334.99153,0.00295
1332.93136,0.00288
1330.87119,0.00283
1328.81102,0.00274
1326.75084,0.00260
1324.69067,0.00257
1322.63050,0.00272
1320.57033,0.00295
1318.51015,0.00308
1316.44998,0.00310
1314.38981,0.00306
1312.32964,0.00294
1310.26947,0.00275
1308.20929,0.00266
1306.14912,0.00274
1304.08895,0.00289
1302.02878,0.00305
1299.96861,0.00312
1297.90843,0.00312
1295.84826,0.00308
1293.78809,0.00308
1291.72792,0.00314
1289.66775,0.00324
1287.60757,0.00333
1285.54740,0.00334
1283.48723,0.00334
1281.42706,0.00343
1279.36688,0.00355
1277.30671,0.00361
1275.24654,0.00364
1273.18637,0.00378
1271.12620,0.00400
1269.06602,0.00407
1267.00585,0.00398
1264.94568,0.00399
1262.88551,0.00410
1260.82534,0.00422
1258.76516,0.00421
1256.70499,0.00413
1254.64482,0.00418
1252.58465,0.00426
1250.52447,0.00420
1248.46430,0.00401
1246.40413,0.00379
1244.34396,0.00360
1242.28379,0.00341
1240.22361,0.00319
1238.16344,0.00306
1236.10327,0.00294
1234.04310,0.00271
1231.98293,0.00253
1229.92275,0.00253
1227.86258,0.00254
1225.80241,0.00233
1223.74224,0.00193
1221.68207,0.00162
1219.62189,0.00156
1217.56172,0.00146
1215.50155,0.00130
1213.44138,0.00129
1211.38120,0.00131
1209.32103,0.00116
1207.26086,0.00089
1205.20069,0.00063
1203.14052,0.00046
1201.08034,0.00041
1199.02017,0.00057
1196.96000,0.00089
1194.89983,0.00120
1192.83966,0.00146
1190.77948,0.00172
1188.71931,0.00204
1186.65914,0.00245
1184.59897,0.00281
1182.53880,0.00315
1180.47862,0.00366
1178.41845,0.00433
1176.35828,0.00515
1174.29811,0.00620
1172.23793,0.00717
1170.17776,0.00786
1168.11759,0.00855
1166.05742,0.00944
1163.99725,0.01030
1161.93707,0.01096
1159.87690,0.01155
1157.81673,0.01228
1155.75656,0.01319
1153.69639,0.01403
1151.63621,0.01464
1149.57604,0.01533
1147.51587,0.01624
1145.45570,0.01714
1143.39552,0.01794
1141.33535,0.01886
1139.27518,0.01986
1137.21501,0.02082
1135.15484,0.02191
1133.09466,0.02315
1131.03449,0.02416
1128.97432,0.02499
1126.91415,0.02599
1124.85398,0.02719
1122.79380,0.02851
1120.73363,0.02986
1118.67346,0.03119
1116.61329,0.03244
1114.55312,0.03379
1112.49294,0.03536
1110.43277,0.03681
1108.37260,0.03799
1106.31243,0.03920
1104.25225,0.04065
1102.19208,0.04231
1100.13191,0.04388
1098.07174,0.04499
1096.01157,0.04580
1093.95139,0.04674
1091.89122,0.04774
1089.83105,0.04872
1087.77088,0.04989
1085.71071,0.05115
1083.65053,0.05221
1081.59036,0.05297
1079.53019,0.05361
1077.47002,0.05428
1075.40985,0.05505
1073.34967,0.05587
1071.28950,0.05649
1069.22933,0.05676
1067.16916,0.05673
1065.10898,0.05655
1063.04881,0.05640
1060.98864,0.05622
1058.92847,0.05575
1056.86830,0.05504
1054.80812,0.05424
1052.74795,0.05336
1050.68778,0.05238
1048.62761,0.05132
1046.56744,0.05027
1044.50726,0.04916
1042.44709,0.04786
1040.38692,0.04646
1038.32675,0.04511
1036.26657,0.04390
1034.20640,0.04285
1032.14623,0.04172
1030.08606,0.04028
1028.02589,0.03877
1025.96571,0.03750
1023.90554,0.03650
1021.84537,0.03563
1019.78520,0.03486
1017.72503,0.03413
1015.66485,0.03334
1013.60468,0.03241
1011.54451,0.03154
1009.48434,0.03104
1007.42417,0.03089
1005.36399,0.03079
1003.30382,0.03086
1001.24365,0.03128
999.18348,0.03189
997.12330,0.03249
995.06313,0.03320
993.00296,0.03423
990.94279,0.03532
988.88262,0.03595
986.82244,0.03620
984.76227,0.03642
982.70210,0.03643
980.64193,0.03602
978.58176,0.03525
976.52158,0.03435
974.46141,0.03335
972.40124,0.03203
970.34107,0.03047
968.28089,0.02902
966.22072,0.02766
964.16055,0.02624
962.10038,0.02482
960.04021,0.02343
957.98003,0.02226
955.91986,0.02145
953.85969,0.02075
951.79952,0.01986
949.73935,0.01898
947.67917,0.01841
945.61900,0.01789
943.55883,0.01731
941.49866,0.01706
939.43849,0.01714
937.37831,0.01697
935.31814,0.01648
933.25797,0.01605
931.19780,0.01593
929.13762,0.01592
927.07745,0.01552
925.01728,0.01495
922.95711,0.01461
920.89694,0.01431
918.83676,0.01387
916.77659,0.01332
914.71642,0.01264
912.65625,0.01200
910.59608,0.01171
908.53590,0.01162
906.47573,0.01139
904.41556,0.01118
902.35539,0.01119
900.29522,0.01110
898.23504,0.01090
896.17487,0.01093
894.11470,0.01123
892.05453,0.01166
889.99435,0.01203
887.93418,0.01238
885.87401,0.01277
883.81384,0.01302
881.75367,0.01320
879.69349,0.01343
877.63332,0.01388
875.57315,0.01476
873.51298,0.01538
871.45281,0.01539
869.39263,0.01556
867.33246,0.01607
865.27229,0.01630
863.21212,0.01635
861.15194,0.01652
859.09177,0.01634
857.03160,0.01567
854.97143,0.01513
852.91126,0.01503
850.85108,0.01489
848.79091,0.01438
846.73074,0.01364
844.67057,0.01307
842.61040,0.01278
840.55022,0.01231
838.49005,0.01160
836.42988,0.01120
834.36971,0.01111
832.30954,0.01078
830.24936,0.00996
828.18919,0.00907
826.12902,0.00868
824.06885,0.00880
822.00867,0.00862
819.94850,0.00780
817.88833,0.00710
815.82816,0.00668
813.76799,0.00605
811.70781,0.00542
809.64764,0.00514
807.58747,0.00506
805.52730,0.00517
803.46713,0.00518
801.40695,0.00479
799.34678,0.00439
797.28661,0.00448
795.22644,0.00486
793.16627,0.00477
791.10609,0.00426
789.04592,0.00421
786.98575,0.00463
784.92558,0.00480
782.86540,0.00443
780.80523,0.00381
778.74506,0.00335
776.68489,0.00360
774.62472,0.00441
772.56454,0.00472
770.50437,0.00430
768.44420,0.00389
766.38403,0.00371
764.32386,0.00353
762.26368,0.00332
760.20351,0.00313
758.14334,0.00306
756.08317,0.00289
754.02299,0.00253
751.96282,0.00230
749.90265,0.00223
747.84248,0.00225
745.78231,0.00227
743.72213,0.00229
741.66196,0.00230
739.60179,0.00217
737.54162,0.00213
735.48145,0.00236
733.42127,0.00276
731.36110,0.00285
729.30093,0.00220
727.24076,0.00153
725.18059,0.00149
723.12041,0.00169
721.06024,0.00170
719.00007,0.00204
716.93990,0.00222
714.87972,0.00201
712.81955,0.00202
710.75938,0.00260
708.69921,0.00322
706.63904,0.00331
704.57886,0.00303
702.51869,0.00270
700.45852,0.00250
698.39835,0.00264
696.33818,0.00287
694.27800,0.00275
692.21783,0.00210
690.15766,0.00144
688.09749,0.00181
686.03731,0.00318
683.97714,0.00443
681.91697,0.00505
679.85680,0.00533
677.79663,0.00542
675.73645,0.00488
673.67628,0.00403
671.61611,0.00400
669.55594,0.00313
667.49577,0.00202
665.43559,0.00431
663.37542,0.00344
661.31525,0.00236
659.25508,0.00213
657.19491,0.00246
655.13473,0.00313
653.07456,0.00368
651.01439,0.00380
648.95422,0.00345
646.89404,0.00290
644.83387,0.00218
642.77370,0.00137
640.71353,0.00156
638.65336,0.00374
636.59318,0.00605
634.53301,0.00626
632.47284,0.00509
630.41267,0.00424
628.35250,0.00384
626.29232,0.00330
624.23215,0.00318
622.17198,0.00348
620.11181,0.00285
618.05164,0.00191
615.99146,0.00161
613.93129,0.00208
611.87112,0.00372
609.81095,0.00444
607.75077,0.00260
605.69060,0.00073
603.63043,0.00050
601.57026,0.00000
599.51009,0.00000
