3996.73391,0.00023
3994.67373,0.00026
3992.61356,0.00041
3990.55339,0.00059
3988.49322,0.00063
3986.43305,0.00051
3984.37287,0.00055
3982.31270,0.00089
3980.25253,0.00119
3978.19236,0.00119
3976.13219,0.00099
3974.07201,0.00088
3972.01184,0.00086
3969.95167,0.00079
3967.89150,0.00074
3965.83133,0.00065
3963.77115,0.00032
3961.71098,0.00000
3959.65081,0.00006
3957.59064,0.00034
3955.53046,0.00052
3953.47029,0.00045
3951.41012,0.00027
3949.34995,0.00022
3947.28978,0.00037
3945.22960,0.00043
3943.16943,0.00041
3941.10926,0.00053
3939.04909,0.00076
3936.98892,0.00092
3934.92874,0.00093
3932.86857,0.00068
3930.80840,0.00028
3928.74823,0.00013
3926.68805,0.00035
3924.62788,0.00067
3922.56771,0.00071
3920.50754,0.00047
3918.44737,0.00041
3916.38719,0.00066
3914.32702,0.00080
3912.26685,0.00068
3910.20668,0.00061
3908.14651,0.00053
3906.08633,0.00024
3904.02616,0.00009
3901.96599,0.00060
3899.90582,0.00132
3897.84565,0.00142
3895.78547,0.00090
3893.72530,0.00048
3891.66513,0.00047
3889.60496,0.00039
3887.54478,0.00009
3885.48461,0.00003
3883.42444,0.00023
3881.36427,0.00055
3879.30410,0.00103
3877.24392,0.00114
3875.18375,0.00058
3873.12358,0.00002
3871.06341,0.00026
3869.00324,0.00092
3866.94306,0.00101
3864.88289,0.00075
3862.82272,0.00081
3860.76255,0.00094
3858.70237,0.00083
3856.64220,0.00049
3854.58203,0.00027
3852.52186,0.00064
3850.46169,0.00120
3848.40151,0.00133
3846.34134,0.00108
3844.28117,0.00080
3842.22100,0.00081
3840.16083,0.00110
3838.10065,0.00132
3836.04048,0.00136
3833.98031,0.00142
3831.92014,0.00152
3829.85997,0.00133
3827.79979,0.00083
3825.73962,0.00047
3823.67945,0.00050
3821.61928,0.00090
3819.55910,0.00131
3817.49893,0.00143
3815.43876,0.00158
3813.37859,0.00165
3811.31842,0.00142
3809.25824,0.00116
3807.19807,0.00110
3805.13790,0.00099
3803.07773,0.00068
3801.01756,0.00059
3798.95738,0.00086
3796.89721,0.00116
3794.83704,0.00137
3792.77687,0.00149
3790.71670,0.00143
3788.65652,0.00115
3786.59635,0.00087
3784.53618,0.00080
3782.47601,0.00087
3780.41583,0.00099
3778.35566,0.00108
3776.29549,0.00089
3774.23532,0.00049
3772.17515,0.00016
3770.11497,0.00016
3768.05480,0.00045
3765.99463,0.00070
3763.93446,0.00058
3761.87429,0.00017
3759.81411,0.00005
3757.75394,0.00040
3755.69377,0.00070
3753.63360,0.00074
3751.57342,0.00073
3749.51325,0.00061
3747.45308,0.00033
3745.39291,0.00058
3743.33274,0.00144
3741.27256,0.00174
3739.21239,0.00158
3737.15222,0.00186
3735.09205,0.00224
3733.03188,0.00185
3730.97170,0.00126
3728.91153,0.00109
3726.85136,0.00111
3724.79119,0.00128
3722.73102,0.00164
3720.67084,0.00176
3718.61067,0.00146
3716.55050,0.00097
3714.49033,0.00054
3712.43015,0.00066
3710.36998,0.00151
3708.30981,0.00208
3706.24964,0.00188
3704.18947,0.00144
3702.12929,0.00132
3700.06912,0.00155
3698.00895,0.00164
3695.94878,0.00149
3693.88861,0.00144
3691.82843,0.00159
3689.76826,0.00162
3687.70809,0.00145
3685.64792,0.00147
3683.58775,0.00176
3681.52757,0.00199
3679.46740,0.00196
3677.40723,0.00210
3675.34706,0.00272
3673.28688,0.00302
3671.22671,0.00298
3669.16654,0.00335
3667.10637,0.00378
3665.04620,0.00364
3662.98602,0.00323
3660.92585,0.00311
3658.86568,0.00337
3656.80551,0.00406
3654.74534,0.00484
3652.68516,0.00505
3650.62499,0.00512
3648.56482,0.00561
3646.50465,0.00580
3644.44447,0.00562
3642.38430,0.00577
3640.32413,0.00634
3638.26396,0.00699
3636.20379,0.00759
3634.14361,0.00805
3632.08344,0.00821
3630.02327,0.00843
3627.96310,0.00919
3625.90293,0.00970
3623.84275,0.00961
3621.78258,0.00960
3619.72241,0.01021
3617.66224,0.01126
3615.60207,0.01201
3613.54189,0.01238
3611.48172,0.01275
3609.42155,0.01326
3607.36138,0.01383
3605.30120,0.01440
3603.24103,0.01489
3601.18086,0.01516
3599.12069,0.01518
3597.06052,0.01529
3595.00034,0.01583
3592.94017,0.01656
3590.88000,0.01701
3588.81983,0.01734
3586.75966,0.01804
3584.69948,0.01877
3582.63931,0.01902
3580.57914,0.01900
3578.51897,0.01920
3576.45879,0.01984
3574.39862,0.02067
3572.33845,0.02123
3570.27828,0.02164
3568.21811,0.02235
3566.15793,0.02329
3564.09776,0.02377
3562.03759,0.02366
3559.97742,0.02358
3557.91725,0.02414
3555.85707,0.02511
3553.79690,0.02582
3551.73673,0.02610
3549.67656,0.02640
3547.61639,0.02703
3545.55621,0.02774
3543.49604,0.02827
3541.43587,0.02865
3539.37570,0.02901
3537.31552,0.02939
3535.25535,0.02967
3533.19518,0.02986
3531.13501,0.03025
3529.07484,0.03088
3527.01466,0.03136
3524.95449,0.03170
3522.89432,0.03225
3520.83415,0.03286
3518.77398,0.03335
3516.71380,0.03371
3514.65363,0.03386
3512.59346,0.03396
3510.53329,0.03430
3508.47312,0.03485
3506.41294,0.03528
3504.35277,0.03571
3502.29260,0.03648
3500.23243,0.03733
3498.17225,0.03778
3496.11208,0.03787
3494.05191,0.03794
3491.99174,0.03823
3489.93157,0.03884
3487.87139,0.03957
3485.81122,0.03994
3483.75105,0.03989
3481.69088,0.04007
3479.63071,0.04078
3477.57053,0.04151
3475.51036,0.04205
3473.45019,0.04254
3471.39002,0.04297
3469.32984,0.04338
3467.26967,0.04374
3465.20950,0.04405
3463.14933,0.04448
3461.08916,0.04482
3459.02898,0.04467
3456.96881,0.04440
3454.90864,0.04447
3452.84847,0.04481
3450.78830,0.04555
3448.72812,0.04646
3446.66795,0.04670
3444.60778,0.04636
3442.54761,0.04620
3440.48744,0.04632
3438.42726,0.04676
3436.36709,0.04740
3434.30692,0.04773
3432.24675,0.04771
3430.18657,0.04780
3428.12640,0.04810
3426.06623,0.04838
3424.00606,0.04863
3421.94589,0.04905
3419.88571,0.04951
3417.82554,0.04977
3415.76537,0.04988
3413.70520,0.04995
3411.64503,0.05007
3409.58485,0.05034
3407.52468,0.05062
3405.46451,0.05080
3403.40434,0.05117
3401.34416,0.05172
3399.28399,0.05202
3397.22382,0.05201
3395.16365,0.05196
3393.10348,0.05214
3391.04330,0.05238
3388.98313,0.05246
3386.92296,0.05254
3384.86279,0.05268
3382.80262,0.05286
3380.74244,0.05309
3378.68227,0.05333
3376.62210,0.05355
3374.56193,0.05377
3372.50176,0.05384
3370.44158,0.05380
3368.38141,0.05369
3366.32124,0.05347
3364.26107,0.05349
3362.20089,0.05383
3360.14072,0.05404
3358.08055,0.05386
3356.02038,0.05368
3353.96021,0.05391
3351.90003,0.05434
3349.83986,0.05451
3347.77969,0.05450
3345.71952,0.05458
3343.65935,0.05465
3341.59917,0.05481
3339.53900,0.05517
3337.47883,0.05545
3335.41866,0.05560
3333.35849,0.05568
3331.29831,0.05559
3329.23814,0.05543
3327.17797,0.05549
3325.11780,0.05564
3323.05762,0.05574
3320.99745,0.05587
3318.93728,0.05588
3316.87711,0.05575
3314.81694,0.05574
3312.75676,0.05600
3310.69659,0.05630
3308.63642,0.05615
3306.57625,0.05582
3304.51608,0.05578
3302.45590,0.05600
3300.39573,0.05641
3298.33556,0.05671
3296.27539,0.05661
3294.21521,0.05613
3292.15504,0.05572
3290.09487,0.05585
3288.03470,0.05612
3285.97453,0.05606
3283.91435,0.05584
3281.85418,0.05568
3279.79401,0.05588
3277.73384,0.05645
3275.67367,0.05691
3273.61349,0.05699
3271.55332,0.05690
3269.49315,0.05678
3267.43298,0.05660
3265.37281,0.05635
3263.31263,0.05608
3261.25246,0.05594
3259.19229,0.05601
3257.13212,0.05605
3255.07194,0.05600
3253.01177,0.05624
3250.95160,0.05667
3248.89143,0.05691
3246.83126,0.05691
3244.77108,0.05666
3242.71091,0.05643
3240.65074,0.05645
3238.59057,0.05645
3236.53040,0.05631
3234.47022,0.05619
3232.41005,0.05617
3230.34988,0.05632
3228.28971,0.05629
3226.22954,0.05588
3224.16936,0.05561
3222.10919,0.05571
3220.04902,0.05592
3217.98885,0.05607
3215.92867,0.05595
3213.86850,0.05552
3211.80833,0.05517
3209.74816,0.05515
3207.68799,0.05523
3205.62781,0.05518
3203.56764,0.05514
3201.50747,0.05516
3199.44730,0.05504
3197.38713,0.05483
3195.32695,0.05471
3193.26678,0.05455
3191.20661,0.05420
3189.14644,0.05383
3187.08626,0.05366
3185.02609,0.05367
3182.96592,0.05380
3180.90575,0.05380
3178.84558,0.05353
3176.78540,0.05317
3174.72523,0.05285
3172.66506,0.05265
3170.60489,0.05269
3168.54472,0.05289
3166.48454,0.05291
3164.42437,0.05263
3162.36420,0.05228
3160.30403,0.05200
3158.24386,0.05185
3156.18368,0.05185
3154.12351,0.05178
3152.06334,0.05144
3150.00317,0.05101
3147.94299,0.05086
3145.88282,0.05093
3143.82265,0.05092
3141.76248,0.05081
3139.70231,0.05062
3137.64213,0.05044
3135.58196,0.05040
3133.52179,0.05026
3131.46162,0.04984
3129.40145,0.04938
3127.34127,0.04906
3125.28110,0.04895
3123.22093,0.04902
3121.16076,0.04892
3119.10058,0.04856
3117.04041,0.04827
3114.98024,0.04817
3112.92007,0.04793
3110.85990,0.04743
3108.79972,0.04690
3106.73955,0.04663
3104.67938,0.04658
3102.61921,0.04656
3100.55904,0.04661
3098.49886,0.04658
3096.43869,0.04613
3094.37852,0.04549
3092.31835,0.04509
3090.25818,0.04503
3088.19800,0.04513
3086.13783,0.04502
3084.07766,0.04470
3082.01749,0.04442
3079.95731,0.04420
3077.89714,0.04387
3075.83697,0.04334
3073.77680,0.04290
3071.71663,0.04278
3069.65645,0.04279
3067.59628,0.04265
3065.53611,0.04241
3063.47594,0.04225
3061.41577,0.04216
3059.35559,0.04196
3057.29542,0.04162
3055.23525,0.04136
3053.17508,0.04116
3051.11491,0.04091
3049.05473,0.04074
3046.99456,0.04068
3044.93439,0.04050
3042.87422,0.04004
3040.81404,0.03941
3038.75387,0.03893
3036.69370,0.03884
3034.63353,0.03881
3032.57336,0.03847
3030.51318,0.03809
3028.45301,0.03807
3026.39284,0.03824
3024.33267,0.03815
3022.27250,0.03776
3020.21232,0.03725
3018.15215,0.03674
3016.09198,0.03635
3014.03181,0.03610
3011.97163,0.03580
3009.91146,0.03543
3007.85129,0.03520
3005.79112,0.03520
3003.73095,0.03516
3001.67077,0.03510
2999.61060,0.03516
2997.55043,0.03506
2995.49026,0.03466
2993.43009,0.03417
2991.36991,0.03377
2989.30974,0.03362
2987.24957,0.03365
2985.18940,0.03350
2983.12923,0.03317
2981.06905,0.03304
2979.00888,0.03305
2976.94871,0.03292
2974.88854,0.03263
2972.82836,0.03241
2970.76819,0.03256
2968.70802,0.03283
2966.64785,0.03267
2964.58768,0.03231
2962.52750,0.03215
2960.46733,0.03214
2958.40716,0.03214
2956.34699,0.03208
2954.28682,0.03208
2952.22664,0.03208
2950.16647,0.03183
2948.10630,0.03142
2946.04613,0.03126
2943.98596,0.03138
2941.92578,0.03148
2939.86561,0.03154
2937.80544,0.03171
2935.74527,0.03178
2933.68509,0.03155
2931.62492,0.03131
2929.56475,0.03122
2927.50458,0.03101
2925.44441,0.03063
2923.38423,0.03038
2921.32406,0.03029
2919.26389,0.03017
2917.20372,0.03010
2915.14355,0.03012
2913.08337,0.03000
2911.02320,0.02980
2908.96303,0.02956
2906.90286,0.02926
2904.84268,0.02911
2902.78251,0.02900
2900.72234,0.02876
2898.66217,0.02856
2896.60200,0.02852
2894.54182,0.02859
2892.48165,0.02863
2890.42148,0.02857
2888.36131,0.02850
2886.30114,0.02848
2884.24096,0.02844
2882.18079,0.02837
2880.12062,0.02819
2878.06045,0.02779
2876.00028,0.02744
2873.94010,0.02741
2871.87993,0.02748
2869.81976,0.02747
2867.75959,0.02736
2865.69941,0.02705
2863.63924,0.02667
2861.57907,0.02646
2859.51890,0.02630
2857.45873,0.02609
2855.39855,0.02595
2853.33838,0.02594
2851.27821,0.02597
2849.21804,0.02596
2847.15787,0.02591
2845.09769,0.02572
2843.03752,0.02548
2840.97735,0.02542
2838.91718,0.02541
2836.85700,0.02529
2834.79683,0.02502
2832.73666,0.02474
2830.67649,0.02448
2828.61632,0.02417
2826.55614,0.02391
2824.49597,0.02383
2822.43580,0.02382
2820.37563,0.02354
2818.31546,0.02310
2816.25528,0.02297
2814.19511,0.02308
2812.13494,0.02313
2810.07477,0.02313
2808.01460,0.02309
2805.95442,0.02289
2803.89425,0.02263
2801.83408,0.02238
2799.77391,0.02215
2797.71373,0.02199
2795.65356,0.02186
2793.59339,0.02186
2791.53322,0.02185
2789.47305,0.02170
2787.41287,0.02156
2785.35270,0.02151
2783.29253,0.02147
2781.23236,0.02131
2779.17219,0.02109
2777.11201,0.02101
2775.05184,0.02102
2772.99167,0.02089
2770.93150,0.02072
2768.87133,0.02052
2766.81115,0.02023
2764.75098,0.02008
2762.69081,0.02000
2760.63064,0.01985
2758.57046,0.01982
2756.51029,0.01992
2754.45012,0.01987
2752.38995,0.01960
2750.32978,0.01941
2748.26960,0.01944
2746.20943,0.01950
2744.14926,0.01935
2742.08909,0.01914
2740.02892,0.01913
2737.96874,0.01909
2735.90857,0.01882
2733.84840,0.01857
2731.78823,0.01844
2729.72805,0.01826
2727.66788,0.01815
2725.60771,0.01818
2723.54754,0.01822
2721.48737,0.01817
2719.42719,0.01800
2717.36702,0.01783
2715.30685,0.01770
2713.24668,0.01743
2711.18651,0.01718
2709.12633,0.01724
2707.06616,0.01741
2705.00599,0.01745
2702.94582,0.01725
2700.88565,0.01700
2698.82547,0.01690
2696.76530,0.01663
2694.70513,0.01617
2692.64496,0.01593
2690.58478,0.01592
2688.52461,0.01591
2686.46444,0.01595
2684.40427,0.01613
2682.34410,0.01623
2680.28392,0.01614
2678.22375,0.01587
2676.16358,0.01546
2674.10341,0.01520
2672.04324,0.01520
2669.98306,0.01515
2667.92289,0.01495
2665.86272,0.01470
2663.80255,0.01444
2661.74238,0.01423
2659.68220,0.01417
2657.62203,0.01430
2655.56186,0.01441
2653.50169,0.01426
2651.44151,0.01398
2649.38134,0.01375
2647.32117,0.01352
2645.26100,0.01327
2643.20083,0.01314
2641.14065,0.01318
2639.08048,0.01322
2637.02031,0.01313
2634.96014,0.01297
2632.89997,0.01285
2630.83979,0.01280
2628.77962,0.01265
2626.71945,0.01220
2624.65928,0.01186
2622.59910,0.01183
2620.53893,0.01167
2618.47876,0.01150
2616.41859,0.01158
2614.35842,0.01155
2612.29824,0.01140
2610.23807,0.01137
2608.17790,0.01125
2606.11773,0.01111
2604.05756,0.01113
2601.99738,0.01103
2599.93721,0.01085
2597.87704,0.01084
2595.81687,0.01092
2593.75670,0.01090
2591.69652,0.01086
2589.63635,0.01087
2587.57618,0.01076
2585.51601,0.01058
2583.45583,0.01065
2581.39566,0.01084
2579.33549,0.01072
2577.27532,0.01031
2575.21515,0.00995
2573.15497,0.00979
2571.09480,0.00977
2569.03463,0.00970
2566.97446,0.00950
2564.91429,0.00919
2562.85411,0.00896
2560.79394,0.00923
2558.73377,0.00985
2556.67360,0.01042
2554.61342,0.01073
2552.55325,0.01064
2550.49308,0.01025
2548.43291,0.00992
2546.37274,0.00980
2544.31256,0.00976
2542.25239,0.00974
2540.19222,0.00981
2538.13205,0.00986
2536.07188,0.00972
2534.01170,0.00956
2531.95153,0.00969
2529.89136,0.00997
2527.83119,0.01020
2525.77102,0.01045
2523.71084,0.01051
2521.65067,0.01040
2519.59050,0.01040
2517.53033,0.01027
2515.47015,0.00992
2513.40998,0.00997
2511.34981,0.01049
2509.28964,0.01089
2507.22947,0.01089
2505.16929,0.01049
2503.10912,0.01012
2501.04895,0.01037
2498.98878,0.01087
2496.92861,0.01085
2494.86843,0.01047
2492.80826,0.01030
2490.74809,0.01036
2488.68792,0.01048
2486.62775,0.01076
2484.56757,0.01128
2482.50740,0.01145
2480.44723,0.01098
2478.38706,0.01055
2476.32688,0.01055
2474.26671,0.01063
2472.20654,0.01055
2470.14637,0.01053
2468.08620,0.01084
2466.02602,0.01135
2463.96585,0.01155
2461.90568,0.01137
2459.84551,0.01129
2457.78534,0.01148
2455.72516,0.01152
2453.66499,0.01120
2451.60482,0.01102
2449.54465,0.01121
2447.48447,0.01130
2445.42430,0.01121
2443.36413,0.01119
2441.30396,0.01117
2439.24379,0.01121
2437.18361,0.01146
2435.12344,0.01178
2433.06327,0.01178
2431.00310,0.01141
2428.94293,0.01108
2426.88275,0.01104
2424.82258,0.01127
2422.76241,0.01146
2420.70224,0.01154
2418.64207,0.01145
2416.58189,0.01127
2414.52172,0.01130
2412.46155,0.01147
2410.40138,0.01154
2408.34120,0.01136
2406.28103,0.01099
2404.22086,0.01086
2402.16069,0.01098
2400.10052,0.01107
2398.04034,0.01125
2395.98017,0.01154
2393.92000,0.01159
2391.85983,0.01122
2389.79966,0.01076
2387.73948,0.01063
2385.67931,0.01084
2383.61914,0.01091
2381.55897,0.01063
2379.49880,0.01044
2377.43862,0.01073
2375.37845,0.01125
2373.31828,0.01156
2371.25811,0.01143
2369.19793,0.01127
2367.13776,0.01141
2365.07759,0.01135
2363.01742,0.01118
2360.95725,0.01161
2358.89707,0.01243
2356.83690,0.01308
2354.77673,0.01315
2352.71656,0.01271
2350.65639,0.01229
2348.59621,0.01190
2346.53604,0.01146
2344.47587,0.01154
2342.41570,0.01216
2340.35552,0.01242
2338.29535,0.01219
2336.23518,0.01164
2334.17501,0.01081
2332.11484,0.01037
2330.05466,0.01076
2327.99449,0.01142
2325.93432,0.01185
2323.87415,0.01180
2321.81398,0.01121
2319.75380,0.01053
2317.69363,0.01005
2315.63346,0.00978
2313.57329,0.00982
2311.51312,0.01014
2309.45294,0.01040
2307.39277,0.01037
2305.33260,0.01034
2303.27243,0.01034
2301.21225,0.01011
2299.15208,0.00979
2297.09191,0.00968
2295.03174,0.00977
2292.97157,0.00996
2290.91139,0.01011
2288.85122,0.01000
2286.79105,0.00970
2284.73088,0.00939
2282.67071,0.00930
2280.61053,0.00973
2278.55036,0.01030
2276.49019,0.00990
2274.43002,0.00857
2272.36984,0.00783
2270.30967,0.00830
2268.24950,0.00917
2266.18933,0.00965
2264.12916,0.00954
2262.06898,0.00908
2260.00881,0.00867
2257.94864,0.00850
2255.88847,0.00839
2253.82830,0.00798
2251.76812,0.00740
2249.70795,0.00728
2247.64778,0.00792
2245.58761,0.00864
2243.52744,0.00851
2241.46726,0.00769
2239.40709,0.00699
2237.34692,0.00672
2235.28675,0.00670
2233.22657,0.00683
2231.16640,0.00709
2229.10623,0.00729
2227.04606,0.00744
2224.98589,0.00731
2222.92571,0.00657
2220.86554,0.00585
2218.80537,0.00608
2216.74520,0.00689
2214.68503,0.00669
2212.62485,0.00526
2210.56468,0.00463
2208.50451,0.00581
2206.44434,0.00701
2204.38417,0.00671
2202.32399,0.00589
2200.26382,0.00570
2198.20365,0.00535
2196.14348,0.00455
2194.08330,0.00420
2192.02313,0.00494
2189.96296,0.00652
2187.90279,0.00727
2185.84262,0.00664
2183.78244,0.00592
2181.72227,0.00604
2179.66210,0.00640
2177.60193,0.00610
2175.54176,0.00527
2173.48158,0.00478
2171.42141,0.00530
2169.36124,0.00607
2167.30107,0.00561
2165.24089,0.00482
2163.18072,0.00447
2161.12055,0.00295
2159.06038,0.00151
2157.00021,0.00233
2154.94003,0.00342
2152.87986,0.00346
2150.81969,0.00303
2148.75952,0.00306
2146.69935,0.00402
2144.63917,0.00464
2142.57900,0.00446
2140.51883,0.00440
2138.45866,0.00449
2136.39849,0.00422
2134.33831,0.00370
2132.27814,0.00329
2130.21797,0.00313
2128.15780,0.00333
2126.09762,0.00392
2124.03745,0.00461
2121.97728,0.00511
2119.91711,0.00532
2117.85694,0.00555
2115.79676,0.00579
2113.73659,0.00568
2111.67642,0.00513
2109.61625,0.00424
2107.55608,0.00370
2105.49590,0.00401
2103.43573,0.00427
2101.37556,0.00398
2099.31539,0.00387
2097.25521,0.00405
2095.19504,0.00413
2093.13487,0.00413
2091.07470,0.00443
2089.01453,0.00491
2086.95435,0.00495
2084.89418,0.00481
2082.83401,0.00476
2080.77384,0.00425
2078.71367,0.00375
2076.65349,0.00384
2074.59332,0.00407
2072.53315,0.00392
2070.47298,0.00330
2068.41281,0.00276
2066.35263,0.00270
2064.29246,0.00292
2062.23229,0.00318
2060.17212,0.00385
2058.11194,0.00465
2056.05177,0.00459
2053.99160,0.00419
2051.93143,0.00417
2049.87126,0.00420
2047.81108,0.00414
2045.75091,0.00353
2043.69074,0.00275
2041.63057,0.00301
2039.57040,0.00347
2037.51022,0.00311
2035.45005,0.00210
2033.38988,0.00106
2031.32971,0.00099
2029.26954,0.00162
2027.20936,0.00185
2025.14919,0.00143
2023.08902,0.00129
2021.02885,0.00219
2018.96867,0.00330
2016.90850,0.00356
2014.84833,0.00316
2012.78816,0.00260
2010.72799,0.00172
2008.66781,0.00064
2006.60764,0.00050
2004.54747,0.00159
2002.48730,0.00276
2000.42713,0.00298
1998.36695,0.00218
1996.30678,0.00107
1994.24661,0.00040
1992.18644,0.00058
1990.12626,0.00145
1988.06609,0.00241
1986.00592,0.00305
1983.94575,0.00292
1981.88558,0.00254
1979.82540,0.00293
1977.76523,0.00300
1975.70506,0.00201
1973.64489,0.00164
1971.58472,0.00217
1969.52454,0.00230
1967.46437,0.00247
1965.40420,0.00319
1963.34403,0.00341
1961.28386,0.00284
1959.22368,0.00231
1957.16351,0.00226
1955.10334,0.00224
1953.04317,0.00202
1950.98299,0.00162
1948.92282,0.00109
1946.86265,0.00094
1944.80248,0.00131
1942.74231,0.00162
1940.68213,0.00141
1938.62196,0.00089
1936.56179,0.00061
1934.50162,0.00078
1932.44145,0.00110
1930.38127,0.00111
1928.32110,0.00078
1926.26093,0.00052
1924.20076,0.00067
1922.14059,0.00119
1920.08041,0.00170
1918.02024,0.00207
1915.96007,0.00236
1913.89990,0.00250
1911.83972,0.00234
1909.77955,0.00214
1907.71938,0.00230
1905.65921,0.00235
1903.59904,0.00196
1901.53886,0.00174
1899.47869,0.00180
1897.41852,0.00197
1895.35835,0.00226
1893.29818,0.00238
1891.23800,0.00221
1889.17783,0.00207
1887.11766,0.00213
1885.05749,0.00215
1882.99731,0.00192
1880.93714,0.00162
1878.87697,0.00170
1876.81680,0.00224
1874.75663,0.00267
1872.69645,0.00265
1870.63628,0.00250
1868.57611,0.00264
1866.51594,0.00287
1864.45577,0.00291
1862.39559,0.00288
1860.33542,0.00299
1858.27525,0.00309
1856.21508,0.00294
1854.15491,0.00267
1852.09473,0.00249
1850.03456,0.00244
1847.97439,0.00255
1845.91422,0.00272
1843.85404,0.00280
1841.79387,0.00269
1839.73370,0.00258
1837.67353,0.00271
1835.61336,0.00288
1833.55318,0.00281
1831.49301,0.00273
1829.43284,0.00284
1827.37267,0.00287
1825.31250,0.00279
1823.25232,0.00270
1821.19215,0.00248
1819.13198,0.00237
1817.07181,0.00256
1815.01163,0.00282
1812.95146,0.00303
1810.89129,0.00322
1808.83112,0.00330
1806.77095,0.00327
1804.71077,0.00327
1802.65060,0.00332
1800.59043,0.00342
1798.53026,0.00352
1796.47009,0.00341
1794.40991,0.00314
1792.34974,0.00315
1790.28957,0.00338
1788.22940,0.00334
1786.16923,0.00316
1784.10905,0.00318
1782.04888,0.00335
1779.98871,0.00351
1777.92854,0.00356
1775.86836,0.00354
1773.80819,0.00362
1771.74802,0.00403
1769.68785,0.00451
1767.62768,0.00461
1765.56750,0.00443
1763.50733,0.00435
1761.44716,0.00452
1759.38699,0.00479
1757.32682,0.00497
1755.26664,0.00508
1753.20647,0.00527
1751.14630,0.00554
1749.08613,0.00574
1747.02596,0.00584
1744.96578,0.00589
1742.90561,0.00606
1740.84544,0.00648
1738.78527,0.00680
1736.72509,0.00670
1734.66492,0.00662
1732.60475,0.00696
1730.54458,0.00727
1728.48441,0.00731
1726.42423,0.00738
1724.36406,0.00758
1722.30389,0.00774
1720.24372,0.00782
1718.18355,0.00808
1716.12337,0.00865
1714.06320,0.00918
1712.00303,0.00941
1709.94286,0.00948
1707.88268,0.00962
1705.82251,0.00995
1703.76234,0.01026
1701.70217,0.01051
1699.64200,0.01095
1697.58182,0.01149
1695.52165,0.01204
1693.46148,0.01253
1691.40131,0.01284
1689.34114,0.01314
1687.28096,0.01353
1685.22079,0.01423
1683.16062,0.01528
1681.10045,0.01592
1679.04028,0.01595
1676.98010,0.01593
1674.91993,0.01634
1672.85976,0.01705
1670.79959,0.01784
1668.73941,0.01860
1666.67924,0.01898
1664.61907,0.01910
1662.55890,0.01926
1660.49873,0.01942
1658.43855,0.01945
1656.37838,0.01939
1654.31821,0.01957
1652.25804,0.02015
1650.19787,0.02064
1648.13769,0.02088
1646.07752,0.02088
1644.01735,0.02053
1641.95718,0.02014
1639.89701,0.01994
1637.83683,0.01999
1635.77666,0.02016
1633.71649,0.01997
1631.65632,0.01951
1629.59614,0.01929
1627.53597,0.01932
1625.47580,0.01910
1623.41563,0.01860
1621.35546,0.01830
1619.29528,0.01827
1617.23511,0.01818
1615.17494,0.01785
1613.11477,0.01748
1611.05460,0.01726
1608.99442,0.01708
1606.93425,0.01679
1604.87408,0.01643
1602.81391,0.01612
1600.75373,0.01579
1598.69356,0.01542
1596.63339,0.01509
1594.57322,0.01469
1592.51305,0.01411
1590.45287,0.01352
1588.39270,0.01293
1586.33253,0.01226
1584.27236,0.01172
1582.21219,0.01140
1580.15201,0.01116
1578.09184,0.01088
1576.03167,0.01053
1573.97150,0.01011
1571.91133,0.00975
1569.85115,0.00962
1567.79098,0.00946
1565.73081,0.00901
1563.67064,0.00841
1561.61046,0.00790
1559.55029,0.00759
1557.49012,0.00748
1555.42995,0.00737
1553.36978,0.00718
1551.30960,0.00695
1549.24943,0.00674
1547.18926,0.00656
1545.12909,0.00636
1543.06892,0.00605
1541.00874,0.00564
1538.94857,0.00537
1536.88840,0.00520
1534.82823,0.00509
1532.76805,0.00511
1530.70788,0.00514
1528.64771,0.00502
1526.58754,0.00470
1524.52737,0.00429
1522.46719,0.00411
1520.40702,0.00420
1518.34685,0.00424
1516.28668,0.00411
1514.22651,0.00384
1512.16633,0.00347
1510.10616,0.00328
1508.04599,0.00357
1505.98582,0.00391
1503.92565,0.00374
1501.86547,0.00347
1499.80530,0.00339
1497.74513,0.00339
1495.68496,0.00332
1493.62478,0.00314
1491.56461,0.00299
1489.50444,0.00309
1487.44427,0.00334
1485.38410,0.00349
1483.32392,0.00354
1481.26375,0.00356
1479.20358,0.00363
1477.14341,0.00377
1475.08324,0.00391
1473.02306,0.00394
1470.96289,0.00391
1468.90272,0.00395
1466.84255,0.00408
1464.78238,0.00429
1462.72220,0.00433
1460.66203,0.00419
1458.60186,0.00417
1456.54169,0.00444
1454.48151,0.00463
1452.42134,0.00459
1450.36117,0.00451
1448.30100,0.00449
1446.24083,0.00447
1444.18065,0.00445
1442.12048,0.00440
1440.06031,0.00424
1438.00014,0.00423
1435.93997,0.00454
1433.87979,0.00479
1431.81962,0.00482
1429.75945,0.00486
1427.69928,0.00493
1425.63910,0.00496
1423.57893,0.00505
1421.51876,0.00525
1419.45859,0.00551
1417.39842,0.00571
1415.33824,0.00576
1413.27807,0.00569
1411.21790,0.00560
1409.15773,0.00554
1407.09756,0.00551
1405.03738,0.00551
1402.97721,0.00545
1400.91704,0.00522
1398.85687,0.00488
1396.79670,0.00460
1394.73652,0.00443
1392.67635,0.00434
1390.61618,0.00426
1388.55601,0.00423
1386.49583,0.00431
1384.43566,0.00443
1382.37549,0.00446
1380.31532,0.00446
1378.25515,0.00452
1376.19497,0.00471
1374.13480,0.00493
1372.07463,0.00492
1370.01446,0.00466
1367.95429,0.00438
1365.89411,0.00425
1363.83394,0.00417
1361.77377,0.00403
1359.71360,0.00385
1357.65343,0.00373
1355.59325,0.00364
1353.53308,0.00352
1351.47291,0.00342
1349.41274,0.00336
1347.35256,0.00329
1345.29239,0.00317
1343.23222,0.00302
1341.17205,0.00290
1339.11188,0.00294
1337.05170,0.00306
1334.99153,0.00308
1332.93136,0.00302
1330.87119,0.00298
1328.81102,0.00295
1326.75084,0.00296
1324.69067,0.00300
1322.63050,0.00298
1320.57033,0.00297
1318.51015,0.00315
1316.44998,0.00344
1314.38981,0.00357
1312.32964,0.00342
1310.26947,0.00322
1308.20929,0.00316
1306.14912,0.00325
1304.08895,0.00337
1302.02878,0.00341
1299.96861,0.00345
1297.90843,0.00352
1295.84826,0.00359
1293.78809,0.00364
1291.72792,0.00366
1289.66775,0.00357
1287.60757,0.00354
1285.54740,0.00368
1283.48723,0.00383
1281.42706,0.00390
1279.36688,0.00402
1277.30671,0.00408
1275.24654,0.00400
1273.18637,0.00396
1271.12620,0.00403
1269.06602,0.00412
1267.00585,0.00423
1264.94568,0.00440
1262.88551,0.00452
1260.82534,0.00458
1258.76516,0.00467
1256.70499,0.00473
1254.64482,0.00469
1252.58465,0.00454
1250.52447,0.00426
1248.46430,0.00398
1246.40413,0.00386
1244.34396,0.00394
1242.28379,0.00391
1240.22361,0.00367
1238.16344,0.00347
1236.10327,0.00334
1234.04310,0.00313
1231.98293,0.00293
1229.92275,0.00286
1227.86258,0.00281
1225.80241,0.00261
1223.74224,0.00227
1221.68207,0.00196
1219.62189,0.00177
1217.56172,0.00161
1215.50155,0.00149
1213.44138,0.00146
1211.38120,0.00147
1209.32103,0.00143
1207.26086,0.00119
1205.20069,0.00085
1203.14052,0.00070
1201.08034,0.00071
1199.02017,0.00088
1196.96000,0.00124
1194.89983,0.00162
1192.83966,0.00184
1190.77948,0.00196
1188.71931,0.00217
1186.65914,0.00259
1184.59897,0.00323
1182.53880,0.00400
1180.47862,0.00474
1178.41845,0.00541
1176.35828,0.00609
1174.29811,0.00692
1172.23793,0.00782
1170.17776,0.00862
1168.11759,0.00940
1166.05742,0.01034
1163.99725,0.01137
1161.93707,0.01227
1159.87690,0.01309
1157.81673,0.01393
1155.75656,0.01473
1153.69639,0.01548
1151.63621,0.01634
1149.57604,0.01735
1147.51587,0.01830
1145.45570,0.01900
1143.39552,0.01966
1141.33535,0.02056
1139.27518,0.02161
1137.21501,0.02277
1135.15484,0.02416
1133.09466,0.02569
1131.03449,0.02701
1128.97432,0.02815
1126.91415,0.02928
1124.85398,0.03038
1122.79380,0.03149
1120.73363,0.03273
1118.67346,0.03412
1116.61329,0.03562
1114.55312,0.03730
1112.49294,0.03896
1110.43277,0.04030
1108.37260,0.04151
1106.31243,0.04295
1104.25225,0.04446
1102.19208,0.04585
1100.13191,0.04705
1098.07174,0.04809
1096.01157,0.04914
1093.95139,0.05023
1091.89122,0.05133
1089.83105,0.05245
1087.77088,0.05364
1085.71071,0.05491
1083.65053,0.05606
1081.59036,0.05690
1079.53019,0.05757
1077.47002,0.05821
1075.40985,0.05893
1073.34967,0.05976
1071.28950,0.06037
1069.22933,0.06055
1067.16916,0.06042
1065.10898,0.06028
1063.04881,0.06017
1060.98864,0.05973
1058.92847,0.05897
1056.86830,0.05825
1054.80812,0.05763
1052.74795,0.05698
1050.68778,0.05611
1048.62761,0.05489
1046.56744,0.05364
1044.50726,0.05256
1042.44709,0.05134
1040.38692,0.04990
1038.32675,0.04844
1036.26657,0.04722
1034.20640,0.04615
1032.14623,0.04476
1030.08606,0.04319
1028.02589,0.04183
1025.96571,0.04072
1023.90554,0.03984
1021.84537,0.03881
1019.78520,0.03741
1017.72503,0.03615
1015.66485,0.03538
1013.60468,0.03481
1011.54451,0.03422
1009.48434,0.03364
1007.42417,0.03328
1005.36399,0.03318
1003.30382,0.03322
1001.24365,0.03354
999.18348,0.03419
997.12330,0.03490
995.06313,0.03563
993.00296,0.03652
990.94279,0.03736
988.88262,0.03794
986.82244,0.03841
984.76227,0.03885
982.70210,0.03913
980.64193,0.03909
978.58176,0.03853
976.52158,0.03740
974.46141,0.03589
972.40124,0.03430
970.34107,0.03276
968.28089,0.03122
966.22072,0.02970
964.16055,0.02823
962.10038,0.02679
960.04021,0.02540
957.98003,0.02420
955.91986,0.02340
953.85969,0.02274
951.79952,0.02174
949.73935,0.02062
947.67917,0.01992
945.61900,0.01960
943.55883,0.01918
941.49866,0.01883
939.43849,0.01871
937.37831,0.01846
935.31814,0.01807
933.25797,0.01768
931.19780,0.01742
929.13762,0.01750
927.07745,0.01740
925.01728,0.01689
922.95711,0.01637
920.89694,0.01586
918.83676,0.01535
916.77659,0.01490
914.71642,0.01450
912.65625,0.01420
910.59608,0.01398
908.53590,0.01365
906.47573,0.01314
904.41556,0.01272
902.35539,0.01251
900.29522,0.01247
898.23504,0.01239
896.17487,0.01221
894.11470,0.01251
892.05453,0.01326
889.99435,0.01380
887.93418,0.01413
885.87401,0.01444
883.81384,0.01467
881.75367,0.01488
879.69349,0.01513
877.63332,0.01558
875.57315,0.01626
873.51298,0.01664
871.45281,0.01661
869.39263,0.01667
867.33246,0.01710
865.27229,0.01768
863.21212,0.01788
861.15194,0.01779
859.09177,0.01759
857.03160,0.01718
854.97143,0.01676
852.91126,0.01649
850.85108,0.01611
848.79091,0.01555
846.73074,0.01518
844.67057,0.01496
842.61040,0.01448
840.55022,0.01375
838.49005,0.01310
836.42988,0.01268
834.36971,0.01239
832.30954,0.01193
830.24936,0.01111
828.18919,0.01008
826.12902,0.00940
824.06885,0.00937
822.00867,0.00927
819.94850,0.00878
817.88833,0.00836
815.82816,0.00778
813.76799,0.00687
811.70781,0.00629
809.64764,0.00632
807.58747,0.00647
805.52730,0.00624
803.46713,0.00556
801.40695,0.00501
799.34678,0.00506
797.28661,0.00533
795.22644,0.00539
793.16627,0.00515
791.10609,0.00475
789.04592,0.00444
786.98575,0.00441
784.92558,0.00442
782.86540,0.00413
780.80523,0.00396
778.74506,0.00401
776.68489,0.00390
774.62472,0.00384
772.56454,0.00353
770.50437,0.00298
768.44420,0.00316
766.38403,0.00383
764.32386,0.00400
762.26368,0.00338
760.20351,0.00244
758.14334,0.00210
756.08317,0.00226
754.02299,0.00236
751.96282,0.00239
749.90265,0.00244
747.84248,0.00225
745.78231,0.00184
743.72213,0.00175
741.66196,0.00193
739.60179,0.00201
737.54162,0.00198
735.48145,0.00190
733.42127,0.00176
731.36110,0.00179
729.30093,0.00211
727.24076,0.00207
725.18059,0.00138
723.12041,0.00115
721.06024,0.00182
719.00007,0.00268
716.93990,0.00286
714.87972,0.00259
712.81955,0.00258
710.75938,0.00277
708.69921,0.00252
706.63904,0.00178
704.57886,0.00121
702.51869,0.00097
700.45852,0.00083
698.39835,0.00105
696.33818,0.00173
694.27800,0.00237
692.21783,0.00240
690.15766,0.00211
688.09749,0.00252
686.03731,0.00353
683.97714,0.00389
681.91697,0.00346
679.85680,0.00328
677.79663,0.00333
675.73645,0.00265
673.67628,0.00152
671.61611,0.00085
669.55594,0.00067
667.49577,0.00080
665.43559,0.00100
663.37542,0.00129
661.31525,0.00127
659.25508,0.00075
657.19491,0.00049
655.13473,0.00125
653.07456,0.00239
651.01439,0.00276
648.95422,0.00226
646.89404,0.00188
644.83387,0.00200
642.77370,0.00183
640.71353,0.00141
638.65336,0.00161
636.59318,0.00206
634.53301,0.00196
632.47284,0.00138
630.41267,0.00084
628.35250,0.00102
626.29232,0.00230
624.23215,0.00375
622.17198,0.00453
620.11181,0.00423
618.05164,0.00310
615.99146,0.00227
613.93129,0.00335
611.87112,0.00487
609.81095,0.00343
607.75077,0.00065
605.69060,0.00000
603.63043,0.00054
601.57026,0.00078
599.51009,0.00000
