3996.73391,0.00064
3994.67373,0.00040
3992.61356,0.00014
3990.55339,0.00000
3988.49322,0.00000
3986.43305,0.00012
3984.37287,0.00035
3982.31270,0.00063
3980.25253,0.00077
3978.19236,0.00073
3976.13219,0.00062
3974.07201,0.00056
3972.01184,0.00062
3969.95167,0.00075
3967.89150,0.00081
3965.83133,0.00065
3963.77115,0.00040
3961.71098,0.00018
3959.65081,0.00013
3957.59064,0.00037
3955.53046,0.00050
3953.47029,0.00031
3951.41012,0.00019
3949.34995,0.00029
3947.28978,0.00022
3945.22960,0.00024
3943.16943,0.00069
3941.10926,0.00100
3939.04909,0.00101
3936.98892,0.00084
3934.92874,0.00091
3932.86857,0.00134
3930.80840,0.00119
3928.74823,0.00055
3926.68805,0.00067
3924.62788,0.00114
3922.56771,0.00078
3920.50754,0.00032
3918.44737,0.00048
3916.38719,0.00089
3914.32702,0.00116
3912.26685,0.00129
3910.20668,0.00097
3908.14651,0.00054
3906.08633,0.00078
3904.02616,0.00105
3901.96599,0.00097
3899.90582,0.00146
3897.84565,0.00158
3895.78547,0.00125
3893.72530,0.00161
3891.66513,0.00185
3889.60496,0.00076
3887.54478,0.00037
3885.48461,0.00080
3883.42444,0.00070
3881.36427,0.00136
3879.30410,0.00146
3877.24392,0.00084
3875.18375,0.00101
3873.12358,0.00108
3871.06341,0.00172
3869.00324,0.00191
3866.94306,0.00138
3864.88289,0.00193
3862.82272,0.00209
3860.76255,0.00128
3858.70237,0.00027
3856.64220,0.00042
3854.58203,0.00261
3852.52186,0.00381
3850.46169,0.00277
3848.40151,0.00203
3846.34134,0.00185
3844.28117,0.00166
3842.22100,0.00128
3840.16083,0.00163
3838.10065,0.00212
3836.04048,0.00166
3833.98031,0.00161
3831.92014,0.00220
3829.85997,0.00221
3827.79979,0.00198
3825.73962,0.00150
3823.67945,0.00176
3821.61928,0.00297
3819.55910,0.00239
3817.49893,0.00252
3815.43876,0.00343
3813.37859,0.00270
3811.31842,0.00187
3809.25824,0.00207
3807.19807,0.00245
3805.13790,0.00188
3803.07773,0.00257
3801.01756,0.00323
3798.95738,0.00235
3796.89721,0.00267
3794.83704,0.00314
3792.77687,0.00306
3790.71670,0.00289
3788.65652,0.00263
3786.59635,0.00271
3784.53618,0.00274
3782.47601,0.00261
3780.41583,0.00315
3778.35566,0.00321
3776.29549,0.00249
3774.23532,0.00210
3772.17515,0.00243
3770.11497,0.00307
3768.05480,0.00317
3765.99463,0.00323
3763.93446,0.00272
3761.87429,0.00225
3759.81411,0.00231
3757.75394,0.00182
3755.69377,0.00146
3753.63360,0.00243
3751.57342,0.00336
3749.51325,0.00176
3747.45308,0.00032
3745.39291,0.00263
3743.33274,0.00438
3741.27256,0.00324
3739.21239,0.00244
3737.15222,0.00309
3735.09205,0.00387
3733.03188,0.00365
3730.97170,0.00296
3728.91153,0.00285
3726.85136,0.00343
3724.79119,0.00360
3722.73102,0.00391
3720.67084,0.00427
3718.61067,0.00391
3716.55050,0.00316
3714.49033,0.00327
3712.43015,0.00416
3710.36998,0.00428
3708.30981,0.00358
3706.24964,0.00284
3704.18947,0.00281
3702.12929,0.00363
3700.06912,0.00425
3698.00895,0.00455
3695.94878,0.00440
3693.88861,0.00375
3691.82843,0.00393
3689.76826,0.00479
3687.70809,0.00443
3685.64792,0.00351
3683.58775,0.00365
3681.52757,0.00403
3679.46740,0.00396
3677.40723,0.00471
3675.34706,0.00532
3673.28688,0.00382
3671.22671,0.00456
3669.16654,0.00618
3667.10637,0.00557
3665.04620,0.00501
3662.98602,0.00532
3660.92585,0.00582
3658.86568,0.00656
3656.80551,0.00735
3654.74534,0.00668
3652.68516,0.00615
3650.62499,0.00761
3648.56482,0.00902
3646.50465,0.00867
3644.44447,0.00792
3642.38430,0.00826
3640.32413,0.00912
3638.26396,0.00985
3636.20379,0.01025
3634.14361,0.01011
3632.08344,0.01002
3630.02327,0.01161
3627.96310,0.01264
3625.90293,0.01163
3623.84275,0.01121
3621.78258,0.01223
3619.72241,0.01367
3617.66224,0.01390
3615.60207,0.01403
3613.54189,0.01516
3611.48172,0.01612
3609.42155,0.01692
3607.36138,0.01709
3605.30120,0.01654
3603.24103,0.01659
3601.18086,0.01707
3599.12069,0.01717
3597.06052,0.01756
3595.00034,0.01869
3592.94017,0.01949
3590.88000,0.02005
3588.81983,0.02132
3586.75966,0.02232
3584.69948,0.02225
3582.63931,0.02225
3580.57914,0.02243
3578.51897,0.02257
3576.45879,0.02300
3574.39862,0.02362
3572.33845,0.02390
3570.27828,0.02427
3568.21811,0.02545
3566.15793,0.02641
3564.09776,0.02645
3562.03759,0.02651
3559.97742,0.02684
3557.91725,0.02728
3555.85707,0.02793
3553.79690,0.02889
3551.73673,0.02967
3549.67656,0.03010
3547.61639,0.03068
3545.55621,0.03116
3543.49604,0.03135
3541.43587,0.03164
3539.37570,0.03206
3537.31552,0.03249
3535.25535,0.03279
3533.19518,0.03313
3531.13501,0.03378
3529.07484,0.03453
3527.01466,0.03513
3524.95449,0.03578
3522.89432,0.03648
3520.83415,0.03686
3518.77398,0.03702
3516.71380,0.03721
3514.65363,0.03756
3512.59346,0.03808
3510.53329,0.03869
3508.47312,0.03907
3506.41294,0.03912
3504.35277,0.03951
3502.29260,0.04005
3500.23243,0.04033
3498.17225,0.04067
3496.11208,0.04111
3494.05191,0.04152
3491.99174,0.04198
3489.93157,0.04257
3487.87139,0.04324
3485.81122,0.04359
3483.75105,0.04368
3481.69088,0.04403
3479.63071,0.04448
3477.57053,0.04477
3475.51036,0.04513
3473.45019,0.04562
3471.39002,0.04606
3469.32984,0.04653
3467.26967,0.04705
3465.20950,0.04743
3463.14933,0.04781
3461.08916,0.04825
3459.02898,0.04849
3456.96881,0.04853
3454.90864,0.04872
3452.84847,0.04913
3450.78830,0.04955
3448.72812,0.05019
3446.66795,0.05053
3444.60778,0.05034
3442.54761,0.05044
3440.48744,0.05078
3438.42726,0.05113
3436.36709,0.05141
3434.30692,0.05152
3432.24675,0.05159
3430.18657,0.05187
3428.12640,0.05238
3426.06623,0.05272
3424.00606,0.05278
3421.94589,0.05308
3419.88571,0.05350
3417.82554,0.05366
3415.76537,0.05372
3413.70520,0.05403
3411.64503,0.05453
3409.58485,0.05477
3407.52468,0.05481
3405.46451,0.05493
3403.40434,0.05518
3401.34416,0.05539
3399.28399,0.05551
3397.22382,0.05570
3395.16365,0.05607
3393.10348,0.05663
3391.04330,0.05701
3388.98313,0.05699
3386.92296,0.05679
3384.86279,0.05677
3382.80262,0.05691
3380.74244,0.05702
3378.68227,0.05708
3376.62210,0.05715
3374.56193,0.05714
3372.50176,0.05707
3370.44158,0.05735
3368.38141,0.05789
3366.32124,0.05804
3364.26107,0.05788
3362.20089,0.05788
3360.14072,0.05793
3358.08055,0.05775
3356.02038,0.05766
3353.96021,0.05797
3351.90003,0.05844
3349.83986,0.05867
3347.77969,0.05871
3345.71952,0.05885
3343.65935,0.05904
3341.59917,0.05913
3339.53900,0.05910
3337.47883,0.05900
3335.41866,0.05900
3333.35849,0.05910
3331.29831,0.05915
3329.23814,0.05924
3327.17797,0.05951
3325.11780,0.05973
3323.05762,0.05974
3320.99745,0.05979
3318.93728,0.05985
3316.87711,0.05980
3314.81694,0.05989
3312.75676,0.06012
3310.69659,0.06026
3308.63642,0.06002
3306.57625,0.05958
3304.51608,0.05954
3302.45590,0.05993
3300.39573,0.06039
3298.33556,0.06052
3296.27539,0.06023
3294.21521,0.05991
3292.15504,0.05964
3290.09487,0.05933
3288.03470,0.05928
3285.97453,0.05958
3283.91435,0.05978
3281.85418,0.05978
3279.79401,0.05996
3277.73384,0.06036
3275.67367,0.06078
3273.61349,0.06104
3271.55332,0.06093
3269.49315,0.06052
3267.43298,0.06015
3265.37281,0.05997
3263.31263,0.05991
3261.25246,0.05990
3259.19229,0.05998
3257.13212,0.06005
3255.07194,0.06002
3253.01177,0.06004
3250.95160,0.06020
3248.89143,0.06030
3246.83126,0.06026
3244.77108,0.06019
3242.71091,0.06014
3240.65074,0.06009
3238.59057,0.05993
3236.53040,0.05969
3234.47022,0.05937
3232.41005,0.05929
3230.34988,0.05963
3228.28971,0.05993
3226.22954,0.05982
3224.16936,0.05954
3222.10919,0.05931
3220.04902,0.05913
3217.98885,0.05904
3215.92867,0.05918
3213.86850,0.05936
3211.80833,0.05944
3209.74816,0.05947
3207.68799,0.05914
3205.62781,0.05865
3203.56764,0.05860
3201.50747,0.05887
3199.44730,0.05878
3197.38713,0.05833
3195.32695,0.05803
3193.26678,0.05788
3191.20661,0.05768
3189.14644,0.05763
3187.08626,0.05765
3185.02609,0.05744
3182.96592,0.05714
3180.90575,0.05693
3178.84558,0.05672
3176.78540,0.05664
3174.72523,0.05681
3172.66506,0.05690
3170.60489,0.05673
3168.54472,0.05668
3166.48454,0.05675
3164.42437,0.05651
3162.36420,0.05594
3160.30403,0.05541
3158.24386,0.05517
3156.18368,0.05516
3154.12351,0.05511
3152.06334,0.05475
3150.00317,0.05420
3147.94299,0.05393
3145.88282,0.05408
3143.82265,0.05424
3141.76248,0.05416
3139.70231,0.05397
3137.64213,0.05362
3135.58196,0.05330
3133.52179,0.05335
3131.46162,0.05350
3129.40145,0.05327
3127.34127,0.05258
3125.28110,0.05199
3123.22093,0.05185
3121.16076,0.05178
3119.10058,0.05156
3117.04041,0.05129
3114.98024,0.05106
3112.92007,0.05091
3110.85990,0.05077
3108.79972,0.05051
3106.73955,0.05012
3104.67938,0.04975
3102.61921,0.04962
3100.55904,0.04978
3098.49886,0.04986
3096.43869,0.04956
3094.37852,0.04899
3092.31835,0.04851
3090.25818,0.04826
3088.19800,0.04814
3086.13783,0.04797
3084.07766,0.04786
3082.01749,0.04782
3079.95731,0.04764
3077.89714,0.04720
3075.83697,0.04657
3073.77680,0.04600
3071.71663,0.04575
3069.65645,0.04571
3067.59628,0.04570
3065.53611,0.04577
3063.47594,0.04580
3061.41577,0.04566
3059.35559,0.04549
3057.29542,0.04527
3055.23525,0.04482
3053.17508,0.04430
3051.11491,0.04400
3049.05473,0.04391
3046.99456,0.04386
3044.93439,0.04361
3042.87422,0.04304
3040.81404,0.04249
3038.75387,0.04224
3036.69370,0.04214
3034.63353,0.04191
3032.57336,0.04154
3030.51318,0.04115
3028.45301,0.04090
3026.39284,0.04081
3024.33267,0.04067
3022.27250,0.04044
3020.21232,0.04022
3018.15215,0.04000
3016.09198,0.03982
3014.03181,0.03956
3011.97163,0.03910
3009.91146,0.03857
3007.85129,0.03828
3005.79112,0.03823
3003.73095,0.03814
3001.67077,0.03806
2999.61060,0.03806
2997.55043,0.03790
2995.49026,0.03750
2993.43009,0.03717
2991.36991,0.03690
2989.30974,0.03650
2987.24957,0.03614
2985.18940,0.03593
2983.12923,0.03584
2981.06905,0.03592
2979.00888,0.03600
2976.94871,0.03599
2974.88854,0.03585
2972.82836,0.03561
2970.76819,0.03558
2968.70802,0.03565
2966.64785,0.03544
2964.58768,0.03511
2962.52750,0.03494
2960.46733,0.03490
2958.40716,0.03489
2956.34699,0.03486
2954.28682,0.03468
2952.22664,0.03448
2950.16647,0.03441
2948.10630,0.03434
2946.04613,0.03426
2943.98596,0.03431
2941.92578,0.03441
2939.86561,0.03441
2937.80544,0.03432
2935.74527,0.03422
2933.68509,0.03406
2931.62492,0.03386
2929.56475,0.03384
2927.50458,0.03382
2925.44441,0.03354
2923.38423,0.03321
2921.32406,0.03296
2919.26389,0.03280
2917.20372,0.03289
2915.14355,0.03294
2913.08337,0.03272
2911.02320,0.03247
2908.96303,0.03229
2906.90286,0.03203
2904.84268,0.03179
2902.78251,0.03164
2900.72234,0.03156
2898.66217,0.03146
2896.60200,0.03126
2894.54182,0.03111
2892.48165,0.03116
2890.42148,0.03122
2888.36131,0.03114
2886.30114,0.03096
2884.24096,0.03080
2882.18079,0.03062
2880.12062,0.03040
2878.06045,0.03013
2876.00028,0.02991
2873.94010,0.02982
2871.87993,0.02970
2869.81976,0.02961
2867.75959,0.02961
2865.69941,0.02941
2863.63924,0.02903
2861.57907,0.02870
2859.51890,0.02861
2857.45873,0.02871
2855.39855,0.02872
2853.33838,0.02867
2851.27821,0.02858
2849.21804,0.02836
2847.15787,0.02802
2845.09769,0.02761
2843.03752,0.02739
2840.97735,0.02737
2838.91718,0.02726
2836.85700,0.02708
2834.79683,0.02685
2832.73666,0.02664
2830.67649,0.02648
2828.61632,0.02632
2826.55614,0.02624
2824.49597,0.02624
2822.43580,0.02610
2820.37563,0.02571
2818.31546,0.02532
2816.25528,0.02514
2814.19511,0.02516
2812.13494,0.02518
2810.07477,0.02503
2808.01460,0.02486
2805.95442,0.02482
2803.89425,0.02484
2801.83408,0.02471
2799.77391,0.02451
2797.71373,0.02452
2795.65356,0.02452
2793.59339,0.02446
2791.53322,0.02445
2789.47305,0.02430
2787.41287,0.02408
2785.35270,0.02392
2783.29253,0.02376
2781.23236,0.02349
2779.17219,0.02319
2777.11201,0.02306
2775.05184,0.02311
2772.99167,0.02311
2770.93150,0.02302
2768.87133,0.02285
2766.81115,0.02251
2764.75098,0.02222
2762.69081,0.02218
2760.63064,0.02210
2758.57046,0.02192
2756.51029,0.02187
2754.45012,0.02176
2752.38995,0.02157
2750.32978,0.02147
2748.26960,0.02150
2746.20943,0.02157
2744.14926,0.02146
2742.08909,0.02132
2740.02892,0.02135
2737.96874,0.02137
2735.90857,0.02118
2733.84840,0.02089
2731.78823,0.02071
2729.72805,0.02062
2727.66788,0.02046
2725.60771,0.02024
2723.54754,0.02023
2721.48737,0.02025
2719.42719,0.01997
2717.36702,0.01969
2715.30685,0.01962
2713.24668,0.01953
2711.18651,0.01940
2709.12633,0.01930
2707.06616,0.01929
2705.00599,0.01932
2702.94582,0.01915
2700.88565,0.01889
2698.82547,0.01878
2696.76530,0.01866
2694.70513,0.01844
2692.64496,0.01820
2690.58478,0.01796
2688.52461,0.01785
2686.46444,0.01792
2684.40427,0.01799
2682.34410,0.01792
2680.28392,0.01767
2678.22375,0.01729
2676.16358,0.01704
2674.10341,0.01704
2672.04324,0.01704
2669.98306,0.01698
2667.92289,0.01694
2665.86272,0.01676
2663.80255,0.01644
2661.74238,0.01620
2659.68220,0.01610
2657.62203,0.01609
2655.56186,0.01606
2653.50169,0.01591
2651.44151,0.01569
2649.38134,0.01545
2647.32117,0.01527
2645.26100,0.01510
2643.20083,0.01497
2641.14065,0.01496
2639.08048,0.01498
2637.02031,0.01490
2634.96014,0.01473
2632.89997,0.01451
2630.83979,0.01426
2628.77962,0.01412
2626.71945,0.01396
2624.65928,0.01372
2622.59910,0.01350
2620.53893,0.01325
2618.47876,0.01314
2616.41859,0.01332
2614.35842,0.01344
2612.29824,0.01347
2610.23807,0.01346
2608.17790,0.01309
2606.11773,0.01268
2604.05756,0.01275
2601.99738,0.01290
2599.93721,0.01293
2597.87704,0.01295
2595.81687,0.01282
2593.75670,0.01266
2591.69652,0.01273
2589.63635,0.01276
2587.57618,0.01235
2585.51601,0.01179
2583.45583,0.01166
2581.39566,0.01184
2579.33549,0.01201
2577.27532,0.01209
2575.21515,0.01195
2573.15497,0.01169
2571.09480,0.01171
2569.03463,0.01171
2566.97446,0.01151
2564.91429,0.01137
2562.85411,0.01132
2560.79394,0.01143
2558.73377,0.01174
2556.67360,0.01199
2554.61342,0.01206
2552.55325,0.01203
2550.49308,0.01181
2548.43291,0.01139
2546.37274,0.01099
2544.31256,0.01075
2542.25239,0.01082
2540.19222,0.01114
2538.13205,0.01136
2536.07188,0.01131
2534.01170,0.01120
2531.95153,0.01131
2529.89136,0.01150
2527.83119,0.01161
2525.77102,0.01179
2523.71084,0.01190
2521.65067,0.01179
2519.59050,0.01162
2517.53033,0.01153
2515.47015,0.01153
2513.40998,0.01158
2511.34981,0.01162
2509.28964,0.01168
2507.22947,0.01172
2505.16929,0.01183
2503.10912,0.01202
2501.04895,0.01220
2498.98878,0.01239
2496.92861,0.01232
2494.86843,0.01193
2492.80826,0.01184
2490.74809,0.01213
2488.68792,0.01226
2486.62775,0.01224
2484.56757,0.01249
2482.50740,0.01273
2480.44723,0.01252
2478.38706,0.01224
2476.32688,0.01240
2474.26671,0.01271
2472.20654,0.01261
2470.14637,0.01218
2468.08620,0.01205
2466.02602,0.01223
2463.96585,0.01223
2461.90568,0.01223
2459.84551,0.01260
2457.78534,0.01315
2455.72516,0.01347
2453.66499,0.01333
2451.60482,0.01307
2449.54465,0.01311
2447.48447,0.01323
2445.42430,0.01318
2443.36413,0.01308
2441.30396,0.01304
2439.24379,0.01299
2437.18361,0.01314
2435.12344,0.01362
2433.06327,0.01372
2431.00310,0.01325
2428.94293,0.01282
2426.88275,0.01269
2424.82258,0.01272
2422.76241,0.01281
2420.70224,0.01291
2418.64207,0.01308
2416.58189,0.01321
2414.52172,0.01322
2412.46155,0.01323
2410.40138,0.01337
2408.34120,0.01352
2406.28103,0.01328
2404.22086,0.01281
2402.16069,0.01253
2400.10052,0.01244
2398.04034,0.01266
2395.98017,0.01311
2393.92000,0.01329
2391.85983,0.01308
2389.79966,0.01287
2387.73948,0.01288
2385.67931,0.01297
2383.61914,0.01293
2381.55897,0.01271
2379.49880,0.01256
2377.43862,0.01256
2375.37845,0.01246
2373.31828,0.01231
2371.25811,0.01184
2369.19793,0.01126
2367.13776,0.01174
2365.07759,0.01265
2363.01742,0.01234
2360.95725,0.01248
2358.89707,0.01314
2356.83690,0.01328
2354.77673,0.01268
2352.71656,0.01253
2350.65639,0.01387
2348.59621,0.01467
2346.53604,0.01315
2344.47587,0.01257
2342.41570,0.01273
2340.35552,0.01274
2338.29535,0.01291
2336.23518,0.01290
2334.17501,0.01249
2332.11484,0.01214
2330.05466,0.01244
2327.99449,0.01292
2325.93432,0.01340
2323.87415,0.01354
2321.81398,0.01367
2319.75380,0.01327
2317.69363,0.01271
2315.63346,0.01229
2313.57329,0.01221
2311.51312,0.01228
2309.45294,0.01223
2307.39277,0.01228
2305.33260,0.01252
2303.27243,0.01254
2301.21225,0.01200
2299.15208,0.01142
2297.09191,0.01115
2295.03174,0.01114
2292.97157,0.01141
2290.91139,0.01174
2288.85122,0.01182
2286.79105,0.01164
2284.73088,0.01154
2282.67071,0.01176
2280.61053,0.01217
2278.55036,0.01228
2276.49019,0.01153
2274.43002,0.01025
2272.36984,0.00971
2270.30967,0.01045
2268.24950,0.01153
2266.18933,0.01201
2264.12916,0.01182
2262.06898,0.01141
2260.00881,0.01116
2257.94864,0.01102
2255.88847,0.01054
2253.82830,0.00971
2251.76812,0.00929
2249.70795,0.00966
2247.64778,0.01005
2245.58761,0.00992
2243.52744,0.00943
2241.46726,0.00899
2239.40709,0.00902
2237.34692,0.00897
2235.28675,0.00881
2233.22657,0.00934
2231.16640,0.00988
2229.10623,0.00949
2227.04606,0.00863
2224.98589,0.00781
2222.92571,0.00764
2220.86554,0.00795
2218.80537,0.00803
2216.74520,0.00852
2214.68503,0.00902
2212.62485,0.00808
2210.56468,0.00695
2208.50451,0.00700
2206.44434,0.00739
2204.38417,0.00799
2202.32399,0.00895
2200.26382,0.00888
2198.20365,0.00743
2196.14348,0.00627
2194.08330,0.00626
2192.02313,0.00721
2189.96296,0.00832
2187.90279,0.00800
2185.84262,0.00666
2183.78244,0.00604
2181.72227,0.00611
2179.66210,0.00639
2177.60193,0.00694
2175.54176,0.00718
2173.48158,0.00680
2171.42141,0.00636
2169.36124,0.00580
2167.30107,0.00519
2165.24089,0.00531
2163.18072,0.00502
2161.12055,0.00296
2159.06038,0.00224
2157.00021,0.00399
2154.94003,0.00474
2152.87986,0.00388
2150.81969,0.00347
2148.75952,0.00457
2146.69935,0.00602
2144.63917,0.00636
2142.57900,0.00617
2140.51883,0.00658
2138.45866,0.00633
2136.39849,0.00512
2134.33831,0.00468
2132.27814,0.00495
2130.21797,0.00511
2128.15780,0.00550
2126.09762,0.00627
2124.03745,0.00664
2121.97728,0.00653
2119.91711,0.00648
2117.85694,0.00629
2115.79676,0.00598
2113.73659,0.00607
2111.67642,0.00615
2109.61625,0.00576
2107.55608,0.00533
2105.49590,0.00513
2103.43573,0.00513
2101.37556,0.00546
2099.31539,0.00578
2097.25521,0.00557
2095.19504,0.00511
2093.13487,0.00529
2091.07470,0.00624
2089.01453,0.00706
2086.95435,0.00685
2084.89418,0.00597
2082.83401,0.00535
2080.77384,0.00511
2078.71367,0.00499
2076.65349,0.00497
2074.59332,0.00512
2072.53315,0.00535
2070.47298,0.00522
2068.41281,0.00502
2066.35263,0.00515
2064.29246,0.00534
2062.23229,0.00560
2060.17212,0.00586
2058.11194,0.00574
2056.05177,0.00511
2053.99160,0.00452
2051.93143,0.00439
2049.87126,0.00417
2047.81108,0.00380
2045.75091,0.00372
2043.69074,0.00403
2041.63057,0.00453
2039.57040,0.00406
2037.51022,0.00296
2035.45005,0.00267
2033.38988,0.00323
2031.32971,0.00379
2029.26954,0.00391
2027.20936,0.00308
2025.14919,0.00130
2023.08902,0.00118
2021.02885,0.00378
2018.96867,0.00593
2016.90850,0.00557
2014.84833,0.00433
2012.78816,0.00360
2010.72799,0.00262
2008.66781,0.00143
2006.60764,0.00111
2004.54747,0.00148
2002.48730,0.00169
2000.42713,0.00207
1998.36695,0.00286
1996.30678,0.00341
1994.24661,0.00347
1992.18644,0.00297
1990.12626,0.00183
1988.06609,0.00119
1986.00592,0.00161
1983.94575,0.00237
1981.88558,0.00305
1979.82540,0.00355
1977.76523,0.00347
1975.70506,0.00322
1973.64489,0.00363
1971.58472,0.00372
1969.52454,0.00303
1967.46437,0.00331
1965.40420,0.00433
1963.34403,0.00465
1961.28386,0.00454
1959.22368,0.00433
1957.16351,0.00391
1955.10334,0.00331
1953.04317,0.00300
1950.98299,0.00306
1948.92282,0.00305
1946.86265,0.00322
1944.80248,0.00358
1942.74231,0.00333
1940.68213,0.00227
1938.62196,0.00168
1936.56179,0.00177
1934.50162,0.00224
1932.44145,0.00299
1930.38127,0.00327
1928.32110,0.00278
1926.26093,0.00235
1924.20076,0.00263
1922.14059,0.00257
1920.08041,0.00240
1918.02024,0.00291
1915.96007,0.00312
1913.89990,0.00323
1911.83972,0.00325
1909.77955,0.00311
1907.71938,0.00325
1905.65921,0.00344
1903.59904,0.00317
1901.53886,0.00266
1899.47869,0.00242
1897.41852,0.00284
1895.35835,0.00351
1893.29818,0.00354
1891.23800,0.00350
1889.17783,0.00344
1887.11766,0.00302
1885.05749,0.00311
1882.99731,0.00339
1880.93714,0.00321
1878.87697,0.00295
1876.81680,0.00303
1874.75663,0.00315
1872.69645,0.00313
1870.63628,0.00350
1868.57611,0.00388
1866.51594,0.00348
1864.45577,0.00315
1862.39559,0.00337
1860.33542,0.00380
1858.27525,0.00414
1856.21508,0.00415
1854.15491,0.00390
1852.09473,0.00367
1850.03456,0.00351
1847.97439,0.00338
1845.91422,0.00365
1843.85404,0.00389
1841.79387,0.00319
1839.73370,0.00297
1837.67353,0.00355
1835.61336,0.00377
1833.55318,0.00358
1831.49301,0.00378
1829.43284,0.00369
1827.37267,0.00308
1825.31250,0.00327
1823.25232,0.00342
1821.19215,0.00331
1819.13198,0.00351
1817.07181,0.00369
1815.01163,0.00361
1812.95146,0.00385
1810.89129,0.00442
1808.83112,0.00459
1806.77095,0.00431
1804.71077,0.00401
1802.65060,0.00405
1800.59043,0.00410
1798.53026,0.00366
1796.47009,0.00320
1794.40991,0.00357
1792.34974,0.00435
1790.28957,0.00403
1788.22940,0.00366
1786.16923,0.00412
1784.10905,0.00440
1782.04888,0.00445
1779.98871,0.00437
1777.92854,0.00379
1775.86836,0.00350
1773.80819,0.00426
1771.74802,0.00504
1769.68785,0.00485
1767.62768,0.00454
1765.56750,0.00427
1763.50733,0.00488
1761.44716,0.00551
1759.38699,0.00537
1757.32682,0.00556
1755.26664,0.00524
1753.20647,0.00516
1751.14630,0.00600
1749.08613,0.00617
1747.02596,0.00570
1744.96578,0.00559
1742.90561,0.00602
1740.84544,0.00671
1738.78527,0.00647
1736.72509,0.00634
1734.66492,0.00799
1732.60475,0.00818
1730.54458,0.00744
1728.48441,0.00751
1726.42423,0.00791
1724.36406,0.00832
1722.30389,0.00805
1720.24372,0.00829
1718.18355,0.00967
1716.12337,0.00982
1714.06320,0.00916
1712.00303,0.00906
1709.94286,0.00948
1707.88268,0.01020
1705.82251,0.01046
1703.76234,0.00981
1701.70217,0.01069
1699.64200,0.01175
1697.58182,0.01197
1695.52165,0.01285
1693.46148,0.01244
1691.40131,0.01252
1689.34114,0.01308
1687.28096,0.01367
1685.22079,0.01592
1683.16062,0.01676
1681.10045,0.01555
1679.04028,0.01532
1676.98010,0.01642
1674.91993,0.01725
1672.85976,0.01710
1670.79959,0.01843
1668.73941,0.01957
1666.67924,0.01908
1664.61907,0.01972
1662.55890,0.02094
1660.49873,0.02048
1658.43855,0.01940
1656.37838,0.01967
1654.31821,0.02198
1652.25804,0.02173
1650.19787,0.01944
1648.13769,0.02087
1646.07752,0.02247
1644.01735,0.02139
1641.95718,0.02047
1639.89701,0.02031
1637.83683,0.02134
1635.77666,0.02259
1633.71649,0.02109
1631.65632,0.01962
1629.59614,0.01990
1627.53597,0.02002
1625.47580,0.01988
1623.41563,0.01995
1621.35546,0.01886
1619.29528,0.01858
1617.23511,0.01970
1615.17494,0.01903
1613.11477,0.01784
1611.05460,0.01794
1608.99442,0.01809
1606.93425,0.01764
1604.87408,0.01718
1602.81391,0.01703
1600.75373,0.01680
1598.69356,0.01643
1596.63339,0.01608
1594.57322,0.01564
1592.51305,0.01508
1590.45287,0.01457
1588.39270,0.01399
1586.33253,0.01340
1584.27236,0.01293
1582.21219,0.01226
1580.15201,0.01150
1578.09184,0.01190
1576.03167,0.01217
1573.97150,0.01031
1571.91133,0.00987
1569.85115,0.01102
1567.79098,0.01025
1565.73081,0.00872
1563.67064,0.00725
1561.61046,0.00744
1559.55029,0.00979
1557.49012,0.00841
1555.42995,0.00653
1553.36978,0.00660
1551.30960,0.00702
1549.24943,0.00680
1547.18926,0.00590
1545.12909,0.00550
1543.06892,0.00571
1541.00874,0.00695
1538.94857,0.00631
1536.88840,0.00400
1534.82823,0.00455
1532.76805,0.00555
1530.70788,0.00464
1528.64771,0.00434
1526.58754,0.00425
1524.52737,0.00371
1522.46719,0.00407
1520.40702,0.00378
1518.34685,0.00332
1516.28668,0.00365
1514.22651,0.00303
1512.16633,0.00215
1510.10616,0.00241
1508.04599,0.00483
1505.98582,0.00542
1503.92565,0.00294
1501.86547,0.00213
1499.80530,0.00320
1497.74513,0.00420
1495.68496,0.00362
1493.62478,0.00245
1491.56461,0.00299
1489.50444,0.00399
1487.44427,0.00373
1485.38410,0.00333
1483.32392,0.00360
1481.26375,0.00389
1479.20358,0.00357
1477.14341,0.00341
1475.08324,0.00387
1473.02306,0.00459
1470.96289,0.00398
1468.90272,0.00322
1466.84255,0.00423
1464.78238,0.00514
1462.72220,0.00403
1460.66203,0.00336
1458.60186,0.00479
1456.54169,0.00543
1454.48151,0.00412
1452.42134,0.00393
1450.36117,0.00476
1448.30100,0.00534
1446.24083,0.00509
1444.18065,0.00470
1442.12048,0.00447
1440.06031,0.00428
1438.00014,0.00511
1435.93997,0.00561
1433.87979,0.00485
1431.81962,0.00504
1429.75945,0.00554
1427.69928,0.00518
1425.63910,0.00497
1423.57893,0.00477
1421.51876,0.00485
1419.45859,0.00592
1417.39842,0.00607
1415.33824,0.00569
1413.27807,0.00587
1411.21790,0.00598
1409.15773,0.00571
1407.09756,0.00575
1405.03738,0.00591
1402.97721,0.00539
1400.91704,0.00518
1398.85687,0.00532
1396.79670,0.00519
1394.73652,0.00505
1392.67635,0.00435
1390.61618,0.00399
1388.55601,0.00465
1386.49583,0.00507
1384.43566,0.00490
1382.37549,0.00494
1380.31532,0.00501
1378.25515,0.00493
1376.19497,0.00517
1374.13480,0.00542
1372.07463,0.00494
1370.01446,0.00458
1367.95429,0.00443
1365.89411,0.00427
1363.83394,0.00457
1361.77377,0.00460
1359.71360,0.00420
1357.65343,0.00416
1355.59325,0.00428
1353.53308,0.00412
1351.47291,0.00398
1349.41274,0.00410
1347.35256,0.00416
1345.29239,0.00392
1343.23222,0.00353
1341.17205,0.00352
1339.11188,0.00369
1337.05170,0.00357
1334.99153,0.00353
1332.93136,0.00370
1330.87119,0.00386
1328.81102,0.00386
1326.75084,0.00381
1324.69067,0.00373
1322.63050,0.00361
1320.57033,0.00360
1318.51015,0.00369
1316.44998,0.00379
1314.38981,0.00397
1312.32964,0.00397
1310.26947,0.00382
1308.20929,0.00387
1306.14912,0.00397
1304.08895,0.00395
1302.02878,0.00393
1299.96861,0.00387
1297.90843,0.00377
1295.84826,0.00379
1293.78809,0.00396
1291.72792,0.00415
1289.66775,0.00424
1287.60757,0.00426
1285.54740,0.00428
1283.48723,0.00441
1281.42706,0.00459
1279.36688,0.00464
1277.30671,0.00456
1275.24654,0.00451
1273.18637,0.00464
1271.12620,0.00492
1269.06602,0.00508
1267.00585,0.00510
1264.94568,0.00508
1262.88551,0.00511
1260.82534,0.00529
1258.76516,0.00543
1256.70499,0.00545
1254.64482,0.00541
1252.58465,0.00525
1250.52447,0.00505
1248.46430,0.00501
1246.40413,0.00499
1244.34396,0.00486
1242.28379,0.00462
1240.22361,0.00438
1238.16344,0.00426
1236.10327,0.00414
1234.04310,0.00400
1231.98293,0.00393
1229.92275,0.00385
1227.86258,0.00363
1225.80241,0.00329
1223.74224,0.00285
1221.68207,0.00255
1219.62189,0.00248
1217.56172,0.00245
1215.50155,0.00239
1213.44138,0.00238
1211.38120,0.00231
1209.32103,0.00206
1207.26086,0.00174
1205.20069,0.00158
1203.14052,0.00161
1201.08034,0.00165
1199.02017,0.00171
1196.96000,0.00200
1194.89983,0.00239
1192.83966,0.00258
1190.77948,0.00264
1188.71931,0.00286
1186.65914,0.00325
1184.59897,0.00368
1182.53880,0.00422
1180.47862,0.00492
1178.41845,0.00561
1176.35828,0.00643
1174.29811,0.00750
1172.23793,0.00844
1170.17776,0.00912
1168.11759,0.00992
1166.05742,0.01088
1163.99725,0.01176
1161.93707,0.01258
1159.87690,0.01342
1157.81673,0.01425
1155.75656,0.01506
1153.69639,0.01587
1151.63621,0.01679
1149.57604,0.01788
1147.51587,0.01886
1145.45570,0.01946
1143.39552,0.02012
1141.33535,0.02115
1139.27518,0.02229
1137.21501,0.02344
1135.15484,0.02487
1133.09466,0.02634
1131.03449,0.02744
1128.97432,0.02838
1126.91415,0.02951
1124.85398,0.03068
1122.79380,0.03180
1120.73363,0.03302
1118.67346,0.03436
1116.61329,0.03575
1114.55312,0.03727
1112.49294,0.03896
1110.43277,0.04062
1108.37260,0.04207
1106.31243,0.04331
1104.25225,0.04456
1102.19208,0.04602
1100.13191,0.04756
1098.07174,0.04875
1096.01157,0.04970
1093.95139,0.05082
1091.89122,0.05201
1089.83105,0.05311
1087.77088,0.05426
1085.71071,0.05552
1083.65053,0.05662
1081.59036,0.05746
1079.53019,0.05824
1077.47002,0.05893
1075.40985,0.05947
1073.34967,0.06014
1071.28950,0.06094
1069.22933,0.06156
1067.16916,0.06185
1065.10898,0.06178
1063.04881,0.06149
1060.98864,0.06113
1058.92847,0.06064
1056.86830,0.05996
1054.80812,0.05918
1052.74795,0.05834
1050.68778,0.05743
1048.62761,0.05640
1046.56744,0.05511
1044.50726,0.05366
1042.44709,0.05223
1040.38692,0.05091
1038.32675,0.04971
1036.26657,0.04856
1034.20640,0.04724
1032.14623,0.04573
1030.08606,0.04427
1028.02589,0.04304
1025.96571,0.04192
1023.90554,0.04078
1021.84537,0.03954
1019.78520,0.03825
1017.72503,0.03725
1015.66485,0.03664
1013.60468,0.03601
1011.54451,0.03520
1009.48434,0.03455
1007.42417,0.03427
1005.36399,0.03405
1003.30382,0.03389
1001.24365,0.03422
999.18348,0.03502
997.12330,0.03595
995.06313,0.03679
993.00296,0.03753
990.94279,0.03826
988.88262,0.03897
986.82244,0.03970
984.76227,0.04026
982.70210,0.04030
980.64193,0.03984
978.58176,0.03914
976.52158,0.03826
974.46141,0.03703
972.40124,0.03544
970.34107,0.03383
968.28089,0.03239
966.22072,0.03108
964.16055,0.02970
962.10038,0.02824
960.04021,0.02676
957.98003,0.02527
955.91986,0.02410
953.85969,0.02329
951.79952,0.02236
949.73935,0.02136
947.67917,0.02073
945.61900,0.02029
943.55883,0.01972
941.49866,0.01926
939.43849,0.01920
937.37831,0.01908
935.31814,0.01855
933.25797,0.01809
931.19780,0.01821
929.13762,0.01862
927.07745,0.01841
925.01728,0.01763
922.95711,0.01698
920.89694,0.01641
918.83676,0.01582
916.77659,0.01553
914.71642,0.01544
912.65625,0.01518
910.59608,0.01471
908.53590,0.01395
906.47573,0.01307
904.41556,0.01272
902.35539,0.01305
900.29522,0.01319
898.23504,0.01286
896.17487,0.01269
894.11470,0.01298
892.05453,0.01367
889.99435,0.01441
887.93418,0.01496
885.87401,0.01538
883.81384,0.01550
881.75367,0.01542
879.69349,0.01573
877.63332,0.01643
875.57315,0.01710
873.51298,0.01724
871.45281,0.01699
869.39263,0.01722
867.33246,0.01796
865.27229,0.01853
863.21212,0.01873
861.15194,0.01892
859.09177,0.01894
857.03160,0.01840
854.97143,0.01773
852.91126,0.01744
850.85108,0.01701
848.79091,0.01641
846.73074,0.01608
844.67057,0.01562
842.61040,0.01492
840.55022,0.01425
838.49005,0.01368
836.42988,0.01308
834.36971,0.01248
832.30954,0.01198
830.24936,0.01145
828.18919,0.01104
826.12902,0.01105
824.06885,0.01112
822.00867,0.01045
819.94850,0.00948
817.88833,0.00905
815.82816,0.00875
813.76799,0.00808
811.70781,0.00732
809.64764,0.00689
807.58747,0.00693
805.52730,0.00727
803.46713,0.00716
801.40695,0.00629
799.34678,0.00573
797.28661,0.00588
795.22644,0.00599
793.16627,0.00584
791.10609,0.00582
789.04592,0.00596
786.98575,0.00613
784.92558,0.00642
782.86540,0.00622
780.80523,0.00543
778.74506,0.00489
776.68489,0.00481
774.62472,0.00484
772.56454,0.00470
770.50437,0.00463
768.44420,0.00497
766.38403,0.00513
764.32386,0.00461
762.26368,0.00370
760.20351,0.00304
758.14334,0.00301
756.08317,0.00319
754.02299,0.00343
751.96282,0.00348
749.90265,0.00327
747.84248,0.00345
745.78231,0.00390
743.72213,0.00393
741.66196,0.00334
739.60179,0.00286
737.54162,0.00276
735.48145,0.00287
733.42127,0.00339
731.36110,0.00381
729.30093,0.00349
727.24076,0.00260
725.18059,0.00198
723.12041,0.00243
721.06024,0.00335
719.00007,0.00431
716.93990,0.00455
714.87972,0.00433
712.81955,0.00443
710.75938,0.00465
708.69921,0.00431
706.63904,0.00362
704.57886,0.00317
702.51869,0.00300
700.45852,0.00322
698.39835,0.00390
696.33818,0.00459
694.27800,0.00503
692.21783,0.00505
690.15766,0.00463
688.09749,0.00431
686.03731,0.00423
683.97714,0.00433
681.91697,0.00486
679.85680,0.00545
677.79663,0.00525
675.73645,0.00425
673.67628,0.00389
671.61611,0.00479
669.55594,0.00385
667.49577,0.00220
665.43559,0.00477
663.37542,0.00436
661.31525,0.00336
659.25508,0.00316
657.19491,0.00368
655.13473,0.00464
653.07456,0.00525
651.01439,0.00509
648.95422,0.00455
646.89404,0.00424
644.83387,0.00391
642.77370,0.00326
640.71353,0.00313
638.65336,0.00453
636.59318,0.00626
634.53301,0.00667
632.47284,0.00604
630.41267,0.00513
628.35250,0.00407
626.29232,0.00353
624.23215,0.00399
622.17198,0.00345
620.11181,0.00198
618.05164,0.00187
615.99146,0.00300
613.93129,0.00505
611.87112,0.00673
609.81095,0.00528
607.75077,0.00142
605.69060,0.00000
603.63043,0.00059
601.57026,0.00027
599.51009,0.00000
