3996.73391,0.00032
3994.67373,0.00000
3992.61356,0.00006
3990.55339,0.00043
3988.49322,0.00094
3986.43305,0.00145
3984.37287,0.00163
3982.31270,0.00144
3980.25253,0.00117
3978.19236,0.00101
3976.13219,0.00110
3974.07201,0.00151
3972.01184,0.00202
3969.95167,0.00215
3967.89150,0.00160
3965.83133,0.00072
3963.77115,0.00029
3961.71098,0.00063
3959.65081,0.00119
3957.59064,0.00143
3955.53046,0.00129
3953.47029,0.00105
3951.41012,0.00100
3949.34995,0.00102
3947.28978,0.00088
3945.22960,0.00063
3943.16943,0.00062
3941.10926,0.00075
3939.04909,0.00062
3936.98892,0.00032
3934.92874,0.00030
3932.86857,0.00079
3930.80840,0.00138
3928.74823,0.00140
3926.68805,0.00124
3924.62788,0.00145
3922.56771,0.00160
3920.50754,0.00132
3918.44737,0.00103
3916.38719,0.00106
3914.32702,0.00102
3912.26685,0.00067
3910.20668,0.00043
3908.14651,0.00055
3906.08633,0.00067
3904.02616,0.00075
3901.96599,0.00117
3899.90582,0.00182
3897.84565,0.00211
3895.78547,0.00185
3893.72530,0.00154
3891.66513,0.00143
3889.60496,0.00125
3887.54478,0.00099
3885.48461,0.00095
3883.42444,0.00125
3881.36427,0.00169
3879.30410,0.00169
3877.24392,0.00120
3875.18375,0.00105
3873.12358,0.00153
3871.06341,0.00210
3869.00324,0.00245
3866.94306,0.00238
3864.88289,0.00198
3862.82272,0.00182
3860.76255,0.00201
3858.70237,0.00179
3856.64220,0.00077
3854.58203,0.00000
3852.52186,0.00079
3850.46169,0.00192
3848.40151,0.00206
3846.34134,0.00176
3844.28117,0.00171
3842.22100,0.00197
3840.16083,0.00220
3838.10065,0.00227
3836.04048,0.00220
3833.98031,0.00206
3831.92014,0.00215
3829.85997,0.00235
3827.79979,0.00226
3825.73962,0.00202
3823.67945,0.00191
3821.61928,0.00208
3819.55910,0.00236
3817.49893,0.00236
3815.43876,0.00218
3813.37859,0.00176
3811.31842,0.00118
3809.25824,0.00095
3807.19807,0.00114
3805.13790,0.00125
3803.07773,0.00129
3801.01756,0.00154
3798.95738,0.00174
3796.89721,0.00173
3794.83704,0.00165
3792.77687,0.00176
3790.71670,0.00195
3788.65652,0.00182
3786.59635,0.00144
3784.53618,0.00115
3782.47601,0.00098
3780.41583,0.00099
3778.35566,0.00108
3776.29549,0.00101
3774.23532,0.00088
3772.17515,0.00092
3770.11497,0.00108
3768.05480,0.00118
3765.99463,0.00126
3763.93446,0.00141
3761.87429,0.00171
3759.81411,0.00218
3757.75394,0.00230
3755.69377,0.00185
3753.63360,0.00165
3751.57342,0.00220
3749.51325,0.00249
3747.45308,0.00158
3745.39291,0.00053
3743.33274,0.00066
3741.27256,0.00150
3739.21239,0.00216
3737.15222,0.00288
3735.09205,0.00369
3733.03188,0.00365
3730.97170,0.00278
3728.91153,0.00206
3726.85136,0.00205
3724.79119,0.00247
3722.73102,0.00261
3720.67084,0.00229
3718.61067,0.00176
3716.55050,0.00103
3714.49033,0.00043
3712.43015,0.00075
3710.36998,0.00186
3708.30981,0.00239
3706.24964,0.00186
3704.18947,0.00082
3702.12929,0.00031
3700.06912,0.00074
3698.00895,0.00139
3695.94878,0.00183
3693.88861,0.00206
3691.82843,0.00219
3689.76826,0.00224
3687.70809,0.00196
3685.64792,0.00149
3683.58775,0.00137
3681.52757,0.00155
3679.46740,0.00171
3677.40723,0.00194
3675.34706,0.00241
3673.28688,0.00277
3671.22671,0.00311
3669.16654,0.00345
3667.10637,0.00323
3665.04620,0.00268
3662.98602,0.00225
3660.92585,0.00195
3658.86568,0.00175
3656.80551,0.00179
3654.74534,0.00191
3652.68516,0.00170
3650.62499,0.00148
3648.56482,0.00201
3646.50465,0.00304
3644.44447,0.00362
3642.38430,0.00366
3640.32413,0.00365
3638.26396,0.00378
3636.20379,0.00381
3634.14361,0.00353
3632.08344,0.00322
3630.02327,0.00348
3627.96310,0.00422
3625.90293,0.00446
3623.84275,0.00431
3621.78258,0.00462
3619.72241,0.00572
3617.66224,0.00678
3615.60207,0.00684
3613.54189,0.00651
3611.48172,0.00650
3609.42155,0.00662
3607.36138,0.00655
3605.30120,0.00638
3603.24103,0.00654
3601.18086,0.00705
3599.12069,0.00730
3597.06052,0.00700
3595.00034,0.00671
3592.94017,0.00661
3590.88000,0.00656
3588.81983,0.00662
3586.75966,0.00706
3584.69948,0.00773
3582.63931,0.00824
3580.57914,0.00840
3578.51897,0.00837
3576.45879,0.00832
3574.39862,0.00829
3572.33845,0.00819
3570.27828,0.00815
3568.21811,0.00867
3566.15793,0.00964
3564.09776,0.01012
3562.03759,0.00999
3559.97742,0.00983
3557.91725,0.00991
3555.85707,0.01011
3553.79690,0.01021
3551.73673,0.01006
3549.67656,0.00986
3547.61639,0.01026
3545.55621,0.01117
3543.49604,0.01159
3541.43587,0.01141
3539.37570,0.01119
3537.31552,0.01124
3535.25535,0.01159
3533.19518,0.01210
3531.13501,0.01263
3529.07484,0.01305
3527.01466,0.01324
3524.95449,0.01342
3522.89432,0.01376
3520.83415,0.01379
3518.77398,0.01338
3516.71380,0.01324
3514.65363,0.01356
3512.59346,0.01372
3510.53329,0.01362
3508.47312,0.01374
3506.41294,0.01402
3504.35277,0.01406
3502.29260,0.01390
3500.23243,0.01387
3498.17225,0.01427
3496.11208,0.01503
3494.05191,0.01571
3491.99174,0.01613
3489.93157,0.01632
3487.87139,0.01620
3485.81122,0.01575
3483.75105,0.01530
3481.69088,0.01526
3479.63071,0.01540
3477.57053,0.01547
3475.51036,0.01565
3473.45019,0.01586
3471.39002,0.01612
3469.32984,0.01665
3467.26967,0.01709
3465.20950,0.01715
3463.14933,0.01710
3461.08916,0.01714
3459.02898,0.01723
3456.96881,0.01740
3454.90864,0.01759
3452.84847,0.01779
3450.78830,0.01792
3448.72812,0.01792
3446.66795,0.01785
3444.60778,0.01796
3442.54761,0.01819
3440.48744,0.01818
3438.42726,0.01801
3436.36709,0.01801
3434.30692,0.01826
3432.24675,0.01851
3430.18657,0.01855
3428.12640,0.01870
3426.06623,0.01907
3424.00606,0.01922
3421.94589,0.01902
3419.88571,0.01886
3417.82554,0.01893
3415.76537,0.01913
3413.70520,0.01938
3411.64503,0.01949
3409.58485,0.01937
3407.52468,0.01925
3405.46451,0.01929
3403.40434,0.01956
3401.34416,0.01994
3399.28399,0.01998
3397.22382,0.01988
3395.16365,0.02017
3393.10348,0.02072
3391.04330,0.02101
3388.98313,0.02095
3386.92296,0.02078
3384.86279,0.02065
3382.80262,0.02067
3380.74244,0.02066
3378.68227,0.02061
3376.62210,0.02081
3374.56193,0.02110
3372.50176,0.02119
3370.44158,0.02107
3368.38141,0.02099
3366.32124,0.02119
3364.26107,0.02148
3362.20089,0.02156
3360.14072,0.02127
3358.08055,0.02076
3356.02038,0.02055
3353.96021,0.02084
3351.90003,0.02116
3349.83986,0.02127
3347.77969,0.02143
3345.71952,0.02164
3343.65935,0.02156
3341.59917,0.02130
3339.53900,0.02129
3337.47883,0.02164
3335.41866,0.02190
3333.35849,0.02185
3331.29831,0.02195
3329.23814,0.02229
3327.17797,0.02258
3325.11780,0.02263
3323.05762,0.02226
3320.99745,0.02194
3318.93728,0.02199
3316.87711,0.02212
3314.81694,0.02222
3312.75676,0.02223
3310.69659,0.02214
3308.63642,0.02204
3306.57625,0.02213
3304.51608,0.02229
3302.45590,0.02211
3300.39573,0.02198
3298.33556,0.02213
3296.27539,0.02224
3294.21521,0.02258
3292.15504,0.02302
3290.09487,0.02307
3288.03470,0.02301
3285.97453,0.02314
3283.91435,0.02319
3281.85418,0.02301
3279.79401,0.02275
3277.73384,0.02253
3275.67367,0.02255
3273.61349,0.02278
3271.55332,0.02296
3269.49315,0.02306
3267.43298,0.02308
3265.37281,0.02277
3263.31263,0.02229
3261.25246,0.02223
3259.19229,0.02284
3257.13212,0.02368
3255.07194,0.02399
3253.01177,0.02356
3250.95160,0.02313
3248.89143,0.02322
3246.83126,0.02356
3244.77108,0.02379
3242.71091,0.02366
3240.65074,0.02331
3238.59057,0.02321
3236.53040,0.02338
3234.47022,0.02343
3232.41005,0.02328
3230.34988,0.02323
3228.28971,0.02326
3226.22954,0.02314
3224.16936,0.02313
3222.10919,0.02350
3220.04902,0.02373
3217.98885,0.02346
3215.92867,0.02308
3213.86850,0.02297
3211.80833,0.02304
3209.74816,0.02316
3207.68799,0.02332
3205.62781,0.02338
3203.56764,0.02330
3201.50747,0.02324
3199.44730,0.02322
3197.38713,0.02315
3195.32695,0.02303
3193.26678,0.02296
3191.20661,0.02287
3189.14644,0.02260
3187.08626,0.02229
3185.02609,0.02242
3182.96592,0.02295
3180.90575,0.02335
3178.84558,0.02339
3176.78540,0.02315
3174.72523,0.02280
3172.66506,0.02256
3170.60489,0.02252
3168.54472,0.02256
3166.48454,0.02254
3164.42437,0.02238
3162.36420,0.02220
3160.30403,0.02215
3158.24386,0.02214
3156.18368,0.02211
3154.12351,0.02225
3152.06334,0.02248
3150.00317,0.02263
3147.94299,0.02269
3145.88282,0.02256
3143.82265,0.02230
3141.76248,0.02209
3139.70231,0.02197
3137.64213,0.02195
3135.58196,0.02205
3133.52179,0.02218
3131.46162,0.02208
3129.40145,0.02163
3127.34127,0.02128
3125.28110,0.02114
3123.22093,0.02094
3121.16076,0.02103
3119.10058,0.02140
3117.04041,0.02134
3114.98024,0.02095
3112.92007,0.02098
3110.85990,0.02129
3108.79972,0.02127
3106.73955,0.02093
3104.67938,0.02070
3102.61921,0.02064
3100.55904,0.02051
3098.49886,0.02018
3096.43869,0.01973
3094.37852,0.01962
3092.31835,0.01989
3090.25818,0.02007
3088.19800,0.02032
3086.13783,0.02066
3084.07766,0.02048
3082.01749,0.02002
3079.95731,0.01983
3077.89714,0.01984
3075.83697,0.01985
3073.77680,0.01990
3071.71663,0.01984
3069.65645,0.01954
3067.59628,0.01928
3065.53611,0.01930
3063.47594,0.01952
3061.41577,0.01968
3059.35559,0.01955
3057.29542,0.01921
3055.23525,0.01896
3053.17508,0.01899
3051.11491,0.01908
3049.05473,0.01898
3046.99456,0.01873
3044.93439,0.01850
3042.87422,0.01840
3040.81404,0.01854
3038.75387,0.01878
3036.69370,0.01885
3034.63353,0.01876
3032.57336,0.01867
3030.51318,0.01837
3028.45301,0.01780
3026.39284,0.01734
3024.33267,0.01722
3022.27250,0.01736
3020.21232,0.01743
3018.15215,0.01717
3016.09198,0.01698
3014.03181,0.01710
3011.97163,0.01715
3009.91146,0.01695
3007.85129,0.01670
3005.79112,0.01659
3003.73095,0.01660
3001.67077,0.01671
2999.61060,0.01672
2997.55043,0.01654
2995.49026,0.01650
2993.43009,0.01657
2991.36991,0.01639
2989.30974,0.01606
2987.24957,0.01588
2985.18940,0.01587
2983.12923,0.01591
2981.06905,0.01591
2979.00888,0.01571
2976.94871,0.01545
2974.88854,0.01542
2972.82836,0.01543
2970.76819,0.01528
2968.70802,0.01528
2966.64785,0.01548
2964.58768,0.01551
2962.52750,0.01522
2960.46733,0.01497
2958.40716,0.01502
2956.34699,0.01506
2954.28682,0.01490
2952.22664,0.01476
2950.16647,0.01485
2948.10630,0.01496
2946.04613,0.01487
2943.98596,0.01484
2941.92578,0.01483
2939.86561,0.01459
2937.80544,0.01446
2935.74527,0.01471
2933.68509,0.01486
2931.62492,0.01481
2929.56475,0.01480
2927.50458,0.01481
2925.44441,0.01481
2923.38423,0.01453
2921.32406,0.01399
2919.26389,0.01373
2917.20372,0.01377
2915.14355,0.01383
2913.08337,0.01385
2911.02320,0.01384
2908.96303,0.01384
2906.90286,0.01392
2904.84268,0.01398
2902.78251,0.01388
2900.72234,0.01379
2898.66217,0.01392
2896.60200,0.01409
2894.54182,0.01421
2892.48165,0.01420
2890.42148,0.01391
2888.36131,0.01351
2886.30114,0.01329
2884.24096,0.01339
2882.18079,0.01359
2880.12062,0.01360
2878.06045,0.01357
2876.00028,0.01371
2873.94010,0.01375
2871.87993,0.01364
2869.81976,0.01367
2867.75959,0.01376
2865.69941,0.01356
2863.63924,0.01316
2861.57907,0.01291
2859.51890,0.01292
2857.45873,0.01306
2855.39855,0.01302
2853.33838,0.01264
2851.27821,0.01230
2849.21804,0.01228
2847.15787,0.01247
2845.09769,0.01268
2843.03752,0.01291
2840.97735,0.01313
2838.91718,0.01310
2836.85700,0.01272
2834.79683,0.01223
2832.73666,0.01201
2830.67649,0.01213
2828.61632,0.01226
2826.55614,0.01225
2824.49597,0.01218
2822.43580,0.01201
2820.37563,0.01194
2818.31546,0.01214
2816.25528,0.01218
2814.19511,0.01195
2812.13494,0.01187
2810.07477,0.01196
2808.01460,0.01213
2805.95442,0.01228
2803.89425,0.01230
2801.83408,0.01230
2799.77391,0.01223
2797.71373,0.01209
2795.65356,0.01199
2793.59339,0.01190
2791.53322,0.01167
2789.47305,0.01131
2787.41287,0.01120
2785.35270,0.01139
2783.29253,0.01137
2781.23236,0.01113
2779.17219,0.01102
2777.11201,0.01103
2775.05184,0.01114
2772.99167,0.01131
2770.93150,0.01123
2768.87133,0.01084
2766.81115,0.01053
2764.75098,0.01051
2762.69081,0.01065
2760.63064,0.01075
2758.57046,0.01067
2756.51029,0.01053
2754.45012,0.01056
2752.38995,0.01070
2750.32978,0.01080
2748.26960,0.01083
2746.20943,0.01077
2744.14926,0.01058
2742.08909,0.01035
2740.02892,0.01022
2737.96874,0.01021
2735.90857,0.01029
2733.84840,0.01034
2731.78823,0.01022
2729.72805,0.01002
2727.66788,0.00985
2725.60771,0.00977
2723.54754,0.00987
2721.48737,0.00991
2719.42719,0.00970
2717.36702,0.00954
2715.30685,0.00957
2713.24668,0.00956
2711.18651,0.00946
2709.12633,0.00922
2707.06616,0.00903
2705.00599,0.00915
2702.94582,0.00941
2700.88565,0.00964
2698.82547,0.00977
2696.76530,0.00971
2694.70513,0.00957
2692.64496,0.00936
2690.58478,0.00916
2688.52461,0.00908
2686.46444,0.00911
2684.40427,0.00925
2682.34410,0.00940
2680.28392,0.00932
2678.22375,0.00898
2676.16358,0.00873
2674.10341,0.00865
2672.04324,0.00859
2669.98306,0.00847
2667.92289,0.00835
2665.86272,0.00839
2663.80255,0.00850
2661.74238,0.00843
2659.68220,0.00825
2657.62203,0.00817
2655.56186,0.00817
2653.50169,0.00824
2651.44151,0.00835
2649.38134,0.00838
2647.32117,0.00828
2645.26100,0.00813
2643.20083,0.00808
2641.14065,0.00808
2639.08048,0.00801
2637.02031,0.00801
2634.96014,0.00804
2632.89997,0.00798
2630.83979,0.00775
2628.77962,0.00740
2626.71945,0.00727
2624.65928,0.00744
2622.59910,0.00742
2620.53893,0.00716
2618.47876,0.00700
2616.41859,0.00687
2614.35842,0.00668
2612.29824,0.00660
2610.23807,0.00675
2608.17790,0.00695
2606.11773,0.00694
2604.05756,0.00698
2601.99738,0.00710
2599.93721,0.00699
2597.87704,0.00684
2595.81687,0.00679
2593.75670,0.00672
2591.69652,0.00643
2589.63635,0.00605
2587.57618,0.00598
2585.51601,0.00590
2583.45583,0.00582
2581.39566,0.00609
2579.33549,0.00624
2577.27532,0.00617
2575.21515,0.00615
2573.15497,0.00630
2571.09480,0.00657
2569.03463,0.00644
2566.97446,0.00594
2564.91429,0.00566
2562.85411,0.00575
2560.79394,0.00602
2558.73377,0.00629
2556.67360,0.00635
2554.61342,0.00632
2552.55325,0.00647
2550.49308,0.00657
2548.43291,0.00656
2546.37274,0.00648
2544.31256,0.00613
2542.25239,0.00596
2540.19222,0.00625
2538.13205,0.00652
2536.07188,0.00655
2534.01170,0.00646
2531.95153,0.00636
2529.89136,0.00620
2527.83119,0.00596
2525.77102,0.00586
2523.71084,0.00586
2521.65067,0.00579
2519.59050,0.00599
2517.53033,0.00649
2515.47015,0.00681
2513.40998,0.00675
2511.34981,0.00652
2509.28964,0.00645
2507.22947,0.00646
2505.16929,0.00625
2503.10912,0.00614
2501.04895,0.00648
2498.98878,0.00695
2496.92861,0.00726
2494.86843,0.00737
2492.80826,0.00736
2490.74809,0.00730
2488.68792,0.00711
2486.62775,0.00679
2484.56757,0.00673
2482.50740,0.00691
2480.44723,0.00700
2478.38706,0.00717
2476.32688,0.00754
2474.26671,0.00767
2472.20654,0.00751
2470.14637,0.00731
2468.08620,0.00709
2466.02602,0.00685
2463.96585,0.00684
2461.90568,0.00708
2459.84551,0.00725
2457.78534,0.00728
2455.72516,0.00739
2453.66499,0.00759
2451.60482,0.00766
2449.54465,0.00744
2447.48447,0.00687
2445.42430,0.00655
2443.36413,0.00696
2441.30396,0.00740
2439.24379,0.00728
2437.18361,0.00705
2435.12344,0.00720
2433.06327,0.00729
2431.00310,0.00707
2428.94293,0.00688
2426.88275,0.00697
2424.82258,0.00728
2422.76241,0.00736
2420.70224,0.00721
2418.64207,0.00716
2416.58189,0.00716
2414.52172,0.00721
2412.46155,0.00718
2410.40138,0.00692
2408.34120,0.00685
2406.28103,0.00717
2404.22086,0.00746
2402.16069,0.00753
2400.10052,0.00756
2398.04034,0.00755
2395.98017,0.00753
2393.92000,0.00747
2391.85983,0.00745
2389.79966,0.00739
2387.73948,0.00723
2385.67931,0.00714
2383.61914,0.00710
2381.55897,0.00706
2379.49880,0.00725
2377.43862,0.00777
2375.37845,0.00825
2373.31828,0.00858
2371.25811,0.00900
2369.19793,0.00978
2367.13776,0.01095
2365.07759,0.01187
2363.01742,0.01151
2360.95725,0.01088
2358.89707,0.00959
2356.83690,0.00797
2354.77673,0.00715
2352.71656,0.00722
2350.65639,0.00839
2348.59621,0.00904
2346.53604,0.00742
2344.47587,0.00682
2342.41570,0.00727
2340.35552,0.00796
2338.29535,0.00835
2336.23518,0.00783
2334.17501,0.00693
2332.11484,0.00644
2330.05466,0.00669
2327.99449,0.00707
2325.93432,0.00752
2323.87415,0.00726
2321.81398,0.00706
2319.75380,0.00716
2317.69363,0.00734
2315.63346,0.00722
2313.57329,0.00733
2311.51312,0.00772
2309.45294,0.00793
2307.39277,0.00774
2305.33260,0.00729
2303.27243,0.00691
2301.21225,0.00664
2299.15208,0.00666
2297.09191,0.00695
2295.03174,0.00712
2292.97157,0.00708
2290.91139,0.00705
2288.85122,0.00708
2286.79105,0.00703
2284.73088,0.00697
2282.67071,0.00688
2280.61053,0.00653
2278.55036,0.00608
2276.49019,0.00605
2274.43002,0.00655
2272.36984,0.00693
2270.30967,0.00690
2268.24950,0.00698
2266.18933,0.00708
2264.12916,0.00657
2262.06898,0.00606
2260.00881,0.00639
2257.94864,0.00693
2255.88847,0.00701
2253.82830,0.00695
2251.76812,0.00668
2249.70795,0.00604
2247.64778,0.00550
2245.58761,0.00528
2243.52744,0.00510
2241.46726,0.00479
2239.40709,0.00470
2237.34692,0.00531
2235.28675,0.00596
2233.22657,0.00542
2231.16640,0.00489
2229.10623,0.00573
2227.04606,0.00603
2224.98589,0.00504
2222.92571,0.00478
2220.86554,0.00546
2218.80537,0.00543
2216.74520,0.00483
2214.68503,0.00534
2212.62485,0.00613
2210.56468,0.00552
2208.50451,0.00443
2206.44434,0.00388
2204.38417,0.00369
2202.32399,0.00383
2200.26382,0.00444
2198.20365,0.00520
2196.14348,0.00536
2194.08330,0.00457
2192.02313,0.00382
2189.96296,0.00407
2187.90279,0.00462
2185.84262,0.00497
2183.78244,0.00475
2181.72227,0.00380
2179.66210,0.00312
2177.60193,0.00293
2175.54176,0.00317
2173.48158,0.00403
2171.42141,0.00494
2169.36124,0.00544
2167.30107,0.00542
2165.24089,0.00476
2163.18072,0.00427
2161.12055,0.00413
2159.06038,0.00396
2157.00021,0.00468
2154.94003,0.00421
2152.87986,0.00255
2150.81969,0.00263
2148.75952,0.00289
2146.69935,0.00221
2144.63917,0.00202
2142.57900,0.00187
2140.51883,0.00113
2138.45866,0.00085
2136.39849,0.00158
2134.33831,0.00251
2132.27814,0.00292
2130.21797,0.00301
2128.15780,0.00297
2126.09762,0.00275
2124.03745,0.00287
2121.97728,0.00355
2119.91711,0.00435
2117.85694,0.00471
2115.79676,0.00409
2113.73659,0.00326
2111.67642,0.00322
2109.61625,0.00349
2107.55608,0.00394
2105.49590,0.00460
2103.43573,0.00475
2101.37556,0.00456
2099.31539,0.00419
2097.25521,0.00362
2095.19504,0.00355
2093.13487,0.00423
2091.07470,0.00516
2089.01453,0.00526
2086.95435,0.00431
2084.89418,0.00337
2082.83401,0.00274
2080.77384,0.00237
2078.71367,0.00272
2076.65349,0.00339
2074.59332,0.00351
2072.53315,0.00351
2070.47298,0.00361
2068.41281,0.00373
2066.35263,0.00408
2064.29246,0.00409
2062.23229,0.00387
2060.17212,0.00398
2058.11194,0.00387
2056.05177,0.00335
2053.99160,0.00264
2051.93143,0.00205
2049.87126,0.00203
2047.81108,0.00233
2045.75091,0.00277
2043.69074,0.00320
2041.63057,0.00269
2039.57040,0.00188
2037.51022,0.00241
2035.45005,0.00334
2033.38988,0.00311
2031.32971,0.00258
2029.26954,0.00224
2027.20936,0.00180
2025.14919,0.00221
2023.08902,0.00289
2021.02885,0.00264
2018.96867,0.00215
2016.90850,0.00183
2014.84833,0.00134
2012.78816,0.00095
2010.72799,0.00127
2008.66781,0.00203
2006.60764,0.00212
2004.54747,0.00175
2002.48730,0.00221
2000.42713,0.00383
1998.36695,0.00509
1996.30678,0.00436
1994.24661,0.00281
1992.18644,0.00244
1990.12626,0.00286
1988.06609,0.00331
1986.00592,0.00377
1983.94575,0.00337
1981.88558,0.00251
1979.82540,0.00269
1977.76523,0.00295
1975.70506,0.00174
1973.64489,0.00061
1971.58472,0.00100
1969.52454,0.00175
1967.46437,0.00162
1965.40420,0.00066
1963.34403,0.00000
1961.28386,0.00034
1959.22368,0.00154
1957.16351,0.00320
1955.10334,0.00374
1953.04317,0.00227
1950.98299,0.00089
1948.92282,0.00114
1946.86265,0.00175
1944.80248,0.00190
1942.74231,0.00219
1940.68213,0.00274
1938.62196,0.00329
1936.56179,0.00355
1934.50162,0.00333
1932.44145,0.00285
1930.38127,0.00281
1928.32110,0.00310
1926.26093,0.00307
1924.20076,0.00296
1922.14059,0.00328
1920.08041,0.00373
1918.02024,0.00371
1915.96007,0.00322
1913.89990,0.00279
1911.83972,0.00273
1909.77955,0.00297
1907.71938,0.00319
1905.65921,0.00337
1903.59904,0.00380
1901.53886,0.00419
1899.47869,0.00414
1897.41852,0.00363
1895.35835,0.00302
1893.29818,0.00285
1891.23800,0.00299
1889.17783,0.00288
1887.11766,0.00234
1885.05749,0.00193
1882.99731,0.00233
1880.93714,0.00321
1878.87697,0.00383
1876.81680,0.00415
1874.75663,0.00416
1872.69645,0.00364
1870.63628,0.00285
1868.57611,0.00256
1866.51594,0.00286
1864.45577,0.00314
1862.39559,0.00311
1860.33542,0.00284
1858.27525,0.00255
1856.21508,0.00241
1854.15491,0.00245
1852.09473,0.00267
1850.03456,0.00304
1847.97439,0.00339
1845.91422,0.00347
1843.85404,0.00333
1841.79387,0.00329
1839.73370,0.00329
1837.67353,0.00331
1835.61336,0.00351
1833.55318,0.00386
1831.49301,0.00403
1829.43284,0.00380
1827.37267,0.00353
1825.31250,0.00359
1823.25232,0.00362
1821.19215,0.00339
1819.13198,0.00318
1817.07181,0.00313
1815.01163,0.00312
1812.95146,0.00311
1810.89129,0.00314
1808.83112,0.00321
1806.77095,0.00332
1804.71077,0.00343
1802.65060,0.00353
1800.59043,0.00354
1798.53026,0.00348
1796.47009,0.00346
1794.40991,0.00354
1792.34974,0.00378
1790.28957,0.00386
1788.22940,0.00348
1786.16923,0.00303
1784.10905,0.00305
1782.04888,0.00353
1779.98871,0.00387
1777.92854,0.00368
1775.86836,0.00332
1773.80819,0.00327
1771.74802,0.00350
1769.68785,0.00363
1767.62768,0.00355
1765.56750,0.00336
1763.50733,0.00326
1761.44716,0.00344
1759.38699,0.00377
1757.32682,0.00394
1755.26664,0.00384
1753.20647,0.00370
1751.14630,0.00396
1749.08613,0.00455
1747.02596,0.00478
1744.96578,0.00460
1742.90561,0.00445
1740.84544,0.00451
1738.78527,0.00457
1736.72509,0.00467
1734.66492,0.00505
1732.60475,0.00536
1730.54458,0.00514
1728.48441,0.00470
1726.42423,0.00444
1724.36406,0.00445
1722.30389,0.00457
1720.24372,0.00468
1718.18355,0.00492
1716.12337,0.00523
1714.06320,0.00541
1712.00303,0.00552
1709.94286,0.00561
1707.88268,0.00570
1705.82251,0.00586
1703.76234,0.00606
1701.70217,0.00622
1699.64200,0.00630
1697.58182,0.00631
1695.52165,0.00636
1693.46148,0.00654
1691.40131,0.00683
1689.34114,0.00705
1687.28096,0.00705
1685.22079,0.00722
1683.16062,0.00772
1681.10045,0.00792
1679.04028,0.00785
1676.98010,0.00793
1674.91993,0.00833
1672.85976,0.00874
1670.79959,0.00893
1668.73941,0.00890
1666.67924,0.00877
1664.61907,0.00883
1662.55890,0.00909
1660.49873,0.00919
1658.43855,0.00911
1656.37838,0.00930
1654.31821,0.00998
1652.25804,0.01050
1650.19787,0.01035
1648.13769,0.00998
1646.07752,0.00963
1644.01735,0.00939
1641.95718,0.00930
1639.89701,0.00926
1637.83683,0.00936
1635.77666,0.00947
1633.71649,0.00924
1631.65632,0.00889
1629.59614,0.00865
1627.53597,0.00843
1625.47580,0.00820
1623.41563,0.00805
1621.35546,0.00799
1619.29528,0.00791
1617.23511,0.00783
1615.17494,0.00777
1613.11477,0.00767
1611.05460,0.00763
1608.99442,0.00763
1606.93425,0.00745
1604.87408,0.00706
1602.81391,0.00673
1600.75373,0.00653
1598.69356,0.00638
1596.63339,0.00636
1594.57322,0.00645
1592.51305,0.00636
1590.45287,0.00601
1588.39270,0.00563
1586.33253,0.00543
1584.27236,0.00536
1582.21219,0.00522
1580.15201,0.00502
1578.09184,0.00490
1576.03167,0.00492
1573.97150,0.00496
1571.91133,0.00504
1569.85115,0.00515
1567.79098,0.00513
1565.73081,0.00491
1563.67064,0.00463
1561.61046,0.00459
1559.55029,0.00502
1557.49012,0.00523
1555.42995,0.00474
1553.36978,0.00422
1551.30960,0.00401
1549.24943,0.00396
1547.18926,0.00389
1545.12909,0.00374
1543.06892,0.00354
1541.00874,0.00352
1538.94857,0.00361
1536.88840,0.00357
1534.82823,0.00357
1532.76805,0.00358
1530.70788,0.00345
1528.64771,0.00333
1526.58754,0.00319
1524.52737,0.00303
1522.46719,0.00304
1520.40702,0.00314
1518.34685,0.00320
1516.28668,0.00323
1514.22651,0.00319
1512.16633,0.00315
1510.10616,0.00334
1508.04599,0.00369
1505.98582,0.00353
1503.92565,0.00295
1501.86547,0.00269
1499.80530,0.00278
1497.74513,0.00286
1495.68496,0.00274
1493.62478,0.00256
1491.56461,0.00252
1489.50444,0.00253
1487.44427,0.00242
1485.38410,0.00234
1483.32392,0.00239
1481.26375,0.00247
1479.20358,0.00246
1477.14341,0.00239
1475.08324,0.00237
1473.02306,0.00230
1470.96289,0.00198
1468.90272,0.00173
1466.84255,0.00187
1464.78238,0.00223
1462.72220,0.00239
1460.66203,0.00255
1458.60186,0.00297
1456.54169,0.00318
1454.48151,0.00276
1452.42134,0.00227
1450.36117,0.00214
1448.30100,0.00228
1446.24083,0.00234
1444.18065,0.00222
1442.12048,0.00202
1440.06031,0.00181
1438.00014,0.00173
1435.93997,0.00182
1433.87979,0.00188
1431.81962,0.00186
1429.75945,0.00188
1427.69928,0.00197
1425.63910,0.00210
1423.57893,0.00224
1421.51876,0.00239
1419.45859,0.00262
1417.39842,0.00270
1415.33824,0.00249
1413.27807,0.00229
1411.21790,0.00216
1409.15773,0.00202
1407.09756,0.00195
1405.03738,0.00189
1402.97721,0.00178
1400.91704,0.00181
1398.85687,0.00204
1396.79670,0.00217
1394.73652,0.00208
1392.67635,0.00186
1390.61618,0.00167
1388.55601,0.00149
1386.49583,0.00130
1384.43566,0.00125
1382.37549,0.00139
1380.31532,0.00153
1378.25515,0.00156
1376.19497,0.00160
1374.13480,0.00164
1372.07463,0.00159
1370.01446,0.00158
1367.95429,0.00167
1365.89411,0.00180
1363.83394,0.00194
1361.77377,0.00198
1359.71360,0.00179
1357.65343,0.00148
1355.59325,0.00129
1353.53308,0.00130
1351.47291,0.00133
1349.41274,0.00123
1347.35256,0.00105
1345.29239,0.00096
1343.23222,0.00107
1341.17205,0.00130
1339.11188,0.00146
1337.05170,0.00141
1334.99153,0.00117
1332.93136,0.00089
1330.87119,0.00076
1328.81102,0.00081
1326.75084,0.00091
1324.69067,0.00100
1322.63050,0.00109
1320.57033,0.00119
1318.51015,0.00128
1316.44998,0.00128
1314.38981,0.00125
1312.32964,0.00117
1310.26947,0.00106
1308.20929,0.00106
1306.14912,0.00126
1304.08895,0.00145
1302.02878,0.00143
1299.96861,0.00138
1297.90843,0.00146
1295.84826,0.00152
1293.78809,0.00149
1291.72792,0.00155
1289.66775,0.00176
1287.60757,0.00191
1285.54740,0.00183
1283.48723,0.00157
1281.42706,0.00137
1279.36688,0.00136
1277.30671,0.00145
1275.24654,0.00151
1273.18637,0.00151
1271.12620,0.00136
1269.06602,0.00126
1267.00585,0.00136
1264.94568,0.00140
1262.88551,0.00136
1260.82534,0.00144
1258.76516,0.00148
1256.70499,0.00140
1254.64482,0.00139
1252.58465,0.00150
1250.52447,0.00154
1248.46430,0.00154
1246.40413,0.00160
1244.34396,0.00157
1242.28379,0.00144
1240.22361,0.00126
1238.16344,0.00107
1236.10327,0.00105
1234.04310,0.00118
1231.98293,0.00120
1229.92275,0.00100
1227.86258,0.00076
1225.80241,0.00067
1223.74224,0.00068
1221.68207,0.00066
1219.62189,0.00058
1217.56172,0.00044
1215.50155,0.00026
1213.44138,0.00017
1211.38120,0.00021
1209.32103,0.00014
1207.26086,0.00000
1205.20069,0.00007
1203.14052,0.00026
1201.08034,0.00031
1199.02017,0.00026
1196.96000,0.00025
1194.89983,0.00028
1192.83966,0.00036
1190.77948,0.00053
1188.71931,0.00071
1186.65914,0.00084
1184.59897,0.00110
1182.53880,0.00147
1180.47862,0.00174
1178.41845,0.00201
1176.35828,0.00248
1174.29811,0.00292
1172.23793,0.00316
1170.17776,0.00345
1168.11759,0.00387
1166.05742,0.00422
1163.99725,0.00445
1161.93707,0.00479
1159.87690,0.00532
1157.81673,0.00586
1155.75656,0.00625
1153.69639,0.00645
1151.63621,0.00659
1149.57604,0.00692
1147.51587,0.00744
1145.45570,0.00795
1143.39552,0.00840
1141.33535,0.00888
1139.27518,0.00931
1137.21501,0.00957
1135.15484,0.00985
1133.09466,0.01051
1131.03449,0.01144
1128.97432,0.01211
1126.91415,0.01245
1124.85398,0.01291
1122.79380,0.01354
1120.73363,0.01412
1118.67346,0.01477
1116.61329,0.01568
1114.55312,0.01654
1112.49294,0.01703
1110.43277,0.01736
1108.37260,0.01787
1106.31243,0.01846
1104.25225,0.01901
1102.19208,0.01963
1100.13191,0.02028
1098.07174,0.02087
1096.01157,0.02148
1093.95139,0.02210
1091.89122,0.02258
1089.83105,0.02307
1087.77088,0.02368
1085.71071,0.02418
1083.65053,0.02446
1081.59036,0.02477
1079.53019,0.02530
1077.47002,0.02588
1075.40985,0.02625
1073.34967,0.02643
1071.28950,0.02669
1069.22933,0.02696
1067.16916,0.02699
1065.10898,0.02700
1063.04881,0.02723
1060.98864,0.02742
1058.92847,0.02716
1056.86830,0.02658
1054.80812,0.02615
1052.74795,0.02593
1050.68778,0.02560
1048.62761,0.02511
1046.56744,0.02459
1044.50726,0.02406
1042.44709,0.02350
1040.38692,0.02288
1038.32675,0.02225
1036.26657,0.02189
1034.20640,0.02151
1032.14623,0.02058
1030.08606,0.01948
1028.02589,0.01882
1025.96571,0.01857
1023.90554,0.01821
1021.84537,0.01751
1019.78520,0.01684
1017.72503,0.01646
1015.66485,0.01624
1013.60468,0.01608
1011.54451,0.01592
1009.48434,0.01595
1007.42417,0.01620
1005.36399,0.01626
1003.30382,0.01619
1001.24365,0.01630
999.18348,0.01660
997.12330,0.01686
995.06313,0.01727
993.00296,0.01799
990.94279,0.01863
988.88262,0.01906
986.82244,0.01936
984.76227,0.01949
982.70210,0.01956
980.64193,0.01956
978.58176,0.01944
976.52158,0.01942
974.46141,0.01942
972.40124,0.01899
970.34107,0.01821
968.28089,0.01741
966.22072,0.01673
964.16055,0.01614
962.10038,0.01553
960.04021,0.01493
957.98003,0.01437
955.91986,0.01377
953.85969,0.01333
951.79952,0.01304
949.73935,0.01268
947.67917,0.01228
945.61900,0.01196
943.55883,0.01184
941.49866,0.01191
939.43849,0.01199
937.37831,0.01194
935.31814,0.01160
933.25797,0.01106
931.19780,0.01069
929.13762,0.01058
927.07745,0.01078
925.01728,0.01112
922.95711,0.01119
920.89694,0.01093
918.83676,0.01049
916.77659,0.01000
914.71642,0.00970
912.65625,0.00954
910.59608,0.00934
908.53590,0.00915
906.47573,0.00911
904.41556,0.00913
902.35539,0.00907
900.29522,0.00906
898.23504,0.00917
896.17487,0.00928
894.11470,0.00924
892.05453,0.00927
889.99435,0.00958
887.93418,0.00977
885.87401,0.00959
883.81384,0.00962
881.75367,0.01000
879.69349,0.01022
877.63332,0.01029
875.57315,0.01053
873.51298,0.01081
871.45281,0.01073
869.39263,0.01050
867.33246,0.01084
865.27229,0.01136
863.21212,0.01133
861.15194,0.01132
859.09177,0.01149
857.03160,0.01147
854.97143,0.01151
852.91126,0.01170
850.85108,0.01184
848.79091,0.01183
846.73074,0.01141
844.67057,0.01078
842.61040,0.01039
840.55022,0.01006
838.49005,0.00962
836.42988,0.00908
834.36971,0.00828
832.30954,0.00758
830.24936,0.00745
828.18919,0.00773
826.12902,0.00777
824.06885,0.00734
822.00867,0.00683
819.94850,0.00660
817.88833,0.00676
815.82816,0.00708
813.76799,0.00695
811.70781,0.00632
809.64764,0.00583
807.58747,0.00568
805.52730,0.00564
803.46713,0.00549
801.40695,0.00518
799.34678,0.00491
797.28661,0.00475
795.22644,0.00443
793.16627,0.00384
791.10609,0.00358
789.04592,0.00414
786.98575,0.00497
784.92558,0.00540
782.86540,0.00531
780.80523,0.00498
778.74506,0.00475
776.68489,0.00489
774.62472,0.00499
772.56454,0.00446
770.50437,0.00353
768.44420,0.00320
766.38403,0.00361
764.32386,0.00375
762.26368,0.00354
760.20351,0.00360
758.14334,0.00395
756.08317,0.00424
754.02299,0.00406
751.96282,0.00356
749.90265,0.00326
747.84248,0.00340
745.78231,0.00386
743.72213,0.00410
741.66196,0.00342
739.60179,0.00231
737.54162,0.00170
735.48145,0.00145
733.42127,0.00141
731.36110,0.00162
729.30093,0.00198
727.24076,0.00218
725.18059,0.00217
723.12041,0.00229
721.06024,0.00199
719.00007,0.00195
716.93990,0.00215
714.87972,0.00211
712.81955,0.00186
710.75938,0.00190
708.69921,0.00246
706.63904,0.00304
704.57886,0.00306
702.51869,0.00274
700.45852,0.00276
698.39835,0.00294
696.33818,0.00285
694.27800,0.00294
692.21783,0.00337
690.15766,0.00342
688.09749,0.00279
686.03731,0.00211
683.97714,0.00197
681.91697,0.00206
679.85680,0.00204
677.79663,0.00229
675.73645,0.00261
673.67628,0.00267
671.61611,0.00285
669.55594,0.00200
667.49577,0.00176
665.43559,0.00477
663.37542,0.00376
661.31525,0.00211
659.25508,0.00145
657.19491,0.00185
655.13473,0.00311
653.07456,0.00418
651.01439,0.00396
648.95422,0.00295
646.89404,0.00266
644.83387,0.00285
642.77370,0.00262
640.71353,0.00231
638.65336,0.00312
636.59318,0.00441
634.53301,0.00468
632.47284,0.00392
630.41267,0.00286
628.35250,0.00268
626.29232,0.00454
624.23215,0.00653
622.17198,0.00547
620.11181,0.00342
618.05164,0.00250
615.99146,0.00120
613.93129,0.00000
611.87112,-0.00017
609.81095,0.00098
607.75077,0.00202
605.69060,0.00217
603.63043,0.00189
601.57026,0.00116
599.51009,0.00000
