3996.73391,0.00053
3994.67373,0.00017
3992.61356,0.00016
3990.55339,0.00030
3988.49322,0.00034
3986.43305,0.00033
3984.37287,0.00048
3982.31270,0.00072
3980.25253,0.00054
3978.19236,0.00008
3976.13219,0.00000
3974.07201,0.00031
3972.01184,0.00063
3969.95167,0.00085
3967.89150,0.00082
3965.83133,0.00059
3963.77115,0.00041
3961.71098,0.00046
3959.65081,0.00079
3957.59064,0.00112
3955.53046,0.00113
3953.47029,0.00098
3951.41012,0.00102
3949.34995,0.00123
3947.28978,0.00134
3945.22960,0.00127
3943.16943,0.00113
3941.10926,0.00093
3939.04909,0.00062
3936.98892,0.00037
3934.92874,0.00031
3932.86857,0.00042
3930.80840,0.00066
3928.74823,0.00097
3926.68805,0.00111
3924.62788,0.00082
3922.56771,0.00029
3920.50754,0.00010
3918.44737,0.00034
3916.38719,0.00059
3914.32702,0.00066
3912.26685,0.00078
3910.20668,0.00100
3908.14651,0.00113
3906.08633,0.00116
3904.02616,0.00127
3901.96599,0.00132
3899.90582,0.00115
3897.84565,0.00104
3895.78547,0.00107
3893.72530,0.00107
3891.66513,0.00102
3889.60496,0.00103
3887.54478,0.00111
3885.48461,0.00129
3883.42444,0.00148
3881.36427,0.00146
3879.30410,0.00132
3877.24392,0.00134
3875.18375,0.00143
3873.12358,0.00120
3871.06341,0.00070
3869.00324,0.00047
3866.94306,0.00063
3864.88289,0.00084
3862.82272,0.00096
3860.76255,0.00105
3858.70237,0.00115
3856.64220,0.00131
3854.58203,0.00133
3852.52186,0.00099
3850.46169,0.00073
3848.40151,0.00092
3846.34134,0.00130
3844.28117,0.00154
3842.22100,0.00159
3840.16083,0.00148
3838.10065,0.00107
3836.04048,0.00055
3833.98031,0.00029
3831.92014,0.00024
3829.85997,0.00013
3827.79979,0.00004
3825.73962,0.00030
3823.67945,0.00092
3821.61928,0.00150
3819.55910,0.00162
3817.49893,0.00122
3815.43876,0.00075
3813.37859,0.00057
3811.31842,0.00053
3809.25824,0.00040
3807.19807,0.00022
3805.13790,0.00021
3803.07773,0.00041
3801.01756,0.00060
3798.95738,0.00062
3796.89721,0.00037
3794.83704,0.00011
3792.77687,0.00022
3790.71670,0.00063
3788.65652,0.00110
3786.59635,0.00151
3784.53618,0.00173
3782.47601,0.00163
3780.41583,0.00145
3778.35566,0.00149
3776.29549,0.00157
3774.23532,0.00146
3772.17515,0.00123
3770.11497,0.00099
3768.05480,0.00097
3765.99463,0.00123
3763.93446,0.00138
3761.87429,0.00109
3759.81411,0.00078
3757.75394,0.00094
3755.69377,0.00130
3753.63360,0.00152
3751.57342,0.00139
3749.51325,0.00080
3747.45308,0.00030
3745.39291,0.00056
3743.33274,0.00134
3741.27256,0.00160
3739.21239,0.00096
3737.15222,0.00016
3735.09205,0.00021
3733.03188,0.00073
3730.97170,0.00085
3728.91153,0.00082
3726.85136,0.00102
3724.79119,0.00130
3722.73102,0.00147
3720.67084,0.00161
3718.61067,0.00162
3716.55050,0.00131
3714.49033,0.00074
3712.43015,0.00019
3710.36998,0.00006
3708.30981,0.00040
3706.24964,0.00094
3704.18947,0.00142
3702.12929,0.00177
3700.06912,0.00196
3698.00895,0.00220
3695.94878,0.00252
3693.88861,0.00253
3691.82843,0.00221
3689.76826,0.00174
3687.70809,0.00139
3685.64792,0.00136
3683.58775,0.00153
3681.52757,0.00178
3679.46740,0.00209
3677.40723,0.00228
3675.34706,0.00204
3673.28688,0.00143
3671.22671,0.00110
3669.16654,0.00160
3667.10637,0.00247
3665.04620,0.00284
3662.98602,0.00290
3660.92585,0.00321
3658.86568,0.00356
3656.80551,0.00371
3654.74534,0.00388
3652.68516,0.00411
3650.62499,0.00445
3648.56482,0.00500
3646.50465,0.00532
3644.44447,0.00537
3642.38430,0.00557
3640.32413,0.00593
3638.26396,0.00613
3636.20379,0.00625
3634.14361,0.00654
3632.08344,0.00695
3630.02327,0.00747
3627.96310,0.00809
3625.90293,0.00839
3623.84275,0.00857
3621.78258,0.00878
3619.72241,0.00875
3617.66224,0.00877
3615.60207,0.00932
3613.54189,0.01010
3611.48172,0.01060
3609.42155,0.01068
3607.36138,0.01061
3605.30120,0.01086
3603.24103,0.01139
3601.18086,0.01191
3599.12069,0.01237
3597.06052,0.01274
3595.00034,0.01312
3592.94017,0.01365
3590.88000,0.01411
3588.81983,0.01426
3586.75966,0.01427
3584.69948,0.01451
3582.63931,0.01501
3580.57914,0.01556
3578.51897,0.01617
3576.45879,0.01678
3574.39862,0.01701
3572.33845,0.01706
3570.27828,0.01749
3568.21811,0.01819
3566.15793,0.01866
3564.09776,0.01870
3562.03759,0.01873
3559.97742,0.01919
3557.91725,0.01990
3555.85707,0.02041
3553.79690,0.02056
3551.73673,0.02053
3549.67656,0.02066
3547.61639,0.02106
3545.55621,0.02154
3543.49604,0.02202
3541.43587,0.02251
3539.37570,0.02285
3537.31552,0.02297
3535.25535,0.02322
3533.19518,0.02388
3531.13501,0.02466
3529.07484,0.02510
3527.01466,0.02521
3524.95449,0.02541
3522.89432,0.02586
3520.83415,0.02640
3518.77398,0.02672
3516.71380,0.02684
3514.65363,0.02709
3512.59346,0.02752
3510.53329,0.02793
3508.47312,0.02825
3506.41294,0.02847
3504.35277,0.02853
3502.29260,0.02872
3500.23243,0.02931
3498.17225,0.02995
3496.11208,0.03022
3494.05191,0.03029
3491.99174,0.03055
3489.93157,0.03096
3487.87139,0.03128
3485.81122,0.03181
3483.75105,0.03257
3481.69088,0.03295
3479.63071,0.03276
3477.57053,0.03265
3475.51036,0.03307
3473.45019,0.03381
3471.39002,0.03445
3469.32984,0.03481
3467.26967,0.03496
3465.20950,0.03485
3463.14933,0.03465
3461.08916,0.03472
3459.02898,0.03498
3456.96881,0.03527
3454.90864,0.03562
3452.84847,0.03598
3450.78830,0.03620
3448.72812,0.03621
3446.66795,0.03627
3444.60778,0.03664
3442.54761,0.03718
3440.48744,0.03762
3438.42726,0.03785
3436.36709,0.03785
3434.30692,0.03783
3432.24675,0.03800
3430.18657,0.03833
3428.12640,0.03873
3426.06623,0.03897
3424.00606,0.03905
3421.94589,0.03916
3419.88571,0.03928
3417.82554,0.03931
3415.76537,0.03929
3413.70520,0.03937
3411.64503,0.03957
3409.58485,0.03976
3407.52468,0.03997
3405.46451,0.04027
3403.40434,0.04040
3401.34416,0.04046
3399.28399,0.04080
3397.22382,0.04108
3395.16365,0.04121
3393.10348,0.04147
3391.04330,0.04181
3388.98313,0.04202
3386.92296,0.04198
3384.86279,0.04186
3382.80262,0.04197
3380.74244,0.04216
3378.68227,0.04218
3376.62210,0.04206
3374.56193,0.04210
3372.50176,0.04234
3370.44158,0.04242
3368.38141,0.04230
3366.32124,0.04233
3364.26107,0.04250
3362.20089,0.04261
3360.14072,0.04277
3358.08055,0.04304
3356.02038,0.04329
3353.96021,0.04332
3351.90003,0.04321
3349.83986,0.04307
3347.77969,0.04283
3345.71952,0.04269
3343.65935,0.04279
3341.59917,0.04285
3339.53900,0.04275
3337.47883,0.04263
3335.41866,0.04260
3333.35849,0.04274
3331.29831,0.04306
3329.23814,0.04342
3327.17797,0.04369
3325.11780,0.04387
3323.05762,0.04395
3320.99745,0.04383
3318.93728,0.04363
3316.87711,0.04346
3314.81694,0.04340
3312.75676,0.04350
3310.69659,0.04358
3308.63642,0.04363
3306.57625,0.04375
3304.51608,0.04372
3302.45590,0.04358
3300.39573,0.04383
3298.33556,0.04424
3296.27539,0.04406
3294.21521,0.04348
3292.15504,0.04338
3290.09487,0.04377
3288.03470,0.04419
3285.97453,0.04440
3283.91435,0.04432
3281.85418,0.04402
3279.79401,0.04363
3277.73384,0.04330
3275.67367,0.04315
3273.61349,0.04319
3271.55332,0.04342
3269.49315,0.04375
3267.43298,0.04391
3265.37281,0.04389
3263.31263,0.04385
3261.25246,0.04378
3259.19229,0.04361
3257.13212,0.04357
3255.07194,0.04377
3253.01177,0.04400
3250.95160,0.04417
3248.89143,0.04413
3246.83126,0.04386
3244.77108,0.04378
3242.71091,0.04390
3240.65074,0.04393
3238.59057,0.04386
3236.53040,0.04375
3234.47022,0.04364
3232.41005,0.04357
3230.34988,0.04351
3228.28971,0.04335
3226.22954,0.04326
3224.16936,0.04336
3222.10919,0.04334
3220.04902,0.04317
3217.98885,0.04311
3215.92867,0.04311
3213.86850,0.04305
3211.80833,0.04305
3209.74816,0.04301
3207.68799,0.04286
3205.62781,0.04269
3203.56764,0.04261
3201.50747,0.04260
3199.44730,0.04246
3197.38713,0.04220
3195.32695,0.04206
3193.26678,0.04207
3191.20661,0.04193
3189.14644,0.04173
3187.08626,0.04178
3185.02609,0.04175
3182.96592,0.04141
3180.90575,0.04111
3178.84558,0.04083
3176.78540,0.04056
3174.72523,0.04048
3172.66506,0.04048
3170.60489,0.04050
3168.54472,0.04059
3166.48454,0.04058
3164.42437,0.04045
3162.36420,0.04034
3160.30403,0.04028
3158.24386,0.04030
3156.18368,0.04027
3154.12351,0.03999
3152.06334,0.03959
3150.00317,0.03934
3147.94299,0.03934
3145.88282,0.03942
3143.82265,0.03930
3141.76248,0.03898
3139.70231,0.03868
3137.64213,0.03860
3135.58196,0.03858
3133.52179,0.03847
3131.46162,0.03838
3129.40145,0.03834
3127.34127,0.03820
3125.28110,0.03788
3123.22093,0.03740
3121.16076,0.03702
3119.10058,0.03689
3117.04041,0.03677
3114.98024,0.03656
3112.92007,0.03629
3110.85990,0.03592
3108.79972,0.03566
3106.73955,0.03574
3104.67938,0.03594
3102.61921,0.03585
3100.55904,0.03553
3098.49886,0.03539
3096.43869,0.03530
3094.37852,0.03497
3092.31835,0.03458
3090.25818,0.03437
3088.19800,0.03439
3086.13783,0.03441
3084.07766,0.03418
3082.01749,0.03390
3079.95731,0.03377
3077.89714,0.03365
3075.83697,0.03334
3073.77680,0.03297
3071.71663,0.03271
3069.65645,0.03259
3067.59628,0.03259
3065.53611,0.03253
3063.47594,0.03232
3061.41577,0.03198
3059.35559,0.03159
3057.29542,0.03128
3055.23525,0.03120
3053.17508,0.03134
3051.11491,0.03136
3049.05473,0.03106
3046.99456,0.03061
3044.93439,0.03024
3042.87422,0.03004
3040.81404,0.02992
3038.75387,0.02976
3036.69370,0.02962
3034.63353,0.02952
3032.57336,0.02929
3030.51318,0.02900
3028.45301,0.02880
3026.39284,0.02863
3024.33267,0.02844
3022.27250,0.02814
3020.21232,0.02773
3018.15215,0.02745
3016.09198,0.02757
3014.03181,0.02782
3011.97163,0.02766
3009.91146,0.02717
3007.85129,0.02685
3005.79112,0.02684
3003.73095,0.02682
3001.67077,0.02658
2999.61060,0.02635
2997.55043,0.02623
2995.49026,0.02613
2993.43009,0.02606
2991.36991,0.02594
2989.30974,0.02558
2987.24957,0.02519
2985.18940,0.02506
2983.12923,0.02503
2981.06905,0.02489
2979.00888,0.02460
2976.94871,0.02428
2974.88854,0.02426
2972.82836,0.02448
2970.76819,0.02455
2968.70802,0.02437
2966.64785,0.02421
2964.58768,0.02407
2962.52750,0.02384
2960.46733,0.02386
2958.40716,0.02415
2956.34699,0.02425
2954.28682,0.02422
2952.22664,0.02417
2950.16647,0.02398
2948.10630,0.02370
2946.04613,0.02350
2943.98596,0.02360
2941.92578,0.02390
2939.86561,0.02408
2937.80544,0.02410
2935.74527,0.02403
2933.68509,0.02383
2931.62492,0.02372
2929.56475,0.02386
2927.50458,0.02382
2925.44441,0.02331
2923.38423,0.02278
2921.32406,0.02257
2919.26389,0.02254
2917.20372,0.02257
2915.14355,0.02256
2913.08337,0.02239
2911.02320,0.02223
2908.96303,0.02211
2906.90286,0.02196
2904.84268,0.02186
2902.78251,0.02183
2900.72234,0.02177
2898.66217,0.02160
2896.60200,0.02153
2894.54182,0.02154
2892.48165,0.02129
2890.42148,0.02096
2888.36131,0.02080
2886.30114,0.02074
2884.24096,0.02071
2882.18079,0.02074
2880.12062,0.02072
2878.06045,0.02051
2876.00028,0.02020
2873.94010,0.02017
2871.87993,0.02044
2869.81976,0.02051
2867.75959,0.02022
2865.69941,0.01987
2863.63924,0.01971
2861.57907,0.01968
2859.51890,0.01967
2857.45873,0.01969
2855.39855,0.01970
2853.33838,0.01959
2851.27821,0.01935
2849.21804,0.01916
2847.15787,0.01901
2845.09769,0.01870
2843.03752,0.01837
2840.97735,0.01828
2838.91718,0.01831
2836.85700,0.01818
2834.79683,0.01798
2832.73666,0.01780
2830.67649,0.01759
2828.61632,0.01743
2826.55614,0.01739
2824.49597,0.01738
2822.43580,0.01724
2820.37563,0.01704
2818.31546,0.01687
2816.25528,0.01668
2814.19511,0.01662
2812.13494,0.01674
2810.07477,0.01672
2808.01460,0.01654
2805.95442,0.01647
2803.89425,0.01663
2801.83408,0.01675
2799.77391,0.01648
2797.71373,0.01619
2795.65356,0.01616
2793.59339,0.01607
2791.53322,0.01592
2789.47305,0.01584
2787.41287,0.01572
2785.35270,0.01550
2783.29253,0.01533
2781.23236,0.01531
2779.17219,0.01528
2777.11201,0.01521
2775.05184,0.01513
2772.99167,0.01503
2770.93150,0.01501
2768.87133,0.01502
2766.81115,0.01490
2764.75098,0.01477
2762.69081,0.01481
2760.63064,0.01485
2758.57046,0.01465
2756.51029,0.01427
2754.45012,0.01403
2752.38995,0.01399
2750.32978,0.01393
2748.26960,0.01393
2746.20943,0.01416
2744.14926,0.01427
2742.08909,0.01402
2740.02892,0.01388
2737.96874,0.01392
2735.90857,0.01380
2733.84840,0.01359
2731.78823,0.01341
2729.72805,0.01326
2727.66788,0.01319
2725.60771,0.01314
2723.54754,0.01306
2721.48737,0.01297
2719.42719,0.01292
2717.36702,0.01283
2715.30685,0.01271
2713.24668,0.01270
2711.18651,0.01269
2709.12633,0.01256
2707.06616,0.01228
2705.00599,0.01215
2702.94582,0.01236
2700.88565,0.01266
2698.82547,0.01269
2696.76530,0.01237
2694.70513,0.01192
2692.64496,0.01173
2690.58478,0.01175
2688.52461,0.01163
2686.46444,0.01143
2684.40427,0.01133
2682.34410,0.01134
2680.28392,0.01127
2678.22375,0.01105
2676.16358,0.01083
2674.10341,0.01070
2672.04324,0.01061
2669.98306,0.01054
2667.92289,0.01065
2665.86272,0.01088
2663.80255,0.01091
2661.74238,0.01081
2659.68220,0.01071
2657.62203,0.01055
2655.56186,0.01034
2653.50169,0.01013
2651.44151,0.01001
2649.38134,0.01003
2647.32117,0.01005
2645.26100,0.00984
2643.20083,0.00950
2641.14065,0.00918
2639.08048,0.00891
2637.02031,0.00888
2634.96014,0.00915
2632.89997,0.00943
2630.83979,0.00937
2628.77962,0.00918
2626.71945,0.00906
2624.65928,0.00886
2622.59910,0.00864
2620.53893,0.00847
2618.47876,0.00829
2616.41859,0.00812
2614.35842,0.00801
2612.29824,0.00800
2610.23807,0.00814
2608.17790,0.00816
2606.11773,0.00790
2604.05756,0.00763
2601.99738,0.00766
2599.93721,0.00806
2597.87704,0.00821
2595.81687,0.00785
2593.75670,0.00764
2591.69652,0.00782
2589.63635,0.00796
2587.57618,0.00796
2585.51601,0.00786
2583.45583,0.00773
2581.39566,0.00768
2579.33549,0.00758
2577.27532,0.00745
2575.21515,0.00769
2573.15497,0.00822
2571.09480,0.00826
2569.03463,0.00763
2566.97446,0.00701
2564.91429,0.00693
2562.85411,0.00739
2560.79394,0.00776
2558.73377,0.00763
2556.67360,0.00740
2554.61342,0.00736
2552.55325,0.00757
2550.49308,0.00783
2548.43291,0.00762
2546.37274,0.00717
2544.31256,0.00726
2542.25239,0.00764
2540.19222,0.00748
2538.13205,0.00710
2536.07188,0.00717
2534.01170,0.00735
2531.95153,0.00708
2529.89136,0.00675
2527.83119,0.00694
2525.77102,0.00725
2523.71084,0.00732
2521.65067,0.00750
2519.59050,0.00780
2517.53033,0.00773
2515.47015,0.00723
2513.40998,0.00702
2511.34981,0.00731
2509.28964,0.00776
2507.22947,0.00798
2505.16929,0.00783
2503.10912,0.00748
2501.04895,0.00715
2498.98878,0.00694
2496.92861,0.00681
2494.86843,0.00686
2492.80826,0.00709
2490.74809,0.00717
2488.68792,0.00703
2486.62775,0.00697
2484.56757,0.00697
2482.50740,0.00693
2480.44723,0.00715
2478.38706,0.00744
2476.32688,0.00755
2474.26671,0.00773
2472.20654,0.00786
2470.14637,0.00783
2468.08620,0.00785
2466.02602,0.00777
2463.96585,0.00758
2461.90568,0.00770
2459.84551,0.00796
2457.78534,0.00791
2455.72516,0.00769
2453.66499,0.00746
2451.60482,0.00737
2449.54465,0.00758
2447.48447,0.00789
2445.42430,0.00793
2443.36413,0.00769
2441.30396,0.00751
2439.24379,0.00766
2437.18361,0.00804
2435.12344,0.00822
2433.06327,0.00824
2431.00310,0.00812
2428.94293,0.00785
2426.88275,0.00790
2424.82258,0.00828
2422.76241,0.00822
2420.70224,0.00778
2418.64207,0.00747
2416.58189,0.00730
2414.52172,0.00730
2412.46155,0.00741
2410.40138,0.00767
2408.34120,0.00805
2406.28103,0.00816
2404.22086,0.00795
2402.16069,0.00759
2400.10052,0.00736
2398.04034,0.00721
2395.98017,0.00709
2393.92000,0.00698
2391.85983,0.00706
2389.79966,0.00736
2387.73948,0.00768
2385.67931,0.00777
2383.61914,0.00762
2381.55897,0.00748
2379.49880,0.00754
2377.43862,0.00764
2375.37845,0.00730
2373.31828,0.00648
2371.25811,0.00586
2369.19793,0.00614
2367.13776,0.00699
2365.07759,0.00740
2363.01742,0.00682
2360.95725,0.00587
2358.89707,0.00432
2356.83690,0.00427
2354.77673,0.00560
2352.71656,0.00639
2350.65639,0.00710
2348.59621,0.00772
2346.53604,0.00733
2344.47587,0.00795
2342.41570,0.00812
2340.35552,0.00748
2338.29535,0.00677
2336.23518,0.00645
2334.17501,0.00711
2332.11484,0.00785
2330.05466,0.00811
2327.99449,0.00824
2325.93432,0.00871
2323.87415,0.00864
2321.81398,0.00826
2319.75380,0.00786
2317.69363,0.00778
2315.63346,0.00761
2313.57329,0.00765
2311.51312,0.00800
2309.45294,0.00807
2307.39277,0.00783
2305.33260,0.00769
2303.27243,0.00768
2301.21225,0.00739
2299.15208,0.00698
2297.09191,0.00676
2295.03174,0.00666
2292.97157,0.00663
2290.91139,0.00678
2288.85122,0.00712
2286.79105,0.00726
2284.73088,0.00697
2282.67071,0.00656
2280.61053,0.00629
2278.55036,0.00607
2276.49019,0.00604
2274.43002,0.00631
2272.36984,0.00662
2270.30967,0.00673
2268.24950,0.00649
2266.18933,0.00599
2264.12916,0.00560
2262.06898,0.00571
2260.00881,0.00629
2257.94864,0.00676
2255.88847,0.00675
2253.82830,0.00666
2251.76812,0.00698
2249.70795,0.00728
2247.64778,0.00664
2245.58761,0.00535
2243.52744,0.00450
2241.46726,0.00451
2239.40709,0.00491
2237.34692,0.00541
2235.28675,0.00556
2233.22657,0.00518
2231.16640,0.00509
2229.10623,0.00532
2227.04606,0.00555
2224.98589,0.00588
2222.92571,0.00582
2220.86554,0.00504
2218.80537,0.00419
2216.74520,0.00428
2214.68503,0.00516
2212.62485,0.00578
2210.56468,0.00584
2208.50451,0.00581
2206.44434,0.00597
2204.38417,0.00611
2202.32399,0.00591
2200.26382,0.00507
2198.20365,0.00422
2196.14348,0.00418
2194.08330,0.00465
2192.02313,0.00524
2189.96296,0.00553
2187.90279,0.00546
2185.84262,0.00558
2183.78244,0.00603
2181.72227,0.00626
2179.66210,0.00596
2177.60193,0.00506
2175.54176,0.00357
2173.48158,0.00303
2171.42141,0.00346
2169.36124,0.00373
2167.30107,0.00438
2165.24089,0.00454
2163.18072,0.00289
2161.12055,0.00116
2159.06038,0.00113
2157.00021,0.00216
2154.94003,0.00289
2152.87986,0.00302
2150.81969,0.00328
2148.75952,0.00359
2146.69935,0.00359
2144.63917,0.00323
2142.57900,0.00318
2140.51883,0.00387
2138.45866,0.00400
2136.39849,0.00326
2134.33831,0.00295
2132.27814,0.00334
2130.21797,0.00366
2128.15780,0.00397
2126.09762,0.00448
2124.03745,0.00450
2121.97728,0.00384
2119.91711,0.00326
2117.85694,0.00321
2115.79676,0.00359
2113.73659,0.00399
2111.67642,0.00419
2109.61625,0.00412
2107.55608,0.00385
2105.49590,0.00383
2103.43573,0.00395
2101.37556,0.00381
2099.31539,0.00341
2097.25521,0.00273
2095.19504,0.00217
2093.13487,0.00227
2091.07470,0.00271
2089.01453,0.00311
2086.95435,0.00334
2084.89418,0.00329
2082.83401,0.00332
2080.77384,0.00348
2078.71367,0.00342
2076.65349,0.00331
2074.59332,0.00331
2072.53315,0.00315
2070.47298,0.00259
2068.41281,0.00216
2066.35263,0.00234
2064.29246,0.00287
2062.23229,0.00326
2060.17212,0.00356
2058.11194,0.00351
2056.05177,0.00295
2053.99160,0.00272
2051.93143,0.00323
2049.87126,0.00374
2047.81108,0.00402
2045.75091,0.00444
2043.69074,0.00402
2041.63057,0.00237
2039.57040,0.00136
2037.51022,0.00206
2035.45005,0.00320
2033.38988,0.00369
2031.32971,0.00404
2029.26954,0.00464
2027.20936,0.00495
2025.14919,0.00482
2023.08902,0.00476
2021.02885,0.00419
2018.96867,0.00240
2016.90850,0.00054
2014.84833,0.00048
2012.78816,0.00224
2010.72799,0.00369
2008.66781,0.00354
2006.60764,0.00250
2004.54747,0.00166
2002.48730,0.00188
2000.42713,0.00281
1998.36695,0.00314
1996.30678,0.00262
1994.24661,0.00216
1992.18644,0.00203
1990.12626,0.00210
1988.06609,0.00197
1986.00592,0.00146
1983.94575,0.00133
1981.88558,0.00196
1979.82540,0.00277
1977.76523,0.00336
1975.70506,0.00303
1973.64489,0.00162
1971.58472,0.00107
1969.52454,0.00164
1967.46437,0.00208
1965.40420,0.00278
1963.34403,0.00318
1961.28386,0.00200
1959.22368,0.00057
1957.16351,0.00049
1955.10334,0.00107
1953.04317,0.00134
1950.98299,0.00157
1948.92282,0.00188
1946.86265,0.00173
1944.80248,0.00106
1942.74231,0.00060
1940.68213,0.00095
1938.62196,0.00167
1936.56179,0.00206
1934.50162,0.00180
1932.44145,0.00127
1930.38127,0.00116
1928.32110,0.00139
1926.26093,0.00181
1924.20076,0.00238
1922.14059,0.00237
1920.08041,0.00166
1918.02024,0.00091
1915.96007,0.00050
1913.89990,0.00058
1911.83972,0.00099
1909.77955,0.00146
1907.71938,0.00175
1905.65921,0.00165
1903.59904,0.00138
1901.53886,0.00138
1899.47869,0.00161
1897.41852,0.00189
1895.35835,0.00212
1893.29818,0.00200
1891.23800,0.00143
1889.17783,0.00095
1887.11766,0.00093
1885.05749,0.00122
1882.99731,0.00155
1880.93714,0.00164
1878.87697,0.00162
1876.81680,0.00173
1874.75663,0.00183
1872.69645,0.00189
1870.63628,0.00214
1868.57611,0.00236
1866.51594,0.00211
1864.45577,0.00168
1862.39559,0.00158
1860.33542,0.00179
1858.27525,0.00198
1856.21508,0.00187
1854.15491,0.00145
1852.09473,0.00117
1850.03456,0.00139
1847.97439,0.00187
1845.91422,0.00207
1843.85404,0.00187
1841.79387,0.00155
1839.73370,0.00145
1837.67353,0.00154
1835.61336,0.00160
1833.55318,0.00154
1831.49301,0.00142
1829.43284,0.00137
1827.37267,0.00169
1825.31250,0.00223
1823.25232,0.00246
1821.19215,0.00228
1819.13198,0.00203
1817.07181,0.00188
1815.01163,0.00169
1812.95146,0.00140
1810.89129,0.00129
1808.83112,0.00142
1806.77095,0.00146
1804.71077,0.00145
1802.65060,0.00159
1800.59043,0.00177
1798.53026,0.00179
1796.47009,0.00171
1794.40991,0.00178
1792.34974,0.00199
1790.28957,0.00211
1788.22940,0.00205
1786.16923,0.00197
1784.10905,0.00201
1782.04888,0.00211
1779.98871,0.00221
1777.92854,0.00228
1775.86836,0.00221
1773.80819,0.00205
1771.74802,0.00212
1769.68785,0.00242
1767.62768,0.00252
1765.56750,0.00242
1763.50733,0.00246
1761.44716,0.00263
1759.38699,0.00276
1757.32682,0.00291
1755.26664,0.00319
1753.20647,0.00338
1751.14630,0.00334
1749.08613,0.00331
1747.02596,0.00353
1744.96578,0.00385
1742.90561,0.00409
1740.84544,0.00417
1738.78527,0.00418
1736.72509,0.00434
1734.66492,0.00465
1732.60475,0.00489
1730.54458,0.00489
1728.48441,0.00476
1726.42423,0.00475
1724.36406,0.00494
1722.30389,0.00519
1720.24372,0.00526
1718.18355,0.00525
1716.12337,0.00540
1714.06320,0.00571
1712.00303,0.00608
1709.94286,0.00639
1707.88268,0.00651
1705.82251,0.00655
1703.76234,0.00673
1701.70217,0.00695
1699.64200,0.00713
1697.58182,0.00743
1695.52165,0.00799
1693.46148,0.00868
1691.40131,0.00930
1689.34114,0.00979
1687.28096,0.01013
1685.22079,0.01028
1683.16062,0.01039
1681.10045,0.01080
1679.04028,0.01139
1676.98010,0.01201
1674.91993,0.01265
1672.85976,0.01319
1670.79959,0.01348
1668.73941,0.01361
1666.67924,0.01385
1664.61907,0.01417
1662.55890,0.01431
1660.49873,0.01442
1658.43855,0.01475
1656.37838,0.01524
1654.31821,0.01553
1652.25804,0.01550
1650.19787,0.01558
1648.13769,0.01569
1646.07752,0.01559
1644.01735,0.01555
1641.95718,0.01565
1639.89701,0.01581
1637.83683,0.01589
1635.77666,0.01562
1633.71649,0.01521
1631.65632,0.01513
1629.59614,0.01518
1627.53597,0.01503
1625.47580,0.01475
1623.41563,0.01456
1621.35546,0.01450
1619.29528,0.01435
1617.23511,0.01398
1615.17494,0.01362
1613.11477,0.01357
1611.05460,0.01364
1608.99442,0.01357
1606.93425,0.01343
1604.87408,0.01336
1602.81391,0.01322
1600.75373,0.01287
1598.69356,0.01240
1596.63339,0.01195
1594.57322,0.01160
1592.51305,0.01136
1590.45287,0.01110
1588.39270,0.01080
1586.33253,0.01042
1584.27236,0.00998
1582.21219,0.00960
1580.15201,0.00933
1578.09184,0.00890
1576.03167,0.00815
1573.97150,0.00759
1571.91133,0.00745
1569.85115,0.00729
1567.79098,0.00698
1565.73081,0.00679
1563.67064,0.00671
1561.61046,0.00653
1559.55029,0.00600
1557.49012,0.00547
1555.42995,0.00542
1553.36978,0.00547
1551.30960,0.00541
1549.24943,0.00532
1547.18926,0.00524
1545.12909,0.00507
1543.06892,0.00464
1541.00874,0.00412
1538.94857,0.00404
1536.88840,0.00423
1534.82823,0.00428
1532.76805,0.00413
1530.70788,0.00391
1528.64771,0.00373
1526.58754,0.00365
1524.52737,0.00365
1522.46719,0.00351
1520.40702,0.00317
1518.34685,0.00298
1516.28668,0.00302
1514.22651,0.00310
1512.16633,0.00313
1510.10616,0.00300
1508.04599,0.00258
1505.98582,0.00219
1503.92565,0.00224
1501.86547,0.00239
1499.80530,0.00238
1497.74513,0.00227
1495.68496,0.00224
1493.62478,0.00237
1491.56461,0.00251
1489.50444,0.00251
1487.44427,0.00238
1485.38410,0.00228
1483.32392,0.00232
1481.26375,0.00251
1479.20358,0.00274
1477.14341,0.00289
1475.08324,0.00288
1473.02306,0.00279
1470.96289,0.00292
1468.90272,0.00319
1466.84255,0.00333
1464.78238,0.00331
1462.72220,0.00332
1460.66203,0.00358
1458.60186,0.00392
1456.54169,0.00389
1454.48151,0.00359
1452.42134,0.00345
1450.36117,0.00353
1448.30100,0.00361
1446.24083,0.00353
1444.18065,0.00340
1442.12048,0.00332
1440.06031,0.00329
1438.00014,0.00331
1435.93997,0.00341
1433.87979,0.00352
1431.81962,0.00359
1429.75945,0.00370
1427.69928,0.00389
1425.63910,0.00402
1423.57893,0.00405
1421.51876,0.00408
1419.45859,0.00421
1417.39842,0.00445
1415.33824,0.00468
1413.27807,0.00474
1411.21790,0.00467
1409.15773,0.00463
1407.09756,0.00457
1405.03738,0.00432
1402.97721,0.00396
1400.91704,0.00377
1398.85687,0.00380
1396.79670,0.00393
1394.73652,0.00408
1392.67635,0.00416
1390.61618,0.00414
1388.55601,0.00414
1386.49583,0.00413
1384.43566,0.00396
1382.37549,0.00379
1380.31532,0.00385
1378.25515,0.00408
1376.19497,0.00421
1374.13480,0.00410
1372.07463,0.00394
1370.01446,0.00393
1367.95429,0.00397
1365.89411,0.00387
1363.83394,0.00361
1361.77377,0.00336
1359.71360,0.00329
1357.65343,0.00325
1355.59325,0.00306
1353.53308,0.00289
1351.47291,0.00283
1349.41274,0.00273
1347.35256,0.00254
1345.29239,0.00242
1343.23222,0.00240
1341.17205,0.00240
1339.11188,0.00241
1337.05170,0.00248
1334.99153,0.00261
1332.93136,0.00271
1330.87119,0.00276
1328.81102,0.00271
1326.75084,0.00260
1324.69067,0.00258
1322.63050,0.00270
1320.57033,0.00274
1318.51015,0.00269
1316.44998,0.00271
1314.38981,0.00271
1312.32964,0.00255
1310.26947,0.00242
1308.20929,0.00252
1306.14912,0.00261
1304.08895,0.00254
1302.02878,0.00247
1299.96861,0.00254
1297.90843,0.00271
1295.84826,0.00286
1293.78809,0.00292
1291.72792,0.00292
1289.66775,0.00293
1287.60757,0.00295
1285.54740,0.00308
1283.48723,0.00330
1281.42706,0.00340
1279.36688,0.00338
1277.30671,0.00343
1275.24654,0.00348
1273.18637,0.00345
1271.12620,0.00341
1269.06602,0.00355
1267.00585,0.00375
1264.94568,0.00372
1262.88551,0.00356
1260.82534,0.00349
1258.76516,0.00355
1256.70499,0.00360
1254.64482,0.00359
1252.58465,0.00359
1250.52447,0.00361
1248.46430,0.00356
1246.40413,0.00350
1244.34396,0.00348
1242.28379,0.00343
1240.22361,0.00322
1238.16344,0.00295
1236.10327,0.00283
1234.04310,0.00295
1231.98293,0.00307
1229.92275,0.00291
1227.86258,0.00265
1225.80241,0.00252
1223.74224,0.00237
1221.68207,0.00214
1219.62189,0.00195
1217.56172,0.00173
1215.50155,0.00152
1213.44138,0.00143
1211.38120,0.00134
1209.32103,0.00125
1207.26086,0.00120
1205.20069,0.00107
1203.14052,0.00089
1201.08034,0.00077
1199.02017,0.00068
1196.96000,0.00072
1194.89983,0.00093
1192.83966,0.00109
1190.77948,0.00119
1188.71931,0.00137
1186.65914,0.00166
1184.59897,0.00203
1182.53880,0.00244
1180.47862,0.00286
1178.41845,0.00341
1176.35828,0.00406
1174.29811,0.00464
1172.23793,0.00509
1170.17776,0.00561
1168.11759,0.00627
1166.05742,0.00692
1163.99725,0.00751
1161.93707,0.00816
1159.87690,0.00885
1157.81673,0.00940
1155.75656,0.00987
1153.69639,0.01046
1151.63621,0.01115
1149.57604,0.01187
1147.51587,0.01256
1145.45570,0.01319
1143.39552,0.01391
1141.33535,0.01470
1139.27518,0.01538
1137.21501,0.01616
1135.15484,0.01722
1133.09466,0.01812
1131.03449,0.01877
1128.97432,0.01963
1126.91415,0.02069
1124.85398,0.02165
1122.79380,0.02259
1120.73363,0.02353
1118.67346,0.02453
1116.61329,0.02571
1114.55312,0.02691
1112.49294,0.02799
1110.43277,0.02909
1108.37260,0.03040
1106.31243,0.03177
1104.25225,0.03306
1102.19208,0.03437
1100.13191,0.03567
1098.07174,0.03683
1096.01157,0.03778
1093.95139,0.03865
1091.89122,0.03971
1089.83105,0.04086
1087.77088,0.04178
1085.71071,0.04257
1083.65053,0.04339
1081.59036,0.04418
1079.53019,0.04496
1077.47002,0.04572
1075.40985,0.04638
1073.34967,0.04698
1071.28950,0.04747
1069.22933,0.04760
1067.16916,0.04742
1065.10898,0.04720
1063.04881,0.04707
1060.98864,0.04675
1058.92847,0.04601
1056.86830,0.04543
1054.80812,0.04510
1052.74795,0.04461
1050.68778,0.04389
1048.62761,0.04286
1046.56744,0.04158
1044.50726,0.04038
1042.44709,0.03938
1040.38692,0.03856
1038.32675,0.03771
1036.26657,0.03680
1034.20640,0.03585
1032.14623,0.03472
1030.08606,0.03361
1028.02589,0.03288
1025.96571,0.03209
1023.90554,0.03101
1021.84537,0.03019
1019.78520,0.02977
1017.72503,0.02927
1015.66485,0.02850
1013.60468,0.02772
1011.54451,0.02714
1009.48434,0.02682
1007.42417,0.02647
1005.36399,0.02609
1003.30382,0.02608
1001.24365,0.02634
999.18348,0.02670
997.12330,0.02736
995.06313,0.02829
993.00296,0.02906
990.94279,0.02961
988.88262,0.03013
986.82244,0.03059
984.76227,0.03093
982.70210,0.03110
980.64193,0.03089
978.58176,0.03006
976.52158,0.02887
974.46141,0.02776
972.40124,0.02661
970.34107,0.02517
968.28089,0.02358
966.22072,0.02212
964.16055,0.02090
962.10038,0.01966
960.04021,0.01840
957.98003,0.01744
955.91986,0.01671
953.85969,0.01596
951.79952,0.01532
949.73935,0.01477
947.67917,0.01413
945.61900,0.01352
943.55883,0.01311
941.49866,0.01277
939.43849,0.01233
937.37831,0.01188
935.31814,0.01163
933.25797,0.01153
931.19780,0.01141
929.13762,0.01115
927.07745,0.01098
925.01728,0.01087
922.95711,0.01046
920.89694,0.01001
918.83676,0.00981
916.77659,0.00954
914.71642,0.00906
912.65625,0.00843
910.59608,0.00782
908.53590,0.00738
906.47573,0.00702
904.41556,0.00694
902.35539,0.00723
900.29522,0.00751
898.23504,0.00750
896.17487,0.00730
894.11470,0.00717
892.05453,0.00737
889.99435,0.00784
887.93418,0.00803
885.87401,0.00781
883.81384,0.00776
881.75367,0.00837
879.69349,0.00953
877.63332,0.01040
875.57315,0.01061
873.51298,0.01057
871.45281,0.01045
869.39263,0.01045
867.33246,0.01077
865.27229,0.01126
863.21212,0.01161
861.15194,0.01166
859.09177,0.01124
857.03160,0.01058
854.97143,0.01026
852.91126,0.01031
850.85108,0.01046
848.79091,0.01045
846.73074,0.00996
844.67057,0.00924
842.61040,0.00867
840.55022,0.00820
838.49005,0.00773
836.42988,0.00746
834.36971,0.00718
832.30954,0.00644
830.24936,0.00566
828.18919,0.00521
826.12902,0.00478
824.06885,0.00435
822.00867,0.00403
819.94850,0.00382
817.88833,0.00367
815.82816,0.00348
813.76799,0.00321
811.70781,0.00313
809.64764,0.00323
807.58747,0.00323
805.52730,0.00318
803.46713,0.00298
801.40695,0.00267
799.34678,0.00253
797.28661,0.00233
795.22644,0.00198
793.16627,0.00188
791.10609,0.00221
789.04592,0.00285
786.98575,0.00328
784.92558,0.00311
782.86540,0.00255
780.80523,0.00199
778.74506,0.00192
776.68489,0.00197
774.62472,0.00187
772.56454,0.00197
770.50437,0.00219
768.44420,0.00230
766.38403,0.00244
764.32386,0.00272
762.26368,0.00257
760.20351,0.00204
758.14334,0.00187
756.08317,0.00166
754.02299,0.00103
751.96282,0.00079
749.90265,0.00110
747.84248,0.00144
745.78231,0.00157
743.72213,0.00161
741.66196,0.00158
739.60179,0.00114
737.54162,0.00056
735.48145,0.00030
733.42127,0.00009
731.36110,0.00000
729.30093,0.00041
727.24076,0.00111
725.18059,0.00162
723.12041,0.00168
721.06024,0.00124
719.00007,0.00125
716.93990,0.00132
714.87972,0.00126
712.81955,0.00154
710.75938,0.00204
708.69921,0.00239
706.63904,0.00253
704.57886,0.00248
702.51869,0.00189
700.45852,0.00094
698.39835,0.00059
696.33818,0.00111
694.27800,0.00152
692.21783,0.00127
690.15766,0.00112
688.09749,0.00173
686.03731,0.00239
683.97714,0.00234
681.91697,0.00200
679.85680,0.00211
677.79663,0.00259
675.73645,0.00276
673.67628,0.00278
671.61611,0.00320
669.55594,0.00195
667.49577,0.00045
665.43559,0.00352
663.37542,0.00380
661.31525,0.00332
659.25508,0.00310
657.19491,0.00311
655.13473,0.00327
653.07456,0.00368
651.01439,0.00416
648.95422,0.00423
646.89404,0.00392
644.83387,0.00341
642.77370,0.00319
640.71353,0.00306
638.65336,0.00289
636.59318,0.00340
634.53301,0.00405
632.47284,0.00353
630.41267,0.00281
628.35250,0.00326
626.29232,0.00399
624.23215,0.00387
622.17198,0.00436
620.11181,0.00524
618.05164,0.00515
615.99146,0.00399
613.93129,0.00301
611.87112,0.00391
609.81095,0.00521
607.75077,0.00420
605.69060,0.00225
603.63043,0.00089
601.57026,0.00001
599.51009,0.00000
