3996.73391,0.00009
3994.67373,-0.00008
3992.61356,0.00005
3990.55339,0.00017
3988.49322,0.00011
3986.43305,0.00021
3984.37287,0.00063
3982.31270,0.00084
3980.25253,0.00046
3978.19236,0.00000
3976.13219,0.00003
3974.07201,0.00035
3972.01184,0.00050
3969.95167,0.00055
3967.89150,0.00066
3965.83133,0.00061
3963.77115,0.00043
3961.71098,0.00039
3959.65081,0.00056
3957.59064,0.00074
3955.53046,0.00075
3953.47029,0.00063
3951.41012,0.00052
3949.34995,0.00050
3947.28978,0.00060
3945.22960,0.00078
3943.16943,0.00082
3941.10926,0.00069
3939.04909,0.00068
3936.98892,0.00088
3934.92874,0.00112
3932.86857,0.00131
3930.80840,0.00136
3928.74823,0.00126
3926.68805,0.00121
3924.62788,0.00130
3922.56771,0.00142
3920.50754,0.00132
3918.44737,0.00098
3916.38719,0.00085
3914.32702,0.00117
3912.26685,0.00148
3910.20668,0.00147
3908.14651,0.00132
3906.08633,0.00108
3904.02616,0.00067
3901.96599,0.00038
3899.90582,0.00037
3897.84565,0.00044
3895.78547,0.00062
3893.72530,0.00094
3891.66513,0.00114
3889.60496,0.00111
3887.54478,0.00094
3885.48461,0.00056
3883.42444,0.00017
3881.36427,0.00019
3879.30410,0.00055
3877.24392,0.00108
3875.18375,0.00168
3873.12358,0.00207
3871.06341,0.00199
3869.00324,0.00169
3866.94306,0.00160
3864.88289,0.00150
3862.82272,0.00121
3860.76255,0.00122
3858.70237,0.00142
3856.64220,0.00116
3854.58203,0.00042
3852.52186,0.00000
3850.46169,0.00018
3848.40151,0.00043
3846.34134,0.00061
3844.28117,0.00074
3842.22100,0.00054
3840.16083,0.00015
3838.10065,0.00012
3836.04048,0.00050
3833.98031,0.00077
3831.92014,0.00077
3829.85997,0.00082
3827.79979,0.00102
3825.73962,0.00113
3823.67945,0.00106
3821.61928,0.00080
3819.55910,0.00039
3817.49893,0.00015
3815.43876,0.00045
3813.37859,0.00090
3811.31842,0.00089
3809.25824,0.00065
3807.19807,0.00070
3805.13790,0.00092
3803.07773,0.00103
3801.01756,0.00112
3798.95738,0.00125
3796.89721,0.00111
3794.83704,0.00070
3792.77687,0.00051
3790.71670,0.00076
3788.65652,0.00120
3786.59635,0.00137
3784.53618,0.00098
3782.47601,0.00045
3780.41583,0.00029
3778.35566,0.00038
3776.29549,0.00054
3774.23532,0.00091
3772.17515,0.00136
3770.11497,0.00138
3768.05480,0.00087
3765.99463,0.00033
3763.93446,0.00019
3761.87429,0.00044
3759.81411,0.00089
3757.75394,0.00121
3755.69377,0.00113
3753.63360,0.00091
3751.57342,0.00087
3749.51325,0.00095
3747.45308,0.00087
3745.39291,0.00073
3743.33274,0.00086
3741.27256,0.00121
3739.21239,0.00135
3737.15222,0.00123
3735.09205,0.00102
3733.03188,0.00081
3730.97170,0.00066
3728.91153,0.00046
3726.85136,0.00022
3724.79119,0.00026
3722.73102,0.00061
3720.67084,0.00078
3718.61067,0.00056
3716.55050,0.00035
3714.49033,0.00042
3712.43015,0.00061
3710.36998,0.00077
3708.30981,0.00065
3706.24964,0.00026
3704.18947,0.00000
3702.12929,0.00026
3700.06912,0.00104
3698.00895,0.00172
3695.94878,0.00173
3693.88861,0.00142
3691.82843,0.00151
3689.76826,0.00164
3687.70809,0.00106
3685.64792,0.00044
3683.58775,0.00050
3681.52757,0.00097
3679.46740,0.00139
3677.40723,0.00143
3675.34706,0.00105
3673.28688,0.00088
3671.22671,0.00138
3669.16654,0.00200
3667.10637,0.00192
3665.04620,0.00143
3662.98602,0.00118
3660.92585,0.00131
3658.86568,0.00155
3656.80551,0.00171
3654.74534,0.00194
3652.68516,0.00220
3650.62499,0.00219
3648.56482,0.00210
3646.50465,0.00278
3644.44447,0.00381
3642.38430,0.00437
3640.32413,0.00448
3638.26396,0.00442
3636.20379,0.00436
3634.14361,0.00433
3632.08344,0.00450
3630.02327,0.00496
3627.96310,0.00563
3625.90293,0.00614
3623.84275,0.00630
3621.78258,0.00633
3619.72241,0.00645
3617.66224,0.00666
3615.60207,0.00687
3613.54189,0.00711
3611.48172,0.00756
3609.42155,0.00833
3607.36138,0.00912
3605.30120,0.00956
3603.24103,0.00962
3601.18086,0.00955
3599.12069,0.00988
3597.06052,0.01064
3595.00034,0.01113
3592.94017,0.01113
3590.88000,0.01130
3588.81983,0.01188
3586.75966,0.01240
3584.69948,0.01269
3582.63931,0.01311
3580.57914,0.01383
3578.51897,0.01442
3576.45879,0.01451
3574.39862,0.01451
3572.33845,0.01490
3570.27828,0.01575
3568.21811,0.01680
3566.15793,0.01739
3564.09776,0.01740
3562.03759,0.01753
3559.97742,0.01816
3557.91725,0.01885
3555.85707,0.01925
3553.79690,0.01959
3551.73673,0.02001
3549.67656,0.02039
3547.61639,0.02077
3545.55621,0.02126
3543.49604,0.02203
3541.43587,0.02308
3539.37570,0.02402
3537.31552,0.02448
3535.25535,0.02447
3533.19518,0.02444
3531.13501,0.02480
3529.07484,0.02552
3527.01466,0.02630
3524.95449,0.02697
3522.89432,0.02768
3520.83415,0.02841
3518.77398,0.02893
3516.71380,0.02927
3514.65363,0.02968
3512.59346,0.03028
3510.53329,0.03096
3508.47312,0.03153
3506.41294,0.03202
3504.35277,0.03253
3502.29260,0.03300
3500.23243,0.03331
3498.17225,0.03369
3496.11208,0.03446
3494.05191,0.03543
3491.99174,0.03618
3489.93157,0.03660
3487.87139,0.03676
3485.81122,0.03700
3483.75105,0.03772
3481.69088,0.03865
3479.63071,0.03912
3477.57053,0.03908
3475.51036,0.03905
3473.45019,0.03928
3471.39002,0.03977
3469.32984,0.04046
3467.26967,0.04127
3465.20950,0.04205
3463.14933,0.04251
3461.08916,0.04268
3459.02898,0.04294
3456.96881,0.04359
3454.90864,0.04449
3452.84847,0.04520
3450.78830,0.04565
3448.72812,0.04602
3446.66795,0.04634
3444.60778,0.04689
3442.54761,0.04769
3440.48744,0.04828
3438.42726,0.04854
3436.36709,0.04877
3434.30692,0.04906
3432.24675,0.04952
3430.18657,0.05030
3428.12640,0.05120
3426.06623,0.05194
3424.00606,0.05239
3421.94589,0.05242
3419.88571,0.05232
3417.82554,0.05280
3415.76537,0.05345
3413.70520,0.05371
3411.64503,0.05396
3409.58485,0.05436
3407.52468,0.05476
3405.46451,0.05528
3403.40434,0.05572
3401.34416,0.05577
3399.28399,0.05578
3397.22382,0.05618
3395.16365,0.05685
3393.10348,0.05740
3391.04330,0.05791
3388.98313,0.05851
3386.92296,0.05897
3384.86279,0.05919
3382.80262,0.05922
3380.74244,0.05925
3378.68227,0.05964
3376.62210,0.06029
3374.56193,0.06088
3372.50176,0.06141
3370.44158,0.06175
3368.38141,0.06197
3366.32124,0.06221
3364.26107,0.06225
3362.20089,0.06229
3360.14072,0.06267
3358.08055,0.06318
3356.02038,0.06342
3353.96021,0.06359
3351.90003,0.06414
3349.83986,0.06467
3347.77969,0.06482
3345.71952,0.06504
3343.65935,0.06535
3341.59917,0.06538
3339.53900,0.06543
3337.47883,0.06589
3335.41866,0.06642
3333.35849,0.06657
3331.29831,0.06648
3329.23814,0.06639
3327.17797,0.06637
3325.11780,0.06659
3323.05762,0.06709
3320.99745,0.06753
3318.93728,0.06752
3316.87711,0.06734
3314.81694,0.06735
3312.75676,0.06739
3310.69659,0.06730
3308.63642,0.06734
3306.57625,0.06776
3304.51608,0.06834
3302.45590,0.06857
3300.39573,0.06844
3298.33556,0.06853
3296.27539,0.06900
3294.21521,0.06937
3292.15504,0.06935
3290.09487,0.06907
3288.03470,0.06891
3285.97453,0.06900
3283.91435,0.06924
3281.85418,0.06945
3279.79401,0.06950
3277.73384,0.06964
3275.67367,0.06988
3273.61349,0.06985
3271.55332,0.06947
3269.49315,0.06910
3267.43298,0.06895
3265.37281,0.06896
3263.31263,0.06896
3261.25246,0.06870
3259.19229,0.06827
3257.13212,0.06797
3255.07194,0.06783
3253.01177,0.06768
3250.95160,0.06749
3248.89143,0.06742
3246.83126,0.06768
3244.77108,0.06807
3242.71091,0.06795
3240.65074,0.06729
3238.59057,0.06670
3236.53040,0.06647
3234.47022,0.06629
3232.41005,0.06591
3230.34988,0.06554
3228.28971,0.06523
3226.22954,0.06490
3224.16936,0.06470
3222.10919,0.06453
3220.04902,0.06446
3217.98885,0.06449
3215.92867,0.06429
3213.86850,0.06402
3211.80833,0.06407
3209.74816,0.06435
3207.68799,0.06425
3205.62781,0.06363
3203.56764,0.06289
3201.50747,0.06238
3199.44730,0.06219
3197.38713,0.06213
3195.32695,0.06204
3193.26678,0.06197
3191.20661,0.06178
3189.14644,0.06133
3187.08626,0.06093
3185.02609,0.06069
3182.96592,0.06045
3180.90575,0.06026
3178.84558,0.06007
3176.78540,0.05964
3174.72523,0.05904
3172.66506,0.05857
3170.60489,0.05839
3168.54472,0.05810
3166.48454,0.05752
3164.42437,0.05704
3162.36420,0.05683
3160.30403,0.05669
3158.24386,0.05647
3156.18368,0.05630
3154.12351,0.05619
3152.06334,0.05595
3150.00317,0.05546
3147.94299,0.05492
3145.88282,0.05460
3143.82265,0.05429
3141.76248,0.05383
3139.70231,0.05346
3137.64213,0.05320
3135.58196,0.05292
3133.52179,0.05269
3131.46162,0.05244
3129.40145,0.05210
3127.34127,0.05193
3125.28110,0.05181
3123.22093,0.05151
3121.16076,0.05110
3119.10058,0.05061
3117.04041,0.05007
3114.98024,0.04974
3112.92007,0.04967
3110.85990,0.04952
3108.79972,0.04921
3106.73955,0.04896
3104.67938,0.04876
3102.61921,0.04837
3100.55904,0.04780
3098.49886,0.04736
3096.43869,0.04712
3094.37852,0.04699
3092.31835,0.04686
3090.25818,0.04670
3088.19800,0.04650
3086.13783,0.04628
3084.07766,0.04610
3082.01749,0.04577
3079.95731,0.04535
3077.89714,0.04522
3075.83697,0.04523
3073.77680,0.04499
3071.71663,0.04453
3069.65645,0.04412
3067.59628,0.04378
3065.53611,0.04340
3063.47594,0.04301
3061.41577,0.04263
3059.35559,0.04233
3057.29542,0.04219
3055.23525,0.04206
3053.17508,0.04179
3051.11491,0.04138
3049.05473,0.04094
3046.99456,0.04052
3044.93439,0.04002
3042.87422,0.03951
3040.81404,0.03930
3038.75387,0.03928
3036.69370,0.03903
3034.63353,0.03861
3032.57336,0.03820
3030.51318,0.03777
3028.45301,0.03738
3026.39284,0.03717
3024.33267,0.03710
3022.27250,0.03686
3020.21232,0.03650
3018.15215,0.03645
3016.09198,0.03653
3014.03181,0.03633
3011.97163,0.03594
3009.91146,0.03572
3007.85129,0.03563
3005.79112,0.03538
3003.73095,0.03500
3001.67077,0.03463
2999.61060,0.03442
2997.55043,0.03439
2995.49026,0.03431
2993.43009,0.03415
2991.36991,0.03410
2989.30974,0.03417
2987.24957,0.03428
2985.18940,0.03445
2983.12923,0.03470
2981.06905,0.03509
2979.00888,0.03571
2976.94871,0.03657
2974.88854,0.03747
2972.82836,0.03832
2970.76819,0.03931
2968.70802,0.04042
2966.64785,0.04154
2964.58768,0.04283
2962.52750,0.04420
2960.46733,0.04563
2958.40716,0.04725
2956.34699,0.04877
2954.28682,0.05001
2952.22664,0.05126
2950.16647,0.05269
2948.10630,0.05420
2946.04613,0.05589
2943.98596,0.05808
2941.92578,0.06074
2939.86561,0.06364
2937.80544,0.06681
2935.74527,0.07019
2933.68509,0.07354
2931.62492,0.07669
2929.56475,0.07971
2927.50458,0.08274
2925.44441,0.08589
2923.38423,0.08916
2921.32406,0.09237
2919.26389,0.09507
2917.20372,0.09593
2915.14355,0.09337
2913.08337,0.08785
2911.02320,0.08184
2908.96303,0.07691
2906.90286,0.07297
2904.84268,0.06991
2902.78251,0.06759
2900.72234,0.06548
2898.66217,0.06349
2896.60200,0.06186
2894.54182,0.06037
2892.48165,0.05868
2890.42148,0.05698
2888.36131,0.05567
2886.30114,0.05455
2884.24096,0.05335
2882.18079,0.05220
2880.12062,0.05127
2878.06045,0.05064
2876.00028,0.05036
2873.94010,0.05053
2871.87993,0.05096
2869.81976,0.05137
2867.75959,0.05196
2865.69941,0.05305
2863.63924,0.05481
2861.57907,0.05715
2859.51890,0.05989
2857.45873,0.06305
2855.39855,0.06665
2853.33838,0.07071
2851.27821,0.07466
2849.21804,0.07596
2847.15787,0.07229
2845.09769,0.06498
2843.03752,0.05738
2840.97735,0.05153
2838.91718,0.04755
2836.85700,0.04478
2834.79683,0.04269
2832.73666,0.04099
2830.67649,0.03957
2828.61632,0.03847
2826.55614,0.03768
2824.49597,0.03703
2822.43580,0.03640
2820.37563,0.03576
2818.31546,0.03514
2816.25528,0.03459
2814.19511,0.03402
2812.13494,0.03342
2810.07477,0.03303
2808.01460,0.03278
2805.95442,0.03232
2803.89425,0.03173
2801.83408,0.03142
2799.77391,0.03140
2797.71373,0.03124
2795.65356,0.03074
2793.59339,0.03019
2791.53322,0.02996
2789.47305,0.03003
2787.41287,0.02988
2785.35270,0.02930
2783.29253,0.02876
2781.23236,0.02862
2779.17219,0.02876
2777.11201,0.02889
2775.05184,0.02880
2772.99167,0.02860
2770.93150,0.02852
2768.87133,0.02840
2766.81115,0.02796
2764.75098,0.02752
2762.69081,0.02734
2760.63064,0.02729
2758.57046,0.02723
2756.51029,0.02710
2754.45012,0.02698
2752.38995,0.02690
2750.32978,0.02676
2748.26960,0.02660
2746.20943,0.02652
2744.14926,0.02661
2742.08909,0.02667
2740.02892,0.02651
2737.96874,0.02619
2735.90857,0.02589
2733.84840,0.02587
2731.78823,0.02601
2729.72805,0.02604
2727.66788,0.02606
2725.60771,0.02606
2723.54754,0.02600
2721.48737,0.02592
2719.42719,0.02574
2717.36702,0.02558
2715.30685,0.02557
2713.24668,0.02557
2711.18651,0.02531
2709.12633,0.02483
2707.06616,0.02457
2705.00599,0.02473
2702.94582,0.02494
2700.88565,0.02490
2698.82547,0.02475
2696.76530,0.02456
2694.70513,0.02428
2692.64496,0.02408
2690.58478,0.02398
2688.52461,0.02393
2686.46444,0.02384
2684.40427,0.02372
2682.34410,0.02374
2680.28392,0.02386
2678.22375,0.02383
2676.16358,0.02363
2674.10341,0.02341
2672.04324,0.02319
2669.98306,0.02298
2667.92289,0.02301
2665.86272,0.02316
2663.80255,0.02312
2661.74238,0.02292
2659.68220,0.02270
2657.62203,0.02247
2655.56186,0.02238
2653.50169,0.02238
2651.44151,0.02228
2649.38134,0.02214
2647.32117,0.02210
2645.26100,0.02191
2643.20083,0.02157
2641.14065,0.02149
2639.08048,0.02153
2637.02031,0.02140
2634.96014,0.02112
2632.89997,0.02071
2630.83979,0.02044
2628.77962,0.02049
2626.71945,0.02060
2624.65928,0.02043
2622.59910,0.02016
2620.53893,0.01992
2618.47876,0.01962
2616.41859,0.01961
2614.35842,0.02002
2612.29824,0.02020
2610.23807,0.01971
2608.17790,0.01895
2606.11773,0.01850
2604.05756,0.01845
2601.99738,0.01844
2599.93721,0.01814
2597.87704,0.01783
2595.81687,0.01793
2593.75670,0.01818
2591.69652,0.01816
2589.63635,0.01800
2587.57618,0.01790
2585.51601,0.01788
2583.45583,0.01777
2581.39566,0.01761
2579.33549,0.01758
2577.27532,0.01761
2575.21515,0.01733
2573.15497,0.01681
2571.09480,0.01655
2569.03463,0.01683
2566.97446,0.01706
2564.91429,0.01677
2562.85411,0.01653
2560.79394,0.01669
2558.73377,0.01664
2556.67360,0.01602
2554.61342,0.01543
2552.55325,0.01538
2550.49308,0.01574
2548.43291,0.01603
2546.37274,0.01591
2544.31256,0.01580
2542.25239,0.01591
2540.19222,0.01582
2538.13205,0.01545
2536.07188,0.01505
2534.01170,0.01478
2531.95153,0.01471
2529.89136,0.01475
2527.83119,0.01503
2525.77102,0.01551
2523.71084,0.01553
2521.65067,0.01505
2519.59050,0.01474
2517.53033,0.01480
2515.47015,0.01468
2513.40998,0.01419
2511.34981,0.01360
2509.28964,0.01312
2507.22947,0.01300
2505.16929,0.01334
2503.10912,0.01360
2501.04895,0.01349
2498.98878,0.01339
2496.92861,0.01346
2494.86843,0.01349
2492.80826,0.01343
2490.74809,0.01329
2488.68792,0.01326
2486.62775,0.01338
2484.56757,0.01324
2482.50740,0.01290
2480.44723,0.01284
2478.38706,0.01308
2476.32688,0.01320
2474.26671,0.01307
2472.20654,0.01287
2470.14637,0.01272
2468.08620,0.01250
2466.02602,0.01225
2463.96585,0.01227
2461.90568,0.01241
2459.84551,0.01237
2457.78534,0.01238
2455.72516,0.01255
2453.66499,0.01256
2451.60482,0.01227
2449.54465,0.01179
2447.48447,0.01156
2445.42430,0.01180
2443.36413,0.01208
2441.30396,0.01195
2439.24379,0.01152
2437.18361,0.01132
2435.12344,0.01137
2433.06327,0.01126
2431.00310,0.01115
2428.94293,0.01114
2426.88275,0.01102
2424.82258,0.01096
2422.76241,0.01092
2420.70224,0.01080
2418.64207,0.01080
2416.58189,0.01082
2414.52172,0.01077
2412.46155,0.01076
2410.40138,0.01073
2408.34120,0.01051
2406.28103,0.01024
2404.22086,0.01015
2402.16069,0.01024
2400.10052,0.01043
2398.04034,0.01034
2395.98017,0.01008
2393.92000,0.01004
2391.85983,0.01022
2389.79966,0.01036
2387.73948,0.01039
2385.67931,0.01030
2383.61914,0.01008
2381.55897,0.00984
2379.49880,0.00959
2377.43862,0.00942
2375.37845,0.00942
2373.31828,0.00971
2371.25811,0.01027
2369.19793,0.01038
2367.13776,0.00956
2365.07759,0.00821
2363.01742,0.00656
2360.95725,0.00612
2358.89707,0.00707
2356.83690,0.00879
2354.77673,0.00991
2352.71656,0.01062
2350.65639,0.01214
2348.59621,0.01261
2346.53604,0.01031
2344.47587,0.00929
2342.41570,0.00979
2340.35552,0.00954
2338.29535,0.00830
2336.23518,0.00756
2334.17501,0.00815
2332.11484,0.00913
2330.05466,0.00975
2327.99449,0.00976
2325.93432,0.00970
2323.87415,0.00900
2321.81398,0.00805
2319.75380,0.00766
2317.69363,0.00820
2315.63346,0.00864
2313.57329,0.00869
2311.51312,0.00864
2309.45294,0.00875
2307.39277,0.00901
2305.33260,0.00903
2303.27243,0.00877
2301.21225,0.00856
2299.15208,0.00865
2297.09191,0.00891
2295.03174,0.00926
2292.97157,0.00954
2290.91139,0.00941
2288.85122,0.00887
2286.79105,0.00824
2284.73088,0.00795
2282.67071,0.00803
2280.61053,0.00805
2278.55036,0.00789
2276.49019,0.00794
2274.43002,0.00818
2272.36984,0.00829
2270.30967,0.00830
2268.24950,0.00841
2266.18933,0.00854
2264.12916,0.00815
2262.06898,0.00729
2260.00881,0.00698
2257.94864,0.00755
2255.88847,0.00796
2253.82830,0.00780
2251.76812,0.00772
2249.70795,0.00755
2247.64778,0.00658
2245.58761,0.00575
2243.52744,0.00645
2241.46726,0.00761
2239.40709,0.00795
2237.34692,0.00777
2235.28675,0.00736
2233.22657,0.00699
2231.16640,0.00677
2229.10623,0.00667
2227.04606,0.00640
2224.98589,0.00591
2222.92571,0.00596
2220.86554,0.00628
2218.80537,0.00611
2216.74520,0.00594
2214.68503,0.00613
2212.62485,0.00591
2210.56468,0.00507
2208.50451,0.00511
2206.44434,0.00590
2204.38417,0.00572
2202.32399,0.00475
2200.26382,0.00369
2198.20365,0.00302
2196.14348,0.00321
2194.08330,0.00401
2192.02313,0.00490
2189.96296,0.00498
2187.90279,0.00447
2185.84262,0.00448
2183.78244,0.00447
2181.72227,0.00400
2179.66210,0.00378
2177.60193,0.00358
2175.54176,0.00332
2173.48158,0.00316
2171.42141,0.00304
2169.36124,0.00330
2167.30107,0.00344
2165.24089,0.00312
2163.18072,0.00319
2161.12055,0.00376
2159.06038,0.00320
2157.00021,0.00182
2154.94003,0.00164
2152.87986,0.00262
2150.81969,0.00379
2148.75952,0.00402
2146.69935,0.00376
2144.63917,0.00389
2142.57900,0.00376
2140.51883,0.00356
2138.45866,0.00412
2136.39849,0.00490
2134.33831,0.00476
2132.27814,0.00385
2130.21797,0.00327
2128.15780,0.00363
2126.09762,0.00459
2124.03745,0.00535
2121.97728,0.00556
2119.91711,0.00558
2117.85694,0.00590
2115.79676,0.00630
2113.73659,0.00637
2111.67642,0.00632
2109.61625,0.00643
2107.55608,0.00664
2105.49590,0.00657
2103.43573,0.00626
2101.37556,0.00629
2099.31539,0.00648
2097.25521,0.00614
2095.19504,0.00546
2093.13487,0.00521
2091.07470,0.00558
2089.01453,0.00610
2086.95435,0.00627
2084.89418,0.00608
2082.83401,0.00582
2080.77384,0.00581
2078.71367,0.00598
2076.65349,0.00554
2074.59332,0.00458
2072.53315,0.00426
2070.47298,0.00458
2068.41281,0.00472
2066.35263,0.00487
2064.29246,0.00525
2062.23229,0.00531
2060.17212,0.00497
2058.11194,0.00447
2056.05177,0.00424
2053.99160,0.00477
2051.93143,0.00558
2049.87126,0.00573
2047.81108,0.00490
2045.75091,0.00396
2043.69074,0.00410
2041.63057,0.00469
2039.57040,0.00450
2037.51022,0.00372
2035.45005,0.00340
2033.38988,0.00418
2031.32971,0.00464
2029.26954,0.00315
2027.20936,0.00122
2025.14919,0.00128
2023.08902,0.00297
2021.02885,0.00406
2018.96867,0.00338
2016.90850,0.00165
2014.84833,0.00087
2012.78816,0.00140
2010.72799,0.00177
2008.66781,0.00145
2006.60764,0.00104
2004.54747,0.00116
2002.48730,0.00182
2000.42713,0.00248
1998.36695,0.00258
1996.30678,0.00243
1994.24661,0.00342
1992.18644,0.00467
1990.12626,0.00389
1988.06609,0.00235
1986.00592,0.00179
1983.94575,0.00194
1981.88558,0.00204
1979.82540,0.00138
1977.76523,0.00087
1975.70506,0.00130
1973.64489,0.00150
1971.58472,0.00154
1969.52454,0.00174
1967.46437,0.00154
1965.40420,0.00144
1963.34403,0.00126
1961.28386,0.00035
1959.22368,0.00000
1957.16351,0.00075
1955.10334,0.00123
1953.04317,0.00128
1950.98299,0.00215
1948.92282,0.00375
1946.86265,0.00484
1944.80248,0.00490
1942.74231,0.00421
1940.68213,0.00335
1938.62196,0.00304
1936.56179,0.00329
1934.50162,0.00328
1932.44145,0.00300
1930.38127,0.00305
1928.32110,0.00309
1926.26093,0.00261
1924.20076,0.00224
1922.14059,0.00269
1920.08041,0.00334
1918.02024,0.00331
1915.96007,0.00273
1913.89990,0.00232
1911.83972,0.00237
1909.77955,0.00255
1907.71938,0.00262
1905.65921,0.00262
1903.59904,0.00251
1901.53886,0.00217
1899.47869,0.00181
1897.41852,0.00173
1895.35835,0.00180
1893.29818,0.00183
1891.23800,0.00190
1889.17783,0.00182
1887.11766,0.00151
1885.05749,0.00131
1882.99731,0.00126
1880.93714,0.00123
1878.87697,0.00131
1876.81680,0.00138
1874.75663,0.00133
1872.69645,0.00127
1870.63628,0.00118
1868.57611,0.00106
1866.51594,0.00108
1864.45577,0.00121
1862.39559,0.00137
1860.33542,0.00141
1858.27525,0.00116
1856.21508,0.00070
1854.15491,0.00033
1852.09473,0.00024
1850.03456,0.00041
1847.97439,0.00065
1845.91422,0.00067
1843.85404,0.00049
1841.79387,0.00063
1839.73370,0.00105
1837.67353,0.00117
1835.61336,0.00097
1833.55318,0.00070
1831.49301,0.00058
1829.43284,0.00074
1827.37267,0.00098
1825.31250,0.00098
1823.25232,0.00086
1821.19215,0.00082
1819.13198,0.00071
1817.07181,0.00046
1815.01163,0.00021
1812.95146,0.00006
1810.89129,0.00000
1808.83112,-0.00001
1806.77095,0.00003
1804.71077,0.00002
1802.65060,-0.00011
1800.59043,-0.00005
1798.53026,0.00034
1796.47009,0.00056
1794.40991,0.00017
1792.34974,-0.00049
1790.28957,-0.00077
1788.22940,-0.00056
1786.16923,-0.00025
1784.10905,-0.00009
1782.04888,0.00000
1779.98871,0.00006
1777.92854,0.00011
1775.86836,0.00011
1773.80819,0.00013
1771.74802,0.00010
1769.68785,0.00005
1767.62768,0.00026
1765.56750,0.00084
1763.50733,0.00171
1761.44716,0.00266
1759.38699,0.00344
1757.32682,0.00420
1755.26664,0.00517
1753.20647,0.00633
1751.14630,0.00807
1749.08613,0.01067
1747.02596,0.01369
1744.96578,0.01698
1742.90561,0.02087
1740.84544,0.02563
1738.78527,0.03089
1736.72509,0.03551
1734.66492,0.03943
1732.60475,0.04268
1730.54458,0.04438
1728.48441,0.04478
1726.42423,0.04453
1724.36406,0.04394
1722.30389,0.04336
1720.24372,0.04310
1718.18355,0.04313
1716.12337,0.04316
1714.06320,0.04293
1712.00303,0.04256
1709.94286,0.04211
1707.88268,0.04152
1705.82251,0.04075
1703.76234,0.03993
1701.70217,0.03902
1699.64200,0.03780
1697.58182,0.03673
1695.52165,0.03606
1693.46148,0.03563
1691.40131,0.03535
1689.34114,0.03518
1687.28096,0.03508
1685.22079,0.03485
1683.16062,0.03456
1681.10045,0.03477
1679.04028,0.03545
1676.98010,0.03613
1674.91993,0.03650
1672.85976,0.03670
1670.79959,0.03731
1668.73941,0.03859
1666.67924,0.04005
1664.61907,0.04152
1662.55890,0.04316
1660.49873,0.04480
1658.43855,0.04633
1656.37838,0.04791
1654.31821,0.04951
1652.25804,0.05070
1650.19787,0.05130
1648.13769,0.05162
1646.07752,0.05167
1644.01735,0.05171
1641.95718,0.05201
1639.89701,0.05246
1637.83683,0.05297
1635.77666,0.05350
1633.71649,0.05394
1631.65632,0.05436
1629.59614,0.05497
1627.53597,0.05579
1625.47580,0.05655
1623.41563,0.05708
1621.35546,0.05760
1619.29528,0.05818
1617.23511,0.05869
1615.17494,0.05918
1613.11477,0.05980
1611.05460,0.06036
1608.99442,0.06061
1606.93425,0.06052
1604.87408,0.06019
1602.81391,0.05949
1600.75373,0.05838
1598.69356,0.05704
1596.63339,0.05550
1594.57322,0.05361
1592.51305,0.05155
1590.45287,0.04963
1588.39270,0.04783
1586.33253,0.04602
1584.27236,0.04426
1582.21219,0.04283
1580.15201,0.04176
1578.09184,0.04059
1576.03167,0.03898
1573.97150,0.03744
1571.91133,0.03624
1569.85115,0.03474
1567.79098,0.03305
1565.73081,0.03190
1563.67064,0.03137
1561.61046,0.03134
1559.55029,0.03157
1557.49012,0.03153
1555.42995,0.03128
1553.36978,0.03119
1551.30960,0.03145
1549.24943,0.03197
1547.18926,0.03252
1545.12909,0.03312
1543.06892,0.03394
1541.00874,0.03447
1538.94857,0.03401
1536.88840,0.03324
1534.82823,0.03250
1532.76805,0.03144
1530.70788,0.03023
1528.64771,0.02910
1526.58754,0.02790
1524.52737,0.02680
1522.46719,0.02608
1520.40702,0.02582
1518.34685,0.02579
1516.28668,0.02564
1514.22651,0.02534
1512.16633,0.02485
1510.10616,0.02385
1508.04599,0.02182
1505.98582,0.01896
1503.92565,0.01681
1501.86547,0.01551
1499.80530,0.01439
1497.74513,0.01293
1495.68496,0.01122
1493.62478,0.00993
1491.56461,0.00902
1489.50444,0.00798
1487.44427,0.00696
1485.38410,0.00651
1483.32392,0.00668
1481.26375,0.00731
1479.20358,0.00842
1477.14341,0.01025
1475.08324,0.01331
1473.02306,0.01760
1470.96289,0.02165
1468.90272,0.02454
1466.84255,0.02722
1464.78238,0.03010
1462.72220,0.03226
1460.66203,0.03342
1458.60186,0.03446
1456.54169,0.03584
1454.48151,0.03697
1452.42134,0.03775
1450.36117,0.03856
1448.30100,0.03944
1446.24083,0.04018
1444.18065,0.04070
1442.12048,0.04098
1440.06031,0.04090
1438.00014,0.04017
1435.93997,0.03871
1433.87979,0.03712
1431.81962,0.03568
1429.75945,0.03421
1427.69928,0.03296
1425.63910,0.03221
1423.57893,0.03197
1421.51876,0.03216
1419.45859,0.03242
1417.39842,0.03234
1415.33824,0.03208
1413.27807,0.03203
1411.21790,0.03213
1409.15773,0.03203
1407.09756,0.03155
1405.03738,0.03085
1402.97721,0.03037
1400.91704,0.03027
1398.85687,0.03040
1396.79670,0.03063
1394.73652,0.03091
1392.67635,0.03115
1390.61618,0.03148
1388.55601,0.03203
1386.49583,0.03272
1384.43566,0.03347
1382.37549,0.03437
1380.31532,0.03547
1378.25515,0.03663
1376.19497,0.03760
1374.13480,0.03828
1372.07463,0.03881
1370.01446,0.03934
1367.95429,0.03980
1365.89411,0.04004
1363.83394,0.04008
1361.77377,0.04016
1359.71360,0.04042
1357.65343,0.04070
1355.59325,0.04097
1353.53308,0.04139
1351.47291,0.04190
1349.41274,0.04246
1347.35256,0.04305
1345.29239,0.04363
1343.23222,0.04425
1341.17205,0.04487
1339.11188,0.04535
1337.05170,0.04569
1334.99153,0.04594
1332.93136,0.04619
1330.87119,0.04657
1328.81102,0.04718
1326.75084,0.04789
1324.69067,0.04862
1322.63050,0.04938
1320.57033,0.04998
1318.51015,0.05016
1316.44998,0.05003
1314.38981,0.04979
1312.32964,0.04924
1310.26947,0.04823
1308.20929,0.04687
1306.14912,0.04522
1304.08895,0.04324
1302.02878,0.04114
1299.96861,0.03913
1297.90843,0.03727
1295.84826,0.03552
1293.78809,0.03391
1291.72792,0.03255
1289.66775,0.03143
1287.60757,0.03057
1285.54740,0.03013
1283.48723,0.03002
1281.42706,0.02990
1279.36688,0.02977
1277.30671,0.02987
1275.24654,0.03030
1273.18637,0.03086
1271.12620,0.03151
1269.06602,0.03236
1267.00585,0.03346
1264.94568,0.03459
1262.88551,0.03550
1260.82534,0.03631
1258.76516,0.03722
1256.70499,0.03820
1254.64482,0.03901
1252.58465,0.03965
1250.52447,0.04022
1248.46430,0.04083
1246.40413,0.04161
1244.34396,0.04256
1242.28379,0.04361
1240.22361,0.04464
1238.16344,0.04556
1236.10327,0.04653
1234.04310,0.04747
1231.98293,0.04815
1229.92275,0.04863
1227.86258,0.04924
1225.80241,0.05006
1223.74224,0.05092
1221.68207,0.05169
1219.62189,0.05235
1217.56172,0.05297
1215.50155,0.05360
1213.44138,0.05425
1211.38120,0.05505
1209.32103,0.05607
1207.26086,0.05717
1205.20069,0.05823
1203.14052,0.05920
1201.08034,0.06006
1199.02017,0.06051
1196.96000,0.06032
1194.89983,0.05998
1192.83966,0.05971
1190.77948,0.05915
1188.71931,0.05823
1186.65914,0.05711
1184.59897,0.05586
1182.53880,0.05480
1180.47862,0.05420
1178.41845,0.05379
1176.35828,0.05327
1174.29811,0.05284
1172.23793,0.05274
1170.17776,0.05274
1168.11759,0.05256
1166.05742,0.05209
1163.99725,0.05141
1161.93707,0.05082
1159.87690,0.05015
1157.81673,0.04915
1155.75656,0.04800
1153.69639,0.04687
1151.63621,0.04585
1149.57604,0.04502
1147.51587,0.04412
1145.45570,0.04281
1143.39552,0.04142
1141.33535,0.04043
1139.27518,0.03961
1137.21501,0.03868
1135.15484,0.03787
1133.09466,0.03761
1131.03449,0.03802
1128.97432,0.03890
1126.91415,0.03998
1124.85398,0.04126
1122.79380,0.04293
1120.73363,0.04505
1118.67346,0.04748
1116.61329,0.05014
1114.55312,0.05322
1112.49294,0.05671
1110.43277,0.06034
1108.37260,0.06388
1106.31243,0.06719
1104.25225,0.07013
1102.19208,0.07253
1100.13191,0.07457
1098.07174,0.07628
1096.01157,0.07741
1093.95139,0.07839
1091.89122,0.07970
1089.83105,0.08121
1087.77088,0.08295
1085.71071,0.08520
1083.65053,0.08796
1081.59036,0.09084
1079.53019,0.09329
1077.47002,0.09539
1075.40985,0.09736
1073.34967,0.09902
1071.28950,0.10047
1069.22933,0.10189
1067.16916,0.10313
1065.10898,0.10424
1063.04881,0.10542
1060.98864,0.10696
1058.92847,0.10869
1056.86830,0.11012
1054.80812,0.11153
1052.74795,0.11346
1050.68778,0.11568
1048.62761,0.11770
1046.56744,0.11960
1044.50726,0.12158
1042.44709,0.12361
1040.38692,0.12579
1038.32675,0.12813
1036.26657,0.13024
1034.20640,0.13221
1032.14623,0.13420
1030.08606,0.13576
1028.02589,0.13664
1025.96571,0.13703
1023.90554,0.13710
1021.84537,0.13707
1019.78520,0.13699
1017.72503,0.13688
1015.66485,0.13650
1013.60468,0.13528
1011.54451,0.13339
1009.48434,0.13138
1007.42417,0.12905
1005.36399,0.12620
1003.30382,0.12297
1001.24365,0.11945
999.18348,0.11573
997.12330,0.11206
995.06313,0.10848
993.00296,0.10513
990.94279,0.10202
988.88262,0.09860
986.82244,0.09488
984.76227,0.09105
982.70210,0.08688
980.64193,0.08266
978.58176,0.07895
976.52158,0.07573
974.46141,0.07247
972.40124,0.06922
970.34107,0.06653
968.28089,0.06429
966.22072,0.06239
964.16055,0.06061
962.10038,0.05845
960.04021,0.05599
957.98003,0.05353
955.91986,0.05111
953.85969,0.04841
951.79952,0.04517
949.73935,0.04178
947.67917,0.03887
945.61900,0.03631
943.55883,0.03379
941.49866,0.03159
939.43849,0.02992
937.37831,0.02876
935.31814,0.02815
933.25797,0.02791
931.19780,0.02745
929.13762,0.02656
927.07745,0.02566
925.01728,0.02489
922.95711,0.02375
920.89694,0.02210
918.83676,0.02069
916.77659,0.01947
914.71642,0.01792
912.65625,0.01630
910.59608,0.01483
908.53590,0.01334
906.47573,0.01195
904.41556,0.01098
902.35539,0.01047
900.29522,0.01029
898.23504,0.01055
896.17487,0.01083
894.11470,0.01067
892.05453,0.01035
889.99435,0.01005
887.93418,0.00968
885.87401,0.00917
883.81384,0.00846
881.75367,0.00792
879.69349,0.00817
877.63332,0.00919
875.57315,0.01035
873.51298,0.01105
871.45281,0.01117
869.39263,0.01090
867.33246,0.01027
865.27229,0.00923
863.21212,0.00807
861.15194,0.00705
859.09177,0.00564
857.03160,0.00382
854.97143,0.00240
852.91126,0.00164
850.85108,0.00095
848.79091,0.00019
846.73074,0.00000
844.67057,0.00035
842.61040,0.00109
840.55022,0.00150
838.49005,0.00150
836.42988,0.00174
834.36971,0.00209
832.30954,0.00221
830.24936,0.00219
828.18919,0.00214
826.12902,0.00248
824.06885,0.00328
822.00867,0.00389
819.94850,0.00401
817.88833,0.00390
815.82816,0.00372
813.76799,0.00336
811.70781,0.00264
809.64764,0.00165
807.58747,0.00081
805.52730,0.00034
803.46713,0.00000
801.40695,-0.00074
799.34678,-0.00131
797.28661,-0.00196
795.22644,-0.00293
793.16627,-0.00355
791.10609,-0.00357
789.04592,-0.00338
786.98575,-0.00274
784.92558,-0.00150
782.86540,-0.00051
780.80523,-0.00018
778.74506,0.00019
776.68489,0.00098
774.62472,0.00213
772.56454,0.00305
770.50437,0.00333
768.44420,0.00382
766.38403,0.00527
764.32386,0.00704
762.26368,0.00847
760.20351,0.01014
758.14334,0.01190
756.08317,0.01227
754.02299,0.01104
751.96282,0.00945
749.90265,0.00807
747.84248,0.00641
745.78231,0.00442
743.72213,0.00296
741.66196,0.00232
739.60179,0.00178
737.54162,0.00124
735.48145,0.00137
733.42127,0.00220
731.36110,0.00359
729.30093,0.00513
727.24076,0.00572
725.18059,0.00549
723.12041,0.00601
721.06024,0.00699
719.00007,0.00720
716.93990,0.00580
714.87972,0.00404
712.81955,0.00299
710.75938,0.00254
708.69921,0.00241
706.63904,0.00226
704.57886,0.00195
702.51869,0.00177
700.45852,0.00193
698.39835,0.00200
696.33818,0.00171
694.27800,0.00152
692.21783,0.00141
690.15766,0.00070
688.09749,-0.00071
686.03731,-0.00219
683.97714,-0.00305
681.91697,-0.00288
679.85680,-0.00230
677.79663,-0.00219
675.73645,-0.00213
673.67628,-0.00152
671.61611,-0.00130
669.55594,-0.00397
667.49577,-0.00534
665.43559,-0.00130
663.37542,-0.00106
661.31525,-0.00233
659.25508,-0.00343
657.19491,-0.00379
655.13473,-0.00281
653.07456,-0.00139
651.01439,-0.00063
648.95422,0.00000
646.89404,0.00097
644.83387,0.00188
642.77370,0.00155
640.71353,-0.00038
638.65336,-0.00162
636.59318,-0.00118
634.53301,-0.00112
632.47284,-0.00177
630.41267,-0.00197
628.35250,-0.00180
626.29232,-0.00163
624.23215,-0.00057
622.17198,0.00166
620.11181,0.00260
618.05164,0.00074
615.99146,-0.00074
613.93129,0.00049
611.87112,0.00059
609.81095,-0.00190
607.75077,-0.00345
605.69060,-0.00279
603.63043,-0.00128
601.57026,-0.00025
599.51009,0.00000
