3996.73391,0.00059
3994.67373,0.00045
3992.61356,0.00056
3990.55339,0.00049
3988.49322,0.00026
3986.43305,0.00035
3984.37287,0.00058
3982.31270,0.00047
3980.25253,0.00023
3978.19236,0.00036
3976.13219,0.00080
3974.07201,0.00093
3972.01184,0.00046
3969.95167,0.00000
3967.89150,0.00002
3965.83133,0.00030
3963.77115,0.00061
3961.71098,0.00088
3959.65081,0.00095
3957.59064,0.00084
3955.53046,0.00082
3953.47029,0.00084
3951.41012,0.00089
3949.34995,0.00113
3947.28978,0.00133
3945.22960,0.00114
3943.16943,0.00071
3941.10926,0.00027
3939.04909,0.00000
3936.98892,0.00016
3934.92874,0.00063
3932.86857,0.00102
3930.80840,0.00106
3928.74823,0.00078
3926.68805,0.00052
3924.62788,0.00036
3922.56771,0.00013
3920.50754,0.00009
3918.44737,0.00037
3916.38719,0.00050
3914.32702,0.00031
3912.26685,0.00038
3910.20668,0.00093
3908.14651,0.00159
3906.08633,0.00198
3904.02616,0.00189
3901.96599,0.00157
3899.90582,0.00124
3897.84565,0.00098
3895.78547,0.00105
3893.72530,0.00124
3891.66513,0.00098
3889.60496,0.00055
3887.54478,0.00064
3885.48461,0.00099
3883.42444,0.00129
3881.36427,0.00145
3879.30410,0.00131
3877.24392,0.00118
3875.18375,0.00111
3873.12358,0.00100
3871.06341,0.00112
3869.00324,0.00146
3866.94306,0.00170
3864.88289,0.00170
3862.82272,0.00149
3860.76255,0.00131
3858.70237,0.00150
3856.64220,0.00206
3854.58203,0.00205
3852.52186,0.00085
3850.46169,0.00000
3848.40151,0.00009
3846.34134,0.00023
3844.28117,0.00014
3842.22100,0.00006
3840.16083,0.00000
3838.10065,0.00019
3836.04048,0.00085
3833.98031,0.00148
3831.92014,0.00174
3829.85997,0.00186
3827.79979,0.00191
3825.73962,0.00184
3823.67945,0.00159
3821.61928,0.00095
3819.55910,0.00033
3817.49893,0.00020
3815.43876,0.00036
3813.37859,0.00079
3811.31842,0.00145
3809.25824,0.00188
3807.19807,0.00149
3805.13790,0.00059
3803.07773,0.00004
3801.01756,0.00015
3798.95738,0.00067
3796.89721,0.00103
3794.83704,0.00108
3792.77687,0.00107
3790.71670,0.00118
3788.65652,0.00137
3786.59635,0.00126
3784.53618,0.00096
3782.47601,0.00109
3780.41583,0.00140
3778.35566,0.00131
3776.29549,0.00113
3774.23532,0.00121
3772.17515,0.00132
3770.11497,0.00118
3768.05480,0.00092
3765.99463,0.00096
3763.93446,0.00132
3761.87429,0.00177
3759.81411,0.00185
3757.75394,0.00138
3755.69377,0.00102
3753.63360,0.00110
3751.57342,0.00125
3749.51325,0.00129
3747.45308,0.00119
3745.39291,0.00078
3743.33274,0.00040
3741.27256,0.00046
3739.21239,0.00076
3737.15222,0.00112
3735.09205,0.00121
3733.03188,0.00101
3730.97170,0.00090
3728.91153,0.00093
3726.85136,0.00097
3724.79119,0.00090
3722.73102,0.00061
3720.67084,0.00024
3718.61067,0.00023
3716.55050,0.00060
3714.49033,0.00080
3712.43015,0.00048
3710.36998,0.00004
3708.30981,0.00031
3706.24964,0.00101
3704.18947,0.00137
3702.12929,0.00126
3700.06912,0.00119
3698.00895,0.00134
3695.94878,0.00157
3693.88861,0.00200
3691.82843,0.00256
3689.76826,0.00281
3687.70809,0.00257
3685.64792,0.00228
3683.58775,0.00198
3681.52757,0.00179
3679.46740,0.00197
3677.40723,0.00225
3675.34706,0.00228
3673.28688,0.00251
3671.22671,0.00288
3669.16654,0.00295
3667.10637,0.00305
3665.04620,0.00354
3662.98602,0.00415
3660.92585,0.00460
3658.86568,0.00499
3656.80551,0.00552
3654.74534,0.00605
3652.68516,0.00622
3650.62499,0.00588
3648.56482,0.00556
3646.50465,0.00575
3644.44447,0.00620
3642.38430,0.00682
3640.32413,0.00764
3638.26396,0.00852
3636.20379,0.00930
3634.14361,0.01002
3632.08344,0.01082
3630.02327,0.01169
3627.96310,0.01245
3625.90293,0.01310
3623.84275,0.01361
3621.78258,0.01397
3619.72241,0.01436
3617.66224,0.01507
3615.60207,0.01588
3613.54189,0.01654
3611.48172,0.01708
3609.42155,0.01741
3607.36138,0.01766
3605.30120,0.01797
3603.24103,0.01827
3601.18086,0.01887
3599.12069,0.01979
3597.06052,0.02064
3595.00034,0.02139
3592.94017,0.02233
3590.88000,0.02328
3588.81983,0.02387
3586.75966,0.02389
3584.69948,0.02396
3582.63931,0.02447
3580.57914,0.02509
3578.51897,0.02578
3576.45879,0.02663
3574.39862,0.02740
3572.33845,0.02780
3570.27828,0.02779
3568.21811,0.02797
3566.15793,0.02890
3564.09776,0.03002
3562.03759,0.03047
3559.97742,0.03039
3557.91725,0.03048
3555.85707,0.03104
3553.79690,0.03168
3551.73673,0.03215
3549.67656,0.03277
3547.61639,0.03375
3545.55621,0.03476
3543.49604,0.03535
3541.43587,0.03552
3539.37570,0.03583
3537.31552,0.03673
3535.25535,0.03790
3533.19518,0.03876
3531.13501,0.03918
3529.07484,0.03950
3527.01466,0.03999
3524.95449,0.04060
3522.89432,0.04113
3520.83415,0.04153
3518.77398,0.04199
3516.71380,0.04250
3514.65363,0.04296
3512.59346,0.04352
3510.53329,0.04425
3508.47312,0.04510
3506.41294,0.04587
3504.35277,0.04618
3502.29260,0.04631
3500.23243,0.04679
3498.17225,0.04745
3496.11208,0.04802
3494.05191,0.04841
3491.99174,0.04860
3489.93157,0.04895
3487.87139,0.04971
3485.81122,0.05041
3483.75105,0.05081
3481.69088,0.05139
3479.63071,0.05242
3477.57053,0.05334
3475.51036,0.05361
3473.45019,0.05349
3471.39002,0.05329
3469.32984,0.05338
3467.26967,0.05416
3465.20950,0.05516
3463.14933,0.05567
3461.08916,0.05587
3459.02898,0.05646
3456.96881,0.05742
3454.90864,0.05791
3452.84847,0.05796
3450.78830,0.05829
3448.72812,0.05889
3446.66795,0.05923
3444.60778,0.05939
3442.54761,0.05977
3440.48744,0.06009
3438.42726,0.06001
3436.36709,0.05997
3434.30692,0.06058
3432.24675,0.06158
3430.18657,0.06240
3428.12640,0.06281
3426.06623,0.06288
3424.00606,0.06296
3421.94589,0.06332
3419.88571,0.06382
3417.82554,0.06431
3415.76537,0.06470
3413.70520,0.06489
3411.64503,0.06512
3409.58485,0.06549
3407.52468,0.06573
3405.46451,0.06582
3403.40434,0.06587
3401.34416,0.06584
3399.28399,0.06611
3397.22382,0.06685
3395.16365,0.06763
3393.10348,0.06817
3391.04330,0.06831
3388.98313,0.06800
3386.92296,0.06782
3384.86279,0.06816
3382.80262,0.06850
3380.74244,0.06875
3378.68227,0.06916
3376.62210,0.06938
3374.56193,0.06936
3372.50176,0.06944
3370.44158,0.06959
3368.38141,0.06967
3366.32124,0.06969
3364.26107,0.06984
3362.20089,0.07019
3360.14072,0.07050
3358.08055,0.07070
3356.02038,0.07087
3353.96021,0.07116
3351.90003,0.07164
3349.83986,0.07171
3347.77969,0.07109
3345.71952,0.07051
3343.65935,0.07078
3341.59917,0.07148
3339.53900,0.07181
3337.47883,0.07186
3335.41866,0.07186
3333.35849,0.07176
3331.29831,0.07174
3329.23814,0.07188
3327.17797,0.07207
3325.11780,0.07225
3323.05762,0.07233
3320.99745,0.07234
3318.93728,0.07229
3316.87711,0.07236
3314.81694,0.07268
3312.75676,0.07301
3310.69659,0.07310
3308.63642,0.07314
3306.57625,0.07307
3304.51608,0.07271
3302.45590,0.07250
3300.39573,0.07272
3298.33556,0.07301
3296.27539,0.07298
3294.21521,0.07278
3292.15504,0.07283
3290.09487,0.07304
3288.03470,0.07296
3285.97453,0.07274
3283.91435,0.07287
3281.85418,0.07311
3279.79401,0.07315
3277.73384,0.07314
3275.67367,0.07324
3273.61349,0.07351
3271.55332,0.07364
3269.49315,0.07349
3267.43298,0.07335
3265.37281,0.07347
3263.31263,0.07376
3261.25246,0.07394
3259.19229,0.07385
3257.13212,0.07373
3255.07194,0.07369
3253.01177,0.07348
3250.95160,0.07311
3248.89143,0.07285
3246.83126,0.07285
3244.77108,0.07310
3242.71091,0.07336
3240.65074,0.07352
3238.59057,0.07362
3236.53040,0.07364
3234.47022,0.07361
3232.41005,0.07359
3230.34988,0.07347
3228.28971,0.07330
3226.22954,0.07333
3224.16936,0.07338
3222.10919,0.07311
3220.04902,0.07284
3217.98885,0.07285
3215.92867,0.07278
3213.86850,0.07266
3211.80833,0.07278
3209.74816,0.07279
3207.68799,0.07235
3205.62781,0.07191
3203.56764,0.07181
3201.50747,0.07177
3199.44730,0.07160
3197.38713,0.07158
3195.32695,0.07181
3193.26678,0.07192
3191.20661,0.07180
3189.14644,0.07167
3187.08626,0.07147
3185.02609,0.07125
3182.96592,0.07126
3180.90575,0.07117
3178.84558,0.07066
3176.78540,0.07012
3174.72523,0.07002
3172.66506,0.07011
3170.60489,0.07000
3168.54472,0.06967
3166.48454,0.06945
3164.42437,0.06931
3162.36420,0.06902
3160.30403,0.06878
3158.24386,0.06869
3156.18368,0.06859
3154.12351,0.06863
3152.06334,0.06866
3150.00317,0.06811
3147.94299,0.06713
3145.88282,0.06639
3143.82265,0.06608
3141.76248,0.06606
3139.70231,0.06613
3137.64213,0.06608
3135.58196,0.06599
3133.52179,0.06597
3131.46162,0.06582
3129.40145,0.06544
3127.34127,0.06493
3125.28110,0.06446
3123.22093,0.06419
3121.16076,0.06405
3119.10058,0.06374
3117.04041,0.06345
3114.98024,0.06344
3112.92007,0.06332
3110.85990,0.06297
3108.79972,0.06268
3106.73955,0.06222
3104.67938,0.06142
3102.61921,0.06091
3100.55904,0.06105
3098.49886,0.06135
3096.43869,0.06138
3094.37852,0.06102
3092.31835,0.06050
3090.25818,0.06010
3088.19800,0.05970
3086.13783,0.05924
3084.07766,0.05894
3082.01749,0.05884
3079.95731,0.05860
3077.89714,0.05824
3075.83697,0.05808
3073.77680,0.05798
3071.71663,0.05764
3069.65645,0.05716
3067.59628,0.05673
3065.53611,0.05638
3063.47594,0.05608
3061.41577,0.05573
3059.35559,0.05542
3057.29542,0.05525
3055.23525,0.05503
3053.17508,0.05470
3051.11491,0.05430
3049.05473,0.05373
3046.99456,0.05329
3044.93439,0.05308
3042.87422,0.05283
3040.81404,0.05247
3038.75387,0.05207
3036.69370,0.05165
3034.63353,0.05128
3032.57336,0.05109
3030.51318,0.05105
3028.45301,0.05085
3026.39284,0.05047
3024.33267,0.05014
3022.27250,0.04970
3020.21232,0.04909
3018.15215,0.04853
3016.09198,0.04808
3014.03181,0.04781
3011.97163,0.04766
3009.91146,0.04737
3007.85129,0.04692
3005.79112,0.04651
3003.73095,0.04626
3001.67077,0.04620
2999.61060,0.04622
2997.55043,0.04605
2995.49026,0.04550
2993.43009,0.04484
2991.36991,0.04449
2989.30974,0.04432
2987.24957,0.04402
2985.18940,0.04370
2983.12923,0.04355
2981.06905,0.04342
2979.00888,0.04326
2976.94871,0.04328
2974.88854,0.04324
2972.82836,0.04292
2970.76819,0.04264
2968.70802,0.04264
2966.64785,0.04270
2964.58768,0.04259
2962.52750,0.04232
2960.46733,0.04199
2958.40716,0.04165
2956.34699,0.04138
2954.28682,0.04116
2952.22664,0.04084
2950.16647,0.04072
2948.10630,0.04109
2946.04613,0.04144
2943.98596,0.04130
2941.92578,0.04100
2939.86561,0.04086
2937.80544,0.04080
2935.74527,0.04069
2933.68509,0.04068
2931.62492,0.04072
2929.56475,0.04066
2927.50458,0.04053
2925.44441,0.04011
2923.38423,0.03956
2921.32406,0.03931
2919.26389,0.03913
2917.20372,0.03882
2915.14355,0.03866
2913.08337,0.03873
2911.02320,0.03864
2908.96303,0.03816
2906.90286,0.03771
2904.84268,0.03761
2902.78251,0.03739
2900.72234,0.03699
2898.66217,0.03687
2896.60200,0.03694
2894.54182,0.03680
2892.48165,0.03645
2890.42148,0.03616
2888.36131,0.03606
2886.30114,0.03597
2884.24096,0.03582
2882.18079,0.03565
2880.12062,0.03545
2878.06045,0.03545
2876.00028,0.03554
2873.94010,0.03544
2871.87993,0.03518
2869.81976,0.03491
2867.75959,0.03476
2865.69941,0.03477
2863.63924,0.03474
2861.57907,0.03454
2859.51890,0.03429
2857.45873,0.03402
2855.39855,0.03373
2853.33838,0.03352
2851.27821,0.03329
2849.21804,0.03305
2847.15787,0.03299
2845.09769,0.03296
2843.03752,0.03269
2840.97735,0.03229
2838.91718,0.03209
2836.85700,0.03201
2834.79683,0.03178
2832.73666,0.03142
2830.67649,0.03114
2828.61632,0.03092
2826.55614,0.03062
2824.49597,0.03025
2822.43580,0.03000
2820.37563,0.03004
2818.31546,0.03016
2816.25528,0.03010
2814.19511,0.02986
2812.13494,0.02960
2810.07477,0.02939
2808.01460,0.02908
2805.95442,0.02875
2803.89425,0.02855
2801.83408,0.02842
2799.77391,0.02826
2797.71373,0.02814
2795.65356,0.02819
2793.59339,0.02826
2791.53322,0.02808
2789.47305,0.02779
2787.41287,0.02767
2785.35270,0.02766
2783.29253,0.02760
2781.23236,0.02736
2779.17219,0.02699
2777.11201,0.02672
2775.05184,0.02665
2772.99167,0.02654
2770.93150,0.02622
2768.87133,0.02592
2766.81115,0.02582
2764.75098,0.02578
2762.69081,0.02569
2760.63064,0.02568
2758.57046,0.02562
2756.51029,0.02530
2754.45012,0.02500
2752.38995,0.02493
2750.32978,0.02491
2748.26960,0.02482
2746.20943,0.02479
2744.14926,0.02481
2742.08909,0.02467
2740.02892,0.02433
2737.96874,0.02393
2735.90857,0.02355
2733.84840,0.02335
2731.78823,0.02335
2729.72805,0.02335
2727.66788,0.02320
2725.60771,0.02301
2723.54754,0.02287
2721.48737,0.02275
2719.42719,0.02257
2717.36702,0.02236
2715.30685,0.02215
2713.24668,0.02204
2711.18651,0.02199
2709.12633,0.02181
2707.06616,0.02165
2705.00599,0.02155
2702.94582,0.02131
2700.88565,0.02107
2698.82547,0.02085
2696.76530,0.02046
2694.70513,0.02013
2692.64496,0.02015
2690.58478,0.02034
2688.52461,0.02032
2686.46444,0.02005
2684.40427,0.01982
2682.34410,0.01964
2680.28392,0.01956
2678.22375,0.01946
2676.16358,0.01904
2674.10341,0.01861
2672.04324,0.01861
2669.98306,0.01881
2667.92289,0.01873
2665.86272,0.01833
2663.80255,0.01803
2661.74238,0.01805
2659.68220,0.01807
2657.62203,0.01778
2655.56186,0.01741
2653.50169,0.01731
2651.44151,0.01735
2649.38134,0.01719
2647.32117,0.01704
2645.26100,0.01709
2643.20083,0.01699
2641.14065,0.01657
2639.08048,0.01604
2637.02031,0.01565
2634.96014,0.01553
2632.89997,0.01552
2630.83979,0.01538
2628.77962,0.01530
2626.71945,0.01542
2624.65928,0.01550
2622.59910,0.01548
2620.53893,0.01513
2618.47876,0.01459
2616.41859,0.01446
2614.35842,0.01450
2612.29824,0.01426
2610.23807,0.01409
2608.17790,0.01423
2606.11773,0.01420
2604.05756,0.01381
2601.99738,0.01326
2599.93721,0.01291
2597.87704,0.01303
2595.81687,0.01331
2593.75670,0.01333
2591.69652,0.01323
2589.63635,0.01325
2587.57618,0.01328
2585.51601,0.01311
2583.45583,0.01286
2581.39566,0.01279
2579.33549,0.01295
2577.27532,0.01312
2575.21515,0.01298
2573.15497,0.01275
2571.09480,0.01284
2569.03463,0.01299
2566.97446,0.01296
2564.91429,0.01275
2562.85411,0.01257
2560.79394,0.01267
2558.73377,0.01281
2556.67360,0.01258
2554.61342,0.01228
2552.55325,0.01228
2550.49308,0.01228
2548.43291,0.01201
2546.37274,0.01194
2544.31256,0.01233
2542.25239,0.01258
2540.19222,0.01252
2538.13205,0.01246
2536.07188,0.01232
2534.01170,0.01219
2531.95153,0.01247
2529.89136,0.01310
2527.83119,0.01348
2525.77102,0.01317
2523.71084,0.01245
2521.65067,0.01191
2519.59050,0.01198
2517.53033,0.01244
2515.47015,0.01272
2513.40998,0.01262
2511.34981,0.01234
2509.28964,0.01233
2507.22947,0.01263
2505.16929,0.01298
2503.10912,0.01335
2501.04895,0.01348
2498.98878,0.01342
2496.92861,0.01360
2494.86843,0.01390
2492.80826,0.01378
2490.74809,0.01330
2488.68792,0.01295
2486.62775,0.01297
2484.56757,0.01319
2482.50740,0.01340
2480.44723,0.01349
2478.38706,0.01325
2476.32688,0.01284
2474.26671,0.01252
2472.20654,0.01246
2470.14637,0.01286
2468.08620,0.01340
2466.02602,0.01354
2463.96585,0.01351
2461.90568,0.01362
2459.84551,0.01364
2457.78534,0.01351
2455.72516,0.01355
2453.66499,0.01353
2451.60482,0.01332
2449.54465,0.01346
2447.48447,0.01364
2445.42430,0.01366
2443.36413,0.01399
2441.30396,0.01432
2439.24379,0.01424
2437.18361,0.01390
2435.12344,0.01379
2433.06327,0.01421
2431.00310,0.01474
2428.94293,0.01477
2426.88275,0.01435
2424.82258,0.01394
2422.76241,0.01380
2420.70224,0.01385
2418.64207,0.01395
2416.58189,0.01390
2414.52172,0.01374
2412.46155,0.01371
2410.40138,0.01405
2408.34120,0.01439
2406.28103,0.01434
2404.22086,0.01410
2402.16069,0.01390
2400.10052,0.01377
2398.04034,0.01375
2395.98017,0.01391
2393.92000,0.01414
2391.85983,0.01419
2389.79966,0.01410
2387.73948,0.01397
2385.67931,0.01387
2383.61914,0.01402
2381.55897,0.01445
2379.49880,0.01489
2377.43862,0.01533
2375.37845,0.01595
2373.31828,0.01592
2371.25811,0.01520
2369.19793,0.01526
2367.13776,0.01602
2365.07759,0.01645
2363.01742,0.01672
2360.95725,0.01523
2358.89707,0.01504
2356.83690,0.01623
2354.77673,0.01674
2352.71656,0.01574
2350.65639,0.01290
2348.59621,0.01170
2346.53604,0.01470
2344.47587,0.01479
2342.41570,0.01307
2340.35552,0.01216
2338.29535,0.01195
2336.23518,0.01171
2334.17501,0.01142
2332.11484,0.01225
2330.05466,0.01400
2327.99449,0.01577
2325.93432,0.01580
2323.87415,0.01525
2321.81398,0.01437
2319.75380,0.01396
2317.69363,0.01331
2315.63346,0.01322
2313.57329,0.01356
2311.51312,0.01382
2309.45294,0.01398
2307.39277,0.01393
2305.33260,0.01391
2303.27243,0.01387
2301.21225,0.01352
2299.15208,0.01290
2297.09191,0.01264
2295.03174,0.01268
2292.97157,0.01269
2290.91139,0.01276
2288.85122,0.01261
2286.79105,0.01200
2284.73088,0.01143
2282.67071,0.01126
2280.61053,0.01127
2278.55036,0.01104
2276.49019,0.01066
2274.43002,0.01058
2272.36984,0.01091
2270.30967,0.01105
2268.24950,0.01062
2266.18933,0.01017
2264.12916,0.01001
2262.06898,0.01000
2260.00881,0.01017
2257.94864,0.01049
2255.88847,0.01075
2253.82830,0.01077
2251.76812,0.01051
2249.70795,0.01023
2247.64778,0.01006
2245.58761,0.00960
2243.52744,0.00869
2241.46726,0.00757
2239.40709,0.00701
2237.34692,0.00772
2235.28675,0.00913
2233.22657,0.00996
2231.16640,0.00999
2229.10623,0.00996
2227.04606,0.00956
2224.98589,0.00884
2222.92571,0.00895
2220.86554,0.00929
2218.80537,0.00888
2216.74520,0.00841
2214.68503,0.00824
2212.62485,0.00831
2210.56468,0.00877
2208.50451,0.00892
2206.44434,0.00846
2204.38417,0.00826
2202.32399,0.00804
2200.26382,0.00665
2198.20365,0.00513
2196.14348,0.00555
2194.08330,0.00744
2192.02313,0.00874
2189.96296,0.00821
2187.90279,0.00665
2185.84262,0.00611
2183.78244,0.00682
2181.72227,0.00725
2179.66210,0.00644
2177.60193,0.00458
2175.54176,0.00302
2173.48158,0.00376
2171.42141,0.00587
2169.36124,0.00631
2167.30107,0.00473
2165.24089,0.00306
2163.18072,0.00200
2161.12055,0.00106
2159.06038,0.00054
2157.00021,0.00141
2154.94003,0.00303
2152.87986,0.00392
2150.81969,0.00422
2148.75952,0.00485
2146.69935,0.00590
2144.63917,0.00612
2142.57900,0.00530
2140.51883,0.00486
2138.45866,0.00443
2136.39849,0.00359
2134.33831,0.00331
2132.27814,0.00351
2130.21797,0.00373
2128.15780,0.00453
2126.09762,0.00605
2124.03745,0.00678
2121.97728,0.00602
2119.91711,0.00512
2117.85694,0.00509
2115.79676,0.00570
2113.73659,0.00583
2111.67642,0.00497
2109.61625,0.00470
2107.55608,0.00512
2105.49590,0.00501
2103.43573,0.00461
2101.37556,0.00431
2099.31539,0.00440
2097.25521,0.00493
2095.19504,0.00539
2093.13487,0.00536
2091.07470,0.00520
2089.01453,0.00513
2086.95435,0.00496
2084.89418,0.00496
2082.83401,0.00511
2080.77384,0.00511
2078.71367,0.00488
2076.65349,0.00497
2074.59332,0.00545
2072.53315,0.00524
2070.47298,0.00462
2068.41281,0.00462
2066.35263,0.00452
2064.29246,0.00385
2062.23229,0.00341
2060.17212,0.00323
2058.11194,0.00352
2056.05177,0.00440
2053.99160,0.00485
2051.93143,0.00450
2049.87126,0.00371
2047.81108,0.00292
2045.75091,0.00246
2043.69074,0.00202
2041.63057,0.00192
2039.57040,0.00261
2037.51022,0.00340
2035.45005,0.00365
2033.38988,0.00284
2031.32971,0.00142
2029.26954,0.00081
2027.20936,0.00093
2025.14919,0.00124
2023.08902,0.00182
2021.02885,0.00226
2018.96867,0.00263
2016.90850,0.00279
2014.84833,0.00228
2012.78816,0.00201
2010.72799,0.00194
2008.66781,0.00120
2006.60764,0.00037
2004.54747,0.00042
2002.48730,0.00118
2000.42713,0.00175
1998.36695,0.00175
1996.30678,0.00192
1994.24661,0.00273
1992.18644,0.00308
1990.12626,0.00247
1988.06609,0.00181
1986.00592,0.00154
1983.94575,0.00153
1981.88558,0.00120
1979.82540,0.00025
1977.76523,0.00000
1975.70506,0.00150
1973.64489,0.00271
1971.58472,0.00211
1969.52454,0.00214
1967.46437,0.00354
1965.40420,0.00359
1963.34403,0.00231
1961.28386,0.00144
1959.22368,0.00122
1957.16351,0.00158
1955.10334,0.00187
1953.04317,0.00146
1950.98299,0.00113
1948.92282,0.00117
1946.86265,0.00134
1944.80248,0.00188
1942.74231,0.00225
1940.68213,0.00177
1938.62196,0.00111
1936.56179,0.00089
1934.50162,0.00091
1932.44145,0.00113
1930.38127,0.00156
1928.32110,0.00201
1926.26093,0.00231
1924.20076,0.00238
1922.14059,0.00243
1920.08041,0.00288
1918.02024,0.00333
1915.96007,0.00330
1913.89990,0.00299
1911.83972,0.00258
1909.77955,0.00207
1907.71938,0.00158
1905.65921,0.00133
1903.59904,0.00147
1901.53886,0.00195
1899.47869,0.00248
1897.41852,0.00290
1895.35835,0.00306
1893.29818,0.00273
1891.23800,0.00216
1889.17783,0.00208
1887.11766,0.00273
1885.05749,0.00320
1882.99731,0.00289
1880.93714,0.00223
1878.87697,0.00194
1876.81680,0.00222
1874.75663,0.00273
1872.69645,0.00294
1870.63628,0.00277
1868.57611,0.00262
1866.51594,0.00263
1864.45577,0.00263
1862.39559,0.00262
1860.33542,0.00256
1858.27525,0.00239
1856.21508,0.00226
1854.15491,0.00231
1852.09473,0.00243
1850.03456,0.00247
1847.97439,0.00251
1845.91422,0.00253
1843.85404,0.00225
1841.79387,0.00200
1839.73370,0.00226
1837.67353,0.00283
1835.61336,0.00325
1833.55318,0.00334
1831.49301,0.00317
1829.43284,0.00287
1827.37267,0.00270
1825.31250,0.00285
1823.25232,0.00317
1821.19215,0.00329
1819.13198,0.00315
1817.07181,0.00310
1815.01163,0.00331
1812.95146,0.00353
1810.89129,0.00360
1808.83112,0.00363
1806.77095,0.00366
1804.71077,0.00366
1802.65060,0.00358
1800.59043,0.00350
1798.53026,0.00357
1796.47009,0.00363
1794.40991,0.00356
1792.34974,0.00354
1790.28957,0.00363
1788.22940,0.00371
1786.16923,0.00376
1784.10905,0.00376
1782.04888,0.00373
1779.98871,0.00367
1777.92854,0.00368
1775.86836,0.00391
1773.80819,0.00426
1771.74802,0.00458
1769.68785,0.00473
1767.62768,0.00466
1765.56750,0.00448
1763.50733,0.00446
1761.44716,0.00470
1759.38699,0.00505
1757.32682,0.00526
1755.26664,0.00534
1753.20647,0.00541
1751.14630,0.00546
1749.08613,0.00557
1747.02596,0.00574
1744.96578,0.00587
1742.90561,0.00596
1740.84544,0.00610
1738.78527,0.00621
1736.72509,0.00623
1734.66492,0.00639
1732.60475,0.00692
1730.54458,0.00754
1728.48441,0.00804
1726.42423,0.00848
1724.36406,0.00883
1722.30389,0.00900
1720.24372,0.00902
1718.18355,0.00901
1716.12337,0.00916
1714.06320,0.00953
1712.00303,0.01004
1709.94286,0.01045
1707.88268,0.01069
1705.82251,0.01096
1703.76234,0.01138
1701.70217,0.01179
1699.64200,0.01210
1697.58182,0.01255
1695.52165,0.01325
1693.46148,0.01392
1691.40131,0.01446
1689.34114,0.01501
1687.28096,0.01565
1685.22079,0.01640
1683.16062,0.01721
1681.10045,0.01786
1679.04028,0.01830
1676.98010,0.01870
1674.91993,0.01922
1672.85976,0.01987
1670.79959,0.02060
1668.73941,0.02142
1666.67924,0.02206
1664.61907,0.02242
1662.55890,0.02274
1660.49873,0.02319
1658.43855,0.02366
1656.37838,0.02416
1654.31821,0.02462
1652.25804,0.02460
1650.19787,0.02403
1648.13769,0.02356
1646.07752,0.02361
1644.01735,0.02389
1641.95718,0.02388
1639.89701,0.02368
1637.83683,0.02341
1635.77666,0.02297
1633.71649,0.02266
1631.65632,0.02262
1629.59614,0.02247
1627.53597,0.02201
1625.47580,0.02145
1623.41563,0.02097
1621.35546,0.02056
1619.29528,0.02010
1617.23511,0.01955
1615.17494,0.01920
1613.11477,0.01917
1611.05460,0.01913
1608.99442,0.01882
1606.93425,0.01827
1604.87408,0.01774
1602.81391,0.01735
1600.75373,0.01705
1598.69356,0.01667
1596.63339,0.01606
1594.57322,0.01526
1592.51305,0.01462
1590.45287,0.01422
1588.39270,0.01381
1586.33253,0.01326
1584.27236,0.01268
1582.21219,0.01209
1580.15201,0.01158
1578.09184,0.01115
1576.03167,0.01060
1573.97150,0.01006
1571.91133,0.00978
1569.85115,0.00965
1567.79098,0.00937
1565.73081,0.00888
1563.67064,0.00846
1561.61046,0.00846
1559.55029,0.00852
1557.49012,0.00807
1555.42995,0.00742
1553.36978,0.00698
1551.30960,0.00681
1549.24943,0.00668
1547.18926,0.00641
1545.12909,0.00609
1543.06892,0.00586
1541.00874,0.00556
1538.94857,0.00500
1536.88840,0.00462
1534.82823,0.00449
1532.76805,0.00431
1530.70788,0.00418
1528.64771,0.00428
1526.58754,0.00442
1524.52737,0.00435
1522.46719,0.00398
1520.40702,0.00342
1518.34685,0.00305
1516.28668,0.00309
1514.22651,0.00327
1512.16633,0.00334
1510.10616,0.00340
1508.04599,0.00332
1505.98582,0.00276
1503.92565,0.00218
1501.86547,0.00188
1499.80530,0.00168
1497.74513,0.00159
1495.68496,0.00179
1493.62478,0.00218
1491.56461,0.00247
1489.50444,0.00247
1487.44427,0.00225
1485.38410,0.00208
1483.32392,0.00207
1481.26375,0.00217
1479.20358,0.00233
1477.14341,0.00256
1475.08324,0.00287
1473.02306,0.00320
1470.96289,0.00332
1468.90272,0.00320
1466.84255,0.00306
1464.78238,0.00295
1462.72220,0.00289
1460.66203,0.00295
1458.60186,0.00310
1456.54169,0.00330
1454.48151,0.00345
1452.42134,0.00343
1450.36117,0.00338
1448.30100,0.00340
1446.24083,0.00335
1444.18065,0.00312
1442.12048,0.00290
1440.06031,0.00288
1438.00014,0.00299
1435.93997,0.00299
1433.87979,0.00287
1431.81962,0.00288
1429.75945,0.00310
1427.69928,0.00332
1425.63910,0.00347
1423.57893,0.00362
1421.51876,0.00381
1419.45859,0.00398
1417.39842,0.00408
1415.33824,0.00402
1413.27807,0.00386
1411.21790,0.00374
1409.15773,0.00366
1407.09756,0.00353
1405.03738,0.00333
1402.97721,0.00310
1400.91704,0.00299
1398.85687,0.00302
1396.79670,0.00312
1394.73652,0.00311
1392.67635,0.00293
1390.61618,0.00282
1388.55601,0.00279
1386.49583,0.00270
1384.43566,0.00266
1382.37549,0.00276
1380.31532,0.00289
1378.25515,0.00291
1376.19497,0.00287
1374.13480,0.00280
1372.07463,0.00275
1370.01446,0.00270
1367.95429,0.00268
1365.89411,0.00263
1363.83394,0.00246
1361.77377,0.00219
1359.71360,0.00197
1357.65343,0.00182
1355.59325,0.00172
1353.53308,0.00169
1351.47291,0.00166
1349.41274,0.00158
1347.35256,0.00147
1345.29239,0.00144
1343.23222,0.00161
1341.17205,0.00189
1339.11188,0.00198
1337.05170,0.00182
1334.99153,0.00166
1332.93136,0.00163
1330.87119,0.00168
1328.81102,0.00173
1326.75084,0.00168
1324.69067,0.00155
1322.63050,0.00140
1320.57033,0.00138
1318.51015,0.00154
1316.44998,0.00174
1314.38981,0.00180
1312.32964,0.00175
1310.26947,0.00167
1308.20929,0.00162
1306.14912,0.00164
1304.08895,0.00174
1302.02878,0.00182
1299.96861,0.00185
1297.90843,0.00194
1295.84826,0.00219
1293.78809,0.00248
1291.72792,0.00257
1289.66775,0.00255
1287.60757,0.00265
1285.54740,0.00282
1283.48723,0.00292
1281.42706,0.00302
1279.36688,0.00320
1277.30671,0.00333
1275.24654,0.00329
1273.18637,0.00322
1271.12620,0.00340
1269.06602,0.00375
1267.00585,0.00393
1264.94568,0.00387
1262.88551,0.00382
1260.82534,0.00383
1258.76516,0.00382
1256.70499,0.00383
1254.64482,0.00382
1252.58465,0.00373
1250.52447,0.00360
1248.46430,0.00354
1246.40413,0.00356
1244.34396,0.00342
1242.28379,0.00302
1240.22361,0.00275
1238.16344,0.00275
1236.10327,0.00271
1234.04310,0.00251
1231.98293,0.00226
1229.92275,0.00201
1227.86258,0.00182
1225.80241,0.00173
1223.74224,0.00142
1221.68207,0.00094
1219.62189,0.00062
1217.56172,0.00048
1215.50155,0.00047
1213.44138,0.00050
1211.38120,0.00031
1209.32103,0.00000
1207.26086,-0.00008
1205.20069,0.00003
1203.14052,0.00003
1201.08034,-0.00006
1199.02017,-0.00014
1196.96000,-0.00007
1194.89983,0.00022
1192.83966,0.00066
1190.77948,0.00118
1188.71931,0.00176
1186.65914,0.00239
1184.59897,0.00313
1182.53880,0.00392
1180.47862,0.00467
1178.41845,0.00546
1176.35828,0.00641
1174.29811,0.00753
1172.23793,0.00877
1170.17776,0.00996
1168.11759,0.01091
1166.05742,0.01184
1163.99725,0.01313
1161.93707,0.01451
1159.87690,0.01553
1157.81673,0.01643
1155.75656,0.01756
1153.69639,0.01870
1151.63621,0.01964
1149.57604,0.02063
1147.51587,0.02184
1145.45570,0.02312
1143.39552,0.02441
1141.33535,0.02584
1139.27518,0.02738
1137.21501,0.02884
1135.15484,0.03026
1133.09466,0.03185
1131.03449,0.03362
1128.97432,0.03541
1126.91415,0.03717
1124.85398,0.03878
1122.79380,0.04028
1120.73363,0.04198
1118.67346,0.04408
1116.61329,0.04626
1114.55312,0.04815
1112.49294,0.04981
1110.43277,0.05163
1108.37260,0.05373
1106.31243,0.05584
1104.25225,0.05781
1102.19208,0.05981
1100.13191,0.06174
1098.07174,0.06350
1096.01157,0.06521
1093.95139,0.06682
1091.89122,0.06825
1089.83105,0.06962
1087.77088,0.07089
1085.71071,0.07213
1083.65053,0.07350
1081.59036,0.07499
1079.53019,0.07653
1077.47002,0.07794
1075.40985,0.07891
1073.34967,0.07945
1071.28950,0.07983
1069.22933,0.08025
1067.16916,0.08060
1065.10898,0.08066
1063.04881,0.08031
1060.98864,0.07959
1058.92847,0.07870
1056.86830,0.07791
1054.80812,0.07701
1052.74795,0.07565
1050.68778,0.07415
1048.62761,0.07276
1046.56744,0.07108
1044.50726,0.06894
1042.44709,0.06668
1040.38692,0.06470
1038.32675,0.06298
1036.26657,0.06129
1034.20640,0.05953
1032.14623,0.05760
1030.08606,0.05546
1028.02589,0.05347
1025.96571,0.05193
1023.90554,0.05081
1021.84537,0.04993
1019.78520,0.04885
1017.72503,0.04740
1015.66485,0.04587
1013.60468,0.04453
1011.54451,0.04351
1009.48434,0.04292
1007.42417,0.04286
1005.36399,0.04310
1003.30382,0.04343
1001.24365,0.04386
999.18348,0.04458
997.12330,0.04569
995.06313,0.04716
993.00296,0.04883
990.94279,0.05032
988.88262,0.05137
986.82244,0.05219
984.76227,0.05287
982.70210,0.05290
980.64193,0.05226
978.58176,0.05157
976.52158,0.05060
974.46141,0.04896
972.40124,0.04694
970.34107,0.04472
968.28089,0.04242
966.22072,0.04028
964.16055,0.03811
962.10038,0.03584
960.04021,0.03397
957.98003,0.03253
955.91986,0.03109
953.85969,0.02968
951.79952,0.02869
949.73935,0.02805
947.67917,0.02744
945.61900,0.02683
943.55883,0.02625
941.49866,0.02579
939.43849,0.02548
937.37831,0.02522
935.31814,0.02515
933.25797,0.02509
931.19780,0.02478
929.13762,0.02444
927.07745,0.02419
925.01728,0.02384
922.95711,0.02333
920.89694,0.02275
918.83676,0.02190
916.77659,0.02103
914.71642,0.02055
912.65625,0.02000
910.59608,0.01913
908.53590,0.01842
906.47573,0.01813
904.41556,0.01812
902.35539,0.01812
900.29522,0.01799
898.23504,0.01788
896.17487,0.01785
894.11470,0.01786
892.05453,0.01811
889.99435,0.01839
887.93418,0.01831
885.87401,0.01849
883.81384,0.01949
881.75367,0.02074
879.69349,0.02145
877.63332,0.02187
875.57315,0.02256
873.51298,0.02316
871.45281,0.02334
869.39263,0.02370
867.33246,0.02444
865.27229,0.02496
863.21212,0.02502
861.15194,0.02483
859.09177,0.02456
857.03160,0.02426
854.97143,0.02384
852.91126,0.02319
850.85108,0.02263
848.79091,0.02222
846.73074,0.02154
844.67057,0.02055
842.61040,0.01964
840.55022,0.01890
838.49005,0.01832
836.42988,0.01780
834.36971,0.01714
832.30954,0.01625
830.24936,0.01511
828.18919,0.01393
826.12902,0.01285
824.06885,0.01185
822.00867,0.01107
819.94850,0.01067
817.88833,0.01051
815.82816,0.01044
813.76799,0.01040
811.70781,0.01003
809.64764,0.00949
807.58747,0.00916
805.52730,0.00876
803.46713,0.00825
801.40695,0.00814
799.34678,0.00811
797.28661,0.00747
795.22644,0.00666
793.16627,0.00642
791.10609,0.00631
789.04592,0.00579
786.98575,0.00572
784.92558,0.00632
782.86540,0.00657
780.80523,0.00623
778.74506,0.00573
776.68489,0.00557
774.62472,0.00572
772.56454,0.00524
770.50437,0.00413
768.44420,0.00376
766.38403,0.00431
764.32386,0.00455
762.26368,0.00413
760.20351,0.00390
758.14334,0.00378
756.08317,0.00305
754.02299,0.00214
751.96282,0.00220
749.90265,0.00318
747.84248,0.00390
745.78231,0.00370
743.72213,0.00308
741.66196,0.00256
739.60179,0.00231
737.54162,0.00281
735.48145,0.00397
733.42127,0.00469
731.36110,0.00406
729.30093,0.00279
727.24076,0.00223
725.18059,0.00245
723.12041,0.00264
721.06024,0.00340
719.00007,0.00398
716.93990,0.00427
714.87972,0.00416
712.81955,0.00399
710.75938,0.00413
708.69921,0.00444
706.63904,0.00477
704.57886,0.00471
702.51869,0.00418
700.45852,0.00359
698.39835,0.00311
696.33818,0.00297
694.27800,0.00312
692.21783,0.00299
690.15766,0.00245
688.09749,0.00209
686.03731,0.00221
683.97714,0.00264
681.91697,0.00307
679.85680,0.00311
677.79663,0.00278
675.73645,0.00267
673.67628,0.00198
671.61611,0.00000
669.55594,0.00174
667.49577,0.00516
665.43559,0.00104
663.37542,0.00322
661.31525,0.00532
659.25508,0.00473
657.19491,0.00361
655.13473,0.00404
653.07456,0.00503
651.01439,0.00475
648.95422,0.00376
646.89404,0.00320
644.83387,0.00300
642.77370,0.00183
640.71353,0.00027
638.65336,0.00000
636.59318,0.00128
634.53301,0.00245
632.47284,0.00262
630.41267,0.00249
628.35250,0.00150
626.29232,-0.00081
624.23215,-0.00114
622.17198,0.00080
620.11181,0.00290
618.05164,0.00430
615.99146,0.00508
613.93129,0.00445
611.87112,0.00179
609.81095,0.00082
607.75077,0.00274
605.69060,0.00328
603.63043,0.00154
601.57026,0.00032
599.51009,0.00000
