3996.73391,0.00059
3994.67373,0.00055
3992.61356,0.00089
3990.55339,0.00103
3988.49322,0.00081
3986.43305,0.00061
3984.37287,0.00047
3982.31270,0.00028
3980.25253,0.00015
3978.19236,0.00041
3976.13219,0.00085
3974.07201,0.00082
3972.01184,0.00035
3969.95167,0.00004
3967.89150,0.00000
3965.83133,0.00006
3963.77115,0.00023
3961.71098,0.00031
3959.65081,0.00019
3957.59064,0.00022
3955.53046,0.00042
3953.47029,0.00044
3951.41012,0.00033
3949.34995,0.00045
3947.28978,0.00079
3945.22960,0.00097
3943.16943,0.00086
3941.10926,0.00054
3939.04909,0.00017
3936.98892,0.00015
3934.92874,0.00067
3932.86857,0.00134
3930.80840,0.00145
3928.74823,0.00079
3926.68805,0.00017
3924.62788,0.00025
3922.56771,0.00058
3920.50754,0.00069
3918.44737,0.00074
3916.38719,0.00065
3914.32702,0.00039
3912.26685,0.00036
3910.20668,0.00063
3908.14651,0.00090
3906.08633,0.00106
3904.02616,0.00109
3901.96599,0.00098
3899.90582,0.00084
3897.84565,0.00057
3895.78547,0.00020
3893.72530,0.00006
3891.66513,0.00025
3889.60496,0.00044
3887.54478,0.00050
3885.48461,0.00077
3883.42444,0.00121
3881.36427,0.00109
3879.30410,0.00044
3877.24392,0.00012
3875.18375,0.00033
3873.12358,0.00064
3871.06341,0.00077
3869.00324,0.00097
3866.94306,0.00131
3864.88289,0.00141
3862.82272,0.00115
3860.76255,0.00082
3858.70237,0.00078
3856.64220,0.00131
3854.58203,0.00195
3852.52186,0.00170
3850.46169,0.00077
3848.40151,0.00019
3846.34134,0.00011
3844.28117,0.00023
3842.22100,0.00038
3840.16083,0.00049
3838.10065,0.00062
3836.04048,0.00086
3833.98031,0.00103
3831.92014,0.00095
3829.85997,0.00092
3827.79979,0.00106
3825.73962,0.00102
3823.67945,0.00067
3821.61928,0.00022
3819.55910,0.00000
3817.49893,0.00024
3815.43876,0.00072
3813.37859,0.00094
3811.31842,0.00092
3809.25824,0.00098
3807.19807,0.00099
3805.13790,0.00068
3803.07773,0.00034
3801.01756,0.00042
3798.95738,0.00100
3796.89721,0.00169
3794.83704,0.00183
3792.77687,0.00120
3790.71670,0.00046
3788.65652,0.00029
3786.59635,0.00055
3784.53618,0.00072
3782.47601,0.00073
3780.41583,0.00061
3778.35566,0.00047
3776.29549,0.00063
3774.23532,0.00110
3772.17515,0.00137
3770.11497,0.00109
3768.05480,0.00065
3765.99463,0.00047
3763.93446,0.00061
3761.87429,0.00098
3759.81411,0.00104
3757.75394,0.00055
3755.69377,0.00054
3753.63360,0.00151
3751.57342,0.00240
3749.51325,0.00230
3747.45308,0.00172
3745.39291,0.00124
3743.33274,0.00096
3741.27256,0.00103
3739.21239,0.00130
3737.15222,0.00161
3735.09205,0.00165
3733.03188,0.00137
3730.97170,0.00115
3728.91153,0.00100
3726.85136,0.00101
3724.79119,0.00114
3722.73102,0.00118
3720.67084,0.00114
3718.61067,0.00112
3716.55050,0.00114
3714.49033,0.00118
3712.43015,0.00121
3710.36998,0.00121
3708.30981,0.00126
3706.24964,0.00132
3704.18947,0.00124
3702.12929,0.00096
3700.06912,0.00077
3698.00895,0.00082
3695.94878,0.00089
3693.88861,0.00096
3691.82843,0.00129
3689.76826,0.00187
3687.70809,0.00209
3685.64792,0.00184
3683.58775,0.00164
3681.52757,0.00166
3679.46740,0.00184
3677.40723,0.00195
3675.34706,0.00201
3673.28688,0.00234
3671.22671,0.00287
3669.16654,0.00336
3667.10637,0.00377
3665.04620,0.00415
3662.98602,0.00423
3660.92585,0.00401
3658.86568,0.00397
3656.80551,0.00437
3654.74534,0.00511
3652.68516,0.00599
3650.62499,0.00646
3648.56482,0.00613
3646.50465,0.00569
3644.44447,0.00575
3642.38430,0.00632
3640.32413,0.00725
3638.26396,0.00809
3636.20379,0.00861
3634.14361,0.00901
3632.08344,0.00931
3630.02327,0.00974
3627.96310,0.01054
3625.90293,0.01126
3623.84275,0.01184
3621.78258,0.01254
3619.72241,0.01327
3617.66224,0.01380
3615.60207,0.01410
3613.54189,0.01453
3611.48172,0.01541
3609.42155,0.01639
3607.36138,0.01712
3605.30120,0.01759
3603.24103,0.01785
3601.18086,0.01826
3599.12069,0.01890
3597.06052,0.01934
3595.00034,0.01956
3592.94017,0.02022
3590.88000,0.02150
3588.81983,0.02281
3586.75966,0.02349
3584.69948,0.02355
3582.63931,0.02354
3580.57914,0.02384
3578.51897,0.02451
3576.45879,0.02530
3574.39862,0.02584
3572.33845,0.02601
3570.27828,0.02613
3568.21811,0.02652
3566.15793,0.02715
3564.09776,0.02789
3562.03759,0.02859
3559.97742,0.02906
3557.91725,0.02929
3555.85707,0.02961
3553.79690,0.03005
3551.73673,0.03043
3549.67656,0.03095
3547.61639,0.03180
3545.55621,0.03261
3543.49604,0.03322
3541.43587,0.03387
3539.37570,0.03456
3537.31552,0.03517
3535.25535,0.03584
3533.19518,0.03657
3531.13501,0.03712
3529.07484,0.03748
3527.01466,0.03783
3524.95449,0.03817
3522.89432,0.03851
3520.83415,0.03898
3518.77398,0.03963
3516.71380,0.04031
3514.65363,0.04079
3512.59346,0.04106
3510.53329,0.04137
3508.47312,0.04196
3506.41294,0.04269
3504.35277,0.04320
3502.29260,0.04363
3500.23243,0.04433
3498.17225,0.04499
3496.11208,0.04526
3494.05191,0.04545
3491.99174,0.04585
3489.93157,0.04628
3487.87139,0.04681
3485.81122,0.04753
3483.75105,0.04823
3481.69088,0.04876
3479.63071,0.04920
3477.57053,0.04963
3475.51036,0.04999
3473.45019,0.05026
3471.39002,0.05062
3469.32984,0.05110
3467.26967,0.05177
3465.20950,0.05247
3463.14933,0.05276
3461.08916,0.05278
3459.02898,0.05309
3456.96881,0.05374
3454.90864,0.05436
3452.84847,0.05486
3450.78830,0.05541
3448.72812,0.05587
3446.66795,0.05604
3444.60778,0.05597
3442.54761,0.05612
3440.48744,0.05669
3438.42726,0.05708
3436.36709,0.05695
3434.30692,0.05723
3432.24675,0.05807
3430.18657,0.05865
3428.12640,0.05914
3426.06623,0.05979
3424.00606,0.06002
3421.94589,0.05989
3419.88571,0.06004
3417.82554,0.06043
3415.76537,0.06078
3413.70520,0.06113
3411.64503,0.06148
3409.58485,0.06179
3407.52468,0.06204
3405.46451,0.06225
3403.40434,0.06240
3401.34416,0.06246
3399.28399,0.06272
3397.22382,0.06332
3395.16365,0.06384
3393.10348,0.06406
3391.04330,0.06407
3388.98313,0.06404
3386.92296,0.06406
3384.86279,0.06386
3382.80262,0.06366
3380.74244,0.06394
3378.68227,0.06450
3376.62210,0.06496
3374.56193,0.06533
3372.50176,0.06577
3370.44158,0.06621
3368.38141,0.06645
3366.32124,0.06649
3364.26107,0.06642
3362.20089,0.06626
3360.14072,0.06620
3358.08055,0.06632
3356.02038,0.06642
3353.96021,0.06672
3351.90003,0.06733
3349.83986,0.06771
3347.77969,0.06750
3345.71952,0.06714
3343.65935,0.06729
3341.59917,0.06771
3339.53900,0.06782
3337.47883,0.06768
3335.41866,0.06763
3333.35849,0.06771
3331.29831,0.06781
3329.23814,0.06799
3327.17797,0.06822
3325.11780,0.06828
3323.05762,0.06822
3320.99745,0.06816
3318.93728,0.06813
3316.87711,0.06822
3314.81694,0.06835
3312.75676,0.06831
3310.69659,0.06823
3308.63642,0.06834
3306.57625,0.06850
3304.51608,0.06850
3302.45590,0.06848
3300.39573,0.06871
3298.33556,0.06913
3296.27539,0.06941
3294.21521,0.06948
3292.15504,0.06952
3290.09487,0.06940
3288.03470,0.06897
3285.97453,0.06850
3283.91435,0.06853
3281.85418,0.06894
3279.79401,0.06914
3277.73384,0.06909
3275.67367,0.06914
3273.61349,0.06925
3271.55332,0.06923
3269.49315,0.06926
3267.43298,0.06948
3265.37281,0.06970
3263.31263,0.06986
3261.25246,0.06985
3259.19229,0.06961
3257.13212,0.06942
3255.07194,0.06945
3253.01177,0.06945
3250.95160,0.06928
3248.89143,0.06912
3246.83126,0.06923
3244.77108,0.06953
3242.71091,0.06980
3240.65074,0.07008
3238.59057,0.07035
3236.53040,0.07031
3234.47022,0.06989
3232.41005,0.06948
3230.34988,0.06918
3228.28971,0.06904
3226.22954,0.06928
3224.16936,0.06957
3222.10919,0.06946
3220.04902,0.06909
3217.98885,0.06882
3215.92867,0.06886
3213.86850,0.06910
3211.80833,0.06922
3209.74816,0.06902
3207.68799,0.06847
3205.62781,0.06795
3203.56764,0.06802
3201.50747,0.06842
3199.44730,0.06844
3197.38713,0.06807
3195.32695,0.06789
3193.26678,0.06814
3191.20661,0.06841
3189.14644,0.06817
3187.08626,0.06746
3185.02609,0.06702
3182.96592,0.06700
3180.90575,0.06684
3178.84558,0.06647
3176.78540,0.06625
3174.72523,0.06621
3172.66506,0.06616
3170.60489,0.06610
3168.54472,0.06610
3166.48454,0.06602
3164.42437,0.06570
3162.36420,0.06518
3160.30403,0.06479
3158.24386,0.06457
3156.18368,0.06442
3154.12351,0.06465
3152.06334,0.06510
3150.00317,0.06496
3147.94299,0.06416
3145.88282,0.06346
3143.82265,0.06321
3141.76248,0.06314
3139.70231,0.06308
3137.64213,0.06298
3135.58196,0.06284
3133.52179,0.06265
3131.46162,0.06245
3129.40145,0.06234
3127.34127,0.06222
3125.28110,0.06206
3123.22093,0.06181
3121.16076,0.06132
3119.10058,0.06081
3117.04041,0.06045
3114.98024,0.06019
3112.92007,0.05999
3110.85990,0.05984
3108.79972,0.05957
3106.73955,0.05896
3104.67938,0.05828
3102.61921,0.05808
3100.55904,0.05832
3098.49886,0.05845
3096.43869,0.05817
3094.37852,0.05773
3092.31835,0.05740
3090.25818,0.05704
3088.19800,0.05651
3086.13783,0.05609
3084.07766,0.05613
3082.01749,0.05627
3079.95731,0.05588
3077.89714,0.05521
3075.83697,0.05490
3073.77680,0.05482
3071.71663,0.05451
3069.65645,0.05407
3067.59628,0.05386
3065.53611,0.05380
3063.47594,0.05363
3061.41577,0.05330
3059.35559,0.05294
3057.29542,0.05275
3055.23525,0.05258
3053.17508,0.05210
3051.11491,0.05147
3049.05473,0.05105
3046.99456,0.05076
3044.93439,0.05036
3042.87422,0.04988
3040.81404,0.04938
3038.75387,0.04907
3036.69370,0.04903
3034.63353,0.04893
3032.57336,0.04868
3030.51318,0.04840
3028.45301,0.04807
3026.39284,0.04779
3024.33267,0.04766
3022.27250,0.04731
3020.21232,0.04669
3018.15215,0.04620
3016.09198,0.04591
3014.03181,0.04569
3011.97163,0.04542
3009.91146,0.04510
3007.85129,0.04471
3005.79112,0.04434
3003.73095,0.04406
3001.67077,0.04398
2999.61060,0.04403
2997.55043,0.04387
2995.49026,0.04359
2993.43009,0.04330
2991.36991,0.04291
2989.30974,0.04263
2987.24957,0.04254
2985.18940,0.04248
2983.12923,0.04241
2981.06905,0.04221
2979.00888,0.04182
2976.94871,0.04143
2974.88854,0.04126
2972.82836,0.04129
2970.76819,0.04143
2968.70802,0.04157
2966.64785,0.04152
2964.58768,0.04114
2962.52750,0.04071
2960.46733,0.04051
2958.40716,0.04043
2956.34699,0.04038
2954.28682,0.04019
2952.22664,0.03968
2950.16647,0.03936
2948.10630,0.03968
2946.04613,0.04007
2943.98596,0.03993
2941.92578,0.03955
2939.86561,0.03943
2937.80544,0.03957
2935.74527,0.03963
2933.68509,0.03968
2931.62492,0.03971
2929.56475,0.03963
2927.50458,0.03972
2925.44441,0.03972
2923.38423,0.03915
2921.32406,0.03826
2919.26389,0.03767
2917.20372,0.03750
2915.14355,0.03749
2913.08337,0.03758
2911.02320,0.03767
2908.96303,0.03749
2906.90286,0.03719
2904.84268,0.03699
2902.78251,0.03672
2900.72234,0.03648
2898.66217,0.03651
2896.60200,0.03646
2894.54182,0.03614
2892.48165,0.03591
2890.42148,0.03589
2888.36131,0.03591
2886.30114,0.03581
2884.24096,0.03564
2882.18079,0.03544
2880.12062,0.03520
2878.06045,0.03504
2876.00028,0.03494
2873.94010,0.03487
2871.87993,0.03481
2869.81976,0.03463
2867.75959,0.03438
2865.69941,0.03415
2863.63924,0.03391
2861.57907,0.03378
2859.51890,0.03380
2857.45873,0.03380
2855.39855,0.03369
2853.33838,0.03354
2851.27821,0.03326
2849.21804,0.03292
2847.15787,0.03274
2845.09769,0.03253
2843.03752,0.03208
2840.97735,0.03177
2838.91718,0.03182
2836.85700,0.03180
2834.79683,0.03155
2832.73666,0.03139
2830.67649,0.03130
2828.61632,0.03093
2826.55614,0.03035
2824.49597,0.03007
2822.43580,0.03021
2820.37563,0.03031
2818.31546,0.03012
2816.25528,0.02989
2814.19511,0.02977
2812.13494,0.02967
2810.07477,0.02945
2808.01460,0.02908
2805.95442,0.02870
2803.89425,0.02851
2801.83408,0.02850
2799.77391,0.02843
2797.71373,0.02830
2795.65356,0.02821
2793.59339,0.02807
2791.53322,0.02794
2789.47305,0.02795
2787.41287,0.02801
2785.35270,0.02791
2783.29253,0.02777
2781.23236,0.02771
2779.17219,0.02748
2777.11201,0.02714
2775.05184,0.02686
2772.99167,0.02658
2770.93150,0.02643
2768.87133,0.02652
2766.81115,0.02665
2764.75098,0.02654
2762.69081,0.02619
2760.63064,0.02604
2758.57046,0.02614
2756.51029,0.02607
2754.45012,0.02581
2752.38995,0.02562
2750.32978,0.02543
2748.26960,0.02520
2746.20943,0.02511
2744.14926,0.02512
2742.08909,0.02509
2740.02892,0.02501
2737.96874,0.02475
2735.90857,0.02432
2733.84840,0.02401
2731.78823,0.02404
2729.72805,0.02409
2727.66788,0.02393
2725.60771,0.02371
2723.54754,0.02356
2721.48737,0.02348
2719.42719,0.02333
2717.36702,0.02309
2715.30685,0.02287
2713.24668,0.02276
2711.18651,0.02277
2709.12633,0.02274
2707.06616,0.02251
2705.00599,0.02214
2702.94582,0.02193
2700.88565,0.02201
2698.82547,0.02198
2696.76530,0.02166
2694.70513,0.02145
2692.64496,0.02144
2690.58478,0.02125
2688.52461,0.02092
2686.46444,0.02065
2684.40427,0.02039
2682.34410,0.02021
2680.28392,0.02019
2678.22375,0.02011
2676.16358,0.01980
2674.10341,0.01954
2672.04324,0.01965
2669.98306,0.01990
2667.92289,0.01983
2665.86272,0.01932
2663.80255,0.01886
2661.74238,0.01875
2659.68220,0.01874
2657.62203,0.01860
2655.56186,0.01834
2653.50169,0.01817
2651.44151,0.01815
2649.38134,0.01810
2647.32117,0.01800
2645.26100,0.01782
2643.20083,0.01750
2641.14065,0.01716
2639.08048,0.01693
2637.02031,0.01684
2634.96014,0.01683
2632.89997,0.01667
2630.83979,0.01646
2628.77962,0.01651
2626.71945,0.01675
2624.65928,0.01684
2622.59910,0.01662
2620.53893,0.01602
2618.47876,0.01542
2616.41859,0.01533
2614.35842,0.01542
2612.29824,0.01532
2610.23807,0.01512
2608.17790,0.01492
2606.11773,0.01466
2604.05756,0.01451
2601.99738,0.01444
2599.93721,0.01442
2597.87704,0.01464
2595.81687,0.01479
2593.75670,0.01439
2591.69652,0.01380
2589.63635,0.01367
2587.57618,0.01371
2585.51601,0.01356
2583.45583,0.01373
2581.39566,0.01402
2579.33549,0.01391
2577.27532,0.01384
2575.21515,0.01403
2573.15497,0.01399
2571.09480,0.01371
2569.03463,0.01368
2566.97446,0.01385
2564.91429,0.01396
2562.85411,0.01399
2560.79394,0.01390
2558.73377,0.01377
2556.67360,0.01353
2554.61342,0.01336
2552.55325,0.01355
2550.49308,0.01374
2548.43291,0.01354
2546.37274,0.01342
2544.31256,0.01382
2542.25239,0.01427
2540.19222,0.01431
2538.13205,0.01392
2536.07188,0.01364
2534.01170,0.01379
2531.95153,0.01396
2529.89136,0.01397
2527.83119,0.01410
2525.77102,0.01421
2523.71084,0.01375
2521.65067,0.01299
2519.59050,0.01294
2517.53033,0.01340
2515.47015,0.01345
2513.40998,0.01322
2511.34981,0.01324
2509.28964,0.01356
2507.22947,0.01385
2505.16929,0.01385
2503.10912,0.01383
2501.04895,0.01392
2498.98878,0.01392
2496.92861,0.01401
2494.86843,0.01425
2492.80826,0.01420
2490.74809,0.01381
2488.68792,0.01363
2486.62775,0.01398
2484.56757,0.01452
2482.50740,0.01489
2480.44723,0.01506
2478.38706,0.01474
2476.32688,0.01423
2474.26671,0.01433
2472.20654,0.01470
2470.14637,0.01480
2468.08620,0.01485
2466.02602,0.01480
2463.96585,0.01448
2461.90568,0.01445
2459.84551,0.01481
2457.78534,0.01504
2455.72516,0.01536
2453.66499,0.01576
2451.60482,0.01570
2449.54465,0.01551
2447.48447,0.01531
2445.42430,0.01477
2443.36413,0.01427
2441.30396,0.01431
2439.24379,0.01461
2437.18361,0.01445
2435.12344,0.01426
2433.06327,0.01480
2431.00310,0.01552
2428.94293,0.01559
2426.88275,0.01495
2424.82258,0.01440
2422.76241,0.01464
2420.70224,0.01531
2418.64207,0.01563
2416.58189,0.01551
2414.52172,0.01547
2412.46155,0.01559
2410.40138,0.01571
2408.34120,0.01574
2406.28103,0.01540
2404.22086,0.01497
2402.16069,0.01498
2400.10052,0.01518
2398.04034,0.01518
2395.98017,0.01527
2393.92000,0.01554
2391.85983,0.01575
2389.79966,0.01575
2387.73948,0.01548
2385.67931,0.01516
2383.61914,0.01525
2381.55897,0.01579
2379.49880,0.01630
2377.43862,0.01649
2375.37845,0.01645
2373.31828,0.01601
2371.25811,0.01528
2369.19793,0.01481
2367.13776,0.01444
2365.07759,0.01435
2363.01742,0.01475
2360.95725,0.01425
2358.89707,0.01494
2356.83690,0.01725
2354.77673,0.01856
2352.71656,0.01766
2350.65639,0.01564
2348.59621,0.01480
2346.53604,0.01568
2344.47587,0.01500
2342.41570,0.01387
2340.35552,0.01372
2338.29535,0.01437
2336.23518,0.01511
2334.17501,0.01475
2332.11484,0.01347
2330.05466,0.01287
2327.99449,0.01385
2325.93432,0.01488
2323.87415,0.01536
2321.81398,0.01535
2319.75380,0.01548
2317.69363,0.01549
2315.63346,0.01547
2313.57329,0.01543
2311.51312,0.01536
2309.45294,0.01528
2307.39277,0.01511
2305.33260,0.01497
2303.27243,0.01495
2301.21225,0.01477
2299.15208,0.01421
2297.09191,0.01374
2295.03174,0.01368
2292.97157,0.01383
2290.91139,0.01389
2288.85122,0.01369
2286.79105,0.01326
2284.73088,0.01300
2282.67071,0.01299
2280.61053,0.01287
2278.55036,0.01229
2276.49019,0.01133
2274.43002,0.01074
2272.36984,0.01102
2270.30967,0.01144
2268.24950,0.01137
2266.18933,0.01132
2264.12916,0.01153
2262.06898,0.01157
2260.00881,0.01140
2257.94864,0.01127
2255.88847,0.01129
2253.82830,0.01126
2251.76812,0.01080
2249.70795,0.01034
2247.64778,0.01077
2245.58761,0.01109
2243.52744,0.01010
2241.46726,0.00853
2239.40709,0.00781
2237.34692,0.00840
2235.28675,0.00942
2233.22657,0.01005
2231.16640,0.01021
2229.10623,0.01045
2227.04606,0.01086
2224.98589,0.01041
2222.92571,0.00986
2220.86554,0.01055
2218.80537,0.01092
2216.74520,0.01002
2214.68503,0.00924
2212.62485,0.00920
2210.56468,0.00996
2208.50451,0.01062
2206.44434,0.01013
2204.38417,0.00942
2202.32399,0.00899
2200.26382,0.00845
2198.20365,0.00806
2196.14348,0.00834
2194.08330,0.00910
2192.02313,0.00967
2189.96296,0.00968
2187.90279,0.00926
2185.84262,0.00906
2183.78244,0.00834
2181.72227,0.00649
2179.66210,0.00538
2177.60193,0.00518
2175.54176,0.00522
2173.48158,0.00625
2171.42141,0.00724
2169.36124,0.00687
2167.30107,0.00595
2165.24089,0.00535
2163.18072,0.00442
2161.12055,0.00240
2159.06038,0.00073
2157.00021,0.00123
2154.94003,0.00282
2152.87986,0.00399
2150.81969,0.00446
2148.75952,0.00463
2146.69935,0.00494
2144.63917,0.00497
2142.57900,0.00476
2140.51883,0.00528
2138.45866,0.00606
2136.39849,0.00580
2134.33831,0.00500
2132.27814,0.00505
2130.21797,0.00596
2128.15780,0.00702
2126.09762,0.00791
2124.03745,0.00803
2121.97728,0.00718
2119.91711,0.00674
2117.85694,0.00719
2115.79676,0.00747
2113.73659,0.00714
2111.67642,0.00666
2109.61625,0.00677
2107.55608,0.00747
2105.49590,0.00772
2103.43573,0.00727
2101.37556,0.00689
2099.31539,0.00652
2097.25521,0.00625
2095.19504,0.00669
2093.13487,0.00712
2091.07470,0.00695
2089.01453,0.00672
2086.95435,0.00662
2084.89418,0.00649
2082.83401,0.00657
2080.77384,0.00651
2078.71367,0.00590
2076.65349,0.00571
2074.59332,0.00639
2072.53315,0.00670
2070.47298,0.00639
2068.41281,0.00643
2066.35263,0.00644
2064.29246,0.00603
2062.23229,0.00593
2060.17212,0.00562
2058.11194,0.00525
2056.05177,0.00578
2053.99160,0.00623
2051.93143,0.00542
2049.87126,0.00387
2047.81108,0.00347
2045.75091,0.00455
2043.69074,0.00504
2041.63057,0.00507
2039.57040,0.00602
2037.51022,0.00681
2035.45005,0.00668
2033.38988,0.00578
2031.32971,0.00376
2029.26954,0.00141
2027.20936,0.00000
2025.14919,0.00032
2023.08902,0.00158
2021.02885,0.00248
2018.96867,0.00348
2016.90850,0.00408
2014.84833,0.00327
2012.78816,0.00159
2010.72799,0.00019
2008.66781,0.00037
2006.60764,0.00122
2004.54747,0.00088
2002.48730,0.00018
2000.42713,0.00067
1998.36695,0.00167
1996.30678,0.00224
1994.24661,0.00256
1992.18644,0.00259
1990.12626,0.00264
1988.06609,0.00259
1986.00592,0.00212
1983.94575,0.00232
1981.88558,0.00276
1979.82540,0.00216
1977.76523,0.00242
1975.70506,0.00400
1973.64489,0.00404
1971.58472,0.00299
1969.52454,0.00316
1967.46437,0.00393
1965.40420,0.00404
1963.34403,0.00360
1961.28386,0.00310
1959.22368,0.00292
1957.16351,0.00315
1955.10334,0.00331
1953.04317,0.00296
1950.98299,0.00250
1948.92282,0.00253
1946.86265,0.00294
1944.80248,0.00317
1942.74231,0.00316
1940.68213,0.00313
1938.62196,0.00275
1936.56179,0.00195
1934.50162,0.00125
1932.44145,0.00151
1930.38127,0.00256
1928.32110,0.00319
1926.26093,0.00307
1924.20076,0.00258
1922.14059,0.00225
1920.08041,0.00291
1918.02024,0.00409
1915.96007,0.00448
1913.89990,0.00396
1911.83972,0.00324
1909.77955,0.00285
1907.71938,0.00285
1905.65921,0.00280
1903.59904,0.00253
1901.53886,0.00251
1899.47869,0.00298
1897.41852,0.00359
1895.35835,0.00395
1893.29818,0.00402
1891.23800,0.00367
1889.17783,0.00314
1887.11766,0.00327
1885.05749,0.00405
1882.99731,0.00453
1880.93714,0.00434
1878.87697,0.00404
1876.81680,0.00404
1874.75663,0.00404
1872.69645,0.00365
1870.63628,0.00316
1868.57611,0.00323
1866.51594,0.00385
1864.45577,0.00423
1862.39559,0.00410
1860.33542,0.00372
1858.27525,0.00341
1856.21508,0.00326
1854.15491,0.00324
1852.09473,0.00335
1850.03456,0.00357
1847.97439,0.00368
1845.91422,0.00349
1843.85404,0.00316
1841.79387,0.00318
1839.73370,0.00362
1837.67353,0.00404
1835.61336,0.00422
1833.55318,0.00428
1831.49301,0.00423
1829.43284,0.00401
1827.37267,0.00390
1825.31250,0.00409
1823.25232,0.00439
1821.19215,0.00457
1819.13198,0.00458
1817.07181,0.00456
1815.01163,0.00461
1812.95146,0.00464
1810.89129,0.00459
1808.83112,0.00457
1806.77095,0.00456
1804.71077,0.00456
1802.65060,0.00459
1800.59043,0.00459
1798.53026,0.00457
1796.47009,0.00449
1794.40991,0.00440
1792.34974,0.00445
1790.28957,0.00459
1788.22940,0.00471
1786.16923,0.00481
1784.10905,0.00488
1782.04888,0.00488
1779.98871,0.00478
1777.92854,0.00466
1775.86836,0.00478
1773.80819,0.00515
1771.74802,0.00539
1769.68785,0.00531
1767.62768,0.00517
1765.56750,0.00516
1763.50733,0.00529
1761.44716,0.00550
1759.38699,0.00570
1757.32682,0.00586
1755.26664,0.00608
1753.20647,0.00635
1751.14630,0.00652
1749.08613,0.00664
1747.02596,0.00680
1744.96578,0.00698
1742.90561,0.00714
1740.84544,0.00724
1738.78527,0.00733
1736.72509,0.00751
1734.66492,0.00781
1732.60475,0.00816
1730.54458,0.00833
1728.48441,0.00843
1726.42423,0.00877
1724.36406,0.00922
1722.30389,0.00950
1720.24372,0.00968
1718.18355,0.00990
1716.12337,0.01009
1714.06320,0.01023
1712.00303,0.01049
1709.94286,0.01093
1707.88268,0.01129
1705.82251,0.01150
1703.76234,0.01182
1701.70217,0.01234
1699.64200,0.01287
1697.58182,0.01339
1695.52165,0.01392
1693.46148,0.01437
1691.40131,0.01477
1689.34114,0.01527
1687.28096,0.01599
1685.22079,0.01675
1683.16062,0.01731
1681.10045,0.01778
1679.04028,0.01830
1676.98010,0.01884
1674.91993,0.01942
1672.85976,0.01997
1670.79959,0.02050
1668.73941,0.02115
1666.67924,0.02174
1664.61907,0.02211
1662.55890,0.02234
1660.49873,0.02261
1658.43855,0.02301
1656.37838,0.02352
1654.31821,0.02389
1652.25804,0.02373
1650.19787,0.02339
1648.13769,0.02332
1646.07752,0.02354
1644.01735,0.02375
1641.95718,0.02365
1639.89701,0.02343
1637.83683,0.02314
1635.77666,0.02247
1633.71649,0.02183
1631.65632,0.02173
1629.59614,0.02175
1627.53597,0.02157
1625.47580,0.02131
1623.41563,0.02105
1621.35546,0.02074
1619.29528,0.02036
1617.23511,0.01988
1615.17494,0.01947
1613.11477,0.01925
1611.05460,0.01908
1608.99442,0.01880
1606.93425,0.01843
1604.87408,0.01807
1602.81391,0.01777
1600.75373,0.01746
1598.69356,0.01698
1596.63339,0.01628
1594.57322,0.01544
1592.51305,0.01471
1590.45287,0.01416
1588.39270,0.01368
1586.33253,0.01321
1584.27236,0.01276
1582.21219,0.01232
1580.15201,0.01193
1578.09184,0.01157
1576.03167,0.01109
1573.97150,0.01058
1571.91133,0.01019
1569.85115,0.00988
1567.79098,0.00961
1565.73081,0.00929
1563.67064,0.00892
1561.61046,0.00873
1559.55029,0.00870
1557.49012,0.00841
1555.42995,0.00777
1553.36978,0.00714
1551.30960,0.00689
1549.24943,0.00693
1547.18926,0.00693
1545.12909,0.00682
1543.06892,0.00668
1541.00874,0.00637
1538.94857,0.00576
1536.88840,0.00528
1534.82823,0.00504
1532.76805,0.00476
1530.70788,0.00458
1528.64771,0.00474
1526.58754,0.00512
1524.52737,0.00545
1522.46719,0.00539
1520.40702,0.00469
1518.34685,0.00386
1516.28668,0.00349
1514.22651,0.00353
1512.16633,0.00374
1510.10616,0.00396
1508.04599,0.00383
1505.98582,0.00320
1503.92565,0.00278
1501.86547,0.00270
1499.80530,0.00266
1497.74513,0.00271
1495.68496,0.00293
1493.62478,0.00311
1491.56461,0.00320
1489.50444,0.00316
1487.44427,0.00299
1485.38410,0.00289
1483.32392,0.00290
1481.26375,0.00294
1479.20358,0.00305
1477.14341,0.00318
1475.08324,0.00326
1473.02306,0.00335
1470.96289,0.00344
1468.90272,0.00352
1466.84255,0.00366
1464.78238,0.00371
1462.72220,0.00365
1460.66203,0.00376
1458.60186,0.00407
1456.54169,0.00435
1454.48151,0.00432
1452.42134,0.00403
1450.36117,0.00385
1448.30100,0.00394
1446.24083,0.00407
1444.18065,0.00405
1442.12048,0.00394
1440.06031,0.00379
1438.00014,0.00371
1435.93997,0.00370
1433.87979,0.00371
1431.81962,0.00380
1429.75945,0.00398
1427.69928,0.00408
1425.63910,0.00415
1423.57893,0.00437
1421.51876,0.00467
1419.45859,0.00491
1417.39842,0.00502
1415.33824,0.00490
1413.27807,0.00465
1411.21790,0.00450
1409.15773,0.00447
1407.09756,0.00440
1405.03738,0.00422
1402.97721,0.00401
1400.91704,0.00389
1398.85687,0.00388
1396.79670,0.00394
1394.73652,0.00388
1392.67635,0.00369
1390.61618,0.00359
1388.55601,0.00348
1386.49583,0.00329
1384.43566,0.00319
1382.37549,0.00329
1380.31532,0.00355
1378.25515,0.00384
1376.19497,0.00404
1374.13480,0.00396
1372.07463,0.00363
1370.01446,0.00338
1367.95429,0.00334
1365.89411,0.00334
1363.83394,0.00321
1361.77377,0.00305
1359.71360,0.00297
1357.65343,0.00288
1355.59325,0.00274
1353.53308,0.00263
1351.47291,0.00260
1349.41274,0.00257
1347.35256,0.00245
1345.29239,0.00234
1343.23222,0.00249
1341.17205,0.00277
1339.11188,0.00280
1337.05170,0.00255
1334.99153,0.00236
1332.93136,0.00226
1330.87119,0.00219
1328.81102,0.00213
1326.75084,0.00210
1324.69067,0.00208
1322.63050,0.00211
1320.57033,0.00224
1318.51015,0.00240
1316.44998,0.00252
1314.38981,0.00252
1312.32964,0.00238
1310.26947,0.00224
1308.20929,0.00224
1306.14912,0.00236
1304.08895,0.00243
1302.02878,0.00243
1299.96861,0.00253
1297.90843,0.00275
1295.84826,0.00291
1293.78809,0.00289
1291.72792,0.00275
1289.66775,0.00276
1287.60757,0.00297
1285.54740,0.00314
1283.48723,0.00324
1281.42706,0.00345
1279.36688,0.00368
1277.30671,0.00369
1275.24654,0.00353
1273.18637,0.00353
1271.12620,0.00377
1269.06602,0.00403
1267.00585,0.00412
1264.94568,0.00420
1262.88551,0.00432
1260.82534,0.00433
1258.76516,0.00422
1256.70499,0.00422
1254.64482,0.00430
1252.58465,0.00421
1250.52447,0.00394
1248.46430,0.00376
1246.40413,0.00367
1244.34396,0.00347
1242.28379,0.00310
1240.22361,0.00275
1238.16344,0.00258
1236.10327,0.00253
1234.04310,0.00242
1231.98293,0.00220
1229.92275,0.00201
1227.86258,0.00187
1225.80241,0.00173
1223.74224,0.00150
1221.68207,0.00112
1219.62189,0.00076
1217.56172,0.00061
1215.50155,0.00064
1213.44138,0.00058
1211.38120,0.00026
1209.32103,0.00000
1207.26086,0.00002
1205.20069,0.00010
1203.14052,0.00016
1201.08034,0.00035
1199.02017,0.00047
1196.96000,0.00046
1194.89983,0.00058
1192.83966,0.00096
1190.77948,0.00150
1188.71931,0.00202
1186.65914,0.00252
1184.59897,0.00320
1182.53880,0.00399
1180.47862,0.00475
1178.41845,0.00556
1176.35828,0.00660
1174.29811,0.00783
1172.23793,0.00900
1170.17776,0.00994
1168.11759,0.01083
1166.05742,0.01187
1163.99725,0.01302
1161.93707,0.01417
1159.87690,0.01525
1157.81673,0.01634
1155.75656,0.01747
1153.69639,0.01844
1151.63621,0.01933
1149.57604,0.02047
1147.51587,0.02178
1145.45570,0.02291
1143.39552,0.02403
1141.33535,0.02549
1139.27518,0.02711
1137.21501,0.02852
1135.15484,0.02987
1133.09466,0.03131
1131.03449,0.03277
1128.97432,0.03436
1126.91415,0.03611
1124.85398,0.03778
1122.79380,0.03940
1120.73363,0.04110
1118.67346,0.04282
1116.61329,0.04441
1114.55312,0.04595
1112.49294,0.04768
1110.43277,0.04957
1108.37260,0.05154
1106.31243,0.05355
1104.25225,0.05543
1102.19208,0.05709
1100.13191,0.05855
1098.07174,0.06011
1096.01157,0.06188
1093.95139,0.06339
1091.89122,0.06466
1089.83105,0.06602
1087.77088,0.06735
1085.71071,0.06855
1083.65053,0.06983
1081.59036,0.07119
1079.53019,0.07247
1077.47002,0.07360
1075.40985,0.07437
1073.34967,0.07476
1071.28950,0.07518
1069.22933,0.07564
1067.16916,0.07578
1065.10898,0.07565
1063.04881,0.07559
1060.98864,0.07525
1058.92847,0.07438
1056.86830,0.07350
1054.80812,0.07267
1052.74795,0.07158
1050.68778,0.07030
1048.62761,0.06892
1046.56744,0.06733
1044.50726,0.06563
1042.44709,0.06388
1040.38692,0.06207
1038.32675,0.06028
1036.26657,0.05846
1034.20640,0.05668
1032.14623,0.05497
1030.08606,0.05330
1028.02589,0.05163
1025.96571,0.05000
1023.90554,0.04864
1021.84537,0.04765
1019.78520,0.04658
1017.72503,0.04511
1015.66485,0.04367
1013.60468,0.04275
1011.54451,0.04215
1009.48434,0.04168
1007.42417,0.04148
1005.36399,0.04143
1003.30382,0.04121
1001.24365,0.04119
999.18348,0.04198
997.12330,0.04346
995.06313,0.04494
993.00296,0.04610
990.94279,0.04711
988.88262,0.04807
986.82244,0.04889
984.76227,0.04937
982.70210,0.04942
980.64193,0.04905
978.58176,0.04818
976.52158,0.04708
974.46141,0.04590
972.40124,0.04433
970.34107,0.04213
968.28089,0.03958
966.22072,0.03733
964.16055,0.03550
962.10038,0.03363
960.04021,0.03179
957.98003,0.03006
955.91986,0.02831
953.85969,0.02690
951.79952,0.02613
949.73935,0.02571
947.67917,0.02522
945.61900,0.02480
943.55883,0.02454
941.49866,0.02419
939.43849,0.02370
937.37831,0.02316
935.31814,0.02282
933.25797,0.02281
931.19780,0.02272
929.13762,0.02231
927.07745,0.02177
925.01728,0.02112
922.95711,0.02044
920.89694,0.01997
918.83676,0.01952
916.77659,0.01895
914.71642,0.01835
912.65625,0.01770
910.59608,0.01712
908.53590,0.01672
906.47573,0.01647
904.41556,0.01651
902.35539,0.01671
900.29522,0.01666
898.23504,0.01639
896.17487,0.01626
894.11470,0.01633
892.05453,0.01651
889.99435,0.01674
887.93418,0.01695
885.87401,0.01735
883.81384,0.01802
881.75367,0.01861
879.69349,0.01903
877.63332,0.01947
875.57315,0.01984
873.51298,0.02021
871.45281,0.02079
869.39263,0.02152
867.33246,0.02217
865.27229,0.02270
863.21212,0.02293
861.15194,0.02267
859.09177,0.02220
857.03160,0.02172
854.97143,0.02118
852.91126,0.02033
850.85108,0.01926
848.79091,0.01873
846.73074,0.01868
844.67057,0.01821
842.61040,0.01703
840.55022,0.01591
838.49005,0.01553
836.42988,0.01536
834.36971,0.01482
832.30954,0.01390
830.24936,0.01274
828.18919,0.01177
826.12902,0.01094
824.06885,0.00998
822.00867,0.00930
819.94850,0.00934
817.88833,0.00966
815.82816,0.00960
813.76799,0.00923
811.70781,0.00877
809.64764,0.00808
807.58747,0.00736
805.52730,0.00680
803.46713,0.00619
801.40695,0.00578
799.34678,0.00575
797.28661,0.00556
795.22644,0.00492
793.16627,0.00458
791.10609,0.00482
789.04592,0.00484
786.98575,0.00473
784.92558,0.00492
782.86540,0.00511
780.80523,0.00515
778.74506,0.00510
776.68489,0.00482
774.62472,0.00448
772.56454,0.00427
770.50437,0.00379
768.44420,0.00315
766.38403,0.00315
764.32386,0.00353
762.26368,0.00341
760.20351,0.00312
758.14334,0.00296
756.08317,0.00236
754.02299,0.00143
751.96282,0.00120
749.90265,0.00196
747.84248,0.00264
745.78231,0.00247
743.72213,0.00178
741.66196,0.00129
739.60179,0.00148
737.54162,0.00196
735.48145,0.00229
733.42127,0.00242
731.36110,0.00204
729.30093,0.00167
727.24076,0.00195
725.18059,0.00208
723.12041,0.00202
721.06024,0.00218
719.00007,0.00197
716.93990,0.00205
714.87972,0.00274
712.81955,0.00338
710.75938,0.00360
708.69921,0.00338
706.63904,0.00300
704.57886,0.00271
702.51869,0.00245
700.45852,0.00216
698.39835,0.00200
696.33818,0.00212
694.27800,0.00223
692.21783,0.00181
690.15766,0.00088
688.09749,0.00015
686.03731,0.00000
683.97714,0.00031
681.91697,0.00101
679.85680,0.00149
677.79663,0.00172
675.73645,0.00262
673.67628,0.00360
671.61611,0.00365
669.55594,0.00437
667.49577,0.00343
665.43559,-0.00071
663.37542,0.00042
661.31525,0.00308
659.25508,0.00402
657.19491,0.00282
655.13473,0.00179
653.07456,0.00248
651.01439,0.00359
648.95422,0.00378
646.89404,0.00321
644.83387,0.00273
642.77370,0.00205
640.71353,0.00146
638.65336,0.00223
636.59318,0.00417
634.53301,0.00572
632.47284,0.00600
630.41267,0.00499
628.35250,0.00271
626.29232,0.00023
624.23215,0.00000
622.17198,0.00111
620.11181,0.00238
618.05164,0.00344
615.99146,0.00329
613.93129,0.00193
611.87112,0.00024
609.81095,0.00050
607.75077,0.00322
605.69060,0.00474
603.63043,0.00405
601.57026,0.00241
599.51009,0.00000
