3996.73391,0.00067
3994.67373,0.00064
3992.61356,0.00049
3990.55339,0.00031
3988.49322,0.00013
3986.43305,0.00001
3984.37287,-0.00002
3982.31270,0.00003
3980.25253,0.00017
3978.19236,0.00026
3976.13219,0.00046
3974.07201,0.00089
3972.01184,0.00116
3969.95167,0.00104
3967.89150,0.00079
3965.83133,0.00070
3963.77115,0.00087
3961.71098,0.00109
3959.65081,0.00107
3957.59064,0.00080
3955.53046,0.00052
3953.47029,0.00024
3951.41012,0.00000
3949.34995,0.00000
3947.28978,0.00013
3945.22960,0.00008
3943.16943,-0.00015
3941.10926,-0.00007
3939.04909,0.00036
3936.98892,0.00059
3934.92874,0.00042
3932.86857,0.00015
3930.80840,0.00009
3928.74823,0.00037
3926.68805,0.00090
3924.62788,0.00145
3922.56771,0.00177
3920.50754,0.00173
3918.44737,0.00132
3916.38719,0.00090
3914.32702,0.00085
3912.26685,0.00086
3910.20668,0.00056
3908.14651,0.00013
3906.08633,0.00000
3904.02616,0.00036
3901.96599,0.00094
3899.90582,0.00123
3897.84565,0.00110
3895.78547,0.00096
3893.72530,0.00095
3891.66513,0.00082
3889.60496,0.00067
3887.54478,0.00083
3885.48461,0.00125
3883.42444,0.00142
3881.36427,0.00113
3879.30410,0.00084
3877.24392,0.00093
3875.18375,0.00121
3873.12358,0.00121
3871.06341,0.00090
3869.00324,0.00092
3866.94306,0.00141
3864.88289,0.00178
3862.82272,0.00169
3860.76255,0.00125
3858.70237,0.00092
3856.64220,0.00122
3854.58203,0.00212
3852.52186,0.00262
3850.46169,0.00204
3848.40151,0.00133
3846.34134,0.00093
3844.28117,0.00044
3842.22100,0.00008
3840.16083,0.00055
3838.10065,0.00164
3836.04048,0.00208
3833.98031,0.00168
3831.92014,0.00140
3829.85997,0.00152
3827.79979,0.00152
3825.73962,0.00133
3823.67945,0.00135
3821.61928,0.00166
3819.55910,0.00185
3817.49893,0.00160
3815.43876,0.00127
3813.37859,0.00124
3811.31842,0.00129
3809.25824,0.00112
3807.19807,0.00081
3805.13790,0.00076
3803.07773,0.00095
3801.01756,0.00105
3798.95738,0.00121
3796.89721,0.00166
3794.83704,0.00190
3792.77687,0.00156
3790.71670,0.00117
3788.65652,0.00129
3786.59635,0.00168
3784.53618,0.00169
3782.47601,0.00122
3780.41583,0.00092
3778.35566,0.00109
3776.29549,0.00131
3774.23532,0.00150
3772.17515,0.00185
3770.11497,0.00220
3768.05480,0.00226
3765.99463,0.00212
3763.93446,0.00199
3761.87429,0.00167
3759.81411,0.00097
3757.75394,0.00027
3755.69377,0.00000
3753.63360,0.00015
3751.57342,0.00065
3749.51325,0.00120
3747.45308,0.00143
3745.39291,0.00175
3743.33274,0.00240
3741.27256,0.00268
3739.21239,0.00244
3737.15222,0.00198
3735.09205,0.00136
3733.03188,0.00081
3730.97170,0.00075
3728.91153,0.00121
3726.85136,0.00161
3724.79119,0.00146
3722.73102,0.00107
3720.67084,0.00092
3718.61067,0.00112
3716.55050,0.00156
3714.49033,0.00174
3712.43015,0.00137
3710.36998,0.00097
3708.30981,0.00107
3706.24964,0.00153
3704.18947,0.00211
3702.12929,0.00261
3700.06912,0.00262
3698.00895,0.00221
3695.94878,0.00187
3693.88861,0.00155
3691.82843,0.00130
3689.76826,0.00154
3687.70809,0.00195
3685.64792,0.00192
3683.58775,0.00168
3681.52757,0.00148
3679.46740,0.00136
3677.40723,0.00153
3675.34706,0.00197
3673.28688,0.00203
3671.22671,0.00159
3669.16654,0.00125
3667.10637,0.00154
3665.04620,0.00216
3662.98602,0.00256
3660.92585,0.00269
3658.86568,0.00268
3656.80551,0.00250
3654.74534,0.00228
3652.68516,0.00213
3650.62499,0.00204
3648.56482,0.00220
3646.50465,0.00286
3644.44447,0.00354
3642.38430,0.00381
3640.32413,0.00381
3638.26396,0.00366
3636.20379,0.00343
3634.14361,0.00347
3632.08344,0.00398
3630.02327,0.00473
3627.96310,0.00527
3625.90293,0.00541
3623.84275,0.00547
3621.78258,0.00552
3619.72241,0.00555
3617.66224,0.00571
3615.60207,0.00598
3613.54189,0.00644
3611.48172,0.00707
3609.42155,0.00759
3607.36138,0.00790
3605.30120,0.00796
3603.24103,0.00785
3601.18086,0.00783
3599.12069,0.00798
3597.06052,0.00824
3595.00034,0.00880
3592.94017,0.00949
3590.88000,0.00977
3588.81983,0.00972
3586.75966,0.00973
3584.69948,0.00991
3582.63931,0.01020
3580.57914,0.01036
3578.51897,0.01050
3576.45879,0.01108
3574.39862,0.01179
3572.33845,0.01192
3570.27828,0.01146
3568.21811,0.01114
3566.15793,0.01156
3564.09776,0.01226
3562.03759,0.01272
3559.97742,0.01306
3557.91725,0.01330
3555.85707,0.01321
3553.79690,0.01291
3551.73673,0.01289
3549.67656,0.01342
3547.61639,0.01400
3545.55621,0.01426
3543.49604,0.01457
3541.43587,0.01502
3539.37570,0.01540
3537.31552,0.01572
3535.25535,0.01602
3533.19518,0.01622
3531.13501,0.01638
3529.07484,0.01667
3527.01466,0.01695
3524.95449,0.01698
3522.89432,0.01689
3520.83415,0.01708
3518.77398,0.01755
3516.71380,0.01786
3514.65363,0.01779
3512.59346,0.01775
3510.53329,0.01827
3508.47312,0.01914
3506.41294,0.01971
3504.35277,0.01966
3502.29260,0.01918
3500.23243,0.01891
3498.17225,0.01931
3496.11208,0.01991
3494.05191,0.02004
3491.99174,0.01983
3489.93157,0.01970
3487.87139,0.01995
3485.81122,0.02042
3483.75105,0.02072
3481.69088,0.02107
3479.63071,0.02171
3477.57053,0.02227
3475.51036,0.02257
3473.45019,0.02260
3471.39002,0.02229
3469.32984,0.02190
3467.26967,0.02186
3465.20950,0.02208
3463.14933,0.02244
3461.08916,0.02303
3459.02898,0.02352
3456.96881,0.02355
3454.90864,0.02346
3452.84847,0.02347
3450.78830,0.02347
3448.72812,0.02359
3446.66795,0.02387
3444.60778,0.02408
3442.54761,0.02438
3440.48744,0.02458
3438.42726,0.02433
3436.36709,0.02435
3434.30692,0.02500
3432.24675,0.02550
3430.18657,0.02560
3428.12640,0.02550
3426.06623,0.02530
3424.00606,0.02525
3421.94589,0.02547
3419.88571,0.02580
3417.82554,0.02608
3415.76537,0.02631
3413.70520,0.02640
3411.64503,0.02631
3409.58485,0.02636
3407.52468,0.02686
3405.46451,0.02754
3403.40434,0.02774
3401.34416,0.02732
3399.28399,0.02702
3397.22382,0.02719
3395.16365,0.02746
3393.10348,0.02753
3391.04330,0.02754
3388.98313,0.02761
3386.92296,0.02759
3384.86279,0.02746
3382.80262,0.02735
3380.74244,0.02728
3378.68227,0.02730
3376.62210,0.02765
3374.56193,0.02825
3372.50176,0.02855
3370.44158,0.02839
3368.38141,0.02826
3366.32124,0.02850
3364.26107,0.02885
3362.20089,0.02888
3360.14072,0.02866
3358.08055,0.02873
3356.02038,0.02915
3353.96021,0.02935
3351.90003,0.02928
3349.83986,0.02942
3347.77969,0.02966
3345.71952,0.02970
3343.65935,0.02958
3341.59917,0.02943
3339.53900,0.02935
3337.47883,0.02934
3335.41866,0.02951
3333.35849,0.02983
3331.29831,0.02993
3329.23814,0.02969
3327.17797,0.02937
3325.11780,0.02922
3323.05762,0.02931
3320.99745,0.02943
3318.93728,0.02950
3316.87711,0.02951
3314.81694,0.02954
3312.75676,0.02984
3310.69659,0.03024
3308.63642,0.03031
3306.57625,0.03016
3304.51608,0.03013
3302.45590,0.03031
3300.39573,0.03040
3298.33556,0.03025
3296.27539,0.03019
3294.21521,0.03032
3292.15504,0.03034
3290.09487,0.03024
3288.03470,0.03043
3285.97453,0.03091
3283.91435,0.03100
3281.85418,0.03081
3279.79401,0.03094
3277.73384,0.03110
3275.67367,0.03099
3273.61349,0.03096
3271.55332,0.03107
3269.49315,0.03090
3267.43298,0.03060
3265.37281,0.03060
3263.31263,0.03067
3261.25246,0.03073
3259.19229,0.03074
3257.13212,0.03047
3255.07194,0.03013
3253.01177,0.03008
3250.95160,0.03032
3248.89143,0.03066
3246.83126,0.03074
3244.77108,0.03058
3242.71091,0.03046
3240.65074,0.03033
3238.59057,0.03031
3236.53040,0.03064
3234.47022,0.03089
3232.41005,0.03075
3230.34988,0.03053
3228.28971,0.03048
3226.22954,0.03061
3224.16936,0.03077
3222.10919,0.03076
3220.04902,0.03066
3217.98885,0.03066
3215.92867,0.03067
3213.86850,0.03066
3211.80833,0.03071
3209.74816,0.03057
3207.68799,0.03021
3205.62781,0.03021
3203.56764,0.03045
3201.50747,0.03030
3199.44730,0.02993
3197.38713,0.02994
3195.32695,0.03023
3193.26678,0.03032
3191.20661,0.03011
3189.14644,0.02979
3187.08626,0.02949
3185.02609,0.02928
3182.96592,0.02924
3180.90575,0.02943
3178.84558,0.02970
3176.78540,0.02982
3174.72523,0.02963
3172.66506,0.02941
3170.60489,0.02937
3168.54472,0.02929
3166.48454,0.02902
3164.42437,0.02882
3162.36420,0.02881
3160.30403,0.02882
3158.24386,0.02876
3156.18368,0.02859
3154.12351,0.02837
3152.06334,0.02823
3150.00317,0.02822
3147.94299,0.02853
3145.88282,0.02908
3143.82265,0.02935
3141.76248,0.02907
3139.70231,0.02848
3137.64213,0.02808
3135.58196,0.02800
3133.52179,0.02782
3131.46162,0.02742
3129.40145,0.02718
3127.34127,0.02730
3125.28110,0.02760
3123.22093,0.02776
3121.16076,0.02761
3119.10058,0.02728
3117.04041,0.02704
3114.98024,0.02682
3112.92007,0.02642
3110.85990,0.02614
3108.79972,0.02609
3106.73955,0.02604
3104.67938,0.02609
3102.61921,0.02632
3100.55904,0.02656
3098.49886,0.02671
3096.43869,0.02664
3094.37852,0.02624
3092.31835,0.02587
3090.25818,0.02569
3088.19800,0.02546
3086.13783,0.02524
3084.07766,0.02515
3082.01749,0.02511
3079.95731,0.02512
3077.89714,0.02517
3075.83697,0.02508
3073.77680,0.02498
3071.71663,0.02502
3069.65645,0.02512
3067.59628,0.02507
3065.53611,0.02481
3063.47594,0.02444
3061.41577,0.02406
3059.35559,0.02373
3057.29542,0.02354
3055.23525,0.02357
3053.17508,0.02366
3051.11491,0.02352
3049.05473,0.02327
3046.99456,0.02315
3044.93439,0.02310
3042.87422,0.02313
3040.81404,0.02311
3038.75387,0.02282
3036.69370,0.02246
3034.63353,0.02228
3032.57336,0.02224
3030.51318,0.02224
3028.45301,0.02211
3026.39284,0.02185
3024.33267,0.02158
3022.27250,0.02144
3020.21232,0.02149
3018.15215,0.02153
3016.09198,0.02142
3014.03181,0.02124
3011.97163,0.02101
3009.91146,0.02076
3007.85129,0.02062
3005.79112,0.02060
3003.73095,0.02059
3001.67077,0.02044
2999.61060,0.02026
2997.55043,0.02034
2995.49026,0.02050
2993.43009,0.02027
2991.36991,0.01992
2989.30974,0.01979
2987.24957,0.01972
2985.18940,0.01963
2983.12923,0.01969
2981.06905,0.01988
2979.00888,0.01988
2976.94871,0.01961
2974.88854,0.01929
2972.82836,0.01902
2970.76819,0.01895
2968.70802,0.01896
2966.64785,0.01884
2964.58768,0.01884
2962.52750,0.01911
2960.46733,0.01928
2958.40716,0.01912
2956.34699,0.01894
2954.28682,0.01904
2952.22664,0.01924
2950.16647,0.01931
2948.10630,0.01924
2946.04613,0.01902
2943.98596,0.01882
2941.92578,0.01871
2939.86561,0.01873
2937.80544,0.01886
2935.74527,0.01891
2933.68509,0.01890
2931.62492,0.01881
2929.56475,0.01856
2927.50458,0.01833
2925.44441,0.01834
2923.38423,0.01848
2921.32406,0.01850
2919.26389,0.01839
2917.20372,0.01826
2915.14355,0.01826
2913.08337,0.01833
2911.02320,0.01824
2908.96303,0.01811
2906.90286,0.01824
2904.84268,0.01846
2902.78251,0.01835
2900.72234,0.01809
2898.66217,0.01814
2896.60200,0.01824
2894.54182,0.01808
2892.48165,0.01792
2890.42148,0.01791
2888.36131,0.01783
2886.30114,0.01761
2884.24096,0.01744
2882.18079,0.01749
2880.12062,0.01759
2878.06045,0.01746
2876.00028,0.01727
2873.94010,0.01737
2871.87993,0.01750
2869.81976,0.01726
2867.75959,0.01697
2865.69941,0.01697
2863.63924,0.01702
2861.57907,0.01705
2859.51890,0.01713
2857.45873,0.01704
2855.39855,0.01676
2853.33838,0.01656
2851.27821,0.01637
2849.21804,0.01612
2847.15787,0.01599
2845.09769,0.01601
2843.03752,0.01614
2840.97735,0.01624
2838.91718,0.01624
2836.85700,0.01625
2834.79683,0.01619
2832.73666,0.01598
2830.67649,0.01581
2828.61632,0.01580
2826.55614,0.01583
2824.49597,0.01569
2822.43580,0.01537
2820.37563,0.01520
2818.31546,0.01530
2816.25528,0.01528
2814.19511,0.01510
2812.13494,0.01510
2810.07477,0.01534
2808.01460,0.01562
2805.95442,0.01556
2803.89425,0.01518
2801.83408,0.01491
2799.77391,0.01477
2797.71373,0.01461
2795.65356,0.01464
2793.59339,0.01481
2791.53322,0.01485
2789.47305,0.01478
2787.41287,0.01467
2785.35270,0.01462
2783.29253,0.01457
2781.23236,0.01439
2779.17219,0.01433
2777.11201,0.01433
2775.05184,0.01433
2772.99167,0.01453
2770.93150,0.01467
2768.87133,0.01455
2766.81115,0.01446
2764.75098,0.01430
2762.69081,0.01383
2760.63064,0.01347
2758.57046,0.01354
2756.51029,0.01362
2754.45012,0.01352
2752.38995,0.01342
2750.32978,0.01333
2748.26960,0.01330
2746.20943,0.01330
2744.14926,0.01335
2742.08909,0.01340
2740.02892,0.01332
2737.96874,0.01318
2735.90857,0.01309
2733.84840,0.01301
2731.78823,0.01293
2729.72805,0.01295
2727.66788,0.01312
2725.60771,0.01327
2723.54754,0.01323
2721.48737,0.01300
2719.42719,0.01283
2717.36702,0.01289
2715.30685,0.01303
2713.24668,0.01302
2711.18651,0.01284
2709.12633,0.01260
2707.06616,0.01243
2705.00599,0.01234
2702.94582,0.01215
2700.88565,0.01193
2698.82547,0.01189
2696.76530,0.01194
2694.70513,0.01186
2692.64496,0.01166
2690.58478,0.01156
2688.52461,0.01154
2686.46444,0.01148
2684.40427,0.01147
2682.34410,0.01152
2680.28392,0.01145
2678.22375,0.01126
2676.16358,0.01117
2674.10341,0.01113
2672.04324,0.01099
2669.98306,0.01091
2667.92289,0.01091
2665.86272,0.01096
2663.80255,0.01110
2661.74238,0.01110
2659.68220,0.01098
2657.62203,0.01080
2655.56186,0.01059
2653.50169,0.01063
2651.44151,0.01078
2649.38134,0.01078
2647.32117,0.01062
2645.26100,0.01029
2643.20083,0.01006
2641.14065,0.01009
2639.08048,0.01005
2637.02031,0.00985
2634.96014,0.00965
2632.89997,0.00944
2630.83979,0.00931
2628.77962,0.00931
2626.71945,0.00914
2624.65928,0.00895
2622.59910,0.00914
2620.53893,0.00942
2618.47876,0.00933
2616.41859,0.00896
2614.35842,0.00868
2612.29824,0.00869
2610.23807,0.00884
2608.17790,0.00891
2606.11773,0.00891
2604.05756,0.00888
2601.99738,0.00882
2599.93721,0.00853
2597.87704,0.00796
2595.81687,0.00775
2593.75670,0.00827
2591.69652,0.00883
2589.63635,0.00896
2587.57618,0.00887
2585.51601,0.00884
2583.45583,0.00892
2581.39566,0.00870
2579.33549,0.00813
2577.27532,0.00783
2575.21515,0.00808
2573.15497,0.00833
2571.09480,0.00813
2569.03463,0.00784
2566.97446,0.00779
2564.91429,0.00786
2562.85411,0.00802
2560.79394,0.00817
2558.73377,0.00805
2556.67360,0.00785
2554.61342,0.00793
2552.55325,0.00824
2550.49308,0.00827
2548.43291,0.00778
2546.37274,0.00744
2544.31256,0.00756
2542.25239,0.00776
2540.19222,0.00786
2538.13205,0.00790
2536.07188,0.00804
2534.01170,0.00829
2531.95153,0.00821
2529.89136,0.00785
2527.83119,0.00759
2525.77102,0.00759
2523.71084,0.00785
2521.65067,0.00819
2519.59050,0.00857
2517.53033,0.00887
2515.47015,0.00872
2513.40998,0.00833
2511.34981,0.00829
2509.28964,0.00874
2507.22947,0.00912
2505.16929,0.00897
2503.10912,0.00850
2501.04895,0.00824
2498.98878,0.00806
2496.92861,0.00795
2494.86843,0.00826
2492.80826,0.00854
2490.74809,0.00827
2488.68792,0.00809
2486.62775,0.00839
2484.56757,0.00853
2482.50740,0.00834
2480.44723,0.00831
2478.38706,0.00853
2476.32688,0.00869
2474.26671,0.00849
2472.20654,0.00823
2470.14637,0.00854
2468.08620,0.00898
2466.02602,0.00872
2463.96585,0.00822
2461.90568,0.00832
2459.84551,0.00882
2457.78534,0.00896
2455.72516,0.00862
2453.66499,0.00830
2451.60482,0.00831
2449.54465,0.00839
2447.48447,0.00844
2445.42430,0.00853
2443.36413,0.00872
2441.30396,0.00897
2439.24379,0.00881
2437.18361,0.00848
2435.12344,0.00847
2433.06327,0.00861
2431.00310,0.00880
2428.94293,0.00902
2426.88275,0.00892
2424.82258,0.00865
2422.76241,0.00858
2420.70224,0.00851
2418.64207,0.00818
2416.58189,0.00781
2414.52172,0.00780
2412.46155,0.00805
2410.40138,0.00826
2408.34120,0.00827
2406.28103,0.00830
2404.22086,0.00861
2402.16069,0.00880
2400.10052,0.00849
2398.04034,0.00799
2395.98017,0.00784
2393.92000,0.00789
2391.85983,0.00797
2389.79966,0.00810
2387.73948,0.00811
2385.67931,0.00791
2383.61914,0.00774
2381.55897,0.00779
2379.49880,0.00800
2377.43862,0.00823
2375.37845,0.00798
2373.31828,0.00712
2371.25811,0.00674
2369.19793,0.00807
2367.13776,0.01072
2365.07759,0.01196
2363.01742,0.00957
2360.95725,0.00470
2358.89707,0.00131
2356.83690,0.00254
2354.77673,0.00667
2352.71656,0.00961
2350.65639,0.01052
2348.59621,0.01103
2346.53604,0.01161
2344.47587,0.01158
2342.41570,0.01097
2340.35552,0.01014
2338.29535,0.00948
2336.23518,0.00973
2334.17501,0.01088
2332.11484,0.01148
2330.05466,0.01060
2327.99449,0.00945
2325.93432,0.00915
2323.87415,0.00913
2321.81398,0.00895
2319.75380,0.00897
2317.69363,0.00913
2315.63346,0.00922
2313.57329,0.00925
2311.51312,0.00928
2309.45294,0.00932
2307.39277,0.00907
2305.33260,0.00835
2303.27243,0.00752
2301.21225,0.00700
2299.15208,0.00698
2297.09191,0.00740
2295.03174,0.00786
2292.97157,0.00807
2290.91139,0.00817
2288.85122,0.00832
2286.79105,0.00852
2284.73088,0.00863
2282.67071,0.00856
2280.61053,0.00839
2278.55036,0.00809
2276.49019,0.00745
2274.43002,0.00683
2272.36984,0.00701
2270.30967,0.00777
2268.24950,0.00819
2266.18933,0.00793
2264.12916,0.00715
2262.06898,0.00646
2260.00881,0.00618
2257.94864,0.00609
2255.88847,0.00636
2253.82830,0.00674
2251.76812,0.00656
2249.70795,0.00602
2247.64778,0.00548
2245.58761,0.00495
2243.52744,0.00517
2241.46726,0.00578
2239.40709,0.00598
2237.34692,0.00623
2235.28675,0.00652
2233.22657,0.00646
2231.16640,0.00594
2229.10623,0.00518
2227.04606,0.00532
2224.98589,0.00587
2222.92571,0.00573
2220.86554,0.00546
2218.80537,0.00511
2216.74520,0.00482
2214.68503,0.00480
2212.62485,0.00450
2210.56468,0.00404
2208.50451,0.00375
2206.44434,0.00414
2204.38417,0.00505
2202.32399,0.00515
2200.26382,0.00482
2198.20365,0.00517
2196.14348,0.00561
2194.08330,0.00544
2192.02313,0.00508
2189.96296,0.00504
2187.90279,0.00500
2185.84262,0.00447
2183.78244,0.00373
2181.72227,0.00381
2179.66210,0.00464
2177.60193,0.00468
2175.54176,0.00404
2173.48158,0.00355
2171.42141,0.00325
2169.36124,0.00394
2167.30107,0.00481
2165.24089,0.00404
2163.18072,0.00328
2161.12055,0.00361
2159.06038,0.00308
2157.00021,0.00230
2154.94003,0.00215
2152.87986,0.00209
2150.81969,0.00278
2148.75952,0.00392
2146.69935,0.00420
2144.63917,0.00343
2142.57900,0.00234
2140.51883,0.00216
2138.45866,0.00285
2136.39849,0.00304
2134.33831,0.00255
2132.27814,0.00219
2130.21797,0.00226
2128.15780,0.00236
2126.09762,0.00250
2124.03745,0.00316
2121.97728,0.00424
2119.91711,0.00463
2117.85694,0.00421
2115.79676,0.00441
2113.73659,0.00511
2111.67642,0.00510
2109.61625,0.00473
2107.55608,0.00449
2105.49590,0.00403
2103.43573,0.00363
2101.37556,0.00390
2099.31539,0.00447
2097.25521,0.00436
2095.19504,0.00408
2093.13487,0.00436
2091.07470,0.00408
2089.01453,0.00303
2086.95435,0.00238
2084.89418,0.00228
2082.83401,0.00245
2080.77384,0.00284
2078.71367,0.00301
2076.65349,0.00249
2074.59332,0.00197
2072.53315,0.00199
2070.47298,0.00205
2068.41281,0.00219
2066.35263,0.00265
2064.29246,0.00324
2062.23229,0.00379
2060.17212,0.00382
2058.11194,0.00341
2056.05177,0.00321
2053.99160,0.00357
2051.93143,0.00419
2049.87126,0.00449
2047.81108,0.00456
2045.75091,0.00433
2043.69074,0.00344
2041.63057,0.00248
2039.57040,0.00253
2037.51022,0.00325
2035.45005,0.00322
2033.38988,0.00257
2031.32971,0.00207
2029.26954,0.00125
2027.20936,0.00064
2025.14919,0.00104
2023.08902,0.00143
2021.02885,0.00135
2018.96867,0.00202
2016.90850,0.00363
2014.84833,0.00438
2012.78816,0.00358
2010.72799,0.00269
2008.66781,0.00233
2006.60764,0.00196
2004.54747,0.00138
2002.48730,0.00127
2000.42713,0.00224
1998.36695,0.00328
1996.30678,0.00354
1994.24661,0.00380
1992.18644,0.00428
1990.12626,0.00376
1988.06609,0.00218
1986.00592,0.00164
1983.94575,0.00286
1981.88558,0.00386
1979.82540,0.00307
1977.76523,0.00155
1975.70506,0.00144
1973.64489,0.00222
1971.58472,0.00242
1969.52454,0.00234
1967.46437,0.00230
1965.40420,0.00185
1963.34403,0.00093
1961.28386,0.00041
1959.22368,0.00054
1957.16351,0.00030
1955.10334,0.00000
1953.04317,0.00036
1950.98299,0.00062
1948.92282,0.00088
1946.86265,0.00182
1944.80248,0.00273
1942.74231,0.00295
1940.68213,0.00303
1938.62196,0.00348
1936.56179,0.00348
1934.50162,0.00252
1932.44145,0.00155
1930.38127,0.00137
1928.32110,0.00162
1926.26093,0.00168
1924.20076,0.00139
1922.14059,0.00105
1920.08041,0.00099
1918.02024,0.00112
1915.96007,0.00116
1913.89990,0.00103
1911.83972,0.00104
1909.77955,0.00151
1907.71938,0.00219
1905.65921,0.00263
1903.59904,0.00254
1901.53886,0.00208
1899.47869,0.00182
1897.41852,0.00187
1895.35835,0.00183
1893.29818,0.00187
1891.23800,0.00228
1889.17783,0.00280
1887.11766,0.00283
1885.05749,0.00250
1882.99731,0.00239
1880.93714,0.00246
1878.87697,0.00238
1876.81680,0.00218
1874.75663,0.00199
1872.69645,0.00162
1870.63628,0.00137
1868.57611,0.00197
1866.51594,0.00289
1864.45577,0.00295
1862.39559,0.00241
1860.33542,0.00217
1858.27525,0.00240
1856.21508,0.00283
1854.15491,0.00315
1852.09473,0.00318
1850.03456,0.00306
1847.97439,0.00288
1845.91422,0.00257
1843.85404,0.00215
1841.79387,0.00186
1839.73370,0.00197
1837.67353,0.00248
1835.61336,0.00294
1833.55318,0.00300
1831.49301,0.00280
1829.43284,0.00263
1827.37267,0.00244
1825.31250,0.00220
1823.25232,0.00212
1821.19215,0.00234
1819.13198,0.00260
1817.07181,0.00262
1815.01163,0.00243
1812.95146,0.00241
1810.89129,0.00272
1808.83112,0.00312
1806.77095,0.00313
1804.71077,0.00278
1802.65060,0.00251
1800.59043,0.00240
1798.53026,0.00237
1796.47009,0.00261
1794.40991,0.00309
1792.34974,0.00337
1790.28957,0.00320
1788.22940,0.00293
1786.16923,0.00282
1784.10905,0.00295
1782.04888,0.00318
1779.98871,0.00324
1777.92854,0.00318
1775.86836,0.00320
1773.80819,0.00335
1771.74802,0.00347
1769.68785,0.00340
1767.62768,0.00331
1765.56750,0.00337
1763.50733,0.00341
1761.44716,0.00331
1759.38699,0.00319
1757.32682,0.00323
1755.26664,0.00355
1753.20647,0.00403
1751.14630,0.00444
1749.08613,0.00458
1747.02596,0.00455
1744.96578,0.00458
1742.90561,0.00480
1740.84544,0.00502
1738.78527,0.00505
1736.72509,0.00512
1734.66492,0.00552
1732.60475,0.00593
1730.54458,0.00590
1728.48441,0.00581
1726.42423,0.00590
1724.36406,0.00610
1722.30389,0.00638
1720.24372,0.00679
1718.18355,0.00716
1716.12337,0.00705
1714.06320,0.00651
1712.00303,0.00617
1709.94286,0.00625
1707.88268,0.00662
1705.82251,0.00718
1703.76234,0.00766
1701.70217,0.00795
1699.64200,0.00805
1697.58182,0.00794
1695.52165,0.00787
1693.46148,0.00794
1691.40131,0.00803
1689.34114,0.00811
1687.28096,0.00816
1685.22079,0.00830
1683.16062,0.00865
1681.10045,0.00898
1679.04028,0.00915
1676.98010,0.00918
1674.91993,0.00910
1672.85976,0.00905
1670.79959,0.00922
1668.73941,0.00949
1666.67924,0.00950
1664.61907,0.00946
1662.55890,0.00980
1660.49873,0.01028
1658.43855,0.01050
1656.37838,0.01063
1654.31821,0.01089
1652.25804,0.01103
1650.19787,0.01090
1648.13769,0.01100
1646.07752,0.01120
1644.01735,0.01093
1641.95718,0.01042
1639.89701,0.01002
1637.83683,0.00982
1635.77666,0.00988
1633.71649,0.01003
1631.65632,0.00999
1629.59614,0.00991
1627.53597,0.00992
1625.47580,0.01001
1623.41563,0.01012
1621.35546,0.01015
1619.29528,0.01011
1617.23511,0.01019
1615.17494,0.01027
1613.11477,0.01011
1611.05460,0.00992
1608.99442,0.00977
1606.93425,0.00956
1604.87408,0.00930
1602.81391,0.00902
1600.75373,0.00868
1598.69356,0.00826
1596.63339,0.00792
1594.57322,0.00776
1592.51305,0.00763
1590.45287,0.00735
1588.39270,0.00698
1586.33253,0.00664
1584.27236,0.00640
1582.21219,0.00625
1580.15201,0.00610
1578.09184,0.00599
1576.03167,0.00593
1573.97150,0.00580
1571.91133,0.00554
1569.85115,0.00522
1567.79098,0.00479
1565.73081,0.00432
1563.67064,0.00405
1561.61046,0.00414
1559.55029,0.00443
1557.49012,0.00443
1555.42995,0.00397
1553.36978,0.00354
1551.30960,0.00336
1549.24943,0.00332
1547.18926,0.00325
1545.12909,0.00307
1543.06892,0.00298
1541.00874,0.00311
1538.94857,0.00319
1536.88840,0.00295
1534.82823,0.00263
1532.76805,0.00248
1530.70788,0.00247
1528.64771,0.00237
1526.58754,0.00209
1524.52737,0.00179
1522.46719,0.00169
1520.40702,0.00188
1518.34685,0.00216
1516.28668,0.00229
1514.22651,0.00218
1512.16633,0.00207
1510.10616,0.00223
1508.04599,0.00247
1505.98582,0.00243
1503.92565,0.00220
1501.86547,0.00209
1499.80530,0.00210
1497.74513,0.00197
1495.68496,0.00164
1493.62478,0.00133
1491.56461,0.00118
1489.50444,0.00112
1487.44427,0.00095
1485.38410,0.00078
1483.32392,0.00085
1481.26375,0.00113
1479.20358,0.00135
1477.14341,0.00142
1475.08324,0.00156
1473.02306,0.00194
1470.96289,0.00224
1468.90272,0.00210
1466.84255,0.00184
1464.78238,0.00190
1462.72220,0.00216
1460.66203,0.00226
1458.60186,0.00229
1456.54169,0.00250
1454.48151,0.00272
1452.42134,0.00284
1450.36117,0.00292
1448.30100,0.00299
1446.24083,0.00304
1444.18065,0.00299
1442.12048,0.00279
1440.06031,0.00255
1438.00014,0.00240
1435.93997,0.00238
1433.87979,0.00232
1431.81962,0.00222
1429.75945,0.00216
1427.69928,0.00219
1425.63910,0.00225
1423.57893,0.00236
1421.51876,0.00246
1419.45859,0.00252
1417.39842,0.00256
1415.33824,0.00261
1413.27807,0.00260
1411.21790,0.00252
1409.15773,0.00241
1407.09756,0.00227
1405.03738,0.00220
1402.97721,0.00230
1400.91704,0.00238
1398.85687,0.00240
1396.79670,0.00248
1394.73652,0.00259
1392.67635,0.00258
1390.61618,0.00251
1388.55601,0.00249
1386.49583,0.00253
1384.43566,0.00261
1382.37549,0.00276
1380.31532,0.00303
1378.25515,0.00337
1376.19497,0.00359
1374.13480,0.00359
1372.07463,0.00350
1370.01446,0.00348
1367.95429,0.00349
1365.89411,0.00339
1363.83394,0.00332
1361.77377,0.00340
1359.71360,0.00343
1357.65343,0.00335
1355.59325,0.00326
1353.53308,0.00319
1351.47291,0.00314
1349.41274,0.00316
1347.35256,0.00329
1345.29239,0.00348
1343.23222,0.00352
1341.17205,0.00334
1339.11188,0.00313
1337.05170,0.00308
1334.99153,0.00313
1332.93136,0.00315
1330.87119,0.00307
1328.81102,0.00295
1326.75084,0.00284
1324.69067,0.00280
1322.63050,0.00287
1320.57033,0.00292
1318.51015,0.00283
1316.44998,0.00262
1314.38981,0.00243
1312.32964,0.00235
1310.26947,0.00226
1308.20929,0.00217
1306.14912,0.00216
1304.08895,0.00219
1302.02878,0.00219
1299.96861,0.00230
1297.90843,0.00254
1295.84826,0.00265
1293.78809,0.00250
1291.72792,0.00228
1289.66775,0.00208
1287.60757,0.00195
1285.54740,0.00200
1283.48723,0.00220
1281.42706,0.00239
1279.36688,0.00251
1277.30671,0.00258
1275.24654,0.00256
1273.18637,0.00248
1271.12620,0.00244
1269.06602,0.00253
1267.00585,0.00272
1264.94568,0.00285
1262.88551,0.00278
1260.82534,0.00262
1258.76516,0.00248
1256.70499,0.00234
1254.64482,0.00216
1252.58465,0.00203
1250.52447,0.00202
1248.46430,0.00205
1246.40413,0.00202
1244.34396,0.00191
1242.28379,0.00184
1240.22361,0.00187
1238.16344,0.00184
1236.10327,0.00178
1234.04310,0.00190
1231.98293,0.00207
1229.92275,0.00216
1227.86258,0.00218
1225.80241,0.00203
1223.74224,0.00183
1221.68207,0.00181
1219.62189,0.00190
1217.56172,0.00192
1215.50155,0.00201
1213.44138,0.00223
1211.38120,0.00226
1209.32103,0.00207
1207.26086,0.00196
1205.20069,0.00199
1203.14052,0.00201
1201.08034,0.00209
1199.02017,0.00225
1196.96000,0.00228
1194.89983,0.00215
1192.83966,0.00221
1190.77948,0.00265
1188.71931,0.00316
1186.65914,0.00341
1184.59897,0.00359
1182.53880,0.00401
1180.47862,0.00455
1178.41845,0.00506
1176.35828,0.00554
1174.29811,0.00609
1172.23793,0.00669
1170.17776,0.00720
1168.11759,0.00776
1166.05742,0.00835
1163.99725,0.00882
1161.93707,0.00924
1159.87690,0.00973
1157.81673,0.01027
1155.75656,0.01083
1153.69639,0.01132
1151.63621,0.01182
1149.57604,0.01243
1147.51587,0.01298
1145.45570,0.01349
1143.39552,0.01416
1141.33535,0.01501
1139.27518,0.01590
1137.21501,0.01651
1135.15484,0.01691
1133.09466,0.01754
1131.03449,0.01845
1128.97432,0.01941
1126.91415,0.02019
1124.85398,0.02072
1122.79380,0.02120
1120.73363,0.02177
1118.67346,0.02247
1116.61329,0.02337
1114.55312,0.02426
1112.49294,0.02491
1110.43277,0.02561
1108.37260,0.02655
1106.31243,0.02738
1104.25225,0.02809
1102.19208,0.02901
1100.13191,0.03004
1098.07174,0.03077
1096.01157,0.03116
1093.95139,0.03160
1091.89122,0.03235
1089.83105,0.03322
1087.77088,0.03398
1085.71071,0.03472
1083.65053,0.03546
1081.59036,0.03602
1079.53019,0.03648
1077.47002,0.03694
1075.40985,0.03741
1073.34967,0.03778
1071.28950,0.03783
1069.22933,0.03784
1067.16916,0.03799
1065.10898,0.03803
1063.04881,0.03806
1060.98864,0.03810
1058.92847,0.03786
1056.86830,0.03751
1054.80812,0.03721
1052.74795,0.03699
1050.68778,0.03684
1048.62761,0.03638
1046.56744,0.03567
1044.50726,0.03523
1042.44709,0.03496
1040.38692,0.03436
1038.32675,0.03350
1036.26657,0.03272
1034.20640,0.03212
1032.14623,0.03142
1030.08606,0.03058
1028.02589,0.02988
1025.96571,0.02920
1023.90554,0.02848
1021.84537,0.02787
1019.78520,0.02732
1017.72503,0.02679
1015.66485,0.02613
1013.60468,0.02536
1011.54451,0.02497
1009.48434,0.02506
1007.42417,0.02502
1005.36399,0.02464
1003.30382,0.02426
1001.24365,0.02419
999.18348,0.02451
997.12330,0.02491
995.06313,0.02515
993.00296,0.02548
990.94279,0.02600
988.88262,0.02648
986.82244,0.02680
984.76227,0.02698
982.70210,0.02698
980.64193,0.02676
978.58176,0.02631
976.52158,0.02587
974.46141,0.02551
972.40124,0.02483
970.34107,0.02375
968.28089,0.02266
966.22072,0.02173
964.16055,0.02091
962.10038,0.02018
960.04021,0.01948
957.98003,0.01883
955.91986,0.01821
953.85969,0.01750
951.79952,0.01697
949.73935,0.01668
947.67917,0.01646
945.61900,0.01641
943.55883,0.01616
941.49866,0.01557
939.43849,0.01536
937.37831,0.01556
935.31814,0.01556
933.25797,0.01548
931.19780,0.01559
929.13762,0.01545
927.07745,0.01502
925.01728,0.01472
922.95711,0.01458
920.89694,0.01437
918.83676,0.01408
916.77659,0.01383
914.71642,0.01364
912.65625,0.01344
910.59608,0.01296
908.53590,0.01234
906.47573,0.01212
904.41556,0.01213
902.35539,0.01218
900.29522,0.01232
898.23504,0.01230
896.17487,0.01229
894.11470,0.01244
892.05453,0.01234
889.99435,0.01221
887.93418,0.01224
885.87401,0.01217
883.81384,0.01230
881.75367,0.01273
879.69349,0.01304
877.63332,0.01315
875.57315,0.01325
873.51298,0.01358
871.45281,0.01420
869.39263,0.01445
867.33246,0.01411
865.27229,0.01365
863.21212,0.01314
861.15194,0.01282
859.09177,0.01315
857.03160,0.01369
854.97143,0.01370
852.91126,0.01327
850.85108,0.01296
848.79091,0.01267
846.73074,0.01205
844.67057,0.01126
842.61040,0.01065
840.55022,0.01043
838.49005,0.01047
836.42988,0.01045
834.36971,0.01025
832.30954,0.00979
830.24936,0.00904
828.18919,0.00839
826.12902,0.00820
824.06885,0.00814
822.00867,0.00778
819.94850,0.00736
817.88833,0.00726
815.82816,0.00697
813.76799,0.00625
811.70781,0.00612
809.64764,0.00674
807.58747,0.00684
805.52730,0.00590
803.46713,0.00488
801.40695,0.00464
799.34678,0.00491
797.28661,0.00527
795.22644,0.00551
793.16627,0.00518
791.10609,0.00464
789.04592,0.00445
786.98575,0.00440
784.92558,0.00441
782.86540,0.00444
780.80523,0.00443
778.74506,0.00410
776.68489,0.00338
774.62472,0.00294
772.56454,0.00298
770.50437,0.00337
768.44420,0.00415
766.38403,0.00479
764.32386,0.00458
762.26368,0.00415
760.20351,0.00408
758.14334,0.00379
756.08317,0.00313
754.02299,0.00267
751.96282,0.00248
749.90265,0.00260
747.84248,0.00282
745.78231,0.00265
743.72213,0.00238
741.66196,0.00236
739.60179,0.00263
737.54162,0.00267
735.48145,0.00227
733.42127,0.00218
731.36110,0.00231
729.30093,0.00237
727.24076,0.00260
725.18059,0.00255
723.12041,0.00249
721.06024,0.00277
719.00007,0.00310
716.93990,0.00295
714.87972,0.00273
712.81955,0.00281
710.75938,0.00269
708.69921,0.00220
706.63904,0.00190
704.57886,0.00205
702.51869,0.00239
700.45852,0.00256
698.39835,0.00257
696.33818,0.00273
694.27800,0.00291
692.21783,0.00259
690.15766,0.00171
688.09749,0.00100
686.03731,0.00117
683.97714,0.00190
681.91697,0.00274
679.85680,0.00370
677.79663,0.00422
675.73645,0.00387
673.67628,0.00316
671.61611,0.00262
669.55594,0.00246
667.49577,0.00257
665.43559,0.00253
663.37542,0.00289
661.31525,0.00348
659.25508,0.00327
657.19491,0.00158
655.13473,0.00000
653.07456,0.00036
651.01439,0.00135
648.95422,0.00122
646.89404,0.00136
644.83387,0.00285
642.77370,0.00404
640.71353,0.00335
638.65336,0.00172
636.59318,0.00135
634.53301,0.00260
632.47284,0.00357
630.41267,0.00302
628.35250,0.00180
626.29232,0.00151
624.23215,0.00287
622.17198,0.00436
620.11181,0.00375
618.05164,0.00220
615.99146,0.00174
613.93129,0.00139
611.87112,0.00100
609.81095,0.00067
607.75077,0.00008
605.69060,0.00000
603.63043,-0.00046
601.57026,-0.00001
599.51009,0.00000
