3996.73391,0.00172
3994.67373,0.00168
3992.61356,0.00154
3990.55339,0.00145
3988.49322,0.00138
3986.43305,0.00110
3984.37287,0.00058
3982.31270,0.00030
3980.25253,0.00051
3978.19236,0.00079
3976.13219,0.00094
3974.07201,0.00109
3972.01184,0.00125
3969.95167,0.00150
3967.89150,0.00172
3965.83133,0.00164
3963.77115,0.00139
3961.71098,0.00122
3959.65081,0.00116
3957.59064,0.00133
3955.53046,0.00154
3953.47029,0.00129
3951.41012,0.00061
3949.34995,0.00006
3947.28978,0.00000
3945.22960,0.00025
3943.16943,0.00041
3941.10926,0.00056
3939.04909,0.00099
3936.98892,0.00138
3934.92874,0.00120
3932.86857,0.00061
3930.80840,0.00034
3928.74823,0.00065
3926.68805,0.00105
3924.62788,0.00122
3922.56771,0.00122
3920.50754,0.00119
3918.44737,0.00120
3916.38719,0.00137
3914.32702,0.00163
3912.26685,0.00165
3910.20668,0.00123
3908.14651,0.00064
3906.08633,0.00032
3904.02616,0.00045
3901.96599,0.00079
3899.90582,0.00086
3897.84565,0.00070
3895.78547,0.00064
3893.72530,0.00064
3891.66513,0.00052
3889.60496,0.00038
3887.54478,0.00047
3885.48461,0.00094
3883.42444,0.00134
3881.36427,0.00135
3879.30410,0.00123
3877.24392,0.00110
3875.18375,0.00101
3873.12358,0.00099
3871.06341,0.00084
3869.00324,0.00071
3866.94306,0.00082
3864.88289,0.00108
3862.82272,0.00130
3860.76255,0.00117
3858.70237,0.00058
3856.64220,0.00002
3854.58203,0.00022
3852.52186,0.00109
3850.46169,0.00145
3848.40151,0.00104
3846.34134,0.00047
3844.28117,0.00013
3842.22100,0.00029
3840.16083,0.00117
3838.10065,0.00222
3836.04048,0.00230
3833.98031,0.00157
3831.92014,0.00108
3829.85997,0.00114
3827.79979,0.00128
3825.73962,0.00118
3823.67945,0.00092
3821.61928,0.00085
3819.55910,0.00121
3817.49893,0.00156
3815.43876,0.00158
3813.37859,0.00143
3811.31842,0.00130
3809.25824,0.00114
3807.19807,0.00101
3805.13790,0.00107
3803.07773,0.00118
3801.01756,0.00122
3798.95738,0.00130
3796.89721,0.00148
3794.83704,0.00162
3792.77687,0.00149
3790.71670,0.00129
3788.65652,0.00122
3786.59635,0.00134
3784.53618,0.00160
3782.47601,0.00183
3780.41583,0.00194
3778.35566,0.00187
3776.29549,0.00163
3774.23532,0.00142
3772.17515,0.00138
3770.11497,0.00161
3768.05480,0.00191
3765.99463,0.00197
3763.93446,0.00186
3761.87429,0.00167
3759.81411,0.00142
3757.75394,0.00106
3755.69377,0.00056
3753.63360,0.00038
3751.57342,0.00116
3749.51325,0.00181
3747.45308,0.00091
3745.39291,0.00000
3743.33274,0.00052
3741.27256,0.00145
3739.21239,0.00186
3737.15222,0.00169
3735.09205,0.00113
3733.03188,0.00073
3730.97170,0.00086
3728.91153,0.00114
3726.85136,0.00097
3724.79119,0.00061
3722.73102,0.00081
3720.67084,0.00143
3718.61067,0.00178
3716.55050,0.00178
3714.49033,0.00160
3712.43015,0.00142
3710.36998,0.00125
3708.30981,0.00108
3706.24964,0.00122
3704.18947,0.00196
3702.12929,0.00287
3700.06912,0.00285
3698.00895,0.00215
3695.94878,0.00186
3693.88861,0.00201
3691.82843,0.00229
3689.76826,0.00269
3687.70809,0.00272
3685.64792,0.00220
3683.58775,0.00166
3681.52757,0.00141
3679.46740,0.00134
3677.40723,0.00129
3675.34706,0.00132
3673.28688,0.00144
3671.22671,0.00159
3669.16654,0.00173
3667.10637,0.00175
3665.04620,0.00183
3662.98602,0.00201
3660.92585,0.00204
3658.86568,0.00188
3656.80551,0.00186
3654.74534,0.00207
3652.68516,0.00218
3650.62499,0.00201
3648.56482,0.00203
3646.50465,0.00268
3644.44447,0.00338
3642.38430,0.00367
3640.32413,0.00378
3638.26396,0.00372
3636.20379,0.00330
3634.14361,0.00289
3632.08344,0.00306
3630.02327,0.00376
3627.96310,0.00441
3625.90293,0.00460
3623.84275,0.00448
3621.78258,0.00409
3619.72241,0.00378
3617.66224,0.00400
3615.60207,0.00437
3613.54189,0.00489
3611.48172,0.00569
3609.42155,0.00626
3607.36138,0.00653
3605.30120,0.00664
3603.24103,0.00643
3601.18086,0.00607
3599.12069,0.00604
3597.06052,0.00650
3595.00034,0.00724
3592.94017,0.00769
3590.88000,0.00767
3588.81983,0.00763
3586.75966,0.00775
3584.69948,0.00779
3582.63931,0.00788
3580.57914,0.00808
3578.51897,0.00813
3576.45879,0.00798
3574.39862,0.00783
3572.33845,0.00782
3570.27828,0.00801
3568.21811,0.00843
3566.15793,0.00902
3564.09776,0.00942
3562.03759,0.00966
3559.97742,0.00985
3557.91725,0.00975
3555.85707,0.00942
3553.79690,0.00923
3551.73673,0.00933
3549.67656,0.00967
3547.61639,0.00998
3545.55621,0.01025
3543.49604,0.01061
3541.43587,0.01097
3539.37570,0.01128
3537.31552,0.01174
3535.25535,0.01227
3533.19518,0.01262
3531.13501,0.01278
3529.07484,0.01294
3527.01466,0.01315
3524.95449,0.01320
3522.89432,0.01308
3520.83415,0.01308
3518.77398,0.01323
3516.71380,0.01331
3514.65363,0.01331
3512.59346,0.01331
3510.53329,0.01336
3508.47312,0.01353
3506.41294,0.01387
3504.35277,0.01416
3502.29260,0.01413
3500.23243,0.01403
3498.17225,0.01423
3496.11208,0.01452
3494.05191,0.01456
3491.99174,0.01447
3489.93157,0.01458
3487.87139,0.01501
3485.81122,0.01546
3483.75105,0.01574
3481.69088,0.01597
3479.63071,0.01616
3477.57053,0.01628
3475.51036,0.01637
3473.45019,0.01631
3471.39002,0.01603
3469.32984,0.01594
3467.26967,0.01627
3465.20950,0.01657
3463.14933,0.01654
3461.08916,0.01673
3459.02898,0.01735
3456.96881,0.01786
3454.90864,0.01794
3452.84847,0.01762
3450.78830,0.01719
3448.72812,0.01710
3446.66795,0.01720
3444.60778,0.01722
3442.54761,0.01764
3440.48744,0.01829
3438.42726,0.01842
3436.36709,0.01840
3434.30692,0.01861
3432.24675,0.01877
3430.18657,0.01884
3428.12640,0.01879
3426.06623,0.01869
3424.00606,0.01873
3421.94589,0.01891
3419.88571,0.01896
3417.82554,0.01888
3415.76537,0.01906
3413.70520,0.01944
3411.64503,0.01957
3409.58485,0.01935
3407.52468,0.01916
3405.46451,0.01951
3403.40434,0.02002
3401.34416,0.02011
3399.28399,0.02000
3397.22382,0.02007
3395.16365,0.02037
3393.10348,0.02057
3391.04330,0.02061
3388.98313,0.02057
3386.92296,0.02041
3384.86279,0.02048
3382.80262,0.02062
3380.74244,0.02033
3378.68227,0.01992
3376.62210,0.02015
3374.56193,0.02105
3372.50176,0.02174
3370.44158,0.02173
3368.38141,0.02145
3366.32124,0.02144
3364.26107,0.02167
3362.20089,0.02172
3360.14072,0.02159
3358.08055,0.02166
3356.02038,0.02202
3353.96021,0.02228
3351.90003,0.02218
3349.83986,0.02203
3347.77969,0.02191
3345.71952,0.02174
3343.65935,0.02182
3341.59917,0.02211
3339.53900,0.02217
3337.47883,0.02206
3335.41866,0.02231
3333.35849,0.02280
3331.29831,0.02290
3329.23814,0.02248
3327.17797,0.02192
3325.11780,0.02164
3323.05762,0.02179
3320.99745,0.02202
3318.93728,0.02197
3316.87711,0.02181
3314.81694,0.02186
3312.75676,0.02211
3310.69659,0.02230
3308.63642,0.02238
3306.57625,0.02244
3304.51608,0.02252
3302.45590,0.02268
3300.39573,0.02290
3298.33556,0.02293
3296.27539,0.02268
3294.21521,0.02252
3292.15504,0.02270
3290.09487,0.02301
3288.03470,0.02315
3285.97453,0.02316
3283.91435,0.02290
3281.85418,0.02251
3279.79401,0.02246
3277.73384,0.02282
3275.67367,0.02340
3273.61349,0.02386
3271.55332,0.02395
3269.49315,0.02352
3267.43298,0.02308
3265.37281,0.02317
3263.31263,0.02336
3261.25246,0.02344
3259.19229,0.02363
3257.13212,0.02368
3255.07194,0.02341
3253.01177,0.02315
3250.95160,0.02315
3248.89143,0.02324
3246.83126,0.02322
3244.77108,0.02325
3242.71091,0.02334
3240.65074,0.02320
3238.59057,0.02307
3236.53040,0.02326
3234.47022,0.02353
3232.41005,0.02345
3230.34988,0.02304
3228.28971,0.02282
3226.22954,0.02294
3224.16936,0.02321
3222.10919,0.02354
3220.04902,0.02356
3217.98885,0.02324
3215.92867,0.02309
3213.86850,0.02332
3211.80833,0.02345
3209.74816,0.02316
3207.68799,0.02295
3205.62781,0.02318
3203.56764,0.02340
3201.50747,0.02337
3199.44730,0.02328
3197.38713,0.02317
3195.32695,0.02306
3193.26678,0.02302
3191.20661,0.02301
3189.14644,0.02295
3187.08626,0.02275
3185.02609,0.02246
3182.96592,0.02230
3180.90575,0.02242
3178.84558,0.02268
3176.78540,0.02296
3174.72523,0.02315
3172.66506,0.02302
3170.60489,0.02263
3168.54472,0.02236
3166.48454,0.02233
3164.42437,0.02240
3162.36420,0.02247
3160.30403,0.02245
3158.24386,0.02237
3156.18368,0.02204
3154.12351,0.02152
3152.06334,0.02141
3150.00317,0.02174
3147.94299,0.02208
3145.88282,0.02238
3143.82265,0.02256
3141.76248,0.02242
3139.70231,0.02207
3137.64213,0.02190
3135.58196,0.02202
3133.52179,0.02201
3131.46162,0.02167
3129.40145,0.02131
3127.34127,0.02114
3125.28110,0.02122
3123.22093,0.02136
3121.16076,0.02136
3119.10058,0.02124
3117.04041,0.02099
3114.98024,0.02061
3112.92007,0.02024
3110.85990,0.02020
3108.79972,0.02048
3106.73955,0.02062
3104.67938,0.02046
3102.61921,0.02039
3100.55904,0.02050
3098.49886,0.02066
3096.43869,0.02081
3094.37852,0.02077
3092.31835,0.02059
3090.25818,0.02051
3088.19800,0.02042
3086.13783,0.02016
3084.07766,0.01998
3082.01749,0.02003
3079.95731,0.02004
3077.89714,0.02005
3075.83697,0.02018
3073.77680,0.02005
3071.71663,0.01956
3069.65645,0.01936
3067.59628,0.01959
3065.53611,0.01953
3063.47594,0.01904
3061.41577,0.01865
3059.35559,0.01846
3057.29542,0.01832
3055.23525,0.01829
3053.17508,0.01828
3051.11491,0.01829
3049.05473,0.01844
3046.99456,0.01842
3044.93439,0.01808
3042.87422,0.01778
3040.81404,0.01773
3038.75387,0.01779
3036.69370,0.01779
3034.63353,0.01766
3032.57336,0.01758
3030.51318,0.01758
3028.45301,0.01753
3026.39284,0.01742
3024.33267,0.01717
3022.27250,0.01678
3020.21232,0.01668
3018.15215,0.01692
3016.09198,0.01700
3014.03181,0.01685
3011.97163,0.01677
3009.91146,0.01674
3007.85129,0.01661
3005.79112,0.01635
3003.73095,0.01616
3001.67077,0.01618
2999.61060,0.01624
2997.55043,0.01625
2995.49026,0.01625
2993.43009,0.01624
2991.36991,0.01624
2989.30974,0.01617
2987.24957,0.01610
2985.18940,0.01609
2983.12923,0.01594
2981.06905,0.01565
2979.00888,0.01541
2976.94871,0.01522
2974.88854,0.01508
2972.82836,0.01506
2970.76819,0.01521
2968.70802,0.01534
2966.64785,0.01532
2964.58768,0.01523
2962.52750,0.01524
2960.46733,0.01529
2958.40716,0.01521
2956.34699,0.01517
2954.28682,0.01525
2952.22664,0.01521
2950.16647,0.01503
2948.10630,0.01478
2946.04613,0.01465
2943.98596,0.01477
2941.92578,0.01492
2939.86561,0.01513
2937.80544,0.01537
2935.74527,0.01527
2933.68509,0.01497
2931.62492,0.01483
2929.56475,0.01482
2927.50458,0.01476
2925.44441,0.01462
2923.38423,0.01455
2921.32406,0.01465
2919.26389,0.01470
2917.20372,0.01455
2915.14355,0.01438
2913.08337,0.01424
2911.02320,0.01413
2908.96303,0.01416
2906.90286,0.01425
2904.84268,0.01426
2902.78251,0.01424
2900.72234,0.01425
2898.66217,0.01431
2896.60200,0.01432
2894.54182,0.01422
2892.48165,0.01425
2890.42148,0.01448
2888.36131,0.01461
2886.30114,0.01441
2884.24096,0.01425
2882.18079,0.01446
2880.12062,0.01465
2878.06045,0.01439
2876.00028,0.01396
2873.94010,0.01387
2871.87993,0.01401
2869.81976,0.01394
2867.75959,0.01365
2865.69941,0.01341
2863.63924,0.01340
2861.57907,0.01361
2859.51890,0.01374
2857.45873,0.01357
2855.39855,0.01334
2853.33838,0.01311
2851.27821,0.01287
2849.21804,0.01293
2847.15787,0.01324
2845.09769,0.01345
2843.03752,0.01342
2840.97735,0.01330
2838.91718,0.01323
2836.85700,0.01320
2834.79683,0.01323
2832.73666,0.01334
2830.67649,0.01330
2828.61632,0.01311
2826.55614,0.01297
2824.49597,0.01293
2822.43580,0.01290
2820.37563,0.01285
2818.31546,0.01295
2816.25528,0.01301
2814.19511,0.01283
2812.13494,0.01269
2810.07477,0.01278
2808.01460,0.01281
2805.95442,0.01253
2803.89425,0.01227
2801.83408,0.01233
2799.77391,0.01241
2797.71373,0.01231
2795.65356,0.01221
2793.59339,0.01220
2791.53322,0.01222
2789.47305,0.01216
2787.41287,0.01199
2785.35270,0.01207
2783.29253,0.01229
2781.23236,0.01217
2779.17219,0.01199
2777.11201,0.01199
2775.05184,0.01195
2772.99167,0.01194
2770.93150,0.01199
2768.87133,0.01197
2766.81115,0.01193
2764.75098,0.01196
2762.69081,0.01175
2760.63064,0.01129
2758.57046,0.01108
2756.51029,0.01119
2754.45012,0.01133
2752.38995,0.01149
2750.32978,0.01159
2748.26960,0.01145
2746.20943,0.01109
2744.14926,0.01087
2742.08909,0.01099
2740.02892,0.01115
2737.96874,0.01109
2735.90857,0.01094
2733.84840,0.01097
2731.78823,0.01110
2729.72805,0.01114
2727.66788,0.01124
2725.60771,0.01137
2723.54754,0.01127
2721.48737,0.01098
2719.42719,0.01080
2717.36702,0.01079
2715.30685,0.01080
2713.24668,0.01067
2711.18651,0.01053
2709.12633,0.01049
2707.06616,0.01055
2705.00599,0.01066
2702.94582,0.01058
2700.88565,0.01040
2698.82547,0.01042
2696.76530,0.01055
2694.70513,0.01050
2692.64496,0.01028
2690.58478,0.01010
2688.52461,0.00994
2686.46444,0.00977
2684.40427,0.00972
2682.34410,0.00974
2680.28392,0.00971
2678.22375,0.00967
2676.16358,0.00965
2674.10341,0.00958
2672.04324,0.00948
2669.98306,0.00939
2667.92289,0.00936
2665.86272,0.00946
2663.80255,0.00956
2661.74238,0.00959
2659.68220,0.00970
2657.62203,0.00972
2655.56186,0.00960
2653.50169,0.00956
2651.44151,0.00953
2649.38134,0.00948
2647.32117,0.00951
2645.26100,0.00944
2643.20083,0.00922
2641.14065,0.00906
2639.08048,0.00898
2637.02031,0.00887
2634.96014,0.00877
2632.89997,0.00881
2630.83979,0.00883
2628.77962,0.00852
2626.71945,0.00801
2624.65928,0.00773
2622.59910,0.00782
2620.53893,0.00792
2618.47876,0.00774
2616.41859,0.00755
2614.35842,0.00761
2612.29824,0.00771
2610.23807,0.00784
2608.17790,0.00801
2606.11773,0.00803
2604.05756,0.00782
2601.99738,0.00753
2599.93721,0.00733
2597.87704,0.00723
2595.81687,0.00722
2593.75670,0.00729
2591.69652,0.00737
2589.63635,0.00739
2587.57618,0.00736
2585.51601,0.00752
2583.45583,0.00785
2581.39566,0.00779
2579.33549,0.00722
2577.27532,0.00682
2575.21515,0.00696
2573.15497,0.00709
2571.09480,0.00687
2569.03463,0.00677
2566.97446,0.00690
2564.91429,0.00713
2562.85411,0.00761
2560.79394,0.00782
2558.73377,0.00740
2556.67360,0.00718
2554.61342,0.00738
2552.55325,0.00745
2550.49308,0.00740
2548.43291,0.00733
2546.37274,0.00707
2544.31256,0.00674
2542.25239,0.00640
2540.19222,0.00611
2538.13205,0.00625
2536.07188,0.00687
2534.01170,0.00753
2531.95153,0.00772
2529.89136,0.00735
2527.83119,0.00701
2525.77102,0.00703
2523.71084,0.00713
2521.65067,0.00702
2519.59050,0.00699
2517.53033,0.00731
2515.47015,0.00765
2513.40998,0.00759
2511.34981,0.00726
2509.28964,0.00724
2507.22947,0.00758
2505.16929,0.00781
2503.10912,0.00775
2501.04895,0.00750
2498.98878,0.00723
2496.92861,0.00716
2494.86843,0.00724
2492.80826,0.00727
2490.74809,0.00736
2488.68792,0.00772
2486.62775,0.00797
2484.56757,0.00788
2482.50740,0.00795
2480.44723,0.00808
2478.38706,0.00795
2476.32688,0.00766
2474.26671,0.00732
2472.20654,0.00713
2470.14637,0.00735
2468.08620,0.00790
2466.02602,0.00813
2463.96585,0.00795
2461.90568,0.00787
2459.84551,0.00794
2457.78534,0.00800
2455.72516,0.00798
2453.66499,0.00796
2451.60482,0.00801
2449.54465,0.00785
2447.48447,0.00747
2445.42430,0.00726
2443.36413,0.00736
2441.30396,0.00773
2439.24379,0.00798
2437.18361,0.00803
2435.12344,0.00825
2433.06327,0.00838
2431.00310,0.00829
2428.94293,0.00828
2426.88275,0.00836
2424.82258,0.00865
2422.76241,0.00882
2420.70224,0.00858
2418.64207,0.00825
2416.58189,0.00804
2414.52172,0.00799
2412.46155,0.00796
2410.40138,0.00786
2408.34120,0.00775
2406.28103,0.00781
2404.22086,0.00815
2402.16069,0.00839
2400.10052,0.00814
2398.04034,0.00760
2395.98017,0.00740
2393.92000,0.00742
2391.85983,0.00746
2389.79966,0.00747
2387.73948,0.00753
2385.67931,0.00773
2383.61914,0.00791
2381.55897,0.00776
2379.49880,0.00749
2377.43862,0.00751
2375.37845,0.00751
2373.31828,0.00704
2371.25811,0.00632
2369.19793,0.00578
2367.13776,0.00590
2365.07759,0.00700
2363.01742,0.00816
2360.95725,0.00744
2358.89707,0.00531
2356.83690,0.00490
2354.77673,0.00638
2352.71656,0.00748
2350.65639,0.00809
2348.59621,0.00894
2346.53604,0.00952
2344.47587,0.00905
2342.41570,0.00827
2340.35552,0.00799
2338.29535,0.00826
2336.23518,0.00894
2334.17501,0.00905
2332.11484,0.00829
2330.05466,0.00796
2327.99449,0.00903
2325.93432,0.01050
2323.87415,0.01075
2321.81398,0.00968
2319.75380,0.00869
2317.69363,0.00862
2315.63346,0.00890
2313.57329,0.00882
2311.51312,0.00869
2309.45294,0.00878
2307.39277,0.00862
2305.33260,0.00801
2303.27243,0.00747
2301.21225,0.00732
2299.15208,0.00736
2297.09191,0.00755
2295.03174,0.00779
2292.97157,0.00772
2290.91139,0.00737
2288.85122,0.00719
2286.79105,0.00752
2284.73088,0.00818
2282.67071,0.00859
2280.61053,0.00852
2278.55036,0.00809
2276.49019,0.00740
2274.43002,0.00682
2272.36984,0.00691
2270.30967,0.00743
2268.24950,0.00761
2266.18933,0.00737
2264.12916,0.00692
2262.06898,0.00661
2260.00881,0.00671
2257.94864,0.00686
2255.88847,0.00718
2253.82830,0.00765
2251.76812,0.00729
2249.70795,0.00630
2247.64778,0.00549
2245.58761,0.00475
2243.52744,0.00522
2241.46726,0.00652
2239.40709,0.00695
2237.34692,0.00709
2235.28675,0.00743
2233.22657,0.00735
2231.16640,0.00669
2229.10623,0.00579
2227.04606,0.00530
2224.98589,0.00512
2222.92571,0.00533
2220.86554,0.00601
2218.80537,0.00632
2216.74520,0.00624
2214.68503,0.00578
2212.62485,0.00502
2210.56468,0.00454
2208.50451,0.00430
2206.44434,0.00473
2204.38417,0.00550
2202.32399,0.00578
2200.26382,0.00581
2198.20365,0.00558
2196.14348,0.00533
2194.08330,0.00561
2192.02313,0.00582
2189.96296,0.00518
2187.90279,0.00406
2185.84262,0.00321
2183.78244,0.00338
2181.72227,0.00448
2179.66210,0.00474
2177.60193,0.00360
2175.54176,0.00312
2173.48158,0.00363
2171.42141,0.00364
2169.36124,0.00410
2167.30107,0.00524
2165.24089,0.00506
2163.18072,0.00434
2161.12055,0.00413
2159.06038,0.00364
2157.00021,0.00352
2154.94003,0.00365
2152.87986,0.00314
2150.81969,0.00316
2148.75952,0.00398
2146.69935,0.00437
2144.63917,0.00394
2142.57900,0.00270
2140.51883,0.00186
2138.45866,0.00256
2136.39849,0.00318
2134.33831,0.00297
2132.27814,0.00309
2130.21797,0.00335
2128.15780,0.00344
2126.09762,0.00376
2124.03745,0.00431
2121.97728,0.00473
2119.91711,0.00426
2117.85694,0.00370
2115.79676,0.00427
2113.73659,0.00502
2111.67642,0.00525
2109.61625,0.00522
2107.55608,0.00477
2105.49590,0.00421
2103.43573,0.00387
2101.37556,0.00409
2099.31539,0.00481
2097.25521,0.00492
2095.19504,0.00435
2093.13487,0.00407
2091.07470,0.00412
2089.01453,0.00383
2086.95435,0.00332
2084.89418,0.00324
2082.83401,0.00356
2080.77384,0.00401
2078.71367,0.00400
2076.65349,0.00314
2074.59332,0.00242
2072.53315,0.00251
2070.47298,0.00290
2068.41281,0.00347
2066.35263,0.00421
2064.29246,0.00487
2062.23229,0.00522
2060.17212,0.00504
2058.11194,0.00455
2056.05177,0.00442
2053.99160,0.00473
2051.93143,0.00503
2049.87126,0.00519
2047.81108,0.00496
2045.75091,0.00421
2043.69074,0.00357
2041.63057,0.00348
2039.57040,0.00398
2037.51022,0.00461
2035.45005,0.00418
2033.38988,0.00281
2031.32971,0.00134
2029.26954,0.00000
2027.20936,0.00014
2025.14919,0.00229
2023.08902,0.00422
2021.02885,0.00437
2018.96867,0.00411
2016.90850,0.00437
2014.84833,0.00396
2012.78816,0.00272
2010.72799,0.00201
2008.66781,0.00207
2006.60764,0.00207
2004.54747,0.00244
2002.48730,0.00393
2000.42713,0.00544
1998.36695,0.00536
1996.30678,0.00447
1994.24661,0.00427
1992.18644,0.00461
1990.12626,0.00488
1988.06609,0.00492
1986.00592,0.00508
1983.94575,0.00557
1981.88558,0.00578
1979.82540,0.00536
1977.76523,0.00468
1975.70506,0.00412
1973.64489,0.00328
1971.58472,0.00232
1969.52454,0.00216
1967.46437,0.00241
1965.40420,0.00217
1963.34403,0.00113
1961.28386,0.00000
1959.22368,-0.00003
1957.16351,0.00079
1955.10334,0.00146
1953.04317,0.00141
1950.98299,0.00092
1948.92282,0.00123
1946.86265,0.00243
1944.80248,0.00336
1942.74231,0.00355
1940.68213,0.00341
1938.62196,0.00323
1936.56179,0.00283
1934.50162,0.00230
1932.44145,0.00184
1930.38127,0.00152
1928.32110,0.00152
1926.26093,0.00150
1924.20076,0.00106
1922.14059,0.00086
1920.08041,0.00135
1918.02024,0.00182
1915.96007,0.00188
1913.89990,0.00188
1911.83972,0.00193
1909.77955,0.00192
1907.71938,0.00210
1905.65921,0.00249
1903.59904,0.00262
1901.53886,0.00240
1899.47869,0.00230
1897.41852,0.00250
1895.35835,0.00274
1893.29818,0.00281
1891.23800,0.00289
1889.17783,0.00309
1887.11766,0.00305
1885.05749,0.00274
1882.99731,0.00249
1880.93714,0.00235
1878.87697,0.00220
1876.81680,0.00217
1874.75663,0.00230
1872.69645,0.00230
1870.63628,0.00230
1868.57611,0.00277
1866.51594,0.00338
1864.45577,0.00339
1862.39559,0.00296
1860.33542,0.00282
1858.27525,0.00308
1856.21508,0.00339
1854.15491,0.00358
1852.09473,0.00357
1850.03456,0.00332
1847.97439,0.00296
1845.91422,0.00271
1843.85404,0.00264
1841.79387,0.00268
1839.73370,0.00266
1837.67353,0.00252
1835.61336,0.00239
1833.55318,0.00245
1831.49301,0.00269
1829.43284,0.00292
1827.37267,0.00291
1825.31250,0.00270
1823.25232,0.00257
1821.19215,0.00271
1819.13198,0.00295
1817.07181,0.00297
1815.01163,0.00278
1812.95146,0.00263
1810.89129,0.00264
1808.83112,0.00273
1806.77095,0.00275
1804.71077,0.00268
1802.65060,0.00259
1800.59043,0.00256
1798.53026,0.00271
1796.47009,0.00298
1794.40991,0.00322
1792.34974,0.00328
1790.28957,0.00313
1788.22940,0.00297
1786.16923,0.00284
1784.10905,0.00276
1782.04888,0.00275
1779.98871,0.00280
1777.92854,0.00296
1775.86836,0.00305
1773.80819,0.00285
1771.74802,0.00258
1769.68785,0.00260
1767.62768,0.00282
1765.56750,0.00306
1763.50733,0.00316
1761.44716,0.00308
1759.38699,0.00292
1757.32682,0.00292
1755.26664,0.00320
1753.20647,0.00362
1751.14630,0.00391
1749.08613,0.00392
1747.02596,0.00388
1744.96578,0.00399
1742.90561,0.00418
1740.84544,0.00430
1738.78527,0.00424
1736.72509,0.00407
1734.66492,0.00413
1732.60475,0.00445
1730.54458,0.00457
1728.48441,0.00453
1726.42423,0.00458
1724.36406,0.00473
1722.30389,0.00500
1720.24372,0.00538
1718.18355,0.00563
1716.12337,0.00547
1714.06320,0.00518
1712.00303,0.00513
1709.94286,0.00529
1707.88268,0.00550
1705.82251,0.00571
1703.76234,0.00582
1701.70217,0.00576
1699.64200,0.00573
1697.58182,0.00589
1695.52165,0.00603
1693.46148,0.00610
1691.40131,0.00618
1689.34114,0.00622
1687.28096,0.00606
1685.22079,0.00581
1683.16062,0.00589
1681.10045,0.00639
1679.04028,0.00685
1676.98010,0.00697
1674.91993,0.00687
1672.85976,0.00685
1670.79959,0.00701
1668.73941,0.00724
1666.67924,0.00739
1664.61907,0.00749
1662.55890,0.00770
1660.49873,0.00795
1658.43855,0.00798
1656.37838,0.00783
1654.31821,0.00777
1652.25804,0.00797
1650.19787,0.00819
1648.13769,0.00827
1646.07752,0.00817
1644.01735,0.00804
1641.95718,0.00800
1639.89701,0.00791
1637.83683,0.00756
1635.77666,0.00720
1633.71649,0.00723
1631.65632,0.00741
1629.59614,0.00741
1627.53597,0.00725
1625.47580,0.00710
1623.41563,0.00704
1621.35546,0.00703
1619.29528,0.00708
1617.23511,0.00715
1615.17494,0.00713
1613.11477,0.00700
1611.05460,0.00695
1608.99442,0.00693
1606.93425,0.00677
1604.87408,0.00653
1602.81391,0.00632
1600.75373,0.00618
1598.69356,0.00602
1596.63339,0.00577
1594.57322,0.00553
1592.51305,0.00536
1590.45287,0.00518
1588.39270,0.00499
1586.33253,0.00483
1584.27236,0.00465
1582.21219,0.00443
1580.15201,0.00431
1578.09184,0.00429
1576.03167,0.00428
1573.97150,0.00422
1571.91133,0.00424
1569.85115,0.00430
1567.79098,0.00410
1565.73081,0.00364
1563.67064,0.00322
1561.61046,0.00291
1559.55029,0.00263
1557.49012,0.00250
1555.42995,0.00257
1553.36978,0.00269
1551.30960,0.00274
1549.24943,0.00266
1547.18926,0.00245
1545.12909,0.00222
1543.06892,0.00213
1541.00874,0.00230
1538.94857,0.00250
1536.88840,0.00245
1534.82823,0.00224
1532.76805,0.00200
1530.70788,0.00177
1528.64771,0.00164
1526.58754,0.00165
1524.52737,0.00182
1522.46719,0.00206
1520.40702,0.00213
1518.34685,0.00190
1516.28668,0.00158
1514.22651,0.00139
1512.16633,0.00146
1510.10616,0.00186
1508.04599,0.00234
1505.98582,0.00233
1503.92565,0.00202
1501.86547,0.00184
1499.80530,0.00177
1497.74513,0.00164
1495.68496,0.00148
1493.62478,0.00132
1491.56461,0.00114
1489.50444,0.00101
1487.44427,0.00096
1485.38410,0.00100
1483.32392,0.00116
1481.26375,0.00136
1479.20358,0.00146
1477.14341,0.00142
1475.08324,0.00141
1473.02306,0.00146
1470.96289,0.00147
1468.90272,0.00144
1466.84255,0.00141
1464.78238,0.00148
1462.72220,0.00160
1460.66203,0.00164
1458.60186,0.00159
1456.54169,0.00157
1454.48151,0.00164
1452.42134,0.00180
1450.36117,0.00198
1448.30100,0.00212
1446.24083,0.00220
1444.18065,0.00222
1442.12048,0.00215
1440.06031,0.00194
1438.00014,0.00164
1435.93997,0.00151
1433.87979,0.00158
1431.81962,0.00167
1429.75945,0.00171
1427.69928,0.00165
1425.63910,0.00144
1423.57893,0.00127
1421.51876,0.00130
1419.45859,0.00140
1417.39842,0.00147
1415.33824,0.00164
1413.27807,0.00183
1411.21790,0.00183
1409.15773,0.00168
1407.09756,0.00147
1405.03738,0.00134
1402.97721,0.00138
1400.91704,0.00145
1398.85687,0.00140
1396.79670,0.00139
1394.73652,0.00154
1392.67635,0.00161
1390.61618,0.00152
1388.55601,0.00147
1386.49583,0.00156
1384.43566,0.00172
1382.37549,0.00188
1380.31532,0.00198
1378.25515,0.00207
1376.19497,0.00212
1374.13480,0.00212
1372.07463,0.00211
1370.01446,0.00207
1367.95429,0.00201
1365.89411,0.00208
1363.83394,0.00224
1361.77377,0.00237
1359.71360,0.00240
1357.65343,0.00228
1355.59325,0.00204
1353.53308,0.00195
1351.47291,0.00213
1349.41274,0.00226
1347.35256,0.00215
1345.29239,0.00198
1343.23222,0.00192
1341.17205,0.00194
1339.11188,0.00202
1337.05170,0.00215
1334.99153,0.00220
1332.93136,0.00211
1330.87119,0.00193
1328.81102,0.00182
1326.75084,0.00187
1324.69067,0.00196
1322.63050,0.00201
1320.57033,0.00199
1318.51015,0.00193
1316.44998,0.00186
1314.38981,0.00178
1312.32964,0.00173
1310.26947,0.00177
1308.20929,0.00177
1306.14912,0.00166
1304.08895,0.00160
1302.02878,0.00168
1299.96861,0.00179
1297.90843,0.00192
1295.84826,0.00195
1293.78809,0.00179
1291.72792,0.00159
1289.66775,0.00146
1287.60757,0.00138
1285.54740,0.00138
1283.48723,0.00146
1281.42706,0.00158
1279.36688,0.00166
1277.30671,0.00173
1275.24654,0.00181
1273.18637,0.00190
1271.12620,0.00198
1269.06602,0.00207
1267.00585,0.00214
1264.94568,0.00208
1262.88551,0.00186
1260.82534,0.00176
1258.76516,0.00190
1256.70499,0.00190
1254.64482,0.00168
1252.58465,0.00155
1250.52447,0.00157
1248.46430,0.00150
1246.40413,0.00139
1244.34396,0.00136
1242.28379,0.00131
1240.22361,0.00113
1238.16344,0.00094
1236.10327,0.00093
1234.04310,0.00110
1231.98293,0.00125
1229.92275,0.00127
1227.86258,0.00131
1225.80241,0.00140
1223.74224,0.00141
1221.68207,0.00136
1219.62189,0.00125
1217.56172,0.00113
1215.50155,0.00113
1213.44138,0.00115
1211.38120,0.00103
1209.32103,0.00096
1207.26086,0.00109
1205.20069,0.00114
1203.14052,0.00100
1201.08034,0.00104
1199.02017,0.00127
1196.96000,0.00137
1194.89983,0.00149
1192.83966,0.00178
1190.77948,0.00208
1188.71931,0.00245
1186.65914,0.00290
1184.59897,0.00311
1182.53880,0.00323
1180.47862,0.00357
1178.41845,0.00396
1176.35828,0.00423
1174.29811,0.00460
1172.23793,0.00520
1170.17776,0.00577
1168.11759,0.00609
1166.05742,0.00634
1163.99725,0.00677
1161.93707,0.00726
1159.87690,0.00768
1157.81673,0.00815
1155.75656,0.00860
1153.69639,0.00885
1151.63621,0.00911
1149.57604,0.00956
1147.51587,0.01001
1145.45570,0.01047
1143.39552,0.01106
1141.33535,0.01174
1139.27518,0.01238
1137.21501,0.01290
1135.15484,0.01340
1133.09466,0.01404
1131.03449,0.01467
1128.97432,0.01524
1126.91415,0.01588
1124.85398,0.01647
1122.79380,0.01677
1120.73363,0.01707
1118.67346,0.01772
1116.61329,0.01844
1114.55312,0.01903
1112.49294,0.01963
1110.43277,0.02019
1108.37260,0.02075
1106.31243,0.02142
1104.25225,0.02205
1102.19208,0.02263
1100.13191,0.02320
1098.07174,0.02371
1096.01157,0.02419
1093.95139,0.02461
1091.89122,0.02501
1089.83105,0.02555
1087.77088,0.02613
1085.71071,0.02667
1083.65053,0.02726
1081.59036,0.02784
1079.53019,0.02824
1077.47002,0.02846
1075.40985,0.02861
1073.34967,0.02864
1071.28950,0.02861
1069.22933,0.02872
1067.16916,0.02892
1065.10898,0.02903
1063.04881,0.02898
1060.98864,0.02891
1058.92847,0.02888
1056.86830,0.02886
1054.80812,0.02868
1052.74795,0.02840
1050.68778,0.02808
1048.62761,0.02752
1046.56744,0.02679
1044.50726,0.02618
1042.44709,0.02566
1040.38692,0.02520
1038.32675,0.02480
1036.26657,0.02437
1034.20640,0.02387
1032.14623,0.02335
1030.08606,0.02277
1028.02589,0.02213
1025.96571,0.02151
1023.90554,0.02098
1021.84537,0.02056
1019.78520,0.02022
1017.72503,0.01994
1015.66485,0.01961
1013.60468,0.01915
1011.54451,0.01889
1009.48434,0.01894
1007.42417,0.01892
1005.36399,0.01878
1003.30382,0.01865
1001.24365,0.01857
999.18348,0.01876
997.12330,0.01920
995.06313,0.01961
993.00296,0.01995
990.94279,0.02024
988.88262,0.02038
986.82244,0.02060
984.76227,0.02090
982.70210,0.02094
980.64193,0.02078
978.58176,0.02066
976.52158,0.02046
974.46141,0.01997
972.40124,0.01928
970.34107,0.01846
968.28089,0.01767
966.22072,0.01721
964.16055,0.01704
962.10038,0.01666
960.04021,0.01576
957.98003,0.01479
955.91986,0.01431
953.85969,0.01412
951.79952,0.01387
949.73935,0.01362
947.67917,0.01344
945.61900,0.01328
943.55883,0.01301
941.49866,0.01273
939.43849,0.01265
937.37831,0.01272
935.31814,0.01276
933.25797,0.01280
931.19780,0.01282
929.13762,0.01261
927.07745,0.01238
925.01728,0.01242
922.95711,0.01244
920.89694,0.01230
918.83676,0.01211
916.77659,0.01172
914.71642,0.01117
912.65625,0.01091
910.59608,0.01082
908.53590,0.01056
906.47573,0.01052
904.41556,0.01069
902.35539,0.01062
900.29522,0.01051
898.23504,0.01039
896.17487,0.01043
894.11470,0.01080
892.05453,0.01100
889.99435,0.01093
887.93418,0.01082
885.87401,0.01075
883.81384,0.01097
881.75367,0.01146
879.69349,0.01174
877.63332,0.01171
875.57315,0.01157
873.51298,0.01157
871.45281,0.01196
869.39263,0.01227
867.33246,0.01215
865.27229,0.01190
863.21212,0.01154
861.15194,0.01116
859.09177,0.01116
857.03160,0.01143
854.97143,0.01164
852.91126,0.01151
850.85108,0.01096
848.79091,0.01045
846.73074,0.01014
844.67057,0.00976
842.61040,0.00946
840.55022,0.00940
838.49005,0.00918
836.42988,0.00893
834.36971,0.00899
832.30954,0.00904
830.24936,0.00868
828.18919,0.00803
826.12902,0.00744
824.06885,0.00709
822.00867,0.00710
819.94850,0.00719
817.88833,0.00692
815.82816,0.00631
813.76799,0.00570
811.70781,0.00577
809.64764,0.00642
807.58747,0.00637
805.52730,0.00528
803.46713,0.00432
801.40695,0.00420
799.34678,0.00427
797.28661,0.00409
795.22644,0.00414
793.16627,0.00429
791.10609,0.00428
789.04592,0.00417
786.98575,0.00394
784.92558,0.00388
782.86540,0.00406
780.80523,0.00429
778.74506,0.00437
776.68489,0.00413
774.62472,0.00400
772.56454,0.00378
770.50437,0.00334
768.44420,0.00371
766.38403,0.00468
764.32386,0.00473
762.26368,0.00388
760.20351,0.00303
758.14334,0.00262
756.08317,0.00289
754.02299,0.00361
751.96282,0.00377
749.90265,0.00299
747.84248,0.00238
745.78231,0.00239
743.72213,0.00235
741.66196,0.00229
739.60179,0.00251
737.54162,0.00293
735.48145,0.00335
733.42127,0.00357
731.36110,0.00326
729.30093,0.00268
727.24076,0.00234
725.18059,0.00239
723.12041,0.00272
721.06024,0.00283
719.00007,0.00301
716.93990,0.00316
714.87972,0.00292
712.81955,0.00259
710.75938,0.00242
708.69921,0.00202
706.63904,0.00145
704.57886,0.00115
702.51869,0.00117
700.45852,0.00145
698.39835,0.00175
696.33818,0.00177
694.27800,0.00163
692.21783,0.00158
690.15766,0.00183
688.09749,0.00251
686.03731,0.00316
683.97714,0.00300
681.91697,0.00241
679.85680,0.00260
677.79663,0.00337
675.73645,0.00348
673.67628,0.00261
671.61611,0.00143
669.55594,0.00044
667.49577,0.00000
665.43559,0.00026
663.37542,0.00125
661.31525,0.00212
659.25508,0.00230
657.19491,0.00183
655.13473,0.00149
653.07456,0.00149
651.01439,0.00138
648.95422,0.00155
646.89404,0.00254
644.83387,0.00351
642.77370,0.00307
640.71353,0.00123
638.65336,0.00000
636.59318,0.00041
634.53301,0.00118
632.47284,0.00087
630.41267,0.00012
628.35250,0.00032
626.29232,0.00138
624.23215,0.00178
622.17198,0.00099
620.11181,-0.00079
618.05164,-0.00137
615.99146,-0.00027
613.93129,0.00041
611.87112,0.00085
609.81095,0.00065
607.75077,-0.00061
605.69060,-0.00152
603.63043,-0.00122
601.57026,-0.00038
599.51009,0.00000
