3996.73391,0.00151
3994.67373,0.00135
3992.61356,0.00120
3990.55339,0.00106
3988.49322,0.00099
3986.43305,0.00101
3984.37287,0.00098
3982.31270,0.00081
3980.25253,0.00074
3978.19236,0.00085
3976.13219,0.00098
3974.07201,0.00112
3972.01184,0.00134
3969.95167,0.00156
3967.89150,0.00156
3965.83133,0.00137
3963.77115,0.00121
3961.71098,0.00119
3959.65081,0.00122
3957.59064,0.00126
3955.53046,0.00119
3953.47029,0.00084
3951.41012,0.00034
3949.34995,0.00000
3947.28978,0.00003
3945.22960,0.00027
3943.16943,0.00044
3941.10926,0.00075
3939.04909,0.00132
3936.98892,0.00162
3934.92874,0.00133
3932.86857,0.00091
3930.80840,0.00088
3928.74823,0.00112
3926.68805,0.00139
3924.62788,0.00168
3922.56771,0.00184
3920.50754,0.00170
3918.44737,0.00129
3916.38719,0.00088
3914.32702,0.00089
3912.26685,0.00120
3910.20668,0.00123
3908.14651,0.00072
3906.08633,0.00014
3904.02616,0.00013
3901.96599,0.00066
3899.90582,0.00101
3897.84565,0.00102
3895.78547,0.00097
3893.72530,0.00086
3891.66513,0.00081
3889.60496,0.00090
3887.54478,0.00091
3885.48461,0.00103
3883.42444,0.00145
3881.36427,0.00180
3879.30410,0.00193
3877.24392,0.00187
3875.18375,0.00164
3873.12358,0.00135
3871.06341,0.00131
3869.00324,0.00175
3866.94306,0.00215
3864.88289,0.00196
3862.82272,0.00152
3860.76255,0.00126
3858.70237,0.00096
3856.64220,0.00038
3854.58203,0.00010
3852.52186,0.00059
3850.46169,0.00091
3848.40151,0.00067
3846.34134,0.00044
3844.28117,0.00064
3842.22100,0.00120
3840.16083,0.00197
3838.10065,0.00268
3836.04048,0.00264
3833.98031,0.00208
3831.92014,0.00182
3829.85997,0.00182
3827.79979,0.00164
3825.73962,0.00136
3823.67945,0.00114
3821.61928,0.00110
3819.55910,0.00129
3817.49893,0.00148
3815.43876,0.00170
3813.37859,0.00182
3811.31842,0.00158
3809.25824,0.00125
3807.19807,0.00101
3805.13790,0.00073
3803.07773,0.00058
3801.01756,0.00084
3798.95738,0.00107
3796.89721,0.00105
3794.83704,0.00116
3792.77687,0.00131
3790.71670,0.00134
3788.65652,0.00141
3786.59635,0.00160
3784.53618,0.00177
3782.47601,0.00183
3780.41583,0.00165
3778.35566,0.00129
3776.29549,0.00113
3774.23532,0.00129
3772.17515,0.00153
3770.11497,0.00171
3768.05480,0.00180
3765.99463,0.00171
3763.93446,0.00140
3761.87429,0.00095
3759.81411,0.00056
3757.75394,0.00028
3755.69377,0.00000
3753.63360,0.00026
3751.57342,0.00139
3749.51325,0.00207
3747.45308,0.00119
3745.39291,0.00029
3743.33274,0.00065
3741.27256,0.00117
3739.21239,0.00097
3737.15222,0.00050
3735.09205,0.00035
3733.03188,0.00046
3730.97170,0.00063
3728.91153,0.00096
3726.85136,0.00120
3724.79119,0.00095
3722.73102,0.00055
3720.67084,0.00048
3718.61067,0.00067
3716.55050,0.00091
3714.49033,0.00089
3712.43015,0.00047
3710.36998,0.00008
3708.30981,0.00016
3706.24964,0.00065
3704.18947,0.00131
3702.12929,0.00184
3700.06912,0.00179
3698.00895,0.00128
3695.94878,0.00083
3693.88861,0.00066
3691.82843,0.00116
3689.76826,0.00225
3687.70809,0.00267
3685.64792,0.00224
3683.58775,0.00178
3681.52757,0.00147
3679.46740,0.00114
3677.40723,0.00100
3675.34706,0.00135
3673.28688,0.00170
3671.22671,0.00153
3669.16654,0.00134
3667.10637,0.00138
3665.04620,0.00143
3662.98602,0.00155
3660.92585,0.00171
3658.86568,0.00165
3656.80551,0.00147
3654.74534,0.00145
3652.68516,0.00131
3650.62499,0.00104
3648.56482,0.00133
3646.50465,0.00200
3644.44447,0.00213
3642.38430,0.00204
3640.32413,0.00231
3638.26396,0.00261
3636.20379,0.00262
3634.14361,0.00259
3632.08344,0.00272
3630.02327,0.00317
3627.96310,0.00392
3625.90293,0.00420
3623.84275,0.00395
3621.78258,0.00368
3619.72241,0.00355
3617.66224,0.00358
3615.60207,0.00386
3613.54189,0.00450
3611.48172,0.00522
3609.42155,0.00558
3607.36138,0.00565
3605.30120,0.00546
3603.24103,0.00506
3601.18086,0.00500
3599.12069,0.00546
3597.06052,0.00607
3595.00034,0.00656
3592.94017,0.00671
3590.88000,0.00654
3588.81983,0.00653
3586.75966,0.00695
3584.69948,0.00737
3582.63931,0.00740
3580.57914,0.00718
3578.51897,0.00713
3576.45879,0.00746
3574.39862,0.00781
3572.33845,0.00780
3570.27828,0.00747
3568.21811,0.00716
3566.15793,0.00737
3564.09776,0.00801
3562.03759,0.00851
3559.97742,0.00876
3557.91725,0.00881
3555.85707,0.00871
3553.79690,0.00859
3551.73673,0.00865
3549.67656,0.00899
3547.61639,0.00934
3545.55621,0.00947
3543.49604,0.00958
3541.43587,0.00971
3539.37570,0.00978
3537.31552,0.01000
3535.25535,0.01044
3533.19518,0.01089
3531.13501,0.01120
3529.07484,0.01136
3527.01466,0.01157
3524.95449,0.01189
3522.89432,0.01206
3520.83415,0.01205
3518.77398,0.01207
3516.71380,0.01212
3514.65363,0.01203
3512.59346,0.01181
3510.53329,0.01178
3508.47312,0.01220
3506.41294,0.01278
3504.35277,0.01298
3502.29260,0.01268
3500.23243,0.01239
3498.17225,0.01234
3496.11208,0.01249
3494.05191,0.01290
3491.99174,0.01334
3489.93157,0.01352
3487.87139,0.01374
3485.81122,0.01412
3483.75105,0.01434
3481.69088,0.01433
3479.63071,0.01432
3477.57053,0.01447
3475.51036,0.01474
3473.45019,0.01493
3471.39002,0.01499
3469.32984,0.01503
3467.26967,0.01522
3465.20950,0.01545
3463.14933,0.01540
3461.08916,0.01527
3459.02898,0.01539
3456.96881,0.01552
3454.90864,0.01540
3452.84847,0.01516
3450.78830,0.01499
3448.72812,0.01529
3446.66795,0.01592
3444.60778,0.01618
3442.54761,0.01630
3440.48744,0.01662
3438.42726,0.01681
3436.36709,0.01694
3434.30692,0.01705
3432.24675,0.01686
3430.18657,0.01673
3428.12640,0.01681
3426.06623,0.01668
3424.00606,0.01650
3421.94589,0.01676
3419.88571,0.01720
3417.82554,0.01730
3415.76537,0.01731
3413.70520,0.01747
3411.64503,0.01759
3409.58485,0.01740
3407.52468,0.01726
3405.46451,0.01770
3403.40434,0.01814
3401.34416,0.01807
3399.28399,0.01796
3397.22382,0.01798
3395.16365,0.01811
3393.10348,0.01823
3391.04330,0.01825
3388.98313,0.01825
3386.92296,0.01817
3384.86279,0.01826
3382.80262,0.01849
3380.74244,0.01834
3378.68227,0.01809
3376.62210,0.01840
3374.56193,0.01905
3372.50176,0.01945
3370.44158,0.01948
3368.38141,0.01936
3366.32124,0.01942
3364.26107,0.01974
3362.20089,0.01987
3360.14072,0.01959
3358.08055,0.01942
3356.02038,0.01958
3353.96021,0.01963
3351.90003,0.01953
3349.83986,0.01962
3347.77969,0.01970
3345.71952,0.01952
3343.65935,0.01934
3341.59917,0.01936
3339.53900,0.01942
3337.47883,0.01943
3335.41866,0.01958
3333.35849,0.01991
3331.29831,0.02022
3329.23814,0.02033
3327.17797,0.02010
3325.11780,0.01977
3323.05762,0.01986
3320.99745,0.02019
3318.93728,0.02031
3316.87711,0.02040
3314.81694,0.02043
3312.75676,0.02014
3310.69659,0.01979
3308.63642,0.01972
3306.57625,0.01991
3304.51608,0.02025
3302.45590,0.02055
3300.39573,0.02057
3298.33556,0.02034
3296.27539,0.02028
3294.21521,0.02058
3292.15504,0.02090
3290.09487,0.02094
3288.03470,0.02091
3285.97453,0.02101
3283.91435,0.02095
3281.85418,0.02079
3279.79401,0.02083
3277.73384,0.02083
3275.67367,0.02080
3273.61349,0.02102
3271.55332,0.02138
3269.49315,0.02143
3267.43298,0.02109
3265.37281,0.02072
3263.31263,0.02062
3261.25246,0.02091
3259.19229,0.02132
3257.13212,0.02140
3255.07194,0.02117
3253.01177,0.02105
3250.95160,0.02118
3248.89143,0.02135
3246.83126,0.02136
3244.77108,0.02138
3242.71091,0.02149
3240.65074,0.02143
3238.59057,0.02124
3236.53040,0.02118
3234.47022,0.02124
3232.41005,0.02120
3230.34988,0.02097
3228.28971,0.02081
3226.22954,0.02082
3224.16936,0.02075
3222.10919,0.02063
3220.04902,0.02069
3217.98885,0.02079
3215.92867,0.02081
3213.86850,0.02103
3211.80833,0.02143
3209.74816,0.02158
3207.68799,0.02150
3205.62781,0.02155
3203.56764,0.02153
3201.50747,0.02130
3199.44730,0.02107
3197.38713,0.02082
3195.32695,0.02066
3193.26678,0.02090
3191.20661,0.02133
3189.14644,0.02135
3187.08626,0.02098
3185.02609,0.02074
3182.96592,0.02079
3180.90575,0.02083
3178.84558,0.02080
3176.78540,0.02088
3174.72523,0.02099
3172.66506,0.02099
3170.60489,0.02088
3168.54472,0.02057
3166.48454,0.02007
3164.42437,0.01981
3162.36420,0.01994
3160.30403,0.02012
3158.24386,0.02006
3156.18368,0.01973
3154.12351,0.01939
3152.06334,0.01942
3150.00317,0.01972
3147.94299,0.02005
3145.88282,0.02038
3143.82265,0.02061
3141.76248,0.02058
3139.70231,0.02015
3137.64213,0.01959
3135.58196,0.01939
3133.52179,0.01939
3131.46162,0.01927
3129.40145,0.01919
3127.34127,0.01930
3125.28110,0.01947
3123.22093,0.01960
3121.16076,0.01954
3119.10058,0.01927
3117.04041,0.01905
3114.98024,0.01894
3112.92007,0.01884
3110.85990,0.01876
3108.79972,0.01869
3106.73955,0.01855
3104.67938,0.01837
3102.61921,0.01831
3100.55904,0.01844
3098.49886,0.01864
3096.43869,0.01874
3094.37852,0.01863
3092.31835,0.01852
3090.25818,0.01845
3088.19800,0.01817
3086.13783,0.01788
3084.07766,0.01793
3082.01749,0.01816
3079.95731,0.01832
3077.89714,0.01830
3075.83697,0.01824
3073.77680,0.01810
3071.71663,0.01781
3069.65645,0.01769
3067.59628,0.01779
3065.53611,0.01771
3063.47594,0.01729
3061.41577,0.01689
3059.35559,0.01675
3057.29542,0.01671
3055.23525,0.01669
3053.17508,0.01668
3051.11491,0.01662
3049.05473,0.01665
3046.99456,0.01663
3044.93439,0.01644
3042.87422,0.01633
3040.81404,0.01633
3038.75387,0.01623
3036.69370,0.01598
3034.63353,0.01578
3032.57336,0.01574
3030.51318,0.01575
3028.45301,0.01585
3026.39284,0.01603
3024.33267,0.01597
3022.27250,0.01553
3020.21232,0.01523
3018.15215,0.01536
3016.09198,0.01555
3014.03181,0.01555
3011.97163,0.01542
3009.91146,0.01512
3007.85129,0.01473
3005.79112,0.01451
3003.73095,0.01448
3001.67077,0.01447
2999.61060,0.01455
2997.55043,0.01480
2995.49026,0.01500
2993.43009,0.01493
2991.36991,0.01473
2989.30974,0.01454
2987.24957,0.01437
2985.18940,0.01414
2983.12923,0.01398
2981.06905,0.01404
2979.00888,0.01419
2976.94871,0.01425
2974.88854,0.01404
2972.82836,0.01370
2970.76819,0.01367
2968.70802,0.01386
2966.64785,0.01389
2964.58768,0.01376
2962.52750,0.01375
2960.46733,0.01380
2958.40716,0.01376
2956.34699,0.01370
2954.28682,0.01360
2952.22664,0.01345
2950.16647,0.01340
2948.10630,0.01344
2946.04613,0.01344
2943.98596,0.01340
2941.92578,0.01328
2939.86561,0.01335
2937.80544,0.01372
2935.74527,0.01385
2933.68509,0.01370
2931.62492,0.01358
2929.56475,0.01342
2927.50458,0.01319
2925.44441,0.01304
2923.38423,0.01299
2921.32406,0.01292
2919.26389,0.01276
2917.20372,0.01270
2915.14355,0.01281
2913.08337,0.01285
2911.02320,0.01273
2908.96303,0.01274
2906.90286,0.01285
2904.84268,0.01277
2902.78251,0.01261
2900.72234,0.01258
2898.66217,0.01272
2896.60200,0.01278
2894.54182,0.01266
2892.48165,0.01265
2890.42148,0.01284
2888.36131,0.01289
2886.30114,0.01270
2884.24096,0.01255
2882.18079,0.01264
2880.12062,0.01273
2878.06045,0.01237
2876.00028,0.01188
2873.94010,0.01190
2871.87993,0.01221
2869.81976,0.01231
2867.75959,0.01221
2865.69941,0.01212
2863.63924,0.01210
2861.57907,0.01214
2859.51890,0.01207
2857.45873,0.01175
2855.39855,0.01149
2853.33838,0.01148
2851.27821,0.01140
2849.21804,0.01120
2847.15787,0.01126
2845.09769,0.01160
2843.03752,0.01181
2840.97735,0.01169
2838.91718,0.01157
2836.85700,0.01159
2834.79683,0.01163
2832.73666,0.01159
2830.67649,0.01137
2828.61632,0.01120
2826.55614,0.01119
2824.49597,0.01115
2822.43580,0.01101
2820.37563,0.01096
2818.31546,0.01109
2816.25528,0.01115
2814.19511,0.01110
2812.13494,0.01111
2810.07477,0.01121
2808.01460,0.01134
2805.95442,0.01135
2803.89425,0.01113
2801.83408,0.01085
2799.77391,0.01072
2797.71373,0.01061
2795.65356,0.01047
2793.59339,0.01045
2791.53322,0.01053
2789.47305,0.01065
2787.41287,0.01074
2785.35270,0.01076
2783.29253,0.01067
2781.23236,0.01048
2779.17219,0.01041
2777.11201,0.01048
2775.05184,0.01057
2772.99167,0.01058
2770.93150,0.01042
2768.87133,0.01023
2766.81115,0.01017
2764.75098,0.01017
2762.69081,0.01002
2760.63064,0.00979
2758.57046,0.00978
2756.51029,0.00989
2754.45012,0.00991
2752.38995,0.00979
2750.32978,0.00968
2748.26960,0.00974
2746.20943,0.00979
2744.14926,0.00974
2742.08909,0.00967
2740.02892,0.00958
2737.96874,0.00943
2735.90857,0.00930
2733.84840,0.00935
2731.78823,0.00939
2729.72805,0.00931
2727.66788,0.00947
2725.60771,0.00982
2723.54754,0.00986
2721.48737,0.00955
2719.42719,0.00940
2717.36702,0.00943
2715.30685,0.00936
2713.24668,0.00926
2711.18651,0.00923
2709.12633,0.00914
2707.06616,0.00910
2705.00599,0.00915
2702.94582,0.00898
2700.88565,0.00877
2698.82547,0.00883
2696.76530,0.00894
2694.70513,0.00890
2692.64496,0.00877
2690.58478,0.00863
2688.52461,0.00856
2686.46444,0.00858
2684.40427,0.00852
2682.34410,0.00840
2680.28392,0.00837
2678.22375,0.00840
2676.16358,0.00830
2674.10341,0.00810
2672.04324,0.00797
2669.98306,0.00798
2667.92289,0.00809
2665.86272,0.00818
2663.80255,0.00813
2661.74238,0.00802
2659.68220,0.00799
2657.62203,0.00791
2655.56186,0.00779
2653.50169,0.00780
2651.44151,0.00775
2649.38134,0.00760
2647.32117,0.00760
2645.26100,0.00761
2643.20083,0.00752
2641.14065,0.00757
2639.08048,0.00766
2637.02031,0.00757
2634.96014,0.00726
2632.89997,0.00700
2630.83979,0.00707
2628.77962,0.00709
2626.71945,0.00667
2624.65928,0.00634
2622.59910,0.00658
2620.53893,0.00697
2618.47876,0.00702
2616.41859,0.00673
2614.35842,0.00641
2612.29824,0.00624
2610.23807,0.00623
2608.17790,0.00638
2606.11773,0.00666
2604.05756,0.00689
2601.99738,0.00682
2599.93721,0.00639
2597.87704,0.00578
2595.81687,0.00557
2593.75670,0.00586
2591.69652,0.00609
2589.63635,0.00624
2587.57618,0.00650
2585.51601,0.00670
2583.45583,0.00664
2581.39566,0.00641
2579.33549,0.00616
2577.27532,0.00593
2575.21515,0.00595
2573.15497,0.00613
2571.09480,0.00591
2569.03463,0.00540
2566.97446,0.00518
2564.91429,0.00547
2562.85411,0.00605
2560.79394,0.00641
2558.73377,0.00622
2556.67360,0.00579
2554.61342,0.00568
2552.55325,0.00598
2550.49308,0.00605
2548.43291,0.00562
2546.37274,0.00526
2544.31256,0.00519
2542.25239,0.00529
2540.19222,0.00555
2538.13205,0.00591
2536.07188,0.00629
2534.01170,0.00647
2531.95153,0.00632
2529.89136,0.00612
2527.83119,0.00605
2525.77102,0.00606
2523.71084,0.00619
2521.65067,0.00635
2519.59050,0.00650
2517.53033,0.00660
2515.47015,0.00639
2513.40998,0.00606
2511.34981,0.00600
2509.28964,0.00618
2507.22947,0.00637
2505.16929,0.00642
2503.10912,0.00623
2501.04895,0.00599
2498.98878,0.00587
2496.92861,0.00585
2494.86843,0.00598
2492.80826,0.00613
2490.74809,0.00620
2488.68792,0.00650
2486.62775,0.00683
2484.56757,0.00672
2482.50740,0.00629
2480.44723,0.00590
2478.38706,0.00576
2476.32688,0.00581
2474.26671,0.00599
2472.20654,0.00640
2470.14637,0.00694
2468.08620,0.00719
2466.02602,0.00680
2463.96585,0.00625
2461.90568,0.00622
2459.84551,0.00647
2457.78534,0.00665
2455.72516,0.00681
2453.66499,0.00712
2451.60482,0.00729
2449.54465,0.00692
2447.48447,0.00654
2445.42430,0.00660
2443.36413,0.00681
2441.30396,0.00691
2439.24379,0.00683
2437.18361,0.00681
2435.12344,0.00695
2433.06327,0.00702
2431.00310,0.00707
2428.94293,0.00719
2426.88275,0.00717
2424.82258,0.00701
2422.76241,0.00683
2420.70224,0.00670
2418.64207,0.00643
2416.58189,0.00612
2414.52172,0.00612
2412.46155,0.00624
2410.40138,0.00640
2408.34120,0.00664
2406.28103,0.00682
2404.22086,0.00701
2402.16069,0.00708
2400.10052,0.00666
2398.04034,0.00594
2395.98017,0.00569
2393.92000,0.00581
2391.85983,0.00603
2389.79966,0.00620
2387.73948,0.00625
2385.67931,0.00617
2383.61914,0.00600
2381.55897,0.00592
2379.49880,0.00615
2377.43862,0.00650
2375.37845,0.00618
2373.31828,0.00486
2371.25811,0.00345
2369.19793,0.00300
2367.13776,0.00374
2365.07759,0.00509
2363.01742,0.00666
2360.95725,0.00731
2358.89707,0.00611
2356.83690,0.00592
2354.77673,0.00756
2352.71656,0.00815
2350.65639,0.00780
2348.59621,0.00781
2346.53604,0.00780
2344.47587,0.00741
2342.41570,0.00724
2340.35552,0.00746
2338.29535,0.00810
2336.23518,0.00876
2334.17501,0.00863
2332.11484,0.00793
2330.05466,0.00783
2327.99449,0.00874
2325.93432,0.00978
2323.87415,0.00977
2321.81398,0.00854
2319.75380,0.00726
2317.69363,0.00679
2315.63346,0.00686
2313.57329,0.00688
2311.51312,0.00671
2309.45294,0.00659
2307.39277,0.00647
2305.33260,0.00621
2303.27243,0.00598
2301.21225,0.00606
2299.15208,0.00655
2297.09191,0.00733
2295.03174,0.00796
2292.97157,0.00797
2290.91139,0.00743
2288.85122,0.00690
2286.79105,0.00674
2284.73088,0.00685
2282.67071,0.00703
2280.61053,0.00720
2278.55036,0.00710
2276.49019,0.00649
2274.43002,0.00569
2272.36984,0.00542
2270.30967,0.00568
2268.24950,0.00602
2266.18933,0.00612
2264.12916,0.00594
2262.06898,0.00586
2260.00881,0.00608
2257.94864,0.00630
2255.88847,0.00643
2253.82830,0.00641
2251.76812,0.00604
2249.70795,0.00549
2247.64778,0.00492
2245.58761,0.00431
2243.52744,0.00446
2241.46726,0.00506
2239.40709,0.00527
2237.34692,0.00560
2235.28675,0.00603
2233.22657,0.00618
2231.16640,0.00609
2229.10623,0.00533
2227.04606,0.00448
2224.98589,0.00418
2222.92571,0.00405
2220.86554,0.00413
2218.80537,0.00427
2216.74520,0.00416
2214.68503,0.00442
2212.62485,0.00512
2210.56468,0.00524
2208.50451,0.00477
2206.44434,0.00482
2204.38417,0.00499
2202.32399,0.00479
2200.26382,0.00518
2198.20365,0.00580
2196.14348,0.00578
2194.08330,0.00503
2192.02313,0.00392
2189.96296,0.00285
2187.90279,0.00229
2185.84262,0.00296
2183.78244,0.00388
2181.72227,0.00409
2179.66210,0.00388
2177.60193,0.00334
2175.54176,0.00389
2173.48158,0.00494
2171.42141,0.00409
2169.36124,0.00373
2167.30107,0.00534
2165.24089,0.00567
2163.18072,0.00458
2161.12055,0.00424
2159.06038,0.00440
2157.00021,0.00480
2154.94003,0.00479
2152.87986,0.00342
2150.81969,0.00198
2148.75952,0.00171
2146.69935,0.00201
2144.63917,0.00158
2142.57900,0.00029
2140.51883,0.00000
2138.45866,0.00179
2136.39849,0.00347
2134.33831,0.00343
2132.27814,0.00281
2130.21797,0.00249
2128.15780,0.00250
2126.09762,0.00236
2124.03745,0.00219
2121.97728,0.00263
2119.91711,0.00293
2117.85694,0.00288
2115.79676,0.00351
2113.73659,0.00422
2111.67642,0.00404
2109.61625,0.00342
2107.55608,0.00291
2105.49590,0.00283
2103.43573,0.00336
2101.37556,0.00404
2099.31539,0.00438
2097.25521,0.00434
2095.19504,0.00407
2093.13487,0.00388
2091.07470,0.00365
2089.01453,0.00311
2086.95435,0.00237
2084.89418,0.00178
2082.83401,0.00183
2080.77384,0.00254
2078.71367,0.00289
2076.65349,0.00222
2074.59332,0.00135
2072.53315,0.00099
2070.47298,0.00115
2068.41281,0.00186
2066.35263,0.00270
2064.29246,0.00311
2062.23229,0.00295
2060.17212,0.00249
2058.11194,0.00220
2056.05177,0.00240
2053.99160,0.00314
2051.93143,0.00411
2049.87126,0.00437
2047.81108,0.00369
2045.75091,0.00314
2043.69074,0.00301
2041.63057,0.00303
2039.57040,0.00371
2037.51022,0.00446
2035.45005,0.00404
2033.38988,0.00329
2031.32971,0.00303
2029.26954,0.00276
2027.20936,0.00253
2025.14919,0.00264
2023.08902,0.00290
2021.02885,0.00312
2018.96867,0.00346
2016.90850,0.00364
2014.84833,0.00298
2012.78816,0.00141
2010.72799,0.00044
2008.66781,0.00120
2006.60764,0.00221
2004.54747,0.00242
2002.48730,0.00265
2000.42713,0.00325
1998.36695,0.00374
1996.30678,0.00374
1994.24661,0.00337
1992.18644,0.00302
1990.12626,0.00297
1988.06609,0.00297
1986.00592,0.00295
1983.94575,0.00275
1981.88558,0.00265
1979.82540,0.00287
1977.76523,0.00216
1975.70506,0.00072
1973.64489,0.00030
1971.58472,0.00068
1969.52454,0.00085
1967.46437,0.00114
1965.40420,0.00169
1963.34403,0.00163
1961.28386,0.00104
1959.22368,0.00053
1957.16351,0.00007
1955.10334,0.00000
1953.04317,0.00036
1950.98299,0.00059
1948.92282,0.00085
1946.86265,0.00138
1944.80248,0.00185
1942.74231,0.00215
1940.68213,0.00259
1938.62196,0.00309
1936.56179,0.00306
1934.50162,0.00237
1932.44145,0.00137
1930.38127,0.00074
1928.32110,0.00080
1926.26093,0.00113
1924.20076,0.00116
1922.14059,0.00090
1920.08041,0.00094
1918.02024,0.00125
1915.96007,0.00126
1913.89990,0.00094
1911.83972,0.00053
1909.77955,0.00037
1907.71938,0.00076
1905.65921,0.00136
1903.59904,0.00166
1901.53886,0.00162
1899.47869,0.00165
1897.41852,0.00193
1895.35835,0.00215
1893.29818,0.00223
1891.23800,0.00233
1889.17783,0.00235
1887.11766,0.00217
1885.05749,0.00193
1882.99731,0.00172
1880.93714,0.00139
1878.87697,0.00101
1876.81680,0.00086
1874.75663,0.00095
1872.69645,0.00096
1870.63628,0.00104
1868.57611,0.00158
1866.51594,0.00220
1864.45577,0.00226
1862.39559,0.00201
1860.33542,0.00198
1858.27525,0.00220
1856.21508,0.00243
1854.15491,0.00241
1852.09473,0.00211
1850.03456,0.00174
1847.97439,0.00140
1845.91422,0.00119
1843.85404,0.00132
1841.79387,0.00148
1839.73370,0.00141
1837.67353,0.00137
1835.61336,0.00138
1833.55318,0.00139
1831.49301,0.00161
1829.43284,0.00201
1827.37267,0.00210
1825.31250,0.00183
1823.25232,0.00167
1821.19215,0.00177
1819.13198,0.00181
1817.07181,0.00164
1815.01163,0.00152
1812.95146,0.00165
1810.89129,0.00183
1808.83112,0.00172
1806.77095,0.00139
1804.71077,0.00123
1802.65060,0.00135
1800.59043,0.00154
1798.53026,0.00173
1796.47009,0.00194
1794.40991,0.00213
1792.34974,0.00223
1790.28957,0.00217
1788.22940,0.00203
1786.16923,0.00190
1784.10905,0.00187
1782.04888,0.00187
1779.98871,0.00192
1777.92854,0.00209
1775.86836,0.00223
1773.80819,0.00217
1771.74802,0.00208
1769.68785,0.00203
1767.62768,0.00194
1765.56750,0.00188
1763.50733,0.00189
1761.44716,0.00195
1759.38699,0.00213
1757.32682,0.00241
1755.26664,0.00269
1753.20647,0.00281
1751.14630,0.00273
1749.08613,0.00263
1747.02596,0.00267
1744.96578,0.00271
1742.90561,0.00267
1740.84544,0.00277
1738.78527,0.00306
1736.72509,0.00323
1734.66492,0.00326
1732.60475,0.00328
1730.54458,0.00313
1728.48441,0.00296
1726.42423,0.00301
1724.36406,0.00319
1722.30389,0.00349
1720.24372,0.00401
1718.18355,0.00447
1716.12337,0.00435
1714.06320,0.00385
1712.00303,0.00360
1709.94286,0.00374
1707.88268,0.00408
1705.82251,0.00439
1703.76234,0.00453
1701.70217,0.00461
1699.64200,0.00479
1697.58182,0.00486
1695.52165,0.00482
1693.46148,0.00493
1691.40131,0.00517
1689.34114,0.00531
1687.28096,0.00520
1685.22079,0.00508
1683.16062,0.00527
1681.10045,0.00553
1679.04028,0.00565
1676.98010,0.00561
1674.91993,0.00551
1672.85976,0.00564
1670.79959,0.00601
1668.73941,0.00623
1666.67924,0.00608
1664.61907,0.00597
1662.55890,0.00630
1660.49873,0.00673
1658.43855,0.00680
1656.37838,0.00667
1654.31821,0.00673
1652.25804,0.00692
1650.19787,0.00687
1648.13769,0.00669
1646.07752,0.00656
1644.01735,0.00648
1641.95718,0.00645
1639.89701,0.00636
1637.83683,0.00615
1635.77666,0.00606
1633.71649,0.00616
1631.65632,0.00614
1629.59614,0.00601
1627.53597,0.00587
1625.47580,0.00575
1623.41563,0.00576
1621.35546,0.00586
1619.29528,0.00595
1617.23511,0.00599
1615.17494,0.00592
1613.11477,0.00572
1611.05460,0.00558
1608.99442,0.00556
1606.93425,0.00544
1604.87408,0.00520
1602.81391,0.00499
1600.75373,0.00482
1598.69356,0.00458
1596.63339,0.00438
1594.57322,0.00429
1592.51305,0.00412
1590.45287,0.00390
1588.39270,0.00379
1586.33253,0.00371
1584.27236,0.00359
1582.21219,0.00342
1580.15201,0.00314
1578.09184,0.00284
1576.03167,0.00273
1573.97150,0.00276
1571.91133,0.00279
1569.85115,0.00276
1567.79098,0.00261
1565.73081,0.00235
1563.67064,0.00214
1561.61046,0.00200
1559.55029,0.00202
1557.49012,0.00222
1555.42995,0.00223
1553.36978,0.00209
1551.30960,0.00202
1549.24943,0.00202
1547.18926,0.00186
1545.12909,0.00155
1543.06892,0.00139
1541.00874,0.00149
1538.94857,0.00160
1536.88840,0.00148
1534.82823,0.00126
1532.76805,0.00113
1530.70788,0.00109
1528.64771,0.00107
1526.58754,0.00106
1524.52737,0.00107
1522.46719,0.00105
1520.40702,0.00095
1518.34685,0.00091
1516.28668,0.00098
1514.22651,0.00097
1512.16633,0.00077
1510.10616,0.00058
1508.04599,0.00062
1505.98582,0.00074
1503.92565,0.00073
1501.86547,0.00066
1499.80530,0.00059
1497.74513,0.00054
1495.68496,0.00058
1493.62478,0.00061
1491.56461,0.00047
1489.50444,0.00023
1487.44427,0.00006
1485.38410,0.00000
1483.32392,0.00007
1481.26375,0.00025
1479.20358,0.00042
1477.14341,0.00052
1475.08324,0.00057
1473.02306,0.00055
1470.96289,0.00039
1468.90272,0.00018
1466.84255,0.00010
1464.78238,0.00025
1462.72220,0.00047
1460.66203,0.00054
1458.60186,0.00053
1456.54169,0.00068
1454.48151,0.00082
1452.42134,0.00083
1450.36117,0.00088
1448.30100,0.00106
1446.24083,0.00123
1444.18065,0.00117
1442.12048,0.00086
1440.06031,0.00055
1438.00014,0.00043
1435.93997,0.00056
1433.87979,0.00072
1431.81962,0.00075
1429.75945,0.00072
1427.69928,0.00062
1425.63910,0.00044
1423.57893,0.00029
1421.51876,0.00026
1419.45859,0.00027
1417.39842,0.00025
1415.33824,0.00038
1413.27807,0.00063
1411.21790,0.00076
1409.15773,0.00067
1407.09756,0.00056
1405.03738,0.00055
1402.97721,0.00052
1400.91704,0.00034
1398.85687,0.00008
1396.79670,-0.00005
1394.73652,0.00008
1392.67635,0.00030
1390.61618,0.00039
1388.55601,0.00038
1386.49583,0.00044
1384.43566,0.00054
1382.37549,0.00067
1380.31532,0.00091
1378.25515,0.00114
1376.19497,0.00122
1374.13480,0.00114
1372.07463,0.00105
1370.01446,0.00106
1367.95429,0.00107
1365.89411,0.00092
1363.83394,0.00074
1361.77377,0.00071
1359.71360,0.00081
1357.65343,0.00092
1355.59325,0.00099
1353.53308,0.00099
1351.47291,0.00096
1349.41274,0.00093
1347.35256,0.00084
1345.29239,0.00074
1343.23222,0.00072
1341.17205,0.00084
1339.11188,0.00108
1337.05170,0.00132
1334.99153,0.00142
1332.93136,0.00134
1330.87119,0.00112
1328.81102,0.00085
1326.75084,0.00071
1324.69067,0.00077
1322.63050,0.00086
1320.57033,0.00088
1318.51015,0.00083
1316.44998,0.00074
1314.38981,0.00058
1312.32964,0.00043
1310.26947,0.00041
1308.20929,0.00042
1306.14912,0.00042
1304.08895,0.00054
1302.02878,0.00068
1299.96861,0.00073
1297.90843,0.00083
1295.84826,0.00087
1293.78809,0.00070
1291.72792,0.00052
1289.66775,0.00049
1287.60757,0.00056
1285.54740,0.00066
1283.48723,0.00075
1281.42706,0.00082
1279.36688,0.00084
1277.30671,0.00075
1275.24654,0.00065
1273.18637,0.00072
1271.12620,0.00090
1269.06602,0.00102
1267.00585,0.00107
1264.94568,0.00103
1262.88551,0.00082
1260.82534,0.00073
1258.76516,0.00089
1256.70499,0.00091
1254.64482,0.00067
1252.58465,0.00047
1250.52447,0.00048
1248.46430,0.00053
1246.40413,0.00041
1244.34396,0.00033
1242.28379,0.00052
1240.22361,0.00066
1238.16344,0.00047
1236.10327,0.00024
1234.04310,0.00031
1231.98293,0.00057
1229.92275,0.00073
1227.86258,0.00065
1225.80241,0.00036
1223.74224,0.00010
1221.68207,0.00006
1219.62189,0.00012
1217.56172,0.00011
1215.50155,0.00011
1213.44138,0.00017
1211.38120,0.00017
1209.32103,0.00005
1207.26086,0.00003
1205.20069,0.00007
1203.14052,0.00004
1201.08034,0.00017
1199.02017,0.00048
1196.96000,0.00058
1194.89983,0.00050
1192.83966,0.00053
1190.77948,0.00069
1188.71931,0.00107
1186.65914,0.00158
1184.59897,0.00192
1182.53880,0.00218
1180.47862,0.00253
1178.41845,0.00291
1176.35828,0.00322
1174.29811,0.00348
1172.23793,0.00388
1170.17776,0.00431
1168.11759,0.00462
1166.05742,0.00495
1163.99725,0.00541
1161.93707,0.00586
1159.87690,0.00610
1157.81673,0.00625
1155.75656,0.00657
1153.69639,0.00702
1151.63621,0.00756
1149.57604,0.00808
1147.51587,0.00845
1145.45570,0.00884
1143.39552,0.00935
1141.33535,0.00990
1139.27518,0.01053
1137.21501,0.01118
1135.15484,0.01153
1133.09466,0.01169
1131.03449,0.01208
1128.97432,0.01279
1126.91415,0.01357
1124.85398,0.01409
1122.79380,0.01442
1120.73363,0.01490
1118.67346,0.01559
1116.61329,0.01623
1114.55312,0.01674
1112.49294,0.01720
1110.43277,0.01767
1108.37260,0.01818
1106.31243,0.01870
1104.25225,0.01926
1102.19208,0.01993
1100.13191,0.02060
1098.07174,0.02108
1096.01157,0.02143
1093.95139,0.02181
1091.89122,0.02234
1089.83105,0.02288
1087.77088,0.02320
1085.71071,0.02360
1083.65053,0.02415
1081.59036,0.02461
1079.53019,0.02496
1077.47002,0.02525
1075.40985,0.02537
1073.34967,0.02537
1071.28950,0.02544
1069.22933,0.02561
1067.16916,0.02579
1065.10898,0.02586
1063.04881,0.02595
1060.98864,0.02603
1058.92847,0.02582
1056.86830,0.02548
1054.80812,0.02521
1052.74795,0.02510
1050.68778,0.02502
1048.62761,0.02473
1046.56744,0.02427
1044.50726,0.02377
1042.44709,0.02338
1040.38692,0.02309
1038.32675,0.02272
1036.26657,0.02223
1034.20640,0.02165
1032.14623,0.02089
1030.08606,0.02015
1028.02589,0.01971
1025.96571,0.01937
1023.90554,0.01899
1021.84537,0.01864
1019.78520,0.01830
1017.72503,0.01797
1015.66485,0.01760
1013.60468,0.01724
1011.54451,0.01711
1009.48434,0.01715
1007.42417,0.01704
1005.36399,0.01681
1003.30382,0.01659
1001.24365,0.01654
999.18348,0.01677
997.12330,0.01713
995.06313,0.01739
993.00296,0.01769
990.94279,0.01815
988.88262,0.01859
986.82244,0.01879
984.76227,0.01887
982.70210,0.01909
980.64193,0.01925
978.58176,0.01902
976.52158,0.01866
974.46141,0.01843
972.40124,0.01817
970.34107,0.01765
968.28089,0.01684
966.22072,0.01606
964.16055,0.01559
962.10038,0.01531
960.04021,0.01485
957.98003,0.01417
955.91986,0.01357
953.85969,0.01318
951.79952,0.01296
949.73935,0.01270
947.67917,0.01234
945.61900,0.01213
943.55883,0.01191
941.49866,0.01158
939.43849,0.01154
937.37831,0.01172
935.31814,0.01171
933.25797,0.01167
931.19780,0.01181
929.13762,0.01176
927.07745,0.01146
925.01728,0.01143
922.95711,0.01173
920.89694,0.01185
918.83676,0.01157
916.77659,0.01106
914.71642,0.01058
912.65625,0.01032
910.59608,0.01011
908.53590,0.00975
906.47573,0.00952
904.41556,0.00954
902.35539,0.00974
900.29522,0.00997
898.23504,0.00970
896.17487,0.00937
894.11470,0.00957
892.05453,0.00985
889.99435,0.01009
887.93418,0.01030
885.87401,0.01008
883.81384,0.00987
881.75367,0.01017
879.69349,0.01064
877.63332,0.01083
875.57315,0.01069
873.51298,0.01077
871.45281,0.01123
869.39263,0.01143
867.33246,0.01125
865.27229,0.01100
863.21212,0.01070
861.15194,0.01058
859.09177,0.01090
857.03160,0.01130
854.97143,0.01140
852.91126,0.01114
850.85108,0.01081
848.79091,0.01040
846.73074,0.00966
844.67057,0.00905
842.61040,0.00897
840.55022,0.00898
838.49005,0.00874
836.42988,0.00858
834.36971,0.00870
832.30954,0.00883
830.24936,0.00847
828.18919,0.00772
826.12902,0.00714
824.06885,0.00675
822.00867,0.00666
819.94850,0.00683
817.88833,0.00681
815.82816,0.00648
813.76799,0.00593
811.70781,0.00533
809.64764,0.00493
807.58747,0.00508
805.52730,0.00550
803.46713,0.00545
801.40695,0.00502
799.34678,0.00467
797.28661,0.00451
795.22644,0.00460
793.16627,0.00468
791.10609,0.00469
789.04592,0.00455
786.98575,0.00410
784.92558,0.00389
782.86540,0.00421
780.80523,0.00459
778.74506,0.00431
776.68489,0.00349
774.62472,0.00316
772.56454,0.00320
770.50437,0.00333
768.44420,0.00390
766.38403,0.00437
764.32386,0.00404
762.26368,0.00306
760.20351,0.00202
758.14334,0.00170
756.08317,0.00227
754.02299,0.00287
751.96282,0.00300
749.90265,0.00319
747.84248,0.00370
745.78231,0.00374
743.72213,0.00315
741.66196,0.00238
739.60179,0.00195
737.54162,0.00222
735.48145,0.00242
733.42127,0.00221
731.36110,0.00220
729.30093,0.00223
727.24076,0.00194
725.18059,0.00195
723.12041,0.00281
721.06024,0.00335
719.00007,0.00313
716.93990,0.00273
714.87972,0.00275
712.81955,0.00296
710.75938,0.00282
708.69921,0.00247
706.63904,0.00226
704.57886,0.00208
702.51869,0.00197
700.45852,0.00211
698.39835,0.00214
696.33818,0.00174
694.27800,0.00102
692.21783,0.00018
690.15766,0.00000
688.09749,0.00110
686.03731,0.00232
683.97714,0.00223
681.91697,0.00192
679.85680,0.00299
677.79663,0.00435
675.73645,0.00437
673.67628,0.00343
671.61611,0.00245
669.55594,0.00178
667.49577,0.00155
665.43559,0.00171
663.37542,0.00262
661.31525,0.00326
659.25508,0.00290
657.19491,0.00184
655.13473,0.00095
653.07456,0.00089
651.01439,0.00127
648.95422,0.00129
646.89404,0.00121
644.83387,0.00142
642.77370,0.00137
640.71353,0.00087
638.65336,0.00080
636.59318,0.00141
634.53301,0.00231
632.47284,0.00333
630.41267,0.00445
628.35250,0.00521
626.29232,0.00453
624.23215,0.00303
622.17198,0.00275
620.11181,0.00369
618.05164,0.00492
615.99146,0.00450
613.93129,0.00315
611.87112,0.00373
609.81095,0.00409
607.75077,0.00216
605.69060,0.00000
603.63043,-0.00112
601.57026,-0.00048
599.51009,0.00000
