3996.73391,0.00031
3994.67373,0.00020
3992.61356,0.00011
3990.55339,0.00023
3988.49322,0.00046
3986.43305,0.00042
3984.37287,0.00027
3982.31270,0.00053
3980.25253,0.00092
3978.19236,0.00081
3976.13219,0.00029
3974.07201,0.00000
3972.01184,0.00015
3969.95167,0.00036
3967.89150,0.00050
3965.83133,0.00077
3963.77115,0.00104
3961.71098,0.00112
3959.65081,0.00104
3957.59064,0.00082
3955.53046,0.00062
3953.47029,0.00071
3951.41012,0.00095
3949.34995,0.00100
3947.28978,0.00092
3945.22960,0.00091
3943.16943,0.00092
3941.10926,0.00074
3939.04909,0.00042
3936.98892,0.00030
3934.92874,0.00054
3932.86857,0.00080
3930.80840,0.00081
3928.74823,0.00094
3926.68805,0.00143
3924.62788,0.00168
3922.56771,0.00138
3920.50754,0.00111
3918.44737,0.00116
3916.38719,0.00108
3914.32702,0.00064
3912.26685,0.00021
3910.20668,0.00015
3908.14651,0.00036
3906.08633,0.00061
3904.02616,0.00088
3901.96599,0.00121
3899.90582,0.00134
3897.84565,0.00103
3895.78547,0.00069
3893.72530,0.00076
3891.66513,0.00096
3889.60496,0.00081
3887.54478,0.00042
3885.48461,0.00019
3883.42444,0.00039
3881.36427,0.00097
3879.30410,0.00155
3877.24392,0.00185
3875.18375,0.00167
3873.12358,0.00114
3871.06341,0.00084
3869.00324,0.00092
3866.94306,0.00099
3864.88289,0.00084
3862.82272,0.00066
3860.76255,0.00090
3858.70237,0.00157
3856.64220,0.00236
3854.58203,0.00289
3852.52186,0.00251
3850.46169,0.00154
3848.40151,0.00093
3846.34134,0.00078
3844.28117,0.00079
3842.22100,0.00088
3840.16083,0.00104
3838.10065,0.00114
3836.04048,0.00100
3833.98031,0.00060
3831.92014,0.00041
3829.85997,0.00074
3827.79979,0.00130
3825.73962,0.00166
3823.67945,0.00160
3821.61928,0.00110
3819.55910,0.00051
3817.49893,0.00008
3815.43876,0.00000
3813.37859,0.00027
3811.31842,0.00042
3809.25824,0.00029
3807.19807,0.00023
3805.13790,0.00053
3803.07773,0.00090
3801.01756,0.00094
3798.95738,0.00067
3796.89721,0.00047
3794.83704,0.00069
3792.77687,0.00121
3790.71670,0.00155
3788.65652,0.00160
3786.59635,0.00145
3784.53618,0.00124
3782.47601,0.00126
3780.41583,0.00155
3778.35566,0.00166
3776.29549,0.00123
3774.23532,0.00074
3772.17515,0.00079
3770.11497,0.00116
3768.05480,0.00119
3765.99463,0.00076
3763.93446,0.00038
3761.87429,0.00041
3759.81411,0.00078
3757.75394,0.00138
3755.69377,0.00199
3753.63360,0.00212
3751.57342,0.00184
3749.51325,0.00189
3747.45308,0.00223
3745.39291,0.00225
3743.33274,0.00178
3741.27256,0.00138
3739.21239,0.00148
3737.15222,0.00176
3735.09205,0.00185
3733.03188,0.00147
3730.97170,0.00094
3728.91153,0.00094
3726.85136,0.00120
3724.79119,0.00134
3722.73102,0.00175
3720.67084,0.00225
3718.61067,0.00235
3716.55050,0.00235
3714.49033,0.00232
3712.43015,0.00198
3710.36998,0.00173
3708.30981,0.00186
3706.24964,0.00198
3704.18947,0.00181
3702.12929,0.00152
3700.06912,0.00154
3698.00895,0.00200
3695.94878,0.00240
3693.88861,0.00217
3691.82843,0.00151
3689.76826,0.00124
3687.70809,0.00164
3685.64792,0.00182
3683.58775,0.00153
3681.52757,0.00165
3679.46740,0.00238
3677.40723,0.00258
3675.34706,0.00188
3673.28688,0.00146
3671.22671,0.00152
3669.16654,0.00182
3667.10637,0.00229
3665.04620,0.00270
3662.98602,0.00292
3660.92585,0.00295
3658.86568,0.00298
3656.80551,0.00312
3654.74534,0.00316
3652.68516,0.00309
3650.62499,0.00323
3648.56482,0.00379
3646.50465,0.00443
3644.44447,0.00492
3642.38430,0.00530
3640.32413,0.00563
3638.26396,0.00580
3636.20379,0.00580
3634.14361,0.00607
3632.08344,0.00665
3630.02327,0.00686
3627.96310,0.00667
3625.90293,0.00668
3623.84275,0.00708
3621.78258,0.00775
3619.72241,0.00859
3617.66224,0.00930
3615.60207,0.00950
3613.54189,0.00924
3611.48172,0.00891
3609.42155,0.00893
3607.36138,0.00959
3605.30120,0.01063
3603.24103,0.01162
3601.18086,0.01222
3599.12069,0.01227
3597.06052,0.01201
3595.00034,0.01206
3592.94017,0.01263
3590.88000,0.01333
3588.81983,0.01375
3586.75966,0.01373
3584.69948,0.01338
3582.63931,0.01323
3580.57914,0.01350
3578.51897,0.01391
3576.45879,0.01442
3574.39862,0.01517
3572.33845,0.01575
3570.27828,0.01579
3568.21811,0.01560
3566.15793,0.01568
3564.09776,0.01595
3562.03759,0.01614
3559.97742,0.01639
3557.91725,0.01706
3555.85707,0.01801
3553.79690,0.01865
3551.73673,0.01878
3549.67656,0.01881
3547.61639,0.01911
3545.55621,0.01961
3543.49604,0.02003
3541.43587,0.02036
3539.37570,0.02073
3537.31552,0.02108
3535.25535,0.02132
3533.19518,0.02165
3531.13501,0.02225
3529.07484,0.02299
3527.01466,0.02362
3524.95449,0.02391
3522.89432,0.02390
3520.83415,0.02390
3518.77398,0.02410
3516.71380,0.02434
3514.65363,0.02451
3512.59346,0.02477
3510.53329,0.02515
3508.47312,0.02546
3506.41294,0.02559
3504.35277,0.02556
3502.29260,0.02563
3500.23243,0.02600
3498.17225,0.02652
3496.11208,0.02702
3494.05191,0.02746
3491.99174,0.02774
3489.93157,0.02806
3487.87139,0.02856
3485.81122,0.02894
3483.75105,0.02897
3481.69088,0.02896
3479.63071,0.02912
3477.57053,0.02927
3475.51036,0.02935
3473.45019,0.02958
3471.39002,0.02990
3469.32984,0.03005
3467.26967,0.02999
3465.20950,0.03002
3463.14933,0.03041
3461.08916,0.03106
3459.02898,0.03167
3456.96881,0.03225
3454.90864,0.03272
3452.84847,0.03276
3450.78830,0.03265
3448.72812,0.03272
3446.66795,0.03278
3444.60778,0.03276
3442.54761,0.03293
3440.48744,0.03326
3438.42726,0.03361
3436.36709,0.03395
3434.30692,0.03422
3432.24675,0.03439
3430.18657,0.03435
3428.12640,0.03423
3426.06623,0.03446
3424.00606,0.03488
3421.94589,0.03497
3419.88571,0.03493
3417.82554,0.03526
3415.76537,0.03594
3413.70520,0.03642
3411.64503,0.03653
3409.58485,0.03660
3407.52468,0.03667
3405.46451,0.03673
3403.40434,0.03695
3401.34416,0.03733
3399.28399,0.03763
3397.22382,0.03762
3395.16365,0.03743
3393.10348,0.03742
3391.04330,0.03761
3388.98313,0.03770
3386.92296,0.03773
3384.86279,0.03793
3382.80262,0.03819
3380.74244,0.03826
3378.68227,0.03819
3376.62210,0.03812
3374.56193,0.03807
3372.50176,0.03830
3370.44158,0.03874
3368.38141,0.03885
3366.32124,0.03872
3364.26107,0.03868
3362.20089,0.03875
3360.14072,0.03886
3358.08055,0.03906
3356.02038,0.03947
3353.96021,0.03988
3351.90003,0.03982
3349.83986,0.03955
3347.77969,0.03959
3345.71952,0.03979
3343.65935,0.03979
3341.59917,0.03957
3339.53900,0.03935
3337.47883,0.03936
3335.41866,0.03968
3333.35849,0.04004
3331.29831,0.04015
3329.23814,0.04004
3327.17797,0.03993
3325.11780,0.03970
3323.05762,0.03944
3320.99745,0.03956
3318.93728,0.03995
3316.87711,0.04027
3314.81694,0.04048
3312.75676,0.04062
3310.69659,0.04062
3308.63642,0.04028
3306.57625,0.03986
3304.51608,0.03989
3302.45590,0.04024
3300.39573,0.04043
3298.33556,0.04046
3296.27539,0.04061
3294.21521,0.04092
3292.15504,0.04110
3290.09487,0.04095
3288.03470,0.04062
3285.97453,0.04042
3283.91435,0.04049
3281.85418,0.04065
3279.79401,0.04074
3277.73384,0.04074
3275.67367,0.04069
3273.61349,0.04073
3271.55332,0.04086
3269.49315,0.04086
3267.43298,0.04063
3265.37281,0.04035
3263.31263,0.04042
3261.25246,0.04088
3259.19229,0.04131
3257.13212,0.04150
3255.07194,0.04149
3253.01177,0.04133
3250.95160,0.04113
3248.89143,0.04102
3246.83126,0.04096
3244.77108,0.04088
3242.71091,0.04080
3240.65074,0.04051
3238.59057,0.04007
3236.53040,0.04012
3234.47022,0.04071
3232.41005,0.04125
3230.34988,0.04155
3228.28971,0.04157
3226.22954,0.04139
3224.16936,0.04124
3222.10919,0.04109
3220.04902,0.04097
3217.98885,0.04104
3215.92867,0.04115
3213.86850,0.04108
3211.80833,0.04074
3209.74816,0.04024
3207.68799,0.03986
3205.62781,0.03983
3203.56764,0.04000
3201.50747,0.04012
3199.44730,0.04029
3197.38713,0.04049
3195.32695,0.04049
3193.26678,0.04030
3191.20661,0.04014
3189.14644,0.04006
3187.08626,0.04000
3185.02609,0.03993
3182.96592,0.03979
3180.90575,0.03953
3178.84558,0.03937
3176.78540,0.03963
3174.72523,0.03986
3172.66506,0.03963
3170.60489,0.03936
3168.54472,0.03922
3166.48454,0.03899
3164.42437,0.03870
3162.36420,0.03859
3160.30403,0.03862
3158.24386,0.03872
3156.18368,0.03879
3154.12351,0.03854
3152.06334,0.03811
3150.00317,0.03787
3147.94299,0.03766
3145.88282,0.03735
3143.82265,0.03731
3141.76248,0.03757
3139.70231,0.03776
3137.64213,0.03754
3135.58196,0.03716
3133.52179,0.03699
3131.46162,0.03698
3129.40145,0.03689
3127.34127,0.03674
3125.28110,0.03656
3123.22093,0.03631
3121.16076,0.03620
3119.10058,0.03626
3117.04041,0.03626
3114.98024,0.03614
3112.92007,0.03597
3110.85990,0.03583
3108.79972,0.03568
3106.73955,0.03550
3104.67938,0.03547
3102.61921,0.03535
3100.55904,0.03482
3098.49886,0.03421
3096.43869,0.03390
3094.37852,0.03390
3092.31835,0.03397
3090.25818,0.03382
3088.19800,0.03356
3086.13783,0.03323
3084.07766,0.03276
3082.01749,0.03251
3079.95731,0.03264
3077.89714,0.03272
3075.83697,0.03267
3073.77680,0.03265
3071.71663,0.03244
3069.65645,0.03205
3067.59628,0.03180
3065.53611,0.03171
3063.47594,0.03154
3061.41577,0.03143
3059.35559,0.03145
3057.29542,0.03135
3055.23525,0.03119
3053.17508,0.03116
3051.11491,0.03113
3049.05473,0.03097
3046.99456,0.03072
3044.93439,0.03039
3042.87422,0.02995
3040.81404,0.02963
3038.75387,0.02961
3036.69370,0.02964
3034.63353,0.02943
3032.57336,0.02896
3030.51318,0.02845
3028.45301,0.02820
3026.39284,0.02823
3024.33267,0.02837
3022.27250,0.02849
3020.21232,0.02852
3018.15215,0.02845
3016.09198,0.02827
3014.03181,0.02787
3011.97163,0.02744
3009.91146,0.02739
3007.85129,0.02746
3005.79112,0.02713
3003.73095,0.02672
3001.67077,0.02661
2999.61060,0.02648
2997.55043,0.02613
2995.49026,0.02599
2993.43009,0.02609
2991.36991,0.02612
2989.30974,0.02580
2987.24957,0.02528
2985.18940,0.02510
2983.12923,0.02517
2981.06905,0.02525
2979.00888,0.02527
2976.94871,0.02507
2974.88854,0.02481
2972.82836,0.02487
2970.76819,0.02503
2968.70802,0.02481
2966.64785,0.02441
2964.58768,0.02425
2962.52750,0.02431
2960.46733,0.02445
2958.40716,0.02458
2956.34699,0.02467
2954.28682,0.02470
2952.22664,0.02473
2950.16647,0.02478
2948.10630,0.02470
2946.04613,0.02452
2943.98596,0.02436
2941.92578,0.02428
2939.86561,0.02426
2937.80544,0.02428
2935.74527,0.02425
2933.68509,0.02408
2931.62492,0.02395
2929.56475,0.02391
2927.50458,0.02375
2925.44441,0.02364
2923.38423,0.02362
2921.32406,0.02343
2919.26389,0.02329
2917.20372,0.02326
2915.14355,0.02311
2913.08337,0.02301
2911.02320,0.02306
2908.96303,0.02299
2906.90286,0.02281
2904.84268,0.02261
2902.78251,0.02233
2900.72234,0.02219
2898.66217,0.02243
2896.60200,0.02261
2894.54182,0.02239
2892.48165,0.02203
2890.42148,0.02181
2888.36131,0.02178
2886.30114,0.02194
2884.24096,0.02214
2882.18079,0.02216
2880.12062,0.02197
2878.06045,0.02167
2876.00028,0.02133
2873.94010,0.02123
2871.87993,0.02140
2869.81976,0.02138
2867.75959,0.02114
2865.69941,0.02097
2863.63924,0.02079
2861.57907,0.02050
2859.51890,0.02023
2857.45873,0.02024
2855.39855,0.02043
2853.33838,0.02041
2851.27821,0.02013
2849.21804,0.01983
2847.15787,0.01971
2845.09769,0.01970
2843.03752,0.01960
2840.97735,0.01945
2838.91718,0.01936
2836.85700,0.01937
2834.79683,0.01948
2832.73666,0.01955
2830.67649,0.01950
2828.61632,0.01935
2826.55614,0.01912
2824.49597,0.01895
2822.43580,0.01898
2820.37563,0.01895
2818.31546,0.01871
2816.25528,0.01845
2814.19511,0.01830
2812.13494,0.01826
2810.07477,0.01837
2808.01460,0.01852
2805.95442,0.01844
2803.89425,0.01826
2801.83408,0.01812
2799.77391,0.01783
2797.71373,0.01748
2795.65356,0.01741
2793.59339,0.01747
2791.53322,0.01751
2789.47305,0.01771
2787.41287,0.01779
2785.35270,0.01754
2783.29253,0.01735
2781.23236,0.01730
2779.17219,0.01721
2777.11201,0.01704
2775.05184,0.01673
2772.99167,0.01641
2770.93150,0.01637
2768.87133,0.01646
2766.81115,0.01646
2764.75098,0.01646
2762.69081,0.01656
2760.63064,0.01669
2758.57046,0.01675
2756.51029,0.01671
2754.45012,0.01652
2752.38995,0.01619
2750.32978,0.01587
2748.26960,0.01575
2746.20943,0.01578
2744.14926,0.01586
2742.08909,0.01590
2740.02892,0.01568
2737.96874,0.01528
2735.90857,0.01512
2733.84840,0.01533
2731.78823,0.01552
2729.72805,0.01540
2727.66788,0.01517
2725.60771,0.01505
2723.54754,0.01499
2721.48737,0.01491
2719.42719,0.01486
2717.36702,0.01473
2715.30685,0.01449
2713.24668,0.01432
2711.18651,0.01426
2709.12633,0.01419
2707.06616,0.01408
2705.00599,0.01404
2702.94582,0.01404
2700.88565,0.01396
2698.82547,0.01383
2696.76530,0.01379
2694.70513,0.01381
2692.64496,0.01365
2690.58478,0.01334
2688.52461,0.01323
2686.46444,0.01336
2684.40427,0.01354
2682.34410,0.01355
2680.28392,0.01335
2678.22375,0.01309
2676.16358,0.01287
2674.10341,0.01274
2672.04324,0.01266
2669.98306,0.01245
2667.92289,0.01227
2665.86272,0.01223
2663.80255,0.01223
2661.74238,0.01227
2659.68220,0.01230
2657.62203,0.01223
2655.56186,0.01220
2653.50169,0.01218
2651.44151,0.01202
2649.38134,0.01178
2647.32117,0.01157
2645.26100,0.01148
2643.20083,0.01147
2641.14065,0.01142
2639.08048,0.01121
2637.02031,0.01087
2634.96014,0.01070
2632.89997,0.01082
2630.83979,0.01085
2628.77962,0.01061
2626.71945,0.01045
2624.65928,0.01048
2622.59910,0.01040
2620.53893,0.01012
2618.47876,0.00992
2616.41859,0.01000
2614.35842,0.01018
2612.29824,0.01034
2610.23807,0.01037
2608.17790,0.01022
2606.11773,0.01006
2604.05756,0.00988
2601.99738,0.00986
2599.93721,0.00996
2597.87704,0.00975
2595.81687,0.00940
2593.75670,0.00931
2591.69652,0.00939
2589.63635,0.00953
2587.57618,0.00977
2585.51601,0.00992
2583.45583,0.00968
2581.39566,0.00932
2579.33549,0.00929
2577.27532,0.00933
2575.21515,0.00913
2573.15497,0.00891
2571.09480,0.00889
2569.03463,0.00912
2566.97446,0.00945
2564.91429,0.00961
2562.85411,0.00951
2560.79394,0.00946
2558.73377,0.00944
2556.67360,0.00928
2554.61342,0.00924
2552.55325,0.00925
2550.49308,0.00905
2548.43291,0.00889
2546.37274,0.00882
2544.31256,0.00863
2542.25239,0.00824
2540.19222,0.00787
2538.13205,0.00780
2536.07188,0.00799
2534.01170,0.00829
2531.95153,0.00865
2529.89136,0.00904
2527.83119,0.00925
2525.77102,0.00917
2523.71084,0.00902
2521.65067,0.00898
2519.59050,0.00897
2517.53033,0.00903
2515.47015,0.00915
2513.40998,0.00894
2511.34981,0.00850
2509.28964,0.00825
2507.22947,0.00824
2505.16929,0.00833
2503.10912,0.00843
2501.04895,0.00859
2498.98878,0.00881
2496.92861,0.00911
2494.86843,0.00945
2492.80826,0.00956
2490.74809,0.00954
2488.68792,0.00967
2486.62775,0.00965
2484.56757,0.00928
2482.50740,0.00896
2480.44723,0.00895
2478.38706,0.00907
2476.32688,0.00917
2474.26671,0.00921
2472.20654,0.00926
2470.14637,0.00929
2468.08620,0.00932
2466.02602,0.00949
2463.96585,0.00958
2461.90568,0.00950
2459.84551,0.00951
2457.78534,0.00968
2455.72516,0.00997
2453.66499,0.01018
2451.60482,0.01005
2449.54465,0.00972
2447.48447,0.00956
2445.42430,0.00959
2443.36413,0.00970
2441.30396,0.00990
2439.24379,0.00997
2437.18361,0.00993
2435.12344,0.00978
2433.06327,0.00927
2431.00310,0.00894
2428.94293,0.00929
2426.88275,0.00967
2424.82258,0.00964
2422.76241,0.00950
2420.70224,0.00941
2418.64207,0.00929
2416.58189,0.00928
2414.52172,0.00938
2412.46155,0.00955
2410.40138,0.00972
2408.34120,0.00979
2406.28103,0.00964
2404.22086,0.00916
2402.16069,0.00871
2400.10052,0.00876
2398.04034,0.00917
2395.98017,0.00950
2393.92000,0.00943
2391.85983,0.00914
2389.79966,0.00900
2387.73948,0.00925
2385.67931,0.00977
2383.61914,0.01013
2381.55897,0.01013
2379.49880,0.00981
2377.43862,0.00938
2375.37845,0.00894
2373.31828,0.00880
2371.25811,0.00868
2369.19793,0.00791
2367.13776,0.00727
2365.07759,0.00764
2363.01742,0.00737
2360.95725,0.00698
2358.89707,0.00752
2356.83690,0.00896
2354.77673,0.00934
2352.71656,0.00859
2350.65639,0.00925
2348.59621,0.01023
2346.53604,0.00911
2344.47587,0.00859
2342.41570,0.00826
2340.35552,0.00832
2338.29535,0.00948
2336.23518,0.01086
2334.17501,0.01099
2332.11484,0.00984
2330.05466,0.00937
2327.99449,0.00942
2325.93432,0.00915
2323.87415,0.00840
2321.81398,0.00848
2319.75380,0.00885
2317.69363,0.00897
2315.63346,0.00895
2313.57329,0.00929
2311.51312,0.00964
2309.45294,0.00945
2307.39277,0.00902
2305.33260,0.00903
2303.27243,0.00945
2301.21225,0.00955
2299.15208,0.00922
2297.09191,0.00889
2295.03174,0.00893
2292.97157,0.00919
2290.91139,0.00946
2288.85122,0.00975
2286.79105,0.00994
2284.73088,0.00970
2282.67071,0.00934
2280.61053,0.00910
2278.55036,0.00851
2276.49019,0.00762
2274.43002,0.00727
2272.36984,0.00755
2270.30967,0.00781
2268.24950,0.00772
2266.18933,0.00751
2264.12916,0.00736
2262.06898,0.00727
2260.00881,0.00743
2257.94864,0.00749
2255.88847,0.00717
2253.82830,0.00725
2251.76812,0.00771
2249.70795,0.00765
2247.64778,0.00733
2245.58761,0.00738
2243.52744,0.00727
2241.46726,0.00709
2239.40709,0.00721
2237.34692,0.00742
2235.28675,0.00736
2233.22657,0.00665
2231.16640,0.00598
2229.10623,0.00628
2227.04606,0.00661
2224.98589,0.00625
2222.92571,0.00575
2220.86554,0.00546
2218.80537,0.00564
2216.74520,0.00612
2214.68503,0.00654
2212.62485,0.00663
2210.56468,0.00623
2208.50451,0.00594
2206.44434,0.00606
2204.38417,0.00574
2202.32399,0.00445
2200.26382,0.00346
2198.20365,0.00427
2196.14348,0.00585
2194.08330,0.00654
2192.02313,0.00629
2189.96296,0.00569
2187.90279,0.00544
2185.84262,0.00597
2183.78244,0.00663
2181.72227,0.00646
2179.66210,0.00585
2177.60193,0.00588
2175.54176,0.00600
2173.48158,0.00540
2171.42141,0.00441
2169.36124,0.00361
2167.30107,0.00345
2165.24089,0.00411
2163.18072,0.00465
2161.12055,0.00389
2159.06038,0.00235
2157.00021,0.00186
2154.94003,0.00299
2152.87986,0.00384
2150.81969,0.00329
2148.75952,0.00305
2146.69935,0.00363
2144.63917,0.00400
2142.57900,0.00409
2140.51883,0.00398
2138.45866,0.00369
2136.39849,0.00364
2134.33831,0.00393
2132.27814,0.00404
2130.21797,0.00349
2128.15780,0.00302
2126.09762,0.00351
2124.03745,0.00428
2121.97728,0.00461
2119.91711,0.00469
2117.85694,0.00499
2115.79676,0.00511
2113.73659,0.00445
2111.67642,0.00403
2109.61625,0.00420
2107.55608,0.00422
2105.49590,0.00397
2103.43573,0.00354
2101.37556,0.00316
2099.31539,0.00284
2097.25521,0.00275
2095.19504,0.00330
2093.13487,0.00426
2091.07470,0.00453
2089.01453,0.00414
2086.95435,0.00423
2084.89418,0.00476
2082.83401,0.00489
2080.77384,0.00464
2078.71367,0.00413
2076.65349,0.00340
2074.59332,0.00309
2072.53315,0.00340
2070.47298,0.00381
2068.41281,0.00421
2066.35263,0.00464
2064.29246,0.00480
2062.23229,0.00484
2060.17212,0.00503
2058.11194,0.00503
2056.05177,0.00468
2053.99160,0.00437
2051.93143,0.00401
2049.87126,0.00307
2047.81108,0.00217
2045.75091,0.00240
2043.69074,0.00378
2041.63057,0.00493
2039.57040,0.00495
2037.51022,0.00459
2035.45005,0.00402
2033.38988,0.00288
2031.32971,0.00195
2029.26954,0.00223
2027.20936,0.00268
2025.14919,0.00177
2023.08902,0.00059
2021.02885,0.00079
2018.96867,0.00187
2016.90850,0.00297
2014.84833,0.00344
2012.78816,0.00249
2010.72799,0.00150
2008.66781,0.00206
2006.60764,0.00324
2004.54747,0.00349
2002.48730,0.00320
2000.42713,0.00335
1998.36695,0.00300
1996.30678,0.00225
1994.24661,0.00264
1992.18644,0.00335
1990.12626,0.00371
1988.06609,0.00437
1986.00592,0.00455
1983.94575,0.00421
1981.88558,0.00417
1979.82540,0.00387
1977.76523,0.00279
1975.70506,0.00163
1973.64489,0.00172
1971.58472,0.00326
1969.52454,0.00438
1967.46437,0.00405
1965.40420,0.00298
1963.34403,0.00168
1961.28386,0.00054
1959.22368,0.00000
1957.16351,0.00028
1955.10334,0.00134
1953.04317,0.00217
1950.98299,0.00194
1948.92282,0.00113
1946.86265,0.00046
1944.80248,0.00027
1942.74231,0.00074
1940.68213,0.00182
1938.62196,0.00277
1936.56179,0.00295
1934.50162,0.00287
1932.44145,0.00319
1930.38127,0.00372
1928.32110,0.00354
1926.26093,0.00261
1924.20076,0.00197
1922.14059,0.00211
1920.08041,0.00253
1918.02024,0.00243
1915.96007,0.00171
1913.89990,0.00116
1911.83972,0.00123
1909.77955,0.00185
1907.71938,0.00279
1905.65921,0.00343
1903.59904,0.00324
1901.53886,0.00258
1899.47869,0.00228
1897.41852,0.00236
1895.35835,0.00226
1893.29818,0.00190
1891.23800,0.00152
1889.17783,0.00128
1887.11766,0.00148
1885.05749,0.00202
1882.99731,0.00249
1880.93714,0.00265
1878.87697,0.00251
1876.81680,0.00247
1874.75663,0.00273
1872.69645,0.00282
1870.63628,0.00255
1868.57611,0.00240
1866.51594,0.00270
1864.45577,0.00316
1862.39559,0.00334
1860.33542,0.00314
1858.27525,0.00279
1856.21508,0.00247
1854.15491,0.00247
1852.09473,0.00290
1850.03456,0.00327
1847.97439,0.00312
1845.91422,0.00267
1843.85404,0.00233
1841.79387,0.00232
1839.73370,0.00267
1837.67353,0.00310
1835.61336,0.00323
1833.55318,0.00313
1831.49301,0.00309
1829.43284,0.00314
1827.37267,0.00311
1825.31250,0.00303
1823.25232,0.00301
1821.19215,0.00302
1819.13198,0.00298
1817.07181,0.00290
1815.01163,0.00275
1812.95146,0.00260
1810.89129,0.00264
1808.83112,0.00285
1806.77095,0.00305
1804.71077,0.00307
1802.65060,0.00298
1800.59043,0.00292
1798.53026,0.00301
1796.47009,0.00315
1794.40991,0.00310
1792.34974,0.00287
1790.28957,0.00283
1788.22940,0.00303
1786.16923,0.00314
1784.10905,0.00308
1782.04888,0.00313
1779.98871,0.00336
1777.92854,0.00352
1775.86836,0.00338
1773.80819,0.00314
1771.74802,0.00323
1769.68785,0.00356
1767.62768,0.00369
1765.56750,0.00368
1763.50733,0.00372
1761.44716,0.00375
1759.38699,0.00374
1757.32682,0.00383
1755.26664,0.00409
1753.20647,0.00444
1751.14630,0.00474
1749.08613,0.00488
1747.02596,0.00481
1744.96578,0.00460
1742.90561,0.00453
1740.84544,0.00487
1738.78527,0.00542
1736.72509,0.00568
1734.66492,0.00561
1732.60475,0.00567
1730.54458,0.00596
1728.48441,0.00624
1726.42423,0.00639
1724.36406,0.00640
1722.30389,0.00628
1720.24372,0.00625
1718.18355,0.00652
1716.12337,0.00699
1714.06320,0.00727
1712.00303,0.00741
1709.94286,0.00756
1707.88268,0.00768
1705.82251,0.00769
1703.76234,0.00789
1701.70217,0.00852
1699.64200,0.00906
1697.58182,0.00905
1695.52165,0.00900
1693.46148,0.00934
1691.40131,0.00981
1689.34114,0.01018
1687.28096,0.01033
1685.22079,0.01019
1683.16062,0.00999
1681.10045,0.01028
1679.04028,0.01097
1676.98010,0.01154
1674.91993,0.01181
1672.85976,0.01207
1670.79959,0.01256
1668.73941,0.01296
1666.67924,0.01303
1664.61907,0.01301
1662.55890,0.01313
1660.49873,0.01334
1658.43855,0.01352
1656.37838,0.01352
1654.31821,0.01337
1652.25804,0.01337
1650.19787,0.01353
1648.13769,0.01360
1646.07752,0.01369
1644.01735,0.01378
1641.95718,0.01366
1639.89701,0.01341
1637.83683,0.01330
1635.77666,0.01336
1633.71649,0.01332
1631.65632,0.01315
1629.59614,0.01299
1627.53597,0.01286
1625.47580,0.01274
1623.41563,0.01260
1621.35546,0.01240
1619.29528,0.01223
1617.23511,0.01216
1615.17494,0.01208
1613.11477,0.01184
1611.05460,0.01149
1608.99442,0.01127
1606.93425,0.01128
1604.87408,0.01117
1602.81391,0.01077
1600.75373,0.01034
1598.69356,0.01002
1596.63339,0.00971
1594.57322,0.00940
1592.51305,0.00906
1590.45287,0.00862
1588.39270,0.00813
1586.33253,0.00775
1584.27236,0.00750
1582.21219,0.00733
1580.15201,0.00718
1578.09184,0.00694
1576.03167,0.00649
1573.97150,0.00611
1571.91133,0.00595
1569.85115,0.00578
1567.79098,0.00557
1565.73081,0.00546
1563.67064,0.00541
1561.61046,0.00530
1559.55029,0.00503
1557.49012,0.00467
1555.42995,0.00444
1553.36978,0.00440
1551.30960,0.00438
1549.24943,0.00423
1547.18926,0.00398
1545.12909,0.00375
1543.06892,0.00361
1541.00874,0.00359
1538.94857,0.00353
1536.88840,0.00339
1534.82823,0.00325
1532.76805,0.00310
1530.70788,0.00303
1528.64771,0.00303
1526.58754,0.00290
1524.52737,0.00260
1522.46719,0.00228
1520.40702,0.00207
1518.34685,0.00203
1516.28668,0.00204
1514.22651,0.00202
1512.16633,0.00191
1510.10616,0.00167
1508.04599,0.00156
1505.98582,0.00189
1503.92565,0.00211
1501.86547,0.00204
1499.80530,0.00188
1497.74513,0.00168
1495.68496,0.00152
1493.62478,0.00148
1491.56461,0.00145
1489.50444,0.00140
1487.44427,0.00139
1485.38410,0.00142
1483.32392,0.00153
1481.26375,0.00167
1479.20358,0.00170
1477.14341,0.00157
1475.08324,0.00144
1473.02306,0.00160
1470.96289,0.00193
1468.90272,0.00208
1466.84255,0.00210
1464.78238,0.00221
1462.72220,0.00244
1460.66203,0.00260
1458.60186,0.00264
1456.54169,0.00272
1454.48151,0.00280
1452.42134,0.00290
1450.36117,0.00302
1448.30100,0.00295
1446.24083,0.00271
1444.18065,0.00254
1442.12048,0.00248
1440.06031,0.00247
1438.00014,0.00250
1435.93997,0.00234
1433.87979,0.00201
1431.81962,0.00185
1429.75945,0.00187
1427.69928,0.00185
1425.63910,0.00183
1423.57893,0.00195
1421.51876,0.00204
1419.45859,0.00202
1417.39842,0.00209
1415.33824,0.00222
1413.27807,0.00225
1411.21790,0.00221
1409.15773,0.00215
1407.09756,0.00202
1405.03738,0.00185
1402.97721,0.00173
1400.91704,0.00171
1398.85687,0.00176
1396.79670,0.00185
1394.73652,0.00193
1392.67635,0.00195
1390.61618,0.00198
1388.55601,0.00208
1386.49583,0.00222
1384.43566,0.00232
1382.37549,0.00242
1380.31532,0.00256
1378.25515,0.00271
1376.19497,0.00282
1374.13480,0.00293
1372.07463,0.00300
1370.01446,0.00300
1367.95429,0.00291
1365.89411,0.00273
1363.83394,0.00256
1361.77377,0.00244
1359.71360,0.00243
1357.65343,0.00249
1355.59325,0.00245
1353.53308,0.00232
1351.47291,0.00233
1349.41274,0.00250
1347.35256,0.00255
1345.29239,0.00243
1343.23222,0.00238
1341.17205,0.00236
1339.11188,0.00234
1337.05170,0.00242
1334.99153,0.00256
1332.93136,0.00261
1330.87119,0.00251
1328.81102,0.00227
1326.75084,0.00206
1324.69067,0.00194
1322.63050,0.00183
1320.57033,0.00180
1318.51015,0.00194
1316.44998,0.00202
1314.38981,0.00187
1312.32964,0.00168
1310.26947,0.00169
1308.20929,0.00183
1306.14912,0.00190
1304.08895,0.00183
1302.02878,0.00171
1299.96861,0.00165
1297.90843,0.00160
1295.84826,0.00159
1293.78809,0.00173
1291.72792,0.00197
1289.66775,0.00220
1287.60757,0.00232
1285.54740,0.00225
1283.48723,0.00208
1281.42706,0.00188
1279.36688,0.00172
1277.30671,0.00173
1275.24654,0.00185
1273.18637,0.00192
1271.12620,0.00200
1269.06602,0.00219
1267.00585,0.00233
1264.94568,0.00221
1262.88551,0.00200
1260.82534,0.00199
1258.76516,0.00212
1256.70499,0.00222
1254.64482,0.00215
1252.58465,0.00181
1250.52447,0.00148
1248.46430,0.00146
1246.40413,0.00165
1244.34396,0.00175
1242.28379,0.00166
1240.22361,0.00161
1238.16344,0.00172
1236.10327,0.00173
1234.04310,0.00155
1231.98293,0.00141
1229.92275,0.00148
1227.86258,0.00154
1225.80241,0.00137
1223.74224,0.00117
1221.68207,0.00109
1219.62189,0.00100
1217.56172,0.00091
1215.50155,0.00086
1213.44138,0.00067
1211.38120,0.00036
1209.32103,0.00026
1207.26086,0.00048
1205.20069,0.00074
1203.14052,0.00084
1201.08034,0.00081
1199.02017,0.00086
1196.96000,0.00108
1194.89983,0.00127
1192.83966,0.00134
1190.77948,0.00148
1188.71931,0.00177
1186.65914,0.00217
1184.59897,0.00256
1182.53880,0.00291
1180.47862,0.00331
1178.41845,0.00382
1176.35828,0.00432
1174.29811,0.00484
1172.23793,0.00545
1170.17776,0.00612
1168.11759,0.00675
1166.05742,0.00728
1163.99725,0.00774
1161.93707,0.00815
1159.87690,0.00849
1157.81673,0.00908
1155.75656,0.00993
1153.69639,0.01061
1151.63621,0.01120
1149.57604,0.01182
1147.51587,0.01243
1145.45570,0.01310
1143.39552,0.01384
1141.33535,0.01465
1139.27518,0.01547
1137.21501,0.01615
1135.15484,0.01667
1133.09466,0.01731
1131.03449,0.01820
1128.97432,0.01913
1126.91415,0.01996
1124.85398,0.02070
1122.79380,0.02153
1120.73363,0.02250
1118.67346,0.02331
1116.61329,0.02394
1114.55312,0.02463
1112.49294,0.02545
1110.43277,0.02647
1108.37260,0.02757
1106.31243,0.02857
1104.25225,0.02973
1102.19208,0.03097
1100.13191,0.03193
1098.07174,0.03276
1096.01157,0.03370
1093.95139,0.03463
1091.89122,0.03542
1089.83105,0.03609
1087.77088,0.03676
1085.71071,0.03760
1083.65053,0.03849
1081.59036,0.03917
1079.53019,0.03986
1077.47002,0.04074
1075.40985,0.04160
1073.34967,0.04209
1071.28950,0.04233
1069.22933,0.04249
1067.16916,0.04256
1065.10898,0.04266
1063.04881,0.04263
1060.98864,0.04244
1058.92847,0.04233
1056.86830,0.04230
1054.80812,0.04221
1052.74795,0.04182
1050.68778,0.04110
1048.62761,0.04044
1046.56744,0.03987
1044.50726,0.03912
1042.44709,0.03827
1040.38692,0.03751
1038.32675,0.03675
1036.26657,0.03577
1034.20640,0.03468
1032.14623,0.03399
1030.08606,0.03355
1028.02589,0.03274
1025.96571,0.03155
1023.90554,0.03048
1021.84537,0.02977
1019.78520,0.02928
1017.72503,0.02882
1015.66485,0.02820
1013.60468,0.02746
1011.54451,0.02695
1009.48434,0.02663
1007.42417,0.02634
1005.36399,0.02616
1003.30382,0.02611
1001.24365,0.02625
999.18348,0.02651
997.12330,0.02682
995.06313,0.02723
993.00296,0.02780
990.94279,0.02854
988.88262,0.02916
986.82244,0.02943
984.76227,0.02950
982.70210,0.02972
980.64193,0.02990
978.58176,0.02950
976.52158,0.02875
974.46141,0.02787
972.40124,0.02658
970.34107,0.02532
968.28089,0.02443
966.22072,0.02357
964.16055,0.02256
962.10038,0.02159
960.04021,0.02078
957.98003,0.02001
955.91986,0.01908
953.85969,0.01815
951.79952,0.01745
949.73935,0.01709
947.67917,0.01705
945.61900,0.01707
943.55883,0.01692
941.49866,0.01676
939.43849,0.01652
937.37831,0.01616
935.31814,0.01602
933.25797,0.01610
931.19780,0.01629
929.13762,0.01646
927.07745,0.01637
925.01728,0.01609
922.95711,0.01565
920.89694,0.01499
918.83676,0.01436
916.77659,0.01400
914.71642,0.01376
912.65625,0.01329
910.59608,0.01255
908.53590,0.01207
906.47573,0.01198
904.41556,0.01192
902.35539,0.01200
900.29522,0.01216
898.23504,0.01218
896.17487,0.01215
894.11470,0.01191
892.05453,0.01156
889.99435,0.01151
887.93418,0.01181
885.87401,0.01239
883.81384,0.01310
881.75367,0.01376
879.69349,0.01446
877.63332,0.01512
875.57315,0.01546
873.51298,0.01531
871.45281,0.01472
869.39263,0.01438
867.33246,0.01469
865.27229,0.01510
863.21212,0.01518
861.15194,0.01529
859.09177,0.01556
857.03160,0.01560
854.97143,0.01519
852.91126,0.01464
850.85108,0.01437
848.79091,0.01443
846.73074,0.01425
844.67057,0.01328
842.61040,0.01228
840.55022,0.01183
838.49005,0.01161
836.42988,0.01152
834.36971,0.01114
832.30954,0.00999
830.24936,0.00877
828.18919,0.00838
826.12902,0.00834
824.06885,0.00806
822.00867,0.00801
819.94850,0.00816
817.88833,0.00785
815.82816,0.00738
813.76799,0.00708
811.70781,0.00698
809.64764,0.00723
807.58747,0.00738
805.52730,0.00709
803.46713,0.00675
801.40695,0.00660
799.34678,0.00646
797.28661,0.00613
795.22644,0.00584
793.16627,0.00587
791.10609,0.00593
789.04592,0.00592
786.98575,0.00601
784.92558,0.00596
782.86540,0.00595
780.80523,0.00631
778.74506,0.00629
776.68489,0.00563
774.62472,0.00514
772.56454,0.00520
770.50437,0.00539
768.44420,0.00541
766.38403,0.00515
764.32386,0.00477
762.26368,0.00477
760.20351,0.00509
758.14334,0.00538
756.08317,0.00558
754.02299,0.00532
751.96282,0.00464
749.90265,0.00438
747.84248,0.00460
745.78231,0.00467
743.72213,0.00468
741.66196,0.00484
739.60179,0.00457
737.54162,0.00372
735.48145,0.00312
733.42127,0.00339
731.36110,0.00393
729.30093,0.00408
727.24076,0.00432
725.18059,0.00466
723.12041,0.00446
721.06024,0.00365
719.00007,0.00340
716.93990,0.00397
714.87972,0.00499
712.81955,0.00555
710.75938,0.00529
708.69921,0.00503
706.63904,0.00502
704.57886,0.00489
702.51869,0.00484
700.45852,0.00506
698.39835,0.00515
696.33818,0.00499
694.27800,0.00488
692.21783,0.00479
690.15766,0.00459
688.09749,0.00425
686.03731,0.00385
683.97714,0.00385
681.91697,0.00450
679.85680,0.00536
677.79663,0.00596
675.73645,0.00592
673.67628,0.00561
671.61611,0.00608
669.55594,0.00589
667.49577,0.00596
665.43559,0.00807
663.37542,0.00643
661.31525,0.00532
659.25508,0.00486
657.19491,0.00398
655.13473,0.00343
653.07456,0.00389
651.01439,0.00463
648.95422,0.00482
646.89404,0.00457
644.83387,0.00373
642.77370,0.00309
640.71353,0.00366
638.65336,0.00513
636.59318,0.00572
634.53301,0.00501
632.47284,0.00530
630.41267,0.00712
628.35250,0.00748
626.29232,0.00495
624.23215,0.00327
622.17198,0.00414
620.11181,0.00460
618.05164,0.00356
615.99146,0.00391
613.93129,0.00514
611.87112,0.00516
609.81095,0.00481
607.75077,0.00325
605.69060,0.00039
603.63043,0.00000
601.57026,0.00052
599.51009,0.00000
