3996.73391,0.00001
3994.67373,0.00005
3992.61356,0.00000
3990.55339,0.00010
3988.49322,0.00037
3986.43305,0.00068
3984.37287,0.00089
3982.31270,0.00087
3980.25253,0.00061
3978.19236,0.00034
3976.13219,0.00011
3974.07201,0.00014
3972.01184,0.00055
3969.95167,0.00091
3967.89150,0.00106
3965.83133,0.00121
3963.77115,0.00137
3961.71098,0.00130
3959.65081,0.00112
3957.59064,0.00108
3955.53046,0.00103
3953.47029,0.00096
3951.41012,0.00107
3949.34995,0.00126
3947.28978,0.00116
3945.22960,0.00101
3943.16943,0.00102
3941.10926,0.00075
3939.04909,0.00048
3936.98892,0.00037
3934.92874,0.00047
3932.86857,0.00079
3930.80840,0.00077
3928.74823,0.00071
3926.68805,0.00148
3924.62788,0.00223
3922.56771,0.00196
3920.50754,0.00172
3918.44737,0.00189
3916.38719,0.00166
3914.32702,0.00095
3912.26685,0.00048
3910.20668,0.00027
3908.14651,0.00031
3906.08633,0.00101
3904.02616,0.00169
3901.96599,0.00166
3899.90582,0.00137
3897.84565,0.00053
3895.78547,0.00000
3893.72530,0.00071
3891.66513,0.00115
3889.60496,0.00024
3887.54478,0.00027
3885.48461,0.00097
3883.42444,0.00096
3881.36427,0.00173
3879.30410,0.00183
3877.24392,0.00122
3875.18375,0.00140
3873.12358,0.00130
3871.06341,0.00156
3869.00324,0.00147
3866.94306,0.00098
3864.88289,0.00155
3862.82272,0.00146
3860.76255,0.00060
3858.70237,0.00030
3856.64220,0.00172
3854.58203,0.00429
3852.52186,0.00404
3850.46169,0.00152
3848.40151,0.00053
3846.34134,0.00103
3844.28117,0.00167
3842.22100,0.00165
3840.16083,0.00180
3838.10065,0.00200
3836.04048,0.00128
3833.98031,0.00080
3831.92014,0.00099
3829.85997,0.00108
3827.79979,0.00137
3825.73962,0.00169
3823.67945,0.00266
3821.61928,0.00375
3819.55910,0.00225
3817.49893,0.00135
3815.43876,0.00152
3813.37859,0.00081
3811.31842,0.00054
3809.25824,0.00105
3807.19807,0.00126
3805.13790,0.00046
3803.07773,0.00106
3801.01756,0.00178
3798.95738,0.00110
3796.89721,0.00119
3794.83704,0.00117
3792.77687,0.00111
3790.71670,0.00145
3788.65652,0.00161
3786.59635,0.00162
3784.53618,0.00141
3782.47601,0.00132
3780.41583,0.00198
3778.35566,0.00208
3776.29549,0.00143
3774.23532,0.00120
3772.17515,0.00167
3770.11497,0.00218
3768.05480,0.00191
3765.99463,0.00171
3763.93446,0.00134
3761.87429,0.00131
3759.81411,0.00176
3757.75394,0.00149
3755.69377,0.00113
3753.63360,0.00215
3751.57342,0.00329
3749.51325,0.00197
3747.45308,0.00072
3745.39291,0.00216
3743.33274,0.00192
3741.27256,0.00000
3739.21239,0.00010
3737.15222,0.00188
3735.09205,0.00319
3733.03188,0.00266
3730.97170,0.00122
3728.91153,0.00094
3726.85136,0.00214
3724.79119,0.00293
3722.73102,0.00297
3720.67084,0.00250
3718.61067,0.00153
3716.55050,0.00093
3714.49033,0.00162
3712.43015,0.00284
3710.36998,0.00282
3708.30981,0.00186
3706.24964,0.00151
3704.18947,0.00196
3702.12929,0.00223
3700.06912,0.00170
3698.00895,0.00169
3695.94878,0.00231
3693.88861,0.00251
3691.82843,0.00281
3689.76826,0.00311
3687.70809,0.00226
3685.64792,0.00108
3683.58775,0.00086
3681.52757,0.00099
3679.46740,0.00134
3677.40723,0.00263
3675.34706,0.00308
3673.28688,0.00136
3671.22671,0.00201
3669.16654,0.00340
3667.10637,0.00291
3665.04620,0.00275
3662.98602,0.00327
3660.92585,0.00366
3658.86568,0.00416
3656.80551,0.00442
3654.74534,0.00324
3652.68516,0.00292
3650.62499,0.00459
3648.56482,0.00523
3646.50465,0.00439
3644.44447,0.00426
3642.38430,0.00531
3640.32413,0.00619
3638.26396,0.00641
3636.20379,0.00635
3634.14361,0.00638
3632.08344,0.00696
3630.02327,0.00865
3627.96310,0.00896
3625.90293,0.00755
3623.84275,0.00743
3621.78258,0.00895
3619.72241,0.01078
3617.66224,0.01123
3615.60207,0.01114
3613.54189,0.01144
3611.48172,0.01118
3609.42155,0.01117
3607.36138,0.01157
3605.30120,0.01178
3603.24103,0.01244
3601.18086,0.01303
3599.12069,0.01284
3597.06052,0.01275
3595.00034,0.01344
3592.94017,0.01399
3590.88000,0.01454
3588.81983,0.01555
3586.75966,0.01563
3584.69948,0.01455
3582.63931,0.01420
3580.57914,0.01470
3578.51897,0.01542
3576.45879,0.01617
3574.39862,0.01659
3572.33845,0.01649
3570.27828,0.01667
3568.21811,0.01759
3566.15793,0.01820
3564.09776,0.01826
3562.03759,0.01859
3559.97742,0.01891
3557.91725,0.01901
3555.85707,0.01933
3553.79690,0.01989
3551.73673,0.01997
3549.67656,0.01983
3547.61639,0.02044
3545.55621,0.02120
3543.49604,0.02128
3541.43587,0.02121
3539.37570,0.02154
3537.31552,0.02215
3535.25535,0.02260
3533.19518,0.02309
3531.13501,0.02387
3529.07484,0.02455
3527.01466,0.02492
3524.95449,0.02522
3522.89432,0.02548
3520.83415,0.02548
3518.77398,0.02541
3516.71380,0.02546
3514.65363,0.02573
3512.59346,0.02624
3510.53329,0.02668
3508.47312,0.02670
3506.41294,0.02670
3504.35277,0.02709
3502.29260,0.02738
3500.23243,0.02752
3498.17225,0.02785
3496.11208,0.02823
3494.05191,0.02856
3491.99174,0.02887
3489.93157,0.02939
3487.87139,0.02996
3485.81122,0.03023
3483.75105,0.03057
3481.69088,0.03083
3479.63071,0.03063
3477.57053,0.03060
3475.51036,0.03096
3473.45019,0.03124
3471.39002,0.03136
3469.32984,0.03151
3467.26967,0.03170
3465.20950,0.03194
3463.14933,0.03237
3461.08916,0.03256
3459.02898,0.03261
3456.96881,0.03320
3454.90864,0.03400
3452.84847,0.03436
3450.78830,0.03445
3448.72812,0.03475
3446.66795,0.03495
3444.60778,0.03477
3442.54761,0.03476
3440.48744,0.03504
3438.42726,0.03543
3436.36709,0.03563
3434.30692,0.03564
3432.24675,0.03585
3430.18657,0.03629
3428.12640,0.03659
3426.06623,0.03659
3424.00606,0.03653
3421.94589,0.03657
3419.88571,0.03658
3417.82554,0.03668
3415.76537,0.03707
3413.70520,0.03753
3411.64503,0.03790
3409.58485,0.03819
3407.52468,0.03838
3405.46451,0.03844
3403.40434,0.03840
3401.34416,0.03841
3399.28399,0.03879
3397.22382,0.03931
3395.16365,0.03950
3393.10348,0.03946
3391.04330,0.03930
3388.98313,0.03927
3386.92296,0.03949
3384.86279,0.03980
3382.80262,0.04019
3380.74244,0.04054
3378.68227,0.04053
3376.62210,0.04020
3374.56193,0.03998
3372.50176,0.04028
3370.44158,0.04085
3368.38141,0.04113
3366.32124,0.04106
3364.26107,0.04099
3362.20089,0.04096
3360.14072,0.04086
3358.08055,0.04075
3356.02038,0.04067
3353.96021,0.04072
3351.90003,0.04096
3349.83986,0.04104
3347.77969,0.04115
3345.71952,0.04156
3343.65935,0.04181
3341.59917,0.04149
3339.53900,0.04108
3337.47883,0.04115
3335.41866,0.04153
3333.35849,0.04171
3331.29831,0.04169
3329.23814,0.04172
3327.17797,0.04193
3325.11780,0.04218
3323.05762,0.04223
3320.99745,0.04212
3318.93728,0.04202
3316.87711,0.04201
3314.81694,0.04211
3312.75676,0.04225
3310.69659,0.04227
3308.63642,0.04195
3306.57625,0.04160
3304.51608,0.04176
3302.45590,0.04217
3300.39573,0.04246
3298.33556,0.04245
3296.27539,0.04229
3294.21521,0.04247
3292.15504,0.04288
3290.09487,0.04284
3288.03470,0.04248
3285.97453,0.04238
3283.91435,0.04248
3281.85418,0.04258
3279.79401,0.04287
3277.73384,0.04324
3275.67367,0.04332
3273.61349,0.04325
3271.55332,0.04331
3269.49315,0.04335
3267.43298,0.04320
3265.37281,0.04302
3263.31263,0.04302
3261.25246,0.04313
3259.19229,0.04314
3257.13212,0.04310
3255.07194,0.04320
3253.01177,0.04323
3250.95160,0.04297
3248.89143,0.04275
3246.83126,0.04292
3244.77108,0.04320
3242.71091,0.04314
3240.65074,0.04287
3238.59057,0.04261
3236.53040,0.04252
3234.47022,0.04272
3232.41005,0.04302
3230.34988,0.04318
3228.28971,0.04304
3226.22954,0.04286
3224.16936,0.04301
3222.10919,0.04319
3220.04902,0.04317
3217.98885,0.04317
3215.92867,0.04333
3213.86850,0.04350
3211.80833,0.04344
3209.74816,0.04316
3207.68799,0.04268
3205.62781,0.04227
3203.56764,0.04202
3201.50747,0.04186
3199.44730,0.04183
3197.38713,0.04194
3195.32695,0.04207
3193.26678,0.04205
3191.20661,0.04205
3189.14644,0.04222
3187.08626,0.04231
3185.02609,0.04213
3182.96592,0.04178
3180.90575,0.04164
3178.84558,0.04189
3176.78540,0.04200
3174.72523,0.04164
3172.66506,0.04116
3170.60489,0.04089
3168.54472,0.04075
3166.48454,0.04050
3164.42437,0.04026
3162.36420,0.04038
3160.30403,0.04076
3158.24386,0.04093
3156.18368,0.04080
3154.12351,0.04042
3152.06334,0.03986
3150.00317,0.03957
3147.94299,0.03964
3145.88282,0.03960
3143.82265,0.03932
3141.76248,0.03933
3139.70231,0.03961
3137.64213,0.03957
3135.58196,0.03918
3133.52179,0.03883
3131.46162,0.03870
3129.40145,0.03872
3127.34127,0.03874
3125.28110,0.03864
3123.22093,0.03844
3121.16076,0.03824
3119.10058,0.03812
3117.04041,0.03810
3114.98024,0.03805
3112.92007,0.03799
3110.85990,0.03805
3108.79972,0.03799
3106.73955,0.03759
3104.67938,0.03720
3102.61921,0.03700
3100.55904,0.03655
3098.49886,0.03589
3096.43869,0.03556
3094.37852,0.03571
3092.31835,0.03601
3090.25818,0.03605
3088.19800,0.03571
3086.13783,0.03522
3084.07766,0.03480
3082.01749,0.03453
3079.95731,0.03441
3077.89714,0.03438
3075.83697,0.03452
3073.77680,0.03470
3071.71663,0.03454
3069.65645,0.03416
3067.59628,0.03403
3065.53611,0.03400
3063.47594,0.03385
3061.41577,0.03369
3059.35559,0.03357
3057.29542,0.03353
3055.23525,0.03340
3053.17508,0.03314
3051.11491,0.03298
3049.05473,0.03299
3046.99456,0.03292
3044.93439,0.03260
3042.87422,0.03218
3040.81404,0.03194
3038.75387,0.03192
3036.69370,0.03174
3034.63353,0.03134
3032.57336,0.03102
3030.51318,0.03074
3028.45301,0.03037
3026.39284,0.03026
3024.33267,0.03041
3022.27250,0.03042
3020.21232,0.03032
3018.15215,0.03017
3016.09198,0.02984
3014.03181,0.02940
3011.97163,0.02911
3009.91146,0.02915
3007.85129,0.02932
3005.79112,0.02915
3003.73095,0.02875
3001.67077,0.02848
2999.61060,0.02827
2997.55043,0.02798
2995.49026,0.02793
2993.43009,0.02808
2991.36991,0.02801
2989.30974,0.02770
2987.24957,0.02729
2985.18940,0.02703
2983.12923,0.02708
2981.06905,0.02716
2979.00888,0.02703
2976.94871,0.02692
2974.88854,0.02681
2972.82836,0.02661
2970.76819,0.02645
2968.70802,0.02631
2966.64785,0.02627
2964.58768,0.02628
2962.52750,0.02617
2960.46733,0.02615
2958.40716,0.02635
2956.34699,0.02649
2954.28682,0.02643
2952.22664,0.02635
2950.16647,0.02620
2948.10630,0.02598
2946.04613,0.02592
2943.98596,0.02594
2941.92578,0.02589
2939.86561,0.02586
2937.80544,0.02594
2935.74527,0.02597
2933.68509,0.02582
2931.62492,0.02571
2929.56475,0.02565
2927.50458,0.02536
2925.44441,0.02507
2923.38423,0.02508
2921.32406,0.02502
2919.26389,0.02481
2917.20372,0.02479
2915.14355,0.02485
2913.08337,0.02479
2911.02320,0.02466
2908.96303,0.02453
2906.90286,0.02441
2904.84268,0.02419
2902.78251,0.02385
2900.72234,0.02358
2898.66217,0.02357
2896.60200,0.02366
2894.54182,0.02362
2892.48165,0.02351
2890.42148,0.02343
2888.36131,0.02336
2886.30114,0.02331
2884.24096,0.02328
2882.18079,0.02325
2880.12062,0.02318
2878.06045,0.02298
2876.00028,0.02286
2873.94010,0.02298
2871.87993,0.02302
2869.81976,0.02281
2867.75959,0.02250
2865.69941,0.02228
2863.63924,0.02221
2861.57907,0.02221
2859.51890,0.02209
2857.45873,0.02183
2855.39855,0.02161
2853.33838,0.02160
2851.27821,0.02165
2849.21804,0.02168
2847.15787,0.02174
2845.09769,0.02163
2843.03752,0.02131
2840.97735,0.02103
2838.91718,0.02078
2836.85700,0.02070
2834.79683,0.02078
2832.73666,0.02074
2830.67649,0.02071
2828.61632,0.02084
2826.55614,0.02084
2824.49597,0.02058
2822.43580,0.02030
2820.37563,0.02015
2818.31546,0.01994
2816.25528,0.01966
2814.19511,0.01960
2812.13494,0.01974
2810.07477,0.01984
2808.01460,0.01979
2805.95442,0.01966
2803.89425,0.01959
2801.83408,0.01958
2799.77391,0.01945
2797.71373,0.01924
2795.65356,0.01923
2793.59339,0.01930
2791.53322,0.01921
2789.47305,0.01902
2787.41287,0.01886
2785.35270,0.01874
2783.29253,0.01877
2781.23236,0.01877
2779.17219,0.01874
2777.11201,0.01882
2775.05184,0.01869
2772.99167,0.01820
2770.93150,0.01777
2768.87133,0.01771
2766.81115,0.01782
2764.75098,0.01790
2762.69081,0.01811
2760.63064,0.01833
2758.57046,0.01815
2756.51029,0.01773
2754.45012,0.01745
2752.38995,0.01737
2750.32978,0.01736
2748.26960,0.01736
2746.20943,0.01725
2744.14926,0.01704
2742.08909,0.01686
2740.02892,0.01664
2737.96874,0.01638
2735.90857,0.01621
2733.84840,0.01630
2731.78823,0.01658
2729.72805,0.01672
2727.66788,0.01667
2725.60771,0.01664
2723.54754,0.01674
2721.48737,0.01671
2719.42719,0.01643
2717.36702,0.01607
2715.30685,0.01574
2713.24668,0.01561
2711.18651,0.01569
2709.12633,0.01567
2707.06616,0.01545
2705.00599,0.01530
2702.94582,0.01528
2700.88565,0.01515
2698.82547,0.01499
2696.76530,0.01502
2694.70513,0.01509
2692.64496,0.01502
2690.58478,0.01492
2688.52461,0.01489
2686.46444,0.01480
2684.40427,0.01466
2682.34410,0.01458
2680.28392,0.01455
2678.22375,0.01445
2676.16358,0.01422
2674.10341,0.01399
2672.04324,0.01382
2669.98306,0.01367
2667.92289,0.01361
2665.86272,0.01362
2663.80255,0.01362
2661.74238,0.01364
2659.68220,0.01361
2657.62203,0.01359
2655.56186,0.01354
2653.50169,0.01332
2651.44151,0.01308
2649.38134,0.01288
2647.32117,0.01271
2645.26100,0.01256
2643.20083,0.01248
2641.14065,0.01247
2639.08048,0.01231
2637.02031,0.01213
2634.96014,0.01217
2632.89997,0.01227
2630.83979,0.01222
2628.77962,0.01196
2626.71945,0.01170
2624.65928,0.01166
2622.59910,0.01158
2620.53893,0.01142
2618.47876,0.01141
2616.41859,0.01142
2614.35842,0.01139
2612.29824,0.01142
2610.23807,0.01152
2608.17790,0.01146
2606.11773,0.01113
2604.05756,0.01088
2601.99738,0.01079
2599.93721,0.01075
2597.87704,0.01075
2595.81687,0.01068
2593.75670,0.01060
2591.69652,0.01061
2589.63635,0.01063
2587.57618,0.01081
2585.51601,0.01093
2583.45583,0.01091
2581.39566,0.01117
2579.33549,0.01151
2577.27532,0.01140
2575.21515,0.01083
2573.15497,0.01004
2571.09480,0.00964
2569.03463,0.00996
2566.97446,0.01059
2564.91429,0.01089
2562.85411,0.01054
2560.79394,0.01010
2558.73377,0.01002
2556.67360,0.01009
2554.61342,0.01011
2552.55325,0.01001
2550.49308,0.00992
2548.43291,0.00995
2546.37274,0.00989
2544.31256,0.00963
2542.25239,0.00939
2540.19222,0.00943
2538.13205,0.00969
2536.07188,0.00967
2534.01170,0.00945
2531.95153,0.00944
2529.89136,0.00965
2527.83119,0.00996
2525.77102,0.01012
2523.71084,0.01012
2521.65067,0.01012
2519.59050,0.01002
2517.53033,0.00990
2515.47015,0.01004
2513.40998,0.01017
2511.34981,0.00996
2509.28964,0.00966
2507.22947,0.00967
2505.16929,0.00981
2503.10912,0.00968
2501.04895,0.00950
2498.98878,0.00949
2496.92861,0.00965
2494.86843,0.01001
2492.80826,0.01031
2490.74809,0.01044
2488.68792,0.01071
2486.62775,0.01103
2484.56757,0.01114
2482.50740,0.01096
2480.44723,0.01050
2478.38706,0.01010
2476.32688,0.00986
2474.26671,0.00979
2472.20654,0.01002
2470.14637,0.01036
2468.08620,0.01051
2466.02602,0.01059
2463.96585,0.01067
2461.90568,0.01036
2459.84551,0.01007
2457.78534,0.01043
2455.72516,0.01117
2453.66499,0.01175
2451.60482,0.01195
2449.54465,0.01163
2447.48447,0.01104
2445.42430,0.01070
2443.36413,0.01078
2441.30396,0.01099
2439.24379,0.01096
2437.18361,0.01073
2435.12344,0.01052
2433.06327,0.01034
2431.00310,0.01045
2428.94293,0.01097
2426.88275,0.01134
2424.82258,0.01124
2422.76241,0.01106
2420.70224,0.01098
2418.64207,0.01075
2416.58189,0.01054
2414.52172,0.01049
2412.46155,0.01058
2410.40138,0.01084
2408.34120,0.01089
2406.28103,0.01059
2404.22086,0.01017
2402.16069,0.00988
2400.10052,0.01010
2398.04034,0.01072
2395.98017,0.01113
2393.92000,0.01113
2391.85983,0.01097
2389.79966,0.01095
2387.73948,0.01104
2385.67931,0.01116
2383.61914,0.01131
2381.55897,0.01147
2379.49880,0.01147
2377.43862,0.01122
2375.37845,0.01078
2373.31828,0.01136
2371.25811,0.01260
2369.19793,0.01242
2367.13776,0.01085
2365.07759,0.00837
2363.01742,0.00453
2360.95725,0.00474
2358.89707,0.00642
2356.83690,0.00704
2354.77673,0.00646
2352.71656,0.00622
2350.65639,0.01022
2348.59621,0.01341
2346.53604,0.00961
2344.47587,0.00918
2342.41570,0.01050
2340.35552,0.01203
2338.29535,0.01349
2336.23518,0.01367
2334.17501,0.01303
2332.11484,0.01196
2330.05466,0.01243
2327.99449,0.01328
2325.93432,0.01372
2323.87415,0.01197
2321.81398,0.01058
2319.75380,0.00982
2317.69363,0.01018
2315.63346,0.01011
2313.57329,0.01009
2311.51312,0.01035
2309.45294,0.01002
2307.39277,0.00938
2305.33260,0.00909
2303.27243,0.00913
2301.21225,0.00908
2299.15208,0.00930
2297.09191,0.00954
2295.03174,0.00962
2292.97157,0.00991
2290.91139,0.01051
2288.85122,0.01091
2286.79105,0.01070
2284.73088,0.01018
2282.67071,0.01003
2280.61053,0.01024
2278.55036,0.01021
2276.49019,0.00999
2274.43002,0.01003
2272.36984,0.01002
2270.30967,0.00976
2268.24950,0.00938
2266.18933,0.00894
2264.12916,0.00847
2262.06898,0.00814
2260.00881,0.00799
2257.94864,0.00805
2255.88847,0.00842
2253.82830,0.00922
2251.76812,0.00972
2249.70795,0.00931
2247.64778,0.00875
2245.58761,0.00854
2243.52744,0.00807
2241.46726,0.00766
2239.40709,0.00799
2237.34692,0.00848
2235.28675,0.00819
2233.22657,0.00742
2231.16640,0.00727
2229.10623,0.00795
2227.04606,0.00822
2224.98589,0.00738
2222.92571,0.00675
2220.86554,0.00708
2218.80537,0.00758
2216.74520,0.00767
2214.68503,0.00781
2212.62485,0.00837
2210.56468,0.00853
2208.50451,0.00794
2206.44434,0.00715
2204.38417,0.00610
2202.32399,0.00465
2200.26382,0.00358
2198.20365,0.00347
2196.14348,0.00403
2194.08330,0.00472
2192.02313,0.00532
2189.96296,0.00585
2187.90279,0.00585
2185.84262,0.00491
2183.78244,0.00389
2181.72227,0.00398
2179.66210,0.00478
2177.60193,0.00553
2175.54176,0.00631
2173.48158,0.00668
2171.42141,0.00561
2169.36124,0.00416
2167.30107,0.00419
2165.24089,0.00486
2163.18072,0.00463
2161.12055,0.00278
2159.06038,0.00032
2157.00021,0.00000
2154.94003,0.00197
2152.87986,0.00422
2150.81969,0.00520
2148.75952,0.00450
2146.69935,0.00337
2144.63917,0.00339
2142.57900,0.00415
2140.51883,0.00449
2138.45866,0.00451
2136.39849,0.00410
2134.33831,0.00325
2132.27814,0.00304
2130.21797,0.00340
2128.15780,0.00377
2126.09762,0.00410
2124.03745,0.00397
2121.97728,0.00373
2119.91711,0.00402
2117.85694,0.00474
2115.79676,0.00549
2113.73659,0.00559
2111.67642,0.00517
2109.61625,0.00481
2107.55608,0.00441
2105.49590,0.00416
2103.43573,0.00455
2101.37556,0.00506
2099.31539,0.00508
2097.25521,0.00513
2095.19504,0.00567
2093.13487,0.00616
2091.07470,0.00586
2089.01453,0.00516
2086.95435,0.00502
2084.89418,0.00535
2082.83401,0.00568
2080.77384,0.00551
2078.71367,0.00498
2076.65349,0.00459
2074.59332,0.00398
2072.53315,0.00369
2070.47298,0.00427
2068.41281,0.00445
2066.35263,0.00380
2064.29246,0.00323
2062.23229,0.00313
2060.17212,0.00332
2058.11194,0.00381
2056.05177,0.00441
2053.99160,0.00459
2051.93143,0.00403
2049.87126,0.00289
2047.81108,0.00232
2045.75091,0.00283
2043.69074,0.00326
2041.63057,0.00246
2039.57040,0.00130
2037.51022,0.00213
2035.45005,0.00406
2033.38988,0.00391
2031.32971,0.00183
2029.26954,0.00079
2027.20936,0.00178
2025.14919,0.00234
2023.08902,0.00149
2021.02885,0.00134
2018.96867,0.00251
2016.90850,0.00392
2014.84833,0.00416
2012.78816,0.00262
2010.72799,0.00114
2008.66781,0.00124
2006.60764,0.00184
2004.54747,0.00190
2002.48730,0.00216
2000.42713,0.00311
1998.36695,0.00351
1996.30678,0.00297
1994.24661,0.00275
1992.18644,0.00294
1990.12626,0.00268
1988.06609,0.00238
1986.00592,0.00237
1983.94575,0.00258
1981.88558,0.00263
1979.82540,0.00162
1977.76523,0.00054
1975.70506,0.00097
1973.64489,0.00193
1971.58472,0.00292
1969.52454,0.00372
1967.46437,0.00340
1965.40420,0.00198
1963.34403,0.00105
1961.28386,0.00136
1959.22368,0.00132
1957.16351,0.00055
1955.10334,0.00076
1953.04317,0.00207
1950.98299,0.00227
1948.92282,0.00091
1946.86265,0.00000
1944.80248,0.00026
1942.74231,0.00081
1940.68213,0.00116
1938.62196,0.00197
1936.56179,0.00287
1934.50162,0.00328
1932.44145,0.00347
1930.38127,0.00369
1928.32110,0.00350
1926.26093,0.00258
1924.20076,0.00196
1922.14059,0.00225
1920.08041,0.00319
1918.02024,0.00377
1915.96007,0.00300
1913.89990,0.00233
1911.83972,0.00250
1909.77955,0.00305
1907.71938,0.00354
1905.65921,0.00384
1903.59904,0.00396
1901.53886,0.00363
1899.47869,0.00292
1897.41852,0.00246
1895.35835,0.00219
1893.29818,0.00183
1891.23800,0.00216
1889.17783,0.00265
1887.11766,0.00250
1885.05749,0.00261
1882.99731,0.00303
1880.93714,0.00330
1878.87697,0.00336
1876.81680,0.00335
1874.75663,0.00326
1872.69645,0.00297
1870.63628,0.00302
1868.57611,0.00330
1866.51594,0.00322
1864.45577,0.00327
1862.39559,0.00345
1860.33542,0.00337
1858.27525,0.00313
1856.21508,0.00288
1854.15491,0.00275
1852.09473,0.00281
1850.03456,0.00292
1847.97439,0.00296
1845.91422,0.00331
1843.85404,0.00349
1841.79387,0.00287
1839.73370,0.00296
1837.67353,0.00367
1835.61336,0.00366
1833.55318,0.00319
1831.49301,0.00344
1829.43284,0.00366
1827.37267,0.00326
1825.31250,0.00329
1823.25232,0.00317
1821.19215,0.00288
1819.13198,0.00290
1817.07181,0.00296
1815.01163,0.00295
1812.95146,0.00319
1810.89129,0.00349
1808.83112,0.00341
1806.77095,0.00324
1804.71077,0.00318
1802.65060,0.00333
1800.59043,0.00345
1798.53026,0.00316
1796.47009,0.00298
1794.40991,0.00366
1792.34974,0.00438
1790.28957,0.00372
1788.22940,0.00316
1786.16923,0.00359
1784.10905,0.00388
1782.04888,0.00400
1779.98871,0.00417
1777.92854,0.00391
1775.86836,0.00386
1773.80819,0.00460
1771.74802,0.00489
1769.68785,0.00414
1767.62768,0.00378
1765.56750,0.00374
1763.50733,0.00442
1761.44716,0.00494
1759.38699,0.00472
1757.32682,0.00489
1755.26664,0.00468
1753.20647,0.00466
1751.14630,0.00549
1749.08613,0.00572
1747.02596,0.00528
1744.96578,0.00507
1742.90561,0.00530
1740.84544,0.00570
1738.78527,0.00538
1736.72509,0.00542
1734.66492,0.00697
1732.60475,0.00688
1730.54458,0.00613
1728.48441,0.00639
1726.42423,0.00688
1724.36406,0.00720
1722.30389,0.00697
1720.24372,0.00753
1718.18355,0.00916
1716.12337,0.00925
1714.06320,0.00831
1712.00303,0.00795
1709.94286,0.00828
1707.88268,0.00906
1705.82251,0.00944
1703.76234,0.00889
1701.70217,0.00975
1699.64200,0.01052
1697.58182,0.01012
1695.52165,0.01048
1693.46148,0.01010
1691.40131,0.01033
1689.34114,0.01068
1687.28096,0.01081
1685.22079,0.01257
1683.16062,0.01297
1681.10045,0.01146
1679.04028,0.01120
1676.98010,0.01238
1674.91993,0.01311
1672.85976,0.01271
1670.79959,0.01357
1668.73941,0.01403
1666.67924,0.01307
1664.61907,0.01356
1662.55890,0.01475
1660.49873,0.01427
1658.43855,0.01336
1656.37838,0.01415
1654.31821,0.01686
1652.25804,0.01629
1650.19787,0.01349
1648.13769,0.01448
1646.07752,0.01570
1644.01735,0.01459
1641.95718,0.01393
1639.89701,0.01415
1637.83683,0.01541
1635.77666,0.01663
1633.71649,0.01508
1631.65632,0.01366
1629.59614,0.01403
1627.53597,0.01425
1625.47580,0.01424
1623.41563,0.01440
1621.35546,0.01330
1619.29528,0.01299
1617.23511,0.01423
1615.17494,0.01374
1613.11477,0.01253
1611.05460,0.01255
1608.99442,0.01287
1606.93425,0.01275
1604.87408,0.01240
1602.81391,0.01202
1600.75373,0.01152
1598.69356,0.01112
1596.63339,0.01097
1594.57322,0.01079
1592.51305,0.01042
1590.45287,0.01003
1588.39270,0.00966
1586.33253,0.00926
1584.27236,0.00879
1582.21219,0.00810
1580.15201,0.00748
1578.09184,0.00808
1576.03167,0.00845
1573.97150,0.00655
1571.91133,0.00597
1569.85115,0.00708
1567.79098,0.00668
1565.73081,0.00571
1563.67064,0.00473
1561.61046,0.00533
1559.55029,0.00801
1557.49012,0.00675
1555.42995,0.00452
1553.36978,0.00429
1551.30960,0.00464
1549.24943,0.00450
1547.18926,0.00388
1545.12909,0.00389
1543.06892,0.00439
1541.00874,0.00548
1538.94857,0.00473
1536.88840,0.00273
1534.82823,0.00343
1532.76805,0.00417
1530.70788,0.00307
1528.64771,0.00284
1526.58754,0.00293
1524.52737,0.00239
1522.46719,0.00260
1520.40702,0.00237
1518.34685,0.00215
1516.28668,0.00261
1514.22651,0.00213
1512.16633,0.00155
1510.10616,0.00205
1508.04599,0.00435
1505.98582,0.00484
1503.92565,0.00241
1501.86547,0.00149
1499.80530,0.00238
1497.74513,0.00310
1495.68496,0.00218
1493.62478,0.00098
1491.56461,0.00185
1489.50444,0.00317
1487.44427,0.00282
1485.38410,0.00202
1483.32392,0.00194
1481.26375,0.00209
1479.20358,0.00174
1477.14341,0.00169
1475.08324,0.00256
1473.02306,0.00371
1470.96289,0.00306
1468.90272,0.00202
1466.84255,0.00280
1464.78238,0.00354
1462.72220,0.00248
1460.66203,0.00222
1458.60186,0.00423
1456.54169,0.00513
1454.48151,0.00356
1452.42134,0.00300
1450.36117,0.00373
1448.30100,0.00431
1446.24083,0.00388
1444.18065,0.00311
1442.12048,0.00264
1440.06031,0.00256
1438.00014,0.00336
1435.93997,0.00332
1433.87979,0.00203
1431.81962,0.00209
1429.75945,0.00272
1427.69928,0.00250
1425.63910,0.00235
1423.57893,0.00231
1421.51876,0.00256
1419.45859,0.00355
1417.39842,0.00336
1415.33824,0.00265
1413.27807,0.00267
1411.21790,0.00279
1409.15773,0.00263
1407.09756,0.00276
1405.03738,0.00296
1402.97721,0.00246
1400.91704,0.00238
1398.85687,0.00286
1396.79670,0.00307
1394.73652,0.00309
1392.67635,0.00250
1390.61618,0.00228
1388.55601,0.00292
1386.49583,0.00308
1384.43566,0.00268
1382.37549,0.00279
1380.31532,0.00314
1378.25515,0.00332
1376.19497,0.00370
1374.13480,0.00414
1372.07463,0.00389
1370.01446,0.00370
1367.95429,0.00363
1365.89411,0.00342
1363.83394,0.00364
1361.77377,0.00361
1359.71360,0.00305
1357.65343,0.00284
1355.59325,0.00296
1353.53308,0.00299
1351.47291,0.00306
1349.41274,0.00325
1347.35256,0.00329
1345.29239,0.00307
1343.23222,0.00284
1341.17205,0.00306
1339.11188,0.00338
1337.05170,0.00327
1334.99153,0.00311
1332.93136,0.00309
1330.87119,0.00307
1328.81102,0.00299
1326.75084,0.00292
1324.69067,0.00281
1322.63050,0.00265
1320.57033,0.00263
1318.51015,0.00265
1316.44998,0.00246
1314.38981,0.00235
1312.32964,0.00239
1310.26947,0.00245
1308.20929,0.00251
1306.14912,0.00245
1304.08895,0.00228
1302.02878,0.00218
1299.96861,0.00216
1297.90843,0.00209
1295.84826,0.00199
1293.78809,0.00202
1291.72792,0.00221
1289.66775,0.00246
1287.60757,0.00262
1285.54740,0.00263
1283.48723,0.00254
1281.42706,0.00241
1279.36688,0.00230
1277.30671,0.00222
1275.24654,0.00223
1273.18637,0.00244
1271.12620,0.00272
1269.06602,0.00282
1267.00585,0.00274
1264.94568,0.00246
1262.88551,0.00227
1260.82534,0.00244
1258.76516,0.00267
1256.70499,0.00271
1254.64482,0.00261
1252.58465,0.00238
1250.52447,0.00219
1248.46430,0.00219
1246.40413,0.00225
1244.34396,0.00227
1242.28379,0.00225
1240.22361,0.00234
1238.16344,0.00240
1236.10327,0.00216
1234.04310,0.00194
1231.98293,0.00203
1229.92275,0.00223
1227.86258,0.00223
1225.80241,0.00211
1223.74224,0.00210
1221.68207,0.00208
1219.62189,0.00197
1217.56172,0.00190
1215.50155,0.00178
1213.44138,0.00158
1211.38120,0.00145
1209.32103,0.00140
1207.26086,0.00136
1205.20069,0.00133
1203.14052,0.00135
1201.08034,0.00138
1199.02017,0.00145
1196.96000,0.00151
1194.89983,0.00159
1192.83966,0.00179
1190.77948,0.00201
1188.71931,0.00229
1186.65914,0.00257
1184.59897,0.00280
1182.53880,0.00326
1180.47862,0.00391
1178.41845,0.00437
1176.35828,0.00476
1174.29811,0.00535
1172.23793,0.00611
1170.17776,0.00682
1168.11759,0.00735
1166.05742,0.00774
1163.99725,0.00818
1161.93707,0.00876
1159.87690,0.00936
1157.81673,0.01007
1155.75656,0.01076
1153.69639,0.01116
1151.63621,0.01159
1149.57604,0.01224
1147.51587,0.01291
1145.45570,0.01355
1143.39552,0.01426
1141.33535,0.01506
1139.27518,0.01582
1137.21501,0.01653
1135.15484,0.01733
1133.09466,0.01819
1131.03449,0.01902
1128.97432,0.01981
1126.91415,0.02061
1124.85398,0.02143
1122.79380,0.02226
1120.73363,0.02322
1118.67346,0.02427
1116.61329,0.02517
1114.55312,0.02602
1112.49294,0.02690
1110.43277,0.02769
1108.37260,0.02849
1106.31243,0.02950
1104.25225,0.03072
1102.19208,0.03194
1100.13191,0.03292
1098.07174,0.03375
1096.01157,0.03472
1093.95139,0.03580
1091.89122,0.03675
1089.83105,0.03751
1087.77088,0.03824
1085.71071,0.03895
1083.65053,0.03967
1081.59036,0.04047
1079.53019,0.04126
1077.47002,0.04201
1075.40985,0.04274
1073.34967,0.04337
1071.28950,0.04386
1069.22933,0.04406
1067.16916,0.04407
1065.10898,0.04416
1063.04881,0.04417
1060.98864,0.04403
1058.92847,0.04393
1056.86830,0.04383
1054.80812,0.04375
1052.74795,0.04351
1050.68778,0.04290
1048.62761,0.04228
1046.56744,0.04173
1044.50726,0.04090
1042.44709,0.03998
1040.38692,0.03926
1038.32675,0.03861
1036.26657,0.03764
1034.20640,0.03649
1032.14623,0.03570
1030.08606,0.03511
1028.02589,0.03428
1025.96571,0.03324
1023.90554,0.03231
1021.84537,0.03163
1019.78520,0.03094
1017.72503,0.03020
1015.66485,0.02962
1013.60468,0.02913
1011.54451,0.02863
1009.48434,0.02820
1007.42417,0.02793
1005.36399,0.02769
1003.30382,0.02741
1001.24365,0.02756
999.18348,0.02808
997.12330,0.02864
995.06313,0.02933
993.00296,0.03004
990.94279,0.03057
988.88262,0.03088
986.82244,0.03103
984.76227,0.03107
982.70210,0.03114
980.64193,0.03125
978.58176,0.03105
976.52158,0.03050
974.46141,0.02972
972.40124,0.02857
970.34107,0.02722
968.28089,0.02609
966.22072,0.02518
964.16055,0.02422
962.10038,0.02320
960.04021,0.02232
957.98003,0.02156
955.91986,0.02062
953.85969,0.01965
951.79952,0.01914
949.73935,0.01887
947.67917,0.01838
945.61900,0.01792
943.55883,0.01775
941.49866,0.01776
939.43849,0.01781
937.37831,0.01782
935.31814,0.01779
933.25797,0.01772
931.19780,0.01774
929.13762,0.01793
927.07745,0.01794
925.01728,0.01760
922.95711,0.01708
920.89694,0.01657
918.83676,0.01609
916.77659,0.01544
914.71642,0.01462
912.65625,0.01386
910.59608,0.01332
908.53590,0.01328
906.47573,0.01349
904.41556,0.01348
902.35539,0.01340
900.29522,0.01314
898.23504,0.01265
896.17487,0.01239
894.11470,0.01254
892.05453,0.01274
889.99435,0.01262
887.93418,0.01254
885.87401,0.01280
883.81384,0.01323
881.75367,0.01384
879.69349,0.01469
877.63332,0.01563
875.57315,0.01624
873.51298,0.01635
871.45281,0.01627
869.39263,0.01637
867.33246,0.01655
865.27229,0.01639
863.21212,0.01597
861.15194,0.01590
859.09177,0.01614
857.03160,0.01588
854.97143,0.01524
852.91126,0.01500
850.85108,0.01499
848.79091,0.01494
846.73074,0.01480
844.67057,0.01421
842.61040,0.01327
840.55022,0.01248
838.49005,0.01202
836.42988,0.01193
834.36971,0.01193
832.30954,0.01145
830.24936,0.01060
828.18919,0.00995
826.12902,0.00975
824.06885,0.00988
822.00867,0.00993
819.94850,0.00959
817.88833,0.00900
815.82816,0.00845
813.76799,0.00817
811.70781,0.00798
809.64764,0.00741
807.58747,0.00671
805.52730,0.00639
803.46713,0.00647
801.40695,0.00668
799.34678,0.00667
797.28661,0.00640
795.22644,0.00614
793.16627,0.00619
791.10609,0.00619
789.04592,0.00588
786.98575,0.00589
784.92558,0.00615
782.86540,0.00617
780.80523,0.00607
778.74506,0.00593
776.68489,0.00583
774.62472,0.00591
772.56454,0.00614
770.50437,0.00620
768.44420,0.00562
766.38403,0.00493
764.32386,0.00492
762.26368,0.00530
760.20351,0.00526
758.14334,0.00472
756.08317,0.00422
754.02299,0.00392
751.96282,0.00405
749.90265,0.00460
747.84248,0.00512
745.78231,0.00542
743.72213,0.00539
741.66196,0.00494
739.60179,0.00427
737.54162,0.00376
735.48145,0.00356
733.42127,0.00366
731.36110,0.00384
729.30093,0.00363
727.24076,0.00343
725.18059,0.00380
723.12041,0.00424
721.06024,0.00378
719.00007,0.00433
716.93990,0.00506
714.87972,0.00514
712.81955,0.00492
710.75938,0.00461
708.69921,0.00445
706.63904,0.00443
704.57886,0.00443
702.51869,0.00449
700.45852,0.00477
698.39835,0.00506
696.33818,0.00509
694.27800,0.00504
692.21783,0.00526
690.15766,0.00594
688.09749,0.00681
686.03731,0.00708
683.97714,0.00646
681.91697,0.00568
679.85680,0.00526
677.79663,0.00513
675.73645,0.00532
673.67628,0.00725
671.61611,0.01100
669.55594,0.00753
667.49577,0.00237
665.43559,0.01011
663.37542,0.00822
661.31525,0.00539
659.25508,0.00455
657.19491,0.00474
655.13473,0.00562
653.07456,0.00620
651.01439,0.00538
648.95422,0.00391
646.89404,0.00363
644.83387,0.00361
642.77370,0.00396
640.71353,0.00511
638.65336,0.00627
636.59318,0.00598
634.53301,0.00443
632.47284,0.00353
630.41267,0.00348
628.35250,0.00259
626.29232,0.00111
624.23215,0.00115
622.17198,0.00212
620.11181,0.00240
618.05164,0.00251
615.99146,0.00374
613.93129,0.00436
611.87112,0.00378
609.81095,0.00427
607.75077,0.00489
605.69060,0.00261
603.63043,0.00000
601.57026,-0.00032
599.51009,0.00000
