3996.73391,0.00084
3994.67373,0.00074
3992.61356,0.00062
3990.55339,0.00049
3988.49322,0.00038
3986.43305,0.00031
3984.37287,0.00038
3982.31270,0.00056
3980.25253,0.00066
3978.19236,0.00059
3976.13219,0.00048
3974.07201,0.00049
3972.01184,0.00060
3969.95167,0.00070
3967.89150,0.00074
3965.83133,0.00082
3963.77115,0.00104
3961.71098,0.00128
3959.65081,0.00129
3957.59064,0.00101
3955.53046,0.00069
3953.47029,0.00055
3951.41012,0.00043
3949.34995,0.00016
3947.28978,0.00000
3945.22960,0.00014
3943.16943,0.00041
3941.10926,0.00066
3939.04909,0.00088
3936.98892,0.00095
3934.92874,0.00070
3932.86857,0.00034
3930.80840,0.00027
3928.74823,0.00055
3926.68805,0.00089
3924.62788,0.00104
3922.56771,0.00102
3920.50754,0.00100
3918.44737,0.00107
3916.38719,0.00111
3914.32702,0.00103
3912.26685,0.00090
3910.20668,0.00082
3908.14651,0.00087
3906.08633,0.00101
3904.02616,0.00113
3901.96599,0.00113
3899.90582,0.00114
3897.84565,0.00129
3895.78547,0.00145
3893.72530,0.00158
3891.66513,0.00159
3889.60496,0.00125
3887.54478,0.00069
3885.48461,0.00041
3883.42444,0.00062
3881.36427,0.00095
3879.30410,0.00105
3877.24392,0.00104
3875.18375,0.00094
3873.12358,0.00082
3871.06341,0.00087
3869.00324,0.00076
3866.94306,0.00031
3864.88289,0.00008
3862.82272,0.00040
3860.76255,0.00089
3858.70237,0.00113
3856.64220,0.00107
3854.58203,0.00093
3852.52186,0.00089
3850.46169,0.00093
3848.40151,0.00094
3846.34134,0.00083
3844.28117,0.00067
3842.22100,0.00058
3840.16083,0.00065
3838.10065,0.00091
3836.04048,0.00113
3833.98031,0.00107
3831.92014,0.00093
3829.85997,0.00099
3827.79979,0.00116
3825.73962,0.00118
3823.67945,0.00109
3821.61928,0.00098
3819.55910,0.00088
3817.49893,0.00088
3815.43876,0.00089
3813.37859,0.00084
3811.31842,0.00082
3809.25824,0.00099
3807.19807,0.00122
3805.13790,0.00117
3803.07773,0.00088
3801.01756,0.00050
3798.95738,0.00018
3796.89721,0.00028
3794.83704,0.00075
3792.77687,0.00106
3790.71670,0.00114
3788.65652,0.00119
3786.59635,0.00109
3784.53618,0.00092
3782.47601,0.00096
3780.41583,0.00111
3778.35566,0.00112
3776.29549,0.00099
3774.23532,0.00076
3772.17515,0.00067
3770.11497,0.00089
3768.05480,0.00107
3765.99463,0.00095
3763.93446,0.00087
3761.87429,0.00096
3759.81411,0.00085
3757.75394,0.00055
3755.69377,0.00063
3753.63360,0.00126
3751.57342,0.00171
3749.51325,0.00127
3747.45308,0.00064
3745.39291,0.00053
3743.33274,0.00072
3741.27256,0.00086
3739.21239,0.00103
3737.15222,0.00144
3735.09205,0.00190
3733.03188,0.00185
3730.97170,0.00150
3728.91153,0.00121
3726.85136,0.00081
3724.79119,0.00030
3722.73102,0.00023
3720.67084,0.00062
3718.61067,0.00088
3716.55050,0.00084
3714.49033,0.00075
3712.43015,0.00078
3710.36998,0.00103
3708.30981,0.00130
3706.24964,0.00128
3704.18947,0.00108
3702.12929,0.00093
3700.06912,0.00093
3698.00895,0.00120
3695.94878,0.00164
3693.88861,0.00198
3691.82843,0.00223
3689.76826,0.00224
3687.70809,0.00177
3685.64792,0.00139
3683.58775,0.00151
3681.52757,0.00210
3679.46740,0.00291
3677.40723,0.00336
3675.34706,0.00308
3673.28688,0.00241
3671.22671,0.00180
3669.16654,0.00153
3667.10637,0.00171
3665.04620,0.00210
3662.98602,0.00254
3660.92585,0.00286
3658.86568,0.00290
3656.80551,0.00279
3654.74534,0.00273
3652.68516,0.00282
3650.62499,0.00308
3648.56482,0.00350
3646.50465,0.00395
3644.44447,0.00427
3642.38430,0.00439
3640.32413,0.00431
3638.26396,0.00426
3636.20379,0.00450
3634.14361,0.00482
3632.08344,0.00503
3630.02327,0.00516
3627.96310,0.00535
3625.90293,0.00590
3623.84275,0.00657
3621.78258,0.00690
3619.72241,0.00685
3617.66224,0.00682
3615.60207,0.00704
3613.54189,0.00740
3611.48172,0.00782
3609.42155,0.00816
3607.36138,0.00838
3605.30120,0.00866
3603.24103,0.00921
3601.18086,0.00992
3599.12069,0.01041
3597.06052,0.01073
3595.00034,0.01128
3592.94017,0.01193
3590.88000,0.01229
3588.81983,0.01229
3586.75966,0.01210
3584.69948,0.01219
3582.63931,0.01268
3580.57914,0.01320
3578.51897,0.01359
3576.45879,0.01403
3574.39862,0.01452
3572.33845,0.01490
3570.27828,0.01516
3568.21811,0.01529
3566.15793,0.01556
3564.09776,0.01628
3562.03759,0.01713
3559.97742,0.01778
3557.91725,0.01836
3555.85707,0.01888
3553.79690,0.01922
3551.73673,0.01951
3549.67656,0.02008
3547.61639,0.02079
3545.55621,0.02124
3543.49604,0.02148
3541.43587,0.02190
3539.37570,0.02258
3537.31552,0.02330
3535.25535,0.02383
3533.19518,0.02421
3531.13501,0.02459
3529.07484,0.02504
3527.01466,0.02559
3524.95449,0.02610
3522.89432,0.02646
3520.83415,0.02678
3518.77398,0.02713
3516.71380,0.02755
3514.65363,0.02804
3512.59346,0.02854
3510.53329,0.02912
3508.47312,0.02965
3506.41294,0.03003
3504.35277,0.03040
3502.29260,0.03086
3500.23243,0.03138
3498.17225,0.03190
3496.11208,0.03227
3494.05191,0.03255
3491.99174,0.03288
3489.93157,0.03326
3487.87139,0.03377
3485.81122,0.03452
3483.75105,0.03531
3481.69088,0.03582
3479.63071,0.03604
3477.57053,0.03623
3475.51036,0.03657
3473.45019,0.03712
3471.39002,0.03777
3469.32984,0.03830
3467.26967,0.03879
3465.20950,0.03934
3463.14933,0.03994
3461.08916,0.04042
3459.02898,0.04063
3456.96881,0.04082
3454.90864,0.04113
3452.84847,0.04142
3450.78830,0.04182
3448.72812,0.04224
3446.66795,0.04254
3444.60778,0.04289
3442.54761,0.04337
3440.48744,0.04412
3438.42726,0.04497
3436.36709,0.04557
3434.30692,0.04578
3432.24675,0.04581
3430.18657,0.04601
3428.12640,0.04652
3426.06623,0.04723
3424.00606,0.04785
3421.94589,0.04803
3419.88571,0.04799
3417.82554,0.04837
3415.76537,0.04897
3413.70520,0.04945
3411.64503,0.04986
3409.58485,0.05029
3407.52468,0.05077
3405.46451,0.05120
3403.40434,0.05161
3401.34416,0.05194
3399.28399,0.05205
3397.22382,0.05224
3395.16365,0.05271
3393.10348,0.05319
3391.04330,0.05348
3388.98313,0.05366
3386.92296,0.05378
3384.86279,0.05400
3382.80262,0.05435
3380.74244,0.05460
3378.68227,0.05478
3376.62210,0.05510
3374.56193,0.05552
3372.50176,0.05590
3370.44158,0.05601
3368.38141,0.05600
3366.32124,0.05628
3364.26107,0.05682
3362.20089,0.05705
3360.14072,0.05686
3358.08055,0.05696
3356.02038,0.05740
3353.96021,0.05775
3351.90003,0.05818
3349.83986,0.05861
3347.77969,0.05880
3345.71952,0.05889
3343.65935,0.05883
3341.59917,0.05883
3339.53900,0.05921
3337.47883,0.05971
3335.41866,0.05989
3333.35849,0.05981
3331.29831,0.05977
3329.23814,0.05988
3327.17797,0.05997
3325.11780,0.06006
3323.05762,0.06016
3320.99745,0.06014
3318.93728,0.06017
3316.87711,0.06046
3314.81694,0.06085
3312.75676,0.06110
3310.69659,0.06117
3308.63642,0.06109
3306.57625,0.06093
3304.51608,0.06098
3302.45590,0.06124
3300.39573,0.06136
3298.33556,0.06139
3296.27539,0.06163
3294.21521,0.06191
3292.15504,0.06194
3290.09487,0.06184
3288.03470,0.06186
3285.97453,0.06190
3283.91435,0.06189
3281.85418,0.06198
3279.79401,0.06208
3277.73384,0.06197
3275.67367,0.06186
3273.61349,0.06197
3271.55332,0.06216
3269.49315,0.06224
3267.43298,0.06220
3265.37281,0.06207
3263.31263,0.06192
3261.25246,0.06183
3259.19229,0.06169
3257.13212,0.06154
3255.07194,0.06151
3253.01177,0.06144
3250.95160,0.06135
3248.89143,0.06132
3246.83126,0.06110
3244.77108,0.06078
3242.71091,0.06057
3240.65074,0.06024
3238.59057,0.05980
3236.53040,0.05954
3234.47022,0.05943
3232.41005,0.05933
3230.34988,0.05927
3228.28971,0.05916
3226.22954,0.05900
3224.16936,0.05892
3222.10919,0.05880
3220.04902,0.05870
3217.98885,0.05870
3215.92867,0.05858
3213.86850,0.05823
3211.80833,0.05796
3209.74816,0.05792
3207.68799,0.05784
3205.62781,0.05752
3203.56764,0.05726
3201.50747,0.05726
3199.44730,0.05724
3197.38713,0.05705
3195.32695,0.05678
3193.26678,0.05631
3191.20661,0.05577
3189.14644,0.05558
3187.08626,0.05567
3185.02609,0.05547
3182.96592,0.05500
3180.90575,0.05475
3178.84558,0.05486
3176.78540,0.05482
3174.72523,0.05442
3172.66506,0.05402
3170.60489,0.05383
3168.54472,0.05360
3166.48454,0.05318
3164.42437,0.05277
3162.36420,0.05262
3160.30403,0.05254
3158.24386,0.05230
3156.18368,0.05201
3154.12351,0.05167
3152.06334,0.05117
3150.00317,0.05077
3147.94299,0.05067
3145.88282,0.05057
3143.82265,0.05024
3141.76248,0.04974
3139.70231,0.04911
3137.64213,0.04858
3135.58196,0.04830
3133.52179,0.04814
3131.46162,0.04798
3129.40145,0.04778
3127.34127,0.04768
3125.28110,0.04771
3123.22093,0.04763
3121.16076,0.04728
3119.10058,0.04681
3117.04041,0.04638
3114.98024,0.04598
3112.92007,0.04567
3110.85990,0.04547
3108.79972,0.04522
3106.73955,0.04494
3104.67938,0.04471
3102.61921,0.04441
3100.55904,0.04407
3098.49886,0.04393
3096.43869,0.04377
3094.37852,0.04352
3092.31835,0.04335
3090.25818,0.04305
3088.19800,0.04259
3086.13783,0.04235
3084.07766,0.04239
3082.01749,0.04245
3079.95731,0.04235
3077.89714,0.04205
3075.83697,0.04162
3073.77680,0.04117
3071.71663,0.04083
3069.65645,0.04052
3067.59628,0.04011
3065.53611,0.03984
3063.47594,0.03982
3061.41577,0.03974
3059.35559,0.03949
3057.29542,0.03923
3055.23525,0.03898
3053.17508,0.03872
3051.11491,0.03840
3049.05473,0.03809
3046.99456,0.03788
3044.93439,0.03770
3042.87422,0.03734
3040.81404,0.03681
3038.75387,0.03636
3036.69370,0.03617
3034.63353,0.03609
3032.57336,0.03587
3030.51318,0.03548
3028.45301,0.03520
3026.39284,0.03516
3024.33267,0.03505
3022.27250,0.03465
3020.21232,0.03430
3018.15215,0.03415
3016.09198,0.03394
3014.03181,0.03364
3011.97163,0.03335
3009.91146,0.03316
3007.85129,0.03301
3005.79112,0.03280
3003.73095,0.03258
3001.67077,0.03240
2999.61060,0.03223
2997.55043,0.03210
2995.49026,0.03213
2993.43009,0.03219
2991.36991,0.03200
2989.30974,0.03183
2987.24957,0.03209
2985.18940,0.03253
2983.12923,0.03284
2981.06905,0.03307
2979.00888,0.03337
2976.94871,0.03386
2974.88854,0.03458
2972.82836,0.03545
2970.76819,0.03647
2968.70802,0.03754
2966.64785,0.03852
2964.58768,0.03944
2962.52750,0.04043
2960.46733,0.04160
2958.40716,0.04298
2956.34699,0.04438
2954.28682,0.04556
2952.22664,0.04665
2950.16647,0.04785
2948.10630,0.04917
2946.04613,0.05073
2943.98596,0.05266
2941.92578,0.05489
2939.86561,0.05733
2937.80544,0.05992
2935.74527,0.06259
2933.68509,0.06527
2931.62492,0.06798
2929.56475,0.07076
2927.50458,0.07343
2925.44441,0.07588
2923.38423,0.07830
2921.32406,0.08074
2919.26389,0.08278
2917.20372,0.08330
2915.14355,0.08113
2913.08337,0.07655
2911.02320,0.07139
2908.96303,0.06709
2906.90286,0.06384
2904.84268,0.06132
2902.78251,0.05936
2900.72234,0.05779
2898.66217,0.05643
2896.60200,0.05518
2894.54182,0.05389
2892.48165,0.05260
2890.42148,0.05135
2888.36131,0.05007
2886.30114,0.04891
2884.24096,0.04783
2882.18079,0.04683
2880.12062,0.04616
2878.06045,0.04594
2876.00028,0.04589
2873.94010,0.04581
2871.87993,0.04585
2869.81976,0.04616
2867.75959,0.04681
2865.69941,0.04777
2863.63924,0.04904
2861.57907,0.05080
2859.51890,0.05308
2857.45873,0.05571
2855.39855,0.05864
2853.33838,0.06176
2851.27821,0.06462
2849.21804,0.06556
2847.15787,0.06267
2845.09769,0.05672
2843.03752,0.05051
2840.97735,0.04570
2838.91718,0.04235
2836.85700,0.04008
2834.79683,0.03843
2832.73666,0.03712
2830.67649,0.03608
2828.61632,0.03520
2826.55614,0.03434
2824.49597,0.03369
2822.43580,0.03329
2820.37563,0.03284
2818.31546,0.03224
2816.25528,0.03170
2814.19511,0.03124
2812.13494,0.03073
2810.07477,0.03026
2808.01460,0.02989
2805.95442,0.02963
2803.89425,0.02934
2801.83408,0.02901
2799.77391,0.02879
2797.71373,0.02864
2795.65356,0.02843
2793.59339,0.02819
2791.53322,0.02797
2789.47305,0.02776
2787.41287,0.02752
2785.35270,0.02723
2783.29253,0.02697
2781.23236,0.02691
2779.17219,0.02696
2777.11201,0.02697
2775.05184,0.02680
2772.99167,0.02652
2770.93150,0.02629
2768.87133,0.02611
2766.81115,0.02592
2764.75098,0.02577
2762.69081,0.02571
2760.63064,0.02569
2758.57046,0.02560
2756.51029,0.02546
2754.45012,0.02538
2752.38995,0.02525
2750.32978,0.02517
2748.26960,0.02530
2746.20943,0.02534
2744.14926,0.02509
2742.08909,0.02484
2740.02892,0.02478
2737.96874,0.02480
2735.90857,0.02486
2733.84840,0.02487
2731.78823,0.02467
2729.72805,0.02444
2727.66788,0.02443
2725.60771,0.02443
2723.54754,0.02429
2721.48737,0.02412
2719.42719,0.02397
2717.36702,0.02392
2715.30685,0.02399
2713.24668,0.02396
2711.18651,0.02380
2709.12633,0.02368
2707.06616,0.02360
2705.00599,0.02340
2702.94582,0.02321
2700.88565,0.02310
2698.82547,0.02292
2696.76530,0.02289
2694.70513,0.02306
2692.64496,0.02312
2690.58478,0.02304
2688.52461,0.02291
2686.46444,0.02274
2684.40427,0.02258
2682.34410,0.02252
2680.28392,0.02249
2678.22375,0.02241
2676.16358,0.02223
2674.10341,0.02203
2672.04324,0.02195
2669.98306,0.02187
2667.92289,0.02179
2665.86272,0.02179
2663.80255,0.02167
2661.74238,0.02141
2659.68220,0.02132
2657.62203,0.02146
2655.56186,0.02160
2653.50169,0.02154
2651.44151,0.02124
2649.38134,0.02091
2647.32117,0.02074
2645.26100,0.02062
2643.20083,0.02050
2641.14065,0.02048
2639.08048,0.02047
2637.02031,0.02036
2634.96014,0.02019
2632.89997,0.02009
2630.83979,0.01990
2628.77962,0.01945
2626.71945,0.01909
2624.65928,0.01910
2622.59910,0.01918
2620.53893,0.01899
2618.47876,0.01867
2616.41859,0.01855
2614.35842,0.01862
2612.29824,0.01859
2610.23807,0.01847
2608.17790,0.01837
2606.11773,0.01825
2604.05756,0.01812
2601.99738,0.01785
2599.93721,0.01753
2597.87704,0.01749
2595.81687,0.01755
2593.75670,0.01746
2591.69652,0.01732
2589.63635,0.01723
2587.57618,0.01715
2585.51601,0.01712
2583.45583,0.01724
2581.39566,0.01739
2579.33549,0.01742
2577.27532,0.01728
2575.21515,0.01701
2573.15497,0.01669
2571.09480,0.01642
2569.03463,0.01629
2566.97446,0.01623
2564.91429,0.01619
2562.85411,0.01614
2560.79394,0.01598
2558.73377,0.01578
2556.67360,0.01570
2554.61342,0.01566
2552.55325,0.01559
2550.49308,0.01566
2548.43291,0.01582
2546.37274,0.01565
2544.31256,0.01510
2542.25239,0.01458
2540.19222,0.01436
2538.13205,0.01441
2536.07188,0.01463
2534.01170,0.01490
2531.95153,0.01507
2529.89136,0.01496
2527.83119,0.01465
2525.77102,0.01442
2523.71084,0.01443
2521.65067,0.01460
2519.59050,0.01462
2517.53033,0.01434
2515.47015,0.01390
2513.40998,0.01352
2511.34981,0.01347
2509.28964,0.01356
2507.22947,0.01347
2505.16929,0.01336
2503.10912,0.01344
2501.04895,0.01371
2498.98878,0.01390
2496.92861,0.01392
2494.86843,0.01403
2492.80826,0.01403
2490.74809,0.01372
2488.68792,0.01350
2486.62775,0.01332
2484.56757,0.01296
2482.50740,0.01273
2480.44723,0.01276
2478.38706,0.01279
2476.32688,0.01281
2474.26671,0.01283
2472.20654,0.01280
2470.14637,0.01283
2468.08620,0.01284
2466.02602,0.01259
2463.96585,0.01221
2461.90568,0.01201
2459.84551,0.01205
2457.78534,0.01222
2455.72516,0.01227
2453.66499,0.01226
2451.60482,0.01235
2449.54465,0.01217
2447.48447,0.01170
2445.42430,0.01153
2443.36413,0.01173
2441.30396,0.01184
2439.24379,0.01147
2437.18361,0.01098
2435.12344,0.01100
2433.06327,0.01125
2431.00310,0.01116
2428.94293,0.01083
2426.88275,0.01068
2424.82258,0.01077
2422.76241,0.01089
2420.70224,0.01103
2418.64207,0.01125
2416.58189,0.01131
2414.52172,0.01110
2412.46155,0.01079
2410.40138,0.01059
2408.34120,0.01071
2406.28103,0.01101
2404.22086,0.01110
2402.16069,0.01082
2400.10052,0.01027
2398.04034,0.00994
2395.98017,0.01005
2393.92000,0.01025
2391.85983,0.01020
2389.79966,0.00994
2387.73948,0.00970
2385.67931,0.00966
2383.61914,0.00990
2381.55897,0.01021
2379.49880,0.01034
2377.43862,0.01054
2375.37845,0.01087
2373.31828,0.01064
2371.25811,0.00975
2369.19793,0.00900
2367.13776,0.00866
2365.07759,0.00824
2363.01742,0.00726
2360.95725,0.00621
2358.89707,0.00610
2356.83690,0.00746
2354.77673,0.00931
2352.71656,0.01046
2350.65639,0.01107
2348.59621,0.01143
2346.53604,0.01165
2344.47587,0.01190
2342.41570,0.01197
2340.35552,0.01168
2338.29535,0.01128
2336.23518,0.01051
2334.17501,0.00925
2332.11484,0.00846
2330.05466,0.00873
2327.99449,0.00968
2325.93432,0.01091
2323.87415,0.01163
2321.81398,0.01111
2319.75380,0.01003
2317.69363,0.00950
2315.63346,0.00941
2313.57329,0.00930
2311.51312,0.00919
2309.45294,0.00923
2307.39277,0.00937
2305.33260,0.00951
2303.27243,0.00961
2301.21225,0.00962
2299.15208,0.00947
2297.09191,0.00925
2295.03174,0.00905
2292.97157,0.00893
2290.91139,0.00911
2288.85122,0.00947
2286.79105,0.00949
2284.73088,0.00899
2282.67071,0.00852
2280.61053,0.00858
2278.55036,0.00887
2276.49019,0.00888
2274.43002,0.00869
2272.36984,0.00859
2270.30967,0.00837
2268.24950,0.00801
2266.18933,0.00807
2264.12916,0.00839
2262.06898,0.00840
2260.00881,0.00815
2257.94864,0.00777
2255.88847,0.00735
2253.82830,0.00700
2251.76812,0.00679
2249.70795,0.00690
2247.64778,0.00721
2245.58761,0.00731
2243.52744,0.00741
2241.46726,0.00765
2239.40709,0.00760
2237.34692,0.00725
2235.28675,0.00691
2233.22657,0.00654
2231.16640,0.00643
2229.10623,0.00647
2227.04606,0.00642
2224.98589,0.00649
2222.92571,0.00636
2220.86554,0.00600
2218.80537,0.00588
2216.74520,0.00614
2214.68503,0.00674
2212.62485,0.00754
2210.56468,0.00835
2208.50451,0.00841
2206.44434,0.00728
2204.38417,0.00614
2202.32399,0.00589
2200.26382,0.00584
2198.20365,0.00548
2196.14348,0.00548
2194.08330,0.00616
2192.02313,0.00650
2189.96296,0.00604
2187.90279,0.00556
2185.84262,0.00567
2183.78244,0.00567
2181.72227,0.00488
2179.66210,0.00404
2177.60193,0.00364
2175.54176,0.00345
2173.48158,0.00386
2171.42141,0.00503
2169.36124,0.00617
2167.30107,0.00671
2165.24089,0.00654
2163.18072,0.00598
2161.12055,0.00504
2159.06038,0.00311
2157.00021,0.00219
2154.94003,0.00368
2152.87986,0.00536
2150.81969,0.00550
2148.75952,0.00473
2146.69935,0.00460
2144.63917,0.00478
2142.57900,0.00478
2140.51883,0.00503
2138.45866,0.00524
2136.39849,0.00533
2134.33831,0.00547
2132.27814,0.00560
2130.21797,0.00559
2128.15780,0.00557
2126.09762,0.00578
2124.03745,0.00575
2121.97728,0.00541
2119.91711,0.00512
2117.85694,0.00508
2115.79676,0.00537
2113.73659,0.00568
2111.67642,0.00578
2109.61625,0.00581
2107.55608,0.00602
2105.49590,0.00651
2103.43573,0.00684
2101.37556,0.00680
2099.31539,0.00657
2097.25521,0.00621
2095.19504,0.00603
2093.13487,0.00634
2091.07470,0.00634
2089.01453,0.00548
2086.95435,0.00489
2084.89418,0.00538
2082.83401,0.00615
2080.77384,0.00662
2078.71367,0.00664
2076.65349,0.00606
2074.59332,0.00586
2072.53315,0.00668
2070.47298,0.00723
2068.41281,0.00661
2066.35263,0.00601
2064.29246,0.00616
2062.23229,0.00622
2060.17212,0.00605
2058.11194,0.00621
2056.05177,0.00640
2053.99160,0.00618
2051.93143,0.00533
2049.87126,0.00422
2047.81108,0.00404
2045.75091,0.00476
2043.69074,0.00543
2041.63057,0.00531
2039.57040,0.00478
2037.51022,0.00494
2035.45005,0.00525
2033.38988,0.00500
2031.32971,0.00483
2029.26954,0.00516
2027.20936,0.00580
2025.14919,0.00581
2023.08902,0.00480
2021.02885,0.00394
2018.96867,0.00342
2016.90850,0.00244
2014.84833,0.00196
2012.78816,0.00291
2010.72799,0.00398
2008.66781,0.00370
2006.60764,0.00306
2004.54747,0.00333
2002.48730,0.00341
2000.42713,0.00273
1998.36695,0.00239
1996.30678,0.00289
1994.24661,0.00349
1992.18644,0.00396
1990.12626,0.00484
1988.06609,0.00564
1986.00592,0.00559
1983.94575,0.00552
1981.88558,0.00552
1979.82540,0.00457
1977.76523,0.00342
1975.70506,0.00298
1973.64489,0.00293
1971.58472,0.00302
1969.52454,0.00329
1967.46437,0.00367
1965.40420,0.00372
1963.34403,0.00333
1961.28386,0.00267
1959.22368,0.00237
1957.16351,0.00307
1955.10334,0.00406
1953.04317,0.00423
1950.98299,0.00400
1948.92282,0.00416
1946.86265,0.00422
1944.80248,0.00380
1942.74231,0.00357
1940.68213,0.00406
1938.62196,0.00478
1936.56179,0.00503
1934.50162,0.00475
1932.44145,0.00424
1930.38127,0.00370
1928.32110,0.00349
1926.26093,0.00376
1924.20076,0.00384
1922.14059,0.00336
1920.08041,0.00290
1918.02024,0.00287
1915.96007,0.00315
1913.89990,0.00347
1911.83972,0.00370
1909.77955,0.00375
1907.71938,0.00368
1905.65921,0.00373
1903.59904,0.00377
1901.53886,0.00356
1899.47869,0.00328
1897.41852,0.00330
1895.35835,0.00368
1893.29818,0.00404
1891.23800,0.00408
1889.17783,0.00403
1887.11766,0.00397
1885.05749,0.00364
1882.99731,0.00331
1880.93714,0.00343
1878.87697,0.00370
1876.81680,0.00362
1874.75663,0.00325
1872.69645,0.00290
1870.63628,0.00272
1868.57611,0.00280
1866.51594,0.00311
1864.45577,0.00331
1862.39559,0.00320
1860.33542,0.00293
1858.27525,0.00277
1856.21508,0.00270
1854.15491,0.00266
1852.09473,0.00265
1850.03456,0.00271
1847.97439,0.00272
1845.91422,0.00246
1843.85404,0.00214
1841.79387,0.00222
1839.73370,0.00256
1837.67353,0.00282
1835.61336,0.00294
1833.55318,0.00292
1831.49301,0.00278
1829.43284,0.00251
1827.37267,0.00227
1825.31250,0.00231
1823.25232,0.00247
1821.19215,0.00241
1819.13198,0.00222
1817.07181,0.00216
1815.01163,0.00223
1812.95146,0.00245
1810.89129,0.00264
1808.83112,0.00264
1806.77095,0.00251
1804.71077,0.00237
1802.65060,0.00220
1800.59043,0.00195
1798.53026,0.00173
1796.47009,0.00167
1794.40991,0.00178
1792.34974,0.00194
1790.28957,0.00202
1788.22940,0.00203
1786.16923,0.00202
1784.10905,0.00207
1782.04888,0.00220
1779.98871,0.00219
1777.92854,0.00208
1775.86836,0.00194
1773.80819,0.00186
1771.74802,0.00199
1769.68785,0.00238
1767.62768,0.00281
1765.56750,0.00316
1763.50733,0.00359
1761.44716,0.00433
1759.38699,0.00535
1757.32682,0.00657
1755.26664,0.00781
1753.20647,0.00900
1751.14630,0.01050
1749.08613,0.01257
1747.02596,0.01508
1744.96578,0.01802
1742.90561,0.02167
1740.84544,0.02610
1738.78527,0.03083
1736.72509,0.03503
1734.66492,0.03872
1732.60475,0.04164
1730.54458,0.04303
1728.48441,0.04340
1726.42423,0.04342
1724.36406,0.04325
1722.30389,0.04297
1720.24372,0.04273
1718.18355,0.04248
1716.12337,0.04223
1714.06320,0.04215
1712.00303,0.04208
1709.94286,0.04179
1707.88268,0.04124
1705.82251,0.04057
1703.76234,0.03990
1701.70217,0.03896
1699.64200,0.03743
1697.58182,0.03592
1695.52165,0.03494
1693.46148,0.03448
1691.40131,0.03433
1689.34114,0.03429
1687.28096,0.03426
1685.22079,0.03391
1683.16062,0.03318
1681.10045,0.03289
1679.04028,0.03314
1676.98010,0.03339
1674.91993,0.03363
1672.85976,0.03420
1670.79959,0.03492
1668.73941,0.03557
1666.67924,0.03640
1664.61907,0.03749
1662.55890,0.03878
1660.49873,0.04025
1658.43855,0.04176
1656.37838,0.04319
1654.31821,0.04438
1652.25804,0.04516
1650.19787,0.04565
1648.13769,0.04590
1646.07752,0.04575
1644.01735,0.04569
1641.95718,0.04607
1639.89701,0.04673
1637.83683,0.04735
1635.77666,0.04767
1633.71649,0.04789
1631.65632,0.04844
1629.59614,0.04921
1627.53597,0.04997
1625.47580,0.05061
1623.41563,0.05115
1621.35546,0.05177
1619.29528,0.05253
1617.23511,0.05323
1615.17494,0.05390
1613.11477,0.05480
1611.05460,0.05576
1608.99442,0.05644
1606.93425,0.05671
1604.87408,0.05663
1602.81391,0.05609
1600.75373,0.05500
1598.69356,0.05356
1596.63339,0.05196
1594.57322,0.05017
1592.51305,0.04823
1590.45287,0.04619
1588.39270,0.04414
1586.33253,0.04214
1584.27236,0.04023
1582.21219,0.03847
1580.15201,0.03702
1578.09184,0.03554
1576.03167,0.03349
1573.97150,0.03155
1571.91133,0.03020
1569.85115,0.02885
1567.79098,0.02768
1565.73081,0.02711
1563.67064,0.02688
1561.61046,0.02674
1559.55029,0.02629
1557.49012,0.02571
1555.42995,0.02580
1553.36978,0.02628
1551.30960,0.02670
1549.24943,0.02693
1547.18926,0.02701
1545.12909,0.02706
1543.06892,0.02706
1541.00874,0.02686
1538.94857,0.02657
1536.88840,0.02650
1534.82823,0.02622
1532.76805,0.02544
1530.70788,0.02472
1528.64771,0.02426
1526.58754,0.02370
1524.52737,0.02295
1522.46719,0.02214
1520.40702,0.02163
1518.34685,0.02176
1516.28668,0.02214
1514.22651,0.02221
1512.16633,0.02180
1510.10616,0.02085
1508.04599,0.01891
1505.98582,0.01627
1503.92565,0.01469
1501.86547,0.01391
1499.80530,0.01292
1497.74513,0.01150
1495.68496,0.01005
1493.62478,0.00907
1491.56461,0.00827
1489.50444,0.00721
1487.44427,0.00624
1485.38410,0.00583
1483.32392,0.00589
1481.26375,0.00626
1479.20358,0.00698
1477.14341,0.00833
1475.08324,0.01065
1473.02306,0.01387
1470.96289,0.01710
1468.90272,0.01981
1466.84255,0.02248
1464.78238,0.02531
1462.72220,0.02754
1460.66203,0.02880
1458.60186,0.02977
1456.54169,0.03111
1454.48151,0.03261
1452.42134,0.03395
1450.36117,0.03516
1448.30100,0.03626
1446.24083,0.03719
1444.18065,0.03780
1442.12048,0.03798
1440.06031,0.03765
1438.00014,0.03647
1435.93997,0.03442
1433.87979,0.03258
1431.81962,0.03122
1429.75945,0.02984
1427.69928,0.02863
1425.63910,0.02788
1423.57893,0.02747
1421.51876,0.02735
1419.45859,0.02737
1417.39842,0.02730
1415.33824,0.02722
1413.27807,0.02711
1411.21790,0.02691
1409.15773,0.02666
1407.09756,0.02643
1405.03738,0.02622
1402.97721,0.02615
1400.91704,0.02621
1398.85687,0.02629
1396.79670,0.02642
1394.73652,0.02672
1392.67635,0.02729
1390.61618,0.02798
1388.55601,0.02860
1386.49583,0.02916
1384.43566,0.02983
1382.37549,0.03071
1380.31532,0.03183
1378.25515,0.03309
1376.19497,0.03419
1374.13480,0.03500
1372.07463,0.03569
1370.01446,0.03632
1367.95429,0.03686
1365.89411,0.03726
1363.83394,0.03742
1361.77377,0.03741
1359.71360,0.03753
1357.65343,0.03782
1355.59325,0.03818
1353.53308,0.03862
1351.47291,0.03915
1349.41274,0.03965
1347.35256,0.04010
1345.29239,0.04054
1343.23222,0.04098
1341.17205,0.04135
1339.11188,0.04161
1337.05170,0.04189
1334.99153,0.04240
1332.93136,0.04314
1330.87119,0.04391
1328.81102,0.04462
1326.75084,0.04533
1324.69067,0.04606
1322.63050,0.04676
1320.57033,0.04737
1318.51015,0.04779
1316.44998,0.04784
1314.38981,0.04749
1312.32964,0.04686
1310.26947,0.04601
1308.20929,0.04482
1306.14912,0.04328
1304.08895,0.04158
1302.02878,0.03975
1299.96861,0.03775
1297.90843,0.03567
1295.84826,0.03365
1293.78809,0.03190
1291.72792,0.03056
1289.66775,0.02956
1287.60757,0.02878
1285.54740,0.02818
1283.48723,0.02774
1281.42706,0.02743
1279.36688,0.02727
1277.30671,0.02730
1275.24654,0.02749
1273.18637,0.02782
1271.12620,0.02838
1269.06602,0.02908
1267.00585,0.02982
1264.94568,0.03063
1262.88551,0.03146
1260.82534,0.03214
1258.76516,0.03270
1256.70499,0.03329
1254.64482,0.03400
1252.58465,0.03481
1250.52447,0.03567
1248.46430,0.03661
1246.40413,0.03759
1244.34396,0.03852
1242.28379,0.03939
1240.22361,0.04009
1238.16344,0.04084
1236.10327,0.04180
1234.04310,0.04269
1231.98293,0.04344
1229.92275,0.04429
1227.86258,0.04518
1225.80241,0.04596
1223.74224,0.04675
1221.68207,0.04767
1219.62189,0.04855
1217.56172,0.04921
1215.50155,0.04985
1213.44138,0.05067
1211.38120,0.05147
1209.32103,0.05222
1207.26086,0.05326
1205.20069,0.05445
1203.14052,0.05544
1201.08034,0.05633
1199.02017,0.05711
1196.96000,0.05761
1194.89983,0.05768
1192.83966,0.05730
1190.77948,0.05666
1188.71931,0.05592
1186.65914,0.05507
1184.59897,0.05424
1182.53880,0.05353
1180.47862,0.05288
1178.41845,0.05227
1176.35828,0.05181
1174.29811,0.05162
1172.23793,0.05175
1170.17776,0.05198
1168.11759,0.05191
1166.05742,0.05141
1163.99725,0.05072
1161.93707,0.04995
1159.87690,0.04907
1157.81673,0.04817
1155.75656,0.04718
1153.69639,0.04605
1151.63621,0.04503
1149.57604,0.04424
1147.51587,0.04348
1145.45570,0.04259
1143.39552,0.04152
1141.33535,0.04036
1139.27518,0.03921
1137.21501,0.03815
1135.15484,0.03744
1133.09466,0.03729
1131.03449,0.03741
1128.97432,0.03769
1126.91415,0.03836
1124.85398,0.03950
1122.79380,0.04103
1120.73363,0.04279
1118.67346,0.04473
1116.61329,0.04705
1114.55312,0.04979
1112.49294,0.05263
1110.43277,0.05548
1108.37260,0.05847
1106.31243,0.06157
1104.25225,0.06442
1102.19208,0.06674
1100.13191,0.06847
1098.07174,0.06990
1096.01157,0.07136
1093.95139,0.07288
1091.89122,0.07446
1089.83105,0.07615
1087.77088,0.07806
1085.71071,0.08026
1083.65053,0.08265
1081.59036,0.08489
1079.53019,0.08695
1077.47002,0.08903
1075.40985,0.09105
1073.34967,0.09260
1071.28950,0.09362
1069.22933,0.09465
1067.16916,0.09606
1065.10898,0.09730
1063.04881,0.09829
1060.98864,0.09967
1058.92847,0.10119
1056.86830,0.10242
1054.80812,0.10361
1052.74795,0.10503
1050.68778,0.10667
1048.62761,0.10850
1046.56744,0.11046
1044.50726,0.11236
1042.44709,0.11426
1040.38692,0.11638
1038.32675,0.11842
1036.26657,0.12038
1034.20640,0.12259
1032.14623,0.12477
1030.08606,0.12652
1028.02589,0.12787
1025.96571,0.12873
1023.90554,0.12904
1021.84537,0.12920
1019.78520,0.12936
1017.72503,0.12915
1015.66485,0.12837
1013.60468,0.12731
1011.54451,0.12613
1009.48434,0.12445
1007.42417,0.12204
1005.36399,0.11913
1003.30382,0.11603
1001.24365,0.11302
999.18348,0.11002
997.12330,0.10701
995.06313,0.10419
993.00296,0.10166
990.94279,0.09904
988.88262,0.09591
986.82244,0.09233
984.76227,0.08874
982.70210,0.08536
980.64193,0.08211
978.58176,0.07877
976.52158,0.07542
974.46141,0.07233
972.40124,0.06950
970.34107,0.06695
968.28089,0.06483
966.22072,0.06296
964.16055,0.06106
962.10038,0.05909
960.04021,0.05694
957.98003,0.05457
955.91986,0.05210
953.85969,0.04952
951.79952,0.04685
949.73935,0.04424
947.67917,0.04177
945.61900,0.03956
943.55883,0.03761
941.49866,0.03579
939.43849,0.03399
937.37831,0.03235
935.31814,0.03123
933.25797,0.03069
931.19780,0.03026
929.13762,0.02957
927.07745,0.02874
925.01728,0.02784
922.95711,0.02690
920.89694,0.02598
918.83676,0.02485
916.77659,0.02329
914.71642,0.02163
912.65625,0.02020
910.59608,0.01884
908.53590,0.01757
906.47573,0.01657
904.41556,0.01598
902.35539,0.01567
900.29522,0.01533
898.23504,0.01501
896.17487,0.01480
894.11470,0.01456
892.05453,0.01406
889.99435,0.01327
887.93418,0.01268
885.87401,0.01244
883.81384,0.01231
881.75367,0.01232
879.69349,0.01254
877.63332,0.01306
875.57315,0.01382
873.51298,0.01454
871.45281,0.01493
869.39263,0.01475
867.33246,0.01404
865.27229,0.01296
863.21212,0.01152
861.15194,0.00970
859.09177,0.00793
857.03160,0.00664
854.97143,0.00581
852.91126,0.00522
850.85108,0.00437
848.79091,0.00345
846.73074,0.00315
844.67057,0.00326
842.61040,0.00341
840.55022,0.00370
838.49005,0.00418
836.42988,0.00480
834.36971,0.00551
832.30954,0.00608
830.24936,0.00614
828.18919,0.00562
826.12902,0.00541
824.06885,0.00618
822.00867,0.00735
819.94850,0.00803
817.88833,0.00797
815.82816,0.00750
813.76799,0.00713
811.70781,0.00698
809.64764,0.00687
807.58747,0.00656
805.52730,0.00593
803.46713,0.00503
801.40695,0.00389
799.34678,0.00320
797.28661,0.00277
795.22644,0.00221
793.16627,0.00147
791.10609,0.00141
789.04592,0.00219
786.98575,0.00319
784.92558,0.00401
782.86540,0.00454
780.80523,0.00512
778.74506,0.00582
776.68489,0.00592
774.62472,0.00561
772.56454,0.00603
770.50437,0.00737
768.44420,0.00895
766.38403,0.01048
764.32386,0.01204
762.26368,0.01362
760.20351,0.01505
758.14334,0.01596
756.08317,0.01609
754.02299,0.01541
751.96282,0.01424
749.90265,0.01268
747.84248,0.01098
745.78231,0.00985
743.72213,0.00894
741.66196,0.00776
739.60179,0.00697
737.54162,0.00671
735.48145,0.00675
733.42127,0.00707
731.36110,0.00749
729.30093,0.00778
727.24076,0.00797
725.18059,0.00802
723.12041,0.00820
721.06024,0.00863
719.00007,0.00881
716.93990,0.00820
714.87972,0.00710
712.81955,0.00633
710.75938,0.00609
708.69921,0.00586
706.63904,0.00551
704.57886,0.00552
702.51869,0.00584
700.45852,0.00578
698.39835,0.00532
696.33818,0.00467
694.27800,0.00376
692.21783,0.00309
690.15766,0.00287
688.09749,0.00243
686.03731,0.00176
683.97714,0.00119
681.91697,0.00112
679.85680,0.00208
677.79663,0.00343
675.73645,0.00389
673.67628,0.00385
671.61611,0.00456
669.55594,0.00551
667.49577,0.00479
665.43559,0.00321
663.37542,0.00312
661.31525,0.00391
659.25508,0.00399
657.19491,0.00355
655.13473,0.00328
653.07456,0.00347
651.01439,0.00440
648.95422,0.00496
646.89404,0.00422
644.83387,0.00335
642.77370,0.00287
640.71353,0.00244
638.65336,0.00206
636.59318,0.00220
634.53301,0.00239
632.47284,0.00221
630.41267,0.00178
628.35250,0.00166
626.29232,0.00260
624.23215,0.00361
622.17198,0.00401
620.11181,0.00490
618.05164,0.00567
615.99146,0.00519
613.93129,0.00460
611.87112,0.00392
609.81095,0.00233
607.75077,0.00160
605.69060,0.00188
603.63043,0.00045
601.57026,0.00000
599.51009,0.00000
