3996.73391,0.00054
3994.67373,0.00032
3992.61356,0.00012
3990.55339,0.00013
3988.49322,0.00016
3986.43305,0.00013
3984.37287,0.00014
3982.31270,0.00010
3980.25253,0.00000
3978.19236,0.00001
3976.13219,0.00024
3974.07201,0.00050
3972.01184,0.00061
3969.95167,0.00055
3967.89150,0.00046
3965.83133,0.00048
3963.77115,0.00055
3961.71098,0.00059
3959.65081,0.00070
3957.59064,0.00089
3955.53046,0.00091
3953.47029,0.00072
3951.41012,0.00054
3949.34995,0.00043
3947.28978,0.00038
3945.22960,0.00051
3943.16943,0.00076
3941.10926,0.00095
3939.04909,0.00102
3936.98892,0.00106
3934.92874,0.00113
3932.86857,0.00114
3930.80840,0.00102
3928.74823,0.00099
3926.68805,0.00121
3924.62788,0.00149
3922.56771,0.00164
3920.50754,0.00162
3918.44737,0.00146
3916.38719,0.00132
3914.32702,0.00123
3912.26685,0.00109
3910.20668,0.00095
3908.14651,0.00094
3906.08633,0.00091
3904.02616,0.00074
3901.96599,0.00062
3899.90582,0.00076
3897.84565,0.00114
3895.78547,0.00134
3893.72530,0.00118
3891.66513,0.00108
3889.60496,0.00133
3887.54478,0.00168
3885.48461,0.00181
3883.42444,0.00182
3881.36427,0.00189
3879.30410,0.00191
3877.24392,0.00184
3875.18375,0.00170
3873.12358,0.00139
3871.06341,0.00087
3869.00324,0.00039
3866.94306,0.00039
3864.88289,0.00083
3862.82272,0.00142
3860.76255,0.00183
3858.70237,0.00208
3856.64220,0.00224
3854.58203,0.00220
3852.52186,0.00199
3850.46169,0.00192
3848.40151,0.00203
3846.34134,0.00215
3844.28117,0.00218
3842.22100,0.00222
3840.16083,0.00214
3838.10065,0.00171
3836.04048,0.00127
3833.98031,0.00115
3831.92014,0.00114
3829.85997,0.00118
3827.79979,0.00152
3825.73962,0.00217
3823.67945,0.00249
3821.61928,0.00205
3819.55910,0.00149
3817.49893,0.00137
3815.43876,0.00136
3813.37859,0.00134
3811.31842,0.00141
3809.25824,0.00148
3807.19807,0.00147
3805.13790,0.00141
3803.07773,0.00138
3801.01756,0.00135
3798.95738,0.00139
3796.89721,0.00145
3794.83704,0.00140
3792.77687,0.00131
3790.71670,0.00126
3788.65652,0.00131
3786.59635,0.00141
3784.53618,0.00144
3782.47601,0.00152
3780.41583,0.00177
3778.35566,0.00202
3776.29549,0.00208
3774.23532,0.00192
3772.17515,0.00163
3770.11497,0.00151
3768.05480,0.00178
3765.99463,0.00213
3763.93446,0.00209
3761.87429,0.00176
3759.81411,0.00154
3757.75394,0.00148
3755.69377,0.00135
3753.63360,0.00113
3751.57342,0.00098
3749.51325,0.00100
3747.45308,0.00112
3745.39291,0.00113
3743.33274,0.00101
3741.27256,0.00099
3739.21239,0.00104
3737.15222,0.00111
3735.09205,0.00115
3733.03188,0.00109
3730.97170,0.00097
3728.91153,0.00086
3726.85136,0.00086
3724.79119,0.00097
3722.73102,0.00112
3720.67084,0.00125
3718.61067,0.00137
3716.55050,0.00144
3714.49033,0.00140
3712.43015,0.00116
3710.36998,0.00087
3708.30981,0.00090
3706.24964,0.00106
3704.18947,0.00100
3702.12929,0.00066
3700.06912,0.00041
3698.00895,0.00062
3695.94878,0.00117
3693.88861,0.00160
3691.82843,0.00153
3689.76826,0.00102
3687.70809,0.00070
3685.64792,0.00087
3683.58775,0.00114
3681.52757,0.00124
3679.46740,0.00125
3677.40723,0.00141
3675.34706,0.00172
3673.28688,0.00202
3671.22671,0.00201
3669.16654,0.00173
3667.10637,0.00175
3665.04620,0.00211
3662.98602,0.00238
3660.92585,0.00251
3658.86568,0.00260
3656.80551,0.00266
3654.74534,0.00281
3652.68516,0.00309
3650.62499,0.00347
3648.56482,0.00391
3646.50465,0.00420
3644.44447,0.00428
3642.38430,0.00437
3640.32413,0.00442
3638.26396,0.00446
3636.20379,0.00458
3634.14361,0.00473
3632.08344,0.00483
3630.02327,0.00503
3627.96310,0.00540
3625.90293,0.00584
3623.84275,0.00633
3621.78258,0.00665
3619.72241,0.00670
3617.66224,0.00665
3615.60207,0.00672
3613.54189,0.00689
3611.48172,0.00711
3609.42155,0.00749
3607.36138,0.00811
3605.30120,0.00886
3603.24103,0.00950
3601.18086,0.00973
3599.12069,0.00956
3597.06052,0.00945
3595.00034,0.00973
3592.94017,0.01043
3590.88000,0.01122
3588.81983,0.01167
3586.75966,0.01175
3584.69948,0.01176
3582.63931,0.01192
3580.57914,0.01227
3578.51897,0.01275
3576.45879,0.01344
3574.39862,0.01430
3572.33845,0.01496
3570.27828,0.01527
3568.21811,0.01551
3566.15793,0.01579
3564.09776,0.01603
3562.03759,0.01640
3559.97742,0.01704
3557.91725,0.01776
3555.85707,0.01827
3553.79690,0.01864
3551.73673,0.01911
3549.67656,0.01962
3547.61639,0.01995
3545.55621,0.02020
3543.49604,0.02067
3541.43587,0.02138
3539.37570,0.02214
3537.31552,0.02280
3535.25535,0.02324
3533.19518,0.02356
3531.13501,0.02396
3529.07484,0.02440
3527.01466,0.02464
3524.95449,0.02476
3522.89432,0.02519
3520.83415,0.02596
3518.77398,0.02677
3516.71380,0.02756
3514.65363,0.02818
3512.59346,0.02858
3510.53329,0.02896
3508.47312,0.02942
3506.41294,0.02988
3504.35277,0.03022
3502.29260,0.03042
3500.23243,0.03067
3498.17225,0.03117
3496.11208,0.03193
3494.05191,0.03263
3491.99174,0.03309
3489.93157,0.03348
3487.87139,0.03398
3485.81122,0.03445
3483.75105,0.03478
3481.69088,0.03514
3479.63071,0.03565
3477.57053,0.03614
3475.51036,0.03652
3473.45019,0.03682
3471.39002,0.03725
3469.32984,0.03804
3467.26967,0.03895
3465.20950,0.03959
3463.14933,0.04001
3461.08916,0.04042
3459.02898,0.04082
3456.96881,0.04109
3454.90864,0.04125
3452.84847,0.04163
3450.78830,0.04224
3448.72812,0.04277
3446.66795,0.04336
3444.60778,0.04420
3442.54761,0.04488
3440.48744,0.04514
3438.42726,0.04538
3436.36709,0.04599
3434.30692,0.04664
3432.24675,0.04701
3430.18657,0.04727
3428.12640,0.04750
3426.06623,0.04757
3424.00606,0.04769
3421.94589,0.04818
3419.88571,0.04875
3417.82554,0.04906
3415.76537,0.04937
3413.70520,0.04987
3411.64503,0.05025
3409.58485,0.05053
3407.52468,0.05086
3405.46451,0.05112
3403.40434,0.05144
3401.34416,0.05199
3399.28399,0.05247
3397.22382,0.05273
3395.16365,0.05320
3393.10348,0.05387
3391.04330,0.05432
3388.98313,0.05459
3386.92296,0.05493
3384.86279,0.05516
3382.80262,0.05510
3380.74244,0.05512
3378.68227,0.05548
3376.62210,0.05597
3374.56193,0.05636
3372.50176,0.05671
3370.44158,0.05703
3368.38141,0.05727
3366.32124,0.05747
3364.26107,0.05774
3362.20089,0.05807
3360.14072,0.05826
3358.08055,0.05837
3356.02038,0.05873
3353.96021,0.05923
3351.90003,0.05954
3349.83986,0.05972
3347.77969,0.06007
3345.71952,0.06057
3343.65935,0.06084
3341.59917,0.06072
3339.53900,0.06055
3337.47883,0.06068
3335.41866,0.06100
3333.35849,0.06119
3331.29831,0.06115
3329.23814,0.06111
3327.17797,0.06121
3325.11780,0.06133
3323.05762,0.06140
3320.99745,0.06157
3318.93728,0.06186
3316.87711,0.06210
3314.81694,0.06232
3312.75676,0.06251
3310.69659,0.06265
3308.63642,0.06278
3306.57625,0.06270
3304.51608,0.06249
3302.45590,0.06270
3300.39573,0.06319
3298.33556,0.06342
3296.27539,0.06359
3294.21521,0.06383
3292.15504,0.06391
3290.09487,0.06384
3288.03470,0.06381
3285.97453,0.06371
3283.91435,0.06368
3281.85418,0.06397
3279.79401,0.06420
3277.73384,0.06408
3275.67367,0.06393
3273.61349,0.06397
3271.55332,0.06407
3269.49315,0.06409
3267.43298,0.06401
3265.37281,0.06401
3263.31263,0.06412
3261.25246,0.06403
3259.19229,0.06368
3257.13212,0.06336
3255.07194,0.06328
3253.01177,0.06327
3250.95160,0.06310
3248.89143,0.06288
3246.83126,0.06261
3244.77108,0.06219
3242.71091,0.06190
3240.65074,0.06195
3238.59057,0.06199
3236.53040,0.06185
3234.47022,0.06156
3232.41005,0.06126
3230.34988,0.06096
3228.28971,0.06055
3226.22954,0.06023
3224.16936,0.06015
3222.10919,0.06015
3220.04902,0.06004
3217.98885,0.05980
3215.92867,0.05960
3213.86850,0.05964
3211.80833,0.05974
3209.74816,0.05954
3207.68799,0.05919
3205.62781,0.05906
3203.56764,0.05890
3201.50747,0.05860
3199.44730,0.05844
3197.38713,0.05830
3195.32695,0.05802
3193.26678,0.05779
3191.20661,0.05760
3189.14644,0.05733
3187.08626,0.05710
3185.02609,0.05691
3182.96592,0.05661
3180.90575,0.05620
3178.84558,0.05582
3176.78540,0.05563
3174.72523,0.05563
3172.66506,0.05553
3170.60489,0.05510
3168.54472,0.05451
3166.48454,0.05412
3164.42437,0.05403
3162.36420,0.05407
3160.30403,0.05393
3158.24386,0.05343
3156.18368,0.05287
3154.12351,0.05261
3152.06334,0.05236
3150.00317,0.05205
3147.94299,0.05191
3145.88282,0.05189
3143.82265,0.05168
3141.76248,0.05118
3139.70231,0.05068
3137.64213,0.05034
3135.58196,0.05000
3133.52179,0.04966
3131.46162,0.04942
3129.40145,0.04916
3127.34127,0.04877
3125.28110,0.04830
3123.22093,0.04801
3121.16076,0.04797
3119.10058,0.04785
3117.04041,0.04768
3114.98024,0.04747
3112.92007,0.04712
3110.85990,0.04691
3108.79972,0.04686
3106.73955,0.04657
3104.67938,0.04604
3102.61921,0.04561
3100.55904,0.04538
3098.49886,0.04515
3096.43869,0.04476
3094.37852,0.04431
3092.31835,0.04409
3090.25818,0.04405
3088.19800,0.04392
3086.13783,0.04376
3084.07766,0.04371
3082.01749,0.04365
3079.95731,0.04350
3077.89714,0.04324
3075.83697,0.04281
3073.77680,0.04243
3071.71663,0.04223
3069.65645,0.04201
3067.59628,0.04169
3065.53611,0.04132
3063.47594,0.04096
3061.41577,0.04065
3059.35559,0.04041
3057.29542,0.04020
3055.23525,0.03992
3053.17508,0.03946
3051.11491,0.03904
3049.05473,0.03878
3046.99456,0.03856
3044.93439,0.03828
3042.87422,0.03799
3040.81404,0.03772
3038.75387,0.03747
3036.69370,0.03729
3034.63353,0.03708
3032.57336,0.03684
3030.51318,0.03654
3028.45301,0.03614
3026.39284,0.03572
3024.33267,0.03540
3022.27250,0.03524
3020.21232,0.03517
3018.15215,0.03502
3016.09198,0.03483
3014.03181,0.03472
3011.97163,0.03456
3009.91146,0.03425
3007.85129,0.03386
3005.79112,0.03346
3003.73095,0.03314
3001.67077,0.03297
2999.61060,0.03291
2997.55043,0.03291
2995.49026,0.03285
2993.43009,0.03279
2991.36991,0.03275
2989.30974,0.03273
2987.24957,0.03286
2985.18940,0.03314
2983.12923,0.03348
2981.06905,0.03391
2979.00888,0.03435
2976.94871,0.03484
2974.88854,0.03536
2972.82836,0.03596
2970.76819,0.03684
2968.70802,0.03795
2966.64785,0.03910
2964.58768,0.04032
2962.52750,0.04159
2960.46733,0.04290
2958.40716,0.04420
2956.34699,0.04543
2954.28682,0.04672
2952.22664,0.04806
2950.16647,0.04948
2948.10630,0.05102
2946.04613,0.05267
2943.98596,0.05461
2941.92578,0.05694
2939.86561,0.05959
2937.80544,0.06251
2935.74527,0.06558
2933.68509,0.06862
2931.62492,0.07165
2929.56475,0.07459
2927.50458,0.07729
2925.44441,0.07985
2923.38423,0.08231
2921.32406,0.08464
2919.26389,0.08653
2917.20372,0.08683
2915.14355,0.08437
2913.08337,0.07965
2911.02320,0.07452
2908.96303,0.07026
2906.90286,0.06706
2904.84268,0.06473
2902.78251,0.06293
2900.72234,0.06115
2898.66217,0.05932
2896.60200,0.05780
2894.54182,0.05651
2892.48165,0.05519
2890.42148,0.05381
2888.36131,0.05247
2886.30114,0.05125
2884.24096,0.05025
2882.18079,0.04938
2880.12062,0.04856
2878.06045,0.04787
2876.00028,0.04750
2873.94010,0.04765
2871.87993,0.04808
2869.81976,0.04853
2867.75959,0.04922
2865.69941,0.05030
2863.63924,0.05183
2861.57907,0.05391
2859.51890,0.05645
2857.45873,0.05918
2855.39855,0.06209
2853.33838,0.06525
2851.27821,0.06815
2849.21804,0.06878
2847.15787,0.06535
2845.09769,0.05922
2843.03752,0.05320
2840.97735,0.04855
2838.91718,0.04518
2836.85700,0.04275
2834.79683,0.04098
2832.73666,0.03966
2830.67649,0.03851
2828.61632,0.03745
2826.55614,0.03651
2824.49597,0.03572
2822.43580,0.03512
2820.37563,0.03459
2818.31546,0.03402
2816.25528,0.03349
2814.19511,0.03304
2812.13494,0.03264
2810.07477,0.03232
2808.01460,0.03209
2805.95442,0.03192
2803.89425,0.03169
2801.83408,0.03137
2799.77391,0.03103
2797.71373,0.03072
2795.65356,0.03040
2793.59339,0.03003
2791.53322,0.02977
2789.47305,0.02969
2787.41287,0.02951
2785.35270,0.02916
2783.29253,0.02886
2781.23236,0.02862
2779.17219,0.02842
2777.11201,0.02831
2775.05184,0.02817
2772.99167,0.02786
2770.93150,0.02752
2768.87133,0.02736
2766.81115,0.02740
2764.75098,0.02745
2762.69081,0.02730
2760.63064,0.02706
2758.57046,0.02689
2756.51029,0.02676
2754.45012,0.02659
2752.38995,0.02643
2750.32978,0.02637
2748.26960,0.02641
2746.20943,0.02642
2744.14926,0.02635
2742.08909,0.02621
2740.02892,0.02600
2737.96874,0.02580
2735.90857,0.02569
2733.84840,0.02569
2731.78823,0.02579
2729.72805,0.02583
2727.66788,0.02583
2725.60771,0.02585
2723.54754,0.02566
2721.48737,0.02529
2719.42719,0.02512
2717.36702,0.02515
2715.30685,0.02514
2713.24668,0.02504
2711.18651,0.02489
2709.12633,0.02476
2707.06616,0.02470
2705.00599,0.02469
2702.94582,0.02465
2700.88565,0.02459
2698.82547,0.02456
2696.76530,0.02451
2694.70513,0.02439
2692.64496,0.02420
2690.58478,0.02401
2688.52461,0.02387
2686.46444,0.02372
2684.40427,0.02358
2682.34410,0.02354
2680.28392,0.02354
2678.22375,0.02358
2676.16358,0.02362
2674.10341,0.02344
2672.04324,0.02304
2669.98306,0.02273
2667.92289,0.02268
2665.86272,0.02268
2663.80255,0.02260
2661.74238,0.02257
2659.68220,0.02261
2657.62203,0.02265
2655.56186,0.02264
2653.50169,0.02247
2651.44151,0.02218
2649.38134,0.02197
2647.32117,0.02189
2645.26100,0.02181
2643.20083,0.02172
2641.14065,0.02167
2639.08048,0.02156
2637.02031,0.02145
2634.96014,0.02142
2632.89997,0.02119
2630.83979,0.02072
2628.77962,0.02049
2626.71945,0.02053
2624.65928,0.02046
2622.59910,0.02038
2620.53893,0.02036
2618.47876,0.02013
2616.41859,0.01990
2614.35842,0.01984
2612.29824,0.01959
2610.23807,0.01920
2608.17790,0.01899
2606.11773,0.01894
2604.05756,0.01906
2601.99738,0.01927
2599.93721,0.01910
2597.87704,0.01874
2595.81687,0.01873
2593.75670,0.01872
2591.69652,0.01848
2589.63635,0.01823
2587.57618,0.01798
2585.51601,0.01778
2583.45583,0.01765
2581.39566,0.01758
2579.33549,0.01753
2577.27532,0.01749
2575.21515,0.01746
2573.15497,0.01739
2571.09480,0.01741
2569.03463,0.01746
2566.97446,0.01732
2564.91429,0.01705
2562.85411,0.01688
2560.79394,0.01706
2558.73377,0.01736
2556.67360,0.01736
2554.61342,0.01718
2552.55325,0.01698
2550.49308,0.01670
2548.43291,0.01646
2546.37274,0.01640
2544.31256,0.01634
2542.25239,0.01625
2540.19222,0.01613
2538.13205,0.01587
2536.07188,0.01570
2534.01170,0.01588
2531.95153,0.01604
2529.89136,0.01588
2527.83119,0.01560
2525.77102,0.01535
2523.71084,0.01501
2521.65067,0.01468
2519.59050,0.01474
2517.53033,0.01521
2515.47015,0.01551
2513.40998,0.01528
2511.34981,0.01470
2509.28964,0.01421
2507.22947,0.01410
2505.16929,0.01413
2503.10912,0.01409
2501.04895,0.01418
2498.98878,0.01445
2496.92861,0.01454
2494.86843,0.01425
2492.80826,0.01390
2490.74809,0.01379
2488.68792,0.01367
2486.62775,0.01345
2484.56757,0.01325
2482.50740,0.01316
2480.44723,0.01324
2478.38706,0.01336
2476.32688,0.01332
2474.26671,0.01318
2472.20654,0.01313
2470.14637,0.01317
2468.08620,0.01301
2466.02602,0.01284
2463.96585,0.01307
2461.90568,0.01333
2459.84551,0.01324
2457.78534,0.01298
2455.72516,0.01288
2453.66499,0.01302
2451.60482,0.01302
2449.54465,0.01269
2447.48447,0.01224
2445.42430,0.01199
2443.36413,0.01196
2441.30396,0.01184
2439.24379,0.01171
2437.18361,0.01173
2435.12344,0.01180
2433.06327,0.01186
2431.00310,0.01193
2428.94293,0.01206
2426.88275,0.01216
2424.82258,0.01199
2422.76241,0.01165
2420.70224,0.01148
2418.64207,0.01155
2416.58189,0.01159
2414.52172,0.01149
2412.46155,0.01125
2410.40138,0.01091
2408.34120,0.01065
2406.28103,0.01046
2404.22086,0.01034
2402.16069,0.01052
2400.10052,0.01091
2398.04034,0.01118
2395.98017,0.01104
2393.92000,0.01063
2391.85983,0.01024
2389.79966,0.01003
2387.73948,0.01006
2385.67931,0.01039
2383.61914,0.01086
2381.55897,0.01115
2379.49880,0.01112
2377.43862,0.01099
2375.37845,0.01099
2373.31828,0.01100
2371.25811,0.01071
2369.19793,0.00989
2367.13776,0.00881
2365.07759,0.00799
2363.01742,0.00750
2360.95725,0.00734
2358.89707,0.00789
2356.83690,0.00893
2354.77673,0.00997
2352.71656,0.01066
2350.65639,0.01106
2348.59621,0.01122
2346.53604,0.01102
2344.47587,0.01067
2342.41570,0.01068
2340.35552,0.01086
2338.29535,0.01085
2336.23518,0.01106
2334.17501,0.01162
2332.11484,0.01180
2330.05466,0.01157
2327.99449,0.01168
2325.93432,0.01189
2323.87415,0.01151
2321.81398,0.01085
2319.75380,0.01041
2317.69363,0.01026
2315.63346,0.01037
2313.57329,0.01057
2311.51312,0.01066
2309.45294,0.01048
2307.39277,0.01007
2305.33260,0.00979
2303.27243,0.00984
2301.21225,0.00992
2299.15208,0.00980
2297.09191,0.00966
2295.03174,0.00978
2292.97157,0.01006
2290.91139,0.01024
2288.85122,0.01027
2286.79105,0.01002
2284.73088,0.00945
2282.67071,0.00873
2280.61053,0.00817
2278.55036,0.00793
2276.49019,0.00791
2274.43002,0.00810
2272.36984,0.00859
2270.30967,0.00910
2268.24950,0.00934
2266.18933,0.00930
2264.12916,0.00891
2262.06898,0.00839
2260.00881,0.00803
2257.94864,0.00760
2255.88847,0.00701
2253.82830,0.00663
2251.76812,0.00660
2249.70795,0.00670
2247.64778,0.00684
2245.58761,0.00704
2243.52744,0.00716
2241.46726,0.00739
2239.40709,0.00759
2237.34692,0.00748
2235.28675,0.00723
2233.22657,0.00712
2231.16640,0.00702
2229.10623,0.00678
2227.04606,0.00675
2224.98589,0.00674
2222.92571,0.00656
2220.86554,0.00621
2218.80537,0.00524
2216.74520,0.00462
2214.68503,0.00506
2212.62485,0.00533
2210.56468,0.00521
2208.50451,0.00526
2206.44434,0.00531
2204.38417,0.00506
2202.32399,0.00474
2200.26382,0.00473
2198.20365,0.00515
2196.14348,0.00543
2194.08330,0.00532
2192.02313,0.00535
2189.96296,0.00513
2187.90279,0.00471
2185.84262,0.00473
2183.78244,0.00448
2181.72227,0.00364
2179.66210,0.00304
2177.60193,0.00331
2175.54176,0.00420
2173.48158,0.00503
2171.42141,0.00580
2169.36124,0.00610
2167.30107,0.00548
2165.24089,0.00507
2163.18072,0.00429
2161.12055,0.00223
2159.06038,0.00150
2157.00021,0.00259
2154.94003,0.00358
2152.87986,0.00441
2150.81969,0.00468
2148.75952,0.00400
2146.69935,0.00328
2144.63917,0.00308
2142.57900,0.00323
2140.51883,0.00320
2138.45866,0.00264
2136.39849,0.00254
2134.33831,0.00321
2132.27814,0.00371
2130.21797,0.00392
2128.15780,0.00417
2126.09762,0.00450
2124.03745,0.00487
2121.97728,0.00532
2119.91711,0.00595
2117.85694,0.00667
2115.79676,0.00701
2113.73659,0.00666
2111.67642,0.00614
2109.61625,0.00609
2107.55608,0.00657
2105.49590,0.00674
2103.43573,0.00593
2101.37556,0.00503
2099.31539,0.00491
2097.25521,0.00510
2095.19504,0.00523
2093.13487,0.00550
2091.07470,0.00571
2089.01453,0.00553
2086.95435,0.00534
2084.89418,0.00566
2082.83401,0.00609
2080.77384,0.00590
2078.71367,0.00523
2076.65349,0.00465
2074.59332,0.00420
2072.53315,0.00384
2070.47298,0.00409
2068.41281,0.00469
2066.35263,0.00485
2064.29246,0.00461
2062.23229,0.00429
2060.17212,0.00400
2058.11194,0.00428
2056.05177,0.00541
2053.99160,0.00643
2051.93143,0.00666
2049.87126,0.00628
2047.81108,0.00545
2045.75091,0.00430
2043.69074,0.00313
2041.63057,0.00244
2039.57040,0.00284
2037.51022,0.00402
2035.45005,0.00435
2033.38988,0.00310
2031.32971,0.00178
2029.26954,0.00158
2027.20936,0.00185
2025.14919,0.00208
2023.08902,0.00217
2021.02885,0.00191
2018.96867,0.00155
2016.90850,0.00155
2014.84833,0.00203
2012.78816,0.00279
2010.72799,0.00382
2008.66781,0.00473
2006.60764,0.00473
2004.54747,0.00397
2002.48730,0.00364
2000.42713,0.00366
1998.36695,0.00369
1996.30678,0.00399
1994.24661,0.00400
1992.18644,0.00356
1990.12626,0.00296
1988.06609,0.00196
1986.00592,0.00138
1983.94575,0.00221
1981.88558,0.00316
1979.82540,0.00248
1977.76523,0.00109
1975.70506,0.00062
1973.64489,0.00101
1971.58472,0.00161
1969.52454,0.00189
1967.46437,0.00207
1965.40420,0.00202
1963.34403,0.00139
1961.28386,0.00098
1959.22368,0.00141
1957.16351,0.00218
1955.10334,0.00258
1953.04317,0.00245
1950.98299,0.00213
1948.92282,0.00198
1946.86265,0.00208
1944.80248,0.00214
1942.74231,0.00216
1940.68213,0.00228
1938.62196,0.00234
1936.56179,0.00225
1934.50162,0.00196
1932.44145,0.00189
1930.38127,0.00252
1928.32110,0.00334
1926.26093,0.00365
1924.20076,0.00331
1922.14059,0.00284
1920.08041,0.00288
1918.02024,0.00325
1915.96007,0.00328
1913.89990,0.00300
1911.83972,0.00304
1909.77955,0.00329
1907.71938,0.00334
1905.65921,0.00330
1903.59904,0.00317
1901.53886,0.00283
1899.47869,0.00262
1897.41852,0.00282
1895.35835,0.00312
1893.29818,0.00307
1891.23800,0.00260
1889.17783,0.00197
1887.11766,0.00168
1885.05749,0.00203
1882.99731,0.00268
1880.93714,0.00288
1878.87697,0.00248
1876.81680,0.00195
1874.75663,0.00169
1872.69645,0.00171
1870.63628,0.00178
1868.57611,0.00183
1866.51594,0.00204
1864.45577,0.00225
1862.39559,0.00220
1860.33542,0.00196
1858.27525,0.00168
1856.21508,0.00143
1854.15491,0.00136
1852.09473,0.00150
1850.03456,0.00161
1847.97439,0.00154
1845.91422,0.00144
1843.85404,0.00142
1841.79387,0.00143
1839.73370,0.00152
1837.67353,0.00174
1835.61336,0.00183
1833.55318,0.00158
1831.49301,0.00112
1829.43284,0.00073
1827.37267,0.00063
1825.31250,0.00075
1823.25232,0.00084
1821.19215,0.00080
1819.13198,0.00076
1817.07181,0.00082
1815.01163,0.00090
1812.95146,0.00083
1810.89129,0.00071
1808.83112,0.00081
1806.77095,0.00101
1804.71077,0.00101
1802.65060,0.00082
1800.59043,0.00075
1798.53026,0.00083
1796.47009,0.00081
1794.40991,0.00060
1792.34974,0.00040
1790.28957,0.00041
1788.22940,0.00057
1786.16923,0.00070
1784.10905,0.00073
1782.04888,0.00069
1779.98871,0.00064
1777.92854,0.00047
1775.86836,0.00044
1773.80819,0.00059
1771.74802,0.00079
1769.68785,0.00089
1767.62768,0.00109
1765.56750,0.00157
1763.50733,0.00216
1761.44716,0.00272
1759.38699,0.00337
1757.32682,0.00429
1755.26664,0.00548
1753.20647,0.00665
1751.14630,0.00788
1749.08613,0.00976
1747.02596,0.01252
1744.96578,0.01591
1742.90561,0.01983
1740.84544,0.02436
1738.78527,0.02911
1736.72509,0.03321
1734.66492,0.03692
1732.60475,0.04005
1730.54458,0.04146
1728.48441,0.04160
1726.42423,0.04128
1724.36406,0.04073
1722.30389,0.04007
1720.24372,0.03938
1718.18355,0.03849
1716.12337,0.03791
1714.06320,0.03820
1712.00303,0.03866
1709.94286,0.03850
1707.88268,0.03761
1705.82251,0.03647
1703.76234,0.03565
1701.70217,0.03488
1699.64200,0.03365
1697.58182,0.03257
1695.52165,0.03224
1693.46148,0.03232
1691.40131,0.03220
1689.34114,0.03183
1687.28096,0.03143
1685.22079,0.03104
1683.16062,0.03087
1681.10045,0.03117
1679.04028,0.03160
1676.98010,0.03196
1674.91993,0.03236
1672.85976,0.03285
1670.79959,0.03359
1668.73941,0.03465
1666.67924,0.03578
1664.61907,0.03690
1662.55890,0.03844
1660.49873,0.04032
1658.43855,0.04184
1656.37838,0.04275
1654.31821,0.04363
1652.25804,0.04498
1650.19787,0.04587
1648.13769,0.04610
1646.07752,0.04641
1644.01735,0.04695
1641.95718,0.04734
1639.89701,0.04759
1637.83683,0.04788
1635.77666,0.04845
1633.71649,0.04931
1631.65632,0.05002
1629.59614,0.05041
1627.53597,0.05078
1625.47580,0.05128
1623.41563,0.05177
1621.35546,0.05211
1619.29528,0.05236
1617.23511,0.05284
1615.17494,0.05384
1613.11477,0.05492
1611.05460,0.05567
1608.99442,0.05613
1606.93425,0.05641
1604.87408,0.05640
1602.81391,0.05597
1600.75373,0.05522
1598.69356,0.05421
1596.63339,0.05288
1594.57322,0.05125
1592.51305,0.04940
1590.45287,0.04740
1588.39270,0.04537
1586.33253,0.04346
1584.27236,0.04170
1582.21219,0.04002
1580.15201,0.03837
1578.09184,0.03660
1576.03167,0.03459
1573.97150,0.03285
1571.91133,0.03163
1569.85115,0.03051
1567.79098,0.02941
1565.73081,0.02856
1563.67064,0.02794
1561.61046,0.02737
1559.55029,0.02669
1557.49012,0.02630
1555.42995,0.02647
1553.36978,0.02678
1551.30960,0.02698
1549.24943,0.02711
1547.18926,0.02717
1545.12909,0.02700
1543.06892,0.02657
1541.00874,0.02618
1538.94857,0.02618
1536.88840,0.02625
1534.82823,0.02582
1532.76805,0.02498
1530.70788,0.02426
1528.64771,0.02352
1526.58754,0.02244
1524.52737,0.02134
1522.46719,0.02079
1520.40702,0.02106
1518.34685,0.02168
1516.28668,0.02214
1514.22651,0.02218
1512.16633,0.02147
1510.10616,0.01991
1508.04599,0.01764
1505.98582,0.01550
1503.92565,0.01451
1501.86547,0.01399
1499.80530,0.01332
1497.74513,0.01229
1495.68496,0.01090
1493.62478,0.00948
1491.56461,0.00801
1489.50444,0.00648
1487.44427,0.00545
1485.38410,0.00509
1483.32392,0.00509
1481.26375,0.00528
1479.20358,0.00564
1477.14341,0.00636
1475.08324,0.00818
1473.02306,0.01165
1470.96289,0.01562
1468.90272,0.01865
1466.84255,0.02118
1464.78238,0.02377
1462.72220,0.02574
1460.66203,0.02668
1458.60186,0.02754
1456.54169,0.02929
1454.48151,0.03115
1452.42134,0.03239
1450.36117,0.03331
1448.30100,0.03429
1446.24083,0.03527
1444.18065,0.03589
1442.12048,0.03603
1440.06031,0.03574
1438.00014,0.03486
1435.93997,0.03343
1433.87979,0.03199
1431.81962,0.03066
1429.75945,0.02935
1427.69928,0.02828
1425.63910,0.02750
1423.57893,0.02697
1421.51876,0.02672
1419.45859,0.02669
1417.39842,0.02680
1415.33824,0.02688
1413.27807,0.02674
1411.21790,0.02641
1409.15773,0.02602
1407.09756,0.02575
1405.03738,0.02563
1402.97721,0.02561
1400.91704,0.02563
1398.85687,0.02565
1396.79670,0.02572
1394.73652,0.02596
1392.67635,0.02635
1390.61618,0.02682
1388.55601,0.02737
1386.49583,0.02810
1384.43566,0.02890
1382.37549,0.02968
1380.31532,0.03052
1378.25515,0.03141
1376.19497,0.03224
1374.13480,0.03295
1372.07463,0.03359
1370.01446,0.03419
1367.95429,0.03471
1365.89411,0.03509
1363.83394,0.03524
1361.77377,0.03518
1359.71360,0.03512
1357.65343,0.03524
1355.59325,0.03549
1353.53308,0.03577
1351.47291,0.03603
1349.41274,0.03631
1347.35256,0.03666
1345.29239,0.03698
1343.23222,0.03715
1341.17205,0.03726
1339.11188,0.03757
1337.05170,0.03810
1334.99153,0.03865
1332.93136,0.03922
1330.87119,0.03986
1328.81102,0.04052
1326.75084,0.04114
1324.69067,0.04171
1322.63050,0.04217
1320.57033,0.04251
1318.51015,0.04276
1316.44998,0.04286
1314.38981,0.04269
1312.32964,0.04227
1310.26947,0.04157
1308.20929,0.04046
1306.14912,0.03898
1304.08895,0.03727
1302.02878,0.03546
1299.96861,0.03360
1297.90843,0.03172
1295.84826,0.02989
1293.78809,0.02832
1291.72792,0.02715
1289.66775,0.02633
1287.60757,0.02579
1285.54740,0.02547
1283.48723,0.02526
1281.42706,0.02506
1279.36688,0.02491
1277.30671,0.02488
1275.24654,0.02498
1273.18637,0.02524
1271.12620,0.02572
1269.06602,0.02638
1267.00585,0.02700
1264.94568,0.02741
1262.88551,0.02781
1260.82534,0.02846
1258.76516,0.02920
1256.70499,0.02982
1254.64482,0.03040
1252.58465,0.03107
1250.52447,0.03179
1248.46430,0.03245
1246.40413,0.03300
1244.34396,0.03358
1242.28379,0.03421
1240.22361,0.03485
1238.16344,0.03554
1236.10327,0.03630
1234.04310,0.03711
1231.98293,0.03790
1229.92275,0.03860
1227.86258,0.03923
1225.80241,0.03988
1223.74224,0.04062
1221.68207,0.04149
1219.62189,0.04235
1217.56172,0.04305
1215.50155,0.04375
1213.44138,0.04445
1211.38120,0.04510
1209.32103,0.04590
1207.26086,0.04698
1205.20069,0.04813
1203.14052,0.04912
1201.08034,0.04994
1199.02017,0.05064
1196.96000,0.05113
1194.89983,0.05133
1192.83966,0.05119
1190.77948,0.05061
1188.71931,0.04984
1186.65914,0.04912
1184.59897,0.04847
1182.53880,0.04792
1180.47862,0.04753
1178.41845,0.04735
1176.35828,0.04734
1174.29811,0.04745
1172.23793,0.04772
1170.17776,0.04797
1168.11759,0.04803
1166.05742,0.04793
1163.99725,0.04767
1161.93707,0.04728
1159.87690,0.04669
1157.81673,0.04587
1155.75656,0.04496
1153.69639,0.04405
1151.63621,0.04328
1149.57604,0.04260
1147.51587,0.04174
1145.45570,0.04072
1143.39552,0.03962
1141.33535,0.03829
1139.27518,0.03685
1137.21501,0.03582
1135.15484,0.03531
1133.09466,0.03504
1131.03449,0.03507
1128.97432,0.03551
1126.91415,0.03624
1124.85398,0.03732
1122.79380,0.03877
1120.73363,0.04053
1118.67346,0.04266
1116.61329,0.04523
1114.55312,0.04831
1112.49294,0.05168
1110.43277,0.05501
1108.37260,0.05826
1106.31243,0.06148
1104.25225,0.06442
1102.19208,0.06665
1100.13191,0.06823
1098.07174,0.06959
1096.01157,0.07096
1093.95139,0.07234
1091.89122,0.07373
1089.83105,0.07536
1087.77088,0.07738
1085.71071,0.07971
1083.65053,0.08229
1081.59036,0.08500
1079.53019,0.08763
1077.47002,0.08993
1075.40985,0.09178
1073.34967,0.09338
1071.28950,0.09500
1069.22933,0.09655
1067.16916,0.09789
1065.10898,0.09926
1063.04881,0.10076
1060.98864,0.10215
1058.92847,0.10351
1056.86830,0.10499
1054.80812,0.10644
1052.74795,0.10799
1050.68778,0.10977
1048.62761,0.11149
1046.56744,0.11307
1044.50726,0.11465
1042.44709,0.11626
1040.38692,0.11793
1038.32675,0.11974
1036.26657,0.12179
1034.20640,0.12409
1032.14623,0.12635
1030.08606,0.12812
1028.02589,0.12933
1025.96571,0.12998
1023.90554,0.13005
1021.84537,0.12984
1019.78520,0.12959
1017.72503,0.12928
1015.66485,0.12867
1013.60468,0.12770
1011.54451,0.12651
1009.48434,0.12498
1007.42417,0.12292
1005.36399,0.12036
1003.30382,0.11753
1001.24365,0.11449
999.18348,0.11121
997.12330,0.10798
995.06313,0.10496
993.00296,0.10199
990.94279,0.09898
988.88262,0.09579
986.82244,0.09243
984.76227,0.08902
982.70210,0.08567
980.64193,0.08247
978.58176,0.07932
976.52158,0.07619
974.46141,0.07306
972.40124,0.06998
970.34107,0.06728
968.28089,0.06508
966.22072,0.06323
964.16055,0.06148
962.10038,0.05961
960.04021,0.05751
957.98003,0.05516
955.91986,0.05264
953.85969,0.04995
951.79952,0.04724
949.73935,0.04466
947.67917,0.04211
945.61900,0.03971
943.55883,0.03769
941.49866,0.03603
939.43849,0.03462
937.37831,0.03331
935.31814,0.03213
933.25797,0.03126
931.19780,0.03059
929.13762,0.02979
927.07745,0.02885
925.01728,0.02787
922.95711,0.02676
920.89694,0.02560
918.83676,0.02450
916.77659,0.02324
914.71642,0.02183
912.65625,0.02041
910.59608,0.01887
908.53590,0.01742
906.47573,0.01636
904.41556,0.01556
902.35539,0.01482
900.29522,0.01424
898.23504,0.01397
896.17487,0.01362
894.11470,0.01304
892.05453,0.01271
889.99435,0.01268
887.93418,0.01257
885.87401,0.01212
883.81384,0.01148
881.75367,0.01100
879.69349,0.01080
877.63332,0.01080
875.57315,0.01100
873.51298,0.01137
871.45281,0.01167
869.39263,0.01155
867.33246,0.01090
865.27229,0.00966
863.21212,0.00793
861.15194,0.00618
859.09177,0.00475
857.03160,0.00353
854.97143,0.00249
852.91126,0.00174
850.85108,0.00138
848.79091,0.00138
846.73074,0.00118
844.67057,0.00075
842.61040,0.00068
840.55022,0.00095
838.49005,0.00139
836.42988,0.00195
834.36971,0.00256
832.30954,0.00322
830.24936,0.00340
828.18919,0.00297
826.12902,0.00299
824.06885,0.00381
822.00867,0.00450
819.94850,0.00488
817.88833,0.00521
815.82816,0.00537
813.76799,0.00506
811.70781,0.00437
809.64764,0.00363
807.58747,0.00305
805.52730,0.00265
803.46713,0.00224
801.40695,0.00169
799.34678,0.00112
797.28661,0.00076
795.22644,0.00020
793.16627,0.00025
791.10609,0.00095
789.04592,0.00165
786.98575,0.00199
784.92558,0.00213
782.86540,0.00271
780.80523,0.00373
778.74506,0.00418
776.68489,0.00418
774.62472,0.00476
772.56454,0.00608
770.50437,0.00773
768.44420,0.00913
766.38403,0.01040
764.32386,0.01203
762.26368,0.01361
760.20351,0.01474
758.14334,0.01526
756.08317,0.01465
754.02299,0.01329
751.96282,0.01258
749.90265,0.01234
747.84248,0.01118
745.78231,0.00940
743.72213,0.00818
741.66196,0.00759
739.60179,0.00720
737.54162,0.00689
735.48145,0.00637
733.42127,0.00586
731.36110,0.00594
729.30093,0.00638
727.24076,0.00676
725.18059,0.00710
723.12041,0.00753
721.06024,0.00791
719.00007,0.00775
716.93990,0.00708
714.87972,0.00640
712.81955,0.00617
710.75938,0.00633
708.69921,0.00639
706.63904,0.00628
704.57886,0.00616
702.51869,0.00587
700.45852,0.00551
698.39835,0.00551
696.33818,0.00570
694.27800,0.00547
692.21783,0.00481
690.15766,0.00406
688.09749,0.00351
686.03731,0.00328
683.97714,0.00340
681.91697,0.00357
679.85680,0.00323
677.79663,0.00266
675.73645,0.00302
673.67628,0.00427
671.61611,0.00547
669.55594,0.00585
667.49577,0.00447
665.43559,0.00267
663.37542,0.00203
661.31525,0.00179
659.25508,0.00170
657.19491,0.00252
655.13473,0.00326
653.07456,0.00274
651.01439,0.00157
648.95422,0.00077
646.89404,0.00094
644.83387,0.00249
642.77370,0.00419
640.71353,0.00502
638.65336,0.00484
636.59318,0.00410
634.53301,0.00422
632.47284,0.00599
630.41267,0.00799
628.35250,0.00806
626.29232,0.00562
624.23215,0.00387
622.17198,0.00517
620.11181,0.00752
618.05164,0.00830
615.99146,0.00732
613.93129,0.00621
611.87112,0.00633
609.81095,0.00648
607.75077,0.00379
605.69060,0.00036
603.63043,0.00000
601.57026,0.00039
599.51009,0.00000
