3996.73391,0.00043
3994.67373,0.00032
3992.61356,0.00018
3990.55339,0.00009
3988.49322,0.00000
3986.43305,0.00004
3984.37287,0.00042
3982.31270,0.00091
3980.25253,0.00116
3978.19236,0.00104
3976.13219,0.00062
3974.07201,0.00027
3972.01184,0.00035
3969.95167,0.00060
3967.89150,0.00061
3965.83133,0.00046
3963.77115,0.00044
3961.71098,0.00057
3959.65081,0.00082
3957.59064,0.00110
3955.53046,0.00122
3953.47029,0.00119
3951.41012,0.00108
3949.34995,0.00093
3947.28978,0.00076
3945.22960,0.00059
3943.16943,0.00048
3941.10926,0.00047
3939.04909,0.00064
3936.98892,0.00093
3934.92874,0.00103
3932.86857,0.00087
3930.80840,0.00074
3928.74823,0.00076
3926.68805,0.00075
3924.62788,0.00072
3922.56771,0.00084
3920.50754,0.00095
3918.44737,0.00080
3916.38719,0.00061
3914.32702,0.00063
3912.26685,0.00073
3910.20668,0.00087
3908.14651,0.00109
3906.08633,0.00123
3904.02616,0.00115
3901.96599,0.00106
3899.90582,0.00100
3897.84565,0.00079
3895.78547,0.00069
3893.72530,0.00079
3891.66513,0.00091
3889.60496,0.00084
3887.54478,0.00050
3885.48461,0.00012
3883.42444,0.00016
3881.36427,0.00059
3879.30410,0.00091
3877.24392,0.00080
3875.18375,0.00057
3873.12358,0.00074
3871.06341,0.00119
3869.00324,0.00138
3866.94306,0.00126
3864.88289,0.00117
3862.82272,0.00135
3860.76255,0.00163
3858.70237,0.00172
3856.64220,0.00154
3854.58203,0.00114
3852.52186,0.00091
3850.46169,0.00114
3848.40151,0.00139
3846.34134,0.00133
3844.28117,0.00127
3842.22100,0.00164
3840.16083,0.00210
3838.10065,0.00202
3836.04048,0.00151
3833.98031,0.00124
3831.92014,0.00127
3829.85997,0.00122
3827.79979,0.00105
3825.73962,0.00098
3823.67945,0.00097
3821.61928,0.00082
3819.55910,0.00070
3817.49893,0.00079
3815.43876,0.00091
3813.37859,0.00092
3811.31842,0.00084
3809.25824,0.00065
3807.19807,0.00037
3805.13790,0.00021
3803.07773,0.00029
3801.01756,0.00053
3798.95738,0.00098
3796.89721,0.00154
3794.83704,0.00177
3792.77687,0.00164
3790.71670,0.00159
3788.65652,0.00174
3786.59635,0.00183
3784.53618,0.00171
3782.47601,0.00146
3780.41583,0.00118
3778.35566,0.00094
3776.29549,0.00083
3774.23532,0.00085
3772.17515,0.00085
3770.11497,0.00080
3768.05480,0.00084
3765.99463,0.00106
3763.93446,0.00132
3761.87429,0.00137
3759.81411,0.00119
3757.75394,0.00101
3755.69377,0.00088
3753.63360,0.00081
3751.57342,0.00083
3749.51325,0.00079
3747.45308,0.00060
3745.39291,0.00048
3743.33274,0.00062
3741.27256,0.00072
3739.21239,0.00052
3737.15222,0.00029
3735.09205,0.00037
3733.03188,0.00058
3730.97170,0.00075
3728.91153,0.00084
3726.85136,0.00088
3724.79119,0.00091
3722.73102,0.00088
3720.67084,0.00084
3718.61067,0.00080
3716.55050,0.00087
3714.49033,0.00084
3712.43015,0.00054
3710.36998,0.00039
3708.30981,0.00047
3706.24964,0.00054
3704.18947,0.00058
3702.12929,0.00077
3700.06912,0.00105
3698.00895,0.00113
3695.94878,0.00119
3693.88861,0.00137
3691.82843,0.00152
3689.76826,0.00139
3687.70809,0.00117
3685.64792,0.00118
3683.58775,0.00142
3681.52757,0.00172
3679.46740,0.00189
3677.40723,0.00180
3675.34706,0.00164
3673.28688,0.00165
3671.22671,0.00182
3669.16654,0.00217
3667.10637,0.00238
3665.04620,0.00229
3662.98602,0.00220
3660.92585,0.00234
3658.86568,0.00265
3656.80551,0.00288
3654.74534,0.00283
3652.68516,0.00264
3650.62499,0.00276
3648.56482,0.00337
3646.50465,0.00401
3644.44447,0.00436
3642.38430,0.00450
3640.32413,0.00462
3638.26396,0.00483
3636.20379,0.00508
3634.14361,0.00540
3632.08344,0.00583
3630.02327,0.00625
3627.96310,0.00656
3625.90293,0.00674
3623.84275,0.00704
3621.78258,0.00748
3619.72241,0.00786
3617.66224,0.00812
3615.60207,0.00843
3613.54189,0.00879
3611.48172,0.00904
3609.42155,0.00944
3607.36138,0.01002
3605.30120,0.01036
3603.24103,0.01054
3601.18086,0.01086
3599.12069,0.01136
3597.06052,0.01182
3595.00034,0.01210
3592.94017,0.01227
3590.88000,0.01251
3588.81983,0.01284
3586.75966,0.01341
3584.69948,0.01426
3582.63931,0.01505
3580.57914,0.01540
3578.51897,0.01540
3576.45879,0.01558
3574.39862,0.01620
3572.33845,0.01702
3570.27828,0.01772
3568.21811,0.01825
3566.15793,0.01879
3564.09776,0.01935
3562.03759,0.01989
3559.97742,0.02044
3557.91725,0.02106
3555.85707,0.02170
3553.79690,0.02218
3551.73673,0.02245
3549.67656,0.02282
3547.61639,0.02349
3545.55621,0.02433
3543.49604,0.02517
3541.43587,0.02592
3539.37570,0.02648
3537.31552,0.02696
3535.25535,0.02754
3533.19518,0.02806
3531.13501,0.02836
3529.07484,0.02874
3527.01466,0.02927
3524.95449,0.02966
3522.89432,0.03004
3520.83415,0.03073
3518.77398,0.03150
3516.71380,0.03216
3514.65363,0.03279
3512.59346,0.03342
3510.53329,0.03393
3508.47312,0.03439
3506.41294,0.03491
3504.35277,0.03550
3502.29260,0.03626
3500.23243,0.03709
3498.17225,0.03780
3496.11208,0.03849
3494.05191,0.03916
3491.99174,0.03954
3489.93157,0.03968
3487.87139,0.03996
3485.81122,0.04054
3483.75105,0.04112
3481.69088,0.04147
3479.63071,0.04182
3477.57053,0.04238
3475.51036,0.04298
3473.45019,0.04368
3471.39002,0.04463
3469.32984,0.04544
3467.26967,0.04575
3465.20950,0.04587
3463.14933,0.04615
3461.08916,0.04658
3459.02898,0.04712
3456.96881,0.04772
3454.90864,0.04821
3452.84847,0.04863
3450.78830,0.04921
3448.72812,0.05003
3446.66795,0.05094
3444.60778,0.05158
3442.54761,0.05193
3440.48744,0.05223
3438.42726,0.05270
3436.36709,0.05342
3434.30692,0.05425
3432.24675,0.05496
3430.18657,0.05544
3428.12640,0.05571
3426.06623,0.05572
3424.00606,0.05576
3421.94589,0.05618
3419.88571,0.05675
3417.82554,0.05719
3415.76537,0.05759
3413.70520,0.05796
3411.64503,0.05842
3409.58485,0.05915
3407.52468,0.05999
3405.46451,0.06063
3403.40434,0.06092
3401.34416,0.06108
3399.28399,0.06131
3397.22382,0.06172
3395.16365,0.06222
3393.10348,0.06261
3391.04330,0.06285
3388.98313,0.06300
3386.92296,0.06308
3384.86279,0.06339
3382.80262,0.06408
3380.74244,0.06472
3378.68227,0.06503
3376.62210,0.06532
3374.56193,0.06576
3372.50176,0.06626
3370.44158,0.06668
3368.38141,0.06696
3366.32124,0.06724
3364.26107,0.06749
3362.20089,0.06745
3360.14072,0.06736
3358.08055,0.06770
3356.02038,0.06828
3353.96021,0.06873
3351.90003,0.06912
3349.83986,0.06948
3347.77969,0.06964
3345.71952,0.06970
3343.65935,0.06991
3341.59917,0.07020
3339.53900,0.07046
3337.47883,0.07067
3335.41866,0.07075
3333.35849,0.07081
3331.29831,0.07102
3329.23814,0.07123
3327.17797,0.07125
3325.11780,0.07122
3323.05762,0.07131
3320.99745,0.07145
3318.93728,0.07163
3316.87711,0.07180
3314.81694,0.07195
3312.75676,0.07211
3310.69659,0.07215
3308.63642,0.07219
3306.57625,0.07240
3304.51608,0.07269
3302.45590,0.07296
3300.39573,0.07307
3298.33556,0.07295
3296.27539,0.07278
3294.21521,0.07269
3292.15504,0.07273
3290.09487,0.07290
3288.03470,0.07304
3285.97453,0.07303
3283.91435,0.07309
3281.85418,0.07325
3279.79401,0.07336
3277.73384,0.07326
3275.67367,0.07304
3273.61349,0.07301
3271.55332,0.07324
3269.49315,0.07336
3267.43298,0.07331
3265.37281,0.07326
3263.31263,0.07309
3261.25246,0.07283
3259.19229,0.07274
3257.13212,0.07279
3255.07194,0.07269
3253.01177,0.07249
3250.95160,0.07232
3248.89143,0.07214
3246.83126,0.07195
3244.77108,0.07177
3242.71091,0.07152
3240.65074,0.07111
3238.59057,0.07069
3236.53040,0.07051
3234.47022,0.07057
3232.41005,0.07063
3230.34988,0.07050
3228.28971,0.07039
3226.22954,0.07030
3224.16936,0.07003
3222.10919,0.06964
3220.04902,0.06927
3217.98885,0.06892
3215.92867,0.06865
3213.86850,0.06852
3211.80833,0.06848
3209.74816,0.06847
3207.68799,0.06838
3205.62781,0.06813
3203.56764,0.06781
3201.50747,0.06745
3199.44730,0.06715
3197.38713,0.06692
3195.32695,0.06667
3193.26678,0.06651
3191.20661,0.06641
3189.14644,0.06619
3187.08626,0.06586
3185.02609,0.06553
3182.96592,0.06515
3180.90575,0.06470
3178.84558,0.06425
3176.78540,0.06379
3174.72523,0.06348
3172.66506,0.06343
3170.60489,0.06341
3168.54472,0.06322
3166.48454,0.06303
3164.42437,0.06276
3162.36420,0.06233
3160.30403,0.06194
3158.24386,0.06166
3156.18368,0.06126
3154.12351,0.06085
3152.06334,0.06069
3150.00317,0.06049
3147.94299,0.06000
3145.88282,0.05959
3143.82265,0.05937
3141.76248,0.05911
3139.70231,0.05868
3137.64213,0.05821
3135.58196,0.05783
3133.52179,0.05749
3131.46162,0.05723
3129.40145,0.05714
3127.34127,0.05701
3125.28110,0.05665
3123.22093,0.05618
3121.16076,0.05597
3119.10058,0.05593
3117.04041,0.05562
3114.98024,0.05502
3112.92007,0.05443
3110.85990,0.05393
3108.79972,0.05349
3106.73955,0.05322
3104.67938,0.05302
3102.61921,0.05276
3100.55904,0.05258
3098.49886,0.05254
3096.43869,0.05228
3094.37852,0.05178
3092.31835,0.05127
3090.25818,0.05090
3088.19800,0.05065
3086.13783,0.05050
3084.07766,0.05044
3082.01749,0.05043
3079.95731,0.05038
3077.89714,0.05019
3075.83697,0.04982
3073.77680,0.04928
3071.71663,0.04875
3069.65645,0.04851
3067.59628,0.04841
3065.53611,0.04810
3063.47594,0.04756
3061.41577,0.04705
3059.35559,0.04662
3057.29542,0.04617
3055.23525,0.04579
3053.17508,0.04553
3051.11491,0.04531
3049.05473,0.04504
3046.99456,0.04470
3044.93439,0.04439
3042.87422,0.04407
3040.81404,0.04367
3038.75387,0.04326
3036.69370,0.04297
3034.63353,0.04281
3032.57336,0.04267
3030.51318,0.04235
3028.45301,0.04182
3026.39284,0.04122
3024.33267,0.04082
3022.27250,0.04068
3020.21232,0.04062
3018.15215,0.04049
3016.09198,0.04018
3014.03181,0.03981
3011.97163,0.03955
3009.91146,0.03937
3007.85129,0.03910
3005.79112,0.03872
3003.73095,0.03840
3001.67077,0.03827
2999.61060,0.03833
2997.55043,0.03833
2995.49026,0.03807
2993.43009,0.03793
2991.36991,0.03811
2989.30974,0.03827
2987.24957,0.03829
2985.18940,0.03847
2983.12923,0.03880
2981.06905,0.03910
2979.00888,0.03941
2976.94871,0.03985
2974.88854,0.04046
2972.82836,0.04116
2970.76819,0.04207
2968.70802,0.04317
2966.64785,0.04426
2964.58768,0.04550
2962.52750,0.04702
2960.46733,0.04878
2958.40716,0.05082
2956.34699,0.05274
2954.28682,0.05399
2952.22664,0.05493
2950.16647,0.05632
2948.10630,0.05819
2946.04613,0.06028
2943.98596,0.06256
2941.92578,0.06512
2939.86561,0.06788
2937.80544,0.07085
2935.74527,0.07420
2933.68509,0.07776
2931.62492,0.08124
2929.56475,0.08449
2927.50458,0.08766
2925.44441,0.09084
2923.38423,0.09379
2921.32406,0.09662
2919.26389,0.09904
2917.20372,0.09962
2915.14355,0.09698
2913.08337,0.09157
2911.02320,0.08548
2908.96303,0.08047
2906.90286,0.07681
2904.84268,0.07395
2902.78251,0.07150
2900.72234,0.06946
2898.66217,0.06767
2896.60200,0.06591
2894.54182,0.06429
2892.48165,0.06272
2890.42148,0.06104
2888.36131,0.05946
2886.30114,0.05806
2884.24096,0.05674
2882.18079,0.05569
2880.12062,0.05507
2878.06045,0.05469
2876.00028,0.05435
2873.94010,0.05419
2871.87993,0.05437
2869.81976,0.05485
2867.75959,0.05560
2865.69941,0.05676
2863.63924,0.05846
2861.57907,0.06072
2859.51890,0.06351
2857.45873,0.06672
2855.39855,0.07013
2853.33838,0.07386
2851.27821,0.07746
2849.21804,0.07849
2847.15787,0.07469
2845.09769,0.06744
2843.03752,0.06037
2840.97735,0.05518
2838.91718,0.05149
2836.85700,0.04870
2834.79683,0.04645
2832.73666,0.04453
2830.67649,0.04303
2828.61632,0.04189
2826.55614,0.04085
2824.49597,0.03997
2822.43580,0.03931
2820.37563,0.03872
2818.31546,0.03803
2816.25528,0.03731
2814.19511,0.03675
2812.13494,0.03645
2810.07477,0.03620
2808.01460,0.03576
2805.95442,0.03532
2803.89425,0.03509
2801.83408,0.03480
2799.77391,0.03443
2797.71373,0.03414
2795.65356,0.03384
2793.59339,0.03339
2791.53322,0.03297
2789.47305,0.03280
2787.41287,0.03270
2785.35270,0.03250
2783.29253,0.03230
2781.23236,0.03220
2779.17219,0.03203
2777.11201,0.03180
2775.05184,0.03171
2772.99167,0.03166
2770.93150,0.03139
2768.87133,0.03093
2766.81115,0.03065
2764.75098,0.03062
2762.69081,0.03056
2760.63064,0.03038
2758.57046,0.03025
2756.51029,0.03021
2754.45012,0.03010
2752.38995,0.02998
2750.32978,0.02996
2748.26960,0.02995
2746.20943,0.02980
2744.14926,0.02951
2742.08909,0.02934
2740.02892,0.02942
2737.96874,0.02947
2735.90857,0.02936
2733.84840,0.02922
2731.78823,0.02908
2729.72805,0.02904
2727.66788,0.02914
2725.60771,0.02920
2723.54754,0.02896
2721.48737,0.02855
2719.42719,0.02831
2717.36702,0.02830
2715.30685,0.02842
2713.24668,0.02855
2711.18651,0.02850
2709.12633,0.02827
2707.06616,0.02810
2705.00599,0.02806
2702.94582,0.02802
2700.88565,0.02785
2698.82547,0.02765
2696.76530,0.02754
2694.70513,0.02740
2692.64496,0.02715
2690.58478,0.02698
2688.52461,0.02697
2686.46444,0.02686
2684.40427,0.02655
2682.34410,0.02637
2680.28392,0.02648
2678.22375,0.02661
2676.16358,0.02664
2674.10341,0.02656
2672.04324,0.02639
2669.98306,0.02632
2667.92289,0.02628
2665.86272,0.02612
2663.80255,0.02592
2661.74238,0.02574
2659.68220,0.02555
2657.62203,0.02538
2655.56186,0.02530
2653.50169,0.02530
2651.44151,0.02521
2649.38134,0.02494
2647.32117,0.02463
2645.26100,0.02443
2643.20083,0.02441
2641.14065,0.02453
2639.08048,0.02464
2637.02031,0.02455
2634.96014,0.02426
2632.89997,0.02402
2630.83979,0.02387
2628.77962,0.02364
2626.71945,0.02341
2624.65928,0.02330
2622.59910,0.02325
2620.53893,0.02297
2618.47876,0.02249
2616.41859,0.02221
2614.35842,0.02225
2612.29824,0.02227
2610.23807,0.02200
2608.17790,0.02157
2606.11773,0.02145
2604.05756,0.02165
2601.99738,0.02163
2599.93721,0.02126
2597.87704,0.02085
2595.81687,0.02073
2593.75670,0.02085
2591.69652,0.02072
2589.63635,0.02037
2587.57618,0.02024
2585.51601,0.02026
2583.45583,0.02016
2581.39566,0.01992
2579.33549,0.01973
2577.27532,0.01976
2575.21515,0.01983
2573.15497,0.01953
2571.09480,0.01916
2569.03463,0.01929
2566.97446,0.01952
2564.91429,0.01939
2562.85411,0.01910
2560.79394,0.01878
2558.73377,0.01853
2556.67360,0.01853
2554.61342,0.01862
2552.55325,0.01852
2550.49308,0.01828
2548.43291,0.01802
2546.37274,0.01792
2544.31256,0.01807
2542.25239,0.01833
2540.19222,0.01834
2538.13205,0.01801
2536.07188,0.01778
2534.01170,0.01775
2531.95153,0.01762
2529.89136,0.01747
2527.83119,0.01740
2525.77102,0.01725
2523.71084,0.01707
2521.65067,0.01696
2519.59050,0.01683
2517.53033,0.01669
2515.47015,0.01663
2513.40998,0.01673
2511.34981,0.01691
2509.28964,0.01697
2507.22947,0.01683
2505.16929,0.01666
2503.10912,0.01669
2501.04895,0.01675
2498.98878,0.01667
2496.92861,0.01644
2494.86843,0.01613
2492.80826,0.01589
2490.74809,0.01566
2488.68792,0.01539
2486.62775,0.01519
2484.56757,0.01527
2482.50740,0.01555
2480.44723,0.01566
2478.38706,0.01572
2476.32688,0.01582
2474.26671,0.01573
2472.20654,0.01539
2470.14637,0.01489
2468.08620,0.01460
2466.02602,0.01464
2463.96585,0.01463
2461.90568,0.01464
2459.84551,0.01490
2457.78534,0.01500
2455.72516,0.01470
2453.66499,0.01441
2451.60482,0.01427
2449.54465,0.01413
2447.48447,0.01397
2445.42430,0.01381
2443.36413,0.01382
2441.30396,0.01383
2439.24379,0.01379
2437.18361,0.01388
2435.12344,0.01383
2433.06327,0.01342
2431.00310,0.01306
2428.94293,0.01331
2426.88275,0.01390
2424.82258,0.01408
2422.76241,0.01363
2420.70224,0.01307
2418.64207,0.01269
2416.58189,0.01244
2414.52172,0.01239
2412.46155,0.01254
2410.40138,0.01268
2408.34120,0.01276
2406.28103,0.01280
2404.22086,0.01266
2402.16069,0.01240
2400.10052,0.01225
2398.04034,0.01219
2395.98017,0.01209
2393.92000,0.01192
2391.85983,0.01169
2389.79966,0.01152
2387.73948,0.01162
2385.67931,0.01200
2383.61914,0.01227
2381.55897,0.01200
2379.49880,0.01122
2377.43862,0.01067
2375.37845,0.01061
2373.31828,0.01086
2371.25811,0.01130
2369.19793,0.01194
2367.13776,0.01278
2365.07759,0.01182
2363.01742,0.00761
2360.95725,0.00538
2358.89707,0.00642
2356.83690,0.00931
2354.77673,0.01121
2352.71656,0.01145
2350.65639,0.01295
2348.59621,0.01369
2346.53604,0.01064
2344.47587,0.01010
2342.41570,0.01103
2340.35552,0.01162
2338.29535,0.01251
2336.23518,0.01313
2334.17501,0.01282
2332.11484,0.01177
2330.05466,0.01164
2327.99449,0.01201
2325.93432,0.01237
2323.87415,0.01182
2321.81398,0.01155
2319.75380,0.01164
2317.69363,0.01218
2315.63346,0.01210
2313.57329,0.01157
2311.51312,0.01108
2309.45294,0.01083
2307.39277,0.01090
2305.33260,0.01094
2303.27243,0.01064
2301.21225,0.01002
2299.15208,0.00967
2297.09191,0.00962
2295.03174,0.00966
2292.97157,0.00974
2290.91139,0.00981
2288.85122,0.00979
2286.79105,0.00967
2284.73088,0.00962
2282.67071,0.00977
2280.61053,0.00994
2278.55036,0.00980
2276.49019,0.00933
2274.43002,0.00881
2272.36984,0.00837
2270.30967,0.00810
2268.24950,0.00807
2266.18933,0.00843
2264.12916,0.00893
2262.06898,0.00923
2260.00881,0.00892
2257.94864,0.00813
2255.88847,0.00786
2253.82830,0.00828
2251.76812,0.00843
2249.70795,0.00811
2247.64778,0.00784
2245.58761,0.00754
2243.52744,0.00729
2241.46726,0.00745
2239.40709,0.00768
2237.34692,0.00751
2235.28675,0.00764
2233.22657,0.00825
2231.16640,0.00822
2229.10623,0.00723
2227.04606,0.00597
2224.98589,0.00544
2222.92571,0.00599
2220.86554,0.00693
2218.80537,0.00757
2216.74520,0.00778
2214.68503,0.00736
2212.62485,0.00677
2210.56468,0.00666
2208.50451,0.00665
2206.44434,0.00662
2204.38417,0.00673
2202.32399,0.00679
2200.26382,0.00653
2198.20365,0.00631
2196.14348,0.00670
2194.08330,0.00721
2192.02313,0.00716
2189.96296,0.00673
2187.90279,0.00671
2185.84262,0.00690
2183.78244,0.00623
2181.72227,0.00524
2179.66210,0.00554
2177.60193,0.00638
2175.54176,0.00630
2173.48158,0.00609
2171.42141,0.00595
2169.36124,0.00527
2167.30107,0.00545
2165.24089,0.00722
2163.18072,0.00826
2161.12055,0.00675
2159.06038,0.00440
2157.00021,0.00308
2154.94003,0.00309
2152.87986,0.00425
2150.81969,0.00472
2148.75952,0.00387
2146.69935,0.00367
2144.63917,0.00470
2142.57900,0.00547
2140.51883,0.00560
2138.45866,0.00590
2136.39849,0.00645
2134.33831,0.00640
2132.27814,0.00585
2130.21797,0.00560
2128.15780,0.00558
2126.09762,0.00605
2124.03745,0.00712
2121.97728,0.00792
2119.91711,0.00810
2117.85694,0.00783
2115.79676,0.00754
2113.73659,0.00756
2111.67642,0.00737
2109.61625,0.00706
2107.55608,0.00708
2105.49590,0.00713
2103.43573,0.00725
2101.37556,0.00755
2099.31539,0.00786
2097.25521,0.00777
2095.19504,0.00728
2093.13487,0.00709
2091.07470,0.00731
2089.01453,0.00737
2086.95435,0.00687
2084.89418,0.00617
2082.83401,0.00622
2080.77384,0.00696
2078.71367,0.00706
2076.65349,0.00643
2074.59332,0.00606
2072.53315,0.00623
2070.47298,0.00676
2068.41281,0.00700
2066.35263,0.00649
2064.29246,0.00575
2062.23229,0.00529
2060.17212,0.00504
2058.11194,0.00489
2056.05177,0.00506
2053.99160,0.00562
2051.93143,0.00597
2049.87126,0.00562
2047.81108,0.00515
2045.75091,0.00505
2043.69074,0.00506
2041.63057,0.00508
2039.57040,0.00448
2037.51022,0.00318
2035.45005,0.00270
2033.38988,0.00283
2031.32971,0.00230
2029.26954,0.00229
2027.20936,0.00356
2025.14919,0.00490
2023.08902,0.00541
2021.02885,0.00495
2018.96867,0.00363
2016.90850,0.00262
2014.84833,0.00315
2012.78816,0.00449
2010.72799,0.00563
2008.66781,0.00597
2006.60764,0.00536
2004.54747,0.00489
2002.48730,0.00482
2000.42713,0.00489
1998.36695,0.00551
1996.30678,0.00634
1994.24661,0.00677
1992.18644,0.00646
1990.12626,0.00487
1988.06609,0.00286
1986.00592,0.00234
1983.94575,0.00363
1981.88558,0.00488
1979.82540,0.00441
1977.76523,0.00310
1975.70506,0.00271
1973.64489,0.00313
1971.58472,0.00374
1969.52454,0.00453
1967.46437,0.00524
1965.40420,0.00535
1963.34403,0.00463
1961.28386,0.00371
1959.22368,0.00343
1957.16351,0.00340
1955.10334,0.00310
1953.04317,0.00313
1950.98299,0.00367
1948.92282,0.00390
1946.86265,0.00353
1944.80248,0.00336
1942.74231,0.00361
1940.68213,0.00356
1938.62196,0.00321
1936.56179,0.00318
1934.50162,0.00347
1932.44145,0.00381
1930.38127,0.00430
1928.32110,0.00468
1926.26093,0.00450
1924.20076,0.00390
1922.14059,0.00335
1920.08041,0.00328
1918.02024,0.00383
1915.96007,0.00465
1913.89990,0.00528
1911.83972,0.00565
1909.77955,0.00549
1907.71938,0.00459
1905.65921,0.00358
1903.59904,0.00340
1901.53886,0.00385
1899.47869,0.00405
1897.41852,0.00402
1895.35835,0.00429
1893.29818,0.00458
1891.23800,0.00450
1889.17783,0.00417
1887.11766,0.00390
1885.05749,0.00385
1882.99731,0.00391
1880.93714,0.00378
1878.87697,0.00343
1876.81680,0.00316
1874.75663,0.00311
1872.69645,0.00308
1870.63628,0.00294
1868.57611,0.00296
1866.51594,0.00321
1864.45577,0.00335
1862.39559,0.00346
1860.33542,0.00360
1858.27525,0.00362
1856.21508,0.00352
1854.15491,0.00351
1852.09473,0.00356
1850.03456,0.00357
1847.97439,0.00346
1845.91422,0.00318
1843.85404,0.00292
1841.79387,0.00290
1839.73370,0.00301
1837.67353,0.00310
1835.61336,0.00314
1833.55318,0.00305
1831.49301,0.00277
1829.43284,0.00253
1827.37267,0.00253
1825.31250,0.00268
1823.25232,0.00270
1821.19215,0.00253
1819.13198,0.00231
1817.07181,0.00217
1815.01163,0.00215
1812.95146,0.00219
1810.89129,0.00220
1808.83112,0.00224
1806.77095,0.00235
1804.71077,0.00244
1802.65060,0.00235
1800.59043,0.00216
1798.53026,0.00214
1796.47009,0.00231
1794.40991,0.00251
1792.34974,0.00264
1790.28957,0.00274
1788.22940,0.00284
1786.16923,0.00295
1784.10905,0.00294
1782.04888,0.00276
1779.98871,0.00258
1777.92854,0.00246
1775.86836,0.00248
1773.80819,0.00252
1771.74802,0.00249
1769.68785,0.00263
1767.62768,0.00307
1765.56750,0.00359
1763.50733,0.00417
1761.44716,0.00506
1759.38699,0.00623
1757.32682,0.00745
1755.26664,0.00868
1753.20647,0.00991
1751.14630,0.01154
1749.08613,0.01412
1747.02596,0.01747
1744.96578,0.02129
1742.90561,0.02583
1740.84544,0.03127
1738.78527,0.03685
1736.72509,0.04143
1734.66492,0.04551
1732.60475,0.04939
1730.54458,0.05180
1728.48441,0.05268
1726.42423,0.05272
1724.36406,0.05238
1722.30389,0.05180
1720.24372,0.05105
1718.18355,0.05050
1716.12337,0.05066
1714.06320,0.05109
1712.00303,0.05116
1709.94286,0.05082
1707.88268,0.05006
1705.82251,0.04886
1703.76234,0.04755
1701.70217,0.04624
1699.64200,0.04483
1697.58182,0.04368
1695.52165,0.04281
1693.46148,0.04220
1691.40131,0.04172
1689.34114,0.04124
1687.28096,0.04071
1685.22079,0.03977
1683.16062,0.03864
1681.10045,0.03822
1679.04028,0.03832
1676.98010,0.03842
1674.91993,0.03836
1672.85976,0.03830
1670.79959,0.03861
1668.73941,0.03951
1666.67924,0.04074
1664.61907,0.04192
1662.55890,0.04317
1660.49873,0.04462
1658.43855,0.04604
1656.37838,0.04714
1654.31821,0.04800
1652.25804,0.04892
1650.19787,0.04962
1648.13769,0.04997
1646.07752,0.05025
1644.01735,0.05066
1641.95718,0.05107
1639.89701,0.05151
1637.83683,0.05210
1635.77666,0.05304
1633.71649,0.05428
1631.65632,0.05536
1629.59614,0.05619
1627.53597,0.05699
1625.47580,0.05785
1623.41563,0.05888
1621.35546,0.06005
1619.29528,0.06110
1617.23511,0.06227
1615.17494,0.06379
1613.11477,0.06518
1611.05460,0.06626
1608.99442,0.06716
1606.93425,0.06775
1604.87408,0.06778
1602.81391,0.06728
1600.75373,0.06641
1598.69356,0.06517
1596.63339,0.06348
1594.57322,0.06130
1592.51305,0.05885
1590.45287,0.05638
1588.39270,0.05390
1586.33253,0.05139
1584.27236,0.04893
1582.21219,0.04660
1580.15201,0.04447
1578.09184,0.04235
1576.03167,0.03997
1573.97150,0.03791
1571.91133,0.03647
1569.85115,0.03506
1567.79098,0.03370
1565.73081,0.03269
1563.67064,0.03185
1561.61046,0.03098
1559.55029,0.03017
1557.49012,0.02996
1555.42995,0.03023
1553.36978,0.03051
1551.30960,0.03074
1549.24943,0.03093
1547.18926,0.03105
1545.12909,0.03109
1543.06892,0.03086
1541.00874,0.03045
1538.94857,0.03046
1536.88840,0.03079
1534.82823,0.03070
1532.76805,0.02997
1530.70788,0.02910
1528.64771,0.02825
1526.58754,0.02728
1524.52737,0.02633
1522.46719,0.02557
1520.40702,0.02518
1518.34685,0.02533
1516.28668,0.02560
1514.22651,0.02553
1512.16633,0.02495
1510.10616,0.02374
1508.04599,0.02152
1505.98582,0.01883
1503.92565,0.01741
1501.86547,0.01677
1499.80530,0.01578
1497.74513,0.01414
1495.68496,0.01226
1493.62478,0.01079
1491.56461,0.00962
1489.50444,0.00841
1487.44427,0.00745
1485.38410,0.00712
1483.32392,0.00720
1481.26375,0.00752
1479.20358,0.00826
1477.14341,0.00978
1475.08324,0.01243
1473.02306,0.01628
1470.96289,0.02040
1468.90272,0.02377
1466.84255,0.02674
1464.78238,0.02974
1462.72220,0.03210
1460.66203,0.03334
1458.60186,0.03451
1456.54169,0.03687
1454.48151,0.03948
1452.42134,0.04131
1450.36117,0.04271
1448.30100,0.04403
1446.24083,0.04517
1444.18065,0.04588
1442.12048,0.04603
1440.06031,0.04550
1438.00014,0.04395
1435.93997,0.04149
1433.87979,0.03927
1431.81962,0.03753
1429.75945,0.03577
1427.69928,0.03425
1425.63910,0.03321
1423.57893,0.03262
1421.51876,0.03252
1419.45859,0.03266
1417.39842,0.03273
1415.33824,0.03271
1413.27807,0.03251
1411.21790,0.03216
1409.15773,0.03186
1407.09756,0.03174
1405.03738,0.03175
1402.97721,0.03183
1400.91704,0.03196
1398.85687,0.03226
1396.79670,0.03276
1394.73652,0.03333
1392.67635,0.03393
1390.61618,0.03453
1388.55601,0.03521
1386.49583,0.03616
1384.43566,0.03734
1382.37549,0.03866
1380.31532,0.04014
1378.25515,0.04163
1376.19497,0.04294
1374.13480,0.04411
1372.07463,0.04512
1370.01446,0.04587
1367.95429,0.04640
1365.89411,0.04673
1363.83394,0.04693
1361.77377,0.04719
1359.71360,0.04762
1357.65343,0.04807
1355.59325,0.04854
1353.53308,0.04920
1351.47291,0.05006
1349.41274,0.05086
1347.35256,0.05155
1345.29239,0.05226
1343.23222,0.05294
1341.17205,0.05353
1339.11188,0.05414
1337.05170,0.05483
1334.99153,0.05554
1332.93136,0.05632
1330.87119,0.05721
1328.81102,0.05818
1326.75084,0.05921
1324.69067,0.06024
1322.63050,0.06114
1320.57033,0.06189
1318.51015,0.06243
1316.44998,0.06252
1314.38981,0.06209
1312.32964,0.06127
1310.26947,0.06016
1308.20929,0.05865
1306.14912,0.05670
1304.08895,0.05441
1302.02878,0.05190
1299.96861,0.04926
1297.90843,0.04664
1295.84826,0.04417
1293.78809,0.04198
1291.72792,0.04022
1289.66775,0.03887
1287.60757,0.03776
1285.54740,0.03683
1283.48723,0.03626
1281.42706,0.03597
1279.36688,0.03575
1277.30671,0.03560
1275.24654,0.03572
1273.18637,0.03611
1271.12620,0.03661
1269.06602,0.03715
1267.00585,0.03779
1264.94568,0.03854
1262.88551,0.03928
1260.82534,0.04004
1258.76516,0.04089
1256.70499,0.04179
1254.64482,0.04266
1252.58465,0.04356
1250.52447,0.04451
1248.46430,0.04547
1246.40413,0.04638
1244.34396,0.04723
1242.28379,0.04813
1240.22361,0.04916
1238.16344,0.05036
1236.10327,0.05165
1234.04310,0.05287
1231.98293,0.05399
1229.92275,0.05515
1227.86258,0.05638
1225.80241,0.05765
1223.74224,0.05890
1221.68207,0.06003
1219.62189,0.06108
1217.56172,0.06230
1215.50155,0.06373
1213.44138,0.06511
1211.38120,0.06642
1209.32103,0.06790
1207.26086,0.06949
1205.20069,0.07106
1203.14052,0.07254
1201.08034,0.07383
1199.02017,0.07481
1196.96000,0.07547
1194.89983,0.07585
1192.83966,0.07584
1190.77948,0.07522
1188.71931,0.07407
1186.65914,0.07290
1184.59897,0.07190
1182.53880,0.07085
1180.47862,0.06979
1178.41845,0.06884
1176.35828,0.06799
1174.29811,0.06730
1172.23793,0.06676
1170.17776,0.06641
1168.11759,0.06611
1166.05742,0.06563
1163.99725,0.06495
1161.93707,0.06402
1159.87690,0.06286
1157.81673,0.06163
1155.75656,0.06030
1153.69639,0.05892
1151.63621,0.05755
1149.57604,0.05623
1147.51587,0.05493
1145.45570,0.05345
1143.39552,0.05178
1141.33535,0.05012
1139.27518,0.04848
1137.21501,0.04682
1135.15484,0.04551
1133.09466,0.04478
1131.03449,0.04445
1128.97432,0.04454
1126.91415,0.04526
1124.85398,0.04650
1122.79380,0.04810
1120.73363,0.05031
1118.67346,0.05318
1116.61329,0.05626
1114.55312,0.05940
1112.49294,0.06292
1110.43277,0.06674
1108.37260,0.07040
1106.31243,0.07378
1104.25225,0.07703
1102.19208,0.08003
1100.13191,0.08241
1098.07174,0.08411
1096.01157,0.08551
1093.95139,0.08704
1091.89122,0.08883
1089.83105,0.09083
1087.77088,0.09310
1085.71071,0.09568
1083.65053,0.09850
1081.59036,0.10150
1079.53019,0.10446
1077.47002,0.10713
1075.40985,0.10940
1073.34967,0.11119
1071.28950,0.11273
1069.22933,0.11427
1067.16916,0.11574
1065.10898,0.11721
1063.04881,0.11868
1060.98864,0.12002
1058.92847,0.12125
1056.86830,0.12254
1054.80812,0.12395
1052.74795,0.12548
1050.68778,0.12728
1048.62761,0.12944
1046.56744,0.13176
1044.50726,0.13409
1042.44709,0.13646
1040.38692,0.13902
1038.32675,0.14177
1036.26657,0.14461
1034.20640,0.14756
1032.14623,0.15039
1030.08606,0.15255
1028.02589,0.15381
1025.96571,0.15453
1023.90554,0.15503
1021.84537,0.15530
1019.78520,0.15532
1017.72503,0.15503
1015.66485,0.15455
1013.60468,0.15377
1011.54451,0.15223
1009.48434,0.14969
1007.42417,0.14644
1005.36399,0.14306
1003.30382,0.13960
1001.24365,0.13556
999.18348,0.13110
997.12330,0.12700
995.06313,0.12331
993.00296,0.11945
990.94279,0.11554
988.88262,0.11182
986.82244,0.10789
984.76227,0.10350
982.70210,0.09888
980.64193,0.09436
978.58176,0.09002
976.52158,0.08595
974.46141,0.08239
972.40124,0.07936
970.34107,0.07673
968.28089,0.07445
966.22072,0.07230
964.16055,0.07008
962.10038,0.06782
960.04021,0.06541
957.98003,0.06269
955.91986,0.05979
953.85969,0.05687
951.79952,0.05375
949.73935,0.05050
947.67917,0.04755
945.61900,0.04494
943.55883,0.04249
941.49866,0.04022
939.43849,0.03821
937.37831,0.03651
935.31814,0.03503
933.25797,0.03381
931.19780,0.03294
929.13762,0.03213
927.07745,0.03115
925.01728,0.03007
922.95711,0.02915
920.89694,0.02826
918.83676,0.02689
916.77659,0.02497
914.71642,0.02299
912.65625,0.02141
910.59608,0.01993
908.53590,0.01811
906.47573,0.01649
904.41556,0.01552
902.35539,0.01488
900.29522,0.01455
898.23504,0.01451
896.17487,0.01450
894.11470,0.01450
892.05453,0.01429
889.99435,0.01391
887.93418,0.01366
885.87401,0.01330
883.81384,0.01281
881.75367,0.01273
879.69349,0.01319
877.63332,0.01390
875.57315,0.01459
873.51298,0.01529
871.45281,0.01578
869.39263,0.01569
867.33246,0.01509
865.27229,0.01396
863.21212,0.01208
861.15194,0.00983
859.09177,0.00807
857.03160,0.00696
854.97143,0.00601
852.91126,0.00504
850.85108,0.00420
848.79091,0.00367
846.73074,0.00360
844.67057,0.00380
842.61040,0.00396
840.55022,0.00450
838.49005,0.00549
836.42988,0.00641
834.36971,0.00713
832.30954,0.00757
830.24936,0.00754
828.18919,0.00735
826.12902,0.00738
824.06885,0.00757
822.00867,0.00798
819.94850,0.00881
817.88833,0.00938
815.82816,0.00917
813.76799,0.00852
811.70781,0.00786
809.64764,0.00723
807.58747,0.00652
805.52730,0.00597
803.46713,0.00564
801.40695,0.00531
799.34678,0.00492
797.28661,0.00423
795.22644,0.00374
793.16627,0.00379
791.10609,0.00456
789.04592,0.00526
786.98575,0.00604
784.92558,0.00687
782.86540,0.00772
780.80523,0.00863
778.74506,0.00914
776.68489,0.00916
774.62472,0.00897
772.56454,0.00910
770.50437,0.01036
768.44420,0.01276
766.38403,0.01559
764.32386,0.01851
762.26368,0.02108
760.20351,0.02284
758.14334,0.02401
756.08317,0.02459
754.02299,0.02429
751.96282,0.02331
749.90265,0.02172
747.84248,0.01936
745.78231,0.01685
743.72213,0.01503
741.66196,0.01415
739.60179,0.01347
737.54162,0.01234
735.48145,0.01120
733.42127,0.01061
731.36110,0.01070
729.30093,0.01096
727.24076,0.01097
725.18059,0.01106
723.12041,0.01164
721.06024,0.01160
719.00007,0.01113
716.93990,0.00987
714.87972,0.00829
712.81955,0.00717
710.75938,0.00665
708.69921,0.00674
706.63904,0.00722
704.57886,0.00778
702.51869,0.00815
700.45852,0.00801
698.39835,0.00715
696.33818,0.00576
694.27800,0.00453
692.21783,0.00387
690.15766,0.00329
688.09749,0.00255
686.03731,0.00223
683.97714,0.00238
681.91697,0.00281
679.85680,0.00368
677.79663,0.00439
675.73645,0.00438
673.67628,0.00476
671.61611,0.00565
669.55594,0.00244
667.49577,0.00056
665.43559,0.00727
663.37542,0.00679
661.31525,0.00495
659.25508,0.00433
657.19491,0.00405
655.13473,0.00384
653.07456,0.00387
651.01439,0.00393
648.95422,0.00385
646.89404,0.00386
644.83387,0.00354
642.77370,0.00296
640.71353,0.00242
638.65336,0.00234
636.59318,0.00275
634.53301,0.00286
632.47284,0.00234
630.41267,0.00174
628.35250,0.00115
626.29232,0.00057
624.23215,0.00122
622.17198,0.00346
620.11181,0.00395
618.05164,0.00232
615.99146,0.00139
613.93129,0.00203
611.87112,0.00363
609.81095,0.00496
607.75077,0.00404
605.69060,0.00137
603.63043,0.00000
601.57026,0.00015
599.51009,0.00000
