3996.73391,0.00016
3994.67373,0.00020
3992.61356,0.00052
3990.55339,0.00073
3988.49322,0.00077
3986.43305,0.00062
3984.37287,0.00030
3982.31270,0.00009
3980.25253,0.00035
3978.19236,0.00111
3976.13219,0.00172
3974.07201,0.00153
3972.01184,0.00079
3969.95167,0.00032
3967.89150,0.00031
3965.83133,0.00029
3963.77115,0.00011
3961.71098,0.00000
3959.65081,0.00016
3957.59064,0.00050
3955.53046,0.00074
3953.47029,0.00075
3951.41012,0.00067
3949.34995,0.00062
3947.28978,0.00061
3945.22960,0.00060
3943.16943,0.00064
3941.10926,0.00084
3939.04909,0.00098
3936.98892,0.00077
3934.92874,0.00045
3932.86857,0.00034
3930.80840,0.00026
3928.74823,0.00014
3926.68805,0.00028
3924.62788,0.00062
3922.56771,0.00087
3920.50754,0.00098
3918.44737,0.00107
3916.38719,0.00131
3914.32702,0.00153
3912.26685,0.00145
3910.20668,0.00130
3908.14651,0.00151
3906.08633,0.00193
3904.02616,0.00189
3901.96599,0.00127
3899.90582,0.00078
3897.84565,0.00090
3895.78547,0.00145
3893.72530,0.00200
3891.66513,0.00219
3889.60496,0.00191
3887.54478,0.00145
3885.48461,0.00104
3883.42444,0.00057
3881.36427,0.00006
3879.30410,0.00006
3877.24392,0.00071
3875.18375,0.00125
3873.12358,0.00138
3871.06341,0.00143
3869.00324,0.00149
3866.94306,0.00150
3864.88289,0.00132
3862.82272,0.00095
3860.76255,0.00076
3858.70237,0.00087
3856.64220,0.00083
3854.58203,0.00037
3852.52186,0.00011
3850.46169,0.00051
3848.40151,0.00099
3846.34134,0.00129
3844.28117,0.00143
3842.22100,0.00154
3840.16083,0.00186
3838.10065,0.00222
3836.04048,0.00209
3833.98031,0.00167
3831.92014,0.00146
3829.85997,0.00142
3827.79979,0.00154
3825.73962,0.00186
3823.67945,0.00207
3821.61928,0.00190
3819.55910,0.00173
3817.49893,0.00210
3815.43876,0.00259
3813.37859,0.00252
3811.31842,0.00200
3809.25824,0.00144
3807.19807,0.00108
3805.13790,0.00098
3803.07773,0.00098
3801.01756,0.00092
3798.95738,0.00095
3796.89721,0.00119
3794.83704,0.00139
3792.77687,0.00148
3790.71670,0.00159
3788.65652,0.00170
3786.59635,0.00156
3784.53618,0.00112
3782.47601,0.00083
3780.41583,0.00098
3778.35566,0.00125
3776.29549,0.00126
3774.23532,0.00122
3772.17515,0.00152
3770.11497,0.00187
3768.05480,0.00162
3765.99463,0.00115
3763.93446,0.00127
3761.87429,0.00179
3759.81411,0.00204
3757.75394,0.00196
3755.69377,0.00200
3753.63360,0.00239
3751.57342,0.00269
3749.51325,0.00243
3747.45308,0.00201
3745.39291,0.00157
3743.33274,0.00097
3741.27256,0.00074
3739.21239,0.00105
3737.15222,0.00154
3735.09205,0.00192
3733.03188,0.00206
3730.97170,0.00191
3728.91153,0.00168
3726.85136,0.00176
3724.79119,0.00207
3722.73102,0.00203
3720.67084,0.00154
3718.61067,0.00120
3716.55050,0.00124
3714.49033,0.00150
3712.43015,0.00190
3710.36998,0.00205
3708.30981,0.00177
3706.24964,0.00138
3704.18947,0.00103
3702.12929,0.00095
3700.06912,0.00135
3698.00895,0.00191
3695.94878,0.00231
3693.88861,0.00246
3691.82843,0.00227
3689.76826,0.00201
3687.70809,0.00205
3685.64792,0.00214
3683.58775,0.00202
3681.52757,0.00186
3679.46740,0.00185
3677.40723,0.00196
3675.34706,0.00232
3673.28688,0.00295
3671.22671,0.00316
3669.16654,0.00259
3667.10637,0.00217
3665.04620,0.00249
3662.98602,0.00298
3660.92585,0.00317
3658.86568,0.00326
3656.80551,0.00347
3654.74534,0.00390
3652.68516,0.00442
3650.62499,0.00454
3648.56482,0.00403
3646.50465,0.00382
3644.44447,0.00441
3642.38430,0.00534
3640.32413,0.00607
3638.26396,0.00639
3636.20379,0.00658
3634.14361,0.00704
3632.08344,0.00759
3630.02327,0.00791
3627.96310,0.00821
3625.90293,0.00873
3623.84275,0.00925
3621.78258,0.00938
3619.72241,0.00896
3617.66224,0.00868
3615.60207,0.00898
3613.54189,0.00923
3611.48172,0.00935
3609.42155,0.00964
3607.36138,0.00990
3605.30120,0.01015
3603.24103,0.01053
3601.18086,0.01103
3599.12069,0.01141
3597.06052,0.01158
3595.00034,0.01195
3592.94017,0.01259
3590.88000,0.01300
3588.81983,0.01300
3586.75966,0.01310
3584.69948,0.01369
3582.63931,0.01439
3580.57914,0.01481
3578.51897,0.01486
3576.45879,0.01468
3574.39862,0.01456
3572.33845,0.01477
3570.27828,0.01550
3568.21811,0.01660
3566.15793,0.01723
3564.09776,0.01716
3562.03759,0.01704
3559.97742,0.01703
3557.91725,0.01712
3555.85707,0.01751
3553.79690,0.01808
3551.73673,0.01848
3549.67656,0.01877
3547.61639,0.01907
3545.55621,0.01918
3543.49604,0.01909
3541.43587,0.01900
3539.37570,0.01921
3537.31552,0.01981
3535.25535,0.02054
3533.19518,0.02119
3531.13501,0.02174
3529.07484,0.02207
3527.01466,0.02217
3524.95449,0.02224
3522.89432,0.02235
3520.83415,0.02243
3518.77398,0.02250
3516.71380,0.02271
3514.65363,0.02315
3512.59346,0.02355
3510.53329,0.02363
3508.47312,0.02360
3506.41294,0.02380
3504.35277,0.02409
3502.29260,0.02434
3500.23243,0.02481
3498.17225,0.02531
3496.11208,0.02559
3494.05191,0.02578
3491.99174,0.02611
3489.93157,0.02648
3487.87139,0.02675
3485.81122,0.02698
3483.75105,0.02718
3481.69088,0.02719
3479.63071,0.02715
3477.57053,0.02728
3475.51036,0.02761
3473.45019,0.02807
3471.39002,0.02838
3469.32984,0.02851
3467.26967,0.02887
3465.20950,0.02933
3463.14933,0.02932
3461.08916,0.02921
3459.02898,0.02968
3456.96881,0.03036
3454.90864,0.03057
3452.84847,0.03043
3450.78830,0.03042
3448.72812,0.03067
3446.66795,0.03100
3444.60778,0.03107
3442.54761,0.03092
3440.48744,0.03091
3438.42726,0.03107
3436.36709,0.03134
3434.30692,0.03179
3432.24675,0.03203
3430.18657,0.03185
3428.12640,0.03179
3426.06623,0.03215
3424.00606,0.03261
3421.94589,0.03274
3419.88571,0.03274
3417.82554,0.03302
3415.76537,0.03334
3413.70520,0.03353
3411.64503,0.03357
3409.58485,0.03355
3407.52468,0.03366
3405.46451,0.03382
3403.40434,0.03381
3401.34416,0.03369
3399.28399,0.03383
3397.22382,0.03422
3395.16365,0.03442
3393.10348,0.03440
3391.04330,0.03440
3388.98313,0.03443
3386.92296,0.03441
3384.86279,0.03444
3382.80262,0.03450
3380.74244,0.03449
3378.68227,0.03449
3376.62210,0.03471
3374.56193,0.03497
3372.50176,0.03498
3370.44158,0.03489
3368.38141,0.03479
3366.32124,0.03470
3364.26107,0.03484
3362.20089,0.03519
3360.14072,0.03536
3358.08055,0.03521
3356.02038,0.03516
3353.96021,0.03538
3351.90003,0.03558
3349.83986,0.03576
3347.77969,0.03587
3345.71952,0.03570
3343.65935,0.03535
3341.59917,0.03522
3339.53900,0.03545
3337.47883,0.03550
3335.41866,0.03515
3333.35849,0.03504
3331.29831,0.03547
3329.23814,0.03585
3327.17797,0.03593
3325.11780,0.03589
3323.05762,0.03576
3320.99745,0.03582
3318.93728,0.03620
3316.87711,0.03629
3314.81694,0.03601
3312.75676,0.03600
3310.69659,0.03611
3308.63642,0.03601
3306.57625,0.03583
3304.51608,0.03566
3302.45590,0.03558
3300.39573,0.03576
3298.33556,0.03592
3296.27539,0.03567
3294.21521,0.03541
3292.15504,0.03561
3290.09487,0.03603
3288.03470,0.03627
3285.97453,0.03626
3283.91435,0.03617
3281.85418,0.03607
3279.79401,0.03584
3277.73384,0.03575
3275.67367,0.03610
3273.61349,0.03650
3271.55332,0.03650
3269.49315,0.03624
3267.43298,0.03620
3265.37281,0.03651
3263.31263,0.03683
3261.25246,0.03685
3259.19229,0.03673
3257.13212,0.03662
3255.07194,0.03654
3253.01177,0.03652
3250.95160,0.03650
3248.89143,0.03641
3246.83126,0.03637
3244.77108,0.03635
3242.71091,0.03639
3240.65074,0.03659
3238.59057,0.03658
3236.53040,0.03624
3234.47022,0.03609
3232.41005,0.03618
3230.34988,0.03614
3228.28971,0.03592
3226.22954,0.03573
3224.16936,0.03564
3222.10919,0.03573
3220.04902,0.03604
3217.98885,0.03627
3215.92867,0.03617
3213.86850,0.03601
3211.80833,0.03615
3209.74816,0.03630
3207.68799,0.03625
3205.62781,0.03618
3203.56764,0.03600
3201.50747,0.03578
3199.44730,0.03586
3197.38713,0.03603
3195.32695,0.03587
3193.26678,0.03540
3191.20661,0.03509
3189.14644,0.03524
3187.08626,0.03546
3185.02609,0.03539
3182.96592,0.03530
3180.90575,0.03539
3178.84558,0.03550
3176.78540,0.03555
3174.72523,0.03552
3172.66506,0.03530
3170.60489,0.03491
3168.54472,0.03459
3166.48454,0.03439
3164.42437,0.03423
3162.36420,0.03408
3160.30403,0.03384
3158.24386,0.03370
3156.18368,0.03390
3154.12351,0.03414
3152.06334,0.03410
3150.00317,0.03391
3147.94299,0.03366
3145.88282,0.03342
3143.82265,0.03341
3141.76248,0.03342
3139.70231,0.03323
3137.64213,0.03302
3135.58196,0.03298
3133.52179,0.03295
3131.46162,0.03286
3129.40145,0.03283
3127.34127,0.03268
3125.28110,0.03237
3123.22093,0.03223
3121.16076,0.03234
3119.10058,0.03246
3117.04041,0.03242
3114.98024,0.03210
3112.92007,0.03177
3110.85990,0.03166
3108.79972,0.03153
3106.73955,0.03130
3104.67938,0.03115
3102.61921,0.03106
3100.55904,0.03082
3098.49886,0.03047
3096.43869,0.03035
3094.37852,0.03055
3092.31835,0.03070
3090.25818,0.03063
3088.19800,0.03056
3086.13783,0.03065
3084.07766,0.03063
3082.01749,0.03024
3079.95731,0.02983
3077.89714,0.02982
3075.83697,0.02996
3073.77680,0.02985
3071.71663,0.02959
3069.65645,0.02941
3067.59628,0.02928
3065.53611,0.02917
3063.47594,0.02905
3061.41577,0.02875
3059.35559,0.02845
3057.29542,0.02836
3055.23525,0.02833
3053.17508,0.02829
3051.11491,0.02818
3049.05473,0.02799
3046.99456,0.02777
3044.93439,0.02746
3042.87422,0.02714
3040.81404,0.02704
3038.75387,0.02700
3036.69370,0.02687
3034.63353,0.02675
3032.57336,0.02655
3030.51318,0.02619
3028.45301,0.02579
3026.39284,0.02552
3024.33267,0.02549
3022.27250,0.02555
3020.21232,0.02555
3018.15215,0.02560
3016.09198,0.02553
3014.03181,0.02526
3011.97163,0.02501
3009.91146,0.02484
3007.85129,0.02472
3005.79112,0.02462
3003.73095,0.02434
3001.67077,0.02393
2999.61060,0.02375
2997.55043,0.02365
2995.49026,0.02334
2993.43009,0.02324
2991.36991,0.02337
2989.30974,0.02337
2987.24957,0.02328
2985.18940,0.02307
2983.12923,0.02290
2981.06905,0.02309
2979.00888,0.02314
2976.94871,0.02291
2974.88854,0.02296
2972.82836,0.02317
2970.76819,0.02298
2968.70802,0.02270
2966.64785,0.02279
2964.58768,0.02277
2962.52750,0.02235
2960.46733,0.02197
2958.40716,0.02182
2956.34699,0.02169
2954.28682,0.02160
2952.22664,0.02156
2950.16647,0.02161
2948.10630,0.02187
2946.04613,0.02208
2943.98596,0.02190
2941.92578,0.02152
2939.86561,0.02140
2937.80544,0.02148
2935.74527,0.02151
2933.68509,0.02153
2931.62492,0.02146
2929.56475,0.02136
2927.50458,0.02127
2925.44441,0.02100
2923.38423,0.02061
2921.32406,0.02030
2919.26389,0.02026
2917.20372,0.02049
2915.14355,0.02069
2913.08337,0.02065
2911.02320,0.02019
2908.96303,0.01968
2906.90286,0.01972
2904.84268,0.02002
2902.78251,0.02001
2900.72234,0.01982
2898.66217,0.01971
2896.60200,0.01944
2894.54182,0.01913
2892.48165,0.01914
2890.42148,0.01938
2888.36131,0.01956
2886.30114,0.01959
2884.24096,0.01946
2882.18079,0.01922
2880.12062,0.01910
2878.06045,0.01910
2876.00028,0.01896
2873.94010,0.01876
2871.87993,0.01865
2869.81976,0.01854
2867.75959,0.01841
2865.69941,0.01837
2863.63924,0.01837
2861.57907,0.01841
2859.51890,0.01848
2857.45873,0.01846
2855.39855,0.01826
2853.33838,0.01797
2851.27821,0.01773
2849.21804,0.01756
2847.15787,0.01737
2845.09769,0.01717
2843.03752,0.01714
2840.97735,0.01711
2838.91718,0.01686
2836.85700,0.01665
2834.79683,0.01667
2832.73666,0.01685
2830.67649,0.01693
2828.61632,0.01678
2826.55614,0.01667
2824.49597,0.01660
2822.43580,0.01634
2820.37563,0.01610
2818.31546,0.01601
2816.25528,0.01606
2814.19511,0.01615
2812.13494,0.01603
2810.07477,0.01575
2808.01460,0.01566
2805.95442,0.01580
2803.89425,0.01584
2801.83408,0.01579
2799.77391,0.01586
2797.71373,0.01573
2795.65356,0.01532
2793.59339,0.01517
2791.53322,0.01536
2789.47305,0.01544
2787.41287,0.01526
2785.35270,0.01498
2783.29253,0.01475
2781.23236,0.01450
2779.17219,0.01425
2777.11201,0.01416
2775.05184,0.01425
2772.99167,0.01439
2770.93150,0.01448
2768.87133,0.01448
2766.81115,0.01431
2764.75098,0.01420
2762.69081,0.01433
2760.63064,0.01438
2758.57046,0.01420
2756.51029,0.01412
2754.45012,0.01420
2752.38995,0.01418
2750.32978,0.01405
2748.26960,0.01388
2746.20943,0.01372
2744.14926,0.01369
2742.08909,0.01369
2740.02892,0.01361
2737.96874,0.01360
2735.90857,0.01369
2733.84840,0.01362
2731.78823,0.01332
2729.72805,0.01314
2727.66788,0.01320
2725.60771,0.01322
2723.54754,0.01302
2721.48737,0.01286
2719.42719,0.01286
2717.36702,0.01285
2715.30685,0.01285
2713.24668,0.01297
2711.18651,0.01297
2709.12633,0.01274
2707.06616,0.01251
2705.00599,0.01243
2702.94582,0.01235
2700.88565,0.01224
2698.82547,0.01224
2696.76530,0.01234
2694.70513,0.01230
2692.64496,0.01205
2690.58478,0.01186
2688.52461,0.01186
2686.46444,0.01188
2684.40427,0.01178
2682.34410,0.01159
2680.28392,0.01146
2678.22375,0.01143
2676.16358,0.01137
2674.10341,0.01121
2672.04324,0.01093
2669.98306,0.01063
2667.92289,0.01068
2665.86272,0.01103
2663.80255,0.01118
2661.74238,0.01116
2659.68220,0.01124
2657.62203,0.01125
2655.56186,0.01100
2653.50169,0.01063
2651.44151,0.01039
2649.38134,0.01047
2647.32117,0.01065
2645.26100,0.01061
2643.20083,0.01048
2641.14065,0.01051
2639.08048,0.01046
2637.02031,0.01020
2634.96014,0.01009
2632.89997,0.01029
2630.83979,0.01047
2628.77962,0.01021
2626.71945,0.00973
2624.65928,0.00952
2622.59910,0.00937
2620.53893,0.00910
2618.47876,0.00892
2616.41859,0.00877
2614.35842,0.00875
2612.29824,0.00915
2610.23807,0.00957
2608.17790,0.00954
2606.11773,0.00933
2604.05756,0.00923
2601.99738,0.00929
2599.93721,0.00935
2597.87704,0.00930
2595.81687,0.00930
2593.75670,0.00947
2591.69652,0.00958
2589.63635,0.00936
2587.57618,0.00908
2585.51601,0.00909
2583.45583,0.00931
2581.39566,0.00946
2579.33549,0.00934
2577.27532,0.00935
2575.21515,0.00957
2573.15497,0.00940
2571.09480,0.00901
2569.03463,0.00900
2566.97446,0.00912
2564.91429,0.00888
2562.85411,0.00851
2560.79394,0.00839
2558.73377,0.00824
2556.67360,0.00793
2554.61342,0.00803
2552.55325,0.00847
2550.49308,0.00876
2548.43291,0.00871
2546.37274,0.00813
2544.31256,0.00781
2542.25239,0.00816
2540.19222,0.00850
2538.13205,0.00869
2536.07188,0.00884
2534.01170,0.00871
2531.95153,0.00840
2529.89136,0.00825
2527.83119,0.00837
2525.77102,0.00866
2523.71084,0.00892
2521.65067,0.00904
2519.59050,0.00903
2517.53033,0.00879
2515.47015,0.00853
2513.40998,0.00857
2511.34981,0.00867
2509.28964,0.00873
2507.22947,0.00876
2505.16929,0.00873
2503.10912,0.00885
2501.04895,0.00914
2498.98878,0.00956
2496.92861,0.00982
2494.86843,0.00960
2492.80826,0.00935
2490.74809,0.00942
2488.68792,0.00942
2486.62775,0.00919
2484.56757,0.00896
2482.50740,0.00882
2480.44723,0.00881
2478.38706,0.00898
2476.32688,0.00932
2474.26671,0.00965
2472.20654,0.00980
2470.14637,0.00981
2468.08620,0.00964
2466.02602,0.00937
2463.96585,0.00937
2461.90568,0.00961
2459.84551,0.00969
2457.78534,0.00933
2455.72516,0.00897
2453.66499,0.00928
2451.60482,0.00985
2449.54465,0.00998
2447.48447,0.00943
2445.42430,0.00897
2443.36413,0.00949
2441.30396,0.01027
2439.24379,0.01032
2437.18361,0.00998
2435.12344,0.00992
2433.06327,0.00997
2431.00310,0.00978
2428.94293,0.00953
2426.88275,0.00941
2424.82258,0.00948
2422.76241,0.00965
2420.70224,0.00982
2418.64207,0.00964
2416.58189,0.00917
2414.52172,0.00903
2412.46155,0.00914
2410.40138,0.00911
2408.34120,0.00932
2406.28103,0.00979
2404.22086,0.00983
2402.16069,0.00944
2400.10052,0.00928
2398.04034,0.00927
2395.98017,0.00922
2393.92000,0.00923
2391.85983,0.00935
2389.79966,0.00952
2387.73948,0.00970
2385.67931,0.00989
2383.61914,0.01017
2381.55897,0.01044
2379.49880,0.01040
2377.43862,0.00995
2375.37845,0.00965
2373.31828,0.01029
2371.25811,0.01145
2369.19793,0.01191
2367.13776,0.01156
2365.07759,0.01037
2363.01742,0.00769
2360.95725,0.00512
2358.89707,0.00528
2356.83690,0.00708
2354.77673,0.00803
2352.71656,0.00823
2350.65639,0.00843
2348.59621,0.00842
2346.53604,0.00803
2344.47587,0.00815
2342.41570,0.00978
2340.35552,0.01146
2338.29535,0.01148
2336.23518,0.01122
2334.17501,0.01173
2332.11484,0.01168
2330.05466,0.01058
2327.99449,0.00950
2325.93432,0.00887
2323.87415,0.00856
2321.81398,0.00854
2319.75380,0.00889
2317.69363,0.00925
2315.63346,0.00916
2313.57329,0.00893
2311.51312,0.00905
2309.45294,0.00947
2307.39277,0.00973
2305.33260,0.00952
2303.27243,0.00918
2301.21225,0.00907
2299.15208,0.00914
2297.09191,0.00941
2295.03174,0.00981
2292.97157,0.01001
2290.91139,0.00992
2288.85122,0.00977
2286.79105,0.00964
2284.73088,0.00951
2282.67071,0.00936
2280.61053,0.00921
2278.55036,0.00908
2276.49019,0.00879
2274.43002,0.00847
2272.36984,0.00871
2270.30967,0.00940
2268.24950,0.00971
2266.18933,0.00928
2264.12916,0.00843
2262.06898,0.00771
2260.00881,0.00773
2257.94864,0.00847
2255.88847,0.00898
2253.82830,0.00864
2251.76812,0.00824
2249.70795,0.00837
2247.64778,0.00820
2245.58761,0.00778
2243.52744,0.00804
2241.46726,0.00878
2239.40709,0.00938
2237.34692,0.00971
2235.28675,0.00985
2233.22657,0.00924
2231.16640,0.00783
2229.10623,0.00676
2227.04606,0.00632
2224.98589,0.00608
2222.92571,0.00676
2220.86554,0.00789
2218.80537,0.00763
2216.74520,0.00661
2214.68503,0.00684
2212.62485,0.00772
2210.56468,0.00766
2208.50451,0.00711
2206.44434,0.00722
2204.38417,0.00760
2202.32399,0.00722
2200.26382,0.00655
2198.20365,0.00664
2196.14348,0.00703
2194.08330,0.00714
2192.02313,0.00737
2189.96296,0.00760
2187.90279,0.00773
2185.84262,0.00783
2183.78244,0.00739
2181.72227,0.00621
2179.66210,0.00493
2177.60193,0.00433
2175.54176,0.00447
2173.48158,0.00525
2171.42141,0.00670
2169.36124,0.00768
2167.30107,0.00665
2165.24089,0.00468
2163.18072,0.00402
2161.12055,0.00405
2159.06038,0.00402
2157.00021,0.00456
2154.94003,0.00520
2152.87986,0.00527
2150.81969,0.00462
2148.75952,0.00438
2146.69935,0.00519
2144.63917,0.00607
2142.57900,0.00644
2140.51883,0.00598
2138.45866,0.00516
2136.39849,0.00534
2134.33831,0.00587
2132.27814,0.00557
2130.21797,0.00532
2128.15780,0.00551
2126.09762,0.00537
2124.03745,0.00575
2121.97728,0.00729
2119.91711,0.00818
2117.85694,0.00775
2115.79676,0.00728
2113.73659,0.00724
2111.67642,0.00736
2109.61625,0.00732
2107.55608,0.00748
2105.49590,0.00816
2103.43573,0.00860
2101.37556,0.00849
2099.31539,0.00801
2097.25521,0.00736
2095.19504,0.00694
2093.13487,0.00664
2091.07470,0.00635
2089.01453,0.00662
2086.95435,0.00707
2084.89418,0.00664
2082.83401,0.00591
2080.77384,0.00598
2078.71367,0.00663
2076.65349,0.00723
2074.59332,0.00779
2072.53315,0.00799
2070.47298,0.00730
2068.41281,0.00639
2066.35263,0.00607
2064.29246,0.00589
2062.23229,0.00573
2060.17212,0.00601
2058.11194,0.00639
2056.05177,0.00623
2053.99160,0.00541
2051.93143,0.00440
2049.87126,0.00375
2047.81108,0.00351
2045.75091,0.00327
2043.69074,0.00349
2041.63057,0.00447
2039.57040,0.00478
2037.51022,0.00439
2035.45005,0.00481
2033.38988,0.00568
2031.32971,0.00586
2029.26954,0.00609
2027.20936,0.00672
2025.14919,0.00675
2023.08902,0.00638
2021.02885,0.00578
2018.96867,0.00544
2016.90850,0.00582
2014.84833,0.00557
2012.78816,0.00475
2010.72799,0.00382
2008.66781,0.00225
2006.60764,0.00137
2004.54747,0.00226
2002.48730,0.00375
2000.42713,0.00503
1998.36695,0.00596
1996.30678,0.00644
1994.24661,0.00652
1992.18644,0.00642
1990.12626,0.00684
1988.06609,0.00749
1986.00592,0.00702
1983.94575,0.00522
1981.88558,0.00363
1979.82540,0.00348
1977.76523,0.00410
1975.70506,0.00489
1973.64489,0.00548
1971.58472,0.00516
1969.52454,0.00417
1967.46437,0.00342
1965.40420,0.00299
1963.34403,0.00292
1961.28386,0.00384
1959.22368,0.00496
1957.16351,0.00534
1955.10334,0.00558
1953.04317,0.00640
1950.98299,0.00733
1948.92282,0.00748
1946.86265,0.00675
1944.80248,0.00574
1942.74231,0.00539
1940.68213,0.00552
1938.62196,0.00535
1936.56179,0.00507
1934.50162,0.00520
1932.44145,0.00558
1930.38127,0.00560
1928.32110,0.00535
1926.26093,0.00523
1924.20076,0.00532
1922.14059,0.00535
1920.08041,0.00489
1918.02024,0.00442
1915.96007,0.00482
1913.89990,0.00571
1911.83972,0.00589
1909.77955,0.00507
1907.71938,0.00427
1905.65921,0.00428
1903.59904,0.00473
1901.53886,0.00505
1899.47869,0.00494
1897.41852,0.00452
1895.35835,0.00418
1893.29818,0.00409
1891.23800,0.00430
1889.17783,0.00462
1887.11766,0.00472
1885.05749,0.00482
1882.99731,0.00495
1880.93714,0.00474
1878.87697,0.00429
1876.81680,0.00404
1874.75663,0.00418
1872.69645,0.00454
1870.63628,0.00493
1868.57611,0.00532
1866.51594,0.00557
1864.45577,0.00551
1862.39559,0.00531
1860.33542,0.00524
1858.27525,0.00535
1856.21508,0.00548
1854.15491,0.00541
1852.09473,0.00510
1850.03456,0.00485
1847.97439,0.00476
1845.91422,0.00467
1843.85404,0.00463
1841.79387,0.00474
1839.73370,0.00475
1837.67353,0.00457
1835.61336,0.00452
1833.55318,0.00467
1831.49301,0.00480
1829.43284,0.00490
1827.37267,0.00507
1825.31250,0.00519
1823.25232,0.00526
1821.19215,0.00531
1819.13198,0.00519
1817.07181,0.00497
1815.01163,0.00491
1812.95146,0.00503
1810.89129,0.00502
1808.83112,0.00481
1806.77095,0.00477
1804.71077,0.00508
1802.65060,0.00547
1800.59043,0.00553
1798.53026,0.00524
1796.47009,0.00495
1794.40991,0.00478
1792.34974,0.00473
1790.28957,0.00493
1788.22940,0.00532
1786.16923,0.00557
1784.10905,0.00555
1782.04888,0.00543
1779.98871,0.00532
1777.92854,0.00513
1775.86836,0.00493
1773.80819,0.00495
1771.74802,0.00519
1769.68785,0.00534
1767.62768,0.00528
1765.56750,0.00514
1763.50733,0.00512
1761.44716,0.00523
1759.38699,0.00534
1757.32682,0.00540
1755.26664,0.00556
1753.20647,0.00581
1751.14630,0.00589
1749.08613,0.00585
1747.02596,0.00592
1744.96578,0.00612
1742.90561,0.00638
1740.84544,0.00656
1738.78527,0.00654
1736.72509,0.00641
1734.66492,0.00621
1732.60475,0.00613
1730.54458,0.00641
1728.48441,0.00685
1726.42423,0.00721
1724.36406,0.00733
1722.30389,0.00722
1720.24372,0.00716
1718.18355,0.00734
1716.12337,0.00766
1714.06320,0.00789
1712.00303,0.00799
1709.94286,0.00808
1707.88268,0.00832
1705.82251,0.00862
1703.76234,0.00884
1701.70217,0.00908
1699.64200,0.00957
1697.58182,0.01011
1695.52165,0.01030
1693.46148,0.01027
1691.40131,0.01038
1689.34114,0.01064
1687.28096,0.01094
1685.22079,0.01107
1683.16062,0.01097
1681.10045,0.01116
1679.04028,0.01169
1676.98010,0.01215
1674.91993,0.01243
1672.85976,0.01267
1670.79959,0.01283
1668.73941,0.01289
1666.67924,0.01310
1664.61907,0.01342
1662.55890,0.01365
1660.49873,0.01383
1658.43855,0.01411
1656.37838,0.01445
1654.31821,0.01455
1652.25804,0.01418
1650.19787,0.01383
1648.13769,0.01373
1646.07752,0.01376
1644.01735,0.01396
1641.95718,0.01419
1639.89701,0.01423
1637.83683,0.01404
1635.77666,0.01374
1633.71649,0.01351
1631.65632,0.01333
1629.59614,0.01311
1627.53597,0.01290
1625.47580,0.01273
1623.41563,0.01247
1621.35546,0.01210
1619.29528,0.01170
1617.23511,0.01127
1615.17494,0.01098
1613.11477,0.01095
1611.05460,0.01102
1608.99442,0.01100
1606.93425,0.01082
1604.87408,0.01054
1602.81391,0.01028
1600.75373,0.01011
1598.69356,0.00996
1596.63339,0.00967
1594.57322,0.00928
1592.51305,0.00897
1590.45287,0.00880
1588.39270,0.00866
1586.33253,0.00842
1584.27236,0.00807
1582.21219,0.00774
1580.15201,0.00760
1578.09184,0.00763
1576.03167,0.00759
1573.97150,0.00742
1571.91133,0.00719
1569.85115,0.00685
1567.79098,0.00664
1565.73081,0.00675
1563.67064,0.00694
1561.61046,0.00704
1559.55029,0.00678
1557.49012,0.00624
1555.42995,0.00599
1553.36978,0.00594
1551.30960,0.00588
1549.24943,0.00584
1547.18926,0.00593
1545.12909,0.00618
1543.06892,0.00631
1541.00874,0.00599
1538.94857,0.00546
1536.88840,0.00519
1534.82823,0.00506
1532.76805,0.00492
1530.70788,0.00492
1528.64771,0.00504
1526.58754,0.00504
1524.52737,0.00487
1522.46719,0.00467
1520.40702,0.00448
1518.34685,0.00427
1516.28668,0.00407
1514.22651,0.00407
1512.16633,0.00430
1510.10616,0.00453
1508.04599,0.00438
1505.98582,0.00385
1503.92565,0.00369
1501.86547,0.00389
1499.80530,0.00401
1497.74513,0.00389
1495.68496,0.00365
1493.62478,0.00361
1491.56461,0.00379
1489.50444,0.00388
1487.44427,0.00366
1485.38410,0.00345
1483.32392,0.00351
1481.26375,0.00372
1479.20358,0.00386
1477.14341,0.00389
1475.08324,0.00381
1473.02306,0.00365
1470.96289,0.00359
1468.90272,0.00372
1466.84255,0.00391
1464.78238,0.00402
1462.72220,0.00404
1460.66203,0.00412
1458.60186,0.00426
1456.54169,0.00433
1454.48151,0.00426
1452.42134,0.00419
1450.36117,0.00418
1448.30100,0.00411
1446.24083,0.00396
1444.18065,0.00381
1442.12048,0.00368
1440.06031,0.00365
1438.00014,0.00368
1435.93997,0.00368
1433.87979,0.00362
1431.81962,0.00356
1429.75945,0.00353
1427.69928,0.00360
1425.63910,0.00373
1423.57893,0.00384
1421.51876,0.00389
1419.45859,0.00387
1417.39842,0.00376
1415.33824,0.00365
1413.27807,0.00361
1411.21790,0.00359
1409.15773,0.00355
1407.09756,0.00346
1405.03738,0.00332
1402.97721,0.00322
1400.91704,0.00331
1398.85687,0.00350
1396.79670,0.00356
1394.73652,0.00339
1392.67635,0.00319
1390.61618,0.00323
1388.55601,0.00334
1386.49583,0.00329
1384.43566,0.00319
1382.37549,0.00316
1380.31532,0.00322
1378.25515,0.00332
1376.19497,0.00340
1374.13480,0.00353
1372.07463,0.00366
1370.01446,0.00366
1367.95429,0.00349
1365.89411,0.00330
1363.83394,0.00314
1361.77377,0.00300
1359.71360,0.00290
1357.65343,0.00291
1355.59325,0.00306
1353.53308,0.00320
1351.47291,0.00323
1349.41274,0.00318
1347.35256,0.00310
1345.29239,0.00299
1343.23222,0.00285
1341.17205,0.00274
1339.11188,0.00280
1337.05170,0.00298
1334.99153,0.00305
1332.93136,0.00298
1330.87119,0.00298
1328.81102,0.00307
1326.75084,0.00297
1324.69067,0.00268
1322.63050,0.00251
1320.57033,0.00262
1318.51015,0.00284
1316.44998,0.00296
1314.38981,0.00290
1312.32964,0.00271
1310.26947,0.00257
1308.20929,0.00256
1306.14912,0.00258
1304.08895,0.00253
1302.02878,0.00245
1299.96861,0.00243
1297.90843,0.00251
1295.84826,0.00265
1293.78809,0.00279
1291.72792,0.00284
1289.66775,0.00280
1287.60757,0.00279
1285.54740,0.00291
1283.48723,0.00303
1281.42706,0.00302
1279.36688,0.00294
1277.30671,0.00299
1275.24654,0.00320
1273.18637,0.00341
1271.12620,0.00350
1269.06602,0.00338
1267.00585,0.00311
1264.94568,0.00288
1262.88551,0.00277
1260.82534,0.00266
1258.76516,0.00259
1256.70499,0.00268
1254.64482,0.00291
1252.58465,0.00308
1250.52447,0.00306
1248.46430,0.00299
1246.40413,0.00298
1244.34396,0.00290
1242.28379,0.00269
1240.22361,0.00248
1238.16344,0.00241
1236.10327,0.00241
1234.04310,0.00249
1231.98293,0.00268
1229.92275,0.00273
1227.86258,0.00261
1225.80241,0.00256
1223.74224,0.00250
1221.68207,0.00227
1219.62189,0.00204
1217.56172,0.00200
1215.50155,0.00206
1213.44138,0.00214
1211.38120,0.00214
1209.32103,0.00201
1207.26086,0.00194
1205.20069,0.00198
1203.14052,0.00203
1201.08034,0.00199
1199.02017,0.00194
1196.96000,0.00199
1194.89983,0.00197
1192.83966,0.00196
1190.77948,0.00210
1188.71931,0.00223
1186.65914,0.00243
1184.59897,0.00278
1182.53880,0.00307
1180.47862,0.00320
1178.41845,0.00329
1176.35828,0.00350
1174.29811,0.00388
1172.23793,0.00433
1170.17776,0.00480
1168.11759,0.00538
1166.05742,0.00583
1163.99725,0.00606
1161.93707,0.00638
1159.87690,0.00684
1157.81673,0.00716
1155.75656,0.00731
1153.69639,0.00754
1151.63621,0.00790
1149.57604,0.00826
1147.51587,0.00860
1145.45570,0.00890
1143.39552,0.00928
1141.33535,0.00988
1139.27518,0.01046
1137.21501,0.01084
1135.15484,0.01123
1133.09466,0.01174
1131.03449,0.01228
1128.97432,0.01284
1126.91415,0.01339
1124.85398,0.01375
1122.79380,0.01405
1120.73363,0.01464
1118.67346,0.01530
1116.61329,0.01570
1114.55312,0.01606
1112.49294,0.01660
1110.43277,0.01733
1108.37260,0.01820
1106.31243,0.01901
1104.25225,0.01971
1102.19208,0.02039
1100.13191,0.02110
1098.07174,0.02183
1096.01157,0.02237
1093.95139,0.02274
1091.89122,0.02318
1089.83105,0.02361
1087.77088,0.02406
1085.71071,0.02469
1083.65053,0.02532
1081.59036,0.02582
1079.53019,0.02621
1077.47002,0.02644
1075.40985,0.02667
1073.34967,0.02708
1071.28950,0.02750
1069.22933,0.02779
1067.16916,0.02795
1065.10898,0.02791
1063.04881,0.02786
1060.98864,0.02798
1058.92847,0.02810
1056.86830,0.02807
1054.80812,0.02791
1052.74795,0.02756
1050.68778,0.02720
1048.62761,0.02687
1046.56744,0.02634
1044.50726,0.02566
1042.44709,0.02513
1040.38692,0.02466
1038.32675,0.02406
1036.26657,0.02332
1034.20640,0.02254
1032.14623,0.02203
1030.08606,0.02181
1028.02589,0.02160
1025.96571,0.02123
1023.90554,0.02060
1021.84537,0.01986
1019.78520,0.01927
1017.72503,0.01878
1015.66485,0.01834
1013.60468,0.01802
1011.54451,0.01788
1009.48434,0.01787
1007.42417,0.01787
1005.36399,0.01771
1003.30382,0.01760
1001.24365,0.01783
999.18348,0.01825
997.12330,0.01856
995.06313,0.01881
993.00296,0.01926
990.94279,0.01990
988.88262,0.02035
986.82244,0.02045
984.76227,0.02043
982.70210,0.02040
980.64193,0.02025
978.58176,0.01997
976.52158,0.01952
974.46141,0.01900
972.40124,0.01839
970.34107,0.01738
968.28089,0.01614
966.22072,0.01522
964.16055,0.01461
962.10038,0.01404
960.04021,0.01339
957.98003,0.01283
955.91986,0.01261
953.85969,0.01258
951.79952,0.01233
949.73935,0.01200
947.67917,0.01182
945.61900,0.01181
943.55883,0.01184
941.49866,0.01169
939.43849,0.01150
937.37831,0.01163
935.31814,0.01196
933.25797,0.01207
931.19780,0.01189
929.13762,0.01178
927.07745,0.01179
925.01728,0.01155
922.95711,0.01110
920.89694,0.01076
918.83676,0.01067
916.77659,0.01070
914.71642,0.01046
912.65625,0.00976
910.59608,0.00914
908.53590,0.00881
906.47573,0.00844
904.41556,0.00823
902.35539,0.00832
900.29522,0.00841
898.23504,0.00850
896.17487,0.00848
894.11470,0.00821
892.05453,0.00808
889.99435,0.00837
887.93418,0.00869
885.87401,0.00891
883.81384,0.00927
881.75367,0.00974
879.69349,0.01017
877.63332,0.01045
875.57315,0.01041
873.51298,0.01018
871.45281,0.01023
869.39263,0.01040
867.33246,0.01045
865.27229,0.01076
863.21212,0.01123
861.15194,0.01136
859.09177,0.01132
857.03160,0.01110
854.97143,0.01056
852.91126,0.01014
850.85108,0.00997
848.79091,0.00990
846.73074,0.00994
844.67057,0.00987
842.61040,0.00968
840.55022,0.00965
838.49005,0.00961
836.42988,0.00936
834.36971,0.00889
832.30954,0.00839
830.24936,0.00808
828.18919,0.00771
826.12902,0.00740
824.06885,0.00737
822.00867,0.00705
819.94850,0.00653
817.88833,0.00640
815.82816,0.00643
813.76799,0.00603
811.70781,0.00544
809.64764,0.00558
807.58747,0.00618
805.52730,0.00644
803.46713,0.00623
801.40695,0.00575
799.34678,0.00572
797.28661,0.00615
795.22644,0.00613
793.16627,0.00584
791.10609,0.00572
789.04592,0.00585
786.98575,0.00613
784.92558,0.00596
782.86540,0.00556
780.80523,0.00544
778.74506,0.00523
776.68489,0.00474
774.62472,0.00429
772.56454,0.00443
770.50437,0.00507
768.44420,0.00547
766.38403,0.00553
764.32386,0.00561
762.26368,0.00591
760.20351,0.00608
758.14334,0.00584
756.08317,0.00548
754.02299,0.00506
751.96282,0.00501
749.90265,0.00547
747.84248,0.00570
745.78231,0.00566
743.72213,0.00505
741.66196,0.00345
739.60179,0.00227
737.54162,0.00265
735.48145,0.00403
733.42127,0.00538
731.36110,0.00601
729.30093,0.00569
727.24076,0.00482
725.18059,0.00439
723.12041,0.00466
721.06024,0.00496
719.00007,0.00500
716.93990,0.00503
714.87972,0.00512
712.81955,0.00531
710.75938,0.00564
708.69921,0.00550
706.63904,0.00450
704.57886,0.00351
702.51869,0.00339
700.45852,0.00389
698.39835,0.00431
696.33818,0.00454
694.27800,0.00486
692.21783,0.00523
690.15766,0.00529
688.09749,0.00499
686.03731,0.00468
683.97714,0.00445
681.91697,0.00429
679.85680,0.00416
677.79663,0.00369
675.73645,0.00308
673.67628,0.00299
671.61611,0.00335
669.55594,0.00377
667.49577,0.00364
665.43559,0.00273
663.37542,0.00232
661.31525,0.00321
659.25508,0.00403
657.19491,0.00352
655.13473,0.00307
653.07456,0.00400
651.01439,0.00538
648.95422,0.00581
646.89404,0.00514
644.83387,0.00413
642.77370,0.00308
640.71353,0.00233
638.65336,0.00267
636.59318,0.00377
634.53301,0.00394
632.47284,0.00293
630.41267,0.00240
628.35250,0.00344
626.29232,0.00528
624.23215,0.00541
622.17198,0.00329
620.11181,0.00214
618.05164,0.00345
615.99146,0.00419
613.93129,0.00382
611.87112,0.00367
609.81095,0.00309
607.75077,0.00163
605.69060,0.00019
603.63043,0.00000
601.57026,0.00002
599.51009,0.00000
