3996.73391,0.00017
3994.67373,0.00039
3992.61356,0.00061
3990.55339,0.00078
3988.49322,0.00097
3986.43305,0.00101
3984.37287,0.00071
3982.31270,0.00041
3980.25253,0.00042
3978.19236,0.00042
3976.13219,0.00019
3974.07201,0.00008
3972.01184,0.00013
3969.95167,0.00015
3967.89150,0.00021
3965.83133,0.00029
3963.77115,0.00028
3961.71098,0.00028
3959.65081,0.00035
3957.59064,0.00037
3955.53046,0.00020
3953.47029,0.00000
3951.41012,0.00005
3949.34995,0.00024
3947.28978,0.00027
3945.22960,0.00033
3943.16943,0.00066
3941.10926,0.00093
3939.04909,0.00083
3936.98892,0.00071
3934.92874,0.00086
3932.86857,0.00112
3930.80840,0.00120
3928.74823,0.00099
3926.68805,0.00071
3924.62788,0.00062
3922.56771,0.00064
3920.50754,0.00066
3918.44737,0.00077
3916.38719,0.00091
3914.32702,0.00095
3912.26685,0.00094
3910.20668,0.00094
3908.14651,0.00073
3906.08633,0.00035
3904.02616,0.00037
3901.96599,0.00096
3899.90582,0.00159
3897.84565,0.00174
3895.78547,0.00133
3893.72530,0.00082
3891.66513,0.00078
3889.60496,0.00115
3887.54478,0.00134
3885.48461,0.00129
3883.42444,0.00118
3881.36427,0.00112
3879.30410,0.00106
3877.24392,0.00077
3875.18375,0.00030
3873.12358,0.00000
3871.06341,0.00008
3869.00324,0.00049
3866.94306,0.00080
3864.88289,0.00096
3862.82272,0.00122
3860.76255,0.00120
3858.70237,0.00075
3856.64220,0.00031
3854.58203,0.00056
3852.52186,0.00144
3850.46169,0.00177
3848.40151,0.00146
3846.34134,0.00106
3844.28117,0.00085
3842.22100,0.00085
3840.16083,0.00107
3838.10065,0.00150
3836.04048,0.00173
3833.98031,0.00151
3831.92014,0.00113
3829.85997,0.00081
3827.79979,0.00055
3825.73962,0.00028
3823.67945,0.00008
3821.61928,0.00029
3819.55910,0.00087
3817.49893,0.00118
3815.43876,0.00122
3813.37859,0.00108
3811.31842,0.00077
3809.25824,0.00054
3807.19807,0.00064
3805.13790,0.00092
3803.07773,0.00118
3801.01756,0.00153
3798.95738,0.00176
3796.89721,0.00174
3794.83704,0.00173
3792.77687,0.00163
3790.71670,0.00131
3788.65652,0.00101
3786.59635,0.00106
3784.53618,0.00128
3782.47601,0.00138
3780.41583,0.00142
3778.35566,0.00148
3776.29549,0.00134
3774.23532,0.00110
3772.17515,0.00108
3770.11497,0.00136
3768.05480,0.00170
3765.99463,0.00196
3763.93446,0.00203
3761.87429,0.00177
3759.81411,0.00154
3757.75394,0.00140
3755.69377,0.00099
3753.63360,0.00057
3751.57342,0.00034
3749.51325,0.00025
3747.45308,0.00028
3745.39291,0.00049
3743.33274,0.00087
3741.27256,0.00081
3739.21239,0.00046
3737.15222,0.00091
3735.09205,0.00218
3733.03188,0.00283
3730.97170,0.00231
3728.91153,0.00150
3726.85136,0.00127
3724.79119,0.00179
3722.73102,0.00239
3720.67084,0.00230
3718.61067,0.00173
3716.55050,0.00110
3714.49033,0.00094
3712.43015,0.00147
3710.36998,0.00199
3708.30981,0.00210
3706.24964,0.00186
3704.18947,0.00155
3702.12929,0.00151
3700.06912,0.00183
3698.00895,0.00224
3695.94878,0.00245
3693.88861,0.00247
3691.82843,0.00237
3689.76826,0.00234
3687.70809,0.00231
3685.64792,0.00225
3683.58775,0.00222
3681.52757,0.00221
3679.46740,0.00209
3677.40723,0.00192
3675.34706,0.00170
3673.28688,0.00165
3671.22671,0.00216
3669.16654,0.00300
3667.10637,0.00326
3665.04620,0.00309
3662.98602,0.00314
3660.92585,0.00344
3658.86568,0.00372
3656.80551,0.00387
3654.74534,0.00381
3652.68516,0.00370
3650.62499,0.00393
3648.56482,0.00456
3646.50465,0.00497
3644.44447,0.00503
3642.38430,0.00504
3640.32413,0.00519
3638.26396,0.00533
3636.20379,0.00542
3634.14361,0.00566
3632.08344,0.00589
3630.02327,0.00631
3627.96310,0.00733
3625.90293,0.00813
3623.84275,0.00812
3621.78258,0.00801
3619.72241,0.00830
3617.66224,0.00855
3615.60207,0.00839
3613.54189,0.00831
3611.48172,0.00882
3609.42155,0.00966
3607.36138,0.01046
3605.30120,0.01093
3603.24103,0.01111
3601.18086,0.01135
3599.12069,0.01141
3597.06052,0.01121
3595.00034,0.01139
3592.94017,0.01215
3590.88000,0.01265
3588.81983,0.01301
3586.75966,0.01355
3584.69948,0.01382
3582.63931,0.01374
3580.57914,0.01372
3578.51897,0.01384
3576.45879,0.01408
3574.39862,0.01457
3572.33845,0.01521
3570.27828,0.01559
3568.21811,0.01566
3566.15793,0.01593
3564.09776,0.01658
3562.03759,0.01707
3559.97742,0.01712
3557.91725,0.01704
3555.85707,0.01720
3553.79690,0.01754
3551.73673,0.01786
3549.67656,0.01812
3547.61639,0.01836
3545.55621,0.01868
3543.49604,0.01902
3541.43587,0.01903
3539.37570,0.01882
3537.31552,0.01897
3535.25535,0.01955
3533.19518,0.02007
3531.13501,0.02041
3529.07484,0.02079
3527.01466,0.02123
3524.95449,0.02163
3522.89432,0.02199
3520.83415,0.02215
3518.77398,0.02203
3516.71380,0.02207
3514.65363,0.02234
3512.59346,0.02260
3510.53329,0.02279
3508.47312,0.02300
3506.41294,0.02325
3504.35277,0.02362
3502.29260,0.02410
3500.23243,0.02450
3498.17225,0.02465
3496.11208,0.02480
3494.05191,0.02511
3491.99174,0.02542
3489.93157,0.02569
3487.87139,0.02621
3485.81122,0.02665
3483.75105,0.02651
3481.69088,0.02635
3479.63071,0.02664
3477.57053,0.02695
3475.51036,0.02710
3473.45019,0.02731
3471.39002,0.02759
3469.32984,0.02789
3467.26967,0.02823
3465.20950,0.02846
3463.14933,0.02848
3461.08916,0.02862
3459.02898,0.02904
3456.96881,0.02939
3454.90864,0.02942
3452.84847,0.02934
3450.78830,0.02947
3448.72812,0.02979
3446.66795,0.03013
3444.60778,0.03021
3442.54761,0.03000
3440.48744,0.02998
3438.42726,0.03027
3436.36709,0.03050
3434.30692,0.03059
3432.24675,0.03078
3430.18657,0.03113
3428.12640,0.03148
3426.06623,0.03162
3424.00606,0.03161
3421.94589,0.03183
3419.88571,0.03221
3417.82554,0.03238
3415.76537,0.03250
3413.70520,0.03278
3411.64503,0.03304
3409.58485,0.03313
3407.52468,0.03309
3405.46451,0.03304
3403.40434,0.03308
3401.34416,0.03306
3399.28399,0.03303
3397.22382,0.03327
3395.16365,0.03350
3393.10348,0.03348
3391.04330,0.03347
3388.98313,0.03359
3386.92296,0.03355
3384.86279,0.03339
3382.80262,0.03341
3380.74244,0.03346
3378.68227,0.03364
3376.62210,0.03425
3374.56193,0.03489
3372.50176,0.03496
3370.44158,0.03444
3368.38141,0.03384
3366.32124,0.03366
3364.26107,0.03395
3362.20089,0.03436
3360.14072,0.03459
3358.08055,0.03461
3356.02038,0.03462
3353.96021,0.03466
3351.90003,0.03455
3349.83986,0.03437
3347.77969,0.03435
3345.71952,0.03435
3343.65935,0.03431
3341.59917,0.03442
3339.53900,0.03462
3337.47883,0.03466
3335.41866,0.03450
3333.35849,0.03436
3331.29831,0.03445
3329.23814,0.03465
3327.17797,0.03471
3325.11780,0.03449
3323.05762,0.03411
3320.99745,0.03386
3318.93728,0.03397
3316.87711,0.03428
3314.81694,0.03449
3312.75676,0.03447
3310.69659,0.03425
3308.63642,0.03409
3306.57625,0.03424
3304.51608,0.03453
3302.45590,0.03468
3300.39573,0.03437
3298.33556,0.03388
3296.27539,0.03374
3294.21521,0.03394
3292.15504,0.03432
3290.09487,0.03467
3288.03470,0.03466
3285.97453,0.03445
3283.91435,0.03441
3281.85418,0.03458
3279.79401,0.03480
3277.73384,0.03478
3275.67367,0.03449
3273.61349,0.03418
3271.55332,0.03401
3269.49315,0.03392
3267.43298,0.03394
3265.37281,0.03407
3263.31263,0.03412
3261.25246,0.03403
3259.19229,0.03408
3257.13212,0.03432
3255.07194,0.03442
3253.01177,0.03412
3250.95160,0.03366
3248.89143,0.03348
3246.83126,0.03358
3244.77108,0.03371
3242.71091,0.03377
3240.65074,0.03372
3238.59057,0.03354
3236.53040,0.03329
3234.47022,0.03312
3232.41005,0.03325
3230.34988,0.03351
3228.28971,0.03365
3226.22954,0.03359
3224.16936,0.03343
3222.10919,0.03331
3220.04902,0.03328
3217.98885,0.03335
3215.92867,0.03345
3213.86850,0.03352
3211.80833,0.03352
3209.74816,0.03334
3207.68799,0.03308
3205.62781,0.03295
3203.56764,0.03291
3201.50747,0.03285
3199.44730,0.03283
3197.38713,0.03278
3195.32695,0.03268
3193.26678,0.03261
3191.20661,0.03243
3189.14644,0.03210
3187.08626,0.03200
3185.02609,0.03208
3182.96592,0.03198
3180.90575,0.03182
3178.84558,0.03169
3176.78540,0.03143
3174.72523,0.03113
3172.66506,0.03101
3170.60489,0.03092
3168.54472,0.03081
3166.48454,0.03090
3164.42437,0.03100
3162.36420,0.03073
3160.30403,0.03032
3158.24386,0.03012
3156.18368,0.03007
3154.12351,0.03008
3152.06334,0.03010
3150.00317,0.02989
3147.94299,0.02952
3145.88282,0.02939
3143.82265,0.02937
3141.76248,0.02904
3139.70231,0.02877
3137.64213,0.02883
3135.58196,0.02884
3133.52179,0.02878
3131.46162,0.02889
3129.40145,0.02904
3127.34127,0.02902
3125.28110,0.02888
3123.22093,0.02870
3121.16076,0.02856
3119.10058,0.02843
3117.04041,0.02825
3114.98024,0.02806
3112.92007,0.02798
3110.85990,0.02787
3108.79972,0.02755
3106.73955,0.02716
3104.67938,0.02701
3102.61921,0.02705
3100.55904,0.02694
3098.49886,0.02657
3096.43869,0.02632
3094.37852,0.02636
3092.31835,0.02644
3090.25818,0.02627
3088.19800,0.02587
3086.13783,0.02555
3084.07766,0.02553
3082.01749,0.02555
3079.95731,0.02541
3077.89714,0.02534
3075.83697,0.02546
3073.77680,0.02538
3071.71663,0.02505
3069.65645,0.02491
3067.59628,0.02501
3065.53611,0.02501
3063.47594,0.02487
3061.41577,0.02471
3059.35559,0.02449
3057.29542,0.02424
3055.23525,0.02391
3053.17508,0.02346
3051.11491,0.02317
3049.05473,0.02333
3046.99456,0.02367
3044.93439,0.02376
3042.87422,0.02360
3040.81404,0.02349
3038.75387,0.02336
3036.69370,0.02306
3034.63353,0.02270
3032.57336,0.02242
3030.51318,0.02235
3028.45301,0.02240
3026.39284,0.02229
3024.33267,0.02201
3022.27250,0.02178
3020.21232,0.02169
3018.15215,0.02175
3016.09198,0.02183
3014.03181,0.02174
3011.97163,0.02138
3009.91146,0.02106
3007.85129,0.02102
3005.79112,0.02096
3003.73095,0.02065
3001.67077,0.02033
2999.61060,0.02016
2997.55043,0.02002
2995.49026,0.01988
2993.43009,0.01979
2991.36991,0.01979
2989.30974,0.01984
2987.24957,0.01986
2985.18940,0.01984
2983.12923,0.01965
2981.06905,0.01951
2979.00888,0.01951
2976.94871,0.01945
2974.88854,0.01936
2972.82836,0.01919
2970.76819,0.01890
2968.70802,0.01875
2966.64785,0.01891
2964.58768,0.01926
2962.52750,0.01952
2960.46733,0.01948
2958.40716,0.01925
2956.34699,0.01919
2954.28682,0.01929
2952.22664,0.01930
2950.16647,0.01920
2948.10630,0.01897
2946.04613,0.01872
2943.98596,0.01865
2941.92578,0.01870
2939.86561,0.01872
2937.80544,0.01870
2935.74527,0.01871
2933.68509,0.01874
2931.62492,0.01866
2929.56475,0.01851
2927.50458,0.01838
2925.44441,0.01821
2923.38423,0.01793
2921.32406,0.01779
2919.26389,0.01792
2917.20372,0.01800
2915.14355,0.01790
2913.08337,0.01794
2911.02320,0.01812
2908.96303,0.01799
2906.90286,0.01761
2904.84268,0.01743
2902.78251,0.01738
2900.72234,0.01714
2898.66217,0.01688
2896.60200,0.01689
2894.54182,0.01701
2892.48165,0.01701
2890.42148,0.01703
2888.36131,0.01710
2886.30114,0.01712
2884.24096,0.01711
2882.18079,0.01710
2880.12062,0.01698
2878.06045,0.01686
2876.00028,0.01684
2873.94010,0.01678
2871.87993,0.01649
2869.81976,0.01613
2867.75959,0.01604
2865.69941,0.01603
2863.63924,0.01587
2861.57907,0.01581
2859.51890,0.01597
2857.45873,0.01611
2855.39855,0.01584
2853.33838,0.01534
2851.27821,0.01524
2849.21804,0.01551
2847.15787,0.01557
2845.09769,0.01529
2843.03752,0.01509
2840.97735,0.01522
2838.91718,0.01536
2836.85700,0.01511
2834.79683,0.01469
2832.73666,0.01449
2830.67649,0.01451
2828.61632,0.01459
2826.55614,0.01462
2824.49597,0.01455
2822.43580,0.01446
2820.37563,0.01438
2818.31546,0.01437
2816.25528,0.01433
2814.19511,0.01424
2812.13494,0.01421
2810.07477,0.01416
2808.01460,0.01399
2805.95442,0.01373
2803.89425,0.01349
2801.83408,0.01334
2799.77391,0.01337
2797.71373,0.01347
2795.65356,0.01348
2793.59339,0.01341
2791.53322,0.01326
2789.47305,0.01315
2787.41287,0.01309
2785.35270,0.01303
2783.29253,0.01301
2781.23236,0.01303
2779.17219,0.01301
2777.11201,0.01300
2775.05184,0.01308
2772.99167,0.01304
2770.93150,0.01270
2768.87133,0.01240
2766.81115,0.01248
2764.75098,0.01276
2762.69081,0.01291
2760.63064,0.01277
2758.57046,0.01242
2756.51029,0.01209
2754.45012,0.01203
2752.38995,0.01223
2750.32978,0.01241
2748.26960,0.01238
2746.20943,0.01225
2744.14926,0.01206
2742.08909,0.01187
2740.02892,0.01175
2737.96874,0.01174
2735.90857,0.01179
2733.84840,0.01171
2731.78823,0.01157
2729.72805,0.01157
2727.66788,0.01164
2725.60771,0.01167
2723.54754,0.01168
2721.48737,0.01156
2719.42719,0.01136
2717.36702,0.01132
2715.30685,0.01133
2713.24668,0.01120
2711.18651,0.01114
2709.12633,0.01126
2707.06616,0.01135
2705.00599,0.01120
2702.94582,0.01087
2700.88565,0.01066
2698.82547,0.01062
2696.76530,0.01056
2694.70513,0.01062
2692.64496,0.01076
2690.58478,0.01072
2688.52461,0.01052
2686.46444,0.01048
2684.40427,0.01070
2682.34410,0.01077
2680.28392,0.01053
2678.22375,0.01026
2676.16358,0.01015
2674.10341,0.01008
2672.04324,0.00995
2669.98306,0.00972
2667.92289,0.00948
2665.86272,0.00953
2663.80255,0.00978
2661.74238,0.00990
2659.68220,0.00987
2657.62203,0.00985
2655.56186,0.00983
2653.50169,0.00964
2651.44151,0.00941
2649.38134,0.00946
2647.32117,0.00959
2645.26100,0.00955
2643.20083,0.00943
2641.14065,0.00924
2639.08048,0.00908
2637.02031,0.00900
2634.96014,0.00893
2632.89997,0.00891
2630.83979,0.00888
2628.77962,0.00884
2626.71945,0.00893
2624.65928,0.00907
2622.59910,0.00900
2620.53893,0.00880
2618.47876,0.00870
2616.41859,0.00874
2614.35842,0.00885
2612.29824,0.00881
2610.23807,0.00851
2608.17790,0.00816
2606.11773,0.00792
2604.05756,0.00778
2601.99738,0.00786
2599.93721,0.00807
2597.87704,0.00806
2595.81687,0.00801
2593.75670,0.00808
2591.69652,0.00808
2589.63635,0.00816
2587.57618,0.00820
2585.51601,0.00786
2583.45583,0.00756
2581.39566,0.00769
2579.33549,0.00785
2577.27532,0.00785
2575.21515,0.00783
2573.15497,0.00782
2571.09480,0.00784
2569.03463,0.00766
2566.97446,0.00744
2564.91429,0.00762
2562.85411,0.00782
2560.79394,0.00772
2558.73377,0.00761
2556.67360,0.00749
2554.61342,0.00736
2552.55325,0.00723
2550.49308,0.00722
2548.43291,0.00755
2546.37274,0.00792
2544.31256,0.00798
2542.25239,0.00788
2540.19222,0.00775
2538.13205,0.00752
2536.07188,0.00724
2534.01170,0.00720
2531.95153,0.00744
2529.89136,0.00753
2527.83119,0.00746
2525.77102,0.00745
2523.71084,0.00760
2521.65067,0.00807
2519.59050,0.00842
2517.53033,0.00819
2515.47015,0.00775
2513.40998,0.00760
2511.34981,0.00761
2509.28964,0.00764
2507.22947,0.00760
2505.16929,0.00751
2503.10912,0.00754
2501.04895,0.00750
2498.98878,0.00748
2496.92861,0.00768
2494.86843,0.00786
2492.80826,0.00781
2490.74809,0.00765
2488.68792,0.00759
2486.62775,0.00760
2484.56757,0.00748
2482.50740,0.00731
2480.44723,0.00732
2478.38706,0.00748
2476.32688,0.00760
2474.26671,0.00750
2472.20654,0.00738
2470.14637,0.00770
2468.08620,0.00819
2466.02602,0.00824
2463.96585,0.00796
2461.90568,0.00779
2459.84551,0.00779
2457.78534,0.00794
2455.72516,0.00806
2453.66499,0.00791
2451.60482,0.00771
2449.54465,0.00771
2447.48447,0.00766
2445.42430,0.00746
2443.36413,0.00739
2441.30396,0.00746
2439.24379,0.00762
2437.18361,0.00813
2435.12344,0.00838
2433.06327,0.00793
2431.00310,0.00767
2428.94293,0.00794
2426.88275,0.00810
2424.82258,0.00787
2422.76241,0.00781
2420.70224,0.00831
2418.64207,0.00883
2416.58189,0.00876
2414.52172,0.00846
2412.46155,0.00828
2410.40138,0.00807
2408.34120,0.00786
2406.28103,0.00790
2404.22086,0.00812
2402.16069,0.00812
2400.10052,0.00791
2398.04034,0.00771
2395.98017,0.00753
2393.92000,0.00737
2391.85983,0.00736
2389.79966,0.00743
2387.73948,0.00752
2385.67931,0.00760
2383.61914,0.00771
2381.55897,0.00789
2379.49880,0.00809
2377.43862,0.00801
2375.37845,0.00815
2373.31828,0.00816
2371.25811,0.00714
2369.19793,0.00545
2367.13776,0.00403
2365.07759,0.00362
2363.01742,0.00559
2360.95725,0.00712
2358.89707,0.00898
2356.83690,0.00920
2354.77673,0.00918
2352.71656,0.00975
2350.65639,0.00678
2348.59621,0.00431
2346.53604,0.00811
2344.47587,0.00869
2342.41570,0.00808
2340.35552,0.00760
2338.29535,0.00690
2336.23518,0.00683
2334.17501,0.00636
2332.11484,0.00602
2330.05466,0.00638
2327.99449,0.00820
2325.93432,0.00876
2323.87415,0.00886
2321.81398,0.00856
2319.75380,0.00863
2317.69363,0.00785
2315.63346,0.00788
2313.57329,0.00840
2311.51312,0.00860
2309.45294,0.00865
2307.39277,0.00837
2305.33260,0.00784
2303.27243,0.00765
2301.21225,0.00809
2299.15208,0.00828
2297.09191,0.00833
2295.03174,0.00855
2292.97157,0.00864
2290.91139,0.00857
2288.85122,0.00841
2286.79105,0.00810
2284.73088,0.00792
2282.67071,0.00805
2280.61053,0.00817
2278.55036,0.00804
2276.49019,0.00774
2274.43002,0.00739
2272.36984,0.00717
2270.30967,0.00722
2268.24950,0.00716
2266.18933,0.00673
2264.12916,0.00648
2262.06898,0.00683
2260.00881,0.00720
2257.94864,0.00697
2255.88847,0.00674
2253.82830,0.00702
2251.76812,0.00729
2249.70795,0.00693
2247.64778,0.00674
2245.58761,0.00740
2243.52744,0.00749
2241.46726,0.00698
2239.40709,0.00725
2237.34692,0.00757
2235.28675,0.00700
2233.22657,0.00691
2231.16640,0.00755
2229.10623,0.00769
2227.04606,0.00775
2224.98589,0.00766
2222.92571,0.00701
2220.86554,0.00656
2218.80537,0.00609
2216.74520,0.00566
2214.68503,0.00625
2212.62485,0.00759
2210.56468,0.00837
2208.50451,0.00785
2206.44434,0.00717
2204.38417,0.00727
2202.32399,0.00702
2200.26382,0.00624
2198.20365,0.00603
2196.14348,0.00596
2194.08330,0.00589
2192.02313,0.00609
2189.96296,0.00566
2187.90279,0.00489
2185.84262,0.00431
2183.78244,0.00417
2181.72227,0.00532
2179.66210,0.00677
2177.60193,0.00726
2175.54176,0.00704
2173.48158,0.00623
2171.42141,0.00533
2169.36124,0.00520
2167.30107,0.00518
2165.24089,0.00466
2163.18072,0.00434
2161.12055,0.00342
2159.06038,0.00134
2157.00021,0.00000
2154.94003,0.00020
2152.87986,0.00110
2150.81969,0.00190
2148.75952,0.00290
2146.69935,0.00452
2144.63917,0.00543
2142.57900,0.00465
2140.51883,0.00330
2138.45866,0.00298
2136.39849,0.00369
2134.33831,0.00449
2132.27814,0.00471
2130.21797,0.00416
2128.15780,0.00375
2126.09762,0.00439
2124.03745,0.00555
2121.97728,0.00601
2119.91711,0.00552
2117.85694,0.00536
2115.79676,0.00601
2113.73659,0.00627
2111.67642,0.00581
2109.61625,0.00537
2107.55608,0.00553
2105.49590,0.00567
2103.43573,0.00504
2101.37556,0.00454
2099.31539,0.00468
2097.25521,0.00476
2095.19504,0.00477
2093.13487,0.00519
2091.07470,0.00566
2089.01453,0.00535
2086.95435,0.00438
2084.89418,0.00382
2082.83401,0.00421
2080.77384,0.00510
2078.71367,0.00535
2076.65349,0.00447
2074.59332,0.00350
2072.53315,0.00324
2070.47298,0.00363
2068.41281,0.00433
2066.35263,0.00461
2064.29246,0.00441
2062.23229,0.00443
2060.17212,0.00484
2058.11194,0.00509
2056.05177,0.00464
2053.99160,0.00388
2051.93143,0.00360
2049.87126,0.00356
2047.81108,0.00309
2045.75091,0.00214
2043.69074,0.00192
2041.63057,0.00333
2039.57040,0.00476
2037.51022,0.00495
2035.45005,0.00446
2033.38988,0.00341
2031.32971,0.00239
2029.26954,0.00187
2027.20936,0.00114
2025.14919,0.00048
2023.08902,0.00048
2021.02885,0.00085
2018.96867,0.00183
2016.90850,0.00279
2014.84833,0.00206
2012.78816,0.00101
2010.72799,0.00138
2008.66781,0.00155
2006.60764,0.00100
2004.54747,0.00156
2002.48730,0.00325
2000.42713,0.00413
1998.36695,0.00345
1996.30678,0.00304
1994.24661,0.00381
1992.18644,0.00398
1990.12626,0.00304
1988.06609,0.00220
1986.00592,0.00193
1983.94575,0.00189
1981.88558,0.00135
1979.82540,0.00032
1977.76523,0.00000
1975.70506,0.00090
1973.64489,0.00173
1971.58472,0.00167
1969.52454,0.00133
1967.46437,0.00099
1965.40420,0.00076
1963.34403,0.00084
1961.28386,0.00103
1959.22368,0.00082
1957.16351,0.00050
1955.10334,0.00096
1953.04317,0.00148
1950.98299,0.00136
1948.92282,0.00109
1946.86265,0.00072
1944.80248,0.00062
1942.74231,0.00137
1940.68213,0.00268
1938.62196,0.00337
1936.56179,0.00313
1934.50162,0.00271
1932.44145,0.00238
1930.38127,0.00208
1928.32110,0.00198
1926.26093,0.00214
1924.20076,0.00238
1922.14059,0.00250
1920.08041,0.00261
1918.02024,0.00274
1915.96007,0.00255
1913.89990,0.00217
1911.83972,0.00226
1909.77955,0.00265
1907.71938,0.00252
1905.65921,0.00194
1903.59904,0.00176
1901.53886,0.00213
1899.47869,0.00249
1897.41852,0.00253
1895.35835,0.00234
1893.29818,0.00222
1891.23800,0.00217
1889.17783,0.00205
1887.11766,0.00206
1885.05749,0.00224
1882.99731,0.00226
1880.93714,0.00212
1878.87697,0.00207
1876.81680,0.00205
1874.75663,0.00191
1872.69645,0.00179
1870.63628,0.00176
1868.57611,0.00172
1866.51594,0.00167
1864.45577,0.00170
1862.39559,0.00196
1860.33542,0.00227
1858.27525,0.00224
1856.21508,0.00197
1854.15491,0.00184
1852.09473,0.00190
1850.03456,0.00195
1847.97439,0.00197
1845.91422,0.00218
1843.85404,0.00252
1841.79387,0.00254
1839.73370,0.00217
1837.67353,0.00187
1835.61336,0.00181
1833.55318,0.00181
1831.49301,0.00174
1829.43284,0.00158
1827.37267,0.00142
1825.31250,0.00153
1823.25232,0.00190
1821.19215,0.00215
1819.13198,0.00218
1817.07181,0.00217
1815.01163,0.00218
1812.95146,0.00216
1810.89129,0.00213
1808.83112,0.00215
1806.77095,0.00220
1804.71077,0.00222
1802.65060,0.00214
1800.59043,0.00208
1798.53026,0.00208
1796.47009,0.00196
1794.40991,0.00189
1792.34974,0.00213
1790.28957,0.00249
1788.22940,0.00274
1786.16923,0.00287
1784.10905,0.00285
1782.04888,0.00258
1779.98871,0.00223
1777.92854,0.00200
1775.86836,0.00187
1773.80819,0.00192
1771.74802,0.00219
1769.68785,0.00242
1767.62768,0.00249
1765.56750,0.00256
1763.50733,0.00271
1761.44716,0.00293
1759.38699,0.00319
1757.32682,0.00337
1755.26664,0.00323
1753.20647,0.00294
1751.14630,0.00310
1749.08613,0.00367
1747.02596,0.00403
1744.96578,0.00401
1742.90561,0.00385
1740.84544,0.00372
1738.78527,0.00369
1736.72509,0.00371
1734.66492,0.00391
1732.60475,0.00429
1730.54458,0.00451
1728.48441,0.00455
1726.42423,0.00452
1724.36406,0.00452
1722.30389,0.00452
1720.24372,0.00459
1718.18355,0.00496
1716.12337,0.00546
1714.06320,0.00561
1712.00303,0.00558
1709.94286,0.00560
1707.88268,0.00567
1705.82251,0.00585
1703.76234,0.00602
1701.70217,0.00625
1699.64200,0.00689
1697.58182,0.00751
1695.52165,0.00769
1693.46148,0.00767
1691.40131,0.00764
1689.34114,0.00774
1687.28096,0.00802
1685.22079,0.00867
1683.16062,0.00967
1681.10045,0.01037
1679.04028,0.01066
1676.98010,0.01086
1674.91993,0.01106
1672.85976,0.01115
1670.79959,0.01130
1668.73941,0.01166
1666.67924,0.01189
1664.61907,0.01201
1662.55890,0.01243
1660.49873,0.01302
1658.43855,0.01327
1656.37838,0.01322
1654.31821,0.01347
1652.25804,0.01419
1650.19787,0.01439
1648.13769,0.01421
1646.07752,0.01427
1644.01735,0.01431
1641.95718,0.01409
1639.89701,0.01386
1637.83683,0.01391
1635.77666,0.01418
1633.71649,0.01419
1631.65632,0.01375
1629.59614,0.01326
1627.53597,0.01306
1625.47580,0.01310
1623.41563,0.01313
1621.35546,0.01296
1619.29528,0.01265
1617.23511,0.01247
1615.17494,0.01245
1613.11477,0.01226
1611.05460,0.01187
1608.99442,0.01153
1606.93425,0.01133
1604.87408,0.01120
1602.81391,0.01103
1600.75373,0.01080
1598.69356,0.01057
1596.63339,0.01028
1594.57322,0.00982
1592.51305,0.00930
1590.45287,0.00887
1588.39270,0.00850
1586.33253,0.00816
1584.27236,0.00789
1582.21219,0.00767
1580.15201,0.00738
1578.09184,0.00711
1576.03167,0.00705
1573.97150,0.00699
1571.91133,0.00661
1569.85115,0.00608
1567.79098,0.00577
1565.73081,0.00562
1563.67064,0.00534
1561.61046,0.00499
1559.55029,0.00503
1557.49012,0.00529
1555.42995,0.00498
1553.36978,0.00445
1551.30960,0.00414
1549.24943,0.00404
1547.18926,0.00394
1545.12909,0.00368
1543.06892,0.00338
1541.00874,0.00342
1538.94857,0.00372
1536.88840,0.00364
1534.82823,0.00332
1532.76805,0.00312
1530.70788,0.00295
1528.64771,0.00263
1526.58754,0.00224
1524.52737,0.00193
1522.46719,0.00190
1520.40702,0.00222
1518.34685,0.00257
1516.28668,0.00267
1514.22651,0.00247
1512.16633,0.00217
1510.10616,0.00196
1508.04599,0.00193
1505.98582,0.00206
1503.92565,0.00204
1501.86547,0.00179
1499.80530,0.00158
1497.74513,0.00164
1495.68496,0.00173
1493.62478,0.00156
1491.56461,0.00135
1489.50444,0.00139
1487.44427,0.00153
1485.38410,0.00155
1483.32392,0.00152
1481.26375,0.00152
1479.20358,0.00153
1477.14341,0.00157
1475.08324,0.00172
1473.02306,0.00197
1470.96289,0.00218
1468.90272,0.00220
1466.84255,0.00224
1464.78238,0.00257
1462.72220,0.00290
1460.66203,0.00288
1458.60186,0.00277
1456.54169,0.00297
1454.48151,0.00319
1452.42134,0.00318
1450.36117,0.00309
1448.30100,0.00305
1446.24083,0.00300
1444.18065,0.00289
1442.12048,0.00275
1440.06031,0.00268
1438.00014,0.00274
1435.93997,0.00291
1433.87979,0.00303
1431.81962,0.00313
1429.75945,0.00326
1427.69928,0.00337
1425.63910,0.00341
1423.57893,0.00339
1421.51876,0.00344
1419.45859,0.00368
1417.39842,0.00381
1415.33824,0.00361
1413.27807,0.00341
1411.21790,0.00340
1409.15773,0.00343
1407.09756,0.00343
1405.03738,0.00346
1402.97721,0.00341
1400.91704,0.00324
1398.85687,0.00306
1396.79670,0.00293
1394.73652,0.00288
1392.67635,0.00284
1390.61618,0.00272
1388.55601,0.00263
1386.49583,0.00273
1384.43566,0.00295
1382.37549,0.00307
1380.31532,0.00302
1378.25515,0.00288
1376.19497,0.00284
1374.13480,0.00289
1372.07463,0.00289
1370.01446,0.00280
1367.95429,0.00275
1365.89411,0.00275
1363.83394,0.00273
1361.77377,0.00266
1359.71360,0.00253
1357.65343,0.00244
1355.59325,0.00239
1353.53308,0.00233
1351.47291,0.00225
1349.41274,0.00212
1347.35256,0.00200
1345.29239,0.00193
1343.23222,0.00188
1341.17205,0.00188
1339.11188,0.00191
1337.05170,0.00187
1334.99153,0.00174
1332.93136,0.00169
1330.87119,0.00175
1328.81102,0.00178
1326.75084,0.00179
1324.69067,0.00181
1322.63050,0.00175
1320.57033,0.00162
1318.51015,0.00152
1316.44998,0.00142
1314.38981,0.00141
1312.32964,0.00152
1310.26947,0.00161
1308.20929,0.00161
1306.14912,0.00152
1304.08895,0.00149
1302.02878,0.00162
1299.96861,0.00170
1297.90843,0.00157
1295.84826,0.00143
1293.78809,0.00143
1291.72792,0.00150
1289.66775,0.00156
1287.60757,0.00158
1285.54740,0.00157
1283.48723,0.00161
1281.42706,0.00175
1279.36688,0.00191
1277.30671,0.00195
1275.24654,0.00189
1273.18637,0.00179
1271.12620,0.00174
1269.06602,0.00177
1267.00585,0.00185
1264.94568,0.00185
1262.88551,0.00192
1260.82534,0.00218
1258.76516,0.00239
1256.70499,0.00234
1254.64482,0.00217
1252.58465,0.00213
1250.52447,0.00220
1248.46430,0.00217
1246.40413,0.00195
1244.34396,0.00168
1242.28379,0.00157
1240.22361,0.00160
1238.16344,0.00157
1236.10327,0.00152
1234.04310,0.00161
1231.98293,0.00167
1229.92275,0.00154
1227.86258,0.00138
1225.80241,0.00134
1223.74224,0.00138
1221.68207,0.00138
1219.62189,0.00130
1217.56172,0.00112
1215.50155,0.00087
1213.44138,0.00064
1211.38120,0.00047
1209.32103,0.00033
1207.26086,0.00026
1205.20069,0.00034
1203.14052,0.00050
1201.08034,0.00062
1199.02017,0.00055
1196.96000,0.00031
1194.89983,0.00013
1192.83966,0.00015
1190.77948,0.00031
1188.71931,0.00063
1186.65914,0.00105
1184.59897,0.00138
1182.53880,0.00164
1180.47862,0.00191
1178.41845,0.00223
1176.35828,0.00272
1174.29811,0.00333
1172.23793,0.00389
1170.17776,0.00448
1168.11759,0.00506
1166.05742,0.00543
1163.99725,0.00571
1161.93707,0.00614
1159.87690,0.00661
1157.81673,0.00700
1155.75656,0.00745
1153.69639,0.00785
1151.63621,0.00821
1149.57604,0.00874
1147.51587,0.00927
1145.45570,0.00971
1143.39552,0.01022
1141.33535,0.01080
1139.27518,0.01129
1137.21501,0.01171
1135.15484,0.01229
1133.09466,0.01302
1131.03449,0.01354
1128.97432,0.01389
1126.91415,0.01447
1124.85398,0.01528
1122.79380,0.01593
1120.73363,0.01639
1118.67346,0.01690
1116.61329,0.01756
1114.55312,0.01835
1112.49294,0.01926
1110.43277,0.02024
1108.37260,0.02115
1106.31243,0.02196
1104.25225,0.02274
1102.19208,0.02360
1100.13191,0.02454
1098.07174,0.02545
1096.01157,0.02638
1093.95139,0.02730
1091.89122,0.02811
1089.83105,0.02884
1087.77088,0.02955
1085.71071,0.03017
1083.65053,0.03074
1081.59036,0.03139
1079.53019,0.03225
1077.47002,0.03307
1075.40985,0.03350
1073.34967,0.03385
1071.28950,0.03425
1069.22933,0.03431
1067.16916,0.03405
1065.10898,0.03390
1063.04881,0.03416
1060.98864,0.03458
1058.92847,0.03472
1056.86830,0.03456
1054.80812,0.03431
1052.74795,0.03403
1050.68778,0.03369
1048.62761,0.03329
1046.56744,0.03276
1044.50726,0.03202
1042.44709,0.03119
1040.38692,0.03058
1038.32675,0.03019
1036.26657,0.02973
1034.20640,0.02900
1032.14623,0.02822
1030.08606,0.02760
1028.02589,0.02689
1025.96571,0.02604
1023.90554,0.02533
1021.84537,0.02479
1019.78520,0.02429
1017.72503,0.02380
1015.66485,0.02339
1013.60468,0.02296
1011.54451,0.02222
1009.48434,0.02134
1007.42417,0.02083
1005.36399,0.02064
1003.30382,0.02040
1001.24365,0.02011
999.18348,0.02012
997.12330,0.02050
995.06313,0.02099
993.00296,0.02151
990.94279,0.02215
988.88262,0.02275
986.82244,0.02297
984.76227,0.02263
982.70210,0.02209
980.64193,0.02169
978.58176,0.02134
976.52158,0.02072
974.46141,0.01975
972.40124,0.01879
970.34107,0.01789
968.28089,0.01676
966.22072,0.01550
964.16055,0.01448
962.10038,0.01377
960.04021,0.01319
957.98003,0.01254
955.91986,0.01188
953.85969,0.01148
951.79952,0.01123
949.73935,0.01102
947.67917,0.01101
945.61900,0.01109
943.55883,0.01095
941.49866,0.01052
939.43849,0.01016
937.37831,0.01014
935.31814,0.01016
933.25797,0.01006
931.19780,0.01002
929.13762,0.00998
927.07745,0.00994
925.01728,0.00991
922.95711,0.00974
920.89694,0.00944
918.83676,0.00901
916.77659,0.00840
914.71642,0.00771
912.65625,0.00727
910.59608,0.00713
908.53590,0.00704
906.47573,0.00695
904.41556,0.00688
902.35539,0.00687
900.29522,0.00711
898.23504,0.00732
896.17487,0.00712
894.11470,0.00718
892.05453,0.00768
889.99435,0.00783
887.93418,0.00769
885.87401,0.00773
883.81384,0.00803
881.75367,0.00844
879.69349,0.00867
877.63332,0.00882
875.57315,0.00903
873.51298,0.00918
871.45281,0.00916
869.39263,0.00927
867.33246,0.00972
865.27229,0.01012
863.21212,0.01013
861.15194,0.00988
859.09177,0.00965
857.03160,0.00960
854.97143,0.00959
852.91126,0.00954
850.85108,0.00949
848.79091,0.00947
846.73074,0.00946
844.67057,0.00934
842.61040,0.00908
840.55022,0.00873
838.49005,0.00810
836.42988,0.00735
834.36971,0.00710
832.30954,0.00699
830.24936,0.00665
828.18919,0.00653
826.12902,0.00638
824.06885,0.00592
822.00867,0.00547
819.94850,0.00521
817.88833,0.00517
815.82816,0.00533
813.76799,0.00548
811.70781,0.00564
809.64764,0.00585
807.58747,0.00576
805.52730,0.00537
803.46713,0.00512
801.40695,0.00498
799.34678,0.00492
797.28661,0.00491
795.22644,0.00465
793.16627,0.00455
791.10609,0.00469
789.04592,0.00459
786.98575,0.00437
784.92558,0.00439
782.86540,0.00492
780.80523,0.00554
778.74506,0.00556
776.68489,0.00549
774.62472,0.00588
772.56454,0.00613
770.50437,0.00586
768.44420,0.00548
766.38403,0.00512
764.32386,0.00484
762.26368,0.00480
760.20351,0.00490
758.14334,0.00513
756.08317,0.00518
754.02299,0.00445
751.96282,0.00357
749.90265,0.00373
747.84248,0.00443
745.78231,0.00455
743.72213,0.00429
741.66196,0.00426
739.60179,0.00444
737.54162,0.00444
735.48145,0.00438
733.42127,0.00456
731.36110,0.00462
729.30093,0.00435
727.24076,0.00431
725.18059,0.00474
723.12041,0.00495
721.06024,0.00559
719.00007,0.00555
716.93990,0.00560
714.87972,0.00577
712.81955,0.00557
710.75938,0.00537
708.69921,0.00541
706.63904,0.00550
704.57886,0.00546
702.51869,0.00511
700.45852,0.00448
698.39835,0.00422
696.33818,0.00464
694.27800,0.00505
692.21783,0.00485
690.15766,0.00439
688.09749,0.00450
686.03731,0.00511
683.97714,0.00531
681.91697,0.00507
679.85680,0.00486
677.79663,0.00436
675.73645,0.00348
673.67628,0.00191
671.61611,0.00000
669.55594,0.00471
667.49577,0.00932
665.43559,0.00067
663.37542,0.00199
661.31525,0.00430
659.25508,0.00457
657.19491,0.00413
655.13473,0.00331
653.07456,0.00306
651.01439,0.00401
648.95422,0.00526
646.89404,0.00515
644.83387,0.00459
642.77370,0.00427
640.71353,0.00406
638.65336,0.00369
636.59318,0.00318
634.53301,0.00243
632.47284,0.00161
630.41267,0.00100
628.35250,0.00066
626.29232,0.00068
624.23215,0.00073
622.17198,0.00000
620.11181,-0.00017
618.05164,0.00107
615.99146,0.00226
613.93129,0.00280
611.87112,0.00226
609.81095,0.00057
607.75077,-0.00086
605.69060,-0.00096
603.63043,-0.00052
601.57026,-0.00025
599.51009,0.00000
