3996.73391,0.00084
3994.67373,0.00070
3992.61356,0.00048
3990.55339,0.00029
3988.49322,0.00041
3986.43305,0.00064
3984.37287,0.00073
3982.31270,0.00089
3980.25253,0.00108
3978.19236,0.00087
3976.13219,0.00036
3974.07201,0.00005
3972.01184,0.00002
3969.95167,0.00000
3967.89150,0.00004
3965.83133,0.00018
3963.77115,0.00036
3961.71098,0.00060
3959.65081,0.00077
3957.59064,0.00085
3955.53046,0.00096
3953.47029,0.00100
3951.41012,0.00090
3949.34995,0.00077
3947.28978,0.00068
3945.22960,0.00070
3943.16943,0.00082
3941.10926,0.00082
3939.04909,0.00075
3936.98892,0.00084
3934.92874,0.00094
3932.86857,0.00080
3930.80840,0.00068
3928.74823,0.00079
3926.68805,0.00098
3924.62788,0.00119
3922.56771,0.00134
3920.50754,0.00129
3918.44737,0.00120
3916.38719,0.00119
3914.32702,0.00118
3912.26685,0.00115
3910.20668,0.00109
3908.14651,0.00091
3906.08633,0.00067
3904.02616,0.00062
3901.96599,0.00086
3899.90582,0.00124
3897.84565,0.00156
3895.78547,0.00159
3893.72530,0.00129
3891.66513,0.00099
3889.60496,0.00105
3887.54478,0.00121
3885.48461,0.00122
3883.42444,0.00114
3881.36427,0.00113
3879.30410,0.00130
3877.24392,0.00140
3875.18375,0.00113
3873.12358,0.00071
3871.06341,0.00067
3869.00324,0.00117
3866.94306,0.00162
3864.88289,0.00152
3862.82272,0.00126
3860.76255,0.00129
3858.70237,0.00135
3856.64220,0.00137
3854.58203,0.00158
3852.52186,0.00171
3850.46169,0.00130
3848.40151,0.00097
3846.34134,0.00112
3844.28117,0.00144
3842.22100,0.00154
3840.16083,0.00147
3838.10065,0.00134
3836.04048,0.00102
3833.98031,0.00065
3831.92014,0.00059
3829.85997,0.00075
3827.79979,0.00076
3825.73962,0.00064
3823.67945,0.00064
3821.61928,0.00086
3819.55910,0.00120
3817.49893,0.00139
3815.43876,0.00126
3813.37859,0.00102
3811.31842,0.00086
3809.25824,0.00070
3807.19807,0.00059
3805.13790,0.00088
3803.07773,0.00167
3801.01756,0.00233
3798.95738,0.00221
3796.89721,0.00162
3794.83704,0.00118
3792.77687,0.00108
3790.71670,0.00109
3788.65652,0.00105
3786.59635,0.00114
3784.53618,0.00132
3782.47601,0.00134
3780.41583,0.00141
3778.35566,0.00171
3776.29549,0.00182
3774.23532,0.00158
3772.17515,0.00130
3770.11497,0.00120
3768.05480,0.00134
3765.99463,0.00169
3763.93446,0.00193
3761.87429,0.00189
3759.81411,0.00179
3757.75394,0.00160
3755.69377,0.00111
3753.63360,0.00048
3751.57342,0.00000
3749.51325,0.00003
3747.45308,0.00054
3745.39291,0.00107
3743.33274,0.00142
3741.27256,0.00144
3739.21239,0.00115
3737.15222,0.00112
3735.09205,0.00188
3733.03188,0.00274
3730.97170,0.00254
3728.91153,0.00173
3726.85136,0.00142
3724.79119,0.00186
3722.73102,0.00228
3720.67084,0.00213
3718.61067,0.00165
3716.55050,0.00120
3714.49033,0.00099
3712.43015,0.00112
3710.36998,0.00155
3708.30981,0.00204
3706.24964,0.00235
3704.18947,0.00237
3702.12929,0.00209
3700.06912,0.00187
3698.00895,0.00208
3695.94878,0.00254
3693.88861,0.00293
3691.82843,0.00330
3689.76826,0.00356
3687.70809,0.00340
3685.64792,0.00315
3683.58775,0.00318
3681.52757,0.00316
3679.46740,0.00269
3677.40723,0.00209
3675.34706,0.00197
3673.28688,0.00233
3671.22671,0.00272
3669.16654,0.00308
3667.10637,0.00337
3665.04620,0.00362
3662.98602,0.00393
3660.92585,0.00416
3658.86568,0.00417
3656.80551,0.00402
3654.74534,0.00391
3652.68516,0.00407
3650.62499,0.00449
3648.56482,0.00508
3646.50465,0.00558
3644.44447,0.00568
3642.38430,0.00541
3640.32413,0.00515
3638.26396,0.00512
3636.20379,0.00521
3634.14361,0.00529
3632.08344,0.00544
3630.02327,0.00600
3627.96310,0.00700
3625.90293,0.00761
3623.84275,0.00759
3621.78258,0.00745
3619.72241,0.00753
3617.66224,0.00769
3615.60207,0.00792
3613.54189,0.00842
3611.48172,0.00894
3609.42155,0.00938
3607.36138,0.00999
3605.30120,0.01050
3603.24103,0.01068
3601.18086,0.01084
3599.12069,0.01109
3597.06052,0.01123
3595.00034,0.01161
3592.94017,0.01234
3590.88000,0.01272
3588.81983,0.01267
3586.75966,0.01270
3584.69948,0.01285
3582.63931,0.01303
3580.57914,0.01322
3578.51897,0.01337
3576.45879,0.01364
3574.39862,0.01414
3572.33845,0.01456
3570.27828,0.01476
3568.21811,0.01496
3566.15793,0.01534
3564.09776,0.01580
3562.03759,0.01608
3559.97742,0.01614
3557.91725,0.01620
3555.85707,0.01644
3553.79690,0.01685
3551.73673,0.01740
3549.67656,0.01779
3547.61639,0.01783
3545.55621,0.01793
3543.49604,0.01832
3541.43587,0.01848
3539.37570,0.01834
3537.31552,0.01851
3535.25535,0.01902
3533.19518,0.01946
3531.13501,0.01984
3529.07484,0.02042
3527.01466,0.02106
3524.95449,0.02140
3522.89432,0.02154
3520.83415,0.02159
3518.77398,0.02153
3516.71380,0.02156
3514.65363,0.02182
3512.59346,0.02208
3510.53329,0.02224
3508.47312,0.02250
3506.41294,0.02285
3504.35277,0.02309
3502.29260,0.02334
3500.23243,0.02372
3498.17225,0.02395
3496.11208,0.02388
3494.05191,0.02387
3491.99174,0.02419
3489.93157,0.02466
3487.87139,0.02516
3485.81122,0.02551
3483.75105,0.02545
3481.69088,0.02533
3479.63071,0.02537
3477.57053,0.02536
3475.51036,0.02553
3473.45019,0.02608
3471.39002,0.02650
3469.32984,0.02654
3467.26967,0.02660
3465.20950,0.02682
3463.14933,0.02680
3461.08916,0.02670
3459.02898,0.02692
3456.96881,0.02733
3454.90864,0.02777
3452.84847,0.02825
3450.78830,0.02857
3448.72812,0.02857
3446.66795,0.02859
3444.60778,0.02887
3442.54761,0.02913
3440.48744,0.02920
3438.42726,0.02916
3436.36709,0.02911
3434.30692,0.02910
3432.24675,0.02912
3430.18657,0.02932
3428.12640,0.02984
3426.06623,0.03028
3424.00606,0.03009
3421.94589,0.02981
3419.88571,0.03013
3417.82554,0.03067
3415.76537,0.03090
3413.70520,0.03108
3411.64503,0.03134
3409.58485,0.03137
3407.52468,0.03124
3405.46451,0.03123
3403.40434,0.03129
3401.34416,0.03125
3399.28399,0.03118
3397.22382,0.03124
3395.16365,0.03140
3393.10348,0.03163
3391.04330,0.03186
3388.98313,0.03201
3386.92296,0.03207
3384.86279,0.03210
3382.80262,0.03213
3380.74244,0.03208
3378.68227,0.03202
3376.62210,0.03206
3374.56193,0.03228
3372.50176,0.03239
3370.44158,0.03217
3368.38141,0.03198
3366.32124,0.03218
3364.26107,0.03254
3362.20089,0.03261
3360.14072,0.03246
3358.08055,0.03233
3356.02038,0.03227
3353.96021,0.03229
3351.90003,0.03229
3349.83986,0.03216
3347.77969,0.03218
3345.71952,0.03238
3343.65935,0.03243
3341.59917,0.03232
3339.53900,0.03225
3337.47883,0.03219
3335.41866,0.03201
3333.35849,0.03180
3331.29831,0.03178
3329.23814,0.03195
3327.17797,0.03207
3325.11780,0.03191
3323.05762,0.03162
3320.99745,0.03148
3318.93728,0.03159
3316.87711,0.03177
3314.81694,0.03181
3312.75676,0.03164
3310.69659,0.03142
3308.63642,0.03155
3306.57625,0.03174
3304.51608,0.03150
3302.45590,0.03113
3300.39573,0.03094
3298.33556,0.03091
3296.27539,0.03111
3294.21521,0.03138
3292.15504,0.03158
3290.09487,0.03176
3288.03470,0.03184
3285.97453,0.03175
3283.91435,0.03163
3281.85418,0.03161
3279.79401,0.03173
3277.73384,0.03171
3275.67367,0.03133
3273.61349,0.03089
3271.55332,0.03081
3269.49315,0.03102
3267.43298,0.03115
3265.37281,0.03098
3263.31263,0.03055
3261.25246,0.03020
3259.19229,0.03023
3257.13212,0.03054
3255.07194,0.03088
3253.01177,0.03094
3250.95160,0.03042
3248.89143,0.02984
3246.83126,0.02976
3244.77108,0.02998
3242.71091,0.03018
3240.65074,0.03021
3238.59057,0.03020
3236.53040,0.03032
3234.47022,0.03022
3232.41005,0.02985
3230.34988,0.02976
3228.28971,0.03016
3226.22954,0.03063
3224.16936,0.03077
3222.10919,0.03054
3220.04902,0.03011
3217.98885,0.02974
3215.92867,0.02962
3213.86850,0.02963
3211.80833,0.02960
3209.74816,0.02948
3207.68799,0.02938
3205.62781,0.02927
3203.56764,0.02895
3201.50747,0.02863
3199.44730,0.02858
3197.38713,0.02866
3195.32695,0.02868
3193.26678,0.02857
3191.20661,0.02841
3189.14644,0.02840
3187.08626,0.02854
3185.02609,0.02847
3182.96592,0.02806
3180.90575,0.02771
3178.84558,0.02766
3176.78540,0.02757
3174.72523,0.02730
3172.66506,0.02714
3170.60489,0.02706
3168.54472,0.02697
3166.48454,0.02685
3164.42437,0.02669
3162.36420,0.02661
3160.30403,0.02658
3158.24386,0.02643
3156.18368,0.02634
3154.12351,0.02646
3152.06334,0.02666
3150.00317,0.02672
3147.94299,0.02643
3145.88282,0.02606
3143.82265,0.02585
3141.76248,0.02569
3139.70231,0.02561
3137.64213,0.02557
3135.58196,0.02519
3133.52179,0.02465
3131.46162,0.02446
3129.40145,0.02462
3127.34127,0.02477
3125.28110,0.02477
3123.22093,0.02467
3121.16076,0.02456
3119.10058,0.02453
3117.04041,0.02446
3114.98024,0.02419
3112.92007,0.02393
3110.85990,0.02369
3108.79972,0.02335
3106.73955,0.02307
3104.67938,0.02295
3102.61921,0.02292
3100.55904,0.02284
3098.49886,0.02260
3096.43869,0.02239
3094.37852,0.02230
3092.31835,0.02222
3090.25818,0.02210
3088.19800,0.02188
3086.13783,0.02165
3084.07766,0.02156
3082.01749,0.02146
3079.95731,0.02125
3077.89714,0.02120
3075.83697,0.02125
3073.77680,0.02122
3071.71663,0.02119
3069.65645,0.02120
3067.59628,0.02118
3065.53611,0.02117
3063.47594,0.02094
3061.41577,0.02045
3059.35559,0.02011
3057.29542,0.01997
3055.23525,0.01970
3053.17508,0.01942
3051.11491,0.01942
3049.05473,0.01958
3046.99456,0.01957
3044.93439,0.01946
3042.87422,0.01946
3040.81404,0.01950
3038.75387,0.01941
3036.69370,0.01920
3034.63353,0.01894
3032.57336,0.01873
3030.51318,0.01870
3028.45301,0.01868
3026.39284,0.01844
3024.33267,0.01816
3022.27250,0.01794
3020.21232,0.01780
3018.15215,0.01789
3016.09198,0.01816
3014.03181,0.01820
3011.97163,0.01775
3009.91146,0.01723
3007.85129,0.01703
3005.79112,0.01685
3003.73095,0.01658
3001.67077,0.01652
2999.61060,0.01658
2997.55043,0.01648
2995.49026,0.01623
2993.43009,0.01604
2991.36991,0.01607
2989.30974,0.01633
2987.24957,0.01647
2985.18940,0.01634
2983.12923,0.01616
2981.06905,0.01607
2979.00888,0.01600
2976.94871,0.01598
2974.88854,0.01607
2972.82836,0.01594
2970.76819,0.01563
2968.70802,0.01556
2966.64785,0.01572
2964.58768,0.01586
2962.52750,0.01596
2960.46733,0.01597
2958.40716,0.01588
2956.34699,0.01586
2954.28682,0.01591
2952.22664,0.01595
2950.16647,0.01589
2948.10630,0.01580
2946.04613,0.01592
2943.98596,0.01612
2941.92578,0.01614
2939.86561,0.01595
2937.80544,0.01575
2935.74527,0.01569
2933.68509,0.01566
2931.62492,0.01555
2929.56475,0.01536
2927.50458,0.01512
2925.44441,0.01496
2923.38423,0.01482
2921.32406,0.01474
2919.26389,0.01481
2917.20372,0.01487
2915.14355,0.01480
2913.08337,0.01468
2911.02320,0.01465
2908.96303,0.01463
2906.90286,0.01432
2904.84268,0.01400
2902.78251,0.01401
2900.72234,0.01397
2898.66217,0.01379
2896.60200,0.01376
2894.54182,0.01383
2892.48165,0.01396
2890.42148,0.01405
2888.36131,0.01407
2886.30114,0.01414
2884.24096,0.01418
2882.18079,0.01412
2880.12062,0.01388
2878.06045,0.01353
2876.00028,0.01336
2873.94010,0.01331
2871.87993,0.01313
2869.81976,0.01290
2867.75959,0.01288
2865.69941,0.01284
2863.63924,0.01264
2861.57907,0.01254
2859.51890,0.01261
2857.45873,0.01269
2855.39855,0.01253
2853.33838,0.01222
2851.27821,0.01220
2849.21804,0.01241
2847.15787,0.01235
2845.09769,0.01204
2843.03752,0.01189
2840.97735,0.01199
2838.91718,0.01212
2836.85700,0.01191
2834.79683,0.01149
2832.73666,0.01133
2830.67649,0.01136
2828.61632,0.01132
2826.55614,0.01125
2824.49597,0.01127
2822.43580,0.01132
2820.37563,0.01136
2818.31546,0.01140
2816.25528,0.01131
2814.19511,0.01109
2812.13494,0.01106
2810.07477,0.01109
2808.01460,0.01096
2805.95442,0.01078
2803.89425,0.01063
2801.83408,0.01049
2799.77391,0.01043
2797.71373,0.01039
2795.65356,0.01038
2793.59339,0.01038
2791.53322,0.01032
2789.47305,0.01035
2787.41287,0.01040
2785.35270,0.01031
2783.29253,0.01020
2781.23236,0.01018
2779.17219,0.01018
2777.11201,0.01008
2775.05184,0.00981
2772.99167,0.00956
2770.93150,0.00954
2768.87133,0.00971
2766.81115,0.00989
2764.75098,0.00987
2762.69081,0.00963
2760.63064,0.00940
2758.57046,0.00930
2756.51029,0.00917
2754.45012,0.00907
2752.38995,0.00920
2750.32978,0.00937
2748.26960,0.00940
2746.20943,0.00945
2744.14926,0.00937
2742.08909,0.00916
2740.02892,0.00910
2737.96874,0.00916
2735.90857,0.00914
2733.84840,0.00908
2731.78823,0.00916
2729.72805,0.00926
2727.66788,0.00918
2725.60771,0.00905
2723.54754,0.00903
2721.48737,0.00907
2719.42719,0.00908
2717.36702,0.00900
2715.30685,0.00876
2713.24668,0.00855
2711.18651,0.00856
2709.12633,0.00866
2707.06616,0.00870
2705.00599,0.00858
2702.94582,0.00840
2700.88565,0.00830
2698.82547,0.00828
2696.76530,0.00825
2694.70513,0.00823
2692.64496,0.00823
2690.58478,0.00824
2688.52461,0.00821
2686.46444,0.00812
2684.40427,0.00810
2682.34410,0.00811
2680.28392,0.00805
2678.22375,0.00804
2676.16358,0.00800
2674.10341,0.00776
2672.04324,0.00750
2669.98306,0.00732
2667.92289,0.00716
2665.86272,0.00730
2663.80255,0.00767
2661.74238,0.00784
2659.68220,0.00776
2657.62203,0.00760
2655.56186,0.00751
2653.50169,0.00751
2651.44151,0.00745
2649.38134,0.00732
2647.32117,0.00722
2645.26100,0.00720
2643.20083,0.00730
2641.14065,0.00736
2639.08048,0.00734
2637.02031,0.00726
2634.96014,0.00711
2632.89997,0.00707
2630.83979,0.00724
2628.77962,0.00728
2626.71945,0.00696
2624.65928,0.00662
2622.59910,0.00656
2620.53893,0.00666
2618.47876,0.00683
2616.41859,0.00699
2614.35842,0.00697
2612.29824,0.00681
2610.23807,0.00677
2608.17790,0.00681
2606.11773,0.00663
2604.05756,0.00645
2601.99738,0.00654
2599.93721,0.00664
2597.87704,0.00648
2595.81687,0.00624
2593.75670,0.00607
2591.69652,0.00601
2589.63635,0.00605
2587.57618,0.00600
2585.51601,0.00575
2583.45583,0.00569
2581.39566,0.00597
2579.33549,0.00630
2577.27532,0.00646
2575.21515,0.00632
2573.15497,0.00608
2571.09480,0.00599
2569.03463,0.00598
2566.97446,0.00606
2564.91429,0.00617
2562.85411,0.00615
2560.79394,0.00618
2558.73377,0.00619
2556.67360,0.00574
2554.61342,0.00523
2552.55325,0.00520
2550.49308,0.00539
2548.43291,0.00561
2546.37274,0.00573
2544.31256,0.00565
2542.25239,0.00562
2540.19222,0.00573
2538.13205,0.00565
2536.07188,0.00536
2534.01170,0.00529
2531.95153,0.00557
2529.89136,0.00578
2527.83119,0.00578
2525.77102,0.00582
2523.71084,0.00597
2521.65067,0.00622
2519.59050,0.00654
2517.53033,0.00652
2515.47015,0.00615
2513.40998,0.00591
2511.34981,0.00588
2509.28964,0.00577
2507.22947,0.00563
2505.16929,0.00569
2503.10912,0.00589
2501.04895,0.00599
2498.98878,0.00603
2496.92861,0.00606
2494.86843,0.00602
2492.80826,0.00603
2490.74809,0.00618
2488.68792,0.00632
2486.62775,0.00634
2484.56757,0.00618
2482.50740,0.00597
2480.44723,0.00576
2478.38706,0.00546
2476.32688,0.00528
2474.26671,0.00531
2472.20654,0.00549
2470.14637,0.00584
2468.08620,0.00628
2466.02602,0.00640
2463.96585,0.00603
2461.90568,0.00546
2459.84551,0.00517
2457.78534,0.00539
2455.72516,0.00574
2453.66499,0.00593
2451.60482,0.00605
2449.54465,0.00599
2447.48447,0.00579
2445.42430,0.00565
2443.36413,0.00563
2441.30396,0.00572
2439.24379,0.00586
2437.18361,0.00612
2435.12344,0.00618
2433.06327,0.00601
2431.00310,0.00620
2428.94293,0.00665
2426.88275,0.00679
2424.82258,0.00660
2422.76241,0.00640
2420.70224,0.00643
2418.64207,0.00647
2416.58189,0.00617
2414.52172,0.00583
2412.46155,0.00571
2410.40138,0.00558
2408.34120,0.00541
2406.28103,0.00544
2404.22086,0.00565
2402.16069,0.00576
2400.10052,0.00582
2398.04034,0.00605
2395.98017,0.00623
2393.92000,0.00614
2391.85983,0.00591
2389.79966,0.00574
2387.73948,0.00568
2385.67931,0.00580
2383.61914,0.00600
2381.55897,0.00610
2379.49880,0.00626
2377.43862,0.00653
2375.37845,0.00668
2373.31828,0.00672
2371.25811,0.00654
2369.19793,0.00591
2367.13776,0.00485
2365.07759,0.00305
2363.01742,0.00148
2360.95725,0.00243
2358.89707,0.00514
2356.83690,0.00663
2354.77673,0.00637
2352.71656,0.00600
2350.65639,0.00606
2348.59621,0.00600
2346.53604,0.00595
2344.47587,0.00661
2342.41570,0.00764
2340.35552,0.00762
2338.29535,0.00670
2336.23518,0.00584
2334.17501,0.00510
2332.11484,0.00492
2330.05466,0.00601
2327.99449,0.00781
2325.93432,0.00893
2323.87415,0.00884
2321.81398,0.00817
2319.75380,0.00760
2317.69363,0.00723
2315.63346,0.00686
2313.57329,0.00658
2311.51312,0.00658
2309.45294,0.00656
2307.39277,0.00620
2305.33260,0.00571
2303.27243,0.00553
2301.21225,0.00577
2299.15208,0.00609
2297.09191,0.00631
2295.03174,0.00651
2292.97157,0.00662
2290.91139,0.00651
2288.85122,0.00636
2286.79105,0.00636
2284.73088,0.00640
2282.67071,0.00619
2280.61053,0.00583
2278.55036,0.00595
2276.49019,0.00660
2274.43002,0.00701
2272.36984,0.00683
2270.30967,0.00645
2268.24950,0.00600
2266.18933,0.00567
2264.12916,0.00576
2262.06898,0.00584
2260.00881,0.00544
2257.94864,0.00506
2255.88847,0.00511
2253.82830,0.00532
2251.76812,0.00527
2249.70795,0.00515
2247.64778,0.00559
2245.58761,0.00646
2243.52744,0.00688
2241.46726,0.00656
2239.40709,0.00591
2237.34692,0.00545
2235.28675,0.00503
2233.22657,0.00500
2231.16640,0.00563
2229.10623,0.00580
2227.04606,0.00546
2224.98589,0.00501
2222.92571,0.00440
2220.86554,0.00450
2218.80537,0.00473
2216.74520,0.00424
2214.68503,0.00451
2212.62485,0.00617
2210.56468,0.00704
2208.50451,0.00591
2206.44434,0.00494
2204.38417,0.00540
2202.32399,0.00569
2200.26382,0.00524
2198.20365,0.00492
2196.14348,0.00469
2194.08330,0.00491
2192.02313,0.00562
2189.96296,0.00568
2187.90279,0.00521
2185.84262,0.00456
2183.78244,0.00440
2181.72227,0.00542
2179.66210,0.00622
2177.60193,0.00601
2175.54176,0.00563
2173.48158,0.00510
2171.42141,0.00450
2169.36124,0.00441
2167.30107,0.00424
2165.24089,0.00396
2163.18072,0.00386
2161.12055,0.00277
2159.06038,0.00078
2157.00021,0.00000
2154.94003,0.00140
2152.87986,0.00351
2150.81969,0.00477
2148.75952,0.00532
2146.69935,0.00508
2144.63917,0.00430
2142.57900,0.00393
2140.51883,0.00371
2138.45866,0.00370
2136.39849,0.00409
2134.33831,0.00403
2132.27814,0.00319
2130.21797,0.00242
2128.15780,0.00241
2126.09762,0.00307
2124.03745,0.00408
2121.97728,0.00507
2119.91711,0.00567
2117.85694,0.00579
2115.79676,0.00594
2113.73659,0.00594
2111.67642,0.00518
2109.61625,0.00439
2107.55608,0.00428
2105.49590,0.00418
2103.43573,0.00401
2101.37556,0.00423
2099.31539,0.00436
2097.25521,0.00408
2095.19504,0.00394
2093.13487,0.00429
2091.07470,0.00447
2089.01453,0.00396
2086.95435,0.00345
2084.89418,0.00371
2082.83401,0.00453
2080.77384,0.00528
2078.71367,0.00550
2076.65349,0.00490
2074.59332,0.00418
2072.53315,0.00414
2070.47298,0.00451
2068.41281,0.00509
2066.35263,0.00546
2064.29246,0.00481
2062.23229,0.00405
2060.17212,0.00436
2058.11194,0.00495
2056.05177,0.00531
2053.99160,0.00580
2051.93143,0.00577
2049.87126,0.00456
2047.81108,0.00285
2045.75091,0.00187
2043.69074,0.00249
2041.63057,0.00436
2039.57040,0.00598
2037.51022,0.00639
2035.45005,0.00537
2033.38988,0.00336
2031.32971,0.00224
2029.26954,0.00237
2027.20936,0.00206
2025.14919,0.00144
2023.08902,0.00196
2021.02885,0.00330
2018.96867,0.00377
2016.90850,0.00308
2014.84833,0.00242
2012.78816,0.00251
2010.72799,0.00261
2008.66781,0.00207
2006.60764,0.00140
2004.54747,0.00128
2002.48730,0.00235
2000.42713,0.00364
1998.36695,0.00325
1996.30678,0.00235
1994.24661,0.00304
1992.18644,0.00407
1990.12626,0.00384
1988.06609,0.00345
1986.00592,0.00371
1983.94575,0.00336
1981.88558,0.00158
1979.82540,0.00000
1977.76523,0.00005
1975.70506,0.00114
1973.64489,0.00174
1971.58472,0.00160
1969.52454,0.00179
1967.46437,0.00180
1965.40420,0.00141
1963.34403,0.00156
1961.28386,0.00171
1959.22368,0.00142
1957.16351,0.00146
1955.10334,0.00197
1953.04317,0.00265
1950.98299,0.00320
1948.92282,0.00318
1946.86265,0.00282
1944.80248,0.00300
1942.74231,0.00364
1940.68213,0.00398
1938.62196,0.00370
1936.56179,0.00289
1934.50162,0.00228
1932.44145,0.00237
1930.38127,0.00272
1928.32110,0.00271
1926.26093,0.00248
1924.20076,0.00261
1922.14059,0.00309
1920.08041,0.00334
1918.02024,0.00302
1915.96007,0.00254
1913.89990,0.00239
1911.83972,0.00256
1909.77955,0.00277
1907.71938,0.00273
1905.65921,0.00261
1903.59904,0.00275
1901.53886,0.00292
1899.47869,0.00274
1897.41852,0.00241
1895.35835,0.00228
1893.29818,0.00233
1891.23800,0.00233
1889.17783,0.00223
1887.11766,0.00226
1885.05749,0.00237
1882.99731,0.00229
1880.93714,0.00218
1878.87697,0.00227
1876.81680,0.00249
1874.75663,0.00277
1872.69645,0.00308
1870.63628,0.00311
1868.57611,0.00267
1866.51594,0.00217
1864.45577,0.00200
1862.39559,0.00218
1860.33542,0.00241
1858.27525,0.00236
1856.21508,0.00222
1854.15491,0.00231
1852.09473,0.00247
1850.03456,0.00243
1847.97439,0.00232
1845.91422,0.00230
1843.85404,0.00236
1841.79387,0.00238
1839.73370,0.00239
1837.67353,0.00244
1835.61336,0.00252
1833.55318,0.00263
1831.49301,0.00257
1829.43284,0.00227
1827.37267,0.00211
1825.31250,0.00229
1823.25232,0.00258
1821.19215,0.00273
1819.13198,0.00271
1817.07181,0.00269
1815.01163,0.00262
1812.95146,0.00241
1810.89129,0.00232
1808.83112,0.00246
1806.77095,0.00257
1804.71077,0.00262
1802.65060,0.00274
1800.59043,0.00291
1798.53026,0.00287
1796.47009,0.00254
1794.40991,0.00225
1792.34974,0.00234
1790.28957,0.00268
1788.22940,0.00291
1786.16923,0.00297
1784.10905,0.00290
1782.04888,0.00270
1779.98871,0.00248
1777.92854,0.00235
1775.86836,0.00232
1773.80819,0.00234
1771.74802,0.00231
1769.68785,0.00222
1767.62768,0.00231
1765.56750,0.00260
1763.50733,0.00278
1761.44716,0.00291
1759.38699,0.00322
1757.32682,0.00344
1755.26664,0.00322
1753.20647,0.00292
1751.14630,0.00311
1749.08613,0.00363
1747.02596,0.00398
1744.96578,0.00414
1742.90561,0.00419
1740.84544,0.00415
1738.78527,0.00410
1736.72509,0.00407
1734.66492,0.00414
1732.60475,0.00427
1730.54458,0.00431
1728.48441,0.00438
1726.42423,0.00454
1724.36406,0.00468
1722.30389,0.00469
1720.24372,0.00465
1718.18355,0.00486
1716.12337,0.00526
1714.06320,0.00540
1712.00303,0.00536
1709.94286,0.00538
1707.88268,0.00554
1705.82251,0.00583
1703.76234,0.00606
1701.70217,0.00628
1699.64200,0.00673
1697.58182,0.00710
1695.52165,0.00721
1693.46148,0.00728
1691.40131,0.00733
1689.34114,0.00746
1687.28096,0.00781
1685.22079,0.00844
1683.16062,0.00923
1681.10045,0.00982
1679.04028,0.01025
1676.98010,0.01067
1674.91993,0.01102
1672.85976,0.01120
1670.79959,0.01134
1668.73941,0.01161
1666.67924,0.01187
1664.61907,0.01214
1662.55890,0.01264
1660.49873,0.01321
1658.43855,0.01347
1656.37838,0.01346
1654.31821,0.01368
1652.25804,0.01423
1650.19787,0.01420
1648.13769,0.01393
1646.07752,0.01410
1644.01735,0.01434
1641.95718,0.01435
1639.89701,0.01430
1637.83683,0.01431
1635.77666,0.01441
1633.71649,0.01441
1631.65632,0.01415
1629.59614,0.01384
1627.53597,0.01364
1625.47580,0.01352
1623.41563,0.01339
1621.35546,0.01313
1619.29528,0.01271
1617.23511,0.01241
1615.17494,0.01243
1613.11477,0.01240
1611.05460,0.01206
1608.99442,0.01164
1606.93425,0.01137
1604.87408,0.01117
1602.81391,0.01090
1600.75373,0.01049
1598.69356,0.00999
1596.63339,0.00958
1594.57322,0.00933
1592.51305,0.00910
1590.45287,0.00875
1588.39270,0.00836
1586.33253,0.00806
1584.27236,0.00779
1582.21219,0.00748
1580.15201,0.00716
1578.09184,0.00689
1576.03167,0.00677
1573.97150,0.00665
1571.91133,0.00630
1569.85115,0.00584
1567.79098,0.00559
1565.73081,0.00550
1563.67064,0.00532
1561.61046,0.00504
1559.55029,0.00489
1557.49012,0.00490
1555.42995,0.00485
1553.36978,0.00470
1551.30960,0.00442
1549.24943,0.00406
1547.18926,0.00376
1545.12909,0.00352
1543.06892,0.00333
1541.00874,0.00327
1538.94857,0.00337
1536.88840,0.00339
1534.82823,0.00333
1532.76805,0.00319
1530.70788,0.00292
1528.64771,0.00262
1526.58754,0.00241
1524.52737,0.00231
1522.46719,0.00228
1520.40702,0.00235
1518.34685,0.00245
1516.28668,0.00243
1514.22651,0.00218
1512.16633,0.00178
1510.10616,0.00143
1508.04599,0.00132
1505.98582,0.00155
1503.92565,0.00180
1501.86547,0.00192
1499.80530,0.00192
1497.74513,0.00184
1495.68496,0.00175
1493.62478,0.00157
1491.56461,0.00135
1489.50444,0.00128
1487.44427,0.00142
1485.38410,0.00161
1483.32392,0.00178
1481.26375,0.00196
1479.20358,0.00208
1477.14341,0.00208
1475.08324,0.00205
1473.02306,0.00216
1470.96289,0.00234
1468.90272,0.00238
1466.84255,0.00237
1464.78238,0.00261
1462.72220,0.00295
1460.66203,0.00303
1458.60186,0.00296
1456.54169,0.00309
1454.48151,0.00326
1452.42134,0.00323
1450.36117,0.00313
1448.30100,0.00316
1446.24083,0.00333
1444.18065,0.00332
1442.12048,0.00306
1440.06031,0.00278
1438.00014,0.00274
1435.93997,0.00301
1433.87979,0.00330
1431.81962,0.00346
1429.75945,0.00355
1427.69928,0.00365
1425.63910,0.00369
1423.57893,0.00359
1421.51876,0.00349
1419.45859,0.00363
1417.39842,0.00387
1415.33824,0.00388
1413.27807,0.00381
1411.21790,0.00377
1409.15773,0.00366
1407.09756,0.00350
1405.03738,0.00341
1402.97721,0.00331
1400.91704,0.00321
1398.85687,0.00319
1396.79670,0.00318
1394.73652,0.00314
1392.67635,0.00309
1390.61618,0.00299
1388.55601,0.00292
1386.49583,0.00297
1384.43566,0.00304
1382.37549,0.00302
1380.31532,0.00288
1378.25515,0.00273
1376.19497,0.00275
1374.13480,0.00291
1372.07463,0.00307
1370.01446,0.00316
1367.95429,0.00317
1365.89411,0.00307
1363.83394,0.00289
1361.77377,0.00272
1359.71360,0.00259
1357.65343,0.00254
1355.59325,0.00251
1353.53308,0.00240
1351.47291,0.00231
1349.41274,0.00228
1347.35256,0.00225
1345.29239,0.00222
1343.23222,0.00218
1341.17205,0.00213
1339.11188,0.00211
1337.05170,0.00209
1334.99153,0.00206
1332.93136,0.00206
1330.87119,0.00208
1328.81102,0.00207
1326.75084,0.00198
1324.69067,0.00183
1322.63050,0.00167
1320.57033,0.00158
1318.51015,0.00155
1316.44998,0.00152
1314.38981,0.00145
1312.32964,0.00136
1310.26947,0.00129
1308.20929,0.00124
1306.14912,0.00118
1304.08895,0.00119
1302.02878,0.00133
1299.96861,0.00138
1297.90843,0.00122
1295.84826,0.00109
1293.78809,0.00111
1291.72792,0.00121
1289.66775,0.00140
1287.60757,0.00150
1285.54740,0.00145
1283.48723,0.00151
1281.42706,0.00162
1279.36688,0.00158
1277.30671,0.00155
1275.24654,0.00160
1273.18637,0.00160
1271.12620,0.00157
1269.06602,0.00150
1267.00585,0.00144
1264.94568,0.00147
1262.88551,0.00156
1260.82534,0.00172
1258.76516,0.00180
1256.70499,0.00169
1254.64482,0.00154
1252.58465,0.00162
1250.52447,0.00182
1248.46430,0.00183
1246.40413,0.00166
1244.34396,0.00148
1242.28379,0.00139
1240.22361,0.00138
1238.16344,0.00137
1236.10327,0.00139
1234.04310,0.00144
1231.98293,0.00142
1229.92275,0.00131
1227.86258,0.00120
1225.80241,0.00119
1223.74224,0.00126
1221.68207,0.00122
1219.62189,0.00109
1217.56172,0.00096
1215.50155,0.00081
1213.44138,0.00065
1211.38120,0.00055
1209.32103,0.00049
1207.26086,0.00041
1205.20069,0.00036
1203.14052,0.00046
1201.08034,0.00059
1199.02017,0.00048
1196.96000,0.00022
1194.89983,0.00003
1192.83966,0.00000
1190.77948,0.00017
1188.71931,0.00050
1186.65914,0.00077
1184.59897,0.00093
1182.53880,0.00106
1180.47862,0.00123
1178.41845,0.00154
1176.35828,0.00199
1174.29811,0.00247
1172.23793,0.00298
1170.17776,0.00354
1168.11759,0.00403
1166.05742,0.00427
1163.99725,0.00444
1161.93707,0.00482
1159.87690,0.00524
1157.81673,0.00552
1155.75656,0.00580
1153.69639,0.00611
1151.63621,0.00646
1149.57604,0.00681
1147.51587,0.00710
1145.45570,0.00739
1143.39552,0.00769
1141.33535,0.00807
1139.27518,0.00859
1137.21501,0.00912
1135.15484,0.00951
1133.09466,0.00975
1131.03449,0.00988
1128.97432,0.01012
1126.91415,0.01072
1124.85398,0.01140
1122.79380,0.01183
1120.73363,0.01213
1118.67346,0.01244
1116.61329,0.01296
1114.55312,0.01363
1112.49294,0.01433
1110.43277,0.01508
1108.37260,0.01583
1106.31243,0.01660
1104.25225,0.01743
1102.19208,0.01820
1100.13191,0.01880
1098.07174,0.01940
1096.01157,0.02029
1093.95139,0.02125
1091.89122,0.02199
1089.83105,0.02253
1087.77088,0.02297
1085.71071,0.02345
1083.65053,0.02407
1081.59036,0.02471
1079.53019,0.02528
1077.47002,0.02579
1075.40985,0.02620
1073.34967,0.02662
1071.28950,0.02698
1069.22933,0.02706
1067.16916,0.02711
1065.10898,0.02727
1063.04881,0.02740
1060.98864,0.02749
1058.92847,0.02752
1056.86830,0.02733
1054.80812,0.02690
1052.74795,0.02650
1050.68778,0.02626
1048.62761,0.02595
1046.56744,0.02552
1044.50726,0.02501
1042.44709,0.02449
1040.38692,0.02393
1038.32675,0.02337
1036.26657,0.02291
1034.20640,0.02238
1032.14623,0.02175
1030.08606,0.02134
1028.02589,0.02094
1025.96571,0.02020
1023.90554,0.01943
1021.84537,0.01891
1019.78520,0.01858
1017.72503,0.01819
1015.66485,0.01767
1013.60468,0.01715
1011.54451,0.01657
1009.48434,0.01599
1007.42417,0.01553
1005.36399,0.01511
1003.30382,0.01474
1001.24365,0.01460
999.18348,0.01465
997.12330,0.01481
995.06313,0.01513
993.00296,0.01567
990.94279,0.01621
988.88262,0.01645
986.82244,0.01628
984.76227,0.01588
982.70210,0.01544
980.64193,0.01495
978.58176,0.01426
976.52158,0.01336
974.46141,0.01254
972.40124,0.01185
970.34107,0.01096
968.28089,0.00971
966.22072,0.00838
964.16055,0.00741
962.10038,0.00697
960.04021,0.00668
957.98003,0.00617
955.91986,0.00572
953.85969,0.00570
951.79952,0.00582
949.73935,0.00563
947.67917,0.00536
945.61900,0.00538
943.55883,0.00542
941.49866,0.00517
939.43849,0.00480
937.37831,0.00466
935.31814,0.00466
933.25797,0.00466
931.19780,0.00469
929.13762,0.00467
927.07745,0.00459
925.01728,0.00459
922.95711,0.00462
920.89694,0.00449
918.83676,0.00397
916.77659,0.00294
914.71642,0.00186
912.65625,0.00151
910.59608,0.00180
908.53590,0.00189
906.47573,0.00159
904.41556,0.00138
902.35539,0.00153
900.29522,0.00189
898.23504,0.00209
896.17487,0.00217
894.11470,0.00243
892.05453,0.00273
889.99435,0.00272
887.93418,0.00249
885.87401,0.00231
883.81384,0.00230
881.75367,0.00255
879.69349,0.00301
877.63332,0.00332
875.57315,0.00333
873.51298,0.00328
871.45281,0.00334
869.39263,0.00382
867.33246,0.00443
865.27229,0.00452
863.21212,0.00437
861.15194,0.00420
859.09177,0.00387
857.03160,0.00368
854.97143,0.00373
852.91126,0.00378
850.85108,0.00358
848.79091,0.00329
846.73074,0.00322
844.67057,0.00323
842.61040,0.00305
840.55022,0.00270
838.49005,0.00235
836.42988,0.00228
834.36971,0.00245
832.30954,0.00252
830.24936,0.00241
828.18919,0.00217
826.12902,0.00170
824.06885,0.00120
822.00867,0.00107
819.94850,0.00124
817.88833,0.00141
815.82816,0.00163
813.76799,0.00185
811.70781,0.00180
809.64764,0.00154
807.58747,0.00132
805.52730,0.00142
803.46713,0.00173
801.40695,0.00164
799.34678,0.00118
797.28661,0.00075
795.22644,0.00029
793.16627,0.00000
791.10609,0.00015
789.04592,0.00067
786.98575,0.00124
784.92558,0.00129
782.86540,0.00102
780.80523,0.00106
778.74506,0.00122
776.68489,0.00126
774.62472,0.00133
772.56454,0.00126
770.50437,0.00114
768.44420,0.00119
766.38403,0.00126
764.32386,0.00149
762.26368,0.00208
760.20351,0.00227
758.14334,0.00156
756.08317,0.00097
754.02299,0.00095
751.96282,0.00076
749.90265,0.00076
747.84248,0.00109
745.78231,0.00098
743.72213,0.00063
741.66196,0.00073
739.60179,0.00100
737.54162,0.00117
735.48145,0.00138
733.42127,0.00127
731.36110,0.00085
729.30093,0.00070
727.24076,0.00084
725.18059,0.00130
723.12041,0.00190
721.06024,0.00212
719.00007,0.00193
716.93990,0.00167
714.87972,0.00165
712.81955,0.00205
710.75938,0.00277
708.69921,0.00330
706.63904,0.00326
704.57886,0.00304
702.51869,0.00276
700.45852,0.00209
698.39835,0.00160
696.33818,0.00172
694.27800,0.00176
692.21783,0.00162
690.15766,0.00182
688.09749,0.00258
686.03731,0.00340
683.97714,0.00338
681.91697,0.00264
679.85680,0.00177
677.79663,0.00079
675.73645,0.00000
673.67628,-0.00008
671.61611,0.00029
669.55594,0.00095
667.49577,0.00232
665.43559,0.00318
663.37542,0.00301
661.31525,0.00266
659.25508,0.00260
657.19491,0.00243
655.13473,0.00220
653.07456,0.00249
651.01439,0.00278
648.95422,0.00228
646.89404,0.00154
644.83387,0.00154
642.77370,0.00208
640.71353,0.00200
638.65336,0.00134
636.59318,0.00107
634.53301,0.00090
632.47284,0.00039
630.41267,0.00000
628.35250,0.00001
626.29232,0.00028
624.23215,0.00045
622.17198,0.00033
620.11181,0.00053
618.05164,0.00080
615.99146,0.00072
613.93129,0.00088
611.87112,0.00080
609.81095,0.00001
607.75077,-0.00072
605.69060,-0.00037
603.63043,0.00034
601.57026,0.00022
599.51009,0.00000
