3996.73391,0.00042
3994.67373,0.00059
3992.61356,0.00065
3990.55339,0.00040
3988.49322,0.00014
3986.43305,0.00032
3984.37287,0.00057
3982.31270,0.00042
3980.25253,0.00010
3978.19236,0.00000
3976.13219,0.00012
3974.07201,0.00025
3972.01184,0.00026
3969.95167,0.00019
3967.89150,0.00019
3965.83133,0.00025
3963.77115,0.00040
3961.71098,0.00070
3959.65081,0.00091
3957.59064,0.00079
3955.53046,0.00055
3953.47029,0.00061
3951.41012,0.00097
3949.34995,0.00122
3947.28978,0.00118
3945.22960,0.00095
3943.16943,0.00060
3941.10926,0.00021
3939.04909,0.00019
3936.98892,0.00062
3934.92874,0.00103
3932.86857,0.00096
3930.80840,0.00066
3928.74823,0.00071
3926.68805,0.00096
3924.62788,0.00088
3922.56771,0.00062
3920.50754,0.00060
3918.44737,0.00072
3916.38719,0.00071
3914.32702,0.00056
3912.26685,0.00039
3910.20668,0.00050
3908.14651,0.00106
3906.08633,0.00158
3904.02616,0.00150
3901.96599,0.00109
3899.90582,0.00078
3897.84565,0.00072
3895.78547,0.00088
3893.72530,0.00088
3891.66513,0.00058
3889.60496,0.00049
3887.54478,0.00083
3885.48461,0.00117
3883.42444,0.00150
3881.36427,0.00167
3879.30410,0.00134
3877.24392,0.00110
3875.18375,0.00130
3873.12358,0.00141
3871.06341,0.00103
3869.00324,0.00056
3866.94306,0.00074
3864.88289,0.00116
3862.82272,0.00107
3860.76255,0.00086
3858.70237,0.00116
3856.64220,0.00154
3854.58203,0.00118
3852.52186,0.00023
3850.46169,0.00000
3848.40151,0.00058
3846.34134,0.00137
3844.28117,0.00192
3842.22100,0.00191
3840.16083,0.00142
3838.10065,0.00093
3836.04048,0.00087
3833.98031,0.00091
3831.92014,0.00062
3829.85997,0.00045
3827.79979,0.00084
3825.73962,0.00140
3823.67945,0.00158
3821.61928,0.00130
3819.55910,0.00112
3817.49893,0.00126
3815.43876,0.00107
3813.37859,0.00078
3811.31842,0.00092
3809.25824,0.00119
3807.19807,0.00129
3805.13790,0.00154
3803.07773,0.00210
3801.01756,0.00226
3798.95738,0.00185
3796.89721,0.00142
3794.83704,0.00116
3792.77687,0.00111
3790.71670,0.00121
3788.65652,0.00131
3786.59635,0.00114
3784.53618,0.00070
3782.47601,0.00036
3780.41583,0.00033
3778.35566,0.00060
3776.29549,0.00105
3774.23532,0.00136
3772.17515,0.00130
3770.11497,0.00091
3768.05480,0.00053
3765.99463,0.00046
3763.93446,0.00070
3761.87429,0.00104
3759.81411,0.00119
3757.75394,0.00127
3755.69377,0.00163
3753.63360,0.00207
3751.57342,0.00194
3749.51325,0.00139
3747.45308,0.00137
3745.39291,0.00148
3743.33274,0.00094
3741.27256,0.00052
3739.21239,0.00074
3737.15222,0.00097
3735.09205,0.00091
3733.03188,0.00079
3730.97170,0.00080
3728.91153,0.00095
3726.85136,0.00114
3724.79119,0.00124
3722.73102,0.00122
3720.67084,0.00107
3718.61067,0.00070
3716.55050,0.00060
3714.49033,0.00075
3712.43015,0.00043
3710.36998,0.00000
3708.30981,0.00001
3706.24964,0.00031
3704.18947,0.00054
3702.12929,0.00079
3700.06912,0.00110
3698.00895,0.00134
3695.94878,0.00154
3693.88861,0.00169
3691.82843,0.00196
3689.76826,0.00209
3687.70809,0.00193
3685.64792,0.00175
3683.58775,0.00179
3681.52757,0.00198
3679.46740,0.00233
3677.40723,0.00246
3675.34706,0.00180
3673.28688,0.00106
3671.22671,0.00115
3669.16654,0.00144
3667.10637,0.00147
3665.04620,0.00159
3662.98602,0.00183
3660.92585,0.00206
3658.86568,0.00229
3656.80551,0.00231
3654.74534,0.00218
3652.68516,0.00228
3650.62499,0.00237
3648.56482,0.00240
3646.50465,0.00267
3644.44447,0.00281
3642.38430,0.00289
3640.32413,0.00320
3638.26396,0.00353
3636.20379,0.00364
3634.14361,0.00364
3632.08344,0.00370
3630.02327,0.00383
3627.96310,0.00388
3625.90293,0.00380
3623.84275,0.00405
3621.78258,0.00465
3619.72241,0.00503
3617.66224,0.00503
3615.60207,0.00516
3613.54189,0.00567
3611.48172,0.00585
3609.42155,0.00565
3607.36138,0.00572
3605.30120,0.00609
3603.24103,0.00626
3601.18086,0.00606
3599.12069,0.00594
3597.06052,0.00593
3595.00034,0.00587
3592.94017,0.00580
3590.88000,0.00614
3588.81983,0.00661
3586.75966,0.00686
3584.69948,0.00698
3582.63931,0.00726
3580.57914,0.00757
3578.51897,0.00760
3576.45879,0.00753
3574.39862,0.00783
3572.33845,0.00847
3570.27828,0.00893
3568.21811,0.00882
3566.15793,0.00840
3564.09776,0.00835
3562.03759,0.00868
3559.97742,0.00895
3557.91725,0.00891
3555.85707,0.00893
3553.79690,0.00931
3551.73673,0.00982
3549.67656,0.01013
3547.61639,0.01008
3545.55621,0.00980
3543.49604,0.00974
3541.43587,0.01009
3539.37570,0.01054
3537.31552,0.01078
3535.25535,0.01070
3533.19518,0.01066
3531.13501,0.01092
3529.07484,0.01125
3527.01466,0.01145
3524.95449,0.01149
3522.89432,0.01127
3520.83415,0.01108
3518.77398,0.01124
3516.71380,0.01151
3514.65363,0.01164
3512.59346,0.01179
3510.53329,0.01209
3508.47312,0.01229
3506.41294,0.01224
3504.35277,0.01220
3502.29260,0.01251
3500.23243,0.01302
3498.17225,0.01320
3496.11208,0.01295
3494.05191,0.01268
3491.99174,0.01266
3489.93157,0.01291
3487.87139,0.01332
3485.81122,0.01362
3483.75105,0.01371
3481.69088,0.01380
3479.63071,0.01405
3477.57053,0.01441
3475.51036,0.01466
3473.45019,0.01463
3471.39002,0.01448
3469.32984,0.01455
3467.26967,0.01470
3465.20950,0.01461
3463.14933,0.01449
3461.08916,0.01458
3459.02898,0.01469
3456.96881,0.01484
3454.90864,0.01502
3452.84847,0.01515
3450.78830,0.01541
3448.72812,0.01582
3446.66795,0.01598
3444.60778,0.01587
3442.54761,0.01582
3440.48744,0.01590
3438.42726,0.01603
3436.36709,0.01622
3434.30692,0.01639
3432.24675,0.01642
3430.18657,0.01640
3428.12640,0.01644
3426.06623,0.01659
3424.00606,0.01695
3421.94589,0.01724
3419.88571,0.01726
3417.82554,0.01725
3415.76537,0.01739
3413.70520,0.01741
3411.64503,0.01712
3409.58485,0.01692
3407.52468,0.01707
3405.46451,0.01728
3403.40434,0.01752
3401.34416,0.01792
3399.28399,0.01814
3397.22382,0.01797
3395.16365,0.01777
3393.10348,0.01784
3391.04330,0.01798
3388.98313,0.01805
3386.92296,0.01812
3384.86279,0.01819
3382.80262,0.01819
3380.74244,0.01814
3378.68227,0.01810
3376.62210,0.01794
3374.56193,0.01775
3372.50176,0.01791
3370.44158,0.01832
3368.38141,0.01849
3366.32124,0.01856
3364.26107,0.01870
3362.20089,0.01872
3360.14072,0.01869
3358.08055,0.01881
3356.02038,0.01897
3353.96021,0.01900
3351.90003,0.01895
3349.83986,0.01886
3347.77969,0.01874
3345.71952,0.01880
3343.65935,0.01908
3341.59917,0.01922
3339.53900,0.01899
3337.47883,0.01862
3335.41866,0.01859
3333.35849,0.01893
3331.29831,0.01936
3329.23814,0.01969
3327.17797,0.01968
3325.11780,0.01947
3323.05762,0.01945
3320.99745,0.01951
3318.93728,0.01949
3316.87711,0.01952
3314.81694,0.01958
3312.75676,0.01930
3310.69659,0.01889
3308.63642,0.01885
3306.57625,0.01899
3304.51608,0.01900
3302.45590,0.01891
3300.39573,0.01894
3298.33556,0.01934
3296.27539,0.01985
3294.21521,0.02003
3292.15504,0.01993
3290.09487,0.01982
3288.03470,0.01972
3285.97453,0.01959
3283.91435,0.01948
3281.85418,0.01945
3279.79401,0.01960
3277.73384,0.01981
3275.67367,0.01981
3273.61349,0.01977
3271.55332,0.01992
3269.49315,0.01996
3267.43298,0.01969
3265.37281,0.01939
3263.31263,0.01935
3261.25246,0.01934
3259.19229,0.01921
3257.13212,0.01918
3255.07194,0.01933
3253.01177,0.01946
3250.95160,0.01936
3248.89143,0.01922
3246.83126,0.01924
3244.77108,0.01931
3242.71091,0.01928
3240.65074,0.01923
3238.59057,0.01939
3236.53040,0.01965
3234.47022,0.01977
3232.41005,0.01990
3230.34988,0.02013
3228.28971,0.02022
3226.22954,0.02013
3224.16936,0.01991
3222.10919,0.01958
3220.04902,0.01942
3217.98885,0.01954
3215.92867,0.01950
3213.86850,0.01915
3211.80833,0.01912
3209.74816,0.01952
3207.68799,0.01965
3205.62781,0.01941
3203.56764,0.01934
3201.50747,0.01940
3199.44730,0.01937
3197.38713,0.01929
3195.32695,0.01927
3193.26678,0.01936
3191.20661,0.01931
3189.14644,0.01919
3187.08626,0.01930
3185.02609,0.01939
3182.96592,0.01928
3180.90575,0.01911
3178.84558,0.01883
3176.78540,0.01857
3174.72523,0.01849
3172.66506,0.01844
3170.60489,0.01844
3168.54472,0.01847
3166.48454,0.01836
3164.42437,0.01825
3162.36420,0.01830
3160.30403,0.01838
3158.24386,0.01843
3156.18368,0.01857
3154.12351,0.01871
3152.06334,0.01862
3150.00317,0.01826
3147.94299,0.01790
3145.88282,0.01786
3143.82265,0.01806
3141.76248,0.01819
3139.70231,0.01815
3137.64213,0.01805
3135.58196,0.01791
3133.52179,0.01767
3131.46162,0.01753
3129.40145,0.01764
3127.34127,0.01775
3125.28110,0.01755
3123.22093,0.01724
3121.16076,0.01716
3119.10058,0.01717
3117.04041,0.01714
3114.98024,0.01709
3112.92007,0.01706
3110.85990,0.01705
3108.79972,0.01687
3106.73955,0.01657
3104.67938,0.01650
3102.61921,0.01666
3100.55904,0.01672
3098.49886,0.01659
3096.43869,0.01654
3094.37852,0.01671
3092.31835,0.01686
3090.25818,0.01686
3088.19800,0.01658
3086.13783,0.01622
3084.07766,0.01620
3082.01749,0.01621
3079.95731,0.01587
3077.89714,0.01553
3075.83697,0.01551
3073.77680,0.01564
3071.71663,0.01581
3069.65645,0.01585
3067.59628,0.01573
3065.53611,0.01559
3063.47594,0.01529
3061.41577,0.01491
3059.35559,0.01481
3057.29542,0.01496
3055.23525,0.01494
3053.17508,0.01478
3051.11491,0.01469
3049.05473,0.01464
3046.99456,0.01466
3044.93439,0.01476
3042.87422,0.01476
3040.81404,0.01475
3038.75387,0.01466
3036.69370,0.01438
3034.63353,0.01410
3032.57336,0.01399
3030.51318,0.01393
3028.45301,0.01385
3026.39284,0.01387
3024.33267,0.01398
3022.27250,0.01387
3020.21232,0.01353
3018.15215,0.01328
3016.09198,0.01323
3014.03181,0.01325
3011.97163,0.01321
3009.91146,0.01310
3007.85129,0.01312
3005.79112,0.01313
3003.73095,0.01291
3001.67077,0.01265
2999.61060,0.01261
2997.55043,0.01266
2995.49026,0.01261
2993.43009,0.01252
2991.36991,0.01239
2989.30974,0.01231
2987.24957,0.01232
2985.18940,0.01236
2983.12923,0.01235
2981.06905,0.01220
2979.00888,0.01216
2976.94871,0.01226
2974.88854,0.01209
2972.82836,0.01184
2970.76819,0.01188
2968.70802,0.01198
2966.64785,0.01203
2964.58768,0.01208
2962.52750,0.01202
2960.46733,0.01195
2958.40716,0.01197
2956.34699,0.01201
2954.28682,0.01191
2952.22664,0.01165
2950.16647,0.01155
2948.10630,0.01187
2946.04613,0.01219
2943.98596,0.01218
2941.92578,0.01202
2939.86561,0.01180
2937.80544,0.01155
2935.74527,0.01139
2933.68509,0.01141
2931.62492,0.01152
2929.56475,0.01149
2927.50458,0.01128
2925.44441,0.01103
2923.38423,0.01098
2921.32406,0.01108
2919.26389,0.01109
2917.20372,0.01097
2915.14355,0.01094
2913.08337,0.01108
2911.02320,0.01108
2908.96303,0.01078
2906.90286,0.01053
2904.84268,0.01051
2902.78251,0.01058
2900.72234,0.01065
2898.66217,0.01067
2896.60200,0.01067
2894.54182,0.01069
2892.48165,0.01069
2890.42148,0.01058
2888.36131,0.01054
2886.30114,0.01069
2884.24096,0.01066
2882.18079,0.01034
2880.12062,0.01012
2878.06045,0.01014
2876.00028,0.01009
2873.94010,0.00991
2871.87993,0.00983
2869.81976,0.00976
2867.75959,0.00969
2865.69941,0.00982
2863.63924,0.01001
2861.57907,0.01000
2859.51890,0.00980
2857.45873,0.00963
2855.39855,0.00968
2853.33838,0.00991
2851.27821,0.01000
2849.21804,0.00981
2847.15787,0.00955
2845.09769,0.00934
2843.03752,0.00922
2840.97735,0.00918
2838.91718,0.00925
2836.85700,0.00931
2834.79683,0.00926
2832.73666,0.00920
2830.67649,0.00912
2828.61632,0.00902
2826.55614,0.00901
2824.49597,0.00911
2822.43580,0.00917
2820.37563,0.00908
2818.31546,0.00891
2816.25528,0.00876
2814.19511,0.00852
2812.13494,0.00830
2810.07477,0.00838
2808.01460,0.00861
2805.95442,0.00870
2803.89425,0.00868
2801.83408,0.00867
2799.77391,0.00864
2797.71373,0.00860
2795.65356,0.00849
2793.59339,0.00830
2791.53322,0.00823
2789.47305,0.00832
2787.41287,0.00840
2785.35270,0.00835
2783.29253,0.00829
2781.23236,0.00816
2779.17219,0.00785
2777.11201,0.00765
2775.05184,0.00774
2772.99167,0.00785
2770.93150,0.00782
2768.87133,0.00781
2766.81115,0.00786
2764.75098,0.00794
2762.69081,0.00801
2760.63064,0.00792
2758.57046,0.00774
2756.51029,0.00774
2754.45012,0.00790
2752.38995,0.00788
2750.32978,0.00765
2748.26960,0.00743
2746.20943,0.00732
2744.14926,0.00733
2742.08909,0.00738
2740.02892,0.00741
2737.96874,0.00742
2735.90857,0.00740
2733.84840,0.00733
2731.78823,0.00719
2729.72805,0.00709
2727.66788,0.00717
2725.60771,0.00721
2723.54754,0.00703
2721.48737,0.00696
2719.42719,0.00705
2717.36702,0.00702
2715.30685,0.00689
2713.24668,0.00694
2711.18651,0.00710
2709.12633,0.00707
2707.06616,0.00702
2705.00599,0.00711
2702.94582,0.00710
2700.88565,0.00683
2698.82547,0.00648
2696.76530,0.00629
2694.70513,0.00633
2692.64496,0.00639
2690.58478,0.00626
2688.52461,0.00618
2686.46444,0.00631
2684.40427,0.00645
2682.34410,0.00648
2680.28392,0.00646
2678.22375,0.00638
2676.16358,0.00620
2674.10341,0.00602
2672.04324,0.00597
2669.98306,0.00603
2667.92289,0.00607
2665.86272,0.00608
2663.80255,0.00606
2661.74238,0.00594
2659.68220,0.00579
2657.62203,0.00578
2655.56186,0.00587
2653.50169,0.00585
2651.44151,0.00571
2649.38134,0.00559
2647.32117,0.00559
2645.26100,0.00569
2643.20083,0.00581
2641.14065,0.00581
2639.08048,0.00568
2637.02031,0.00547
2634.96014,0.00527
2632.89997,0.00526
2630.83979,0.00543
2628.77962,0.00549
2626.71945,0.00535
2624.65928,0.00543
2622.59910,0.00570
2620.53893,0.00567
2618.47876,0.00553
2616.41859,0.00559
2614.35842,0.00562
2612.29824,0.00532
2610.23807,0.00497
2608.17790,0.00489
2606.11773,0.00506
2604.05756,0.00541
2601.99738,0.00559
2599.93721,0.00528
2597.87704,0.00494
2595.81687,0.00488
2593.75670,0.00490
2591.69652,0.00480
2589.63635,0.00465
2587.57618,0.00467
2585.51601,0.00472
2583.45583,0.00459
2581.39566,0.00449
2579.33549,0.00474
2577.27532,0.00529
2575.21515,0.00554
2573.15497,0.00525
2571.09480,0.00486
2569.03463,0.00465
2566.97446,0.00458
2564.91429,0.00458
2562.85411,0.00447
2560.79394,0.00429
2558.73377,0.00428
2556.67360,0.00436
2554.61342,0.00445
2552.55325,0.00447
2550.49308,0.00431
2548.43291,0.00432
2546.37274,0.00480
2544.31256,0.00505
2542.25239,0.00457
2540.19222,0.00424
2538.13205,0.00453
2536.07188,0.00489
2534.01170,0.00509
2531.95153,0.00508
2529.89136,0.00494
2527.83119,0.00498
2525.77102,0.00505
2523.71084,0.00491
2521.65067,0.00468
2519.59050,0.00472
2517.53033,0.00511
2515.47015,0.00523
2513.40998,0.00498
2511.34981,0.00481
2509.28964,0.00499
2507.22947,0.00533
2505.16929,0.00533
2503.10912,0.00495
2501.04895,0.00485
2498.98878,0.00525
2496.92861,0.00555
2494.86843,0.00555
2492.80826,0.00534
2490.74809,0.00506
2488.68792,0.00501
2486.62775,0.00509
2484.56757,0.00500
2482.50740,0.00489
2480.44723,0.00504
2478.38706,0.00528
2476.32688,0.00530
2474.26671,0.00516
2472.20654,0.00501
2470.14637,0.00505
2468.08620,0.00525
2466.02602,0.00514
2463.96585,0.00492
2461.90568,0.00505
2459.84551,0.00527
2457.78534,0.00534
2455.72516,0.00531
2453.66499,0.00541
2451.60482,0.00566
2449.54465,0.00568
2447.48447,0.00547
2445.42430,0.00543
2443.36413,0.00557
2441.30396,0.00560
2439.24379,0.00569
2437.18361,0.00574
2435.12344,0.00568
2433.06327,0.00570
2431.00310,0.00573
2428.94293,0.00572
2426.88275,0.00571
2424.82258,0.00559
2422.76241,0.00531
2420.70224,0.00519
2418.64207,0.00541
2416.58189,0.00551
2414.52172,0.00525
2412.46155,0.00496
2410.40138,0.00485
2408.34120,0.00485
2406.28103,0.00487
2404.22086,0.00476
2402.16069,0.00455
2400.10052,0.00458
2398.04034,0.00475
2395.98017,0.00498
2393.92000,0.00516
2391.85983,0.00525
2389.79966,0.00534
2387.73948,0.00562
2385.67931,0.00610
2383.61914,0.00634
2381.55897,0.00619
2379.49880,0.00610
2377.43862,0.00633
2375.37845,0.00581
2373.31828,0.00497
2371.25811,0.00455
2369.19793,0.00324
2367.13776,0.00239
2365.07759,0.00321
2363.01742,0.00274
2360.95725,0.00416
2358.89707,0.00395
2356.83690,0.00276
2354.77673,0.00181
2352.71656,0.00230
2350.65639,0.00853
2348.59621,0.01180
2346.53604,0.00474
2344.47587,0.00351
2342.41570,0.00549
2340.35552,0.00599
2338.29535,0.00625
2336.23518,0.00615
2334.17501,0.00723
2332.11484,0.00825
2330.05466,0.00818
2327.99449,0.00669
2325.93432,0.00655
2323.87415,0.00592
2321.81398,0.00539
2319.75380,0.00518
2317.69363,0.00669
2315.63346,0.00699
2313.57329,0.00602
2311.51312,0.00537
2309.45294,0.00534
2307.39277,0.00543
2305.33260,0.00535
2303.27243,0.00530
2301.21225,0.00520
2299.15208,0.00545
2297.09191,0.00548
2295.03174,0.00512
2292.97157,0.00499
2290.91139,0.00526
2288.85122,0.00579
2286.79105,0.00631
2284.73088,0.00648
2282.67071,0.00618
2280.61053,0.00578
2278.55036,0.00557
2276.49019,0.00523
2274.43002,0.00480
2272.36984,0.00462
2270.30967,0.00472
2268.24950,0.00479
2266.18933,0.00484
2264.12916,0.00486
2262.06898,0.00472
2260.00881,0.00462
2257.94864,0.00462
2255.88847,0.00453
2253.82830,0.00485
2251.76812,0.00529
2249.70795,0.00488
2247.64778,0.00398
2245.58761,0.00388
2243.52744,0.00445
2241.46726,0.00457
2239.40709,0.00430
2237.34692,0.00435
2235.28675,0.00462
2233.22657,0.00487
2231.16640,0.00491
2229.10623,0.00442
2227.04606,0.00382
2224.98589,0.00425
2222.92571,0.00560
2220.86554,0.00597
2218.80537,0.00493
2216.74520,0.00431
2214.68503,0.00481
2212.62485,0.00509
2210.56468,0.00410
2208.50451,0.00340
2206.44434,0.00399
2204.38417,0.00434
2202.32399,0.00450
2200.26382,0.00507
2198.20365,0.00524
2196.14348,0.00527
2194.08330,0.00570
2192.02313,0.00585
2189.96296,0.00569
2187.90279,0.00561
2185.84262,0.00540
2183.78244,0.00498
2181.72227,0.00450
2179.66210,0.00479
2177.60193,0.00521
2175.54176,0.00396
2173.48158,0.00237
2171.42141,0.00161
2169.36124,0.00099
2167.30107,0.00122
2165.24089,0.00282
2163.18072,0.00404
2161.12055,0.00325
2159.06038,0.00173
2157.00021,0.00078
2154.94003,0.00033
2152.87986,0.00092
2150.81969,0.00201
2148.75952,0.00259
2146.69935,0.00226
2144.63917,0.00133
2142.57900,0.00118
2140.51883,0.00218
2138.45866,0.00303
2136.39849,0.00274
2134.33831,0.00213
2132.27814,0.00199
2130.21797,0.00181
2128.15780,0.00177
2126.09762,0.00206
2124.03745,0.00229
2121.97728,0.00278
2119.91711,0.00324
2117.85694,0.00308
2115.79676,0.00281
2113.73659,0.00267
2111.67642,0.00239
2109.61625,0.00215
2107.55608,0.00229
2105.49590,0.00281
2103.43573,0.00341
2101.37556,0.00374
2099.31539,0.00365
2097.25521,0.00330
2095.19504,0.00277
2093.13487,0.00225
2091.07470,0.00230
2089.01453,0.00320
2086.95435,0.00430
2084.89418,0.00464
2082.83401,0.00425
2080.77384,0.00378
2078.71367,0.00377
2076.65349,0.00380
2074.59332,0.00337
2072.53315,0.00281
2070.47298,0.00244
2068.41281,0.00247
2066.35263,0.00266
2064.29246,0.00281
2062.23229,0.00333
2060.17212,0.00382
2058.11194,0.00369
2056.05177,0.00319
2053.99160,0.00258
2051.93143,0.00209
2049.87126,0.00216
2047.81108,0.00291
2045.75091,0.00399
2043.69074,0.00410
2041.63057,0.00320
2039.57040,0.00302
2037.51022,0.00278
2035.45005,0.00160
2033.38988,0.00098
2031.32971,0.00138
2029.26954,0.00209
2027.20936,0.00235
2025.14919,0.00212
2023.08902,0.00234
2021.02885,0.00270
2018.96867,0.00230
2016.90850,0.00201
2014.84833,0.00301
2012.78816,0.00430
2010.72799,0.00379
2008.66781,0.00185
2006.60764,0.00066
2004.54747,0.00062
2002.48730,0.00078
2000.42713,0.00107
1998.36695,0.00228
1996.30678,0.00403
1994.24661,0.00474
1992.18644,0.00375
1990.12626,0.00208
1988.06609,0.00130
1986.00592,0.00170
1983.94575,0.00256
1981.88558,0.00311
1979.82540,0.00252
1977.76523,0.00105
1975.70506,0.00000
1973.64489,-0.00000
1971.58472,0.00081
1969.52454,0.00142
1967.46437,0.00124
1965.40420,0.00097
1963.34403,0.00097
1961.28386,0.00086
1959.22368,0.00083
1957.16351,0.00125
1955.10334,0.00169
1953.04317,0.00176
1950.98299,0.00171
1948.92282,0.00169
1946.86265,0.00171
1944.80248,0.00186
1942.74231,0.00200
1940.68213,0.00170
1938.62196,0.00112
1936.56179,0.00093
1934.50162,0.00128
1932.44145,0.00176
1930.38127,0.00200
1928.32110,0.00202
1926.26093,0.00210
1924.20076,0.00232
1922.14059,0.00260
1920.08041,0.00273
1918.02024,0.00256
1915.96007,0.00263
1913.89990,0.00293
1911.83972,0.00279
1909.77955,0.00238
1907.71938,0.00235
1905.65921,0.00269
1903.59904,0.00296
1901.53886,0.00281
1899.47869,0.00234
1897.41852,0.00211
1895.35835,0.00247
1893.29818,0.00300
1891.23800,0.00318
1889.17783,0.00300
1887.11766,0.00291
1885.05749,0.00305
1882.99731,0.00301
1880.93714,0.00266
1878.87697,0.00237
1876.81680,0.00237
1874.75663,0.00256
1872.69645,0.00278
1870.63628,0.00287
1868.57611,0.00272
1866.51594,0.00254
1864.45577,0.00257
1862.39559,0.00272
1860.33542,0.00284
1858.27525,0.00285
1856.21508,0.00268
1854.15491,0.00261
1852.09473,0.00279
1850.03456,0.00300
1847.97439,0.00296
1845.91422,0.00280
1843.85404,0.00271
1841.79387,0.00271
1839.73370,0.00279
1837.67353,0.00287
1835.61336,0.00284
1833.55318,0.00275
1831.49301,0.00256
1829.43284,0.00236
1827.37267,0.00246
1825.31250,0.00281
1823.25232,0.00307
1821.19215,0.00308
1819.13198,0.00288
1817.07181,0.00268
1815.01163,0.00265
1812.95146,0.00273
1810.89129,0.00281
1808.83112,0.00288
1806.77095,0.00296
1804.71077,0.00306
1802.65060,0.00313
1800.59043,0.00309
1798.53026,0.00301
1796.47009,0.00309
1794.40991,0.00336
1792.34974,0.00355
1790.28957,0.00347
1788.22940,0.00324
1786.16923,0.00300
1784.10905,0.00288
1782.04888,0.00298
1779.98871,0.00321
1777.92854,0.00339
1775.86836,0.00337
1773.80819,0.00322
1771.74802,0.00313
1769.68785,0.00314
1767.62768,0.00309
1765.56750,0.00305
1763.50733,0.00314
1761.44716,0.00326
1759.38699,0.00337
1757.32682,0.00349
1755.26664,0.00367
1753.20647,0.00389
1751.14630,0.00408
1749.08613,0.00406
1747.02596,0.00388
1744.96578,0.00371
1742.90561,0.00370
1740.84544,0.00392
1738.78527,0.00429
1736.72509,0.00467
1734.66492,0.00490
1732.60475,0.00481
1730.54458,0.00464
1728.48441,0.00465
1726.42423,0.00483
1724.36406,0.00493
1722.30389,0.00497
1720.24372,0.00511
1718.18355,0.00527
1716.12337,0.00532
1714.06320,0.00527
1712.00303,0.00517
1709.94286,0.00517
1707.88268,0.00538
1705.82251,0.00570
1703.76234,0.00596
1701.70217,0.00617
1699.64200,0.00636
1697.58182,0.00649
1695.52165,0.00652
1693.46148,0.00654
1691.40131,0.00660
1689.34114,0.00668
1687.28096,0.00681
1685.22079,0.00703
1683.16062,0.00727
1681.10045,0.00745
1679.04028,0.00755
1676.98010,0.00751
1674.91993,0.00743
1672.85976,0.00760
1670.79959,0.00791
1668.73941,0.00797
1666.67924,0.00782
1664.61907,0.00785
1662.55890,0.00808
1660.49873,0.00831
1658.43855,0.00852
1656.37838,0.00869
1654.31821,0.00860
1652.25804,0.00830
1650.19787,0.00823
1648.13769,0.00832
1646.07752,0.00841
1644.01735,0.00841
1641.95718,0.00831
1639.89701,0.00817
1637.83683,0.00803
1635.77666,0.00787
1633.71649,0.00768
1631.65632,0.00747
1629.59614,0.00734
1627.53597,0.00739
1625.47580,0.00745
1623.41563,0.00728
1621.35546,0.00697
1619.29528,0.00674
1617.23511,0.00658
1615.17494,0.00654
1613.11477,0.00661
1611.05460,0.00657
1608.99442,0.00645
1606.93425,0.00637
1604.87408,0.00633
1602.81391,0.00634
1600.75373,0.00638
1598.69356,0.00624
1596.63339,0.00594
1594.57322,0.00567
1592.51305,0.00556
1590.45287,0.00551
1588.39270,0.00537
1586.33253,0.00512
1584.27236,0.00493
1582.21219,0.00482
1580.15201,0.00479
1578.09184,0.00484
1576.03167,0.00475
1573.97150,0.00448
1571.91133,0.00434
1569.85115,0.00439
1567.79098,0.00441
1565.73081,0.00440
1563.67064,0.00452
1561.61046,0.00464
1559.55029,0.00438
1557.49012,0.00392
1555.42995,0.00384
1553.36978,0.00383
1551.30960,0.00363
1549.24943,0.00333
1547.18926,0.00313
1545.12909,0.00309
1543.06892,0.00315
1541.00874,0.00317
1538.94857,0.00321
1536.88840,0.00339
1534.82823,0.00343
1532.76805,0.00313
1530.70788,0.00286
1528.64771,0.00283
1526.58754,0.00296
1524.52737,0.00326
1522.46719,0.00355
1520.40702,0.00354
1518.34685,0.00337
1516.28668,0.00324
1514.22651,0.00317
1512.16633,0.00313
1510.10616,0.00305
1508.04599,0.00286
1505.98582,0.00267
1503.92565,0.00263
1501.86547,0.00273
1499.80530,0.00279
1497.74513,0.00277
1495.68496,0.00280
1493.62478,0.00291
1491.56461,0.00301
1489.50444,0.00299
1487.44427,0.00286
1485.38410,0.00275
1483.32392,0.00270
1481.26375,0.00263
1479.20358,0.00257
1477.14341,0.00257
1475.08324,0.00257
1473.02306,0.00252
1470.96289,0.00251
1468.90272,0.00258
1466.84255,0.00265
1464.78238,0.00271
1462.72220,0.00284
1460.66203,0.00308
1458.60186,0.00328
1456.54169,0.00322
1454.48151,0.00309
1452.42134,0.00307
1450.36117,0.00308
1448.30100,0.00301
1446.24083,0.00286
1444.18065,0.00272
1442.12048,0.00266
1440.06031,0.00270
1438.00014,0.00271
1435.93997,0.00260
1433.87979,0.00251
1431.81962,0.00253
1429.75945,0.00257
1427.69928,0.00261
1425.63910,0.00263
1423.57893,0.00261
1421.51876,0.00261
1419.45859,0.00267
1417.39842,0.00271
1415.33824,0.00264
1413.27807,0.00247
1411.21790,0.00234
1409.15773,0.00236
1407.09756,0.00248
1405.03738,0.00259
1402.97721,0.00265
1400.91704,0.00273
1398.85687,0.00279
1396.79670,0.00273
1394.73652,0.00267
1392.67635,0.00269
1390.61618,0.00267
1388.55601,0.00257
1386.49583,0.00258
1384.43566,0.00273
1382.37549,0.00287
1380.31532,0.00295
1378.25515,0.00304
1376.19497,0.00310
1374.13480,0.00305
1372.07463,0.00297
1370.01446,0.00296
1367.95429,0.00299
1365.89411,0.00302
1363.83394,0.00303
1361.77377,0.00302
1359.71360,0.00301
1357.65343,0.00302
1355.59325,0.00302
1353.53308,0.00300
1351.47291,0.00295
1349.41274,0.00287
1347.35256,0.00289
1345.29239,0.00306
1343.23222,0.00324
1341.17205,0.00328
1339.11188,0.00324
1337.05170,0.00321
1334.99153,0.00315
1332.93136,0.00308
1330.87119,0.00310
1328.81102,0.00314
1326.75084,0.00313
1324.69067,0.00316
1322.63050,0.00325
1320.57033,0.00325
1318.51015,0.00313
1316.44998,0.00301
1314.38981,0.00291
1312.32964,0.00288
1310.26947,0.00300
1308.20929,0.00321
1306.14912,0.00334
1304.08895,0.00334
1302.02878,0.00333
1299.96861,0.00341
1297.90843,0.00345
1295.84826,0.00326
1293.78809,0.00305
1291.72792,0.00315
1289.66775,0.00346
1287.60757,0.00365
1285.54740,0.00361
1283.48723,0.00360
1281.42706,0.00374
1279.36688,0.00389
1277.30671,0.00390
1275.24654,0.00377
1273.18637,0.00361
1271.12620,0.00355
1269.06602,0.00368
1267.00585,0.00384
1264.94568,0.00384
1262.88551,0.00372
1260.82534,0.00368
1258.76516,0.00373
1256.70499,0.00382
1254.64482,0.00385
1252.58465,0.00380
1250.52447,0.00378
1248.46430,0.00382
1246.40413,0.00381
1244.34396,0.00370
1242.28379,0.00358
1240.22361,0.00352
1238.16344,0.00348
1236.10327,0.00346
1234.04310,0.00353
1231.98293,0.00353
1229.92275,0.00333
1227.86258,0.00320
1225.80241,0.00330
1223.74224,0.00337
1221.68207,0.00327
1219.62189,0.00324
1217.56172,0.00340
1215.50155,0.00353
1213.44138,0.00346
1211.38120,0.00334
1209.32103,0.00335
1207.26086,0.00347
1205.20069,0.00356
1203.14052,0.00357
1201.08034,0.00354
1199.02017,0.00350
1196.96000,0.00352
1194.89983,0.00370
1192.83966,0.00395
1190.77948,0.00417
1188.71931,0.00433
1186.65914,0.00444
1184.59897,0.00464
1182.53880,0.00494
1180.47862,0.00522
1178.41845,0.00541
1176.35828,0.00568
1174.29811,0.00616
1172.23793,0.00659
1170.17776,0.00673
1168.11759,0.00687
1166.05742,0.00721
1163.99725,0.00763
1161.93707,0.00802
1159.87690,0.00839
1157.81673,0.00873
1155.75656,0.00903
1153.69639,0.00932
1151.63621,0.00963
1149.57604,0.00998
1147.51587,0.01031
1145.45570,0.01055
1143.39552,0.01069
1141.33535,0.01099
1139.27518,0.01154
1137.21501,0.01207
1135.15484,0.01246
1133.09466,0.01292
1131.03449,0.01343
1128.97432,0.01388
1126.91415,0.01436
1124.85398,0.01489
1122.79380,0.01536
1120.73363,0.01583
1118.67346,0.01631
1116.61329,0.01671
1114.55312,0.01717
1112.49294,0.01757
1110.43277,0.01780
1108.37260,0.01813
1106.31243,0.01870
1104.25225,0.01936
1102.19208,0.01995
1100.13191,0.02046
1098.07174,0.02096
1096.01157,0.02155
1093.95139,0.02219
1091.89122,0.02271
1089.83105,0.02299
1087.77088,0.02312
1085.71071,0.02328
1083.65053,0.02351
1081.59036,0.02379
1079.53019,0.02414
1077.47002,0.02448
1075.40985,0.02472
1073.34967,0.02495
1071.28950,0.02520
1069.22933,0.02530
1067.16916,0.02515
1065.10898,0.02499
1063.04881,0.02501
1060.98864,0.02511
1058.92847,0.02511
1056.86830,0.02495
1054.80812,0.02467
1052.74795,0.02434
1050.68778,0.02409
1048.62761,0.02384
1046.56744,0.02336
1044.50726,0.02272
1042.44709,0.02203
1040.38692,0.02144
1038.32675,0.02101
1036.26657,0.02052
1034.20640,0.01996
1032.14623,0.01958
1030.08606,0.01940
1028.02589,0.01917
1025.96571,0.01871
1023.90554,0.01816
1021.84537,0.01776
1019.78520,0.01749
1017.72503,0.01721
1015.66485,0.01695
1013.60468,0.01667
1011.54451,0.01635
1009.48434,0.01633
1007.42417,0.01661
1005.36399,0.01677
1003.30382,0.01681
1001.24365,0.01698
999.18348,0.01732
997.12330,0.01771
995.06313,0.01808
993.00296,0.01839
990.94279,0.01865
988.88262,0.01884
986.82244,0.01896
984.76227,0.01916
982.70210,0.01937
980.64193,0.01949
978.58176,0.01935
976.52158,0.01895
974.46141,0.01860
972.40124,0.01833
970.34107,0.01793
968.28089,0.01744
966.22072,0.01686
964.16055,0.01627
962.10038,0.01586
960.04021,0.01541
957.98003,0.01482
955.91986,0.01442
953.85969,0.01422
951.79952,0.01408
949.73935,0.01403
947.67917,0.01399
945.61900,0.01378
943.55883,0.01343
941.49866,0.01329
939.43849,0.01353
937.37831,0.01373
935.31814,0.01368
933.25797,0.01352
931.19780,0.01342
929.13762,0.01339
927.07745,0.01341
925.01728,0.01344
922.95711,0.01335
920.89694,0.01312
918.83676,0.01288
916.77659,0.01271
914.71642,0.01262
912.65625,0.01264
910.59608,0.01262
908.53590,0.01257
906.47573,0.01252
904.41556,0.01225
902.35539,0.01174
900.29522,0.01145
898.23504,0.01147
896.17487,0.01152
894.11470,0.01175
892.05453,0.01223
889.99435,0.01264
887.93418,0.01277
885.87401,0.01271
883.81384,0.01268
881.75367,0.01276
879.69349,0.01292
877.63332,0.01316
875.57315,0.01327
873.51298,0.01324
871.45281,0.01340
869.39263,0.01358
867.33246,0.01367
865.27229,0.01369
863.21212,0.01369
861.15194,0.01384
859.09177,0.01399
857.03160,0.01399
854.97143,0.01394
852.91126,0.01390
850.85108,0.01377
848.79091,0.01346
846.73074,0.01311
844.67057,0.01281
842.61040,0.01250
840.55022,0.01223
838.49005,0.01211
836.42988,0.01208
834.36971,0.01180
832.30954,0.01125
830.24936,0.01079
828.18919,0.01050
826.12902,0.01031
824.06885,0.01033
822.00867,0.01034
819.94850,0.01023
817.88833,0.00998
815.82816,0.00940
813.76799,0.00894
811.70781,0.00904
809.64764,0.00926
807.58747,0.00921
805.52730,0.00873
803.46713,0.00821
801.40695,0.00839
799.34678,0.00900
797.28661,0.00925
795.22644,0.00911
793.16627,0.00885
791.10609,0.00865
789.04592,0.00860
786.98575,0.00863
784.92558,0.00873
782.86540,0.00875
780.80523,0.00845
778.74506,0.00801
776.68489,0.00764
774.62472,0.00751
772.56454,0.00771
770.50437,0.00791
768.44420,0.00793
766.38403,0.00797
764.32386,0.00798
762.26368,0.00796
760.20351,0.00807
758.14334,0.00817
756.08317,0.00810
754.02299,0.00809
751.96282,0.00816
749.90265,0.00796
747.84248,0.00788
745.78231,0.00814
743.72213,0.00817
741.66196,0.00798
739.60179,0.00807
737.54162,0.00802
735.48145,0.00764
733.42127,0.00768
731.36110,0.00813
729.30093,0.00825
727.24076,0.00769
725.18059,0.00716
723.12041,0.00755
721.06024,0.00717
719.00007,0.00789
716.93990,0.00825
714.87972,0.00752
712.81955,0.00728
710.75938,0.00776
708.69921,0.00817
706.63904,0.00805
704.57886,0.00784
702.51869,0.00808
700.45852,0.00845
698.39835,0.00841
696.33818,0.00826
694.27800,0.00856
692.21783,0.00900
690.15766,0.00921
688.09749,0.00954
686.03731,0.01018
683.97714,0.01073
681.91697,0.01059
679.85680,0.00971
677.79663,0.00884
675.73645,0.00920
673.67628,0.01270
671.61611,0.01709
669.55594,0.00817
667.49577,0.00000
665.43559,0.01290
663.37542,0.01079
661.31525,0.00733
659.25508,0.00813
657.19491,0.00916
655.13473,0.00905
653.07456,0.00897
651.01439,0.00872
648.95422,0.00775
646.89404,0.00745
644.83387,0.00734
642.77370,0.00755
640.71353,0.00804
638.65336,0.00778
636.59318,0.00625
634.53301,0.00542
632.47284,0.00623
630.41267,0.00670
628.35250,0.00607
626.29232,0.00616
624.23215,0.00688
622.17198,0.00571
620.11181,0.00283
618.05164,0.00058
615.99146,0.00000
613.93129,0.00071
611.87112,0.00217
609.81095,0.00373
607.75077,0.00402
605.69060,0.00144
603.63043,-0.00160
601.57026,-0.00163
599.51009,0.00000
