3996.73391,0.00001
3994.67373,0.00027
3992.61356,0.00059
3990.55339,0.00056
3988.49322,0.00027
3986.43305,0.00004
3984.37287,0.00000
3982.31270,0.00001
3980.25253,0.00013
3978.19236,0.00063
3976.13219,0.00116
3974.07201,0.00112
3972.01184,0.00080
3969.95167,0.00074
3967.89150,0.00082
3965.83133,0.00070
3963.77115,0.00043
3961.71098,0.00033
3959.65081,0.00053
3957.59064,0.00078
3955.53046,0.00078
3953.47029,0.00061
3951.41012,0.00056
3949.34995,0.00063
3947.28978,0.00056
3945.22960,0.00039
3943.16943,0.00051
3941.10926,0.00099
3939.04909,0.00130
3936.98892,0.00127
3934.92874,0.00125
3932.86857,0.00120
3930.80840,0.00086
3928.74823,0.00056
3926.68805,0.00073
3924.62788,0.00136
3922.56771,0.00182
3920.50754,0.00168
3918.44737,0.00143
3916.38719,0.00154
3914.32702,0.00176
3912.26685,0.00178
3910.20668,0.00166
3908.14651,0.00154
3906.08633,0.00141
3904.02616,0.00118
3901.96599,0.00109
3899.90582,0.00147
3897.84565,0.00187
3895.78547,0.00201
3893.72530,0.00227
3891.66513,0.00263
3889.60496,0.00260
3887.54478,0.00226
3885.48461,0.00184
3883.42444,0.00117
3881.36427,0.00058
3879.30410,0.00071
3877.24392,0.00128
3875.18375,0.00159
3873.12358,0.00160
3871.06341,0.00185
3869.00324,0.00251
3866.94306,0.00281
3864.88289,0.00241
3862.82272,0.00179
3860.76255,0.00144
3858.70237,0.00134
3856.64220,0.00120
3854.58203,0.00122
3852.52186,0.00180
3850.46169,0.00229
3848.40151,0.00228
3846.34134,0.00229
3844.28117,0.00251
3842.22100,0.00283
3840.16083,0.00334
3838.10065,0.00391
3836.04048,0.00373
3833.98031,0.00270
3831.92014,0.00161
3829.85997,0.00107
3827.79979,0.00119
3825.73962,0.00177
3823.67945,0.00244
3821.61928,0.00301
3819.55910,0.00323
3817.49893,0.00317
3815.43876,0.00313
3813.37859,0.00278
3811.31842,0.00209
3809.25824,0.00151
3807.19807,0.00130
3805.13790,0.00148
3803.07773,0.00201
3801.01756,0.00246
3798.95738,0.00246
3796.89721,0.00245
3794.83704,0.00262
3792.77687,0.00262
3790.71670,0.00237
3788.65652,0.00198
3786.59635,0.00162
3784.53618,0.00152
3782.47601,0.00172
3780.41583,0.00211
3778.35566,0.00217
3776.29549,0.00173
3774.23532,0.00140
3772.17515,0.00157
3770.11497,0.00170
3768.05480,0.00121
3765.99463,0.00071
3763.93446,0.00102
3761.87429,0.00164
3759.81411,0.00196
3757.75394,0.00189
3755.69377,0.00149
3753.63360,0.00122
3751.57342,0.00158
3749.51325,0.00225
3747.45308,0.00239
3745.39291,0.00204
3743.33274,0.00184
3741.27256,0.00178
3739.21239,0.00169
3737.15222,0.00197
3735.09205,0.00285
3733.03188,0.00349
3730.97170,0.00308
3728.91153,0.00241
3726.85136,0.00224
3724.79119,0.00243
3722.73102,0.00249
3720.67084,0.00210
3718.61067,0.00178
3716.55050,0.00166
3714.49033,0.00200
3712.43015,0.00304
3710.36998,0.00370
3708.30981,0.00333
3706.24964,0.00234
3704.18947,0.00168
3702.12929,0.00187
3700.06912,0.00247
3698.00895,0.00262
3695.94878,0.00231
3693.88861,0.00219
3691.82843,0.00230
3689.76826,0.00260
3687.70809,0.00297
3685.64792,0.00340
3683.58775,0.00358
3681.52757,0.00345
3679.46740,0.00311
3677.40723,0.00292
3675.34706,0.00316
3673.28688,0.00367
3671.22671,0.00413
3669.16654,0.00450
3667.10637,0.00447
3665.04620,0.00436
3662.98602,0.00463
3660.92585,0.00496
3658.86568,0.00501
3656.80551,0.00504
3654.74534,0.00516
3652.68516,0.00523
3650.62499,0.00569
3648.56482,0.00658
3646.50465,0.00712
3644.44447,0.00746
3642.38430,0.00798
3640.32413,0.00843
3638.26396,0.00864
3636.20379,0.00894
3634.14361,0.00947
3632.08344,0.00986
3630.02327,0.01030
3627.96310,0.01121
3625.90293,0.01222
3623.84275,0.01276
3621.78258,0.01312
3619.72241,0.01335
3617.66224,0.01310
3615.60207,0.01277
3613.54189,0.01302
3611.48172,0.01413
3609.42155,0.01522
3607.36138,0.01568
3605.30120,0.01592
3603.24103,0.01623
3601.18086,0.01677
3599.12069,0.01729
3597.06052,0.01766
3595.00034,0.01802
3592.94017,0.01862
3590.88000,0.01894
3588.81983,0.01939
3586.75966,0.02049
3584.69948,0.02161
3582.63931,0.02196
3580.57914,0.02185
3578.51897,0.02186
3576.45879,0.02227
3574.39862,0.02309
3572.33845,0.02396
3570.27828,0.02465
3568.21811,0.02525
3566.15793,0.02569
3564.09776,0.02590
3562.03759,0.02595
3559.97742,0.02600
3557.91725,0.02646
3555.85707,0.02746
3553.79690,0.02831
3551.73673,0.02849
3549.67656,0.02848
3547.61639,0.02875
3545.55621,0.02915
3543.49604,0.02959
3541.43587,0.03017
3539.37570,0.03080
3537.31552,0.03131
3535.25535,0.03181
3533.19518,0.03241
3531.13501,0.03301
3529.07484,0.03348
3527.01466,0.03403
3524.95449,0.03486
3522.89432,0.03554
3520.83415,0.03585
3518.77398,0.03600
3516.71380,0.03620
3514.65363,0.03656
3512.59346,0.03683
3510.53329,0.03685
3508.47312,0.03690
3506.41294,0.03735
3504.35277,0.03799
3502.29260,0.03847
3500.23243,0.03887
3498.17225,0.03942
3496.11208,0.03994
3494.05191,0.04033
3491.99174,0.04068
3489.93157,0.04106
3487.87139,0.04161
3485.81122,0.04225
3483.75105,0.04261
3481.69088,0.04275
3479.63071,0.04302
3477.57053,0.04344
3475.51036,0.04375
3473.45019,0.04405
3471.39002,0.04457
3469.32984,0.04527
3467.26967,0.04596
3465.20950,0.04634
3463.14933,0.04645
3461.08916,0.04669
3459.02898,0.04709
3456.96881,0.04748
3454.90864,0.04777
3452.84847,0.04809
3450.78830,0.04850
3448.72812,0.04890
3446.66795,0.04919
3444.60778,0.04929
3442.54761,0.04920
3440.48744,0.04926
3438.42726,0.04968
3436.36709,0.05016
3434.30692,0.05069
3432.24675,0.05124
3430.18657,0.05147
3428.12640,0.05159
3426.06623,0.05202
3424.00606,0.05263
3421.94589,0.05284
3419.88571,0.05272
3417.82554,0.05285
3415.76537,0.05324
3413.70520,0.05348
3411.64503,0.05361
3409.58485,0.05378
3407.52468,0.05409
3405.46451,0.05448
3403.40434,0.05460
3401.34416,0.05464
3399.28399,0.05516
3397.22382,0.05560
3395.16365,0.05551
3393.10348,0.05543
3391.04330,0.05565
3388.98313,0.05593
3386.92296,0.05629
3384.86279,0.05661
3382.80262,0.05672
3380.74244,0.05684
3378.68227,0.05704
3376.62210,0.05707
3374.56193,0.05705
3372.50176,0.05722
3370.44158,0.05735
3368.38141,0.05722
3366.32124,0.05714
3364.26107,0.05742
3362.20089,0.05789
3360.14072,0.05820
3358.08055,0.05817
3356.02038,0.05835
3353.96021,0.05889
3351.90003,0.05920
3349.83986,0.05927
3347.77969,0.05926
3345.71952,0.05911
3343.65935,0.05887
3341.59917,0.05885
3339.53900,0.05915
3337.47883,0.05936
3335.41866,0.05924
3333.35849,0.05923
3331.29831,0.05956
3329.23814,0.05993
3327.17797,0.06028
3325.11780,0.06062
3323.05762,0.06054
3320.99745,0.06014
3318.93728,0.06009
3316.87711,0.06029
3314.81694,0.06038
3312.75676,0.06045
3310.69659,0.06044
3308.63642,0.06041
3306.57625,0.06059
3304.51608,0.06078
3302.45590,0.06081
3300.39573,0.06082
3298.33556,0.06083
3296.27539,0.06076
3294.21521,0.06087
3292.15504,0.06142
3290.09487,0.06189
3288.03470,0.06180
3285.97453,0.06144
3283.91435,0.06135
3281.85418,0.06150
3279.79401,0.06145
3277.73384,0.06155
3275.67367,0.06218
3273.61349,0.06254
3271.55332,0.06223
3269.49315,0.06183
3267.43298,0.06186
3265.37281,0.06220
3263.31263,0.06244
3261.25246,0.06248
3259.19229,0.06243
3257.13212,0.06227
3255.07194,0.06202
3253.01177,0.06188
3250.95160,0.06192
3248.89143,0.06211
3246.83126,0.06232
3244.77108,0.06222
3242.71091,0.06203
3240.65074,0.06220
3238.59057,0.06244
3236.53040,0.06238
3234.47022,0.06206
3232.41005,0.06180
3230.34988,0.06181
3228.28971,0.06186
3226.22954,0.06188
3224.16936,0.06205
3222.10919,0.06224
3220.04902,0.06224
3217.98885,0.06219
3215.92867,0.06228
3213.86850,0.06238
3211.80833,0.06241
3209.74816,0.06226
3207.68799,0.06200
3205.62781,0.06194
3203.56764,0.06188
3201.50747,0.06158
3199.44730,0.06129
3197.38713,0.06108
3195.32695,0.06090
3193.26678,0.06087
3191.20661,0.06090
3189.14644,0.06078
3187.08626,0.06064
3185.02609,0.06080
3182.96592,0.06123
3180.90575,0.06148
3178.84558,0.06136
3176.78540,0.06113
3174.72523,0.06081
3172.66506,0.06047
3170.60489,0.06034
3168.54472,0.06014
3166.48454,0.05977
3164.42437,0.05947
3162.36420,0.05922
3160.30403,0.05900
3158.24386,0.05891
3156.18368,0.05897
3154.12351,0.05907
3152.06334,0.05899
3150.00317,0.05873
3147.94299,0.05829
3145.88282,0.05788
3143.82265,0.05784
3141.76248,0.05797
3139.70231,0.05803
3137.64213,0.05815
3135.58196,0.05819
3133.52179,0.05778
3131.46162,0.05721
3129.40145,0.05695
3127.34127,0.05671
3125.28110,0.05632
3123.22093,0.05603
3121.16076,0.05589
3119.10058,0.05580
3117.04041,0.05564
3114.98024,0.05531
3112.92007,0.05501
3110.85990,0.05491
3108.79972,0.05488
3106.73955,0.05475
3104.67938,0.05450
3102.61921,0.05408
3100.55904,0.05360
3098.49886,0.05334
3096.43869,0.05347
3094.37852,0.05367
3092.31835,0.05353
3090.25818,0.05314
3088.19800,0.05274
3086.13783,0.05246
3084.07766,0.05226
3082.01749,0.05203
3079.95731,0.05177
3077.89714,0.05151
3075.83697,0.05127
3073.77680,0.05108
3071.71663,0.05094
3069.65645,0.05078
3067.59628,0.05064
3065.53611,0.05041
3063.47594,0.04995
3061.41577,0.04955
3059.35559,0.04940
3057.29542,0.04918
3055.23525,0.04893
3053.17508,0.04884
3051.11491,0.04854
3049.05473,0.04794
3046.99456,0.04749
3044.93439,0.04725
3042.87422,0.04707
3040.81404,0.04695
3038.75387,0.04687
3036.69370,0.04671
3034.63353,0.04631
3032.57336,0.04574
3030.51318,0.04534
3028.45301,0.04505
3026.39284,0.04469
3024.33267,0.04440
3022.27250,0.04428
3020.21232,0.04426
3018.15215,0.04425
3016.09198,0.04406
3014.03181,0.04371
3011.97163,0.04344
3009.91146,0.04314
3007.85129,0.04278
3005.79112,0.04261
3003.73095,0.04247
3001.67077,0.04209
2999.61060,0.04163
2997.55043,0.04134
2995.49026,0.04120
2993.43009,0.04112
2991.36991,0.04099
2989.30974,0.04070
2987.24957,0.04041
2985.18940,0.04020
2983.12923,0.04004
2981.06905,0.04006
2979.00888,0.03999
2976.94871,0.03973
2974.88854,0.03975
2972.82836,0.03991
2970.76819,0.03992
2968.70802,0.03992
2966.64785,0.03986
2964.58768,0.03957
2962.52750,0.03913
2960.46733,0.03868
2958.40716,0.03849
2956.34699,0.03867
2954.28682,0.03895
2952.22664,0.03902
2950.16647,0.03897
2948.10630,0.03896
2946.04613,0.03894
2943.98596,0.03894
2941.92578,0.03893
2939.86561,0.03893
2937.80544,0.03889
2935.74527,0.03875
2933.68509,0.03857
2931.62492,0.03842
2929.56475,0.03842
2927.50458,0.03840
2925.44441,0.03809
2923.38423,0.03754
2921.32406,0.03711
2919.26389,0.03715
2917.20372,0.03740
2915.14355,0.03737
2913.08337,0.03702
2911.02320,0.03654
2908.96303,0.03625
2906.90286,0.03633
2904.84268,0.03647
2902.78251,0.03640
2900.72234,0.03619
2898.66217,0.03590
2896.60200,0.03549
2894.54182,0.03523
2892.48165,0.03544
2890.42148,0.03578
2888.36131,0.03579
2886.30114,0.03569
2884.24096,0.03572
2882.18079,0.03563
2880.12062,0.03555
2878.06045,0.03549
2876.00028,0.03525
2873.94010,0.03501
2871.87993,0.03481
2869.81976,0.03448
2867.75959,0.03414
2865.69941,0.03396
2863.63924,0.03403
2861.57907,0.03422
2859.51890,0.03420
2857.45873,0.03400
2855.39855,0.03380
2853.33838,0.03363
2851.27821,0.03350
2849.21804,0.03343
2847.15787,0.03321
2845.09769,0.03284
2843.03752,0.03263
2840.97735,0.03234
2838.91718,0.03191
2836.85700,0.03178
2834.79683,0.03182
2832.73666,0.03170
2830.67649,0.03141
2828.61632,0.03106
2826.55614,0.03080
2824.49597,0.03064
2822.43580,0.03047
2820.37563,0.03029
2818.31546,0.03019
2816.25528,0.03011
2814.19511,0.02994
2812.13494,0.02978
2810.07477,0.02968
2808.01460,0.02960
2805.95442,0.02952
2803.89425,0.02942
2801.83408,0.02942
2799.77391,0.02943
2797.71373,0.02922
2795.65356,0.02880
2793.59339,0.02840
2791.53322,0.02837
2789.47305,0.02857
2787.41287,0.02847
2785.35270,0.02810
2783.29253,0.02799
2781.23236,0.02821
2779.17219,0.02821
2777.11201,0.02780
2775.05184,0.02743
2772.99167,0.02728
2770.93150,0.02721
2768.87133,0.02730
2766.81115,0.02750
2764.75098,0.02740
2762.69081,0.02709
2760.63064,0.02699
2758.57046,0.02711
2756.51029,0.02708
2754.45012,0.02670
2752.38995,0.02631
2750.32978,0.02620
2748.26960,0.02616
2746.20943,0.02604
2744.14926,0.02589
2742.08909,0.02572
2740.02892,0.02559
2737.96874,0.02552
2735.90857,0.02538
2733.84840,0.02516
2731.78823,0.02498
2729.72805,0.02491
2727.66788,0.02487
2725.60771,0.02472
2723.54754,0.02445
2721.48737,0.02427
2719.42719,0.02424
2717.36702,0.02409
2715.30685,0.02379
2713.24668,0.02374
2711.18651,0.02388
2709.12633,0.02384
2707.06616,0.02369
2705.00599,0.02352
2702.94582,0.02323
2700.88565,0.02298
2698.82547,0.02290
2696.76530,0.02299
2694.70513,0.02298
2692.64496,0.02262
2690.58478,0.02215
2688.52461,0.02194
2686.46444,0.02199
2684.40427,0.02206
2682.34410,0.02193
2680.28392,0.02171
2678.22375,0.02158
2676.16358,0.02142
2674.10341,0.02114
2672.04324,0.02082
2669.98306,0.02056
2667.92289,0.02051
2665.86272,0.02063
2663.80255,0.02059
2661.74238,0.02032
2659.68220,0.02006
2657.62203,0.01994
2655.56186,0.01988
2653.50169,0.01979
2651.44151,0.01964
2649.38134,0.01943
2647.32117,0.01924
2645.26100,0.01908
2643.20083,0.01901
2641.14065,0.01902
2639.08048,0.01899
2637.02031,0.01887
2634.96014,0.01865
2632.89997,0.01834
2630.83979,0.01806
2628.77962,0.01781
2626.71945,0.01776
2624.65928,0.01787
2622.59910,0.01752
2620.53893,0.01689
2618.47876,0.01657
2616.41859,0.01644
2614.35842,0.01641
2612.29824,0.01654
2610.23807,0.01657
2608.17790,0.01655
2606.11773,0.01652
2604.05756,0.01637
2601.99738,0.01631
2599.93721,0.01636
2597.87704,0.01626
2595.81687,0.01600
2593.75670,0.01594
2591.69652,0.01611
2589.63635,0.01595
2587.57618,0.01548
2585.51601,0.01530
2583.45583,0.01559
2581.39566,0.01588
2579.33549,0.01574
2577.27532,0.01556
2575.21515,0.01561
2573.15497,0.01554
2571.09480,0.01534
2569.03463,0.01509
2566.97446,0.01473
2564.91429,0.01455
2562.85411,0.01474
2560.79394,0.01497
2558.73377,0.01484
2556.67360,0.01435
2554.61342,0.01421
2552.55325,0.01474
2550.49308,0.01529
2548.43291,0.01523
2546.37274,0.01471
2544.31256,0.01423
2542.25239,0.01410
2540.19222,0.01419
2538.13205,0.01449
2536.07188,0.01485
2534.01170,0.01497
2531.95153,0.01479
2529.89136,0.01468
2527.83119,0.01507
2525.77102,0.01544
2523.71084,0.01540
2521.65067,0.01534
2519.59050,0.01524
2517.53033,0.01497
2515.47015,0.01492
2513.40998,0.01513
2511.34981,0.01510
2509.28964,0.01492
2507.22947,0.01488
2505.16929,0.01481
2503.10912,0.01489
2501.04895,0.01512
2498.98878,0.01530
2496.92861,0.01551
2494.86843,0.01545
2492.80826,0.01508
2490.74809,0.01504
2488.68792,0.01524
2486.62775,0.01510
2484.56757,0.01487
2482.50740,0.01501
2480.44723,0.01529
2478.38706,0.01553
2476.32688,0.01585
2474.26671,0.01610
2472.20654,0.01619
2470.14637,0.01607
2468.08620,0.01573
2466.02602,0.01546
2463.96585,0.01564
2461.90568,0.01625
2459.84551,0.01674
2457.78534,0.01661
2455.72516,0.01628
2453.66499,0.01621
2451.60482,0.01623
2449.54465,0.01627
2447.48447,0.01612
2445.42430,0.01606
2443.36413,0.01644
2441.30396,0.01673
2439.24379,0.01673
2437.18361,0.01675
2435.12344,0.01678
2433.06327,0.01655
2431.00310,0.01634
2428.94293,0.01643
2426.88275,0.01647
2424.82258,0.01639
2422.76241,0.01638
2420.70224,0.01643
2418.64207,0.01630
2416.58189,0.01597
2414.52172,0.01589
2412.46155,0.01603
2410.40138,0.01595
2408.34120,0.01600
2406.28103,0.01647
2404.22086,0.01676
2402.16069,0.01648
2400.10052,0.01610
2398.04034,0.01618
2395.98017,0.01638
2393.92000,0.01644
2391.85983,0.01632
2389.79966,0.01606
2387.73948,0.01577
2385.67931,0.01563
2383.61914,0.01580
2381.55897,0.01611
2379.49880,0.01624
2377.43862,0.01639
2375.37845,0.01742
2373.31828,0.01830
2371.25811,0.01868
2369.19793,0.01873
2367.13776,0.01734
2365.07759,0.01543
2363.01742,0.01582
2360.95725,0.01288
2358.89707,0.01199
2356.83690,0.01433
2354.77673,0.01608
2352.71656,0.01624
2350.65639,0.01195
2348.59621,0.01020
2346.53604,0.01793
2344.47587,0.01882
2342.41570,0.01712
2340.35552,0.01638
2338.29535,0.01592
2336.23518,0.01618
2334.17501,0.01637
2332.11484,0.01672
2330.05466,0.01593
2327.99449,0.01605
2325.93432,0.01551
2323.87415,0.01594
2321.81398,0.01529
2319.75380,0.01501
2317.69363,0.01399
2315.63346,0.01405
2313.57329,0.01477
2311.51312,0.01503
2309.45294,0.01495
2307.39277,0.01477
2305.33260,0.01448
2303.27243,0.01424
2301.21225,0.01464
2299.15208,0.01467
2297.09191,0.01455
2295.03174,0.01474
2292.97157,0.01475
2290.91139,0.01458
2288.85122,0.01451
2286.79105,0.01449
2284.73088,0.01452
2282.67071,0.01449
2280.61053,0.01414
2278.55036,0.01375
2276.49019,0.01360
2274.43002,0.01346
2272.36984,0.01368
2270.30967,0.01414
2268.24950,0.01412
2266.18933,0.01363
2264.12916,0.01308
2262.06898,0.01242
2260.00881,0.01216
2257.94864,0.01237
2255.88847,0.01227
2253.82830,0.01176
2251.76812,0.01175
2249.70795,0.01206
2247.64778,0.01169
2245.58761,0.01127
2243.52744,0.01173
2241.46726,0.01241
2239.40709,0.01220
2237.34692,0.01174
2235.28675,0.01223
2233.22657,0.01284
2231.16640,0.01282
2229.10623,0.01255
2227.04606,0.01195
2224.98589,0.01119
2222.92571,0.01147
2220.86554,0.01240
2218.80537,0.01182
2216.74520,0.01008
2214.68503,0.00983
2212.62485,0.01084
2210.56468,0.01044
2208.50451,0.00895
2206.44434,0.00895
2204.38417,0.01050
2202.32399,0.01159
2200.26382,0.01171
2198.20365,0.01161
2196.14348,0.01101
2194.08330,0.00978
2192.02313,0.00900
2189.96296,0.00866
2187.90279,0.00820
2185.84262,0.00788
2183.78244,0.00804
2181.72227,0.00861
2179.66210,0.00888
2177.60193,0.00827
2175.54176,0.00746
2173.48158,0.00771
2171.42141,0.00928
2169.36124,0.01044
2167.30107,0.00882
2165.24089,0.00606
2163.18072,0.00562
2161.12055,0.00624
2159.06038,0.00667
2157.00021,0.00815
2154.94003,0.00972
2152.87986,0.00958
2150.81969,0.00788
2148.75952,0.00689
2146.69935,0.00746
2144.63917,0.00793
2142.57900,0.00766
2140.51883,0.00738
2138.45866,0.00734
2136.39849,0.00709
2134.33831,0.00661
2132.27814,0.00671
2130.21797,0.00763
2128.15780,0.00840
2126.09762,0.00837
2124.03745,0.00859
2121.97728,0.00972
2119.91711,0.01020
2117.85694,0.00914
2115.79676,0.00809
2113.73659,0.00837
2111.67642,0.00907
2109.61625,0.00886
2107.55608,0.00858
2105.49590,0.00917
2103.43573,0.00918
2101.37556,0.00801
2099.31539,0.00737
2097.25521,0.00767
2095.19504,0.00798
2093.13487,0.00806
2091.07470,0.00810
2089.01453,0.00837
2086.95435,0.00869
2084.89418,0.00841
2082.83401,0.00808
2080.77384,0.00863
2078.71367,0.00928
2076.65349,0.00929
2074.59332,0.00909
2072.53315,0.00840
2070.47298,0.00740
2068.41281,0.00718
2066.35263,0.00784
2064.29246,0.00829
2062.23229,0.00779
2060.17212,0.00688
2058.11194,0.00607
2056.05177,0.00540
2053.99160,0.00552
2051.93143,0.00641
2049.87126,0.00652
2047.81108,0.00547
2045.75091,0.00466
2043.69074,0.00477
2041.63057,0.00523
2039.57040,0.00492
2037.51022,0.00388
2035.45005,0.00422
2033.38988,0.00642
2031.32971,0.00752
2029.26954,0.00633
2027.20936,0.00482
2025.14919,0.00436
2023.08902,0.00473
2021.02885,0.00505
2018.96867,0.00505
2016.90850,0.00438
2014.84833,0.00294
2012.78816,0.00222
2010.72799,0.00205
2008.66781,0.00133
2006.60764,0.00132
2004.54747,0.00255
2002.48730,0.00390
2000.42713,0.00501
1998.36695,0.00553
1996.30678,0.00541
1994.24661,0.00583
1992.18644,0.00651
1990.12626,0.00627
1988.06609,0.00620
1986.00592,0.00704
1983.94575,0.00716
1981.88558,0.00543
1979.82540,0.00296
1977.76523,0.00134
1975.70506,0.00138
1973.64489,0.00292
1971.58472,0.00458
1969.52454,0.00498
1967.46437,0.00433
1965.40420,0.00366
1963.34403,0.00296
1961.28386,0.00243
1959.22368,0.00248
1957.16351,0.00254
1955.10334,0.00271
1953.04317,0.00374
1950.98299,0.00510
1948.92282,0.00567
1946.86265,0.00520
1944.80248,0.00472
1942.74231,0.00507
1940.68213,0.00521
1938.62196,0.00467
1936.56179,0.00445
1934.50162,0.00492
1932.44145,0.00530
1930.38127,0.00494
1928.32110,0.00437
1926.26093,0.00427
1924.20076,0.00463
1922.14059,0.00511
1920.08041,0.00530
1918.02024,0.00513
1915.96007,0.00523
1913.89990,0.00584
1911.83972,0.00598
1909.77955,0.00516
1907.71938,0.00450
1905.65921,0.00463
1903.59904,0.00502
1901.53886,0.00522
1899.47869,0.00529
1897.41852,0.00553
1895.35835,0.00561
1893.29818,0.00498
1891.23800,0.00425
1889.17783,0.00436
1887.11766,0.00505
1885.05749,0.00537
1882.99731,0.00507
1880.93714,0.00482
1878.87697,0.00486
1876.81680,0.00481
1874.75663,0.00450
1872.69645,0.00420
1870.63628,0.00421
1868.57611,0.00462
1866.51594,0.00513
1864.45577,0.00536
1862.39559,0.00533
1860.33542,0.00536
1858.27525,0.00551
1856.21508,0.00547
1854.15491,0.00511
1852.09473,0.00474
1850.03456,0.00471
1847.97439,0.00493
1845.91422,0.00501
1843.85404,0.00493
1841.79387,0.00508
1839.73370,0.00544
1837.67353,0.00563
1835.61336,0.00553
1833.55318,0.00526
1831.49301,0.00503
1829.43284,0.00505
1827.37267,0.00535
1825.31250,0.00558
1823.25232,0.00550
1821.19215,0.00531
1819.13198,0.00529
1817.07181,0.00539
1815.01163,0.00539
1812.95146,0.00532
1810.89129,0.00540
1808.83112,0.00557
1806.77095,0.00564
1804.71077,0.00561
1802.65060,0.00556
1800.59043,0.00555
1798.53026,0.00567
1796.47009,0.00580
1794.40991,0.00576
1792.34974,0.00571
1790.28957,0.00583
1788.22940,0.00602
1786.16923,0.00610
1784.10905,0.00620
1782.04888,0.00642
1779.98871,0.00651
1777.92854,0.00624
1775.86836,0.00597
1773.80819,0.00612
1771.74802,0.00660
1769.68785,0.00690
1767.62768,0.00681
1765.56750,0.00653
1763.50733,0.00641
1761.44716,0.00661
1759.38699,0.00695
1757.32682,0.00716
1755.26664,0.00731
1753.20647,0.00753
1751.14630,0.00770
1749.08613,0.00789
1747.02596,0.00823
1744.96578,0.00851
1742.90561,0.00862
1740.84544,0.00868
1738.78527,0.00890
1736.72509,0.00928
1734.66492,0.00962
1732.60475,0.00979
1730.54458,0.00991
1728.48441,0.01014
1726.42423,0.01051
1724.36406,0.01092
1722.30389,0.01118
1720.24372,0.01141
1718.18355,0.01179
1716.12337,0.01218
1714.06320,0.01234
1712.00303,0.01247
1709.94286,0.01280
1707.88268,0.01326
1705.82251,0.01375
1703.76234,0.01424
1701.70217,0.01470
1699.64200,0.01503
1697.58182,0.01526
1695.52165,0.01544
1693.46148,0.01569
1691.40131,0.01609
1689.34114,0.01652
1687.28096,0.01691
1685.22079,0.01726
1683.16062,0.01750
1681.10045,0.01783
1679.04028,0.01836
1676.98010,0.01893
1674.91993,0.01941
1672.85976,0.01984
1670.79959,0.02019
1668.73941,0.02046
1666.67924,0.02069
1664.61907,0.02085
1662.55890,0.02089
1660.49873,0.02101
1658.43855,0.02145
1656.37838,0.02205
1654.31821,0.02238
1652.25804,0.02221
1650.19787,0.02200
1648.13769,0.02181
1646.07752,0.02154
1644.01735,0.02167
1641.95718,0.02210
1639.89701,0.02250
1637.83683,0.02270
1635.77666,0.02241
1633.71649,0.02176
1631.65632,0.02134
1629.59614,0.02112
1627.53597,0.02090
1625.47580,0.02066
1623.41563,0.02029
1621.35546,0.01993
1619.29528,0.01975
1617.23511,0.01957
1615.17494,0.01927
1613.11477,0.01905
1611.05460,0.01890
1608.99442,0.01868
1606.93425,0.01832
1604.87408,0.01795
1602.81391,0.01768
1600.75373,0.01745
1598.69356,0.01705
1596.63339,0.01647
1594.57322,0.01590
1592.51305,0.01546
1590.45287,0.01497
1588.39270,0.01433
1586.33253,0.01365
1584.27236,0.01300
1582.21219,0.01243
1580.15201,0.01204
1578.09184,0.01178
1576.03167,0.01140
1573.97150,0.01107
1571.91133,0.01090
1569.85115,0.01066
1567.79098,0.01041
1565.73081,0.01027
1563.67064,0.01012
1561.61046,0.00994
1559.55029,0.00960
1557.49012,0.00902
1555.42995,0.00840
1553.36978,0.00792
1551.30960,0.00768
1549.24943,0.00755
1547.18926,0.00744
1545.12909,0.00744
1543.06892,0.00739
1541.00874,0.00700
1538.94857,0.00647
1536.88840,0.00614
1534.82823,0.00583
1532.76805,0.00555
1530.70788,0.00558
1528.64771,0.00574
1526.58754,0.00565
1524.52737,0.00546
1522.46719,0.00546
1520.40702,0.00543
1518.34685,0.00523
1516.28668,0.00511
1514.22651,0.00507
1512.16633,0.00495
1510.10616,0.00472
1508.04599,0.00425
1505.98582,0.00369
1503.92565,0.00364
1501.86547,0.00390
1499.80530,0.00410
1497.74513,0.00406
1495.68496,0.00388
1493.62478,0.00381
1491.56461,0.00395
1489.50444,0.00402
1487.44427,0.00377
1485.38410,0.00347
1483.32392,0.00346
1481.26375,0.00371
1479.20358,0.00397
1477.14341,0.00406
1475.08324,0.00397
1473.02306,0.00381
1470.96289,0.00390
1468.90272,0.00430
1466.84255,0.00476
1464.78238,0.00508
1462.72220,0.00529
1460.66203,0.00550
1458.60186,0.00570
1456.54169,0.00584
1454.48151,0.00590
1452.42134,0.00597
1450.36117,0.00603
1448.30100,0.00592
1446.24083,0.00560
1444.18065,0.00527
1442.12048,0.00510
1440.06031,0.00513
1438.00014,0.00513
1435.93997,0.00501
1433.87979,0.00486
1431.81962,0.00469
1429.75945,0.00459
1427.69928,0.00477
1425.63910,0.00505
1423.57893,0.00520
1421.51876,0.00523
1419.45859,0.00520
1417.39842,0.00508
1415.33824,0.00499
1413.27807,0.00502
1411.21790,0.00511
1409.15773,0.00512
1407.09756,0.00503
1405.03738,0.00486
1402.97721,0.00464
1400.91704,0.00450
1398.85687,0.00449
1396.79670,0.00453
1394.73652,0.00449
1392.67635,0.00440
1390.61618,0.00449
1388.55601,0.00469
1386.49583,0.00476
1384.43566,0.00471
1382.37549,0.00474
1380.31532,0.00496
1378.25515,0.00532
1376.19497,0.00558
1374.13480,0.00568
1372.07463,0.00577
1370.01446,0.00585
1367.95429,0.00588
1365.89411,0.00590
1363.83394,0.00585
1361.77377,0.00563
1359.71360,0.00542
1357.65343,0.00536
1355.59325,0.00540
1353.53308,0.00534
1351.47291,0.00511
1349.41274,0.00487
1347.35256,0.00470
1345.29239,0.00463
1343.23222,0.00467
1341.17205,0.00480
1339.11188,0.00491
1337.05170,0.00495
1334.99153,0.00497
1332.93136,0.00493
1330.87119,0.00485
1328.81102,0.00474
1326.75084,0.00458
1324.69067,0.00445
1322.63050,0.00444
1320.57033,0.00452
1318.51015,0.00447
1316.44998,0.00423
1314.38981,0.00394
1312.32964,0.00373
1310.26947,0.00365
1308.20929,0.00366
1306.14912,0.00370
1304.08895,0.00369
1302.02878,0.00358
1299.96861,0.00349
1297.90843,0.00360
1295.84826,0.00383
1293.78809,0.00398
1291.72792,0.00407
1289.66775,0.00417
1287.60757,0.00421
1285.54740,0.00424
1283.48723,0.00427
1281.42706,0.00430
1279.36688,0.00436
1277.30671,0.00442
1275.24654,0.00464
1273.18637,0.00506
1271.12620,0.00529
1269.06602,0.00511
1267.00585,0.00473
1264.94568,0.00439
1262.88551,0.00413
1260.82534,0.00395
1258.76516,0.00388
1256.70499,0.00394
1254.64482,0.00405
1252.58465,0.00408
1250.52447,0.00399
1248.46430,0.00387
1246.40413,0.00378
1244.34396,0.00366
1242.28379,0.00346
1240.22361,0.00329
1238.16344,0.00316
1236.10327,0.00301
1234.04310,0.00301
1231.98293,0.00317
1229.92275,0.00321
1227.86258,0.00306
1225.80241,0.00296
1223.74224,0.00293
1221.68207,0.00275
1219.62189,0.00246
1217.56172,0.00232
1215.50155,0.00227
1213.44138,0.00216
1211.38120,0.00198
1209.32103,0.00176
1207.26086,0.00165
1205.20069,0.00169
1203.14052,0.00179
1201.08034,0.00195
1199.02017,0.00220
1196.96000,0.00246
1194.89983,0.00263
1192.83966,0.00275
1190.77948,0.00292
1188.71931,0.00320
1186.65914,0.00369
1184.59897,0.00440
1182.53880,0.00499
1180.47862,0.00543
1178.41845,0.00613
1176.35828,0.00717
1174.29811,0.00823
1172.23793,0.00924
1170.17776,0.01030
1168.11759,0.01132
1166.05742,0.01221
1163.99725,0.01303
1161.93707,0.01396
1159.87690,0.01491
1157.81673,0.01566
1155.75656,0.01624
1153.69639,0.01688
1151.63621,0.01762
1149.57604,0.01845
1147.51587,0.01941
1145.45570,0.02050
1143.39552,0.02166
1141.33535,0.02281
1139.27518,0.02403
1137.21501,0.02533
1135.15484,0.02665
1133.09466,0.02789
1131.03449,0.02902
1128.97432,0.03013
1126.91415,0.03123
1124.85398,0.03220
1122.79380,0.03319
1120.73363,0.03437
1118.67346,0.03558
1116.61329,0.03678
1114.55312,0.03798
1112.49294,0.03922
1110.43277,0.04064
1108.37260,0.04210
1106.31243,0.04351
1104.25225,0.04492
1102.19208,0.04623
1100.13191,0.04764
1098.07174,0.04917
1096.01157,0.05051
1093.95139,0.05180
1091.89122,0.05315
1089.83105,0.05427
1087.77088,0.05523
1085.71071,0.05637
1083.65053,0.05765
1081.59036,0.05880
1079.53019,0.05983
1077.47002,0.06079
1075.40985,0.06153
1073.34967,0.06221
1071.28950,0.06312
1069.22933,0.06409
1067.16916,0.06467
1065.10898,0.06481
1063.04881,0.06503
1060.98864,0.06546
1058.92847,0.06570
1056.86830,0.06556
1054.80812,0.06525
1052.74795,0.06480
1050.68778,0.06422
1048.62761,0.06373
1046.56744,0.06321
1044.50726,0.06245
1042.44709,0.06150
1040.38692,0.06033
1038.32675,0.05903
1036.26657,0.05780
1034.20640,0.05666
1032.14623,0.05559
1030.08606,0.05453
1028.02589,0.05334
1025.96571,0.05209
1023.90554,0.05098
1021.84537,0.05005
1019.78520,0.04903
1017.72503,0.04786
1015.66485,0.04690
1013.60468,0.04620
1011.54451,0.04562
1009.48434,0.04514
1007.42417,0.04478
1005.36399,0.04437
1003.30382,0.04399
1001.24365,0.04408
999.18348,0.04466
997.12330,0.04537
995.06313,0.04604
993.00296,0.04672
990.94279,0.04765
988.88262,0.04858
986.82244,0.04914
984.76227,0.04935
982.70210,0.04924
980.64193,0.04890
978.58176,0.04828
976.52158,0.04719
974.46141,0.04601
972.40124,0.04496
970.34107,0.04356
968.28089,0.04177
966.22072,0.04009
964.16055,0.03854
962.10038,0.03695
960.04021,0.03540
957.98003,0.03404
955.91986,0.03276
953.85969,0.03142
951.79952,0.03040
949.73935,0.03001
947.67917,0.02987
945.61900,0.02969
943.55883,0.02944
941.49866,0.02918
939.43849,0.02899
937.37831,0.02882
935.31814,0.02882
933.25797,0.02909
931.19780,0.02922
929.13762,0.02908
927.07745,0.02891
925.01728,0.02857
922.95711,0.02805
920.89694,0.02760
918.83676,0.02742
916.77659,0.02711
914.71642,0.02612
912.65625,0.02476
910.59608,0.02358
908.53590,0.02266
906.47573,0.02192
904.41556,0.02147
902.35539,0.02144
900.29522,0.02166
898.23504,0.02170
896.17487,0.02150
894.11470,0.02156
892.05453,0.02202
889.99435,0.02247
887.93418,0.02267
885.87401,0.02293
883.81384,0.02363
881.75367,0.02452
879.69349,0.02498
877.63332,0.02515
875.57315,0.02526
873.51298,0.02532
871.45281,0.02557
869.39263,0.02609
867.33246,0.02663
865.27229,0.02687
863.21212,0.02672
861.15194,0.02650
859.09177,0.02652
857.03160,0.02637
854.97143,0.02581
852.91126,0.02515
850.85108,0.02443
848.79091,0.02387
846.73074,0.02363
844.67057,0.02338
842.61040,0.02326
840.55022,0.02324
838.49005,0.02263
836.42988,0.02153
834.36971,0.02057
832.30954,0.01994
830.24936,0.01930
828.18919,0.01849
826.12902,0.01777
824.06885,0.01729
822.00867,0.01674
819.94850,0.01610
817.88833,0.01572
815.82816,0.01542
813.76799,0.01493
811.70781,0.01467
809.64764,0.01466
807.58747,0.01452
805.52730,0.01431
803.46713,0.01379
801.40695,0.01279
799.34678,0.01231
797.28661,0.01267
795.22644,0.01283
793.16627,0.01245
791.10609,0.01209
789.04592,0.01202
786.98575,0.01198
784.92558,0.01188
782.86540,0.01200
780.80523,0.01210
778.74506,0.01158
776.68489,0.01062
774.62472,0.01001
772.56454,0.01014
770.50437,0.01074
768.44420,0.01138
766.38403,0.01166
764.32386,0.01149
762.26368,0.01128
760.20351,0.01104
758.14334,0.01070
756.08317,0.01028
754.02299,0.00966
751.96282,0.00948
749.90265,0.00974
747.84248,0.00979
745.78231,0.01001
743.72213,0.00997
741.66196,0.00880
739.60179,0.00798
737.54162,0.00885
735.48145,0.00988
733.42127,0.01009
731.36110,0.01011
729.30093,0.00977
727.24076,0.00901
725.18059,0.00896
723.12041,0.00927
721.06024,0.01039
719.00007,0.01007
716.93990,0.00990
714.87972,0.01040
712.81955,0.01089
710.75938,0.01101
708.69921,0.01049
706.63904,0.00952
704.57886,0.00887
702.51869,0.00911
700.45852,0.00947
698.39835,0.00925
696.33818,0.00904
694.27800,0.00899
692.21783,0.00847
690.15766,0.00751
688.09749,0.00686
686.03731,0.00703
683.97714,0.00748
681.91697,0.00721
679.85680,0.00618
677.79663,0.00546
675.73645,0.00543
673.67628,0.00423
671.61611,0.00187
669.55594,0.00867
667.49577,0.01550
665.43559,0.00199
663.37542,0.00170
661.31525,0.00364
659.25508,0.00351
657.19491,0.00350
655.13473,0.00465
653.07456,0.00563
651.01439,0.00569
648.95422,0.00596
646.89404,0.00585
644.83387,0.00531
642.77370,0.00372
640.71353,0.00266
638.65336,0.00347
636.59318,0.00521
634.53301,0.00632
632.47284,0.00632
630.41267,0.00599
628.35250,0.00647
626.29232,0.00730
624.23215,0.00690
622.17198,0.00585
620.11181,0.00607
618.05164,0.00662
615.99146,0.00500
613.93129,0.00198
611.87112,0.00011
609.81095,0.00000
607.75077,0.00061
605.69060,0.00172
603.63043,0.00145
601.57026,0.00007
599.51009,0.00000
