3996.73391,0.00066
3994.67373,0.00079
3992.61356,0.00099
3990.55339,0.00100
3988.49322,0.00071
3986.43305,0.00038
3984.37287,0.00021
3982.31270,0.00015
3980.25253,0.00033
3978.19236,0.00072
3976.13219,0.00091
3974.07201,0.00066
3972.01184,0.00023
3969.95167,0.00000
3967.89150,0.00004
3965.83133,0.00020
3963.77115,0.00040
3961.71098,0.00056
3959.65081,0.00061
3957.59064,0.00058
3955.53046,0.00043
3953.47029,0.00020
3951.41012,0.00009
3949.34995,0.00028
3947.28978,0.00055
3945.22960,0.00062
3943.16943,0.00057
3941.10926,0.00059
3939.04909,0.00065
3936.98892,0.00061
3934.92874,0.00053
3932.86857,0.00049
3930.80840,0.00042
3928.74823,0.00039
3926.68805,0.00055
3924.62788,0.00086
3922.56771,0.00122
3920.50754,0.00140
3918.44737,0.00114
3916.38719,0.00071
3914.32702,0.00070
3912.26685,0.00105
3910.20668,0.00129
3908.14651,0.00130
3906.08633,0.00124
3904.02616,0.00106
3901.96599,0.00070
3899.90582,0.00054
3897.84565,0.00080
3895.78547,0.00141
3893.72530,0.00209
3891.66513,0.00241
3889.60496,0.00237
3887.54478,0.00221
3885.48461,0.00158
3883.42444,0.00053
3881.36427,0.00000
3879.30410,0.00034
3877.24392,0.00092
3875.18375,0.00129
3873.12358,0.00143
3871.06341,0.00149
3869.00324,0.00164
3866.94306,0.00169
3864.88289,0.00154
3862.82272,0.00137
3860.76255,0.00122
3858.70237,0.00105
3856.64220,0.00089
3854.58203,0.00100
3852.52186,0.00139
3850.46169,0.00139
3848.40151,0.00112
3846.34134,0.00120
3844.28117,0.00172
3842.22100,0.00226
3840.16083,0.00266
3838.10065,0.00295
3836.04048,0.00263
3833.98031,0.00175
3831.92014,0.00105
3829.85997,0.00073
3827.79979,0.00083
3825.73962,0.00122
3823.67945,0.00153
3821.61928,0.00172
3819.55910,0.00202
3817.49893,0.00224
3815.43876,0.00214
3813.37859,0.00169
3811.31842,0.00119
3809.25824,0.00097
3807.19807,0.00114
3805.13790,0.00138
3803.07773,0.00158
3801.01756,0.00198
3798.95738,0.00227
3796.89721,0.00212
3794.83704,0.00172
3792.77687,0.00140
3790.71670,0.00136
3788.65652,0.00138
3786.59635,0.00121
3784.53618,0.00080
3782.47601,0.00047
3780.41583,0.00053
3778.35566,0.00073
3776.29549,0.00070
3774.23532,0.00075
3772.17515,0.00099
3770.11497,0.00093
3768.05480,0.00044
3765.99463,0.00010
3763.93446,0.00027
3761.87429,0.00082
3759.81411,0.00134
3757.75394,0.00139
3755.69377,0.00128
3753.63360,0.00167
3751.57342,0.00251
3749.51325,0.00310
3747.45308,0.00317
3745.39291,0.00287
3743.33274,0.00225
3741.27256,0.00163
3739.21239,0.00127
3737.15222,0.00144
3735.09205,0.00220
3733.03188,0.00280
3730.97170,0.00269
3728.91153,0.00224
3726.85136,0.00193
3724.79119,0.00182
3722.73102,0.00161
3720.67084,0.00127
3718.61067,0.00126
3716.55050,0.00165
3714.49033,0.00227
3712.43015,0.00273
3710.36998,0.00244
3708.30981,0.00179
3706.24964,0.00150
3704.18947,0.00170
3702.12929,0.00233
3700.06912,0.00298
3698.00895,0.00298
3695.94878,0.00252
3693.88861,0.00222
3691.82843,0.00236
3689.76826,0.00279
3687.70809,0.00289
3685.64792,0.00257
3683.58775,0.00242
3681.52757,0.00253
3679.46740,0.00250
3677.40723,0.00231
3675.34706,0.00249
3673.28688,0.00316
3671.22671,0.00372
3669.16654,0.00381
3667.10637,0.00366
3665.04620,0.00391
3662.98602,0.00473
3660.92585,0.00564
3658.86568,0.00606
3656.80551,0.00588
3654.74534,0.00556
3652.68516,0.00565
3650.62499,0.00618
3648.56482,0.00663
3646.50465,0.00673
3644.44447,0.00693
3642.38430,0.00743
3640.32413,0.00798
3638.26396,0.00834
3636.20379,0.00878
3634.14361,0.00967
3632.08344,0.01088
3630.02327,0.01201
3627.96310,0.01267
3625.90293,0.01281
3623.84275,0.01291
3621.78258,0.01317
3619.72241,0.01339
3617.66224,0.01369
3615.60207,0.01449
3613.54189,0.01548
3611.48172,0.01612
3609.42155,0.01628
3607.36138,0.01631
3605.30120,0.01652
3603.24103,0.01693
3601.18086,0.01747
3599.12069,0.01807
3597.06052,0.01867
3595.00034,0.01932
3592.94017,0.01997
3590.88000,0.02025
3588.81983,0.02034
3586.75966,0.02088
3584.69948,0.02184
3582.63931,0.02251
3580.57914,0.02277
3578.51897,0.02302
3576.45879,0.02347
3574.39862,0.02418
3572.33845,0.02493
3570.27828,0.02558
3568.21811,0.02624
3566.15793,0.02660
3564.09776,0.02674
3562.03759,0.02704
3559.97742,0.02732
3557.91725,0.02767
3555.85707,0.02855
3553.79690,0.02961
3551.73673,0.03018
3549.67656,0.03058
3547.61639,0.03127
3545.55621,0.03179
3543.49604,0.03193
3541.43587,0.03217
3539.37570,0.03263
3537.31552,0.03306
3535.25535,0.03356
3533.19518,0.03438
3531.13501,0.03532
3529.07484,0.03627
3527.01466,0.03719
3524.95449,0.03769
3522.89432,0.03767
3520.83415,0.03761
3518.77398,0.03781
3516.71380,0.03833
3514.65363,0.03909
3512.59346,0.03964
3510.53329,0.03965
3508.47312,0.03958
3506.41294,0.04003
3504.35277,0.04091
3502.29260,0.04168
3500.23243,0.04212
3498.17225,0.04237
3496.11208,0.04268
3494.05191,0.04306
3491.99174,0.04342
3489.93157,0.04379
3487.87139,0.04431
3485.81122,0.04501
3483.75105,0.04570
3481.69088,0.04599
3479.63071,0.04609
3477.57053,0.04647
3475.51036,0.04697
3473.45019,0.04733
3471.39002,0.04775
3469.32984,0.04835
3467.26967,0.04886
3465.20950,0.04902
3463.14933,0.04904
3461.08916,0.04942
3459.02898,0.05008
3456.96881,0.05079
3454.90864,0.05140
3452.84847,0.05169
3450.78830,0.05184
3448.72812,0.05216
3446.66795,0.05254
3444.60778,0.05276
3442.54761,0.05270
3440.48744,0.05257
3438.42726,0.05278
3436.36709,0.05341
3434.30692,0.05411
3432.24675,0.05455
3430.18657,0.05486
3428.12640,0.05532
3426.06623,0.05578
3424.00606,0.05606
3421.94589,0.05623
3419.88571,0.05641
3417.82554,0.05665
3415.76537,0.05695
3413.70520,0.05708
3411.64503,0.05692
3409.58485,0.05695
3407.52468,0.05746
3405.46451,0.05821
3403.40434,0.05881
3401.34416,0.05919
3399.28399,0.05952
3397.22382,0.05967
3395.16365,0.05957
3393.10348,0.05945
3391.04330,0.05954
3388.98313,0.05996
3386.92296,0.06047
3384.86279,0.06079
3382.80262,0.06085
3380.74244,0.06082
3378.68227,0.06090
3376.62210,0.06098
3374.56193,0.06103
3372.50176,0.06106
3370.44158,0.06102
3368.38141,0.06105
3366.32124,0.06129
3364.26107,0.06176
3362.20089,0.06221
3360.14072,0.06228
3358.08055,0.06205
3356.02038,0.06202
3353.96021,0.06220
3351.90003,0.06242
3349.83986,0.06276
3347.77969,0.06297
3345.71952,0.06291
3343.65935,0.06279
3341.59917,0.06273
3339.53900,0.06269
3337.47883,0.06258
3335.41866,0.06253
3333.35849,0.06287
3331.29831,0.06339
3329.23814,0.06344
3327.17797,0.06324
3325.11780,0.06334
3323.05762,0.06351
3320.99745,0.06359
3318.93728,0.06376
3316.87711,0.06398
3314.81694,0.06417
3312.75676,0.06439
3310.69659,0.06444
3308.63642,0.06423
3306.57625,0.06394
3304.51608,0.06378
3302.45590,0.06394
3300.39573,0.06436
3298.33556,0.06463
3296.27539,0.06473
3294.21521,0.06484
3292.15504,0.06483
3290.09487,0.06468
3288.03470,0.06455
3285.97453,0.06458
3283.91435,0.06492
3281.85418,0.06525
3279.79401,0.06513
3277.73384,0.06496
3275.67367,0.06521
3273.61349,0.06554
3271.55332,0.06557
3269.49315,0.06533
3267.43298,0.06520
3265.37281,0.06541
3263.31263,0.06570
3261.25246,0.06578
3259.19229,0.06593
3257.13212,0.06621
3255.07194,0.06624
3253.01177,0.06603
3250.95160,0.06566
3248.89143,0.06534
3246.83126,0.06528
3244.77108,0.06526
3242.71091,0.06547
3240.65074,0.06593
3238.59057,0.06615
3236.53040,0.06605
3234.47022,0.06581
3232.41005,0.06571
3230.34988,0.06554
3228.28971,0.06511
3226.22954,0.06510
3224.16936,0.06552
3222.10919,0.06569
3220.04902,0.06562
3217.98885,0.06548
3215.92867,0.06519
3213.86850,0.06506
3211.80833,0.06526
3209.74816,0.06539
3207.68799,0.06524
3205.62781,0.06515
3203.56764,0.06519
3201.50747,0.06508
3199.44730,0.06490
3197.38713,0.06472
3195.32695,0.06456
3193.26678,0.06458
3191.20661,0.06460
3189.14644,0.06439
3187.08626,0.06409
3185.02609,0.06396
3182.96592,0.06413
3180.90575,0.06437
3178.84558,0.06432
3176.78540,0.06409
3174.72523,0.06382
3172.66506,0.06348
3170.60489,0.06316
3168.54472,0.06292
3166.48454,0.06269
3164.42437,0.06243
3162.36420,0.06214
3160.30403,0.06176
3158.24386,0.06149
3156.18368,0.06152
3154.12351,0.06164
3152.06334,0.06162
3150.00317,0.06150
3147.94299,0.06129
3145.88282,0.06096
3143.82265,0.06064
3141.76248,0.06048
3139.70231,0.06051
3137.64213,0.06070
3135.58196,0.06077
3133.52179,0.06030
3131.46162,0.05954
3129.40145,0.05908
3127.34127,0.05893
3125.28110,0.05901
3123.22093,0.05922
3121.16076,0.05919
3119.10058,0.05883
3117.04041,0.05841
3114.98024,0.05805
3112.92007,0.05774
3110.85990,0.05752
3108.79972,0.05740
3106.73955,0.05739
3104.67938,0.05732
3102.61921,0.05694
3100.55904,0.05621
3098.49886,0.05558
3096.43869,0.05548
3094.37852,0.05564
3092.31835,0.05560
3090.25818,0.05533
3088.19800,0.05501
3086.13783,0.05486
3084.07766,0.05470
3082.01749,0.05429
3079.95731,0.05395
3077.89714,0.05390
3075.83697,0.05388
3073.77680,0.05359
3071.71663,0.05323
3069.65645,0.05299
3067.59628,0.05262
3065.53611,0.05220
3063.47594,0.05195
3061.41577,0.05181
3059.35559,0.05175
3057.29542,0.05155
3055.23525,0.05114
3053.17508,0.05066
3051.11491,0.05020
3049.05473,0.04999
3046.99456,0.04984
3044.93439,0.04948
3042.87422,0.04912
3040.81404,0.04877
3038.75387,0.04835
3036.69370,0.04810
3034.63353,0.04810
3032.57336,0.04801
3030.51318,0.04755
3028.45301,0.04691
3026.39284,0.04640
3024.33267,0.04616
3022.27250,0.04606
3020.21232,0.04599
3018.15215,0.04593
3016.09198,0.04579
3014.03181,0.04561
3011.97163,0.04541
3009.91146,0.04502
3007.85129,0.04456
3005.79112,0.04431
3003.73095,0.04421
3001.67077,0.04400
2999.61060,0.04359
2997.55043,0.04300
2995.49026,0.04257
2993.43009,0.04256
2991.36991,0.04259
2989.30974,0.04237
2987.24957,0.04220
2985.18940,0.04195
2983.12923,0.04153
2981.06905,0.04138
2979.00888,0.04131
2976.94871,0.04112
2974.88854,0.04124
2972.82836,0.04140
2970.76819,0.04115
2968.70802,0.04086
2966.64785,0.04078
2964.58768,0.04065
2962.52750,0.04035
2960.46733,0.04002
2958.40716,0.03986
2956.34699,0.03992
2954.28682,0.04001
2952.22664,0.04006
2950.16647,0.04022
2948.10630,0.04044
2946.04613,0.04055
2943.98596,0.04046
2941.92578,0.04020
2939.86561,0.04009
2937.80544,0.04011
2935.74527,0.04004
2933.68509,0.03988
2931.62492,0.03959
2929.56475,0.03939
2927.50458,0.03938
2925.44441,0.03931
2923.38423,0.03910
2921.32406,0.03885
2919.26389,0.03866
2917.20372,0.03855
2915.14355,0.03842
2913.08337,0.03820
2911.02320,0.03779
2908.96303,0.03737
2906.90286,0.03728
2904.84268,0.03736
2902.78251,0.03719
2900.72234,0.03688
2898.66217,0.03679
2896.60200,0.03675
2894.54182,0.03678
2892.48165,0.03709
2890.42148,0.03730
2888.36131,0.03713
2886.30114,0.03694
2884.24096,0.03683
2882.18079,0.03668
2880.12062,0.03665
2878.06045,0.03658
2876.00028,0.03629
2873.94010,0.03601
2871.87993,0.03577
2869.81976,0.03536
2867.75959,0.03502
2865.69941,0.03503
2863.63924,0.03512
2861.57907,0.03518
2859.51890,0.03520
2857.45873,0.03500
2855.39855,0.03466
2853.33838,0.03439
2851.27821,0.03427
2849.21804,0.03420
2847.15787,0.03402
2845.09769,0.03387
2843.03752,0.03380
2840.97735,0.03353
2838.91718,0.03312
2836.85700,0.03288
2834.79683,0.03276
2832.73666,0.03261
2830.67649,0.03238
2828.61632,0.03212
2826.55614,0.03198
2824.49597,0.03184
2822.43580,0.03161
2820.37563,0.03143
2818.31546,0.03131
2816.25528,0.03110
2814.19511,0.03085
2812.13494,0.03077
2810.07477,0.03072
2808.01460,0.03058
2805.95442,0.03056
2803.89425,0.03060
2801.83408,0.03053
2799.77391,0.03043
2797.71373,0.03021
2795.65356,0.02980
2793.59339,0.02945
2791.53322,0.02943
2789.47305,0.02954
2787.41287,0.02942
2785.35270,0.02920
2783.29253,0.02911
2781.23236,0.02896
2779.17219,0.02866
2777.11201,0.02844
2775.05184,0.02832
2772.99167,0.02805
2770.93150,0.02783
2768.87133,0.02795
2766.81115,0.02816
2764.75098,0.02810
2762.69081,0.02782
2760.63064,0.02768
2758.57046,0.02769
2756.51029,0.02757
2754.45012,0.02730
2752.38995,0.02712
2750.32978,0.02706
2748.26960,0.02687
2746.20943,0.02661
2744.14926,0.02652
2742.08909,0.02640
2740.02892,0.02617
2737.96874,0.02605
2735.90857,0.02605
2733.84840,0.02591
2731.78823,0.02571
2729.72805,0.02566
2727.66788,0.02570
2725.60771,0.02561
2723.54754,0.02540
2721.48737,0.02529
2719.42719,0.02526
2717.36702,0.02510
2715.30685,0.02480
2713.24668,0.02457
2711.18651,0.02444
2709.12633,0.02436
2707.06616,0.02434
2705.00599,0.02422
2702.94582,0.02392
2700.88565,0.02366
2698.82547,0.02360
2696.76530,0.02362
2694.70513,0.02353
2692.64496,0.02330
2690.58478,0.02305
2688.52461,0.02290
2686.46444,0.02283
2684.40427,0.02259
2682.34410,0.02222
2680.28392,0.02204
2678.22375,0.02201
2676.16358,0.02190
2674.10341,0.02172
2672.04324,0.02145
2669.98306,0.02124
2667.92289,0.02127
2665.86272,0.02137
2663.80255,0.02143
2661.74238,0.02136
2659.68220,0.02102
2657.62203,0.02057
2655.56186,0.02036
2653.50169,0.02036
2651.44151,0.02030
2649.38134,0.02028
2647.32117,0.02022
2645.26100,0.01992
2643.20083,0.01968
2641.14065,0.01961
2639.08048,0.01939
2637.02031,0.01906
2634.96014,0.01887
2632.89997,0.01882
2630.83979,0.01870
2628.77962,0.01835
2626.71945,0.01793
2624.65928,0.01762
2622.59910,0.01730
2620.53893,0.01710
2618.47876,0.01712
2616.41859,0.01706
2614.35842,0.01681
2612.29824,0.01669
2610.23807,0.01681
2608.17790,0.01691
2606.11773,0.01674
2604.05756,0.01653
2601.99738,0.01660
2599.93721,0.01682
2597.87704,0.01672
2595.81687,0.01623
2593.75670,0.01596
2591.69652,0.01615
2589.63635,0.01637
2587.57618,0.01643
2585.51601,0.01633
2583.45583,0.01625
2581.39566,0.01623
2579.33549,0.01604
2577.27532,0.01593
2575.21515,0.01600
2573.15497,0.01576
2571.09480,0.01547
2569.03463,0.01573
2566.97446,0.01598
2564.91429,0.01562
2562.85411,0.01524
2560.79394,0.01525
2558.73377,0.01508
2556.67360,0.01466
2554.61342,0.01469
2552.55325,0.01502
2550.49308,0.01513
2548.43291,0.01516
2546.37274,0.01505
2544.31256,0.01479
2542.25239,0.01477
2540.19222,0.01491
2538.13205,0.01508
2536.07188,0.01513
2534.01170,0.01501
2531.95153,0.01478
2529.89136,0.01463
2527.83119,0.01468
2525.77102,0.01470
2523.71084,0.01487
2521.65067,0.01533
2519.59050,0.01552
2517.53033,0.01529
2515.47015,0.01537
2513.40998,0.01577
2511.34981,0.01573
2509.28964,0.01547
2507.22947,0.01518
2505.16929,0.01467
2503.10912,0.01460
2501.04895,0.01505
2498.98878,0.01538
2496.92861,0.01552
2494.86843,0.01557
2492.80826,0.01552
2490.74809,0.01559
2488.68792,0.01568
2486.62775,0.01549
2484.56757,0.01520
2482.50740,0.01512
2480.44723,0.01518
2478.38706,0.01541
2476.32688,0.01582
2474.26671,0.01603
2472.20654,0.01588
2470.14637,0.01559
2468.08620,0.01550
2466.02602,0.01553
2463.96585,0.01576
2461.90568,0.01628
2459.84551,0.01664
2457.78534,0.01650
2455.72516,0.01626
2453.66499,0.01625
2451.60482,0.01636
2449.54465,0.01634
2447.48447,0.01588
2445.42430,0.01553
2443.36413,0.01597
2441.30396,0.01671
2439.24379,0.01694
2437.18361,0.01665
2435.12344,0.01636
2433.06327,0.01629
2431.00310,0.01625
2428.94293,0.01608
2426.88275,0.01581
2424.82258,0.01561
2422.76241,0.01563
2420.70224,0.01571
2418.64207,0.01554
2416.58189,0.01534
2414.52172,0.01551
2412.46155,0.01559
2410.40138,0.01560
2408.34120,0.01609
2406.28103,0.01656
2404.22086,0.01653
2402.16069,0.01614
2400.10052,0.01576
2398.04034,0.01580
2395.98017,0.01606
2393.92000,0.01625
2391.85983,0.01631
2389.79966,0.01621
2387.73948,0.01589
2385.67931,0.01562
2383.61914,0.01586
2381.55897,0.01657
2379.49880,0.01712
2377.43862,0.01698
2375.37845,0.01662
2373.31828,0.01678
2371.25811,0.01756
2369.19793,0.01837
2367.13776,0.01801
2365.07759,0.01593
2363.01742,0.01261
2360.95725,0.00813
2358.89707,0.00631
2356.83690,0.00776
2354.77673,0.00966
2352.71656,0.01105
2350.65639,0.01127
2348.59621,0.01198
2346.53604,0.01432
2344.47587,0.01490
2342.41570,0.01512
2340.35552,0.01579
2338.29535,0.01571
2336.23518,0.01512
2334.17501,0.01516
2332.11484,0.01641
2330.05466,0.01735
2327.99449,0.01732
2325.93432,0.01655
2323.87415,0.01589
2321.81398,0.01541
2319.75380,0.01545
2317.69363,0.01521
2315.63346,0.01489
2313.57329,0.01483
2311.51312,0.01483
2309.45294,0.01460
2307.39277,0.01426
2305.33260,0.01420
2303.27243,0.01451
2301.21225,0.01488
2299.15208,0.01486
2297.09191,0.01470
2295.03174,0.01484
2292.97157,0.01512
2290.91139,0.01508
2288.85122,0.01463
2286.79105,0.01415
2284.73088,0.01394
2282.67071,0.01385
2280.61053,0.01364
2278.55036,0.01328
2276.49019,0.01291
2274.43002,0.01284
2272.36984,0.01330
2270.30967,0.01392
2268.24950,0.01391
2266.18933,0.01304
2264.12916,0.01204
2262.06898,0.01175
2260.00881,0.01207
2257.94864,0.01247
2255.88847,0.01266
2253.82830,0.01239
2251.76812,0.01196
2249.70795,0.01196
2247.64778,0.01168
2245.58761,0.01067
2243.52744,0.01024
2241.46726,0.01069
2239.40709,0.01125
2237.34692,0.01150
2235.28675,0.01137
2233.22657,0.01085
2231.16640,0.01040
2229.10623,0.01031
2227.04606,0.00999
2224.98589,0.00944
2222.92571,0.00976
2220.86554,0.01082
2218.80537,0.01108
2216.74520,0.01033
2214.68503,0.00966
2212.62485,0.00932
2210.56468,0.00874
2208.50451,0.00857
2206.44434,0.00975
2204.38417,0.01066
2202.32399,0.00965
2200.26382,0.00841
2198.20365,0.00837
2196.14348,0.00871
2194.08330,0.00855
2192.02313,0.00783
2189.96296,0.00702
2187.90279,0.00690
2185.84262,0.00785
2183.78244,0.00943
2181.72227,0.01056
2179.66210,0.00976
2177.60193,0.00782
2175.54176,0.00686
2173.48158,0.00693
2171.42141,0.00792
2169.36124,0.00955
2167.30107,0.00989
2165.24089,0.00859
2163.18072,0.00689
2161.12055,0.00515
2159.06038,0.00465
2157.00021,0.00530
2154.94003,0.00599
2152.87986,0.00602
2150.81969,0.00473
2148.75952,0.00385
2146.69935,0.00429
2144.63917,0.00537
2142.57900,0.00656
2140.51883,0.00686
2138.45866,0.00631
2136.39849,0.00563
2134.33831,0.00516
2132.27814,0.00529
2130.21797,0.00602
2128.15780,0.00678
2126.09762,0.00711
2124.03745,0.00743
2121.97728,0.00809
2119.91711,0.00819
2117.85694,0.00767
2115.79676,0.00767
2113.73659,0.00852
2111.67642,0.00934
2109.61625,0.00890
2107.55608,0.00776
2105.49590,0.00757
2103.43573,0.00806
2101.37556,0.00816
2099.31539,0.00796
2097.25521,0.00761
2095.19504,0.00699
2093.13487,0.00645
2091.07470,0.00636
2089.01453,0.00674
2086.95435,0.00722
2084.89418,0.00715
2082.83401,0.00680
2080.77384,0.00694
2078.71367,0.00730
2076.65349,0.00752
2074.59332,0.00784
2072.53315,0.00805
2070.47298,0.00762
2068.41281,0.00688
2066.35263,0.00649
2064.29246,0.00641
2062.23229,0.00635
2060.17212,0.00628
2058.11194,0.00632
2056.05177,0.00622
2053.99160,0.00600
2051.93143,0.00628
2049.87126,0.00677
2047.81108,0.00688
2045.75091,0.00666
2043.69074,0.00628
2041.63057,0.00626
2039.57040,0.00610
2037.51022,0.00454
2035.45005,0.00298
2033.38988,0.00329
2031.32971,0.00423
2029.26954,0.00445
2027.20936,0.00443
2025.14919,0.00462
2023.08902,0.00537
2021.02885,0.00603
2018.96867,0.00543
2016.90850,0.00405
2014.84833,0.00302
2012.78816,0.00335
2010.72799,0.00418
2008.66781,0.00318
2006.60764,0.00091
2004.54747,0.00002
2002.48730,0.00137
2000.42713,0.00352
1998.36695,0.00459
1996.30678,0.00500
1994.24661,0.00586
1992.18644,0.00624
1990.12626,0.00552
1988.06609,0.00480
1986.00592,0.00494
1983.94575,0.00526
1981.88558,0.00468
1979.82540,0.00362
1977.76523,0.00281
1975.70506,0.00206
1973.64489,0.00185
1971.58472,0.00259
1969.52454,0.00294
1967.46437,0.00234
1965.40420,0.00157
1963.34403,0.00076
1961.28386,0.00018
1959.22368,0.00045
1957.16351,0.00127
1955.10334,0.00229
1953.04317,0.00368
1950.98299,0.00455
1948.92282,0.00429
1946.86265,0.00385
1944.80248,0.00399
1942.74231,0.00446
1940.68213,0.00416
1938.62196,0.00297
1936.56179,0.00233
1934.50162,0.00303
1932.44145,0.00417
1930.38127,0.00446
1928.32110,0.00397
1926.26093,0.00368
1924.20076,0.00402
1922.14059,0.00459
1920.08041,0.00485
1918.02024,0.00464
1915.96007,0.00453
1913.89990,0.00481
1911.83972,0.00451
1909.77955,0.00343
1907.71938,0.00306
1905.65921,0.00380
1903.59904,0.00459
1901.53886,0.00478
1899.47869,0.00434
1897.41852,0.00373
1895.35835,0.00341
1893.29818,0.00337
1891.23800,0.00356
1889.17783,0.00390
1887.11766,0.00414
1885.05749,0.00422
1882.99731,0.00417
1880.93714,0.00412
1878.87697,0.00406
1876.81680,0.00389
1874.75663,0.00378
1872.69645,0.00395
1870.63628,0.00434
1868.57611,0.00472
1866.51594,0.00486
1864.45577,0.00474
1862.39559,0.00454
1860.33542,0.00430
1858.27525,0.00414
1856.21508,0.00425
1854.15491,0.00430
1852.09473,0.00391
1850.03456,0.00355
1847.97439,0.00383
1845.91422,0.00449
1843.85404,0.00484
1841.79387,0.00483
1839.73370,0.00479
1837.67353,0.00452
1835.61336,0.00400
1833.55318,0.00379
1831.49301,0.00408
1829.43284,0.00449
1827.37267,0.00480
1825.31250,0.00496
1823.25232,0.00498
1821.19215,0.00485
1819.13198,0.00459
1817.07181,0.00428
1815.01163,0.00400
1812.95146,0.00392
1810.89129,0.00408
1808.83112,0.00420
1806.77095,0.00420
1804.71077,0.00431
1802.65060,0.00455
1800.59043,0.00478
1798.53026,0.00499
1796.47009,0.00511
1794.40991,0.00493
1792.34974,0.00465
1790.28957,0.00471
1788.22940,0.00498
1786.16923,0.00513
1784.10905,0.00505
1782.04888,0.00500
1779.98871,0.00515
1777.92854,0.00528
1775.86836,0.00535
1773.80819,0.00543
1771.74802,0.00543
1769.68785,0.00529
1767.62768,0.00511
1765.56750,0.00504
1763.50733,0.00518
1761.44716,0.00551
1759.38699,0.00592
1757.32682,0.00620
1755.26664,0.00638
1753.20647,0.00673
1751.14630,0.00725
1749.08613,0.00773
1747.02596,0.00803
1744.96578,0.00816
1742.90561,0.00827
1740.84544,0.00841
1738.78527,0.00849
1736.72509,0.00861
1734.66492,0.00893
1732.60475,0.00924
1730.54458,0.00923
1728.48441,0.00916
1726.42423,0.00943
1724.36406,0.00995
1722.30389,0.01040
1720.24372,0.01076
1718.18355,0.01121
1716.12337,0.01162
1714.06320,0.01181
1712.00303,0.01192
1709.94286,0.01211
1707.88268,0.01245
1705.82251,0.01289
1703.76234,0.01332
1701.70217,0.01378
1699.64200,0.01430
1697.58182,0.01480
1695.52165,0.01503
1693.46148,0.01509
1691.40131,0.01542
1689.34114,0.01621
1687.28096,0.01715
1685.22079,0.01766
1683.16062,0.01755
1681.10045,0.01753
1679.04028,0.01797
1676.98010,0.01855
1674.91993,0.01905
1672.85976,0.01945
1670.79959,0.01984
1668.73941,0.02026
1666.67924,0.02072
1664.61907,0.02108
1662.55890,0.02125
1660.49873,0.02142
1658.43855,0.02186
1656.37838,0.02258
1654.31821,0.02325
1652.25804,0.02331
1650.19787,0.02304
1648.13769,0.02281
1646.07752,0.02262
1644.01735,0.02266
1641.95718,0.02277
1639.89701,0.02279
1637.83683,0.02278
1635.77666,0.02259
1633.71649,0.02213
1631.65632,0.02175
1629.59614,0.02157
1627.53597,0.02147
1625.47580,0.02132
1623.41563,0.02098
1621.35546,0.02059
1619.29528,0.02037
1617.23511,0.02011
1615.17494,0.01966
1613.11477,0.01932
1611.05460,0.01914
1608.99442,0.01891
1606.93425,0.01860
1604.87408,0.01832
1602.81391,0.01800
1600.75373,0.01759
1598.69356,0.01709
1596.63339,0.01647
1594.57322,0.01586
1592.51305,0.01541
1590.45287,0.01502
1588.39270,0.01447
1586.33253,0.01379
1584.27236,0.01312
1582.21219,0.01257
1580.15201,0.01220
1578.09184,0.01190
1576.03167,0.01147
1573.97150,0.01104
1571.91133,0.01074
1569.85115,0.01031
1567.79098,0.00982
1565.73081,0.00957
1563.67064,0.00956
1561.61046,0.00978
1559.55029,0.00986
1557.49012,0.00910
1555.42995,0.00799
1553.36978,0.00722
1551.30960,0.00690
1549.24943,0.00676
1547.18926,0.00674
1545.12909,0.00698
1543.06892,0.00714
1541.00874,0.00665
1538.94857,0.00579
1536.88840,0.00536
1534.82823,0.00522
1532.76805,0.00509
1530.70788,0.00506
1528.64771,0.00505
1526.58754,0.00488
1524.52737,0.00467
1522.46719,0.00470
1520.40702,0.00486
1518.34685,0.00475
1516.28668,0.00440
1514.22651,0.00413
1512.16633,0.00405
1510.10616,0.00403
1508.04599,0.00373
1505.98582,0.00296
1503.92565,0.00257
1501.86547,0.00282
1499.80530,0.00315
1497.74513,0.00312
1495.68496,0.00290
1493.62478,0.00297
1491.56461,0.00327
1489.50444,0.00328
1487.44427,0.00282
1485.38410,0.00242
1483.32392,0.00246
1481.26375,0.00284
1479.20358,0.00333
1477.14341,0.00371
1475.08324,0.00382
1473.02306,0.00366
1470.96289,0.00354
1468.90272,0.00370
1466.84255,0.00405
1464.78238,0.00441
1462.72220,0.00470
1460.66203,0.00501
1458.60186,0.00528
1456.54169,0.00533
1454.48151,0.00523
1452.42134,0.00518
1450.36117,0.00515
1448.30100,0.00500
1446.24083,0.00470
1444.18065,0.00440
1442.12048,0.00426
1440.06031,0.00436
1438.00014,0.00443
1435.93997,0.00422
1433.87979,0.00394
1431.81962,0.00383
1429.75945,0.00387
1427.69928,0.00400
1425.63910,0.00420
1423.57893,0.00447
1421.51876,0.00479
1419.45859,0.00494
1417.39842,0.00474
1415.33824,0.00449
1413.27807,0.00444
1411.21790,0.00450
1409.15773,0.00457
1407.09756,0.00460
1405.03738,0.00451
1402.97721,0.00431
1400.91704,0.00417
1398.85687,0.00407
1396.79670,0.00399
1394.73652,0.00397
1392.67635,0.00400
1390.61618,0.00412
1388.55601,0.00434
1386.49583,0.00445
1384.43566,0.00441
1382.37549,0.00442
1380.31532,0.00464
1378.25515,0.00498
1376.19497,0.00523
1374.13480,0.00530
1372.07463,0.00527
1370.01446,0.00524
1367.95429,0.00519
1365.89411,0.00515
1363.83394,0.00512
1361.77377,0.00493
1359.71360,0.00464
1357.65343,0.00449
1355.59325,0.00453
1353.53308,0.00451
1351.47291,0.00435
1349.41274,0.00418
1347.35256,0.00405
1345.29239,0.00393
1343.23222,0.00390
1341.17205,0.00403
1339.11188,0.00416
1337.05170,0.00401
1334.99153,0.00375
1332.93136,0.00363
1330.87119,0.00367
1328.81102,0.00366
1326.75084,0.00344
1324.69067,0.00311
1322.63050,0.00289
1320.57033,0.00291
1318.51015,0.00299
1316.44998,0.00292
1314.38981,0.00269
1312.32964,0.00245
1310.26947,0.00232
1308.20929,0.00229
1306.14912,0.00229
1304.08895,0.00231
1302.02878,0.00230
1299.96861,0.00228
1297.90843,0.00233
1295.84826,0.00246
1293.78809,0.00262
1291.72792,0.00276
1289.66775,0.00276
1287.60757,0.00268
1285.54740,0.00273
1283.48723,0.00285
1281.42706,0.00293
1279.36688,0.00300
1277.30671,0.00316
1275.24654,0.00338
1273.18637,0.00356
1271.12620,0.00356
1269.06602,0.00333
1267.00585,0.00306
1264.94568,0.00293
1262.88551,0.00292
1260.82534,0.00289
1258.76516,0.00282
1256.70499,0.00282
1254.64482,0.00283
1252.58465,0.00274
1250.52447,0.00253
1248.46430,0.00232
1246.40413,0.00214
1244.34396,0.00194
1242.28379,0.00177
1240.22361,0.00164
1238.16344,0.00155
1236.10327,0.00154
1234.04310,0.00158
1231.98293,0.00172
1229.92275,0.00183
1227.86258,0.00176
1225.80241,0.00159
1223.74224,0.00145
1221.68207,0.00122
1219.62189,0.00089
1217.56172,0.00077
1215.50155,0.00075
1213.44138,0.00057
1211.38120,0.00035
1209.32103,0.00017
1207.26086,0.00003
1205.20069,0.00000
1203.14052,0.00005
1201.08034,0.00008
1199.02017,0.00018
1196.96000,0.00044
1194.89983,0.00066
1192.83966,0.00082
1190.77948,0.00100
1188.71931,0.00121
1186.65914,0.00167
1184.59897,0.00232
1182.53880,0.00288
1180.47862,0.00352
1178.41845,0.00442
1176.35828,0.00547
1174.29811,0.00653
1172.23793,0.00762
1170.17776,0.00863
1168.11759,0.00955
1166.05742,0.01049
1163.99725,0.01134
1161.93707,0.01213
1159.87690,0.01300
1157.81673,0.01386
1155.75656,0.01461
1153.69639,0.01529
1151.63621,0.01609
1149.57604,0.01704
1147.51587,0.01802
1145.45570,0.01890
1143.39552,0.01986
1141.33535,0.02118
1139.27518,0.02271
1137.21501,0.02409
1135.15484,0.02532
1133.09466,0.02659
1131.03449,0.02793
1128.97432,0.02917
1126.91415,0.03029
1124.85398,0.03130
1122.79380,0.03228
1120.73363,0.03341
1118.67346,0.03461
1116.61329,0.03586
1114.55312,0.03722
1112.49294,0.03866
1110.43277,0.04010
1108.37260,0.04146
1106.31243,0.04292
1104.25225,0.04463
1102.19208,0.04634
1100.13191,0.04786
1098.07174,0.04929
1096.01157,0.05067
1093.95139,0.05205
1091.89122,0.05349
1089.83105,0.05480
1087.77088,0.05591
1085.71071,0.05708
1083.65053,0.05844
1081.59036,0.05985
1079.53019,0.06125
1077.47002,0.06247
1075.40985,0.06324
1073.34967,0.06388
1071.28950,0.06480
1069.22933,0.06581
1067.16916,0.06646
1065.10898,0.06672
1063.04881,0.06706
1060.98864,0.06751
1058.92847,0.06757
1056.86830,0.06723
1054.80812,0.06681
1052.74795,0.06646
1050.68778,0.06614
1048.62761,0.06556
1046.56744,0.06473
1044.50726,0.06390
1042.44709,0.06296
1040.38692,0.06175
1038.32675,0.06059
1036.26657,0.05947
1034.20640,0.05816
1032.14623,0.05686
1030.08606,0.05578
1028.02589,0.05459
1025.96571,0.05311
1023.90554,0.05163
1021.84537,0.05038
1019.78520,0.04903
1017.72503,0.04748
1015.66485,0.04626
1013.60468,0.04563
1011.54451,0.04523
1009.48434,0.04471
1007.42417,0.04414
1005.36399,0.04356
1003.30382,0.04306
1001.24365,0.04310
999.18348,0.04364
997.12330,0.04424
995.06313,0.04484
993.00296,0.04568
990.94279,0.04675
988.88262,0.04774
986.82244,0.04847
984.76227,0.04872
982.70210,0.04847
980.64193,0.04792
978.58176,0.04706
976.52158,0.04575
974.46141,0.04415
972.40124,0.04260
970.34107,0.04095
968.28089,0.03898
966.22072,0.03700
964.16055,0.03515
962.10038,0.03329
960.04021,0.03162
957.98003,0.03034
955.91986,0.02935
953.85969,0.02838
951.79952,0.02736
949.73935,0.02679
947.67917,0.02664
945.61900,0.02640
943.55883,0.02599
941.49866,0.02545
939.43849,0.02498
937.37831,0.02478
935.31814,0.02482
933.25797,0.02508
931.19780,0.02523
929.13762,0.02502
927.07745,0.02485
925.01728,0.02455
922.95711,0.02386
920.89694,0.02313
918.83676,0.02242
916.77659,0.02165
914.71642,0.02105
912.65625,0.02045
910.59608,0.01956
908.53590,0.01834
906.47573,0.01713
904.41556,0.01667
902.35539,0.01688
900.29522,0.01708
898.23504,0.01723
896.17487,0.01726
894.11470,0.01700
892.05453,0.01683
889.99435,0.01704
887.93418,0.01751
885.87401,0.01811
883.81384,0.01869
881.75367,0.01940
879.69349,0.02021
877.63332,0.02048
875.57315,0.02014
873.51298,0.01989
871.45281,0.02023
869.39263,0.02094
867.33246,0.02145
865.27229,0.02179
863.21212,0.02207
861.15194,0.02210
859.09177,0.02199
857.03160,0.02172
854.97143,0.02121
852.91126,0.02081
850.85108,0.02059
848.79091,0.02006
846.73074,0.01906
844.67057,0.01809
842.61040,0.01763
840.55022,0.01748
838.49005,0.01700
836.42988,0.01641
834.36971,0.01601
832.30954,0.01532
830.24936,0.01429
828.18919,0.01328
826.12902,0.01248
824.06885,0.01185
822.00867,0.01102
819.94850,0.01018
817.88833,0.00979
815.82816,0.00942
813.76799,0.00867
811.70781,0.00829
809.64764,0.00874
807.58747,0.00893
805.52730,0.00829
803.46713,0.00751
801.40695,0.00688
799.34678,0.00653
797.28661,0.00667
795.22644,0.00686
793.16627,0.00678
791.10609,0.00647
789.04592,0.00635
786.98575,0.00643
784.92558,0.00604
782.86540,0.00534
780.80523,0.00503
778.74506,0.00502
776.68489,0.00487
774.62472,0.00465
772.56454,0.00477
770.50437,0.00511
768.44420,0.00504
766.38403,0.00466
764.32386,0.00471
762.26368,0.00474
760.20351,0.00422
758.14334,0.00373
756.08317,0.00365
754.02299,0.00389
751.96282,0.00435
749.90265,0.00445
747.84248,0.00385
745.78231,0.00349
743.72213,0.00337
741.66196,0.00255
739.60179,0.00197
737.54162,0.00243
735.48145,0.00265
733.42127,0.00232
731.36110,0.00231
729.30093,0.00216
727.24076,0.00158
725.18059,0.00177
723.12041,0.00246
721.06024,0.00312
719.00007,0.00324
716.93990,0.00339
714.87972,0.00361
712.81955,0.00356
710.75938,0.00353
708.69921,0.00334
706.63904,0.00270
704.57886,0.00229
702.51869,0.00255
700.45852,0.00291
698.39835,0.00287
696.33818,0.00257
694.27800,0.00239
692.21783,0.00254
690.15766,0.00289
688.09749,0.00323
686.03731,0.00331
683.97714,0.00277
681.91697,0.00183
679.85680,0.00137
677.79663,0.00161
675.73645,0.00181
673.67628,0.00132
671.61611,0.00092
669.55594,0.00365
667.49577,0.00527
665.43559,0.00098
663.37542,0.00000
661.31525,0.00094
659.25508,0.00184
657.19491,0.00182
655.13473,0.00144
653.07456,0.00145
651.01439,0.00203
648.95422,0.00304
646.89404,0.00352
644.83387,0.00290
642.77370,0.00132
640.71353,0.00031
638.65336,0.00121
636.59318,0.00298
634.53301,0.00365
632.47284,0.00330
630.41267,0.00359
628.35250,0.00446
626.29232,0.00404
624.23215,0.00250
622.17198,0.00222
620.11181,0.00287
618.05164,0.00283
615.99146,0.00243
613.93129,0.00314
611.87112,0.00494
609.81095,0.00534
607.75077,0.00435
605.69060,0.00391
603.63043,0.00321
601.57026,0.00161
599.51009,0.00000
