3996.73391,0.00041
3994.67373,0.00025
3992.61356,0.00018
3990.55339,0.00030
3988.49322,0.00042
3986.43305,0.00053
3984.37287,0.00064
3982.31270,0.00068
3980.25253,0.00075
3978.19236,0.00085
3976.13219,0.00071
3974.07201,0.00030
3972.01184,0.00002
3969.95167,0.00000
3967.89150,0.00011
3965.83133,0.00034
3963.77115,0.00074
3961.71098,0.00104
3959.65081,0.00113
3957.59064,0.00125
3955.53046,0.00144
3953.47029,0.00142
3951.41012,0.00105
3949.34995,0.00051
3947.28978,0.00020
3945.22960,0.00034
3943.16943,0.00060
3941.10926,0.00055
3939.04909,0.00039
3936.98892,0.00058
3934.92874,0.00093
3932.86857,0.00099
3930.80840,0.00074
3928.74823,0.00048
3926.68805,0.00042
3924.62788,0.00057
3922.56771,0.00078
3920.50754,0.00086
3918.44737,0.00064
3916.38719,0.00020
3914.32702,0.00000
3912.26685,0.00037
3910.20668,0.00093
3908.14651,0.00117
3906.08633,0.00127
3904.02616,0.00150
3901.96599,0.00157
3899.90582,0.00127
3897.84565,0.00079
3895.78547,0.00046
3893.72530,0.00044
3891.66513,0.00077
3889.60496,0.00115
3887.54478,0.00133
3885.48461,0.00130
3883.42444,0.00097
3881.36427,0.00071
3879.30410,0.00087
3877.24392,0.00104
3875.18375,0.00116
3873.12358,0.00156
3871.06341,0.00202
3869.00324,0.00197
3866.94306,0.00165
3864.88289,0.00189
3862.82272,0.00231
3860.76255,0.00188
3858.70237,0.00093
3856.64220,0.00031
3854.58203,0.00039
3852.52186,0.00106
3850.46169,0.00137
3848.40151,0.00103
3846.34134,0.00060
3844.28117,0.00060
3842.22100,0.00101
3840.16083,0.00134
3838.10065,0.00145
3836.04048,0.00160
3833.98031,0.00164
3831.92014,0.00157
3829.85997,0.00159
3827.79979,0.00180
3825.73962,0.00205
3823.67945,0.00197
3821.61928,0.00143
3819.55910,0.00074
3817.49893,0.00070
3815.43876,0.00140
3813.37859,0.00171
3811.31842,0.00126
3809.25824,0.00083
3807.19807,0.00094
3805.13790,0.00121
3803.07773,0.00107
3801.01756,0.00083
3798.95738,0.00095
3796.89721,0.00110
3794.83704,0.00098
3792.77687,0.00083
3790.71670,0.00078
3788.65652,0.00058
3786.59635,0.00029
3784.53618,0.00013
3782.47601,0.00000
3780.41583,0.00000
3778.35566,0.00045
3776.29549,0.00100
3774.23532,0.00125
3772.17515,0.00138
3770.11497,0.00150
3768.05480,0.00151
3765.99463,0.00143
3763.93446,0.00129
3761.87429,0.00130
3759.81411,0.00139
3757.75394,0.00125
3755.69377,0.00113
3753.63360,0.00129
3751.57342,0.00144
3749.51325,0.00142
3747.45308,0.00151
3745.39291,0.00167
3743.33274,0.00160
3741.27256,0.00125
3739.21239,0.00095
3737.15222,0.00094
3735.09205,0.00126
3733.03188,0.00157
3730.97170,0.00182
3728.91153,0.00216
3726.85136,0.00236
3724.79119,0.00208
3722.73102,0.00140
3720.67084,0.00085
3718.61067,0.00072
3716.55050,0.00080
3714.49033,0.00095
3712.43015,0.00123
3710.36998,0.00138
3708.30981,0.00105
3706.24964,0.00075
3704.18947,0.00082
3702.12929,0.00119
3700.06912,0.00168
3698.00895,0.00201
3695.94878,0.00200
3693.88861,0.00172
3691.82843,0.00165
3689.76826,0.00187
3687.70809,0.00159
3685.64792,0.00082
3683.58775,0.00047
3681.52757,0.00091
3679.46740,0.00186
3677.40723,0.00272
3675.34706,0.00288
3673.28688,0.00240
3671.22671,0.00222
3669.16654,0.00263
3667.10637,0.00286
3665.04620,0.00268
3662.98602,0.00245
3660.92585,0.00243
3658.86568,0.00255
3656.80551,0.00270
3654.74534,0.00300
3652.68516,0.00353
3650.62499,0.00411
3648.56482,0.00430
3646.50465,0.00396
3644.44447,0.00373
3642.38430,0.00400
3640.32413,0.00446
3638.26396,0.00488
3636.20379,0.00531
3634.14361,0.00552
3632.08344,0.00533
3630.02327,0.00530
3627.96310,0.00603
3625.90293,0.00692
3623.84275,0.00720
3621.78258,0.00714
3619.72241,0.00739
3617.66224,0.00794
3615.60207,0.00831
3613.54189,0.00844
3611.48172,0.00838
3609.42155,0.00852
3607.36138,0.00926
3605.30120,0.00988
3603.24103,0.00988
3601.18086,0.00989
3599.12069,0.01037
3597.06052,0.01109
3595.00034,0.01180
3592.94017,0.01219
3590.88000,0.01234
3588.81983,0.01286
3586.75966,0.01363
3584.69948,0.01370
3582.63931,0.01333
3580.57914,0.01317
3578.51897,0.01332
3576.45879,0.01372
3574.39862,0.01434
3572.33845,0.01495
3570.27828,0.01530
3568.21811,0.01544
3566.15793,0.01551
3564.09776,0.01562
3562.03759,0.01588
3559.97742,0.01612
3557.91725,0.01630
3555.85707,0.01658
3553.79690,0.01693
3551.73673,0.01711
3549.67656,0.01729
3547.61639,0.01795
3545.55621,0.01882
3543.49604,0.01920
3541.43587,0.01921
3539.37570,0.01925
3537.31552,0.01935
3535.25535,0.01955
3533.19518,0.02002
3531.13501,0.02071
3529.07484,0.02120
3527.01466,0.02130
3524.95449,0.02123
3522.89432,0.02121
3520.83415,0.02139
3518.77398,0.02171
3516.71380,0.02207
3514.65363,0.02253
3512.59346,0.02295
3510.53329,0.02317
3508.47312,0.02336
3506.41294,0.02356
3504.35277,0.02351
3502.29260,0.02357
3500.23243,0.02434
3498.17225,0.02543
3496.11208,0.02614
3494.05191,0.02618
3491.99174,0.02598
3489.93157,0.02607
3487.87139,0.02624
3485.81122,0.02614
3483.75105,0.02617
3481.69088,0.02648
3479.63071,0.02658
3477.57053,0.02675
3475.51036,0.02747
3473.45019,0.02814
3471.39002,0.02838
3469.32984,0.02858
3467.26967,0.02880
3465.20950,0.02886
3463.14933,0.02880
3461.08916,0.02873
3459.02898,0.02892
3456.96881,0.02939
3454.90864,0.02964
3452.84847,0.02951
3450.78830,0.02946
3448.72812,0.02974
3446.66795,0.03018
3444.60778,0.03052
3442.54761,0.03083
3440.48744,0.03122
3438.42726,0.03143
3436.36709,0.03145
3434.30692,0.03157
3432.24675,0.03185
3430.18657,0.03196
3428.12640,0.03181
3426.06623,0.03186
3424.00606,0.03235
3421.94589,0.03295
3419.88571,0.03339
3417.82554,0.03348
3415.76537,0.03334
3413.70520,0.03324
3411.64503,0.03335
3409.58485,0.03361
3407.52468,0.03392
3405.46451,0.03446
3403.40434,0.03493
3401.34416,0.03485
3399.28399,0.03446
3397.22382,0.03427
3395.16365,0.03444
3393.10348,0.03483
3391.04330,0.03514
3388.98313,0.03532
3386.92296,0.03568
3384.86279,0.03594
3382.80262,0.03558
3380.74244,0.03514
3378.68227,0.03529
3376.62210,0.03564
3374.56193,0.03568
3372.50176,0.03556
3370.44158,0.03554
3368.38141,0.03560
3366.32124,0.03579
3364.26107,0.03625
3362.20089,0.03674
3360.14072,0.03698
3358.08055,0.03698
3356.02038,0.03701
3353.96021,0.03723
3351.90003,0.03718
3349.83986,0.03654
3347.77969,0.03611
3345.71952,0.03654
3343.65935,0.03698
3341.59917,0.03677
3339.53900,0.03651
3337.47883,0.03679
3335.41866,0.03721
3333.35849,0.03741
3331.29831,0.03749
3329.23814,0.03758
3327.17797,0.03758
3325.11780,0.03743
3323.05762,0.03757
3320.99745,0.03804
3318.93728,0.03806
3316.87711,0.03770
3314.81694,0.03744
3312.75676,0.03724
3310.69659,0.03717
3308.63642,0.03733
3306.57625,0.03749
3304.51608,0.03753
3302.45590,0.03761
3300.39573,0.03772
3298.33556,0.03778
3296.27539,0.03778
3294.21521,0.03772
3292.15504,0.03777
3290.09487,0.03794
3288.03470,0.03805
3285.97453,0.03814
3283.91435,0.03818
3281.85418,0.03802
3279.79401,0.03789
3277.73384,0.03810
3275.67367,0.03829
3273.61349,0.03817
3271.55332,0.03820
3269.49315,0.03863
3267.43298,0.03908
3265.37281,0.03924
3263.31263,0.03913
3261.25246,0.03893
3259.19229,0.03879
3257.13212,0.03867
3255.07194,0.03836
3253.01177,0.03803
3250.95160,0.03802
3248.89143,0.03821
3246.83126,0.03831
3244.77108,0.03844
3242.71091,0.03865
3240.65074,0.03873
3238.59057,0.03854
3236.53040,0.03837
3234.47022,0.03843
3232.41005,0.03855
3230.34988,0.03869
3228.28971,0.03888
3226.22954,0.03891
3224.16936,0.03876
3222.10919,0.03861
3220.04902,0.03837
3217.98885,0.03808
3215.92867,0.03802
3213.86850,0.03831
3211.80833,0.03865
3209.74816,0.03874
3207.68799,0.03863
3205.62781,0.03847
3203.56764,0.03843
3201.50747,0.03861
3199.44730,0.03873
3197.38713,0.03853
3195.32695,0.03840
3193.26678,0.03843
3191.20661,0.03828
3189.14644,0.03812
3187.08626,0.03807
3185.02609,0.03790
3182.96592,0.03766
3180.90575,0.03754
3178.84558,0.03744
3176.78540,0.03740
3174.72523,0.03749
3172.66506,0.03737
3170.60489,0.03715
3168.54472,0.03713
3166.48454,0.03703
3164.42437,0.03684
3162.36420,0.03690
3160.30403,0.03689
3158.24386,0.03647
3156.18368,0.03621
3154.12351,0.03637
3152.06334,0.03651
3150.00317,0.03635
3147.94299,0.03592
3145.88282,0.03550
3143.82265,0.03535
3141.76248,0.03539
3139.70231,0.03534
3137.64213,0.03517
3135.58196,0.03509
3133.52179,0.03513
3131.46162,0.03517
3129.40145,0.03522
3127.34127,0.03524
3125.28110,0.03508
3123.22093,0.03478
3121.16076,0.03461
3119.10058,0.03458
3117.04041,0.03447
3114.98024,0.03427
3112.92007,0.03412
3110.85990,0.03400
3108.79972,0.03388
3106.73955,0.03376
3104.67938,0.03349
3102.61921,0.03315
3100.55904,0.03300
3098.49886,0.03302
3096.43869,0.03290
3094.37852,0.03259
3092.31835,0.03231
3090.25818,0.03206
3088.19800,0.03186
3086.13783,0.03173
3084.07766,0.03152
3082.01749,0.03137
3079.95731,0.03162
3077.89714,0.03196
3075.83697,0.03177
3073.77680,0.03115
3071.71663,0.03074
3069.65645,0.03074
3067.59628,0.03083
3065.53611,0.03066
3063.47594,0.03032
3061.41577,0.03013
3059.35559,0.03026
3057.29542,0.03049
3055.23525,0.03039
3053.17508,0.03000
3051.11491,0.02964
3049.05473,0.02937
3046.99456,0.02914
3044.93439,0.02896
3042.87422,0.02892
3040.81404,0.02896
3038.75387,0.02883
3036.69370,0.02840
3034.63353,0.02786
3032.57336,0.02747
3030.51318,0.02728
3028.45301,0.02728
3026.39284,0.02733
3024.33267,0.02723
3022.27250,0.02702
3020.21232,0.02677
3018.15215,0.02661
3016.09198,0.02673
3014.03181,0.02690
3011.97163,0.02673
3009.91146,0.02631
3007.85129,0.02590
3005.79112,0.02559
3003.73095,0.02537
3001.67077,0.02532
2999.61060,0.02545
2997.55043,0.02543
2995.49026,0.02520
2993.43009,0.02507
2991.36991,0.02484
2989.30974,0.02450
2987.24957,0.02436
2985.18940,0.02431
2983.12923,0.02417
2981.06905,0.02395
2979.00888,0.02378
2976.94871,0.02367
2974.88854,0.02356
2972.82836,0.02358
2970.76819,0.02375
2968.70802,0.02385
2966.64785,0.02367
2964.58768,0.02329
2962.52750,0.02300
2960.46733,0.02289
2958.40716,0.02279
2956.34699,0.02264
2954.28682,0.02257
2952.22664,0.02258
2950.16647,0.02260
2948.10630,0.02271
2946.04613,0.02287
2943.98596,0.02282
2941.92578,0.02269
2939.86561,0.02258
2937.80544,0.02244
2935.74527,0.02239
2933.68509,0.02235
2931.62492,0.02208
2929.56475,0.02188
2927.50458,0.02195
2925.44441,0.02203
2923.38423,0.02197
2921.32406,0.02171
2919.26389,0.02135
2917.20372,0.02104
2915.14355,0.02075
2913.08337,0.02068
2911.02320,0.02085
2908.96303,0.02095
2906.90286,0.02086
2904.84268,0.02052
2902.78251,0.02010
2900.72234,0.01998
2898.66217,0.02016
2896.60200,0.02032
2894.54182,0.02029
2892.48165,0.02016
2890.42148,0.02010
2888.36131,0.02013
2886.30114,0.02014
2884.24096,0.01999
2882.18079,0.01984
2880.12062,0.01972
2878.06045,0.01957
2876.00028,0.01953
2873.94010,0.01961
2871.87993,0.01965
2869.81976,0.01952
2867.75959,0.01922
2865.69941,0.01892
2863.63924,0.01879
2861.57907,0.01887
2859.51890,0.01902
2857.45873,0.01897
2855.39855,0.01859
2853.33838,0.01821
2851.27821,0.01812
2849.21804,0.01821
2847.15787,0.01832
2845.09769,0.01836
2843.03752,0.01823
2840.97735,0.01797
2838.91718,0.01776
2836.85700,0.01764
2834.79683,0.01754
2832.73666,0.01747
2830.67649,0.01744
2828.61632,0.01725
2826.55614,0.01685
2824.49597,0.01653
2822.43580,0.01657
2820.37563,0.01681
2818.31546,0.01691
2816.25528,0.01690
2814.19511,0.01686
2812.13494,0.01669
2810.07477,0.01647
2808.01460,0.01634
2805.95442,0.01641
2803.89425,0.01650
2801.83408,0.01645
2799.77391,0.01626
2797.71373,0.01593
2795.65356,0.01565
2793.59339,0.01552
2791.53322,0.01546
2789.47305,0.01550
2787.41287,0.01556
2785.35270,0.01553
2783.29253,0.01536
2781.23236,0.01530
2779.17219,0.01543
2777.11201,0.01550
2775.05184,0.01539
2772.99167,0.01533
2770.93150,0.01540
2768.87133,0.01533
2766.81115,0.01506
2764.75098,0.01486
2762.69081,0.01498
2760.63064,0.01517
2758.57046,0.01501
2756.51029,0.01457
2754.45012,0.01418
2752.38995,0.01403
2750.32978,0.01401
2748.26960,0.01401
2746.20943,0.01410
2744.14926,0.01432
2742.08909,0.01435
2740.02892,0.01400
2737.96874,0.01363
2735.90857,0.01355
2733.84840,0.01373
2731.78823,0.01374
2729.72805,0.01343
2727.66788,0.01318
2725.60771,0.01312
2723.54754,0.01310
2721.48737,0.01320
2719.42719,0.01343
2717.36702,0.01348
2715.30685,0.01328
2713.24668,0.01290
2711.18651,0.01256
2709.12633,0.01263
2707.06616,0.01275
2705.00599,0.01246
2702.94582,0.01216
2700.88565,0.01217
2698.82547,0.01223
2696.76530,0.01213
2694.70513,0.01202
2692.64496,0.01193
2690.58478,0.01169
2688.52461,0.01143
2686.46444,0.01134
2684.40427,0.01128
2682.34410,0.01119
2680.28392,0.01118
2678.22375,0.01115
2676.16358,0.01098
2674.10341,0.01079
2672.04324,0.01053
2669.98306,0.01027
2667.92289,0.01023
2665.86272,0.01050
2663.80255,0.01080
2661.74238,0.01091
2659.68220,0.01093
2657.62203,0.01092
2655.56186,0.01082
2653.50169,0.01052
2651.44151,0.01007
2649.38134,0.00985
2647.32117,0.00979
2645.26100,0.00966
2643.20083,0.00952
2641.14065,0.00943
2639.08048,0.00945
2637.02031,0.00961
2634.96014,0.00965
2632.89997,0.00937
2630.83979,0.00917
2628.77962,0.00928
2626.71945,0.00929
2624.65928,0.00915
2622.59910,0.00916
2620.53893,0.00927
2618.47876,0.00905
2616.41859,0.00845
2614.35842,0.00800
2612.29824,0.00805
2610.23807,0.00836
2608.17790,0.00854
2606.11773,0.00862
2604.05756,0.00862
2601.99738,0.00826
2599.93721,0.00780
2597.87704,0.00770
2595.81687,0.00792
2593.75670,0.00801
2591.69652,0.00786
2589.63635,0.00777
2587.57618,0.00778
2585.51601,0.00782
2583.45583,0.00807
2581.39566,0.00831
2579.33549,0.00818
2577.27532,0.00804
2575.21515,0.00821
2573.15497,0.00847
2571.09480,0.00841
2569.03463,0.00803
2566.97446,0.00789
2564.91429,0.00786
2562.85411,0.00756
2560.79394,0.00722
2558.73377,0.00707
2556.67360,0.00734
2554.61342,0.00784
2552.55325,0.00804
2550.49308,0.00781
2548.43291,0.00749
2546.37274,0.00745
2544.31256,0.00763
2542.25239,0.00771
2540.19222,0.00766
2538.13205,0.00761
2536.07188,0.00751
2534.01170,0.00731
2531.95153,0.00729
2529.89136,0.00736
2527.83119,0.00733
2525.77102,0.00755
2523.71084,0.00780
2521.65067,0.00774
2519.59050,0.00776
2517.53033,0.00791
2515.47015,0.00803
2513.40998,0.00803
2511.34981,0.00770
2509.28964,0.00745
2507.22947,0.00761
2505.16929,0.00768
2503.10912,0.00774
2501.04895,0.00821
2498.98878,0.00850
2496.92861,0.00838
2494.86843,0.00837
2492.80826,0.00843
2490.74809,0.00831
2488.68792,0.00828
2486.62775,0.00840
2484.56757,0.00843
2482.50740,0.00836
2480.44723,0.00827
2478.38706,0.00834
2476.32688,0.00873
2474.26671,0.00902
2472.20654,0.00878
2470.14637,0.00838
2468.08620,0.00848
2466.02602,0.00891
2463.96585,0.00910
2461.90568,0.00902
2459.84551,0.00882
2457.78534,0.00857
2455.72516,0.00847
2453.66499,0.00865
2451.60482,0.00897
2449.54465,0.00921
2447.48447,0.00913
2445.42430,0.00873
2443.36413,0.00856
2441.30396,0.00865
2439.24379,0.00850
2437.18361,0.00829
2435.12344,0.00847
2433.06327,0.00888
2431.00310,0.00917
2428.94293,0.00906
2426.88275,0.00868
2424.82258,0.00828
2422.76241,0.00808
2420.70224,0.00812
2418.64207,0.00817
2416.58189,0.00830
2414.52172,0.00853
2412.46155,0.00868
2410.40138,0.00891
2408.34120,0.00895
2406.28103,0.00840
2404.22086,0.00790
2402.16069,0.00811
2400.10052,0.00860
2398.04034,0.00888
2395.98017,0.00910
2393.92000,0.00930
2391.85983,0.00933
2389.79966,0.00925
2387.73948,0.00926
2385.67931,0.00942
2383.61914,0.00957
2381.55897,0.00959
2379.49880,0.00953
2377.43862,0.00946
2375.37845,0.00928
2373.31828,0.00920
2371.25811,0.00938
2369.19793,0.00974
2367.13776,0.01064
2365.07759,0.01181
2363.01742,0.01181
2360.95725,0.01125
2358.89707,0.01020
2356.83690,0.00958
2354.77673,0.00938
2352.71656,0.00946
2350.65639,0.01076
2348.59621,0.01156
2346.53604,0.00980
2344.47587,0.00908
2342.41570,0.00981
2340.35552,0.01028
2338.29535,0.00983
2336.23518,0.00941
2334.17501,0.00929
2332.11484,0.00858
2330.05466,0.00837
2327.99449,0.00908
2325.93432,0.00942
2323.87415,0.00866
2321.81398,0.00857
2319.75380,0.00908
2317.69363,0.00915
2315.63346,0.00838
2313.57329,0.00785
2311.51312,0.00810
2309.45294,0.00866
2307.39277,0.00892
2305.33260,0.00870
2303.27243,0.00827
2301.21225,0.00800
2299.15208,0.00809
2297.09191,0.00822
2295.03174,0.00840
2292.97157,0.00879
2290.91139,0.00892
2288.85122,0.00859
2286.79105,0.00828
2284.73088,0.00830
2282.67071,0.00852
2280.61053,0.00867
2278.55036,0.00838
2276.49019,0.00762
2274.43002,0.00688
2272.36984,0.00653
2270.30967,0.00668
2268.24950,0.00708
2266.18933,0.00727
2264.12916,0.00695
2262.06898,0.00663
2260.00881,0.00695
2257.94864,0.00748
2255.88847,0.00736
2253.82830,0.00667
2251.76812,0.00631
2249.70795,0.00638
2247.64778,0.00627
2245.58761,0.00594
2243.52744,0.00549
2241.46726,0.00510
2239.40709,0.00525
2237.34692,0.00539
2235.28675,0.00467
2233.22657,0.00389
2231.16640,0.00439
2229.10623,0.00549
2227.04606,0.00582
2224.98589,0.00591
2222.92571,0.00610
2220.86554,0.00586
2218.80537,0.00586
2216.74520,0.00652
2214.68503,0.00670
2212.62485,0.00586
2210.56468,0.00517
2208.50451,0.00503
2206.44434,0.00481
2204.38417,0.00411
2202.32399,0.00350
2200.26382,0.00399
2198.20365,0.00489
2196.14348,0.00493
2194.08330,0.00461
2192.02313,0.00506
2189.96296,0.00528
2187.90279,0.00423
2185.84262,0.00363
2183.78244,0.00481
2181.72227,0.00637
2179.66210,0.00659
2177.60193,0.00556
2175.54176,0.00480
2173.48158,0.00424
2171.42141,0.00293
2169.36124,0.00254
2167.30107,0.00292
2165.24089,0.00208
2163.18072,0.00112
2161.12055,0.00082
2159.06038,0.00029
2157.00021,0.00006
2154.94003,0.00127
2152.87986,0.00287
2150.81969,0.00368
2148.75952,0.00328
2146.69935,0.00256
2144.63917,0.00297
2142.57900,0.00353
2140.51883,0.00358
2138.45866,0.00335
2136.39849,0.00243
2134.33831,0.00150
2132.27814,0.00164
2130.21797,0.00234
2128.15780,0.00286
2126.09762,0.00315
2124.03745,0.00347
2121.97728,0.00417
2119.91711,0.00479
2117.85694,0.00479
2115.79676,0.00450
2113.73659,0.00424
2111.67642,0.00416
2109.61625,0.00412
2107.55608,0.00381
2105.49590,0.00351
2103.43573,0.00342
2101.37556,0.00285
2099.31539,0.00179
2097.25521,0.00173
2095.19504,0.00309
2093.13487,0.00429
2091.07470,0.00436
2089.01453,0.00383
2086.95435,0.00321
2084.89418,0.00286
2082.83401,0.00317
2080.77384,0.00373
2078.71367,0.00411
2076.65349,0.00406
2074.59332,0.00345
2072.53315,0.00286
2070.47298,0.00293
2068.41281,0.00328
2066.35263,0.00296
2064.29246,0.00223
2062.23229,0.00203
2060.17212,0.00209
2058.11194,0.00191
2056.05177,0.00219
2053.99160,0.00321
2051.93143,0.00368
2049.87126,0.00331
2047.81108,0.00282
2045.75091,0.00216
2043.69074,0.00160
2041.63057,0.00135
2039.57040,0.00131
2037.51022,0.00189
2035.45005,0.00245
2033.38988,0.00211
2031.32971,0.00183
2029.26954,0.00217
2027.20936,0.00220
2025.14919,0.00193
2023.08902,0.00204
2021.02885,0.00193
2018.96867,0.00118
2016.90850,0.00057
2014.84833,0.00113
2012.78816,0.00253
2010.72799,0.00308
2008.66781,0.00199
2006.60764,0.00060
2004.54747,0.00028
2002.48730,0.00052
2000.42713,0.00070
1998.36695,0.00135
1996.30678,0.00279
1994.24661,0.00444
1992.18644,0.00510
1990.12626,0.00425
1988.06609,0.00353
1986.00592,0.00400
1983.94575,0.00390
1981.88558,0.00212
1979.82540,0.00073
1977.76523,0.00102
1975.70506,0.00104
1973.64489,0.00029
1971.58472,0.00054
1969.52454,0.00171
1967.46437,0.00210
1965.40420,0.00134
1963.34403,0.00061
1961.28386,0.00037
1959.22368,0.00000
1957.16351,0.00012
1955.10334,0.00082
1953.04317,0.00102
1950.98299,0.00110
1948.92282,0.00114
1946.86265,0.00084
1944.80248,0.00071
1942.74231,0.00088
1940.68213,0.00081
1938.62196,0.00050
1936.56179,0.00088
1934.50162,0.00209
1932.44145,0.00255
1930.38127,0.00163
1928.32110,0.00093
1926.26093,0.00139
1924.20076,0.00214
1922.14059,0.00252
1920.08041,0.00271
1918.02024,0.00298
1915.96007,0.00314
1913.89990,0.00288
1911.83972,0.00251
1909.77955,0.00236
1907.71938,0.00231
1905.65921,0.00231
1903.59904,0.00224
1901.53886,0.00189
1899.47869,0.00158
1897.41852,0.00145
1895.35835,0.00128
1893.29818,0.00125
1891.23800,0.00136
1889.17783,0.00147
1887.11766,0.00172
1885.05749,0.00189
1882.99731,0.00173
1880.93714,0.00159
1878.87697,0.00178
1876.81680,0.00210
1874.75663,0.00238
1872.69645,0.00257
1870.63628,0.00272
1868.57611,0.00290
1866.51594,0.00284
1864.45577,0.00233
1862.39559,0.00182
1860.33542,0.00178
1858.27525,0.00211
1856.21508,0.00256
1854.15491,0.00311
1852.09473,0.00347
1850.03456,0.00342
1847.97439,0.00312
1845.91422,0.00276
1843.85404,0.00245
1841.79387,0.00238
1839.73370,0.00257
1837.67353,0.00285
1835.61336,0.00294
1833.55318,0.00283
1831.49301,0.00269
1829.43284,0.00262
1827.37267,0.00273
1825.31250,0.00305
1823.25232,0.00331
1821.19215,0.00326
1819.13198,0.00303
1817.07181,0.00291
1815.01163,0.00301
1812.95146,0.00318
1810.89129,0.00328
1808.83112,0.00332
1806.77095,0.00331
1804.71077,0.00320
1802.65060,0.00310
1800.59043,0.00318
1798.53026,0.00343
1796.47009,0.00363
1794.40991,0.00380
1792.34974,0.00397
1790.28957,0.00401
1788.22940,0.00390
1786.16923,0.00371
1784.10905,0.00349
1782.04888,0.00337
1779.98871,0.00340
1777.92854,0.00346
1775.86836,0.00355
1773.80819,0.00381
1771.74802,0.00411
1769.68785,0.00414
1767.62768,0.00412
1765.56750,0.00416
1763.50733,0.00415
1761.44716,0.00405
1759.38699,0.00397
1757.32682,0.00395
1755.26664,0.00393
1753.20647,0.00402
1751.14630,0.00438
1749.08613,0.00474
1747.02596,0.00472
1744.96578,0.00455
1742.90561,0.00453
1740.84544,0.00463
1738.78527,0.00490
1736.72509,0.00531
1734.66492,0.00555
1732.60475,0.00552
1730.54458,0.00544
1728.48441,0.00536
1726.42423,0.00531
1724.36406,0.00553
1722.30389,0.00602
1720.24372,0.00645
1718.18355,0.00664
1716.12337,0.00660
1714.06320,0.00650
1712.00303,0.00656
1709.94286,0.00685
1707.88268,0.00729
1705.82251,0.00773
1703.76234,0.00806
1701.70217,0.00833
1699.64200,0.00854
1697.58182,0.00864
1695.52165,0.00870
1693.46148,0.00887
1691.40131,0.00922
1689.34114,0.00965
1687.28096,0.01000
1685.22079,0.01023
1683.16062,0.01044
1681.10045,0.01077
1679.04028,0.01115
1676.98010,0.01148
1674.91993,0.01175
1672.85976,0.01203
1670.79959,0.01233
1668.73941,0.01248
1666.67924,0.01242
1664.61907,0.01243
1662.55890,0.01255
1660.49873,0.01271
1658.43855,0.01297
1656.37838,0.01329
1654.31821,0.01344
1652.25804,0.01326
1650.19787,0.01319
1648.13769,0.01337
1646.07752,0.01346
1644.01735,0.01334
1641.95718,0.01321
1639.89701,0.01320
1637.83683,0.01326
1635.77666,0.01305
1633.71649,0.01251
1631.65632,0.01214
1629.59614,0.01199
1627.53597,0.01187
1625.47580,0.01173
1623.41563,0.01148
1621.35546,0.01109
1619.29528,0.01077
1617.23511,0.01045
1615.17494,0.01010
1613.11477,0.00989
1611.05460,0.00982
1608.99442,0.00978
1606.93425,0.00959
1604.87408,0.00923
1602.81391,0.00891
1600.75373,0.00867
1598.69356,0.00831
1596.63339,0.00789
1594.57322,0.00762
1592.51305,0.00749
1590.45287,0.00725
1588.39270,0.00695
1586.33253,0.00682
1584.27236,0.00677
1582.21219,0.00661
1580.15201,0.00638
1578.09184,0.00620
1576.03167,0.00592
1573.97150,0.00564
1571.91133,0.00556
1569.85115,0.00554
1567.79098,0.00541
1565.73081,0.00514
1563.67064,0.00481
1561.61046,0.00455
1559.55029,0.00439
1557.49012,0.00425
1555.42995,0.00418
1553.36978,0.00407
1551.30960,0.00391
1549.24943,0.00380
1547.18926,0.00386
1545.12909,0.00418
1543.06892,0.00451
1541.00874,0.00435
1538.94857,0.00369
1536.88840,0.00318
1534.82823,0.00308
1532.76805,0.00318
1530.70788,0.00319
1528.64771,0.00317
1526.58754,0.00318
1524.52737,0.00322
1522.46719,0.00316
1520.40702,0.00298
1518.34685,0.00291
1516.28668,0.00297
1514.22651,0.00299
1512.16633,0.00296
1510.10616,0.00292
1508.04599,0.00264
1505.98582,0.00205
1503.92565,0.00171
1501.86547,0.00169
1499.80530,0.00174
1497.74513,0.00180
1495.68496,0.00183
1493.62478,0.00182
1491.56461,0.00183
1489.50444,0.00197
1487.44427,0.00210
1485.38410,0.00200
1483.32392,0.00174
1481.26375,0.00155
1479.20358,0.00161
1477.14341,0.00186
1475.08324,0.00209
1473.02306,0.00213
1470.96289,0.00201
1468.90272,0.00199
1466.84255,0.00218
1464.78238,0.00234
1462.72220,0.00231
1460.66203,0.00239
1458.60186,0.00258
1456.54169,0.00240
1454.48151,0.00192
1452.42134,0.00166
1450.36117,0.00164
1448.30100,0.00169
1446.24083,0.00172
1444.18065,0.00174
1442.12048,0.00174
1440.06031,0.00176
1438.00014,0.00185
1435.93997,0.00202
1433.87979,0.00210
1431.81962,0.00197
1429.75945,0.00170
1427.69928,0.00154
1425.63910,0.00162
1423.57893,0.00178
1421.51876,0.00196
1419.45859,0.00210
1417.39842,0.00201
1415.33824,0.00181
1413.27807,0.00176
1411.21790,0.00179
1409.15773,0.00176
1407.09756,0.00165
1405.03738,0.00153
1402.97721,0.00152
1400.91704,0.00164
1398.85687,0.00176
1396.79670,0.00168
1394.73652,0.00135
1392.67635,0.00104
1390.61618,0.00107
1388.55601,0.00135
1386.49583,0.00153
1384.43566,0.00139
1382.37549,0.00116
1380.31532,0.00108
1378.25515,0.00116
1376.19497,0.00128
1374.13480,0.00141
1372.07463,0.00156
1370.01446,0.00165
1367.95429,0.00156
1365.89411,0.00146
1363.83394,0.00151
1361.77377,0.00153
1359.71360,0.00136
1357.65343,0.00107
1355.59325,0.00088
1353.53308,0.00087
1351.47291,0.00092
1349.41274,0.00088
1347.35256,0.00077
1345.29239,0.00071
1343.23222,0.00078
1341.17205,0.00085
1339.11188,0.00074
1337.05170,0.00064
1334.99153,0.00071
1332.93136,0.00081
1330.87119,0.00092
1328.81102,0.00107
1326.75084,0.00119
1324.69067,0.00126
1322.63050,0.00130
1320.57033,0.00126
1318.51015,0.00116
1316.44998,0.00104
1314.38981,0.00102
1312.32964,0.00107
1310.26947,0.00110
1308.20929,0.00109
1306.14912,0.00116
1304.08895,0.00120
1302.02878,0.00120
1299.96861,0.00128
1297.90843,0.00144
1295.84826,0.00165
1293.78809,0.00186
1291.72792,0.00192
1289.66775,0.00187
1287.60757,0.00184
1285.54740,0.00183
1283.48723,0.00189
1281.42706,0.00196
1279.36688,0.00188
1277.30671,0.00177
1275.24654,0.00187
1273.18637,0.00204
1271.12620,0.00206
1269.06602,0.00202
1267.00585,0.00206
1264.94568,0.00213
1262.88551,0.00215
1260.82534,0.00213
1258.76516,0.00218
1256.70499,0.00234
1254.64482,0.00238
1252.58465,0.00220
1250.52447,0.00201
1248.46430,0.00193
1246.40413,0.00189
1244.34396,0.00178
1242.28379,0.00163
1240.22361,0.00158
1238.16344,0.00155
1236.10327,0.00151
1234.04310,0.00145
1231.98293,0.00121
1229.92275,0.00084
1227.86258,0.00068
1225.80241,0.00075
1223.74224,0.00070
1221.68207,0.00052
1219.62189,0.00041
1217.56172,0.00040
1215.50155,0.00039
1213.44138,0.00028
1211.38120,0.00009
1209.32103,0.00000
1207.26086,0.00005
1205.20069,0.00012
1203.14052,0.00015
1201.08034,0.00020
1199.02017,0.00029
1196.96000,0.00045
1194.89983,0.00086
1192.83966,0.00130
1190.77948,0.00147
1188.71931,0.00146
1186.65914,0.00138
1184.59897,0.00139
1182.53880,0.00173
1180.47862,0.00237
1178.41845,0.00308
1176.35828,0.00379
1174.29811,0.00448
1172.23793,0.00503
1170.17776,0.00552
1168.11759,0.00607
1166.05742,0.00675
1163.99725,0.00755
1161.93707,0.00827
1159.87690,0.00873
1157.81673,0.00910
1155.75656,0.00967
1153.69639,0.01037
1151.63621,0.01104
1149.57604,0.01168
1147.51587,0.01233
1145.45570,0.01306
1143.39552,0.01388
1141.33535,0.01460
1139.27518,0.01506
1137.21501,0.01560
1135.15484,0.01662
1133.09466,0.01777
1131.03449,0.01870
1128.97432,0.01959
1126.91415,0.02050
1124.85398,0.02137
1122.79380,0.02233
1120.73363,0.02345
1118.67346,0.02452
1116.61329,0.02533
1114.55312,0.02622
1112.49294,0.02735
1110.43277,0.02848
1108.37260,0.02946
1106.31243,0.03042
1104.25225,0.03152
1102.19208,0.03270
1100.13191,0.03364
1098.07174,0.03439
1096.01157,0.03526
1093.95139,0.03629
1091.89122,0.03723
1089.83105,0.03789
1087.77088,0.03847
1085.71071,0.03917
1083.65053,0.03994
1081.59036,0.04065
1079.53019,0.04131
1077.47002,0.04191
1075.40985,0.04228
1073.34967,0.04245
1071.28950,0.04263
1069.22933,0.04290
1067.16916,0.04319
1065.10898,0.04331
1063.04881,0.04301
1060.98864,0.04247
1058.92847,0.04205
1056.86830,0.04153
1054.80812,0.04077
1052.74795,0.04012
1050.68778,0.03945
1048.62761,0.03835
1046.56744,0.03697
1044.50726,0.03567
1042.44709,0.03467
1040.38692,0.03375
1038.32675,0.03262
1036.26657,0.03133
1034.20640,0.03009
1032.14623,0.02899
1030.08606,0.02806
1028.02589,0.02724
1025.96571,0.02641
1023.90554,0.02553
1021.84537,0.02474
1019.78520,0.02413
1017.72503,0.02358
1015.66485,0.02302
1013.60468,0.02260
1011.54451,0.02243
1009.48434,0.02242
1007.42417,0.02250
1005.36399,0.02270
1003.30382,0.02313
1001.24365,0.02371
999.18348,0.02431
997.12330,0.02493
995.06313,0.02552
993.00296,0.02617
990.94279,0.02705
988.88262,0.02782
986.82244,0.02825
984.76227,0.02856
982.70210,0.02875
980.64193,0.02878
978.58176,0.02857
976.52158,0.02794
974.46141,0.02708
972.40124,0.02616
970.34107,0.02519
968.28089,0.02423
966.22072,0.02314
964.16055,0.02189
962.10038,0.02058
960.04021,0.01935
957.98003,0.01858
955.91986,0.01833
953.85969,0.01801
951.79952,0.01727
949.73935,0.01634
947.67917,0.01551
945.61900,0.01495
943.55883,0.01475
941.49866,0.01481
939.43849,0.01494
937.37831,0.01476
935.31814,0.01428
933.25797,0.01394
931.19780,0.01379
929.13762,0.01372
927.07745,0.01371
925.01728,0.01365
922.95711,0.01333
920.89694,0.01283
918.83676,0.01258
916.77659,0.01262
914.71642,0.01258
912.65625,0.01226
910.59608,0.01171
908.53590,0.01130
906.47573,0.01120
904.41556,0.01100
902.35539,0.01048
900.29522,0.01022
898.23504,0.01049
896.17487,0.01077
894.11470,0.01087
892.05453,0.01103
889.99435,0.01122
887.93418,0.01143
885.87401,0.01183
883.81384,0.01230
881.75367,0.01271
879.69349,0.01305
877.63332,0.01333
875.57315,0.01362
873.51298,0.01383
871.45281,0.01389
869.39263,0.01404
867.33246,0.01433
865.27229,0.01447
863.21212,0.01439
861.15194,0.01437
859.09177,0.01445
857.03160,0.01451
854.97143,0.01453
852.91126,0.01437
850.85108,0.01388
848.79091,0.01343
846.73074,0.01338
844.67057,0.01328
842.61040,0.01247
840.55022,0.01134
838.49005,0.01058
836.42988,0.01015
834.36971,0.00981
832.30954,0.00947
830.24936,0.00907
828.18919,0.00866
826.12902,0.00835
824.06885,0.00818
822.00867,0.00806
819.94850,0.00786
817.88833,0.00732
815.82816,0.00654
813.76799,0.00615
811.70781,0.00609
809.64764,0.00582
807.58747,0.00545
805.52730,0.00511
803.46713,0.00474
801.40695,0.00425
799.34678,0.00363
797.28661,0.00321
795.22644,0.00345
793.16627,0.00403
791.10609,0.00406
789.04592,0.00372
786.98575,0.00362
784.92558,0.00319
782.86540,0.00252
780.80523,0.00279
778.74506,0.00354
776.68489,0.00346
774.62472,0.00308
772.56454,0.00326
770.50437,0.00351
768.44420,0.00331
766.38403,0.00272
764.32386,0.00214
762.26368,0.00186
760.20351,0.00167
758.14334,0.00131
756.08317,0.00082
754.02299,0.00047
751.96282,0.00067
749.90265,0.00148
747.84248,0.00181
745.78231,0.00145
743.72213,0.00144
741.66196,0.00185
739.60179,0.00234
737.54162,0.00273
735.48145,0.00257
733.42127,0.00201
731.36110,0.00164
729.30093,0.00192
727.24076,0.00247
725.18059,0.00242
723.12041,0.00234
721.06024,0.00206
719.00007,0.00190
716.93990,0.00208
714.87972,0.00249
712.81955,0.00271
710.75938,0.00260
708.69921,0.00202
706.63904,0.00097
704.57886,0.00026
702.51869,0.00045
700.45852,0.00104
698.39835,0.00159
696.33818,0.00202
694.27800,0.00198
692.21783,0.00128
690.15766,0.00059
688.09749,0.00107
686.03731,0.00285
683.97714,0.00449
681.91697,0.00447
679.85680,0.00288
677.79663,0.00131
675.73645,0.00104
673.67628,0.00182
671.61611,0.00227
669.55594,0.00049
667.49577,0.00000
665.43559,0.00384
663.37542,0.00377
661.31525,0.00305
659.25508,0.00283
657.19491,0.00224
655.13473,0.00143
653.07456,0.00133
651.01439,0.00224
648.95422,0.00351
646.89404,0.00434
644.83387,0.00399
642.77370,0.00289
640.71353,0.00214
638.65336,0.00218
636.59318,0.00236
634.53301,0.00263
632.47284,0.00325
630.41267,0.00376
628.35250,0.00401
626.29232,0.00375
624.23215,0.00220
622.17198,0.00096
620.11181,0.00110
618.05164,0.00220
615.99146,0.00290
613.93129,0.00283
611.87112,0.00286
609.81095,0.00220
607.75077,0.00095
605.69060,0.00103
603.63043,0.00254
601.57026,0.00245
599.51009,0.00000
