3996.73391,0.00009
3994.67373,0.00009
3992.61356,0.00009
3990.55339,0.00012
3988.49322,0.00007
3986.43305,0.00011
3984.37287,0.00035
3982.31270,0.00060
3980.25253,0.00079
3978.19236,0.00090
3976.13219,0.00070
3974.07201,0.00025
3972.01184,-0.00004
3969.95167,-0.00002
3967.89150,0.00011
3965.83133,0.00037
3963.77115,0.00077
3961.71098,0.00102
3959.65081,0.00108
3957.59064,0.00135
3955.53046,0.00177
3953.47029,0.00179
3951.41012,0.00125
3949.34995,0.00046
3947.28978,0.00000
3945.22960,0.00022
3943.16943,0.00059
3941.10926,0.00045
3939.04909,0.00026
3936.98892,0.00055
3934.92874,0.00092
3932.86857,0.00085
3930.80840,0.00038
3928.74823,0.00000
3926.68805,0.00006
3924.62788,0.00052
3922.56771,0.00092
3920.50754,0.00108
3918.44737,0.00121
3916.38719,0.00128
3914.32702,0.00110
3912.26685,0.00094
3910.20668,0.00098
3908.14651,0.00100
3906.08633,0.00078
3904.02616,0.00048
3901.96599,0.00051
3899.90582,0.00090
3897.84565,0.00105
3895.78547,0.00080
3893.72530,0.00048
3891.66513,0.00037
3889.60496,0.00062
3887.54478,0.00090
3885.48461,0.00075
3883.42444,0.00027
3881.36427,0.00000
3879.30410,0.00010
3877.24392,0.00041
3875.18375,0.00086
3873.12358,0.00133
3871.06341,0.00139
3869.00324,0.00106
3866.94306,0.00109
3864.88289,0.00163
3862.82272,0.00189
3860.76255,0.00147
3858.70237,0.00094
3856.64220,0.00085
3854.58203,0.00104
3852.52186,0.00100
3850.46169,0.00080
3848.40151,0.00067
3846.34134,0.00059
3844.28117,0.00055
3842.22100,0.00068
3840.16083,0.00099
3838.10065,0.00116
3836.04048,0.00102
3833.98031,0.00086
3831.92014,0.00093
3829.85997,0.00123
3827.79979,0.00157
3825.73962,0.00171
3823.67945,0.00146
3821.61928,0.00079
3819.55910,0.00010
3817.49893,0.00009
3815.43876,0.00073
3813.37859,0.00110
3811.31842,0.00079
3809.25824,0.00035
3807.19807,0.00047
3805.13790,0.00097
3803.07773,0.00110
3801.01756,0.00088
3798.95738,0.00107
3796.89721,0.00144
3794.83704,0.00126
3792.77687,0.00083
3790.71670,0.00066
3788.65652,0.00077
3786.59635,0.00087
3784.53618,0.00065
3782.47601,0.00024
3780.41583,0.00008
3778.35566,0.00026
3776.29549,0.00054
3774.23532,0.00086
3772.17515,0.00120
3770.11497,0.00133
3768.05480,0.00124
3765.99463,0.00111
3763.93446,0.00094
3761.87429,0.00083
3759.81411,0.00080
3757.75394,0.00079
3755.69377,0.00087
3753.63360,0.00105
3751.57342,0.00109
3749.51325,0.00126
3747.45308,0.00184
3745.39291,0.00191
3743.33274,0.00093
3741.27256,0.00026
3739.21239,0.00068
3737.15222,0.00141
3735.09205,0.00140
3733.03188,0.00065
3730.97170,0.00032
3728.91153,0.00078
3726.85136,0.00124
3724.79119,0.00102
3722.73102,0.00037
3720.67084,0.00006
3718.61067,0.00032
3716.55050,0.00072
3714.49033,0.00084
3712.43015,0.00070
3710.36998,0.00040
3708.30981,0.00002
3706.24964,0.00000
3704.18947,0.00040
3702.12929,0.00091
3700.06912,0.00136
3698.00895,0.00153
3695.94878,0.00140
3693.88861,0.00132
3691.82843,0.00151
3689.76826,0.00157
3687.70809,0.00105
3685.64792,0.00037
3683.58775,0.00024
3681.52757,0.00088
3679.46740,0.00210
3677.40723,0.00305
3675.34706,0.00282
3673.28688,0.00205
3671.22671,0.00199
3669.16654,0.00248
3667.10637,0.00285
3665.04620,0.00299
3662.98602,0.00304
3660.92585,0.00309
3658.86568,0.00317
3656.80551,0.00332
3654.74534,0.00365
3652.68516,0.00419
3650.62499,0.00453
3648.56482,0.00422
3646.50465,0.00387
3644.44447,0.00402
3642.38430,0.00453
3640.32413,0.00522
3638.26396,0.00597
3636.20379,0.00670
3634.14361,0.00728
3632.08344,0.00754
3630.02327,0.00744
3627.96310,0.00728
3625.90293,0.00750
3623.84275,0.00801
3621.78258,0.00856
3619.72241,0.00905
3617.66224,0.00936
3615.60207,0.00957
3613.54189,0.00977
3611.48172,0.01001
3609.42155,0.01054
3607.36138,0.01120
3605.30120,0.01145
3603.24103,0.01151
3601.18086,0.01197
3599.12069,0.01275
3597.06052,0.01366
3595.00034,0.01472
3592.94017,0.01537
3590.88000,0.01528
3588.81983,0.01503
3586.75966,0.01510
3584.69948,0.01532
3582.63931,0.01557
3580.57914,0.01583
3578.51897,0.01601
3576.45879,0.01645
3574.39862,0.01743
3572.33845,0.01853
3570.27828,0.01906
3568.21811,0.01891
3566.15793,0.01869
3564.09776,0.01912
3562.03759,0.01982
3559.97742,0.02008
3557.91725,0.02002
3555.85707,0.02008
3553.79690,0.02030
3551.73673,0.02066
3549.67656,0.02117
3547.61639,0.02192
3545.55621,0.02278
3543.49604,0.02336
3541.43587,0.02371
3539.37570,0.02410
3537.31552,0.02424
3535.25535,0.02415
3533.19518,0.02440
3531.13501,0.02512
3529.07484,0.02588
3527.01466,0.02644
3524.95449,0.02677
3522.89432,0.02694
3520.83415,0.02719
3518.77398,0.02755
3516.71380,0.02784
3514.65363,0.02811
3512.59346,0.02833
3510.53329,0.02846
3508.47312,0.02876
3506.41294,0.02932
3504.35277,0.02969
3502.29260,0.02971
3500.23243,0.03002
3498.17225,0.03078
3496.11208,0.03134
3494.05191,0.03155
3491.99174,0.03192
3489.93157,0.03258
3487.87139,0.03296
3485.81122,0.03279
3483.75105,0.03245
3481.69088,0.03247
3479.63071,0.03299
3477.57053,0.03372
3475.51036,0.03442
3473.45019,0.03486
3471.39002,0.03498
3469.32984,0.03509
3467.26967,0.03537
3465.20950,0.03566
3463.14933,0.03574
3461.08916,0.03578
3459.02898,0.03619
3456.96881,0.03693
3454.90864,0.03762
3452.84847,0.03798
3450.78830,0.03801
3448.72812,0.03787
3446.66795,0.03774
3444.60778,0.03782
3442.54761,0.03822
3440.48744,0.03886
3438.42726,0.03937
3436.36709,0.03962
3434.30692,0.04003
3432.24675,0.04068
3430.18657,0.04090
3428.12640,0.04057
3426.06623,0.04039
3424.00606,0.04064
3421.94589,0.04105
3419.88571,0.04149
3417.82554,0.04196
3415.76537,0.04230
3413.70520,0.04210
3411.64503,0.04171
3409.58485,0.04178
3407.52468,0.04202
3405.46451,0.04222
3403.40434,0.04251
3401.34416,0.04278
3399.28399,0.04296
3397.22382,0.04301
3395.16365,0.04313
3393.10348,0.04328
3391.04330,0.04337
3388.98313,0.04371
3386.92296,0.04434
3384.86279,0.04477
3382.80262,0.04474
3380.74244,0.04452
3378.68227,0.04431
3376.62210,0.04422
3374.56193,0.04443
3372.50176,0.04484
3370.44158,0.04537
3368.38141,0.04582
3366.32124,0.04592
3364.26107,0.04579
3362.20089,0.04568
3360.14072,0.04578
3358.08055,0.04606
3356.02038,0.04643
3353.96021,0.04664
3351.90003,0.04638
3349.83986,0.04593
3347.77969,0.04584
3345.71952,0.04611
3343.65935,0.04627
3341.59917,0.04623
3339.53900,0.04630
3337.47883,0.04634
3335.41866,0.04623
3333.35849,0.04634
3331.29831,0.04673
3329.23814,0.04702
3327.17797,0.04716
3325.11780,0.04731
3323.05762,0.04758
3320.99745,0.04776
3318.93728,0.04758
3316.87711,0.04741
3314.81694,0.04756
3312.75676,0.04756
3310.69659,0.04730
3308.63642,0.04733
3306.57625,0.04753
3304.51608,0.04741
3302.45590,0.04719
3300.39573,0.04720
3298.33556,0.04740
3296.27539,0.04765
3294.21521,0.04776
3292.15504,0.04772
3290.09487,0.04771
3288.03470,0.04784
3285.97453,0.04802
3283.91435,0.04797
3281.85418,0.04773
3279.79401,0.04784
3277.73384,0.04816
3275.67367,0.04803
3273.61349,0.04782
3271.55332,0.04821
3269.49315,0.04875
3267.43298,0.04898
3265.37281,0.04890
3263.31263,0.04859
3261.25246,0.04834
3259.19229,0.04836
3257.13212,0.04846
3255.07194,0.04839
3253.01177,0.04816
3250.95160,0.04813
3248.89143,0.04841
3246.83126,0.04870
3244.77108,0.04868
3242.71091,0.04849
3240.65074,0.04850
3238.59057,0.04874
3236.53040,0.04892
3234.47022,0.04893
3232.41005,0.04879
3230.34988,0.04871
3228.28971,0.04879
3226.22954,0.04875
3224.16936,0.04856
3222.10919,0.04853
3220.04902,0.04850
3217.98885,0.04818
3215.92867,0.04787
3213.86850,0.04795
3211.80833,0.04815
3209.74816,0.04811
3207.68799,0.04803
3205.62781,0.04807
3203.56764,0.04803
3201.50747,0.04785
3199.44730,0.04777
3197.38713,0.04783
3195.32695,0.04792
3193.26678,0.04783
3191.20661,0.04753
3189.14644,0.04726
3187.08626,0.04714
3185.02609,0.04711
3182.96592,0.04698
3180.90575,0.04683
3178.84558,0.04681
3176.78540,0.04680
3174.72523,0.04683
3172.66506,0.04680
3170.60489,0.04659
3168.54472,0.04640
3166.48454,0.04627
3164.42437,0.04635
3162.36420,0.04669
3160.30403,0.04663
3158.24386,0.04600
3156.18368,0.04561
3154.12351,0.04565
3152.06334,0.04567
3150.00317,0.04543
3147.94299,0.04514
3145.88282,0.04494
3143.82265,0.04467
3141.76248,0.04444
3139.70231,0.04439
3137.64213,0.04434
3135.58196,0.04422
3133.52179,0.04408
3131.46162,0.04400
3129.40145,0.04400
3127.34127,0.04381
3125.28110,0.04338
3123.22093,0.04301
3121.16076,0.04282
3119.10058,0.04268
3117.04041,0.04259
3114.98024,0.04256
3112.92007,0.04241
3110.85990,0.04207
3108.79972,0.04177
3106.73955,0.04167
3104.67938,0.04163
3102.61921,0.04158
3100.55904,0.04156
3098.49886,0.04144
3096.43869,0.04105
3094.37852,0.04050
3092.31835,0.04007
3090.25818,0.03983
3088.19800,0.03964
3086.13783,0.03936
3084.07766,0.03894
3082.01749,0.03860
3079.95731,0.03861
3077.89714,0.03888
3075.83697,0.03903
3073.77680,0.03887
3071.71663,0.03862
3069.65645,0.03841
3067.59628,0.03813
3065.53611,0.03792
3063.47594,0.03791
3061.41577,0.03797
3059.35559,0.03788
3057.29542,0.03753
3055.23525,0.03710
3053.17508,0.03676
3051.11491,0.03655
3049.05473,0.03648
3046.99456,0.03636
3044.93439,0.03614
3042.87422,0.03605
3040.81404,0.03583
3038.75387,0.03538
3036.69370,0.03496
3034.63353,0.03461
3032.57336,0.03432
3030.51318,0.03416
3028.45301,0.03407
3026.39284,0.03393
3024.33267,0.03378
3022.27250,0.03370
3020.21232,0.03354
3018.15215,0.03324
3016.09198,0.03299
3014.03181,0.03285
3011.97163,0.03281
3009.91146,0.03271
3007.85129,0.03239
3005.79112,0.03199
3003.73095,0.03170
3001.67077,0.03150
2999.61060,0.03140
2997.55043,0.03133
2995.49026,0.03118
2993.43009,0.03110
2991.36991,0.03107
2989.30974,0.03078
2987.24957,0.03045
2985.18940,0.03025
2983.12923,0.02991
2981.06905,0.02975
2979.00888,0.02990
2976.94871,0.02982
2974.88854,0.02945
2972.82836,0.02926
2970.76819,0.02939
2968.70802,0.02953
2966.64785,0.02952
2964.58768,0.02951
2962.52750,0.02932
2960.46733,0.02892
2958.40716,0.02868
2956.34699,0.02860
2954.28682,0.02843
2952.22664,0.02823
2950.16647,0.02829
2948.10630,0.02862
2946.04613,0.02886
2943.98596,0.02878
2941.92578,0.02860
2939.86561,0.02853
2937.80544,0.02844
2935.74527,0.02830
2933.68509,0.02822
2931.62492,0.02820
2929.56475,0.02825
2927.50458,0.02827
2925.44441,0.02807
2923.38423,0.02772
2921.32406,0.02746
2919.26389,0.02737
2917.20372,0.02730
2915.14355,0.02704
2913.08337,0.02665
2911.02320,0.02642
2908.96303,0.02642
2906.90286,0.02641
2904.84268,0.02623
2902.78251,0.02594
2900.72234,0.02583
2898.66217,0.02591
2896.60200,0.02588
2894.54182,0.02571
2892.48165,0.02557
2890.42148,0.02557
2888.36131,0.02567
2886.30114,0.02563
2884.24096,0.02545
2882.18079,0.02529
2880.12062,0.02523
2878.06045,0.02528
2876.00028,0.02525
2873.94010,0.02510
2871.87993,0.02495
2869.81976,0.02482
2867.75959,0.02461
2865.69941,0.02441
2863.63924,0.02426
2861.57907,0.02414
2859.51890,0.02410
2857.45873,0.02398
2855.39855,0.02373
2853.33838,0.02368
2851.27821,0.02379
2849.21804,0.02368
2847.15787,0.02340
2845.09769,0.02308
2843.03752,0.02276
2840.97735,0.02261
2838.91718,0.02245
2836.85700,0.02215
2834.79683,0.02206
2832.73666,0.02211
2830.67649,0.02208
2828.61632,0.02206
2826.55614,0.02186
2824.49597,0.02143
2822.43580,0.02122
2820.37563,0.02124
2818.31546,0.02118
2816.25528,0.02110
2814.19511,0.02097
2812.13494,0.02066
2810.07477,0.02030
2808.01460,0.02014
2805.95442,0.02030
2803.89425,0.02052
2801.83408,0.02061
2799.77391,0.02061
2797.71373,0.02047
2795.65356,0.02031
2793.59339,0.02017
2791.53322,0.02000
2789.47305,0.01980
2787.41287,0.01967
2785.35270,0.01967
2783.29253,0.01959
2781.23236,0.01948
2779.17219,0.01957
2777.11201,0.01969
2775.05184,0.01968
2772.99167,0.01959
2770.93150,0.01940
2768.87133,0.01906
2766.81115,0.01873
2764.75098,0.01860
2762.69081,0.01870
2760.63064,0.01872
2758.57046,0.01837
2756.51029,0.01795
2754.45012,0.01786
2752.38995,0.01798
2750.32978,0.01802
2748.26960,0.01792
2746.20943,0.01775
2744.14926,0.01753
2742.08909,0.01724
2740.02892,0.01700
2737.96874,0.01700
2735.90857,0.01720
2733.84840,0.01744
2731.78823,0.01740
2729.72805,0.01704
2727.66788,0.01680
2725.60771,0.01678
2723.54754,0.01672
2721.48737,0.01662
2719.42719,0.01656
2717.36702,0.01646
2715.30685,0.01629
2713.24668,0.01599
2711.18651,0.01572
2709.12633,0.01588
2707.06616,0.01613
2705.00599,0.01596
2702.94582,0.01564
2700.88565,0.01551
2698.82547,0.01546
2696.76530,0.01541
2694.70513,0.01540
2692.64496,0.01532
2690.58478,0.01506
2688.52461,0.01481
2686.46444,0.01463
2684.40427,0.01440
2682.34410,0.01430
2680.28392,0.01437
2678.22375,0.01421
2676.16358,0.01382
2674.10341,0.01354
2672.04324,0.01340
2669.98306,0.01336
2667.92289,0.01353
2665.86272,0.01379
2663.80255,0.01398
2661.74238,0.01394
2659.68220,0.01373
2657.62203,0.01352
2655.56186,0.01332
2653.50169,0.01308
2651.44151,0.01288
2649.38134,0.01277
2647.32117,0.01268
2645.26100,0.01255
2643.20083,0.01238
2641.14065,0.01229
2639.08048,0.01228
2637.02031,0.01231
2634.96014,0.01227
2632.89997,0.01199
2630.83979,0.01182
2628.77962,0.01199
2626.71945,0.01204
2624.65928,0.01184
2622.59910,0.01164
2620.53893,0.01154
2618.47876,0.01151
2616.41859,0.01142
2614.35842,0.01120
2612.29824,0.01094
2610.23807,0.01082
2608.17790,0.01096
2606.11773,0.01127
2604.05756,0.01123
2601.99738,0.01065
2599.93721,0.01029
2597.87704,0.01054
2595.81687,0.01073
2593.75670,0.01037
2591.69652,0.00985
2589.63635,0.00985
2587.57618,0.01029
2585.51601,0.01054
2583.45583,0.01058
2581.39566,0.01049
2579.33549,0.01010
2577.27532,0.00984
2575.21515,0.01003
2573.15497,0.01012
2571.09480,0.00977
2569.03463,0.00935
2566.97446,0.00935
2564.91429,0.00948
2562.85411,0.00935
2560.79394,0.00928
2558.73377,0.00955
2556.67360,0.00998
2554.61342,0.01016
2552.55325,0.01013
2550.49308,0.01000
2548.43291,0.00962
2546.37274,0.00924
2544.31256,0.00921
2542.25239,0.00948
2540.19222,0.00988
2538.13205,0.01025
2536.07188,0.01042
2534.01170,0.01024
2531.95153,0.00989
2529.89136,0.00965
2527.83119,0.00953
2525.77102,0.00964
2523.71084,0.00984
2521.65067,0.00984
2519.59050,0.00970
2517.53033,0.00945
2515.47015,0.00938
2513.40998,0.00969
2511.34981,0.00997
2509.28964,0.01001
2507.22947,0.01013
2505.16929,0.01033
2503.10912,0.01037
2501.04895,0.01028
2498.98878,0.01024
2496.92861,0.01047
2494.86843,0.01069
2492.80826,0.01051
2490.74809,0.01032
2488.68792,0.01043
2486.62775,0.01067
2484.56757,0.01078
2482.50740,0.01052
2480.44723,0.01002
2478.38706,0.00984
2476.32688,0.01027
2474.26671,0.01090
2472.20654,0.01125
2470.14637,0.01107
2468.08620,0.01075
2466.02602,0.01086
2463.96585,0.01107
2461.90568,0.01104
2459.84551,0.01101
2457.78534,0.01106
2455.72516,0.01122
2453.66499,0.01148
2451.60482,0.01158
2449.54465,0.01151
2447.48447,0.01113
2445.42430,0.01050
2443.36413,0.01047
2441.30396,0.01097
2439.24379,0.01096
2437.18361,0.01055
2435.12344,0.01067
2433.06327,0.01126
2431.00310,0.01166
2428.94293,0.01149
2426.88275,0.01096
2424.82258,0.01049
2422.76241,0.01047
2420.70224,0.01091
2418.64207,0.01126
2416.58189,0.01133
2414.52172,0.01134
2412.46155,0.01133
2410.40138,0.01123
2408.34120,0.01084
2406.28103,0.01035
2404.22086,0.01028
2402.16069,0.01064
2400.10052,0.01093
2398.04034,0.01086
2395.98017,0.01090
2393.92000,0.01116
2391.85983,0.01133
2389.79966,0.01130
2387.73948,0.01129
2385.67931,0.01133
2383.61914,0.01123
2381.55897,0.01101
2379.49880,0.01081
2377.43862,0.01078
2375.37845,0.01120
2373.31828,0.01177
2371.25811,0.01160
2369.19793,0.01068
2367.13776,0.01022
2365.07759,0.01029
2363.01742,0.00978
2360.95725,0.00844
2358.89707,0.00727
2356.83690,0.00784
2354.77673,0.00973
2352.71656,0.01112
2350.65639,0.01180
2348.59621,0.01209
2346.53604,0.01180
2344.47587,0.01109
2342.41570,0.01061
2340.35552,0.01032
2338.29535,0.01031
2336.23518,0.01109
2334.17501,0.01143
2332.11484,0.01048
2330.05466,0.00973
2327.99449,0.00989
2325.93432,0.01005
2323.87415,0.00985
2321.81398,0.00968
2319.75380,0.00979
2317.69363,0.00992
2315.63346,0.00988
2313.57329,0.00990
2311.51312,0.01015
2309.45294,0.01039
2307.39277,0.01027
2305.33260,0.01005
2303.27243,0.01000
2301.21225,0.00992
2299.15208,0.00985
2297.09191,0.00995
2295.03174,0.01001
2292.97157,0.00987
2290.91139,0.00973
2288.85122,0.00984
2286.79105,0.01022
2284.73088,0.01056
2282.67071,0.01061
2280.61053,0.01038
2278.55036,0.01004
2276.49019,0.00979
2274.43002,0.00960
2272.36984,0.00946
2270.30967,0.00955
2268.24950,0.00959
2266.18933,0.00907
2264.12916,0.00857
2262.06898,0.00890
2260.00881,0.00975
2257.94864,0.01018
2255.88847,0.00974
2253.82830,0.00860
2251.76812,0.00771
2249.70795,0.00762
2247.64778,0.00776
2245.58761,0.00796
2243.52744,0.00795
2241.46726,0.00745
2239.40709,0.00723
2237.34692,0.00724
2235.28675,0.00723
2233.22657,0.00743
2231.16640,0.00755
2229.10623,0.00729
2227.04606,0.00637
2224.98589,0.00545
2222.92571,0.00570
2220.86554,0.00650
2218.80537,0.00687
2216.74520,0.00713
2214.68503,0.00740
2212.62485,0.00735
2210.56468,0.00680
2208.50451,0.00599
2206.44434,0.00604
2204.38417,0.00648
2202.32399,0.00556
2200.26382,0.00432
2198.20365,0.00476
2196.14348,0.00638
2194.08330,0.00770
2192.02313,0.00833
2189.96296,0.00789
2187.90279,0.00618
2185.84262,0.00451
2183.78244,0.00437
2181.72227,0.00539
2179.66210,0.00623
2177.60193,0.00629
2175.54176,0.00597
2173.48158,0.00592
2171.42141,0.00553
2169.36124,0.00535
2167.30107,0.00630
2165.24089,0.00682
2163.18072,0.00613
2161.12055,0.00524
2159.06038,0.00455
2157.00021,0.00347
2154.94003,0.00251
2152.87986,0.00303
2150.81969,0.00503
2148.75952,0.00604
2146.69935,0.00479
2144.63917,0.00415
2142.57900,0.00523
2140.51883,0.00613
2138.45866,0.00576
2136.39849,0.00436
2134.33831,0.00386
2132.27814,0.00481
2130.21797,0.00544
2128.15780,0.00548
2126.09762,0.00540
2124.03745,0.00533
2121.97728,0.00561
2119.91711,0.00606
2117.85694,0.00613
2115.79676,0.00597
2113.73659,0.00572
2111.67642,0.00542
2109.61625,0.00535
2107.55608,0.00520
2105.49590,0.00495
2103.43573,0.00504
2101.37556,0.00520
2099.31539,0.00473
2097.25521,0.00436
2095.19504,0.00481
2093.13487,0.00523
2091.07470,0.00536
2089.01453,0.00546
2086.95435,0.00505
2084.89418,0.00462
2082.83401,0.00492
2080.77384,0.00528
2078.71367,0.00516
2076.65349,0.00480
2074.59332,0.00425
2072.53315,0.00349
2070.47298,0.00320
2068.41281,0.00392
2066.35263,0.00464
2064.29246,0.00460
2062.23229,0.00412
2060.17212,0.00359
2058.11194,0.00331
2056.05177,0.00331
2053.99160,0.00359
2051.93143,0.00404
2049.87126,0.00433
2047.81108,0.00424
2045.75091,0.00386
2043.69074,0.00352
2041.63057,0.00311
2039.57040,0.00266
2037.51022,0.00310
2035.45005,0.00414
2033.38988,0.00470
2031.32971,0.00486
2029.26954,0.00490
2027.20936,0.00411
2025.14919,0.00240
2023.08902,0.00122
2021.02885,0.00120
2018.96867,0.00177
2016.90850,0.00248
2014.84833,0.00296
2012.78816,0.00297
2010.72799,0.00248
2008.66781,0.00160
2006.60764,0.00056
2004.54747,0.00000
2002.48730,0.00056
2000.42713,0.00213
1998.36695,0.00364
1996.30678,0.00425
1994.24661,0.00428
1992.18644,0.00424
1990.12626,0.00464
1988.06609,0.00560
1986.00592,0.00612
1983.94575,0.00586
1981.88558,0.00542
1979.82540,0.00489
1977.76523,0.00399
1975.70506,0.00301
1973.64489,0.00236
1971.58472,0.00192
1969.52454,0.00138
1967.46437,0.00081
1965.40420,0.00058
1963.34403,0.00070
1961.28386,0.00101
1959.22368,0.00144
1957.16351,0.00178
1955.10334,0.00197
1953.04317,0.00218
1950.98299,0.00236
1948.92282,0.00215
1946.86265,0.00160
1944.80248,0.00123
1942.74231,0.00152
1940.68213,0.00232
1938.62196,0.00307
1936.56179,0.00365
1934.50162,0.00402
1932.44145,0.00363
1930.38127,0.00245
1928.32110,0.00176
1926.26093,0.00228
1924.20076,0.00314
1922.14059,0.00343
1920.08041,0.00334
1918.02024,0.00337
1915.96007,0.00342
1913.89990,0.00322
1911.83972,0.00295
1909.77955,0.00283
1907.71938,0.00280
1905.65921,0.00281
1903.59904,0.00272
1901.53886,0.00240
1899.47869,0.00216
1897.41852,0.00229
1895.35835,0.00267
1893.29818,0.00280
1891.23800,0.00230
1889.17783,0.00166
1887.11766,0.00173
1885.05749,0.00222
1882.99731,0.00241
1880.93714,0.00240
1878.87697,0.00266
1876.81680,0.00311
1874.75663,0.00342
1872.69645,0.00356
1870.63628,0.00346
1868.57611,0.00303
1866.51594,0.00247
1864.45577,0.00201
1862.39559,0.00188
1860.33542,0.00218
1858.27525,0.00267
1856.21508,0.00307
1854.15491,0.00330
1852.09473,0.00329
1850.03456,0.00312
1847.97439,0.00289
1845.91422,0.00268
1843.85404,0.00270
1841.79387,0.00296
1839.73370,0.00316
1837.67353,0.00314
1835.61336,0.00311
1833.55318,0.00325
1831.49301,0.00336
1829.43284,0.00329
1827.37267,0.00325
1825.31250,0.00334
1823.25232,0.00341
1821.19215,0.00332
1819.13198,0.00313
1817.07181,0.00307
1815.01163,0.00324
1812.95146,0.00344
1810.89129,0.00353
1808.83112,0.00360
1806.77095,0.00364
1804.71077,0.00365
1802.65060,0.00370
1800.59043,0.00384
1798.53026,0.00399
1796.47009,0.00405
1794.40991,0.00400
1792.34974,0.00375
1790.28957,0.00346
1788.22940,0.00349
1786.16923,0.00376
1784.10905,0.00396
1782.04888,0.00395
1779.98871,0.00380
1777.92854,0.00369
1775.86836,0.00369
1773.80819,0.00377
1771.74802,0.00380
1769.68785,0.00384
1767.62768,0.00412
1765.56750,0.00444
1763.50733,0.00450
1761.44716,0.00432
1759.38699,0.00421
1757.32682,0.00429
1755.26664,0.00440
1753.20647,0.00453
1751.14630,0.00474
1749.08613,0.00498
1747.02596,0.00505
1744.96578,0.00506
1742.90561,0.00520
1740.84544,0.00548
1738.78527,0.00585
1736.72509,0.00630
1734.66492,0.00657
1732.60475,0.00650
1730.54458,0.00632
1728.48441,0.00620
1726.42423,0.00620
1724.36406,0.00643
1722.30389,0.00688
1720.24372,0.00731
1718.18355,0.00748
1716.12337,0.00742
1714.06320,0.00742
1712.00303,0.00767
1709.94286,0.00813
1707.88268,0.00867
1705.82251,0.00915
1703.76234,0.00950
1701.70217,0.00963
1699.64200,0.00968
1697.58182,0.00998
1695.52165,0.01041
1693.46148,0.01083
1691.40131,0.01134
1689.34114,0.01199
1687.28096,0.01260
1685.22079,0.01287
1683.16062,0.01296
1681.10045,0.01337
1679.04028,0.01392
1676.98010,0.01431
1674.91993,0.01464
1672.85976,0.01497
1670.79959,0.01517
1668.73941,0.01528
1666.67924,0.01551
1664.61907,0.01584
1662.55890,0.01613
1660.49873,0.01639
1658.43855,0.01678
1656.37838,0.01734
1654.31821,0.01769
1652.25804,0.01736
1650.19787,0.01702
1648.13769,0.01717
1646.07752,0.01741
1644.01735,0.01749
1641.95718,0.01749
1639.89701,0.01738
1637.83683,0.01705
1635.77666,0.01651
1633.71649,0.01612
1631.65632,0.01600
1629.59614,0.01590
1627.53597,0.01562
1625.47580,0.01530
1623.41563,0.01517
1621.35546,0.01526
1619.29528,0.01532
1617.23511,0.01492
1615.17494,0.01417
1613.11477,0.01368
1611.05460,0.01350
1608.99442,0.01339
1606.93425,0.01315
1604.87408,0.01271
1602.81391,0.01228
1600.75373,0.01196
1598.69356,0.01166
1596.63339,0.01127
1594.57322,0.01089
1592.51305,0.01058
1590.45287,0.01026
1588.39270,0.00988
1586.33253,0.00949
1584.27236,0.00908
1582.21219,0.00873
1580.15201,0.00851
1578.09184,0.00829
1576.03167,0.00789
1573.97150,0.00752
1571.91133,0.00736
1569.85115,0.00709
1567.79098,0.00662
1565.73081,0.00630
1563.67064,0.00620
1561.61046,0.00615
1559.55029,0.00580
1557.49012,0.00519
1555.42995,0.00486
1553.36978,0.00473
1551.30960,0.00461
1549.24943,0.00450
1547.18926,0.00443
1545.12909,0.00438
1543.06892,0.00425
1541.00874,0.00387
1538.94857,0.00343
1536.88840,0.00334
1534.82823,0.00347
1532.76805,0.00357
1530.70788,0.00352
1528.64771,0.00336
1526.58754,0.00323
1524.52737,0.00316
1522.46719,0.00298
1520.40702,0.00270
1518.34685,0.00271
1516.28668,0.00288
1514.22651,0.00290
1512.16633,0.00284
1510.10616,0.00272
1508.04599,0.00238
1505.98582,0.00194
1503.92565,0.00180
1501.86547,0.00183
1499.80530,0.00186
1497.74513,0.00183
1495.68496,0.00170
1493.62478,0.00161
1491.56461,0.00165
1489.50444,0.00168
1487.44427,0.00168
1485.38410,0.00175
1483.32392,0.00186
1481.26375,0.00190
1479.20358,0.00190
1477.14341,0.00199
1475.08324,0.00212
1473.02306,0.00226
1470.96289,0.00242
1468.90272,0.00255
1466.84255,0.00268
1464.78238,0.00284
1462.72220,0.00301
1460.66203,0.00315
1458.60186,0.00309
1456.54169,0.00278
1454.48151,0.00265
1452.42134,0.00277
1450.36117,0.00289
1448.30100,0.00293
1446.24083,0.00288
1444.18065,0.00283
1442.12048,0.00276
1440.06031,0.00262
1438.00014,0.00247
1435.93997,0.00247
1433.87979,0.00267
1431.81962,0.00287
1429.75945,0.00291
1427.69928,0.00287
1425.63910,0.00292
1423.57893,0.00309
1421.51876,0.00322
1419.45859,0.00319
1417.39842,0.00308
1415.33824,0.00310
1413.27807,0.00317
1411.21790,0.00318
1409.15773,0.00310
1407.09756,0.00296
1405.03738,0.00284
1402.97721,0.00285
1400.91704,0.00293
1398.85687,0.00293
1396.79670,0.00270
1394.73652,0.00233
1392.67635,0.00214
1390.61618,0.00224
1388.55601,0.00240
1386.49583,0.00237
1384.43566,0.00224
1382.37549,0.00215
1380.31532,0.00217
1378.25515,0.00223
1376.19497,0.00227
1374.13480,0.00232
1372.07463,0.00252
1370.01446,0.00275
1367.95429,0.00278
1365.89411,0.00267
1363.83394,0.00257
1361.77377,0.00250
1359.71360,0.00233
1357.65343,0.00199
1355.59325,0.00171
1353.53308,0.00175
1351.47291,0.00191
1349.41274,0.00189
1347.35256,0.00171
1345.29239,0.00156
1343.23222,0.00154
1341.17205,0.00159
1339.11188,0.00151
1337.05170,0.00140
1334.99153,0.00144
1332.93136,0.00153
1330.87119,0.00163
1328.81102,0.00181
1326.75084,0.00194
1324.69067,0.00195
1322.63050,0.00194
1320.57033,0.00196
1318.51015,0.00189
1316.44998,0.00174
1314.38981,0.00165
1312.32964,0.00168
1310.26947,0.00176
1308.20929,0.00177
1306.14912,0.00172
1304.08895,0.00176
1302.02878,0.00199
1299.96861,0.00220
1297.90843,0.00218
1295.84826,0.00207
1293.78809,0.00205
1291.72792,0.00210
1289.66775,0.00219
1287.60757,0.00227
1285.54740,0.00223
1283.48723,0.00221
1281.42706,0.00232
1279.36688,0.00250
1277.30671,0.00272
1275.24654,0.00295
1273.18637,0.00316
1271.12620,0.00327
1269.06602,0.00321
1267.00585,0.00309
1264.94568,0.00308
1262.88551,0.00317
1260.82534,0.00315
1258.76516,0.00313
1256.70499,0.00332
1254.64482,0.00345
1252.58465,0.00341
1250.52447,0.00327
1248.46430,0.00306
1246.40413,0.00288
1244.34396,0.00277
1242.28379,0.00264
1240.22361,0.00253
1238.16344,0.00245
1236.10327,0.00234
1234.04310,0.00213
1231.98293,0.00180
1229.92275,0.00154
1227.86258,0.00148
1225.80241,0.00140
1223.74224,0.00113
1221.68207,0.00079
1219.62189,0.00049
1217.56172,0.00029
1215.50155,0.00023
1213.44138,0.00013
1211.38120,0.00000
1209.32103,-0.00002
1207.26086,0.00010
1205.20069,0.00018
1203.14052,0.00009
1201.08034,0.00004
1199.02017,0.00015
1196.96000,0.00034
1194.89983,0.00077
1192.83966,0.00129
1190.77948,0.00152
1188.71931,0.00147
1186.65914,0.00145
1184.59897,0.00176
1182.53880,0.00252
1180.47862,0.00347
1178.41845,0.00430
1176.35828,0.00498
1174.29811,0.00569
1172.23793,0.00644
1170.17776,0.00723
1168.11759,0.00813
1166.05742,0.00908
1163.99725,0.01005
1161.93707,0.01086
1159.87690,0.01146
1157.81673,0.01220
1155.75656,0.01316
1153.69639,0.01409
1151.63621,0.01493
1149.57604,0.01575
1147.51587,0.01652
1145.45570,0.01735
1143.39552,0.01835
1141.33535,0.01928
1139.27518,0.02000
1137.21501,0.02099
1135.15484,0.02239
1133.09466,0.02376
1131.03449,0.02492
1128.97432,0.02598
1126.91415,0.02714
1124.85398,0.02841
1122.79380,0.02968
1120.73363,0.03098
1118.67346,0.03220
1116.61329,0.03326
1114.55312,0.03449
1112.49294,0.03598
1110.43277,0.03748
1108.37260,0.03886
1106.31243,0.04007
1104.25225,0.04131
1102.19208,0.04271
1100.13191,0.04400
1098.07174,0.04506
1096.01157,0.04618
1093.95139,0.04747
1091.89122,0.04868
1089.83105,0.04968
1087.77088,0.05063
1085.71071,0.05168
1083.65053,0.05268
1081.59036,0.05354
1079.53019,0.05447
1077.47002,0.05535
1075.40985,0.05597
1073.34967,0.05647
1071.28950,0.05698
1069.22933,0.05734
1067.16916,0.05740
1065.10898,0.05740
1063.04881,0.05745
1060.98864,0.05736
1058.92847,0.05690
1056.86830,0.05603
1054.80812,0.05502
1052.74795,0.05417
1050.68778,0.05350
1048.62761,0.05269
1046.56744,0.05137
1044.50726,0.04980
1042.44709,0.04851
1040.38692,0.04735
1038.32675,0.04600
1036.26657,0.04452
1034.20640,0.04308
1032.14623,0.04176
1030.08606,0.04048
1028.02589,0.03922
1025.96571,0.03791
1023.90554,0.03656
1021.84537,0.03553
1019.78520,0.03479
1017.72503,0.03397
1015.66485,0.03314
1013.60468,0.03251
1011.54451,0.03201
1009.48434,0.03168
1007.42417,0.03149
1005.36399,0.03154
1003.30382,0.03190
1001.24365,0.03238
999.18348,0.03300
997.12330,0.03378
995.06313,0.03448
993.00296,0.03517
990.94279,0.03601
988.88262,0.03692
986.82244,0.03777
984.76227,0.03835
982.70210,0.03848
980.64193,0.03822
978.58176,0.03753
976.52158,0.03648
974.46141,0.03547
972.40124,0.03460
970.34107,0.03356
968.28089,0.03204
966.22072,0.03030
964.16055,0.02881
962.10038,0.02728
960.04021,0.02551
957.98003,0.02409
955.91986,0.02329
953.85969,0.02275
951.79952,0.02207
949.73935,0.02108
947.67917,0.02010
945.61900,0.01942
943.55883,0.01903
941.49866,0.01895
939.43849,0.01888
937.37831,0.01845
935.31814,0.01786
933.25797,0.01754
931.19780,0.01742
929.13762,0.01735
927.07745,0.01726
925.01728,0.01701
922.95711,0.01664
920.89694,0.01630
918.83676,0.01600
916.77659,0.01559
914.71642,0.01516
912.65625,0.01475
910.59608,0.01413
908.53590,0.01348
906.47573,0.01319
904.41556,0.01314
902.35539,0.01292
900.29522,0.01265
898.23504,0.01266
896.17487,0.01289
894.11470,0.01321
892.05453,0.01353
889.99435,0.01386
887.93418,0.01420
885.87401,0.01442
883.81384,0.01450
881.75367,0.01480
879.69349,0.01545
877.63332,0.01626
875.57315,0.01679
873.51298,0.01682
871.45281,0.01677
869.39263,0.01690
867.33246,0.01711
865.27229,0.01740
863.21212,0.01772
861.15194,0.01785
859.09177,0.01787
857.03160,0.01784
854.97143,0.01761
852.91126,0.01710
850.85108,0.01631
848.79091,0.01549
846.73074,0.01537
844.67057,0.01554
842.61040,0.01480
840.55022,0.01362
838.49005,0.01278
836.42988,0.01201
834.36971,0.01142
832.30954,0.01102
830.24936,0.01045
828.18919,0.00990
826.12902,0.00957
824.06885,0.00934
822.00867,0.00911
819.94850,0.00870
817.88833,0.00812
815.82816,0.00762
813.76799,0.00727
811.70781,0.00712
809.64764,0.00702
807.58747,0.00655
805.52730,0.00604
803.46713,0.00613
801.40695,0.00629
799.34678,0.00590
797.28661,0.00528
795.22644,0.00473
793.16627,0.00427
791.10609,0.00402
789.04592,0.00404
786.98575,0.00412
784.92558,0.00397
782.86540,0.00369
780.80523,0.00376
778.74506,0.00396
776.68489,0.00376
774.62472,0.00374
772.56454,0.00397
770.50437,0.00377
768.44420,0.00331
766.38403,0.00274
764.32386,0.00211
762.26368,0.00165
760.20351,0.00150
758.14334,0.00143
756.08317,0.00118
754.02299,0.00102
751.96282,0.00104
749.90265,0.00111
747.84248,0.00096
745.78231,0.00088
743.72213,0.00153
741.66196,0.00217
739.60179,0.00224
737.54162,0.00212
735.48145,0.00171
733.42127,0.00128
731.36110,0.00130
729.30093,0.00136
727.24076,0.00110
725.18059,0.00083
723.12041,0.00115
721.06024,0.00167
719.00007,0.00199
716.93990,0.00227
714.87972,0.00254
712.81955,0.00224
710.75938,0.00159
708.69921,0.00128
706.63904,0.00111
704.57886,0.00127
702.51869,0.00203
700.45852,0.00274
698.39835,0.00284
696.33818,0.00230
694.27800,0.00126
692.21783,0.00026
690.15766,0.00000
688.09749,0.00073
686.03731,0.00180
683.97714,0.00225
681.91697,0.00210
679.85680,0.00141
677.79663,0.00050
675.73645,0.00046
673.67628,0.00110
671.61611,0.00095
669.55594,0.00023
667.49577,0.00025
665.43559,0.00050
663.37542,0.00052
661.31525,0.00035
659.25508,0.00017
657.19491,-0.00008
655.13473,-0.00051
653.07456,-0.00075
651.01439,-0.00029
648.95422,0.00050
646.89404,0.00059
644.83387,0.00008
642.77370,0.00020
640.71353,0.00122
638.65336,0.00206
636.59318,0.00224
634.53301,0.00237
632.47284,0.00260
630.41267,0.00198
628.35250,0.00022
626.29232,-0.00100
624.23215,0.00025
622.17198,0.00159
620.11181,0.00116
618.05164,0.00123
615.99146,0.00262
613.93129,0.00318
611.87112,0.00215
609.81095,-0.00018
607.75077,-0.00167
605.69060,-0.00061
603.63043,0.00153
601.57026,0.00187
599.51009,0.00000
