3996.73391,0.00114
3994.67373,0.00124
3992.61356,0.00132
3990.55339,0.00106
3988.49322,0.00074
3986.43305,0.00080
3984.37287,0.00103
3982.31270,0.00112
3980.25253,0.00109
3978.19236,0.00095
3976.13219,0.00087
3974.07201,0.00098
3972.01184,0.00109
3969.95167,0.00116
3967.89150,0.00129
3965.83133,0.00142
3963.77115,0.00145
3961.71098,0.00131
3959.65081,0.00107
3957.59064,0.00099
3955.53046,0.00102
3953.47029,0.00073
3951.41012,0.00019
3949.34995,0.00000
3947.28978,0.00046
3945.22960,0.00096
3943.16943,0.00087
3941.10926,0.00066
3939.04909,0.00099
3936.98892,0.00155
3934.92874,0.00160
3932.86857,0.00122
3930.80840,0.00113
3928.74823,0.00143
3926.68805,0.00171
3924.62788,0.00181
3922.56771,0.00174
3920.50754,0.00161
3918.44737,0.00137
3916.38719,0.00097
3914.32702,0.00075
3912.26685,0.00082
3910.20668,0.00083
3908.14651,0.00061
3906.08633,0.00042
3904.02616,0.00052
3901.96599,0.00068
3899.90582,0.00058
3897.84565,0.00058
3895.78547,0.00082
3893.72530,0.00088
3891.66513,0.00063
3889.60496,0.00042
3887.54478,0.00051
3885.48461,0.00091
3883.42444,0.00137
3881.36427,0.00145
3879.30410,0.00118
3877.24392,0.00102
3875.18375,0.00109
3873.12358,0.00122
3871.06341,0.00135
3869.00324,0.00154
3866.94306,0.00156
3864.88289,0.00134
3862.82272,0.00121
3860.76255,0.00113
3858.70237,0.00079
3856.64220,0.00048
3854.58203,0.00073
3852.52186,0.00138
3850.46169,0.00153
3848.40151,0.00134
3846.34134,0.00115
3844.28117,0.00099
3842.22100,0.00119
3840.16083,0.00214
3838.10065,0.00304
3836.04048,0.00286
3833.98031,0.00214
3831.92014,0.00177
3829.85997,0.00173
3827.79979,0.00169
3825.73962,0.00165
3823.67945,0.00155
3821.61928,0.00110
3819.55910,0.00061
3817.49893,0.00073
3815.43876,0.00142
3813.37859,0.00209
3811.31842,0.00223
3809.25824,0.00176
3807.19807,0.00106
3805.13790,0.00071
3803.07773,0.00067
3801.01756,0.00075
3798.95738,0.00115
3796.89721,0.00177
3794.83704,0.00191
3792.77687,0.00141
3790.71670,0.00115
3788.65652,0.00147
3786.59635,0.00180
3784.53618,0.00193
3782.47601,0.00198
3780.41583,0.00181
3778.35566,0.00149
3776.29549,0.00148
3774.23532,0.00187
3772.17515,0.00221
3770.11497,0.00223
3768.05480,0.00230
3765.99463,0.00249
3763.93446,0.00237
3761.87429,0.00196
3759.81411,0.00156
3757.75394,0.00131
3755.69377,0.00128
3753.63360,0.00138
3751.57342,0.00152
3749.51325,0.00147
3747.45308,0.00114
3745.39291,0.00133
3743.33274,0.00213
3741.27256,0.00250
3739.21239,0.00240
3737.15222,0.00201
3735.09205,0.00119
3733.03188,0.00035
3730.97170,0.00049
3728.91153,0.00151
3726.85136,0.00220
3724.79119,0.00181
3722.73102,0.00108
3720.67084,0.00111
3718.61067,0.00164
3716.55050,0.00218
3714.49033,0.00215
3712.43015,0.00126
3710.36998,0.00034
3708.30981,0.00000
3706.24964,0.00049
3704.18947,0.00164
3702.12929,0.00296
3700.06912,0.00348
3698.00895,0.00302
3695.94878,0.00256
3693.88861,0.00234
3691.82843,0.00239
3689.76826,0.00285
3687.70809,0.00335
3685.64792,0.00324
3683.58775,0.00281
3681.52757,0.00241
3679.46740,0.00214
3677.40723,0.00191
3675.34706,0.00186
3673.28688,0.00205
3671.22671,0.00222
3669.16654,0.00234
3667.10637,0.00256
3665.04620,0.00291
3662.98602,0.00326
3660.92585,0.00358
3658.86568,0.00377
3656.80551,0.00376
3654.74534,0.00381
3652.68516,0.00386
3650.62499,0.00342
3648.56482,0.00280
3646.50465,0.00290
3644.44447,0.00354
3642.38430,0.00438
3640.32413,0.00515
3638.26396,0.00531
3636.20379,0.00495
3634.14361,0.00493
3632.08344,0.00563
3630.02327,0.00642
3627.96310,0.00671
3625.90293,0.00668
3623.84275,0.00680
3621.78258,0.00672
3619.72241,0.00633
3617.66224,0.00646
3615.60207,0.00728
3613.54189,0.00830
3611.48172,0.00888
3609.42155,0.00896
3607.36138,0.00892
3605.30120,0.00898
3603.24103,0.00922
3601.18086,0.00958
3599.12069,0.01004
3597.06052,0.01058
3595.00034,0.01137
3592.94017,0.01204
3590.88000,0.01217
3588.81983,0.01160
3586.75966,0.01099
3584.69948,0.01092
3582.63931,0.01119
3580.57914,0.01147
3578.51897,0.01177
3576.45879,0.01222
3574.39862,0.01267
3572.33845,0.01287
3570.27828,0.01280
3568.21811,0.01280
3566.15793,0.01321
3564.09776,0.01372
3562.03759,0.01408
3559.97742,0.01441
3557.91725,0.01462
3555.85707,0.01448
3553.79690,0.01411
3551.73673,0.01413
3549.67656,0.01469
3547.61639,0.01516
3545.55621,0.01539
3543.49604,0.01580
3541.43587,0.01625
3539.37570,0.01658
3537.31552,0.01720
3535.25535,0.01807
3533.19518,0.01858
3531.13501,0.01864
3529.07484,0.01859
3527.01466,0.01856
3524.95449,0.01853
3522.89432,0.01852
3520.83415,0.01879
3518.77398,0.01929
3516.71380,0.01958
3514.65363,0.01955
3512.59346,0.01951
3510.53329,0.01976
3508.47312,0.02035
3506.41294,0.02090
3504.35277,0.02106
3502.29260,0.02089
3500.23243,0.02086
3498.17225,0.02122
3496.11208,0.02164
3494.05191,0.02180
3491.99174,0.02179
3489.93157,0.02196
3487.87139,0.02247
3485.81122,0.02309
3483.75105,0.02341
3481.69088,0.02349
3479.63071,0.02361
3477.57053,0.02375
3475.51036,0.02408
3473.45019,0.02455
3471.39002,0.02443
3469.32984,0.02386
3467.26967,0.02380
3465.20950,0.02430
3463.14933,0.02475
3461.08916,0.02518
3459.02898,0.02565
3456.96881,0.02583
3454.90864,0.02575
3452.84847,0.02565
3450.78830,0.02553
3448.72812,0.02558
3446.66795,0.02580
3444.60778,0.02601
3442.54761,0.02635
3440.48744,0.02667
3438.42726,0.02666
3436.36709,0.02665
3434.30692,0.02693
3432.24675,0.02726
3430.18657,0.02746
3428.12640,0.02750
3426.06623,0.02754
3424.00606,0.02775
3421.94589,0.02801
3419.88571,0.02809
3417.82554,0.02813
3415.76537,0.02843
3413.70520,0.02895
3411.64503,0.02937
3409.58485,0.02942
3407.52468,0.02936
3405.46451,0.02951
3403.40434,0.02957
3401.34416,0.02948
3399.28399,0.02948
3397.22382,0.02952
3395.16365,0.02976
3393.10348,0.03002
3391.04330,0.03016
3388.98313,0.03025
3386.92296,0.03023
3384.86279,0.03034
3382.80262,0.03057
3380.74244,0.03048
3378.68227,0.03024
3376.62210,0.03040
3374.56193,0.03092
3372.50176,0.03129
3370.44158,0.03138
3368.38141,0.03136
3366.32124,0.03145
3364.26107,0.03178
3362.20089,0.03196
3360.14072,0.03175
3358.08055,0.03177
3356.02038,0.03204
3353.96021,0.03186
3351.90003,0.03156
3349.83986,0.03176
3347.77969,0.03203
3345.71952,0.03200
3343.65935,0.03193
3341.59917,0.03199
3339.53900,0.03208
3337.47883,0.03207
3335.41866,0.03214
3333.35849,0.03244
3331.29831,0.03261
3329.23814,0.03251
3327.17797,0.03249
3325.11780,0.03266
3323.05762,0.03278
3320.99745,0.03278
3318.93728,0.03279
3316.87711,0.03284
3314.81694,0.03278
3312.75676,0.03263
3310.69659,0.03269
3308.63642,0.03294
3306.57625,0.03297
3304.51608,0.03281
3302.45590,0.03284
3300.39573,0.03297
3298.33556,0.03303
3296.27539,0.03312
3294.21521,0.03320
3292.15504,0.03306
3290.09487,0.03277
3288.03470,0.03268
3285.97453,0.03291
3283.91435,0.03308
3281.85418,0.03313
3279.79401,0.03335
3277.73384,0.03379
3275.67367,0.03422
3273.61349,0.03437
3271.55332,0.03431
3269.49315,0.03406
3267.43298,0.03389
3265.37281,0.03414
3263.31263,0.03430
3261.25246,0.03402
3259.19229,0.03374
3257.13212,0.03365
3255.07194,0.03367
3253.01177,0.03368
3250.95160,0.03358
3248.89143,0.03344
3246.83126,0.03353
3244.77108,0.03405
3242.71091,0.03451
3240.65074,0.03437
3238.59057,0.03400
3236.53040,0.03388
3234.47022,0.03404
3232.41005,0.03418
3230.34988,0.03404
3228.28971,0.03388
3226.22954,0.03384
3224.16936,0.03386
3222.10919,0.03406
3220.04902,0.03427
3217.98885,0.03427
3215.92867,0.03410
3213.86850,0.03395
3211.80833,0.03389
3209.74816,0.03376
3207.68799,0.03352
3205.62781,0.03347
3203.56764,0.03370
3201.50747,0.03388
3199.44730,0.03378
3197.38713,0.03345
3195.32695,0.03323
3193.26678,0.03324
3191.20661,0.03327
3189.14644,0.03321
3187.08626,0.03305
3185.02609,0.03284
3182.96592,0.03286
3180.90575,0.03307
3178.84558,0.03321
3176.78540,0.03343
3174.72523,0.03353
3172.66506,0.03321
3170.60489,0.03282
3168.54472,0.03274
3166.48454,0.03267
3164.42437,0.03240
3162.36420,0.03226
3160.30403,0.03235
3158.24386,0.03240
3156.18368,0.03214
3154.12351,0.03179
3152.06334,0.03186
3150.00317,0.03218
3147.94299,0.03251
3145.88282,0.03293
3143.82265,0.03309
3141.76248,0.03267
3139.70231,0.03188
3137.64213,0.03146
3135.58196,0.03161
3133.52179,0.03153
3131.46162,0.03097
3129.40145,0.03059
3127.34127,0.03061
3125.28110,0.03078
3123.22093,0.03081
3121.16076,0.03069
3119.10058,0.03063
3117.04041,0.03057
3114.98024,0.03022
3112.92007,0.02973
3110.85990,0.02960
3108.79972,0.02976
3106.73955,0.02987
3104.67938,0.02983
3102.61921,0.02978
3100.55904,0.02990
3098.49886,0.03000
3096.43869,0.02975
3094.37852,0.02937
3092.31835,0.02933
3090.25818,0.02948
3088.19800,0.02934
3086.13783,0.02899
3084.07766,0.02886
3082.01749,0.02884
3079.95731,0.02874
3077.89714,0.02875
3075.83697,0.02886
3073.77680,0.02878
3071.71663,0.02853
3069.65645,0.02837
3067.59628,0.02844
3065.53611,0.02837
3063.47594,0.02794
3061.41577,0.02754
3059.35559,0.02740
3057.29542,0.02732
3055.23525,0.02717
3053.17508,0.02693
3051.11491,0.02667
3049.05473,0.02660
3046.99456,0.02666
3044.93439,0.02656
3042.87422,0.02626
3040.81404,0.02600
3038.75387,0.02590
3036.69370,0.02585
3034.63353,0.02580
3032.57336,0.02582
3030.51318,0.02581
3028.45301,0.02572
3026.39284,0.02558
3024.33267,0.02526
3022.27250,0.02479
3020.21232,0.02463
3018.15215,0.02492
3016.09198,0.02513
3014.03181,0.02500
3011.97163,0.02471
3009.91146,0.02447
3007.85129,0.02431
3005.79112,0.02412
3003.73095,0.02386
3001.67077,0.02356
2999.61060,0.02344
2997.55043,0.02358
2995.49026,0.02366
2993.43009,0.02350
2991.36991,0.02311
2989.30974,0.02281
2987.24957,0.02291
2985.18940,0.02309
2983.12923,0.02306
2981.06905,0.02291
2979.00888,0.02271
2976.94871,0.02257
2974.88854,0.02243
2972.82836,0.02231
2970.76819,0.02245
2968.70802,0.02259
2966.64785,0.02239
2964.58768,0.02218
2962.52750,0.02237
2960.46733,0.02253
2958.40716,0.02230
2956.34699,0.02212
2954.28682,0.02211
2952.22664,0.02210
2950.16647,0.02219
2948.10630,0.02232
2946.04613,0.02224
2943.98596,0.02207
2941.92578,0.02215
2939.86561,0.02235
2937.80544,0.02231
2935.74527,0.02201
2933.68509,0.02180
2931.62492,0.02177
2929.56475,0.02174
2927.50458,0.02173
2925.44441,0.02171
2923.38423,0.02163
2921.32406,0.02158
2919.26389,0.02149
2917.20372,0.02136
2915.14355,0.02130
2913.08337,0.02115
2911.02320,0.02097
2908.96303,0.02103
2906.90286,0.02118
2904.84268,0.02118
2902.78251,0.02102
2900.72234,0.02088
2898.66217,0.02095
2896.60200,0.02099
2894.54182,0.02080
2892.48165,0.02065
2890.42148,0.02064
2888.36131,0.02071
2886.30114,0.02076
2884.24096,0.02077
2882.18079,0.02088
2880.12062,0.02102
2878.06045,0.02076
2876.00028,0.02026
2873.94010,0.02011
2871.87993,0.02018
2869.81976,0.02003
2867.75959,0.01978
2865.69941,0.01967
2863.63924,0.01964
2861.57907,0.01976
2859.51890,0.01987
2857.45873,0.01980
2855.39855,0.01969
2853.33838,0.01947
2851.27821,0.01910
2849.21804,0.01883
2847.15787,0.01879
2845.09769,0.01888
2843.03752,0.01885
2840.97735,0.01872
2838.91718,0.01867
2836.85700,0.01867
2834.79683,0.01879
2832.73666,0.01891
2830.67649,0.01876
2828.61632,0.01850
2826.55614,0.01839
2824.49597,0.01840
2822.43580,0.01832
2820.37563,0.01818
2818.31546,0.01826
2816.25528,0.01834
2814.19511,0.01822
2812.13494,0.01809
2810.07477,0.01799
2808.01460,0.01786
2805.95442,0.01764
2803.89425,0.01745
2801.83408,0.01739
2799.77391,0.01741
2797.71373,0.01738
2795.65356,0.01738
2793.59339,0.01743
2791.53322,0.01734
2789.47305,0.01724
2787.41287,0.01718
2785.35270,0.01713
2783.29253,0.01705
2781.23236,0.01693
2779.17219,0.01703
2777.11201,0.01720
2775.05184,0.01720
2772.99167,0.01717
2770.93150,0.01713
2768.87133,0.01704
2766.81115,0.01696
2764.75098,0.01680
2762.69081,0.01645
2760.63064,0.01613
2758.57046,0.01625
2756.51029,0.01644
2754.45012,0.01626
2752.38995,0.01611
2750.32978,0.01625
2748.26960,0.01634
2746.20943,0.01602
2744.14926,0.01559
2742.08909,0.01551
2740.02892,0.01568
2737.96874,0.01572
2735.90857,0.01561
2733.84840,0.01554
2731.78823,0.01548
2729.72805,0.01547
2727.66788,0.01558
2725.60771,0.01574
2723.54754,0.01573
2721.48737,0.01558
2719.42719,0.01543
2717.36702,0.01537
2715.30685,0.01531
2713.24668,0.01524
2711.18651,0.01523
2709.12633,0.01521
2707.06616,0.01517
2705.00599,0.01514
2702.94582,0.01491
2700.88565,0.01456
2698.82547,0.01441
2696.76530,0.01435
2694.70513,0.01418
2692.64496,0.01401
2690.58478,0.01399
2688.52461,0.01407
2686.46444,0.01418
2684.40427,0.01422
2682.34410,0.01408
2680.28392,0.01388
2678.22375,0.01366
2676.16358,0.01340
2674.10341,0.01322
2672.04324,0.01324
2669.98306,0.01331
2667.92289,0.01320
2665.86272,0.01304
2663.80255,0.01297
2661.74238,0.01310
2659.68220,0.01331
2657.62203,0.01328
2655.56186,0.01307
2653.50169,0.01292
2651.44151,0.01282
2649.38134,0.01278
2647.32117,0.01288
2645.26100,0.01285
2643.20083,0.01259
2641.14065,0.01237
2639.08048,0.01228
2637.02031,0.01227
2634.96014,0.01217
2632.89997,0.01192
2630.83979,0.01183
2628.77962,0.01180
2626.71945,0.01145
2624.65928,0.01108
2622.59910,0.01112
2620.53893,0.01130
2618.47876,0.01119
2616.41859,0.01102
2614.35842,0.01104
2612.29824,0.01104
2610.23807,0.01098
2608.17790,0.01089
2606.11773,0.01087
2604.05756,0.01099
2601.99738,0.01101
2599.93721,0.01075
2597.87704,0.01034
2595.81687,0.01031
2593.75670,0.01067
2591.69652,0.01078
2589.63635,0.01056
2587.57618,0.01039
2585.51601,0.01033
2583.45583,0.01040
2581.39566,0.01052
2579.33549,0.01033
2577.27532,0.00997
2575.21515,0.00995
2573.15497,0.01018
2571.09480,0.01017
2569.03463,0.01001
2566.97446,0.00987
2564.91429,0.00987
2562.85411,0.01017
2560.79394,0.01033
2558.73377,0.00995
2556.67360,0.00958
2554.61342,0.00970
2552.55325,0.00997
2550.49308,0.00999
2548.43291,0.00988
2546.37274,0.00979
2544.31256,0.00972
2542.25239,0.00961
2540.19222,0.00958
2538.13205,0.00976
2536.07188,0.01004
2534.01170,0.01031
2531.95153,0.01039
2529.89136,0.00992
2527.83119,0.00922
2525.77102,0.00921
2523.71084,0.00977
2521.65067,0.01001
2519.59050,0.00994
2517.53033,0.01015
2515.47015,0.01034
2513.40998,0.01007
2511.34981,0.00970
2509.28964,0.00969
2507.22947,0.00996
2505.16929,0.01018
2503.10912,0.01019
2501.04895,0.01009
2498.98878,0.00992
2496.92861,0.00981
2494.86843,0.01006
2492.80826,0.01057
2490.74809,0.01082
2488.68792,0.01061
2486.62775,0.01028
2484.56757,0.01013
2482.50740,0.01016
2480.44723,0.01015
2478.38706,0.01000
2476.32688,0.00988
2474.26671,0.00997
2472.20654,0.01030
2470.14637,0.01063
2468.08620,0.01087
2466.02602,0.01091
2463.96585,0.01061
2461.90568,0.01038
2459.84551,0.01042
2457.78534,0.01041
2455.72516,0.01040
2453.66499,0.01070
2451.60482,0.01094
2449.54465,0.01066
2447.48447,0.01028
2445.42430,0.01023
2443.36413,0.01050
2441.30396,0.01071
2439.24379,0.01048
2437.18361,0.01025
2435.12344,0.01039
2433.06327,0.01060
2431.00310,0.01075
2428.94293,0.01079
2426.88275,0.01049
2424.82258,0.01023
2422.76241,0.01031
2420.70224,0.01048
2418.64207,0.01059
2416.58189,0.01053
2414.52172,0.01041
2412.46155,0.01043
2410.40138,0.01032
2408.34120,0.01002
2406.28103,0.01000
2404.22086,0.01061
2402.16069,0.01132
2400.10052,0.01102
2398.04034,0.01023
2395.98017,0.01004
2393.92000,0.01023
2391.85983,0.01040
2389.79966,0.01069
2387.73948,0.01113
2385.67931,0.01144
2383.61914,0.01131
2381.55897,0.01099
2379.49880,0.01098
2377.43862,0.01122
2375.37845,0.01063
2373.31828,0.01018
2371.25811,0.01083
2369.19793,0.01087
2367.13776,0.01131
2365.07759,0.01297
2363.01742,0.01178
2360.95725,0.01052
2358.89707,0.00760
2356.83690,0.00682
2354.77673,0.00830
2352.71656,0.00948
2350.65639,0.01509
2348.59621,0.01789
2346.53604,0.00997
2344.47587,0.00772
2342.41570,0.01031
2340.35552,0.01279
2338.29535,0.01385
2336.23518,0.01268
2334.17501,0.01171
2332.11484,0.01115
2330.05466,0.01191
2327.99449,0.01321
2325.93432,0.01519
2323.87415,0.01442
2321.81398,0.01236
2319.75380,0.01100
2317.69363,0.01252
2315.63346,0.01330
2313.57329,0.01260
2311.51312,0.01210
2309.45294,0.01214
2307.39277,0.01209
2305.33260,0.01135
2303.27243,0.01019
2301.21225,0.00922
2299.15208,0.00948
2297.09191,0.01016
2295.03174,0.01031
2292.97157,0.01007
2290.91139,0.00966
2288.85122,0.00925
2286.79105,0.00901
2284.73088,0.00894
2282.67071,0.00897
2280.61053,0.00921
2278.55036,0.00955
2276.49019,0.00939
2274.43002,0.00894
2272.36984,0.00910
2270.30967,0.00967
2268.24950,0.00949
2266.18933,0.00883
2264.12916,0.00867
2262.06898,0.00884
2260.00881,0.00859
2257.94864,0.00825
2255.88847,0.00851
2253.82830,0.00878
2251.76812,0.00834
2249.70795,0.00784
2247.64778,0.00764
2245.58761,0.00762
2243.52744,0.00830
2241.46726,0.00888
2239.40709,0.00899
2237.34692,0.00911
2235.28675,0.00906
2233.22657,0.00935
2231.16640,0.00974
2229.10623,0.00881
2227.04606,0.00759
2224.98589,0.00699
2222.92571,0.00647
2220.86554,0.00646
2218.80537,0.00718
2216.74520,0.00782
2214.68503,0.00747
2212.62485,0.00655
2210.56468,0.00632
2208.50451,0.00632
2206.44434,0.00629
2204.38417,0.00657
2202.32399,0.00702
2200.26382,0.00782
2198.20365,0.00858
2196.14348,0.00856
2194.08330,0.00792
2192.02313,0.00748
2189.96296,0.00723
2187.90279,0.00641
2185.84262,0.00527
2183.78244,0.00463
2181.72227,0.00502
2179.66210,0.00558
2177.60193,0.00527
2175.54176,0.00505
2173.48158,0.00536
2171.42141,0.00542
2169.36124,0.00600
2167.30107,0.00697
2165.24089,0.00703
2163.18072,0.00702
2161.12055,0.00626
2159.06038,0.00391
2157.00021,0.00386
2154.94003,0.00591
2152.87986,0.00600
2150.81969,0.00497
2148.75952,0.00524
2146.69935,0.00610
2144.63917,0.00653
2142.57900,0.00610
2140.51883,0.00486
2138.45866,0.00389
2136.39849,0.00315
2134.33831,0.00264
2132.27814,0.00319
2130.21797,0.00414
2128.15780,0.00482
2126.09762,0.00525
2124.03745,0.00531
2121.97728,0.00543
2119.91711,0.00565
2117.85694,0.00577
2115.79676,0.00627
2113.73659,0.00655
2111.67642,0.00581
2109.61625,0.00498
2107.55608,0.00481
2105.49590,0.00539
2103.43573,0.00629
2101.37556,0.00657
2099.31539,0.00627
2097.25521,0.00594
2095.19504,0.00582
2093.13487,0.00586
2091.07470,0.00591
2089.01453,0.00577
2086.95435,0.00521
2084.89418,0.00462
2082.83401,0.00468
2080.77384,0.00511
2078.71367,0.00507
2076.65349,0.00440
2074.59332,0.00392
2072.53315,0.00386
2070.47298,0.00415
2068.41281,0.00498
2066.35263,0.00574
2064.29246,0.00604
2062.23229,0.00587
2060.17212,0.00522
2058.11194,0.00473
2056.05177,0.00481
2053.99160,0.00568
2051.93143,0.00674
2049.87126,0.00666
2047.81108,0.00539
2045.75091,0.00418
2043.69074,0.00387
2041.63057,0.00419
2039.57040,0.00485
2037.51022,0.00521
2035.45005,0.00449
2033.38988,0.00332
2031.32971,0.00205
2029.26954,0.00058
2027.20936,0.00000
2025.14919,0.00128
2023.08902,0.00374
2021.02885,0.00549
2018.96867,0.00604
2016.90850,0.00638
2014.84833,0.00626
2012.78816,0.00430
2010.72799,0.00174
2008.66781,0.00115
2006.60764,0.00181
2004.54747,0.00205
2002.48730,0.00248
2000.42713,0.00369
1998.36695,0.00480
1996.30678,0.00504
1994.24661,0.00518
1992.18644,0.00541
1990.12626,0.00483
1988.06609,0.00380
1986.00592,0.00357
1983.94575,0.00404
1981.88558,0.00417
1979.82540,0.00387
1977.76523,0.00343
1975.70506,0.00295
1973.64489,0.00284
1971.58472,0.00311
1969.52454,0.00320
1967.46437,0.00303
1965.40420,0.00284
1963.34403,0.00237
1961.28386,0.00142
1959.22368,0.00030
1957.16351,0.00000
1955.10334,0.00081
1953.04317,0.00143
1950.98299,0.00127
1948.92282,0.00165
1946.86265,0.00290
1944.80248,0.00356
1942.74231,0.00321
1940.68213,0.00316
1938.62196,0.00378
1936.56179,0.00373
1934.50162,0.00278
1932.44145,0.00213
1930.38127,0.00228
1928.32110,0.00262
1926.26093,0.00251
1924.20076,0.00202
1922.14059,0.00176
1920.08041,0.00215
1918.02024,0.00282
1915.96007,0.00300
1913.89990,0.00255
1911.83972,0.00220
1909.77955,0.00252
1907.71938,0.00321
1905.65921,0.00358
1903.59904,0.00341
1901.53886,0.00295
1899.47869,0.00281
1897.41852,0.00319
1895.35835,0.00369
1893.29818,0.00390
1891.23800,0.00378
1889.17783,0.00360
1887.11766,0.00344
1885.05749,0.00323
1882.99731,0.00310
1880.93714,0.00305
1878.87697,0.00294
1876.81680,0.00293
1874.75663,0.00308
1872.69645,0.00296
1870.63628,0.00263
1868.57611,0.00280
1866.51594,0.00349
1864.45577,0.00376
1862.39559,0.00348
1860.33542,0.00329
1858.27525,0.00342
1856.21508,0.00368
1854.15491,0.00397
1852.09473,0.00415
1850.03456,0.00414
1847.97439,0.00401
1845.91422,0.00377
1843.85404,0.00348
1841.79387,0.00331
1839.73370,0.00325
1837.67353,0.00330
1835.61336,0.00353
1833.55318,0.00382
1831.49301,0.00403
1829.43284,0.00404
1827.37267,0.00384
1825.31250,0.00361
1823.25232,0.00360
1821.19215,0.00379
1819.13198,0.00389
1817.07181,0.00381
1815.01163,0.00377
1812.95146,0.00381
1810.89129,0.00382
1808.83112,0.00387
1806.77095,0.00390
1804.71077,0.00378
1802.65060,0.00358
1800.59043,0.00339
1798.53026,0.00333
1796.47009,0.00357
1794.40991,0.00391
1792.34974,0.00395
1790.28957,0.00384
1788.22940,0.00389
1786.16923,0.00397
1784.10905,0.00399
1782.04888,0.00408
1779.98871,0.00419
1777.92854,0.00418
1775.86836,0.00399
1773.80819,0.00371
1771.74802,0.00363
1769.68785,0.00395
1767.62768,0.00438
1765.56750,0.00456
1763.50733,0.00450
1761.44716,0.00453
1759.38699,0.00478
1757.32682,0.00509
1755.26664,0.00539
1753.20647,0.00555
1751.14630,0.00537
1749.08613,0.00499
1747.02596,0.00488
1744.96578,0.00513
1742.90561,0.00561
1740.84544,0.00610
1738.78527,0.00622
1736.72509,0.00604
1734.66492,0.00594
1732.60475,0.00618
1730.54458,0.00652
1728.48441,0.00678
1726.42423,0.00702
1724.36406,0.00737
1722.30389,0.00781
1720.24372,0.00811
1718.18355,0.00804
1716.12337,0.00777
1714.06320,0.00773
1712.00303,0.00792
1709.94286,0.00816
1707.88268,0.00841
1705.82251,0.00879
1703.76234,0.00926
1701.70217,0.00954
1699.64200,0.00948
1697.58182,0.00932
1695.52165,0.00936
1693.46148,0.00960
1691.40131,0.00988
1689.34114,0.01005
1687.28096,0.01004
1685.22079,0.00990
1683.16062,0.00992
1681.10045,0.01039
1679.04028,0.01093
1676.98010,0.01110
1674.91993,0.01099
1672.85976,0.01102
1670.79959,0.01129
1668.73941,0.01162
1666.67924,0.01185
1664.61907,0.01206
1662.55890,0.01244
1660.49873,0.01292
1658.43855,0.01314
1656.37838,0.01306
1654.31821,0.01291
1652.25804,0.01291
1650.19787,0.01295
1648.13769,0.01283
1646.07752,0.01270
1644.01735,0.01292
1641.95718,0.01326
1639.89701,0.01333
1637.83683,0.01292
1635.77666,0.01237
1633.71649,0.01235
1631.65632,0.01277
1629.59614,0.01309
1627.53597,0.01301
1625.47580,0.01263
1623.41563,0.01233
1621.35546,0.01243
1619.29528,0.01268
1617.23511,0.01266
1615.17494,0.01244
1613.11477,0.01234
1611.05460,0.01232
1608.99442,0.01222
1606.93425,0.01203
1604.87408,0.01179
1602.81391,0.01156
1600.75373,0.01134
1598.69356,0.01104
1596.63339,0.01064
1594.57322,0.01027
1592.51305,0.01001
1590.45287,0.00976
1588.39270,0.00948
1586.33253,0.00924
1584.27236,0.00909
1582.21219,0.00893
1580.15201,0.00870
1578.09184,0.00849
1576.03167,0.00831
1573.97150,0.00812
1571.91133,0.00793
1569.85115,0.00773
1567.79098,0.00755
1565.73081,0.00732
1563.67064,0.00694
1561.61046,0.00632
1559.55029,0.00560
1557.49012,0.00545
1555.42995,0.00582
1553.36978,0.00606
1551.30960,0.00608
1549.24943,0.00598
1547.18926,0.00567
1545.12909,0.00512
1543.06892,0.00458
1541.00874,0.00441
1538.94857,0.00476
1536.88840,0.00516
1534.82823,0.00520
1532.76805,0.00499
1530.70788,0.00481
1528.64771,0.00470
1526.58754,0.00464
1524.52737,0.00456
1522.46719,0.00430
1520.40702,0.00399
1518.34685,0.00398
1516.28668,0.00422
1514.22651,0.00444
1512.16633,0.00457
1510.10616,0.00460
1508.04599,0.00452
1505.98582,0.00441
1503.92565,0.00435
1501.86547,0.00426
1499.80530,0.00416
1497.74513,0.00413
1495.68496,0.00418
1493.62478,0.00414
1491.56461,0.00392
1489.50444,0.00359
1487.44427,0.00342
1485.38410,0.00353
1483.32392,0.00379
1481.26375,0.00399
1479.20358,0.00405
1477.14341,0.00402
1475.08324,0.00399
1473.02306,0.00411
1470.96289,0.00440
1468.90272,0.00461
1466.84255,0.00463
1464.78238,0.00473
1462.72220,0.00504
1460.66203,0.00517
1458.60186,0.00487
1456.54169,0.00455
1454.48151,0.00478
1452.42134,0.00528
1450.36117,0.00571
1448.30100,0.00589
1446.24083,0.00588
1444.18065,0.00578
1442.12048,0.00564
1440.06031,0.00537
1438.00014,0.00496
1435.93997,0.00471
1433.87979,0.00479
1431.81962,0.00492
1429.75945,0.00496
1427.69928,0.00487
1425.63910,0.00467
1423.57893,0.00465
1421.51876,0.00489
1419.45859,0.00504
1417.39842,0.00505
1415.33824,0.00521
1413.27807,0.00546
1411.21790,0.00551
1409.15773,0.00531
1407.09756,0.00511
1405.03738,0.00509
1402.97721,0.00512
1400.91704,0.00498
1398.85687,0.00480
1396.79670,0.00484
1394.73652,0.00505
1392.67635,0.00522
1390.61618,0.00526
1388.55601,0.00525
1386.49583,0.00534
1384.43566,0.00555
1382.37549,0.00579
1380.31532,0.00610
1378.25515,0.00645
1376.19497,0.00651
1374.13480,0.00616
1372.07463,0.00585
1370.01446,0.00588
1367.95429,0.00602
1365.89411,0.00607
1363.83394,0.00607
1361.77377,0.00618
1359.71360,0.00632
1357.65343,0.00634
1355.59325,0.00631
1353.53308,0.00629
1351.47291,0.00628
1349.41274,0.00627
1347.35256,0.00624
1345.29239,0.00614
1343.23222,0.00596
1341.17205,0.00576
1339.11188,0.00580
1337.05170,0.00609
1334.99153,0.00627
1332.93136,0.00620
1330.87119,0.00603
1328.81102,0.00591
1326.75084,0.00588
1324.69067,0.00591
1322.63050,0.00596
1320.57033,0.00592
1318.51015,0.00573
1316.44998,0.00551
1314.38981,0.00532
1312.32964,0.00519
1310.26947,0.00517
1308.20929,0.00515
1306.14912,0.00513
1304.08895,0.00524
1302.02878,0.00541
1299.96861,0.00543
1297.90843,0.00535
1295.84826,0.00533
1293.78809,0.00530
1291.72792,0.00527
1289.66775,0.00526
1287.60757,0.00524
1285.54740,0.00522
1283.48723,0.00527
1281.42706,0.00534
1279.36688,0.00536
1277.30671,0.00534
1275.24654,0.00534
1273.18637,0.00544
1271.12620,0.00553
1269.06602,0.00554
1267.00585,0.00564
1264.94568,0.00577
1262.88551,0.00567
1260.82534,0.00553
1258.76516,0.00561
1256.70499,0.00562
1254.64482,0.00548
1252.58465,0.00541
1250.52447,0.00537
1248.46430,0.00523
1246.40413,0.00503
1244.34396,0.00498
1242.28379,0.00507
1240.22361,0.00511
1238.16344,0.00499
1236.10327,0.00485
1234.04310,0.00489
1231.98293,0.00508
1229.92275,0.00519
1227.86258,0.00515
1225.80241,0.00496
1223.74224,0.00481
1221.68207,0.00483
1219.62189,0.00481
1217.56172,0.00476
1215.50155,0.00484
1213.44138,0.00491
1211.38120,0.00478
1209.32103,0.00454
1207.26086,0.00439
1205.20069,0.00428
1203.14052,0.00420
1201.08034,0.00447
1199.02017,0.00497
1196.96000,0.00512
1194.89983,0.00492
1192.83966,0.00493
1190.77948,0.00526
1188.71931,0.00564
1186.65914,0.00589
1184.59897,0.00606
1182.53880,0.00636
1180.47862,0.00679
1178.41845,0.00722
1176.35828,0.00774
1174.29811,0.00838
1172.23793,0.00905
1170.17776,0.00962
1168.11759,0.01008
1166.05742,0.01050
1163.99725,0.01089
1161.93707,0.01126
1159.87690,0.01165
1157.81673,0.01211
1155.75656,0.01265
1153.69639,0.01317
1151.63621,0.01360
1149.57604,0.01413
1147.51587,0.01477
1145.45570,0.01538
1143.39552,0.01594
1141.33535,0.01654
1139.27518,0.01728
1137.21501,0.01801
1135.15484,0.01866
1133.09466,0.01937
1131.03449,0.02012
1128.97432,0.02085
1126.91415,0.02157
1124.85398,0.02229
1122.79380,0.02296
1120.73363,0.02361
1118.67346,0.02427
1116.61329,0.02497
1114.55312,0.02568
1112.49294,0.02643
1110.43277,0.02728
1108.37260,0.02814
1106.31243,0.02887
1104.25225,0.02971
1102.19208,0.03079
1100.13191,0.03172
1098.07174,0.03230
1096.01157,0.03283
1093.95139,0.03351
1091.89122,0.03423
1089.83105,0.03496
1087.77088,0.03579
1085.71071,0.03674
1083.65053,0.03757
1081.59036,0.03813
1079.53019,0.03855
1077.47002,0.03892
1075.40985,0.03928
1073.34967,0.03962
1071.28950,0.03992
1069.22933,0.04022
1067.16916,0.04057
1065.10898,0.04083
1063.04881,0.04099
1060.98864,0.04113
1058.92847,0.04114
1056.86830,0.04108
1054.80812,0.04092
1052.74795,0.04067
1050.68778,0.04034
1048.62761,0.03994
1046.56744,0.03952
1044.50726,0.03908
1042.44709,0.03849
1040.38692,0.03782
1038.32675,0.03721
1036.26657,0.03663
1034.20640,0.03591
1032.14623,0.03508
1030.08606,0.03437
1028.02589,0.03383
1025.96571,0.03330
1023.90554,0.03278
1021.84537,0.03218
1019.78520,0.03168
1017.72503,0.03131
1015.66485,0.03066
1013.60468,0.02984
1011.54451,0.02947
1009.48434,0.02943
1007.42417,0.02924
1005.36399,0.02893
1003.30382,0.02865
1001.24365,0.02855
999.18348,0.02878
997.12330,0.02904
995.06313,0.02928
993.00296,0.02984
990.94279,0.03053
988.88262,0.03100
986.82244,0.03130
984.76227,0.03146
982.70210,0.03142
980.64193,0.03124
978.58176,0.03098
976.52158,0.03073
974.46141,0.03048
972.40124,0.02987
970.34107,0.02870
968.28089,0.02746
966.22072,0.02653
964.16055,0.02595
962.10038,0.02547
960.04021,0.02482
957.98003,0.02412
955.91986,0.02353
953.85969,0.02295
951.79952,0.02241
949.73935,0.02188
947.67917,0.02158
945.61900,0.02156
943.55883,0.02144
941.49866,0.02114
939.43849,0.02097
937.37831,0.02102
935.31814,0.02108
933.25797,0.02098
931.19780,0.02080
929.13762,0.02052
927.07745,0.02009
925.01728,0.01982
922.95711,0.01980
920.89694,0.01972
918.83676,0.01941
916.77659,0.01901
914.71642,0.01870
912.65625,0.01853
910.59608,0.01827
908.53590,0.01804
906.47573,0.01798
904.41556,0.01780
902.35539,0.01761
900.29522,0.01756
898.23504,0.01733
896.17487,0.01711
894.11470,0.01713
892.05453,0.01707
889.99435,0.01709
887.93418,0.01725
885.87401,0.01734
883.81384,0.01762
881.75367,0.01812
879.69349,0.01854
877.63332,0.01891
875.57315,0.01909
873.51298,0.01905
871.45281,0.01928
869.39263,0.01977
867.33246,0.02006
865.27229,0.02000
863.21212,0.01983
861.15194,0.01969
859.09177,0.01967
857.03160,0.01976
854.97143,0.01964
852.91126,0.01930
850.85108,0.01897
848.79091,0.01856
846.73074,0.01805
844.67057,0.01765
842.61040,0.01745
840.55022,0.01732
838.49005,0.01702
836.42988,0.01670
834.36971,0.01645
832.30954,0.01618
830.24936,0.01570
828.18919,0.01496
826.12902,0.01441
824.06885,0.01423
822.00867,0.01411
819.94850,0.01379
817.88833,0.01332
815.82816,0.01271
813.76799,0.01217
811.70781,0.01231
809.64764,0.01277
807.58747,0.01271
805.52730,0.01228
803.46713,0.01199
801.40695,0.01187
799.34678,0.01156
797.28661,0.01092
795.22644,0.01048
793.16627,0.01057
791.10609,0.01084
789.04592,0.01084
786.98575,0.01073
784.92558,0.01085
782.86540,0.01122
780.80523,0.01162
778.74506,0.01142
776.68489,0.01064
774.62472,0.01030
772.56454,0.01019
770.50437,0.00977
768.44420,0.01009
766.38403,0.01106
764.32386,0.01125
762.26368,0.01055
760.20351,0.00986
758.14334,0.00985
756.08317,0.01008
754.02299,0.00965
751.96282,0.00894
749.90265,0.00870
747.84248,0.00901
745.78231,0.00967
743.72213,0.01004
741.66196,0.00964
739.60179,0.00916
737.54162,0.00914
735.48145,0.00914
733.42127,0.00889
731.36110,0.00867
729.30093,0.00871
727.24076,0.00887
725.18059,0.00901
723.12041,0.00967
721.06024,0.00895
719.00007,0.00866
716.93990,0.00831
714.87972,0.00808
712.81955,0.00873
710.75938,0.00936
708.69921,0.00954
706.63904,0.00932
704.57886,0.00900
702.51869,0.00908
700.45852,0.00939
698.39835,0.00941
696.33818,0.00936
694.27800,0.00961
692.21783,0.00997
690.15766,0.01033
688.09749,0.01076
686.03731,0.01115
683.97714,0.01130
681.91697,0.01167
679.85680,0.01256
677.79663,0.01272
675.73645,0.01181
673.67628,0.01306
671.61611,0.01599
669.55594,0.00679
667.49577,0.00000
665.43559,0.01501
663.37542,0.01433
661.31525,0.01077
659.25508,0.01004
657.19491,0.00998
655.13473,0.01005
653.07456,0.01031
651.01439,0.00970
648.95422,0.00834
646.89404,0.00829
644.83387,0.00847
642.77370,0.00827
640.71353,0.00772
638.65336,0.00731
636.59318,0.00749
634.53301,0.00767
632.47284,0.00715
630.41267,0.00677
628.35250,0.00703
626.29232,0.00699
624.23215,0.00566
622.17198,0.00380
620.11181,0.00244
618.05164,0.00319
615.99146,0.00422
613.93129,0.00240
611.87112,0.00000
609.81095,-0.00018
607.75077,0.00196
605.69060,0.00327
603.63043,0.00167
601.57026,-0.00017
599.51009,0.00000
