3996.73391,0.00026
3994.67373,0.00026
3992.61356,0.00013
3990.55339,0.00005
3988.49322,0.00003
3986.43305,0.00004
3984.37287,0.00010
3982.31270,0.00018
3980.25253,0.00020
3978.19236,0.00022
3976.13219,0.00025
3974.07201,0.00013
3972.01184,0.00000
3969.95167,0.00012
3967.89150,0.00043
3965.83133,0.00066
3963.77115,0.00072
3961.71098,0.00060
3959.65081,0.00043
3957.59064,0.00037
3955.53046,0.00034
3953.47029,0.00033
3951.41012,0.00043
3949.34995,0.00045
3947.28978,0.00016
3945.22960,0.00016
3943.16943,0.00057
3941.10926,0.00062
3939.04909,0.00066
3936.98892,0.00092
3934.92874,0.00115
3932.86857,0.00134
3930.80840,0.00124
3928.74823,0.00089
3926.68805,0.00088
3924.62788,0.00092
3922.56771,0.00059
3920.50754,0.00069
3918.44737,0.00124
3916.38719,0.00140
3914.32702,0.00120
3912.26685,0.00121
3910.20668,0.00093
3908.14651,0.00032
3906.08633,0.00032
3904.02616,0.00064
3901.96599,0.00071
3899.90582,0.00099
3897.84565,0.00072
3895.78547,0.00024
3893.72530,0.00082
3891.66513,0.00149
3889.60496,0.00083
3887.54478,0.00083
3885.48461,0.00143
3883.42444,0.00122
3881.36427,0.00169
3879.30410,0.00158
3877.24392,0.00099
3875.18375,0.00149
3873.12358,0.00183
3871.06341,0.00207
3869.00324,0.00141
3866.94306,0.00057
3864.88289,0.00132
3862.82272,0.00157
3860.76255,0.00082
3858.70237,0.00024
3856.64220,0.00124
3854.58203,0.00389
3852.52186,0.00404
3850.46169,0.00153
3848.40151,0.00041
3846.34134,0.00084
3844.28117,0.00144
3842.22100,0.00134
3840.16083,0.00137
3838.10065,0.00153
3836.04048,0.00114
3833.98031,0.00120
3831.92014,0.00155
3829.85997,0.00138
3827.79979,0.00136
3825.73962,0.00099
3823.67945,0.00077
3821.61928,0.00118
3819.55910,0.00048
3817.49893,0.00117
3815.43876,0.00232
3813.37859,0.00166
3811.31842,0.00137
3809.25824,0.00212
3807.19807,0.00241
3805.13790,0.00133
3803.07773,0.00164
3801.01756,0.00217
3798.95738,0.00135
3796.89721,0.00145
3794.83704,0.00130
3792.77687,0.00079
3790.71670,0.00065
3788.65652,0.00069
3786.59635,0.00111
3784.53618,0.00140
3782.47601,0.00138
3780.41583,0.00190
3778.35566,0.00209
3776.29549,0.00169
3774.23532,0.00163
3772.17515,0.00213
3770.11497,0.00257
3768.05480,0.00224
3765.99463,0.00197
3763.93446,0.00161
3761.87429,0.00184
3759.81411,0.00252
3757.75394,0.00181
3755.69377,0.00054
3753.63360,0.00105
3751.57342,0.00236
3749.51325,0.00139
3747.45308,0.00030
3745.39291,0.00191
3743.33274,0.00204
3741.27256,0.00043
3739.21239,0.00030
3737.15222,0.00111
3735.09205,0.00132
3733.03188,0.00090
3730.97170,0.00055
3728.91153,0.00100
3726.85136,0.00219
3724.79119,0.00259
3722.73102,0.00243
3720.67084,0.00218
3718.61067,0.00178
3716.55050,0.00143
3714.49033,0.00180
3712.43015,0.00272
3710.36998,0.00271
3708.30981,0.00194
3706.24964,0.00168
3704.18947,0.00230
3702.12929,0.00283
3700.06912,0.00243
3698.00895,0.00223
3695.94878,0.00229
3693.88861,0.00220
3691.82843,0.00267
3689.76826,0.00330
3687.70809,0.00271
3685.64792,0.00198
3683.58775,0.00249
3681.52757,0.00314
3679.46740,0.00311
3677.40723,0.00337
3675.34706,0.00331
3673.28688,0.00195
3671.22671,0.00298
3669.16654,0.00428
3667.10637,0.00365
3665.04620,0.00361
3662.98602,0.00418
3660.92585,0.00429
3658.86568,0.00437
3656.80551,0.00465
3654.74534,0.00408
3652.68516,0.00428
3650.62499,0.00601
3648.56482,0.00663
3646.50465,0.00599
3644.44447,0.00592
3642.38430,0.00682
3640.32413,0.00753
3638.26396,0.00774
3636.20379,0.00790
3634.14361,0.00801
3632.08344,0.00824
3630.02327,0.00964
3627.96310,0.00997
3625.90293,0.00860
3623.84275,0.00831
3621.78258,0.00934
3619.72241,0.01024
3617.66224,0.00985
3615.60207,0.00980
3613.54189,0.01076
3611.48172,0.01126
3609.42155,0.01183
3607.36138,0.01258
3605.30120,0.01288
3603.24103,0.01319
3601.18086,0.01353
3599.12069,0.01364
3597.06052,0.01405
3595.00034,0.01460
3592.94017,0.01446
3590.88000,0.01439
3588.81983,0.01539
3586.75966,0.01633
3584.69948,0.01656
3582.63931,0.01704
3580.57914,0.01768
3578.51897,0.01816
3576.45879,0.01848
3574.39862,0.01851
3572.33845,0.01828
3570.27828,0.01856
3568.21811,0.01957
3566.15793,0.02000
3564.09776,0.01998
3562.03759,0.02058
3559.97742,0.02121
3557.91725,0.02138
3555.85707,0.02168
3553.79690,0.02239
3551.73673,0.02287
3549.67656,0.02304
3547.61639,0.02344
3545.55621,0.02369
3543.49604,0.02367
3541.43587,0.02398
3539.37570,0.02473
3537.31552,0.02553
3535.25535,0.02589
3533.19518,0.02595
3531.13501,0.02625
3529.07484,0.02684
3527.01466,0.02742
3524.95449,0.02781
3522.89432,0.02791
3520.83415,0.02797
3518.77398,0.02837
3516.71380,0.02889
3514.65363,0.02943
3512.59346,0.03010
3510.53329,0.03065
3508.47312,0.03065
3506.41294,0.03063
3504.35277,0.03122
3502.29260,0.03160
3500.23243,0.03153
3498.17225,0.03165
3496.11208,0.03202
3494.05191,0.03252
3491.99174,0.03309
3489.93157,0.03357
3487.87139,0.03385
3485.81122,0.03404
3483.75105,0.03438
3481.69088,0.03463
3479.63071,0.03472
3477.57053,0.03508
3475.51036,0.03559
3473.45019,0.03586
3471.39002,0.03595
3469.32984,0.03619
3467.26967,0.03668
3465.20950,0.03720
3463.14933,0.03750
3461.08916,0.03746
3459.02898,0.03739
3456.96881,0.03754
3454.90864,0.03784
3452.84847,0.03819
3450.78830,0.03846
3448.72812,0.03882
3446.66795,0.03908
3444.60778,0.03913
3442.54761,0.03942
3440.48744,0.03980
3438.42726,0.04009
3436.36709,0.04012
3434.30692,0.04008
3432.24675,0.04028
3430.18657,0.04054
3428.12640,0.04076
3426.06623,0.04108
3424.00606,0.04153
3421.94589,0.04186
3419.88571,0.04173
3417.82554,0.04172
3415.76537,0.04227
3413.70520,0.04281
3411.64503,0.04297
3409.58485,0.04304
3407.52468,0.04316
3405.46451,0.04330
3403.40434,0.04346
3401.34416,0.04368
3399.28399,0.04395
3397.22382,0.04390
3395.16365,0.04359
3393.10348,0.04354
3391.04330,0.04380
3388.98313,0.04433
3386.92296,0.04484
3384.86279,0.04489
3382.80262,0.04478
3380.74244,0.04492
3378.68227,0.04519
3376.62210,0.04536
3374.56193,0.04531
3372.50176,0.04522
3370.44158,0.04536
3368.38141,0.04567
3366.32124,0.04578
3364.26107,0.04580
3362.20089,0.04600
3360.14072,0.04603
3358.08055,0.04571
3356.02038,0.04546
3353.96021,0.04555
3351.90003,0.04592
3349.83986,0.04620
3347.77969,0.04613
3345.71952,0.04594
3343.65935,0.04598
3341.59917,0.04623
3339.53900,0.04647
3337.47883,0.04658
3335.41866,0.04667
3333.35849,0.04678
3331.29831,0.04686
3329.23814,0.04690
3327.17797,0.04684
3325.11780,0.04663
3323.05762,0.04636
3320.99745,0.04628
3318.93728,0.04639
3316.87711,0.04655
3314.81694,0.04660
3312.75676,0.04646
3310.69659,0.04629
3308.63642,0.04626
3306.57625,0.04638
3304.51608,0.04655
3302.45590,0.04654
3300.39573,0.04655
3298.33556,0.04671
3296.27539,0.04682
3294.21521,0.04673
3292.15504,0.04663
3290.09487,0.04674
3288.03470,0.04705
3285.97453,0.04721
3283.91435,0.04707
3281.85418,0.04697
3279.79401,0.04707
3277.73384,0.04728
3275.67367,0.04751
3273.61349,0.04756
3271.55332,0.04734
3269.49315,0.04707
3267.43298,0.04687
3265.37281,0.04671
3263.31263,0.04669
3261.25246,0.04673
3259.19229,0.04678
3257.13212,0.04693
3255.07194,0.04703
3253.01177,0.04685
3250.95160,0.04674
3248.89143,0.04706
3246.83126,0.04737
3244.77108,0.04718
3242.71091,0.04675
3240.65074,0.04659
3238.59057,0.04661
3236.53040,0.04661
3234.47022,0.04660
3232.41005,0.04652
3230.34988,0.04643
3228.28971,0.04644
3226.22954,0.04645
3224.16936,0.04642
3222.10919,0.04634
3220.04902,0.04605
3217.98885,0.04563
3215.92867,0.04547
3213.86850,0.04551
3211.80833,0.04549
3209.74816,0.04544
3207.68799,0.04527
3205.62781,0.04504
3203.56764,0.04501
3201.50747,0.04497
3199.44730,0.04490
3197.38713,0.04480
3195.32695,0.04444
3193.26678,0.04421
3191.20661,0.04440
3189.14644,0.04455
3187.08626,0.04436
3185.02609,0.04404
3182.96592,0.04379
3180.90575,0.04362
3178.84558,0.04347
3176.78540,0.04330
3174.72523,0.04315
3172.66506,0.04298
3170.60489,0.04284
3168.54472,0.04289
3166.48454,0.04292
3164.42437,0.04276
3162.36420,0.04256
3160.30403,0.04224
3158.24386,0.04191
3156.18368,0.04186
3154.12351,0.04192
3152.06334,0.04175
3150.00317,0.04141
3147.94299,0.04109
3145.88282,0.04098
3143.82265,0.04098
3141.76248,0.04088
3139.70231,0.04068
3137.64213,0.04051
3135.58196,0.04034
3133.52179,0.04008
3131.46162,0.03975
3129.40145,0.03952
3127.34127,0.03938
3125.28110,0.03923
3123.22093,0.03911
3121.16076,0.03899
3119.10058,0.03897
3117.04041,0.03915
3114.98024,0.03924
3112.92007,0.03900
3110.85990,0.03862
3108.79972,0.03829
3106.73955,0.03796
3104.67938,0.03754
3102.61921,0.03716
3100.55904,0.03700
3098.49886,0.03696
3096.43869,0.03683
3094.37852,0.03658
3092.31835,0.03649
3090.25818,0.03657
3088.19800,0.03650
3086.13783,0.03624
3084.07766,0.03597
3082.01749,0.03569
3079.95731,0.03544
3077.89714,0.03541
3075.83697,0.03546
3073.77680,0.03536
3071.71663,0.03514
3069.65645,0.03481
3067.59628,0.03440
3065.53611,0.03408
3063.47594,0.03387
3061.41577,0.03366
3059.35559,0.03342
3057.29542,0.03326
3055.23525,0.03316
3053.17508,0.03300
3051.11491,0.03276
3049.05473,0.03251
3046.99456,0.03232
3044.93439,0.03215
3042.87422,0.03184
3040.81404,0.03137
3038.75387,0.03105
3036.69370,0.03097
3034.63353,0.03099
3032.57336,0.03102
3030.51318,0.03094
3028.45301,0.03067
3026.39284,0.03041
3024.33267,0.03027
3022.27250,0.03010
3020.21232,0.02990
3018.15215,0.02973
3016.09198,0.02956
3014.03181,0.02941
3011.97163,0.02926
3009.91146,0.02901
3007.85129,0.02867
3005.79112,0.02831
3003.73095,0.02805
3001.67077,0.02790
2999.61060,0.02776
2997.55043,0.02770
2995.49026,0.02781
2993.43009,0.02786
2991.36991,0.02769
2989.30974,0.02740
2987.24957,0.02716
2985.18940,0.02705
2983.12923,0.02697
2981.06905,0.02690
2979.00888,0.02686
2976.94871,0.02685
2974.88854,0.02680
2972.82836,0.02679
2970.76819,0.02686
2968.70802,0.02691
2966.64785,0.02695
2964.58768,0.02697
2962.52750,0.02693
2960.46733,0.02695
2958.40716,0.02702
2956.34699,0.02706
2954.28682,0.02714
2952.22664,0.02723
2950.16647,0.02724
2948.10630,0.02724
2946.04613,0.02725
2943.98596,0.02730
2941.92578,0.02746
2939.86561,0.02772
2937.80544,0.02781
2935.74527,0.02766
2933.68509,0.02747
2931.62492,0.02742
2929.56475,0.02754
2927.50458,0.02769
2925.44441,0.02774
2923.38423,0.02763
2921.32406,0.02745
2919.26389,0.02743
2917.20372,0.02751
2915.14355,0.02735
2913.08337,0.02686
2911.02320,0.02627
2908.96303,0.02583
2906.90286,0.02562
2904.84268,0.02559
2902.78251,0.02566
2900.72234,0.02565
2898.66217,0.02546
2896.60200,0.02530
2894.54182,0.02532
2892.48165,0.02532
2890.42148,0.02507
2888.36131,0.02479
2886.30114,0.02470
2884.24096,0.02464
2882.18079,0.02454
2880.12062,0.02446
2878.06045,0.02434
2876.00028,0.02428
2873.94010,0.02426
2871.87993,0.02408
2869.81976,0.02380
2867.75959,0.02362
2865.69941,0.02348
2863.63924,0.02336
2861.57907,0.02326
2859.51890,0.02321
2857.45873,0.02315
2855.39855,0.02307
2853.33838,0.02296
2851.27821,0.02275
2849.21804,0.02260
2847.15787,0.02244
2845.09769,0.02212
2843.03752,0.02194
2840.97735,0.02196
2838.91718,0.02180
2836.85700,0.02144
2834.79683,0.02103
2832.73666,0.02065
2830.67649,0.02040
2828.61632,0.02029
2826.55614,0.02017
2824.49597,0.02006
2822.43580,0.01999
2820.37563,0.01989
2818.31546,0.01974
2816.25528,0.01960
2814.19511,0.01950
2812.13494,0.01943
2810.07477,0.01937
2808.01460,0.01931
2805.95442,0.01923
2803.89425,0.01916
2801.83408,0.01909
2799.77391,0.01907
2797.71373,0.01912
2795.65356,0.01908
2793.59339,0.01890
2791.53322,0.01878
2789.47305,0.01873
2787.41287,0.01860
2785.35270,0.01836
2783.29253,0.01817
2781.23236,0.01812
2779.17219,0.01817
2777.11201,0.01818
2775.05184,0.01803
2772.99167,0.01782
2770.93150,0.01778
2768.87133,0.01776
2766.81115,0.01760
2764.75098,0.01747
2762.69081,0.01742
2760.63064,0.01727
2758.57046,0.01702
2756.51029,0.01688
2754.45012,0.01693
2752.38995,0.01702
2750.32978,0.01703
2748.26960,0.01690
2746.20943,0.01671
2744.14926,0.01655
2742.08909,0.01642
2740.02892,0.01643
2737.96874,0.01653
2735.90857,0.01655
2733.84840,0.01647
2731.78823,0.01633
2729.72805,0.01623
2727.66788,0.01619
2725.60771,0.01615
2723.54754,0.01617
2721.48737,0.01618
2719.42719,0.01599
2717.36702,0.01573
2715.30685,0.01560
2713.24668,0.01562
2711.18651,0.01573
2709.12633,0.01569
2707.06616,0.01542
2705.00599,0.01520
2702.94582,0.01518
2700.88565,0.01513
2698.82547,0.01499
2696.76530,0.01483
2694.70513,0.01471
2692.64496,0.01473
2690.58478,0.01480
2688.52461,0.01479
2686.46444,0.01470
2684.40427,0.01454
2682.34410,0.01434
2680.28392,0.01415
2678.22375,0.01402
2676.16358,0.01401
2674.10341,0.01406
2672.04324,0.01400
2669.98306,0.01372
2667.92289,0.01342
2665.86272,0.01332
2663.80255,0.01331
2661.74238,0.01331
2659.68220,0.01330
2657.62203,0.01317
2655.56186,0.01304
2653.50169,0.01303
2651.44151,0.01300
2649.38134,0.01289
2647.32117,0.01278
2645.26100,0.01265
2643.20083,0.01254
2641.14065,0.01255
2639.08048,0.01258
2637.02031,0.01248
2634.96014,0.01230
2632.89997,0.01229
2630.83979,0.01241
2628.77962,0.01229
2626.71945,0.01186
2624.65928,0.01160
2622.59910,0.01161
2620.53893,0.01148
2618.47876,0.01137
2616.41859,0.01150
2614.35842,0.01138
2612.29824,0.01099
2610.23807,0.01083
2608.17790,0.01083
2606.11773,0.01076
2604.05756,0.01068
2601.99738,0.01075
2599.93721,0.01080
2597.87704,0.01062
2595.81687,0.01043
2593.75670,0.01044
2591.69652,0.01064
2589.63635,0.01073
2587.57618,0.01057
2585.51601,0.01058
2583.45583,0.01071
2581.39566,0.01051
2579.33549,0.01009
2577.27532,0.00978
2575.21515,0.00959
2573.15497,0.00963
2571.09480,0.00998
2569.03463,0.01041
2566.97446,0.01055
2564.91429,0.01014
2562.85411,0.00969
2560.79394,0.00979
2558.73377,0.00996
2556.67360,0.00976
2554.61342,0.00961
2552.55325,0.00966
2550.49308,0.00973
2548.43291,0.00988
2546.37274,0.01005
2544.31256,0.01014
2542.25239,0.01011
2540.19222,0.00990
2538.13205,0.00970
2536.07188,0.00961
2534.01170,0.00961
2531.95153,0.00964
2529.89136,0.00962
2527.83119,0.00950
2525.77102,0.00932
2523.71084,0.00926
2521.65067,0.00939
2519.59050,0.00960
2517.53033,0.00965
2515.47015,0.00946
2513.40998,0.00933
2511.34981,0.00943
2509.28964,0.00958
2507.22947,0.00956
2505.16929,0.00933
2503.10912,0.00925
2501.04895,0.00943
2498.98878,0.00958
2496.92861,0.00954
2494.86843,0.00933
2492.80826,0.00929
2490.74809,0.00955
2488.68792,0.00985
2486.62775,0.00998
2484.56757,0.00984
2482.50740,0.00968
2480.44723,0.00969
2478.38706,0.00978
2476.32688,0.00980
2474.26671,0.00968
2472.20654,0.00946
2470.14637,0.00929
2468.08620,0.00925
2466.02602,0.00933
2463.96585,0.00961
2461.90568,0.01005
2459.84551,0.01021
2457.78534,0.01000
2455.72516,0.00983
2453.66499,0.00975
2451.60482,0.00961
2449.54465,0.00954
2447.48447,0.00973
2445.42430,0.01010
2443.36413,0.01019
2441.30396,0.00986
2439.24379,0.00950
2437.18361,0.00937
2435.12344,0.00942
2433.06327,0.00947
2431.00310,0.00942
2428.94293,0.00939
2426.88275,0.00931
2424.82258,0.00923
2422.76241,0.00932
2420.70224,0.00950
2418.64207,0.00945
2416.58189,0.00912
2414.52172,0.00888
2412.46155,0.00896
2410.40138,0.00911
2408.34120,0.00915
2406.28103,0.00920
2404.22086,0.00936
2402.16069,0.00945
2400.10052,0.00939
2398.04034,0.00924
2395.98017,0.00902
2393.92000,0.00880
2391.85983,0.00865
2389.79966,0.00869
2387.73948,0.00890
2385.67931,0.00906
2383.61914,0.00906
2381.55897,0.00902
2379.49880,0.00894
2377.43862,0.00872
2375.37845,0.00848
2373.31828,0.00857
2371.25811,0.00872
2369.19793,0.00780
2367.13776,0.00551
2365.07759,0.00360
2363.01742,0.00310
2360.95725,0.00291
2358.89707,0.00366
2356.83690,0.00598
2354.77673,0.00798
2352.71656,0.00882
2350.65639,0.00894
2348.59621,0.00882
2346.53604,0.00878
2344.47587,0.00888
2342.41570,0.00909
2340.35552,0.00956
2338.29535,0.01020
2336.23518,0.01015
2334.17501,0.00895
2332.11484,0.00767
2330.05466,0.00754
2327.99449,0.00828
2325.93432,0.00886
2323.87415,0.00892
2321.81398,0.00873
2319.75380,0.00877
2317.69363,0.00915
2315.63346,0.00957
2313.57329,0.00980
2311.51312,0.00972
2309.45294,0.00927
2307.39277,0.00879
2305.33260,0.00865
2303.27243,0.00891
2301.21225,0.00931
2299.15208,0.00941
2297.09191,0.00913
2295.03174,0.00883
2292.97157,0.00861
2290.91139,0.00837
2288.85122,0.00837
2286.79105,0.00872
2284.73088,0.00903
2282.67071,0.00889
2280.61053,0.00839
2278.55036,0.00808
2276.49019,0.00812
2274.43002,0.00808
2272.36984,0.00804
2270.30967,0.00830
2268.24950,0.00843
2266.18933,0.00809
2264.12916,0.00759
2262.06898,0.00714
2260.00881,0.00700
2257.94864,0.00736
2255.88847,0.00786
2253.82830,0.00821
2251.76812,0.00806
2249.70795,0.00739
2247.64778,0.00708
2245.58761,0.00717
2243.52744,0.00709
2241.46726,0.00734
2239.40709,0.00780
2237.34692,0.00790
2235.28675,0.00797
2233.22657,0.00815
2231.16640,0.00816
2229.10623,0.00797
2227.04606,0.00776
2224.98589,0.00782
2222.92571,0.00775
2220.86554,0.00725
2218.80537,0.00686
2216.74520,0.00678
2214.68503,0.00682
2212.62485,0.00669
2210.56468,0.00620
2208.50451,0.00594
2206.44434,0.00658
2204.38417,0.00790
2202.32399,0.00867
2200.26382,0.00797
2198.20365,0.00696
2196.14348,0.00682
2194.08330,0.00697
2192.02313,0.00681
2189.96296,0.00631
2187.90279,0.00586
2185.84262,0.00583
2183.78244,0.00578
2181.72227,0.00533
2179.66210,0.00486
2177.60193,0.00473
2175.54176,0.00495
2173.48158,0.00575
2171.42141,0.00690
2169.36124,0.00698
2167.30107,0.00637
2165.24089,0.00678
2163.18072,0.00696
2161.12055,0.00478
2159.06038,0.00266
2157.00021,0.00310
2154.94003,0.00396
2152.87986,0.00398
2150.81969,0.00441
2148.75952,0.00550
2146.69935,0.00621
2144.63917,0.00668
2142.57900,0.00701
2140.51883,0.00678
2138.45866,0.00596
2136.39849,0.00504
2134.33831,0.00517
2132.27814,0.00609
2130.21797,0.00624
2128.15780,0.00567
2126.09762,0.00558
2124.03745,0.00586
2121.97728,0.00614
2119.91711,0.00656
2117.85694,0.00690
2115.79676,0.00689
2113.73659,0.00656
2111.67642,0.00624
2109.61625,0.00621
2107.55608,0.00624
2105.49590,0.00608
2103.43573,0.00584
2101.37556,0.00571
2099.31539,0.00576
2097.25521,0.00595
2095.19504,0.00610
2093.13487,0.00610
2091.07470,0.00612
2089.01453,0.00619
2086.95435,0.00607
2084.89418,0.00575
2082.83401,0.00576
2080.77384,0.00625
2078.71367,0.00631
2076.65349,0.00571
2074.59332,0.00553
2072.53315,0.00600
2070.47298,0.00647
2068.41281,0.00639
2066.35263,0.00562
2064.29246,0.00495
2062.23229,0.00508
2060.17212,0.00577
2058.11194,0.00630
2056.05177,0.00616
2053.99160,0.00590
2051.93143,0.00579
2049.87126,0.00506
2047.81108,0.00375
2045.75091,0.00279
2043.69074,0.00271
2041.63057,0.00327
2039.57040,0.00384
2037.51022,0.00447
2035.45005,0.00481
2033.38988,0.00382
2031.32971,0.00210
2029.26954,0.00116
2027.20936,0.00124
2025.14919,0.00203
2023.08902,0.00271
2021.02885,0.00277
2018.96867,0.00297
2016.90850,0.00328
2014.84833,0.00336
2012.78816,0.00421
2010.72799,0.00516
2008.66781,0.00462
2006.60764,0.00337
2004.54747,0.00297
2002.48730,0.00345
2000.42713,0.00377
1998.36695,0.00325
1996.30678,0.00268
1994.24661,0.00310
1992.18644,0.00397
1990.12626,0.00384
1988.06609,0.00308
1986.00592,0.00275
1983.94575,0.00295
1981.88558,0.00305
1979.82540,0.00277
1977.76523,0.00255
1975.70506,0.00280
1973.64489,0.00308
1971.58472,0.00239
1969.52454,0.00154
1967.46437,0.00158
1965.40420,0.00143
1963.34403,0.00123
1961.28386,0.00202
1959.22368,0.00287
1957.16351,0.00273
1955.10334,0.00209
1953.04317,0.00193
1950.98299,0.00250
1948.92282,0.00270
1946.86265,0.00195
1944.80248,0.00152
1942.74231,0.00188
1940.68213,0.00187
1938.62196,0.00176
1936.56179,0.00180
1934.50162,0.00186
1932.44145,0.00226
1930.38127,0.00271
1928.32110,0.00280
1926.26093,0.00272
1924.20076,0.00291
1922.14059,0.00278
1920.08041,0.00252
1918.02024,0.00278
1915.96007,0.00277
1913.89990,0.00276
1911.83972,0.00282
1909.77955,0.00272
1907.71938,0.00256
1905.65921,0.00262
1903.59904,0.00278
1901.53886,0.00283
1899.47869,0.00293
1897.41852,0.00313
1895.35835,0.00300
1893.29818,0.00244
1891.23800,0.00247
1889.17783,0.00276
1887.11766,0.00254
1885.05749,0.00258
1882.99731,0.00276
1880.93714,0.00265
1878.87697,0.00246
1876.81680,0.00228
1874.75663,0.00194
1872.69645,0.00167
1870.63628,0.00218
1868.57611,0.00271
1866.51594,0.00232
1864.45577,0.00212
1862.39559,0.00244
1860.33542,0.00247
1858.27525,0.00209
1856.21508,0.00178
1854.15491,0.00191
1852.09473,0.00236
1850.03456,0.00273
1847.97439,0.00265
1845.91422,0.00262
1843.85404,0.00253
1841.79387,0.00174
1839.73370,0.00162
1837.67353,0.00215
1835.61336,0.00223
1833.55318,0.00208
1831.49301,0.00241
1829.43284,0.00241
1827.37267,0.00203
1825.31250,0.00241
1823.25232,0.00251
1821.19215,0.00223
1819.13198,0.00233
1817.07181,0.00255
1815.01163,0.00248
1812.95146,0.00247
1810.89129,0.00266
1808.83112,0.00261
1806.77095,0.00240
1804.71077,0.00222
1802.65060,0.00230
1800.59043,0.00230
1798.53026,0.00177
1796.47009,0.00127
1794.40991,0.00171
1792.34974,0.00254
1790.28957,0.00229
1788.22940,0.00198
1786.16923,0.00228
1784.10905,0.00230
1782.04888,0.00227
1779.98871,0.00236
1777.92854,0.00204
1775.86836,0.00194
1773.80819,0.00262
1771.74802,0.00295
1769.68785,0.00251
1767.62768,0.00246
1765.56750,0.00247
1763.50733,0.00307
1761.44716,0.00351
1759.38699,0.00314
1757.32682,0.00322
1755.26664,0.00315
1753.20647,0.00356
1751.14630,0.00473
1749.08613,0.00495
1747.02596,0.00452
1744.96578,0.00454
1742.90561,0.00505
1740.84544,0.00549
1738.78527,0.00488
1736.72509,0.00472
1734.66492,0.00635
1732.60475,0.00636
1730.54458,0.00566
1728.48441,0.00585
1726.42423,0.00615
1724.36406,0.00631
1722.30389,0.00591
1720.24372,0.00625
1718.18355,0.00769
1716.12337,0.00763
1714.06320,0.00669
1712.00303,0.00633
1709.94286,0.00650
1707.88268,0.00696
1705.82251,0.00710
1703.76234,0.00657
1701.70217,0.00752
1699.64200,0.00839
1697.58182,0.00838
1695.52165,0.00932
1693.46148,0.00925
1691.40131,0.00948
1689.34114,0.00980
1687.28096,0.01014
1685.22079,0.01226
1683.16062,0.01304
1681.10045,0.01196
1679.04028,0.01211
1676.98010,0.01362
1674.91993,0.01457
1672.85976,0.01423
1670.79959,0.01520
1668.73941,0.01593
1666.67924,0.01541
1664.61907,0.01643
1662.55890,0.01815
1660.49873,0.01802
1658.43855,0.01714
1656.37838,0.01776
1654.31821,0.02059
1652.25804,0.02066
1650.19787,0.01834
1648.13769,0.01964
1646.07752,0.02131
1644.01735,0.02052
1641.95718,0.01995
1639.89701,0.02005
1637.83683,0.02096
1635.77666,0.02191
1633.71649,0.02067
1631.65632,0.01973
1629.59614,0.02034
1627.53597,0.02063
1625.47580,0.02062
1623.41563,0.02084
1621.35546,0.02005
1619.29528,0.02004
1617.23511,0.02123
1615.17494,0.02065
1613.11477,0.01969
1611.05460,0.01999
1608.99442,0.02028
1606.93425,0.01998
1604.87408,0.01964
1602.81391,0.01945
1600.75373,0.01903
1598.69356,0.01845
1596.63339,0.01803
1594.57322,0.01764
1592.51305,0.01711
1590.45287,0.01651
1588.39270,0.01576
1586.33253,0.01501
1584.27236,0.01438
1582.21219,0.01362
1580.15201,0.01278
1578.09184,0.01295
1576.03167,0.01285
1573.97150,0.01076
1571.91133,0.01015
1569.85115,0.01102
1567.79098,0.01014
1565.73081,0.00885
1563.67064,0.00781
1561.61046,0.00844
1559.55029,0.01083
1557.49012,0.00903
1555.42995,0.00676
1553.36978,0.00665
1551.30960,0.00697
1549.24943,0.00674
1547.18926,0.00598
1545.12909,0.00578
1543.06892,0.00608
1541.00874,0.00711
1538.94857,0.00615
1536.88840,0.00387
1534.82823,0.00458
1532.76805,0.00555
1530.70788,0.00455
1528.64771,0.00427
1526.58754,0.00423
1524.52737,0.00369
1522.46719,0.00402
1520.40702,0.00373
1518.34685,0.00321
1516.28668,0.00346
1514.22651,0.00300
1512.16633,0.00240
1510.10616,0.00261
1508.04599,0.00449
1505.98582,0.00472
1503.92565,0.00236
1501.86547,0.00172
1499.80530,0.00281
1497.74513,0.00372
1495.68496,0.00318
1493.62478,0.00224
1491.56461,0.00294
1489.50444,0.00392
1487.44427,0.00355
1485.38410,0.00304
1483.32392,0.00327
1481.26375,0.00367
1479.20358,0.00353
1477.14341,0.00357
1475.08324,0.00430
1473.02306,0.00536
1470.96289,0.00502
1468.90272,0.00439
1466.84255,0.00539
1464.78238,0.00620
1462.72220,0.00519
1460.66203,0.00493
1458.60186,0.00688
1456.54169,0.00792
1454.48151,0.00667
1452.42134,0.00618
1450.36117,0.00669
1448.30100,0.00726
1446.24083,0.00726
1444.18065,0.00704
1442.12048,0.00689
1440.06031,0.00679
1438.00014,0.00757
1435.93997,0.00780
1433.87979,0.00689
1431.81962,0.00720
1429.75945,0.00805
1427.69928,0.00814
1425.63910,0.00831
1423.57893,0.00841
1421.51876,0.00868
1419.45859,0.00974
1417.39842,0.00972
1415.33824,0.00918
1413.27807,0.00935
1411.21790,0.00959
1409.15773,0.00944
1407.09756,0.00943
1405.03738,0.00941
1402.97721,0.00874
1400.91704,0.00837
1398.85687,0.00825
1396.79670,0.00794
1394.73652,0.00794
1392.67635,0.00756
1390.61618,0.00736
1388.55601,0.00795
1386.49583,0.00819
1384.43566,0.00785
1382.37549,0.00790
1380.31532,0.00809
1378.25515,0.00805
1376.19497,0.00815
1374.13480,0.00823
1372.07463,0.00773
1370.01446,0.00752
1367.95429,0.00756
1365.89411,0.00744
1363.83394,0.00759
1361.77377,0.00741
1359.71360,0.00680
1357.65343,0.00659
1355.59325,0.00666
1353.53308,0.00649
1351.47291,0.00613
1349.41274,0.00591
1347.35256,0.00583
1345.29239,0.00572
1343.23222,0.00561
1341.17205,0.00578
1339.11188,0.00585
1337.05170,0.00549
1334.99153,0.00527
1332.93136,0.00529
1330.87119,0.00534
1328.81102,0.00542
1326.75084,0.00551
1324.69067,0.00544
1322.63050,0.00527
1320.57033,0.00527
1318.51015,0.00529
1316.44998,0.00519
1314.38981,0.00513
1312.32964,0.00501
1310.26947,0.00493
1308.20929,0.00506
1306.14912,0.00513
1304.08895,0.00511
1302.02878,0.00509
1299.96861,0.00506
1297.90843,0.00503
1295.84826,0.00507
1293.78809,0.00510
1291.72792,0.00504
1289.66775,0.00498
1287.60757,0.00498
1285.54740,0.00500
1283.48723,0.00513
1281.42706,0.00531
1279.36688,0.00540
1277.30671,0.00544
1275.24654,0.00554
1273.18637,0.00568
1271.12620,0.00573
1269.06602,0.00569
1267.00585,0.00570
1264.94568,0.00578
1262.88551,0.00595
1260.82534,0.00617
1258.76516,0.00633
1256.70499,0.00638
1254.64482,0.00640
1252.58465,0.00641
1250.52447,0.00637
1248.46430,0.00632
1246.40413,0.00631
1244.34396,0.00619
1242.28379,0.00600
1240.22361,0.00583
1238.16344,0.00557
1236.10327,0.00528
1234.04310,0.00515
1231.98293,0.00512
1229.92275,0.00499
1227.86258,0.00478
1225.80241,0.00450
1223.74224,0.00416
1221.68207,0.00385
1219.62189,0.00363
1217.56172,0.00340
1215.50155,0.00311
1213.44138,0.00276
1211.38120,0.00241
1209.32103,0.00215
1207.26086,0.00201
1205.20069,0.00195
1203.14052,0.00187
1201.08034,0.00179
1199.02017,0.00169
1196.96000,0.00158
1194.89983,0.00155
1192.83966,0.00161
1190.77948,0.00162
1188.71931,0.00165
1186.65914,0.00178
1184.59897,0.00204
1182.53880,0.00238
1180.47862,0.00286
1178.41845,0.00358
1176.35828,0.00426
1174.29811,0.00486
1172.23793,0.00561
1170.17776,0.00643
1168.11759,0.00724
1166.05742,0.00801
1163.99725,0.00869
1161.93707,0.00932
1159.87690,0.00999
1157.81673,0.01062
1155.75656,0.01115
1153.69639,0.01166
1151.63621,0.01221
1149.57604,0.01282
1147.51587,0.01346
1145.45570,0.01418
1143.39552,0.01494
1141.33535,0.01559
1139.27518,0.01608
1137.21501,0.01660
1135.15484,0.01729
1133.09466,0.01818
1131.03449,0.01910
1128.97432,0.01979
1126.91415,0.02025
1124.85398,0.02075
1122.79380,0.02139
1120.73363,0.02209
1118.67346,0.02284
1116.61329,0.02375
1114.55312,0.02468
1112.49294,0.02544
1110.43277,0.02629
1108.37260,0.02754
1106.31243,0.02892
1104.25225,0.03018
1102.19208,0.03134
1100.13191,0.03254
1098.07174,0.03371
1096.01157,0.03466
1093.95139,0.03557
1091.89122,0.03682
1089.83105,0.03820
1087.77088,0.03930
1085.71071,0.04024
1083.65053,0.04122
1081.59036,0.04227
1079.53019,0.04331
1077.47002,0.04429
1075.40985,0.04523
1073.34967,0.04592
1071.28950,0.04633
1069.22933,0.04670
1067.16916,0.04717
1065.10898,0.04763
1063.04881,0.04798
1060.98864,0.04828
1058.92847,0.04836
1056.86830,0.04815
1054.80812,0.04799
1052.74795,0.04792
1050.68778,0.04784
1048.62761,0.04769
1046.56744,0.04736
1044.50726,0.04695
1042.44709,0.04645
1040.38692,0.04586
1038.32675,0.04522
1036.26657,0.04459
1034.20640,0.04412
1032.14623,0.04371
1030.08606,0.04314
1028.02589,0.04258
1025.96571,0.04199
1023.90554,0.04121
1021.84537,0.04027
1019.78520,0.03933
1017.72503,0.03844
1015.66485,0.03757
1013.60468,0.03663
1011.54451,0.03559
1009.48434,0.03451
1007.42417,0.03356
1005.36399,0.03282
1003.30382,0.03226
1001.24365,0.03188
999.18348,0.03172
997.12330,0.03183
995.06313,0.03221
993.00296,0.03269
990.94279,0.03306
988.88262,0.03331
986.82244,0.03351
984.76227,0.03346
982.70210,0.03311
980.64193,0.03251
978.58176,0.03156
976.52158,0.03041
974.46141,0.02926
972.40124,0.02805
970.34107,0.02662
968.28089,0.02505
966.22072,0.02356
964.16055,0.02224
962.10038,0.02103
960.04021,0.01983
957.98003,0.01861
955.91986,0.01747
953.85969,0.01652
951.79952,0.01570
949.73935,0.01486
947.67917,0.01410
945.61900,0.01365
943.55883,0.01331
941.49866,0.01301
939.43849,0.01275
937.37831,0.01231
935.31814,0.01173
933.25797,0.01134
931.19780,0.01106
929.13762,0.01071
927.07745,0.01049
925.01728,0.01030
922.95711,0.00993
920.89694,0.00951
918.83676,0.00910
916.77659,0.00861
914.71642,0.00802
912.65625,0.00746
910.59608,0.00714
908.53590,0.00695
906.47573,0.00670
904.41556,0.00654
902.35539,0.00649
900.29522,0.00648
898.23504,0.00657
896.17487,0.00670
894.11470,0.00674
892.05453,0.00677
889.99435,0.00688
887.93418,0.00713
885.87401,0.00737
883.81384,0.00736
881.75367,0.00728
879.69349,0.00747
877.63332,0.00789
875.57315,0.00833
873.51298,0.00896
871.45281,0.00948
869.39263,0.00941
867.33246,0.00923
865.27229,0.00920
863.21212,0.00906
861.15194,0.00908
859.09177,0.00925
857.03160,0.00937
854.97143,0.00944
852.91126,0.00928
850.85108,0.00879
848.79091,0.00819
846.73074,0.00774
844.67057,0.00738
842.61040,0.00716
840.55022,0.00707
838.49005,0.00667
836.42988,0.00612
834.36971,0.00568
832.30954,0.00521
830.24936,0.00465
828.18919,0.00422
826.12902,0.00400
824.06885,0.00388
822.00867,0.00380
819.94850,0.00377
817.88833,0.00368
815.82816,0.00340
813.76799,0.00300
811.70781,0.00282
809.64764,0.00298
807.58747,0.00314
805.52730,0.00326
803.46713,0.00338
801.40695,0.00318
799.34678,0.00266
797.28661,0.00237
795.22644,0.00232
793.16627,0.00215
791.10609,0.00194
789.04592,0.00186
786.98575,0.00187
784.92558,0.00190
782.86540,0.00216
780.80523,0.00285
778.74506,0.00330
776.68489,0.00306
774.62472,0.00273
772.56454,0.00268
770.50437,0.00257
768.44420,0.00245
766.38403,0.00269
764.32386,0.00311
762.26368,0.00341
760.20351,0.00369
758.14334,0.00372
756.08317,0.00296
754.02299,0.00204
751.96282,0.00180
749.90265,0.00192
747.84248,0.00196
745.78231,0.00183
743.72213,0.00182
741.66196,0.00228
739.60179,0.00257
737.54162,0.00220
735.48145,0.00174
733.42127,0.00164
731.36110,0.00188
729.30093,0.00242
727.24076,0.00256
725.18059,0.00246
723.12041,0.00297
721.06024,0.00347
719.00007,0.00348
716.93990,0.00340
714.87972,0.00342
712.81955,0.00336
710.75938,0.00326
708.69921,0.00315
706.63904,0.00307
704.57886,0.00350
702.51869,0.00442
700.45852,0.00479
698.39835,0.00389
696.33818,0.00245
694.27800,0.00183
692.21783,0.00220
690.15766,0.00276
688.09749,0.00297
686.03731,0.00293
683.97714,0.00296
681.91697,0.00297
679.85680,0.00284
677.79663,0.00279
675.73645,0.00311
673.67628,0.00391
671.61611,0.00486
669.55594,0.00557
667.49577,0.00542
665.43559,0.00428
663.37542,0.00323
661.31525,0.00281
659.25508,0.00263
657.19491,0.00220
655.13473,0.00175
653.07456,0.00164
651.01439,0.00173
648.95422,0.00217
646.89404,0.00324
644.83387,0.00439
642.77370,0.00473
640.71353,0.00406
638.65336,0.00300
636.59318,0.00211
634.53301,0.00148
632.47284,0.00136
630.41267,0.00175
628.35250,0.00208
626.29232,0.00189
624.23215,0.00163
622.17198,0.00226
620.11181,0.00353
618.05164,0.00486
615.99146,0.00600
613.93129,0.00545
611.87112,0.00375
609.81095,0.00304
607.75077,0.00259
605.69060,0.00111
603.63043,0.00029
601.57026,0.00000
599.51009,0.00000
