3996.73391,0.00000
3994.67373,0.00010
3992.61356,0.00034
3990.55339,0.00051
3988.49322,0.00041
3986.43305,0.00030
3984.37287,0.00036
3982.31270,0.00043
3980.25253,0.00036
3978.19236,0.00032
3976.13219,0.00037
3974.07201,0.00033
3972.01184,0.00019
3969.95167,0.00010
3967.89150,0.00008
3965.83133,0.00011
3963.77115,0.00023
3961.71098,0.00037
3959.65081,0.00043
3957.59064,0.00042
3955.53046,0.00042
3953.47029,0.00046
3951.41012,0.00042
3949.34995,0.00029
3947.28978,0.00018
3945.22960,0.00015
3943.16943,0.00016
3941.10926,0.00026
3939.04909,0.00047
3936.98892,0.00055
3934.92874,0.00039
3932.86857,0.00026
3930.80840,0.00040
3928.74823,0.00056
3926.68805,0.00053
3924.62788,0.00040
3922.56771,0.00036
3920.50754,0.00042
3918.44737,0.00039
3916.38719,0.00032
3914.32702,0.00039
3912.26685,0.00046
3910.20668,0.00031
3908.14651,0.00008
3906.08633,0.00009
3904.02616,0.00028
3901.96599,0.00033
3899.90582,0.00030
3897.84565,0.00037
3895.78547,0.00039
3893.72530,0.00037
3891.66513,0.00048
3889.60496,0.00070
3887.54478,0.00076
3885.48461,0.00063
3883.42444,0.00052
3881.36427,0.00056
3879.30410,0.00059
3877.24392,0.00059
3875.18375,0.00062
3873.12358,0.00072
3871.06341,0.00094
3869.00324,0.00102
3866.94306,0.00089
3864.88289,0.00098
3862.82272,0.00125
3860.76255,0.00127
3858.70237,0.00113
3856.64220,0.00120
3854.58203,0.00139
3852.52186,0.00128
3850.46169,0.00094
3848.40151,0.00075
3846.34134,0.00090
3844.28117,0.00129
3842.22100,0.00158
3840.16083,0.00158
3838.10065,0.00143
3836.04048,0.00139
3833.98031,0.00141
3831.92014,0.00124
3829.85997,0.00099
3827.79979,0.00085
3825.73962,0.00068
3823.67945,0.00039
3821.61928,0.00008
3819.55910,0.00030
3817.49893,0.00102
3815.43876,0.00139
3813.37859,0.00123
3811.31842,0.00104
3809.25824,0.00102
3807.19807,0.00102
3805.13790,0.00089
3803.07773,0.00074
3801.01756,0.00069
3798.95738,0.00075
3796.89721,0.00076
3794.83704,0.00067
3792.77687,0.00066
3790.71670,0.00060
3788.65652,0.00040
3786.59635,0.00033
3784.53618,0.00057
3782.47601,0.00092
3780.41583,0.00113
3778.35566,0.00118
3776.29549,0.00125
3774.23532,0.00139
3772.17515,0.00144
3770.11497,0.00136
3768.05480,0.00132
3765.99463,0.00133
3763.93446,0.00138
3761.87429,0.00147
3759.81411,0.00144
3757.75394,0.00125
3755.69377,0.00109
3753.63360,0.00087
3751.57342,0.00040
3749.51325,0.00009
3747.45308,0.00036
3745.39291,0.00071
3743.33274,0.00062
3741.27256,0.00061
3739.21239,0.00098
3737.15222,0.00102
3735.09205,0.00048
3733.03188,0.00011
3730.97170,0.00040
3728.91153,0.00091
3726.85136,0.00124
3724.79119,0.00140
3722.73102,0.00143
3720.67084,0.00143
3718.61067,0.00143
3716.55050,0.00142
3714.49033,0.00121
3712.43015,0.00082
3710.36998,0.00082
3708.30981,0.00129
3706.24964,0.00178
3704.18947,0.00166
3702.12929,0.00106
3700.06912,0.00084
3698.00895,0.00119
3695.94878,0.00156
3693.88861,0.00161
3691.82843,0.00155
3689.76826,0.00146
3687.70809,0.00151
3685.64792,0.00181
3683.58775,0.00239
3681.52757,0.00294
3679.46740,0.00326
3677.40723,0.00335
3675.34706,0.00314
3673.28688,0.00273
3671.22671,0.00253
3669.16654,0.00246
3667.10637,0.00244
3665.04620,0.00262
3662.98602,0.00297
3660.92585,0.00319
3658.86568,0.00299
3656.80551,0.00260
3654.74534,0.00261
3652.68516,0.00288
3650.62499,0.00294
3648.56482,0.00319
3646.50465,0.00400
3644.44447,0.00479
3642.38430,0.00540
3640.32413,0.00582
3638.26396,0.00590
3636.20379,0.00583
3634.14361,0.00584
3632.08344,0.00585
3630.02327,0.00581
3627.96310,0.00592
3625.90293,0.00620
3623.84275,0.00669
3621.78258,0.00713
3619.72241,0.00709
3617.66224,0.00673
3615.60207,0.00680
3613.54189,0.00757
3611.48172,0.00841
3609.42155,0.00899
3607.36138,0.00953
3605.30120,0.01013
3603.24103,0.01059
3601.18086,0.01077
3599.12069,0.01099
3597.06052,0.01148
3595.00034,0.01198
3592.94017,0.01225
3590.88000,0.01261
3588.81983,0.01297
3586.75966,0.01328
3584.69948,0.01371
3582.63931,0.01416
3580.57914,0.01446
3578.51897,0.01478
3576.45879,0.01505
3574.39862,0.01508
3572.33845,0.01523
3570.27828,0.01584
3568.21811,0.01629
3566.15793,0.01614
3564.09776,0.01616
3562.03759,0.01679
3559.97742,0.01745
3557.91725,0.01786
3555.85707,0.01828
3553.79690,0.01871
3551.73673,0.01912
3549.67656,0.01954
3547.61639,0.01979
3545.55621,0.01974
3543.49604,0.01985
3541.43587,0.02029
3539.37570,0.02084
3537.31552,0.02136
3535.25535,0.02182
3533.19518,0.02230
3531.13501,0.02270
3529.07484,0.02291
3527.01466,0.02312
3524.95449,0.02341
3522.89432,0.02354
3520.83415,0.02369
3518.77398,0.02411
3516.71380,0.02466
3514.65363,0.02519
3512.59346,0.02565
3510.53329,0.02589
3508.47312,0.02592
3506.41294,0.02612
3504.35277,0.02656
3502.29260,0.02688
3500.23243,0.02702
3498.17225,0.02720
3496.11208,0.02750
3494.05191,0.02790
3491.99174,0.02831
3489.93157,0.02867
3487.87139,0.02899
3485.81122,0.02918
3483.75105,0.02916
3481.69088,0.02912
3479.63071,0.02950
3477.57053,0.03019
3475.51036,0.03069
3473.45019,0.03088
3471.39002,0.03084
3469.32984,0.03078
3467.26967,0.03096
3465.20950,0.03134
3463.14933,0.03153
3461.08916,0.03145
3459.02898,0.03158
3456.96881,0.03223
3454.90864,0.03291
3452.84847,0.03322
3450.78830,0.03331
3448.72812,0.03343
3446.66795,0.03364
3444.60778,0.03402
3442.54761,0.03442
3440.48744,0.03459
3438.42726,0.03466
3436.36709,0.03477
3434.30692,0.03485
3432.24675,0.03489
3430.18657,0.03491
3428.12640,0.03495
3426.06623,0.03516
3424.00606,0.03559
3421.94589,0.03598
3419.88571,0.03610
3417.82554,0.03614
3415.76537,0.03639
3413.70520,0.03667
3411.64503,0.03681
3409.58485,0.03693
3407.52468,0.03714
3405.46451,0.03739
3403.40434,0.03743
3401.34416,0.03741
3399.28399,0.03766
3397.22382,0.03782
3395.16365,0.03770
3393.10348,0.03757
3391.04330,0.03770
3388.98313,0.03810
3386.92296,0.03859
3384.86279,0.03883
3382.80262,0.03879
3380.74244,0.03884
3378.68227,0.03903
3376.62210,0.03915
3374.56193,0.03919
3372.50176,0.03933
3370.44158,0.03970
3368.38141,0.04007
3366.32124,0.04010
3364.26107,0.03996
3362.20089,0.03994
3360.14072,0.03997
3358.08055,0.03991
3356.02038,0.03980
3353.96021,0.03975
3351.90003,0.03980
3349.83986,0.03987
3347.77969,0.03983
3345.71952,0.03972
3343.65935,0.03985
3341.59917,0.04027
3339.53900,0.04054
3337.47883,0.04034
3335.41866,0.04010
3333.35849,0.04024
3331.29831,0.04052
3329.23814,0.04062
3327.17797,0.04063
3325.11780,0.04055
3323.05762,0.04044
3320.99745,0.04053
3318.93728,0.04071
3316.87711,0.04078
3314.81694,0.04077
3312.75676,0.04062
3310.69659,0.04043
3308.63642,0.04049
3306.57625,0.04076
3304.51608,0.04091
3302.45590,0.04089
3300.39573,0.04093
3298.33556,0.04109
3296.27539,0.04123
3294.21521,0.04126
3292.15504,0.04114
3290.09487,0.04103
3288.03470,0.04116
3285.97453,0.04138
3283.91435,0.04140
3281.85418,0.04134
3279.79401,0.04129
3277.73384,0.04124
3275.67367,0.04137
3273.61349,0.04152
3271.55332,0.04136
3269.49315,0.04119
3267.43298,0.04130
3265.37281,0.04137
3263.31263,0.04124
3261.25246,0.04113
3259.19229,0.04107
3257.13212,0.04105
3255.07194,0.04103
3253.01177,0.04087
3250.95160,0.04081
3248.89143,0.04105
3246.83126,0.04121
3244.77108,0.04104
3242.71091,0.04092
3240.65074,0.04103
3238.59057,0.04115
3236.53040,0.04114
3234.47022,0.04095
3232.41005,0.04075
3230.34988,0.04078
3228.28971,0.04097
3226.22954,0.04099
3224.16936,0.04076
3222.10919,0.04040
3220.04902,0.04011
3217.98885,0.04008
3215.92867,0.04017
3213.86850,0.04010
3211.80833,0.04002
3209.74816,0.04009
3207.68799,0.04015
3205.62781,0.04008
3203.56764,0.03993
3201.50747,0.03978
3199.44730,0.03964
3197.38713,0.03953
3195.32695,0.03941
3193.26678,0.03926
3191.20661,0.03907
3189.14644,0.03886
3187.08626,0.03873
3185.02609,0.03869
3182.96592,0.03866
3180.90575,0.03844
3178.84558,0.03813
3176.78540,0.03811
3174.72523,0.03835
3172.66506,0.03846
3170.60489,0.03829
3168.54472,0.03810
3166.48454,0.03803
3164.42437,0.03796
3162.36420,0.03782
3160.30403,0.03756
3158.24386,0.03730
3156.18368,0.03728
3154.12351,0.03733
3152.06334,0.03721
3150.00317,0.03691
3147.94299,0.03659
3145.88282,0.03644
3143.82265,0.03637
3141.76248,0.03620
3139.70231,0.03596
3137.64213,0.03578
3135.58196,0.03563
3133.52179,0.03537
3131.46162,0.03513
3129.40145,0.03512
3127.34127,0.03519
3125.28110,0.03502
3123.22093,0.03469
3121.16076,0.03449
3119.10058,0.03439
3117.04041,0.03428
3114.98024,0.03424
3112.92007,0.03425
3110.85990,0.03413
3108.79972,0.03389
3106.73955,0.03369
3104.67938,0.03351
3102.61921,0.03330
3100.55904,0.03318
3098.49886,0.03306
3096.43869,0.03280
3094.37852,0.03253
3092.31835,0.03243
3090.25818,0.03251
3088.19800,0.03253
3086.13783,0.03228
3084.07766,0.03190
3082.01749,0.03158
3079.95731,0.03142
3077.89714,0.03143
3075.83697,0.03142
3073.77680,0.03133
3071.71663,0.03126
3069.65645,0.03113
3067.59628,0.03087
3065.53611,0.03058
3063.47594,0.03021
3061.41577,0.02989
3059.35559,0.02972
3057.29542,0.02968
3055.23525,0.02973
3053.17508,0.02962
3051.11491,0.02917
3049.05473,0.02873
3046.99456,0.02856
3044.93439,0.02854
3042.87422,0.02834
3040.81404,0.02794
3038.75387,0.02768
3036.69370,0.02751
3034.63353,0.02726
3032.57336,0.02715
3030.51318,0.02721
3028.45301,0.02721
3026.39284,0.02713
3024.33267,0.02698
3022.27250,0.02668
3020.21232,0.02638
3018.15215,0.02624
3016.09198,0.02612
3014.03181,0.02595
3011.97163,0.02583
3009.91146,0.02574
3007.85129,0.02553
3005.79112,0.02517
3003.73095,0.02500
3001.67077,0.02506
2999.61060,0.02494
2997.55043,0.02469
2995.49026,0.02463
2993.43009,0.02454
2991.36991,0.02440
2989.30974,0.02435
2987.24957,0.02431
2985.18940,0.02423
2983.12923,0.02404
2981.06905,0.02386
2979.00888,0.02391
2976.94871,0.02400
2974.88854,0.02390
2972.82836,0.02371
2970.76819,0.02357
2968.70802,0.02350
2966.64785,0.02352
2964.58768,0.02351
2962.52750,0.02353
2960.46733,0.02372
2958.40716,0.02381
2956.34699,0.02374
2954.28682,0.02377
2952.22664,0.02384
2950.16647,0.02380
2948.10630,0.02375
2946.04613,0.02368
2943.98596,0.02360
2941.92578,0.02375
2939.86561,0.02405
2937.80544,0.02418
2935.74527,0.02413
2933.68509,0.02401
2931.62492,0.02390
2929.56475,0.02390
2927.50458,0.02399
2925.44441,0.02400
2923.38423,0.02379
2921.32406,0.02358
2919.26389,0.02369
2917.20372,0.02378
2915.14355,0.02345
2913.08337,0.02297
2911.02320,0.02267
2908.96303,0.02243
2906.90286,0.02227
2904.84268,0.02233
2902.78251,0.02237
2900.72234,0.02227
2898.66217,0.02217
2896.60200,0.02222
2894.54182,0.02227
2892.48165,0.02216
2890.42148,0.02193
2888.36131,0.02170
2886.30114,0.02158
2884.24096,0.02150
2882.18079,0.02147
2880.12062,0.02151
2878.06045,0.02151
2876.00028,0.02142
2873.94010,0.02129
2871.87993,0.02117
2869.81976,0.02105
2867.75959,0.02084
2865.69941,0.02058
2863.63924,0.02047
2861.57907,0.02051
2859.51890,0.02046
2857.45873,0.02032
2855.39855,0.02026
2853.33838,0.02021
2851.27821,0.02009
2849.21804,0.02001
2847.15787,0.01992
2845.09769,0.01963
2843.03752,0.01938
2840.97735,0.01935
2838.91718,0.01929
2836.85700,0.01907
2834.79683,0.01883
2832.73666,0.01867
2830.67649,0.01859
2828.61632,0.01848
2826.55614,0.01832
2824.49597,0.01814
2822.43580,0.01794
2820.37563,0.01782
2818.31546,0.01787
2816.25528,0.01791
2814.19511,0.01785
2812.13494,0.01772
2810.07477,0.01757
2808.01460,0.01751
2805.95442,0.01754
2803.89425,0.01750
2801.83408,0.01741
2799.77391,0.01745
2797.71373,0.01751
2795.65356,0.01738
2793.59339,0.01704
2791.53322,0.01669
2789.47305,0.01653
2787.41287,0.01655
2785.35270,0.01660
2783.29253,0.01660
2781.23236,0.01654
2779.17219,0.01646
2777.11201,0.01641
2775.05184,0.01636
2772.99167,0.01624
2770.93150,0.01610
2768.87133,0.01600
2766.81115,0.01587
2764.75098,0.01575
2762.69081,0.01571
2760.63064,0.01561
2758.57046,0.01535
2756.51029,0.01525
2754.45012,0.01543
2752.38995,0.01551
2750.32978,0.01537
2748.26960,0.01523
2746.20943,0.01524
2744.14926,0.01532
2742.08909,0.01523
2740.02892,0.01496
2737.96874,0.01487
2735.90857,0.01497
2733.84840,0.01502
2731.78823,0.01488
2729.72805,0.01464
2727.66788,0.01448
2725.60771,0.01443
2723.54754,0.01451
2721.48737,0.01456
2719.42719,0.01444
2717.36702,0.01415
2715.30685,0.01385
2713.24668,0.01379
2711.18651,0.01397
2709.12633,0.01409
2707.06616,0.01399
2705.00599,0.01383
2702.94582,0.01374
2700.88565,0.01361
2698.82547,0.01344
2696.76530,0.01330
2694.70513,0.01324
2692.64496,0.01320
2690.58478,0.01310
2688.52461,0.01304
2686.46444,0.01314
2684.40427,0.01325
2682.34410,0.01317
2680.28392,0.01289
2678.22375,0.01260
2676.16358,0.01248
2674.10341,0.01257
2672.04324,0.01259
2669.98306,0.01231
2667.92289,0.01201
2665.86272,0.01195
2663.80255,0.01198
2661.74238,0.01193
2659.68220,0.01185
2657.62203,0.01184
2655.56186,0.01189
2653.50169,0.01193
2651.44151,0.01189
2649.38134,0.01181
2647.32117,0.01175
2645.26100,0.01165
2643.20083,0.01155
2641.14065,0.01147
2639.08048,0.01129
2637.02031,0.01111
2634.96014,0.01109
2632.89997,0.01118
2630.83979,0.01124
2628.77962,0.01105
2626.71945,0.01066
2624.65928,0.01039
2622.59910,0.01034
2620.53893,0.01034
2618.47876,0.01032
2616.41859,0.01032
2614.35842,0.01028
2612.29824,0.01018
2610.23807,0.01011
2608.17790,0.00999
2606.11773,0.00982
2604.05756,0.00973
2601.99738,0.00973
2599.93721,0.00967
2597.87704,0.00944
2595.81687,0.00916
2593.75670,0.00905
2591.69652,0.00929
2589.63635,0.00945
2587.57618,0.00935
2585.51601,0.00944
2583.45583,0.00952
2581.39566,0.00927
2579.33549,0.00896
2577.27532,0.00884
2575.21515,0.00882
2573.15497,0.00885
2571.09480,0.00899
2569.03463,0.00917
2566.97446,0.00921
2564.91429,0.00893
2562.85411,0.00835
2560.79394,0.00800
2558.73377,0.00823
2556.67360,0.00856
2554.61342,0.00859
2552.55325,0.00852
2550.49308,0.00862
2548.43291,0.00886
2546.37274,0.00894
2544.31256,0.00883
2542.25239,0.00859
2540.19222,0.00842
2538.13205,0.00861
2536.07188,0.00889
2534.01170,0.00898
2531.95153,0.00894
2529.89136,0.00883
2527.83119,0.00878
2525.77102,0.00881
2523.71084,0.00877
2521.65067,0.00864
2519.59050,0.00842
2517.53033,0.00820
2515.47015,0.00814
2513.40998,0.00822
2511.34981,0.00830
2509.28964,0.00829
2507.22947,0.00822
2505.16929,0.00831
2503.10912,0.00853
2501.04895,0.00848
2498.98878,0.00825
2496.92861,0.00820
2494.86843,0.00819
2492.80826,0.00812
2490.74809,0.00817
2488.68792,0.00841
2486.62775,0.00854
2484.56757,0.00842
2482.50740,0.00852
2480.44723,0.00878
2478.38706,0.00889
2476.32688,0.00900
2474.26671,0.00901
2472.20654,0.00879
2470.14637,0.00852
2468.08620,0.00844
2466.02602,0.00860
2463.96585,0.00881
2461.90568,0.00889
2459.84551,0.00885
2457.78534,0.00883
2455.72516,0.00887
2453.66499,0.00891
2451.60482,0.00886
2449.54465,0.00878
2447.48447,0.00901
2445.42430,0.00933
2443.36413,0.00917
2441.30396,0.00873
2439.24379,0.00831
2437.18361,0.00813
2435.12344,0.00835
2433.06327,0.00865
2431.00310,0.00879
2428.94293,0.00871
2426.88275,0.00853
2424.82258,0.00860
2422.76241,0.00882
2420.70224,0.00874
2418.64207,0.00841
2416.58189,0.00823
2414.52172,0.00830
2412.46155,0.00837
2410.40138,0.00831
2408.34120,0.00833
2406.28103,0.00851
2404.22086,0.00883
2402.16069,0.00902
2400.10052,0.00885
2398.04034,0.00855
2395.98017,0.00829
2393.92000,0.00808
2391.85983,0.00797
2389.79966,0.00809
2387.73948,0.00844
2385.67931,0.00891
2383.61914,0.00917
2381.55897,0.00911
2379.49880,0.00876
2377.43862,0.00839
2375.37845,0.00812
2373.31828,0.00849
2371.25811,0.00885
2369.19793,0.00753
2367.13776,0.00550
2365.07759,0.00525
2363.01742,0.00597
2360.95725,0.00782
2358.89707,0.00725
2356.83690,0.00631
2354.77673,0.00596
2352.71656,0.00599
2350.65639,0.00926
2348.59621,0.01147
2346.53604,0.00725
2344.47587,0.00639
2342.41570,0.00750
2340.35552,0.00821
2338.29535,0.00856
2336.23518,0.00829
2334.17501,0.00785
2332.11484,0.00696
2330.05466,0.00686
2327.99449,0.00726
2325.93432,0.00862
2323.87415,0.00848
2321.81398,0.00762
2319.75380,0.00682
2317.69363,0.00800
2315.63346,0.00914
2313.57329,0.00924
2311.51312,0.00866
2309.45294,0.00805
2307.39277,0.00808
2305.33260,0.00850
2303.27243,0.00871
2301.21225,0.00837
2299.15208,0.00803
2297.09191,0.00785
2295.03174,0.00780
2292.97157,0.00767
2290.91139,0.00731
2288.85122,0.00724
2286.79105,0.00776
2284.73088,0.00826
2282.67071,0.00826
2280.61053,0.00790
2278.55036,0.00759
2276.49019,0.00736
2274.43002,0.00693
2272.36984,0.00662
2270.30967,0.00702
2268.24950,0.00725
2266.18933,0.00672
2264.12916,0.00627
2262.06898,0.00606
2260.00881,0.00553
2257.94864,0.00514
2255.88847,0.00542
2253.82830,0.00617
2251.76812,0.00650
2249.70795,0.00610
2247.64778,0.00573
2245.58761,0.00552
2243.52744,0.00530
2241.46726,0.00563
2239.40709,0.00630
2237.34692,0.00650
2235.28675,0.00638
2233.22657,0.00619
2231.16640,0.00589
2229.10623,0.00535
2227.04606,0.00469
2224.98589,0.00468
2222.92571,0.00508
2220.86554,0.00513
2218.80537,0.00523
2216.74520,0.00555
2214.68503,0.00582
2212.62485,0.00580
2210.56468,0.00533
2208.50451,0.00464
2206.44434,0.00436
2204.38417,0.00505
2202.32399,0.00574
2200.26382,0.00558
2198.20365,0.00554
2196.14348,0.00610
2194.08330,0.00641
2192.02313,0.00616
2189.96296,0.00548
2187.90279,0.00478
2185.84262,0.00475
2183.78244,0.00472
2181.72227,0.00458
2179.66210,0.00479
2177.60193,0.00470
2175.54176,0.00464
2173.48158,0.00522
2171.42141,0.00577
2169.36124,0.00528
2167.30107,0.00430
2165.24089,0.00411
2163.18072,0.00375
2161.12055,0.00179
2159.06038,0.00072
2157.00021,0.00198
2154.94003,0.00274
2152.87986,0.00250
2150.81969,0.00250
2148.75952,0.00267
2146.69935,0.00311
2144.63917,0.00407
2142.57900,0.00471
2140.51883,0.00458
2138.45866,0.00384
2136.39849,0.00296
2134.33831,0.00293
2132.27814,0.00338
2130.21797,0.00354
2128.15780,0.00374
2126.09762,0.00402
2124.03745,0.00398
2121.97728,0.00392
2119.91711,0.00425
2117.85694,0.00468
2115.79676,0.00488
2113.73659,0.00471
2111.67642,0.00436
2109.61625,0.00423
2107.55608,0.00440
2105.49590,0.00453
2103.43573,0.00421
2101.37556,0.00383
2099.31539,0.00380
2097.25521,0.00374
2095.19504,0.00358
2093.13487,0.00351
2091.07470,0.00356
2089.01453,0.00388
2086.95435,0.00439
2084.89418,0.00487
2082.83401,0.00513
2080.77384,0.00470
2078.71367,0.00365
2076.65349,0.00299
2074.59332,0.00307
2072.53315,0.00328
2070.47298,0.00366
2068.41281,0.00411
2066.35263,0.00382
2064.29246,0.00306
2062.23229,0.00310
2060.17212,0.00399
2058.11194,0.00448
2056.05177,0.00425
2053.99160,0.00411
2051.93143,0.00380
2049.87126,0.00275
2047.81108,0.00172
2045.75091,0.00171
2043.69074,0.00229
2041.63057,0.00212
2039.57040,0.00164
2037.51022,0.00208
2035.45005,0.00268
2033.38988,0.00209
2031.32971,0.00088
2029.26954,0.00086
2027.20936,0.00203
2025.14919,0.00244
2023.08902,0.00159
2021.02885,0.00127
2018.96867,0.00213
2016.90850,0.00303
2014.84833,0.00347
2012.78816,0.00392
2010.72799,0.00463
2008.66781,0.00456
2006.60764,0.00302
2004.54747,0.00163
2002.48730,0.00185
2000.42713,0.00246
1998.36695,0.00223
1996.30678,0.00216
1994.24661,0.00263
1992.18644,0.00306
1990.12626,0.00358
1988.06609,0.00374
1986.00592,0.00317
1983.94575,0.00275
1981.88558,0.00285
1979.82540,0.00253
1977.76523,0.00157
1975.70506,0.00117
1973.64489,0.00114
1971.58472,0.00052
1969.52454,0.00015
1967.46437,0.00047
1965.40420,0.00060
1963.34403,0.00071
1961.28386,0.00150
1959.22368,0.00264
1957.16351,0.00317
1955.10334,0.00253
1953.04317,0.00155
1950.98299,0.00159
1948.92282,0.00240
1946.86265,0.00283
1944.80248,0.00278
1942.74231,0.00256
1940.68213,0.00224
1938.62196,0.00176
1936.56179,0.00117
1934.50162,0.00104
1932.44145,0.00168
1930.38127,0.00236
1928.32110,0.00254
1926.26093,0.00243
1924.20076,0.00229
1922.14059,0.00217
1920.08041,0.00202
1918.02024,0.00202
1915.96007,0.00228
1913.89990,0.00244
1911.83972,0.00243
1909.77955,0.00263
1907.71938,0.00289
1905.65921,0.00262
1903.59904,0.00204
1901.53886,0.00199
1899.47869,0.00228
1897.41852,0.00233
1895.35835,0.00225
1893.29818,0.00224
1891.23800,0.00225
1889.17783,0.00223
1887.11766,0.00214
1885.05749,0.00197
1882.99731,0.00188
1880.93714,0.00195
1878.87697,0.00203
1876.81680,0.00208
1874.75663,0.00215
1872.69645,0.00220
1870.63628,0.00214
1868.57611,0.00197
1866.51594,0.00191
1864.45577,0.00210
1862.39559,0.00223
1860.33542,0.00214
1858.27525,0.00201
1856.21508,0.00200
1854.15491,0.00214
1852.09473,0.00235
1850.03456,0.00246
1847.97439,0.00229
1845.91422,0.00192
1843.85404,0.00169
1841.79387,0.00184
1839.73370,0.00211
1837.67353,0.00231
1835.61336,0.00246
1833.55318,0.00255
1831.49301,0.00245
1829.43284,0.00222
1827.37267,0.00211
1825.31250,0.00222
1823.25232,0.00240
1821.19215,0.00255
1819.13198,0.00267
1817.07181,0.00272
1815.01163,0.00255
1812.95146,0.00221
1810.89129,0.00204
1808.83112,0.00217
1806.77095,0.00233
1804.71077,0.00230
1802.65060,0.00214
1800.59043,0.00200
1798.53026,0.00205
1796.47009,0.00223
1794.40991,0.00238
1792.34974,0.00250
1790.28957,0.00270
1788.22940,0.00282
1786.16923,0.00262
1784.10905,0.00220
1782.04888,0.00196
1779.98871,0.00208
1777.92854,0.00238
1775.86836,0.00253
1773.80819,0.00240
1771.74802,0.00225
1769.68785,0.00242
1767.62768,0.00276
1765.56750,0.00309
1763.50733,0.00329
1761.44716,0.00331
1759.38699,0.00322
1757.32682,0.00317
1755.26664,0.00335
1753.20647,0.00375
1751.14630,0.00409
1749.08613,0.00425
1747.02596,0.00442
1744.96578,0.00469
1742.90561,0.00497
1740.84544,0.00513
1738.78527,0.00520
1736.72509,0.00517
1734.66492,0.00484
1732.60475,0.00457
1730.54458,0.00489
1728.48441,0.00533
1726.42423,0.00556
1724.36406,0.00573
1722.30389,0.00590
1720.24372,0.00599
1718.18355,0.00597
1716.12337,0.00599
1714.06320,0.00621
1712.00303,0.00648
1709.94286,0.00649
1707.88268,0.00624
1705.82251,0.00614
1703.76234,0.00649
1701.70217,0.00680
1699.64200,0.00677
1697.58182,0.00688
1695.52165,0.00736
1693.46148,0.00801
1691.40131,0.00851
1689.34114,0.00872
1687.28096,0.00878
1685.22079,0.00889
1683.16062,0.00928
1681.10045,0.01005
1679.04028,0.01086
1676.98010,0.01132
1674.91993,0.01141
1672.85976,0.01145
1670.79959,0.01173
1668.73941,0.01229
1666.67924,0.01294
1664.61907,0.01345
1662.55890,0.01385
1660.49873,0.01435
1658.43855,0.01490
1656.37838,0.01518
1654.31821,0.01504
1652.25804,0.01486
1650.19787,0.01516
1648.13769,0.01550
1646.07752,0.01558
1644.01735,0.01576
1641.95718,0.01605
1639.89701,0.01614
1637.83683,0.01578
1635.77666,0.01522
1633.71649,0.01522
1631.65632,0.01564
1629.59614,0.01586
1627.53597,0.01585
1625.47580,0.01584
1623.41563,0.01587
1621.35546,0.01593
1619.29528,0.01595
1617.23511,0.01562
1615.17494,0.01520
1613.11477,0.01524
1611.05460,0.01547
1608.99442,0.01551
1606.93425,0.01533
1604.87408,0.01511
1602.81391,0.01494
1600.75373,0.01478
1598.69356,0.01452
1596.63339,0.01410
1594.57322,0.01361
1592.51305,0.01312
1590.45287,0.01255
1588.39270,0.01195
1586.33253,0.01146
1584.27236,0.01108
1582.21219,0.01074
1580.15201,0.01046
1578.09184,0.01004
1576.03167,0.00934
1573.97150,0.00883
1571.91133,0.00866
1569.85115,0.00836
1567.79098,0.00791
1565.73081,0.00760
1563.67064,0.00741
1561.61046,0.00716
1559.55029,0.00650
1557.49012,0.00571
1555.42995,0.00559
1553.36978,0.00575
1551.30960,0.00578
1549.24943,0.00577
1547.18926,0.00584
1545.12909,0.00576
1543.06892,0.00534
1541.00874,0.00474
1538.94857,0.00438
1536.88840,0.00440
1534.82823,0.00440
1532.76805,0.00419
1530.70788,0.00409
1528.64771,0.00410
1526.58754,0.00400
1524.52737,0.00377
1522.46719,0.00335
1520.40702,0.00284
1518.34685,0.00258
1516.28668,0.00267
1514.22651,0.00295
1512.16633,0.00307
1510.10616,0.00271
1508.04599,0.00201
1505.98582,0.00178
1503.92565,0.00222
1501.86547,0.00263
1499.80530,0.00275
1497.74513,0.00267
1495.68496,0.00261
1493.62478,0.00271
1491.56461,0.00271
1489.50444,0.00248
1487.44427,0.00237
1485.38410,0.00254
1483.32392,0.00276
1481.26375,0.00291
1479.20358,0.00301
1477.14341,0.00306
1475.08324,0.00304
1473.02306,0.00307
1470.96289,0.00342
1468.90272,0.00396
1466.84255,0.00431
1464.78238,0.00438
1462.72220,0.00451
1460.66203,0.00473
1458.60186,0.00473
1456.54169,0.00461
1454.48151,0.00486
1452.42134,0.00524
1450.36117,0.00537
1448.30100,0.00529
1446.24083,0.00522
1444.18065,0.00527
1442.12048,0.00536
1440.06031,0.00542
1438.00014,0.00539
1435.93997,0.00530
1433.87979,0.00543
1431.81962,0.00577
1429.75945,0.00608
1427.69928,0.00628
1425.63910,0.00647
1423.57893,0.00666
1421.51876,0.00680
1419.45859,0.00683
1417.39842,0.00692
1415.33824,0.00714
1413.27807,0.00725
1411.21790,0.00716
1409.15773,0.00708
1407.09756,0.00701
1405.03738,0.00687
1402.97721,0.00677
1400.91704,0.00663
1398.85687,0.00625
1396.79670,0.00575
1394.73652,0.00549
1392.67635,0.00556
1390.61618,0.00577
1388.55601,0.00583
1386.49583,0.00580
1384.43566,0.00590
1382.37549,0.00609
1380.31532,0.00620
1378.25515,0.00620
1376.19497,0.00613
1374.13480,0.00602
1372.07463,0.00593
1370.01446,0.00594
1367.95429,0.00596
1365.89411,0.00588
1363.83394,0.00562
1361.77377,0.00527
1359.71360,0.00505
1357.65343,0.00496
1355.59325,0.00486
1353.53308,0.00465
1351.47291,0.00439
1349.41274,0.00422
1347.35256,0.00418
1345.29239,0.00424
1343.23222,0.00428
1341.17205,0.00414
1339.11188,0.00385
1337.05170,0.00371
1334.99153,0.00383
1332.93136,0.00398
1330.87119,0.00402
1328.81102,0.00403
1326.75084,0.00408
1324.69067,0.00406
1322.63050,0.00400
1320.57033,0.00398
1318.51015,0.00402
1316.44998,0.00401
1314.38981,0.00388
1312.32964,0.00369
1310.26947,0.00362
1308.20929,0.00367
1306.14912,0.00372
1304.08895,0.00367
1302.02878,0.00358
1299.96861,0.00358
1297.90843,0.00365
1295.84826,0.00372
1293.78809,0.00375
1291.72792,0.00369
1289.66775,0.00351
1287.60757,0.00338
1285.54740,0.00342
1283.48723,0.00361
1281.42706,0.00385
1279.36688,0.00402
1277.30671,0.00411
1275.24654,0.00417
1273.18637,0.00421
1271.12620,0.00421
1269.06602,0.00421
1267.00585,0.00420
1264.94568,0.00415
1262.88551,0.00417
1260.82534,0.00438
1258.76516,0.00462
1256.70499,0.00468
1254.64482,0.00459
1252.58465,0.00448
1250.52447,0.00436
1248.46430,0.00424
1246.40413,0.00415
1244.34396,0.00413
1242.28379,0.00416
1240.22361,0.00405
1238.16344,0.00372
1236.10327,0.00339
1234.04310,0.00322
1231.98293,0.00316
1229.92275,0.00307
1227.86258,0.00296
1225.80241,0.00284
1223.74224,0.00259
1221.68207,0.00218
1219.62189,0.00177
1217.56172,0.00144
1215.50155,0.00122
1213.44138,0.00111
1211.38120,0.00102
1209.32103,0.00091
1207.26086,0.00079
1205.20069,0.00063
1203.14052,0.00047
1201.08034,0.00033
1199.02017,0.00017
1196.96000,0.00018
1194.89983,0.00043
1192.83966,0.00068
1190.77948,0.00080
1188.71931,0.00094
1186.65914,0.00112
1184.59897,0.00137
1182.53880,0.00173
1180.47862,0.00217
1178.41845,0.00276
1176.35828,0.00349
1174.29811,0.00426
1172.23793,0.00503
1170.17776,0.00579
1168.11759,0.00662
1166.05742,0.00748
1163.99725,0.00809
1161.93707,0.00850
1159.87690,0.00899
1157.81673,0.00960
1155.75656,0.01020
1153.69639,0.01080
1151.63621,0.01134
1149.57604,0.01183
1147.51587,0.01242
1145.45570,0.01319
1143.39552,0.01405
1141.33535,0.01484
1139.27518,0.01551
1137.21501,0.01618
1135.15484,0.01693
1133.09466,0.01773
1131.03449,0.01853
1128.97432,0.01928
1126.91415,0.02005
1124.85398,0.02090
1122.79380,0.02161
1120.73363,0.02214
1118.67346,0.02275
1116.61329,0.02350
1114.55312,0.02441
1112.49294,0.02543
1110.43277,0.02644
1108.37260,0.02746
1106.31243,0.02852
1104.25225,0.02954
1102.19208,0.03048
1100.13191,0.03138
1098.07174,0.03230
1096.01157,0.03313
1093.95139,0.03390
1091.89122,0.03481
1089.83105,0.03578
1087.77088,0.03668
1085.71071,0.03765
1083.65053,0.03863
1081.59036,0.03946
1079.53019,0.04017
1077.47002,0.04092
1075.40985,0.04160
1073.34967,0.04200
1071.28950,0.04231
1069.22933,0.04266
1067.16916,0.04298
1065.10898,0.04318
1063.04881,0.04326
1060.98864,0.04334
1058.92847,0.04334
1056.86830,0.04313
1054.80812,0.04288
1052.74795,0.04268
1050.68778,0.04237
1048.62761,0.04193
1046.56744,0.04142
1044.50726,0.04092
1042.44709,0.04035
1040.38692,0.03966
1038.32675,0.03895
1036.26657,0.03838
1034.20640,0.03793
1032.14623,0.03741
1030.08606,0.03675
1028.02589,0.03610
1025.96571,0.03545
1023.90554,0.03473
1021.84537,0.03401
1019.78520,0.03340
1017.72503,0.03284
1015.66485,0.03215
1013.60468,0.03132
1011.54451,0.03053
1009.48434,0.02985
1007.42417,0.02924
1005.36399,0.02875
1003.30382,0.02841
1001.24365,0.02819
999.18348,0.02812
997.12330,0.02827
995.06313,0.02866
993.00296,0.02914
990.94279,0.02954
988.88262,0.02984
986.82244,0.03012
984.76227,0.03026
982.70210,0.03010
980.64193,0.02966
978.58176,0.02889
976.52158,0.02778
974.46141,0.02667
972.40124,0.02564
970.34107,0.02449
968.28089,0.02325
966.22072,0.02204
964.16055,0.02092
962.10038,0.01986
960.04021,0.01883
957.98003,0.01800
955.91986,0.01731
953.85969,0.01640
951.79952,0.01533
949.73935,0.01442
947.67917,0.01381
945.61900,0.01343
943.55883,0.01313
941.49866,0.01295
939.43849,0.01297
937.37831,0.01282
935.31814,0.01237
933.25797,0.01194
931.19780,0.01152
929.13762,0.01116
927.07745,0.01099
925.01728,0.01081
922.95711,0.01057
920.89694,0.01029
918.83676,0.00977
916.77659,0.00919
914.71642,0.00883
912.65625,0.00854
910.59608,0.00831
908.53590,0.00815
906.47573,0.00790
904.41556,0.00777
902.35539,0.00784
900.29522,0.00787
898.23504,0.00781
896.17487,0.00780
894.11470,0.00785
892.05453,0.00802
889.99435,0.00827
887.93418,0.00846
885.87401,0.00856
883.81384,0.00869
881.75367,0.00897
879.69349,0.00939
877.63332,0.00972
875.57315,0.01000
873.51298,0.01037
871.45281,0.01057
869.39263,0.01041
867.33246,0.01038
865.27229,0.01055
863.21212,0.01056
861.15194,0.01054
859.09177,0.01058
857.03160,0.01067
854.97143,0.01068
852.91126,0.01046
850.85108,0.01002
848.79091,0.00953
846.73074,0.00913
844.67057,0.00877
842.61040,0.00852
840.55022,0.00849
838.49005,0.00826
836.42988,0.00784
834.36971,0.00766
832.30954,0.00751
830.24936,0.00707
828.18919,0.00671
826.12902,0.00670
824.06885,0.00662
822.00867,0.00624
819.94850,0.00585
817.88833,0.00572
815.82816,0.00576
813.76799,0.00568
811.70781,0.00558
809.64764,0.00558
807.58747,0.00540
805.52730,0.00516
803.46713,0.00499
801.40695,0.00473
799.34678,0.00456
797.28661,0.00461
795.22644,0.00462
793.16627,0.00464
791.10609,0.00455
789.04592,0.00395
786.98575,0.00350
784.92558,0.00372
782.86540,0.00411
780.80523,0.00436
778.74506,0.00446
776.68489,0.00450
774.62472,0.00452
772.56454,0.00440
770.50437,0.00431
768.44420,0.00439
766.38403,0.00433
764.32386,0.00415
762.26368,0.00394
760.20351,0.00404
758.14334,0.00446
756.08317,0.00431
754.02299,0.00366
751.96282,0.00323
749.90265,0.00323
747.84248,0.00342
745.78231,0.00349
743.72213,0.00353
741.66196,0.00353
739.60179,0.00340
737.54162,0.00336
735.48145,0.00338
733.42127,0.00336
731.36110,0.00350
729.30093,0.00380
727.24076,0.00378
725.18059,0.00370
723.12041,0.00428
721.06024,0.00437
719.00007,0.00485
716.93990,0.00484
714.87972,0.00443
712.81955,0.00465
710.75938,0.00534
708.69921,0.00577
706.63904,0.00574
704.57886,0.00571
702.51869,0.00594
700.45852,0.00601
698.39835,0.00553
696.33818,0.00486
694.27800,0.00461
692.21783,0.00478
690.15766,0.00527
688.09749,0.00607
686.03731,0.00677
683.97714,0.00693
681.91697,0.00681
679.85680,0.00686
677.79663,0.00718
675.73645,0.00765
673.67628,0.00924
671.61611,0.01142
669.55594,0.00599
667.49577,0.00019
665.43559,0.00930
663.37542,0.00926
661.31525,0.00721
659.25508,0.00620
657.19491,0.00536
655.13473,0.00471
653.07456,0.00506
651.01439,0.00632
648.95422,0.00722
646.89404,0.00737
644.83387,0.00642
642.77370,0.00533
640.71353,0.00464
638.65336,0.00457
636.59318,0.00475
634.53301,0.00425
632.47284,0.00353
630.41267,0.00394
628.35250,0.00465
626.29232,0.00423
624.23215,0.00444
622.17198,0.00573
620.11181,0.00575
618.05164,0.00508
615.99146,0.00476
613.93129,0.00433
611.87112,0.00414
609.81095,0.00417
607.75077,0.00318
605.69060,0.00105
603.63043,0.00020
601.57026,0.00000
599.51009,0.00000
