3996.73391,0.00088
3994.67373,0.00091
3992.61356,0.00056
3990.55339,0.00030
3988.49322,0.00036
3986.43305,0.00042
3984.37287,0.00037
3982.31270,0.00041
3980.25253,0.00045
3978.19236,0.00040
3976.13219,0.00035
3974.07201,0.00029
3972.01184,0.00016
3969.95167,0.00000
3967.89150,0.00005
3965.83133,0.00034
3963.77115,0.00058
3961.71098,0.00061
3959.65081,0.00046
3957.59064,0.00035
3955.53046,0.00047
3953.47029,0.00056
3951.41012,0.00042
3949.34995,0.00031
3947.28978,0.00039
3945.22960,0.00053
3943.16943,0.00062
3941.10926,0.00062
3939.04909,0.00057
3936.98892,0.00054
3934.92874,0.00045
3932.86857,0.00036
3930.80840,0.00036
3928.74823,0.00031
3926.68805,0.00029
3924.62788,0.00046
3922.56771,0.00068
3920.50754,0.00082
3918.44737,0.00093
3916.38719,0.00095
3914.32702,0.00084
3912.26685,0.00061
3910.20668,0.00034
3908.14651,0.00017
3906.08633,0.00029
3904.02616,0.00057
3901.96599,0.00051
3899.90582,0.00022
3897.84565,0.00004
3895.78547,0.00001
3893.72530,0.00013
3891.66513,0.00040
3889.60496,0.00067
3887.54478,0.00085
3885.48461,0.00095
3883.42444,0.00099
3881.36427,0.00087
3879.30410,0.00061
3877.24392,0.00062
3875.18375,0.00091
3873.12358,0.00119
3871.06341,0.00142
3869.00324,0.00145
3866.94306,0.00118
3864.88289,0.00095
3862.82272,0.00081
3860.76255,0.00075
3858.70237,0.00097
3856.64220,0.00148
3854.58203,0.00196
3852.52186,0.00184
3850.46169,0.00118
3848.40151,0.00065
3846.34134,0.00058
3844.28117,0.00099
3842.22100,0.00150
3840.16083,0.00167
3838.10065,0.00149
3836.04048,0.00127
3833.98031,0.00117
3831.92014,0.00103
3829.85997,0.00074
3827.79979,0.00053
3825.73962,0.00055
3823.67945,0.00060
3821.61928,0.00049
3819.55910,0.00049
3817.49893,0.00078
3815.43876,0.00097
3813.37859,0.00086
3811.31842,0.00077
3809.25824,0.00082
3807.19807,0.00086
3805.13790,0.00089
3803.07773,0.00107
3801.01756,0.00119
3798.95738,0.00094
3796.89721,0.00056
3794.83704,0.00032
3792.77687,0.00033
3790.71670,0.00033
3788.65652,0.00018
3786.59635,0.00017
3784.53618,0.00038
3782.47601,0.00056
3780.41583,0.00062
3778.35566,0.00061
3776.29549,0.00059
3774.23532,0.00059
3772.17515,0.00059
3770.11497,0.00066
3768.05480,0.00083
3765.99463,0.00086
3763.93446,0.00081
3761.87429,0.00092
3759.81411,0.00109
3757.75394,0.00106
3755.69377,0.00099
3753.63360,0.00109
3751.57342,0.00117
3749.51325,0.00097
3747.45308,0.00083
3745.39291,0.00082
3743.33274,0.00070
3741.27256,0.00053
3739.21239,0.00043
3737.15222,0.00025
3735.09205,0.00002
3733.03188,0.00004
3730.97170,0.00045
3728.91153,0.00095
3726.85136,0.00125
3724.79119,0.00129
3722.73102,0.00111
3720.67084,0.00089
3718.61067,0.00082
3716.55050,0.00086
3714.49033,0.00083
3712.43015,0.00063
3710.36998,0.00044
3708.30981,0.00041
3706.24964,0.00046
3704.18947,0.00047
3702.12929,0.00033
3700.06912,0.00021
3698.00895,0.00042
3695.94878,0.00085
3693.88861,0.00113
3691.82843,0.00105
3689.76826,0.00082
3687.70809,0.00087
3685.64792,0.00114
3683.58775,0.00142
3681.52757,0.00176
3679.46740,0.00214
3677.40723,0.00242
3675.34706,0.00240
3673.28688,0.00214
3671.22671,0.00216
3669.16654,0.00236
3667.10637,0.00224
3665.04620,0.00208
3662.98602,0.00223
3660.92585,0.00238
3658.86568,0.00218
3656.80551,0.00202
3654.74534,0.00227
3652.68516,0.00258
3650.62499,0.00276
3648.56482,0.00319
3646.50465,0.00374
3644.44447,0.00400
3642.38430,0.00411
3640.32413,0.00427
3638.26396,0.00443
3636.20379,0.00449
3634.14361,0.00455
3632.08344,0.00475
3630.02327,0.00517
3627.96310,0.00561
3625.90293,0.00589
3623.84275,0.00624
3621.78258,0.00670
3619.72241,0.00698
3617.66224,0.00712
3615.60207,0.00750
3613.54189,0.00815
3611.48172,0.00867
3609.42155,0.00886
3607.36138,0.00900
3605.30120,0.00938
3603.24103,0.00972
3601.18086,0.00971
3599.12069,0.00954
3597.06052,0.00968
3595.00034,0.01013
3592.94017,0.01063
3590.88000,0.01111
3588.81983,0.01151
3586.75966,0.01182
3584.69948,0.01221
3582.63931,0.01254
3580.57914,0.01268
3578.51897,0.01278
3576.45879,0.01297
3574.39862,0.01322
3572.33845,0.01359
3570.27828,0.01413
3568.21811,0.01446
3566.15793,0.01424
3564.09776,0.01415
3562.03759,0.01472
3559.97742,0.01549
3557.91725,0.01603
3555.85707,0.01648
3553.79690,0.01700
3551.73673,0.01750
3549.67656,0.01783
3547.61639,0.01788
3545.55621,0.01769
3543.49604,0.01767
3541.43587,0.01802
3539.37570,0.01850
3537.31552,0.01892
3535.25535,0.01936
3533.19518,0.01985
3531.13501,0.02037
3529.07484,0.02092
3527.01466,0.02139
3524.95449,0.02153
3522.89432,0.02139
3520.83415,0.02131
3518.77398,0.02154
3516.71380,0.02206
3514.65363,0.02269
3512.59346,0.02322
3510.53329,0.02359
3508.47312,0.02391
3506.41294,0.02435
3504.35277,0.02473
3502.29260,0.02466
3500.23243,0.02434
3498.17225,0.02431
3496.11208,0.02459
3494.05191,0.02504
3491.99174,0.02545
3489.93157,0.02575
3487.87139,0.02607
3485.81122,0.02639
3483.75105,0.02662
3481.69088,0.02679
3479.63071,0.02705
3477.57053,0.02746
3475.51036,0.02791
3473.45019,0.02823
3471.39002,0.02827
3469.32984,0.02826
3467.26967,0.02848
3465.20950,0.02882
3463.14933,0.02897
3461.08916,0.02889
3459.02898,0.02888
3456.96881,0.02909
3454.90864,0.02940
3452.84847,0.02980
3450.78830,0.03027
3448.72812,0.03061
3446.66795,0.03071
3444.60778,0.03072
3442.54761,0.03083
3440.48744,0.03107
3438.42726,0.03135
3436.36709,0.03150
3434.30692,0.03157
3432.24675,0.03175
3430.18657,0.03194
3428.12640,0.03203
3426.06623,0.03218
3424.00606,0.03257
3421.94589,0.03302
3419.88571,0.03309
3417.82554,0.03294
3415.76537,0.03315
3413.70520,0.03360
3411.64503,0.03385
3409.58485,0.03390
3407.52468,0.03396
3405.46451,0.03421
3403.40434,0.03454
3401.34416,0.03474
3399.28399,0.03469
3397.22382,0.03450
3395.16365,0.03457
3393.10348,0.03477
3391.04330,0.03490
3388.98313,0.03526
3386.92296,0.03560
3384.86279,0.03551
3382.80262,0.03540
3380.74244,0.03561
3378.68227,0.03581
3376.62210,0.03586
3374.56193,0.03602
3372.50176,0.03637
3370.44158,0.03663
3368.38141,0.03666
3366.32124,0.03664
3364.26107,0.03659
3362.20089,0.03652
3360.14072,0.03636
3358.08055,0.03614
3356.02038,0.03614
3353.96021,0.03643
3351.90003,0.03673
3349.83986,0.03680
3347.77969,0.03675
3345.71952,0.03677
3343.65935,0.03700
3341.59917,0.03732
3339.53900,0.03752
3337.47883,0.03753
3335.41866,0.03755
3333.35849,0.03769
3331.29831,0.03784
3329.23814,0.03783
3327.17797,0.03756
3325.11780,0.03721
3323.05762,0.03714
3320.99745,0.03740
3318.93728,0.03765
3316.87711,0.03768
3314.81694,0.03765
3312.75676,0.03766
3310.69659,0.03774
3308.63642,0.03785
3306.57625,0.03790
3304.51608,0.03790
3302.45590,0.03787
3300.39573,0.03784
3298.33556,0.03773
3296.27539,0.03761
3294.21521,0.03767
3292.15504,0.03792
3290.09487,0.03829
3288.03470,0.03852
3285.97453,0.03832
3283.91435,0.03797
3281.85418,0.03796
3279.79401,0.03825
3277.73384,0.03846
3275.67367,0.03843
3273.61349,0.03825
3271.55332,0.03792
3269.49315,0.03765
3267.43298,0.03763
3265.37281,0.03769
3263.31263,0.03774
3261.25246,0.03784
3259.19229,0.03794
3257.13212,0.03805
3255.07194,0.03809
3253.01177,0.03805
3250.95160,0.03806
3248.89143,0.03815
3246.83126,0.03806
3244.77108,0.03779
3242.71091,0.03770
3240.65074,0.03793
3238.59057,0.03816
3236.53040,0.03809
3234.47022,0.03791
3232.41005,0.03785
3230.34988,0.03777
3228.28971,0.03767
3226.22954,0.03776
3224.16936,0.03783
3222.10919,0.03752
3220.04902,0.03703
3217.98885,0.03682
3215.92867,0.03701
3213.86850,0.03723
3211.80833,0.03724
3209.74816,0.03717
3207.68799,0.03712
3205.62781,0.03698
3203.56764,0.03677
3201.50747,0.03672
3199.44730,0.03683
3197.38713,0.03689
3195.32695,0.03684
3193.26678,0.03678
3191.20661,0.03676
3189.14644,0.03666
3187.08626,0.03643
3185.02609,0.03616
3182.96592,0.03591
3180.90575,0.03562
3178.84558,0.03525
3176.78540,0.03500
3174.72523,0.03517
3172.66506,0.03544
3170.60489,0.03536
3168.54472,0.03517
3166.48454,0.03519
3164.42437,0.03536
3162.36420,0.03537
3160.30403,0.03503
3158.24386,0.03455
3156.18368,0.03427
3154.12351,0.03426
3152.06334,0.03432
3150.00317,0.03423
3147.94299,0.03396
3145.88282,0.03365
3143.82265,0.03338
3141.76248,0.03311
3139.70231,0.03290
3137.64213,0.03285
3135.58196,0.03286
3133.52179,0.03277
3131.46162,0.03262
3129.40145,0.03251
3127.34127,0.03244
3125.28110,0.03235
3123.22093,0.03218
3121.16076,0.03193
3119.10058,0.03181
3117.04041,0.03194
3114.98024,0.03209
3112.92007,0.03202
3110.85990,0.03181
3108.79972,0.03157
3106.73955,0.03132
3104.67938,0.03097
3102.61921,0.03059
3100.55904,0.03042
3098.49886,0.03038
3096.43869,0.03026
3094.37852,0.03001
3092.31835,0.02970
3090.25818,0.02951
3088.19800,0.02951
3086.13783,0.02948
3084.07766,0.02936
3082.01749,0.02927
3079.95731,0.02923
3077.89714,0.02916
3075.83697,0.02902
3073.77680,0.02895
3071.71663,0.02894
3069.65645,0.02877
3067.59628,0.02847
3065.53611,0.02813
3063.47594,0.02773
3061.41577,0.02743
3059.35559,0.02729
3057.29542,0.02729
3055.23525,0.02731
3053.17508,0.02712
3051.11491,0.02676
3049.05473,0.02644
3046.99456,0.02629
3044.93439,0.02624
3042.87422,0.02606
3040.81404,0.02573
3038.75387,0.02553
3036.69370,0.02551
3034.63353,0.02545
3032.57336,0.02532
3030.51318,0.02518
3028.45301,0.02502
3026.39284,0.02482
3024.33267,0.02466
3022.27250,0.02457
3020.21232,0.02450
3018.15215,0.02445
3016.09198,0.02437
3014.03181,0.02429
3011.97163,0.02416
3009.91146,0.02385
3007.85129,0.02349
3005.79112,0.02324
3003.73095,0.02310
3001.67077,0.02301
2999.61060,0.02277
2997.55043,0.02254
2995.49026,0.02262
2993.43009,0.02276
2991.36991,0.02268
2989.30974,0.02253
2987.24957,0.02243
2985.18940,0.02232
2983.12923,0.02214
2981.06905,0.02200
2979.00888,0.02205
2976.94871,0.02215
2974.88854,0.02211
2972.82836,0.02200
2970.76819,0.02199
2968.70802,0.02200
2966.64785,0.02206
2964.58768,0.02217
2962.52750,0.02220
2960.46733,0.02222
2958.40716,0.02220
2956.34699,0.02216
2954.28682,0.02220
2952.22664,0.02220
2950.16647,0.02216
2948.10630,0.02213
2946.04613,0.02199
2943.98596,0.02187
2941.92578,0.02192
2939.86561,0.02215
2937.80544,0.02235
2935.74527,0.02234
2933.68509,0.02226
2931.62492,0.02226
2929.56475,0.02231
2927.50458,0.02219
2925.44441,0.02197
2923.38423,0.02186
2921.32406,0.02177
2919.26389,0.02175
2917.20372,0.02184
2915.14355,0.02186
2913.08337,0.02165
2911.02320,0.02127
2908.96303,0.02089
2906.90286,0.02065
2904.84268,0.02059
2902.78251,0.02057
2900.72234,0.02053
2898.66217,0.02042
2896.60200,0.02030
2894.54182,0.02031
2892.48165,0.02025
2890.42148,0.02006
2888.36131,0.01992
2886.30114,0.01988
2884.24096,0.01989
2882.18079,0.01992
2880.12062,0.01990
2878.06045,0.01970
2876.00028,0.01950
2873.94010,0.01948
2871.87993,0.01948
2869.81976,0.01938
2867.75959,0.01930
2865.69941,0.01917
2863.63924,0.01892
2861.57907,0.01883
2859.51890,0.01896
2857.45873,0.01906
2855.39855,0.01901
2853.33838,0.01889
2851.27821,0.01874
2849.21804,0.01867
2847.15787,0.01866
2845.09769,0.01845
2843.03752,0.01816
2840.97735,0.01805
2838.91718,0.01799
2836.85700,0.01783
2834.79683,0.01752
2832.73666,0.01721
2830.67649,0.01709
2828.61632,0.01702
2826.55614,0.01683
2824.49597,0.01669
2822.43580,0.01667
2820.37563,0.01664
2818.31546,0.01651
2816.25528,0.01637
2814.19511,0.01643
2812.13494,0.01666
2810.07477,0.01665
2808.01460,0.01644
2805.95442,0.01636
2803.89425,0.01627
2801.83408,0.01608
2799.77391,0.01601
2797.71373,0.01615
2795.65356,0.01622
2793.59339,0.01601
2791.53322,0.01575
2789.47305,0.01567
2787.41287,0.01566
2785.35270,0.01556
2783.29253,0.01540
2781.23236,0.01530
2779.17219,0.01520
2777.11201,0.01503
2775.05184,0.01494
2772.99167,0.01493
2770.93150,0.01491
2768.87133,0.01481
2766.81115,0.01474
2764.75098,0.01477
2762.69081,0.01472
2760.63064,0.01456
2758.57046,0.01442
2756.51029,0.01437
2754.45012,0.01437
2752.38995,0.01445
2750.32978,0.01453
2748.26960,0.01440
2746.20943,0.01418
2744.14926,0.01406
2742.08909,0.01394
2740.02892,0.01383
2737.96874,0.01387
2735.90857,0.01397
2733.84840,0.01393
2731.78823,0.01377
2729.72805,0.01363
2727.66788,0.01355
2725.60771,0.01353
2723.54754,0.01364
2721.48737,0.01369
2719.42719,0.01345
2717.36702,0.01306
2715.30685,0.01280
2713.24668,0.01282
2711.18651,0.01297
2709.12633,0.01299
2707.06616,0.01286
2705.00599,0.01275
2702.94582,0.01278
2700.88565,0.01273
2698.82547,0.01254
2696.76530,0.01231
2694.70513,0.01219
2692.64496,0.01223
2690.58478,0.01228
2688.52461,0.01225
2686.46444,0.01218
2684.40427,0.01205
2682.34410,0.01189
2680.28392,0.01176
2678.22375,0.01172
2676.16358,0.01175
2674.10341,0.01171
2672.04324,0.01151
2669.98306,0.01125
2667.92289,0.01115
2665.86272,0.01132
2663.80255,0.01147
2661.74238,0.01138
2659.68220,0.01122
2657.62203,0.01114
2655.56186,0.01111
2653.50169,0.01112
2651.44151,0.01106
2649.38134,0.01086
2647.32117,0.01060
2645.26100,0.01042
2643.20083,0.01043
2641.14065,0.01045
2639.08048,0.01038
2637.02031,0.01032
2634.96014,0.01024
2632.89997,0.01007
2630.83979,0.00993
2628.77962,0.00984
2626.71945,0.00968
2624.65928,0.00944
2622.59910,0.00932
2620.53893,0.00939
2618.47876,0.00955
2616.41859,0.00966
2614.35842,0.00953
2612.29824,0.00918
2610.23807,0.00898
2608.17790,0.00892
2606.11773,0.00887
2604.05756,0.00888
2601.99738,0.00893
2599.93721,0.00892
2597.87704,0.00889
2595.81687,0.00885
2593.75670,0.00867
2591.69652,0.00854
2589.63635,0.00853
2587.57618,0.00860
2585.51601,0.00874
2583.45583,0.00882
2581.39566,0.00871
2579.33549,0.00845
2577.27532,0.00829
2575.21515,0.00824
2573.15497,0.00820
2571.09480,0.00815
2569.03463,0.00817
2566.97446,0.00828
2564.91429,0.00816
2562.85411,0.00780
2560.79394,0.00766
2558.73377,0.00777
2556.67360,0.00785
2554.61342,0.00788
2552.55325,0.00792
2550.49308,0.00799
2548.43291,0.00802
2546.37274,0.00782
2544.31256,0.00765
2542.25239,0.00777
2540.19222,0.00780
2538.13205,0.00767
2536.07188,0.00774
2534.01170,0.00800
2531.95153,0.00831
2529.89136,0.00837
2527.83119,0.00809
2525.77102,0.00783
2523.71084,0.00771
2521.65067,0.00767
2519.59050,0.00782
2517.53033,0.00794
2515.47015,0.00769
2513.40998,0.00753
2511.34981,0.00772
2509.28964,0.00779
2507.22947,0.00773
2505.16929,0.00785
2503.10912,0.00794
2501.04895,0.00778
2498.98878,0.00754
2496.92861,0.00743
2494.86843,0.00747
2492.80826,0.00760
2490.74809,0.00778
2488.68792,0.00799
2486.62775,0.00802
2484.56757,0.00789
2482.50740,0.00787
2480.44723,0.00788
2478.38706,0.00791
2476.32688,0.00793
2474.26671,0.00783
2472.20654,0.00774
2470.14637,0.00779
2468.08620,0.00801
2466.02602,0.00831
2463.96585,0.00847
2461.90568,0.00847
2459.84551,0.00844
2457.78534,0.00840
2455.72516,0.00844
2453.66499,0.00843
2451.60482,0.00832
2449.54465,0.00823
2447.48447,0.00828
2445.42430,0.00842
2443.36413,0.00837
2441.30396,0.00806
2439.24379,0.00774
2437.18361,0.00789
2435.12344,0.00832
2433.06327,0.00841
2431.00310,0.00825
2428.94293,0.00819
2426.88275,0.00824
2424.82258,0.00833
2422.76241,0.00825
2420.70224,0.00798
2418.64207,0.00779
2416.58189,0.00773
2414.52172,0.00761
2412.46155,0.00750
2410.40138,0.00761
2408.34120,0.00779
2406.28103,0.00781
2404.22086,0.00776
2402.16069,0.00776
2400.10052,0.00783
2398.04034,0.00791
2395.98017,0.00782
2393.92000,0.00770
2391.85983,0.00766
2389.79966,0.00772
2387.73948,0.00783
2385.67931,0.00797
2383.61914,0.00804
2381.55897,0.00805
2379.49880,0.00815
2377.43862,0.00844
2375.37845,0.00888
2373.31828,0.00951
2371.25811,0.01042
2369.19793,0.01051
2367.13776,0.00869
2365.07759,0.00700
2363.01742,0.00703
2360.95725,0.00667
2358.89707,0.00613
2356.83690,0.00697
2354.77673,0.00790
2352.71656,0.00811
2350.65639,0.00797
2348.59621,0.00779
2346.53604,0.00767
2344.47587,0.00783
2342.41570,0.00842
2340.35552,0.00887
2338.29535,0.00890
2336.23518,0.00896
2334.17501,0.00880
2332.11484,0.00803
2330.05466,0.00753
2327.99449,0.00799
2325.93432,0.00861
2323.87415,0.00860
2321.81398,0.00807
2319.75380,0.00776
2317.69363,0.00817
2315.63346,0.00889
2313.57329,0.00912
2311.51312,0.00859
2309.45294,0.00780
2307.39277,0.00739
2305.33260,0.00735
2303.27243,0.00750
2301.21225,0.00778
2299.15208,0.00782
2297.09191,0.00750
2295.03174,0.00728
2292.97157,0.00719
2290.91139,0.00698
2288.85122,0.00690
2286.79105,0.00711
2284.73088,0.00733
2282.67071,0.00730
2280.61053,0.00715
2278.55036,0.00712
2276.49019,0.00696
2274.43002,0.00645
2272.36984,0.00613
2270.30967,0.00635
2268.24950,0.00655
2266.18933,0.00640
2264.12916,0.00632
2262.06898,0.00636
2260.00881,0.00614
2257.94864,0.00572
2255.88847,0.00544
2253.82830,0.00546
2251.76812,0.00566
2249.70795,0.00566
2247.64778,0.00549
2245.58761,0.00538
2243.52744,0.00525
2241.46726,0.00527
2239.40709,0.00539
2237.34692,0.00534
2235.28675,0.00540
2233.22657,0.00549
2231.16640,0.00544
2229.10623,0.00548
2227.04606,0.00544
2224.98589,0.00531
2222.92571,0.00531
2220.86554,0.00542
2218.80537,0.00527
2216.74520,0.00472
2214.68503,0.00433
2212.62485,0.00425
2210.56468,0.00409
2208.50451,0.00402
2206.44434,0.00411
2204.38417,0.00433
2202.32399,0.00487
2200.26382,0.00538
2198.20365,0.00553
2196.14348,0.00551
2194.08330,0.00538
2192.02313,0.00523
2189.96296,0.00496
2187.90279,0.00463
2185.84262,0.00494
2183.78244,0.00528
2181.72227,0.00474
2179.66210,0.00403
2177.60193,0.00383
2175.54176,0.00418
2173.48158,0.00471
2171.42141,0.00422
2169.36124,0.00262
2167.30107,0.00182
2165.24089,0.00268
2163.18072,0.00337
2161.12055,0.00317
2159.06038,0.00382
2157.00021,0.00425
2154.94003,0.00286
2152.87986,0.00127
2150.81969,0.00082
2148.75952,0.00117
2146.69935,0.00173
2144.63917,0.00292
2142.57900,0.00431
2140.51883,0.00459
2138.45866,0.00379
2136.39849,0.00278
2134.33831,0.00269
2132.27814,0.00327
2130.21797,0.00337
2128.15780,0.00319
2126.09762,0.00332
2124.03745,0.00367
2121.97728,0.00390
2119.91711,0.00405
2117.85694,0.00414
2115.79676,0.00377
2113.73659,0.00315
2111.67642,0.00330
2109.61625,0.00403
2107.55608,0.00428
2105.49590,0.00412
2103.43573,0.00399
2101.37556,0.00376
2099.31539,0.00321
2097.25521,0.00246
2095.19504,0.00230
2093.13487,0.00285
2091.07470,0.00334
2089.01453,0.00365
2086.95435,0.00377
2084.89418,0.00352
2082.83401,0.00347
2080.77384,0.00376
2078.71367,0.00339
2076.65349,0.00264
2074.59332,0.00257
2072.53315,0.00309
2070.47298,0.00345
2068.41281,0.00338
2066.35263,0.00317
2064.29246,0.00291
2062.23229,0.00255
2060.17212,0.00232
2058.11194,0.00234
2056.05177,0.00240
2053.99160,0.00250
2051.93143,0.00252
2049.87126,0.00238
2047.81108,0.00246
2045.75091,0.00279
2043.69074,0.00263
2041.63057,0.00172
2039.57040,0.00117
2037.51022,0.00163
2035.45005,0.00184
2033.38988,0.00128
2031.32971,0.00108
2029.26954,0.00156
2027.20936,0.00162
2025.14919,0.00094
2023.08902,0.00080
2021.02885,0.00157
2018.96867,0.00210
2016.90850,0.00198
2014.84833,0.00197
2012.78816,0.00261
2010.72799,0.00331
2008.66781,0.00254
2006.60764,0.00077
2004.54747,0.00023
2002.48730,0.00070
2000.42713,0.00078
1998.36695,0.00069
1996.30678,0.00134
1994.24661,0.00229
1992.18644,0.00284
1990.12626,0.00346
1988.06609,0.00392
1986.00592,0.00360
1983.94575,0.00301
1981.88558,0.00262
1979.82540,0.00183
1977.76523,0.00055
1975.70506,0.00017
1973.64489,0.00068
1971.58472,0.00086
1969.52454,0.00092
1967.46437,0.00121
1965.40420,0.00107
1963.34403,0.00089
1961.28386,0.00168
1959.22368,0.00302
1957.16351,0.00382
1955.10334,0.00346
1953.04317,0.00252
1950.98299,0.00233
1948.92282,0.00266
1946.86265,0.00254
1944.80248,0.00211
1942.74231,0.00164
1940.68213,0.00110
1938.62196,0.00048
1936.56179,0.00017
1934.50162,0.00070
1932.44145,0.00180
1930.38127,0.00260
1928.32110,0.00259
1926.26093,0.00219
1924.20076,0.00200
1922.14059,0.00216
1920.08041,0.00248
1918.02024,0.00273
1915.96007,0.00274
1913.89990,0.00241
1911.83972,0.00192
1909.77955,0.00166
1907.71938,0.00160
1905.65921,0.00153
1903.59904,0.00158
1901.53886,0.00195
1899.47869,0.00231
1897.41852,0.00229
1895.35835,0.00193
1893.29818,0.00157
1891.23800,0.00166
1889.17783,0.00212
1887.11766,0.00243
1885.05749,0.00237
1882.99731,0.00209
1880.93714,0.00188
1878.87697,0.00191
1876.81680,0.00205
1874.75663,0.00209
1872.69645,0.00207
1870.63628,0.00201
1868.57611,0.00189
1866.51594,0.00192
1864.45577,0.00217
1862.39559,0.00234
1860.33542,0.00232
1858.27525,0.00218
1856.21508,0.00194
1854.15491,0.00183
1852.09473,0.00211
1850.03456,0.00255
1847.97439,0.00261
1845.91422,0.00226
1843.85404,0.00197
1841.79387,0.00197
1839.73370,0.00204
1837.67353,0.00207
1835.61336,0.00221
1833.55318,0.00239
1831.49301,0.00233
1829.43284,0.00202
1827.37267,0.00188
1825.31250,0.00205
1823.25232,0.00219
1821.19215,0.00219
1819.13198,0.00220
1817.07181,0.00226
1815.01163,0.00225
1812.95146,0.00212
1810.89129,0.00201
1808.83112,0.00203
1806.77095,0.00205
1804.71077,0.00202
1802.65060,0.00195
1800.59043,0.00185
1798.53026,0.00176
1796.47009,0.00180
1794.40991,0.00197
1792.34974,0.00216
1790.28957,0.00231
1788.22940,0.00244
1786.16923,0.00242
1784.10905,0.00230
1782.04888,0.00229
1779.98871,0.00235
1777.92854,0.00236
1775.86836,0.00239
1773.80819,0.00251
1771.74802,0.00265
1769.68785,0.00275
1767.62768,0.00278
1765.56750,0.00280
1763.50733,0.00292
1761.44716,0.00309
1759.38699,0.00318
1757.32682,0.00322
1755.26664,0.00333
1753.20647,0.00369
1751.14630,0.00415
1749.08613,0.00434
1747.02596,0.00427
1744.96578,0.00435
1742.90561,0.00470
1740.84544,0.00503
1738.78527,0.00509
1736.72509,0.00501
1734.66492,0.00493
1732.60475,0.00491
1730.54458,0.00503
1728.48441,0.00514
1726.42423,0.00521
1724.36406,0.00535
1722.30389,0.00562
1720.24372,0.00604
1718.18355,0.00636
1716.12337,0.00623
1714.06320,0.00585
1712.00303,0.00573
1709.94286,0.00588
1707.88268,0.00607
1705.82251,0.00616
1703.76234,0.00628
1701.70217,0.00648
1699.64200,0.00669
1697.58182,0.00689
1695.52165,0.00716
1693.46148,0.00755
1691.40131,0.00796
1689.34114,0.00832
1687.28096,0.00873
1685.22079,0.00916
1683.16062,0.00944
1681.10045,0.00970
1679.04028,0.01013
1676.98010,0.01062
1674.91993,0.01094
1672.85976,0.01109
1670.79959,0.01119
1668.73941,0.01127
1666.67924,0.01152
1664.61907,0.01194
1662.55890,0.01228
1660.49873,0.01259
1658.43855,0.01303
1656.37838,0.01346
1654.31821,0.01357
1652.25804,0.01351
1650.19787,0.01388
1648.13769,0.01422
1646.07752,0.01404
1644.01735,0.01385
1641.95718,0.01399
1639.89701,0.01420
1637.83683,0.01411
1635.77666,0.01371
1633.71649,0.01361
1631.65632,0.01392
1629.59614,0.01418
1627.53597,0.01423
1625.47580,0.01419
1623.41563,0.01417
1621.35546,0.01430
1619.29528,0.01456
1617.23511,0.01447
1615.17494,0.01403
1613.11477,0.01382
1611.05460,0.01382
1608.99442,0.01377
1606.93425,0.01366
1604.87408,0.01354
1602.81391,0.01336
1600.75373,0.01307
1598.69356,0.01275
1596.63339,0.01241
1594.57322,0.01206
1592.51305,0.01171
1590.45287,0.01126
1588.39270,0.01068
1586.33253,0.01008
1584.27236,0.00955
1582.21219,0.00920
1580.15201,0.00904
1578.09184,0.00879
1576.03167,0.00820
1573.97150,0.00774
1571.91133,0.00768
1569.85115,0.00747
1567.79098,0.00703
1565.73081,0.00674
1563.67064,0.00667
1561.61046,0.00667
1559.55029,0.00642
1557.49012,0.00587
1555.42995,0.00560
1553.36978,0.00546
1551.30960,0.00528
1549.24943,0.00521
1547.18926,0.00534
1545.12909,0.00551
1543.06892,0.00541
1541.00874,0.00484
1538.94857,0.00418
1536.88840,0.00401
1534.82823,0.00408
1532.76805,0.00398
1530.70788,0.00387
1528.64771,0.00386
1526.58754,0.00375
1524.52737,0.00354
1522.46719,0.00339
1520.40702,0.00326
1518.34685,0.00308
1516.28668,0.00285
1514.22651,0.00278
1512.16633,0.00294
1510.10616,0.00305
1508.04599,0.00266
1505.98582,0.00200
1503.92565,0.00187
1501.86547,0.00217
1499.80530,0.00250
1497.74513,0.00257
1495.68496,0.00234
1493.62478,0.00228
1491.56461,0.00245
1489.50444,0.00243
1487.44427,0.00212
1485.38410,0.00199
1483.32392,0.00217
1481.26375,0.00243
1479.20358,0.00265
1477.14341,0.00287
1475.08324,0.00308
1473.02306,0.00321
1470.96289,0.00334
1468.90272,0.00359
1466.84255,0.00383
1464.78238,0.00385
1462.72220,0.00386
1460.66203,0.00415
1458.60186,0.00456
1456.54169,0.00475
1454.48151,0.00474
1452.42134,0.00475
1450.36117,0.00477
1448.30100,0.00475
1446.24083,0.00466
1444.18065,0.00460
1442.12048,0.00462
1440.06031,0.00466
1438.00014,0.00467
1435.93997,0.00463
1433.87979,0.00469
1431.81962,0.00492
1429.75945,0.00521
1427.69928,0.00546
1425.63910,0.00569
1423.57893,0.00594
1421.51876,0.00618
1419.45859,0.00635
1417.39842,0.00636
1415.33824,0.00628
1413.27807,0.00619
1411.21790,0.00614
1409.15773,0.00613
1407.09756,0.00610
1405.03738,0.00596
1402.97721,0.00578
1400.91704,0.00566
1398.85687,0.00548
1396.79670,0.00519
1394.73652,0.00494
1392.67635,0.00491
1390.61618,0.00503
1388.55601,0.00510
1386.49583,0.00504
1384.43566,0.00501
1382.37549,0.00505
1380.31532,0.00512
1378.25515,0.00521
1376.19497,0.00528
1374.13480,0.00518
1372.07463,0.00498
1370.01446,0.00489
1367.95429,0.00495
1365.89411,0.00504
1363.83394,0.00500
1361.77377,0.00473
1359.71360,0.00441
1357.65343,0.00422
1355.59325,0.00409
1353.53308,0.00388
1351.47291,0.00370
1349.41274,0.00365
1347.35256,0.00367
1345.29239,0.00370
1343.23222,0.00378
1341.17205,0.00380
1339.11188,0.00367
1337.05170,0.00349
1334.99153,0.00345
1332.93136,0.00350
1330.87119,0.00354
1328.81102,0.00363
1326.75084,0.00370
1324.69067,0.00368
1322.63050,0.00360
1320.57033,0.00351
1318.51015,0.00343
1316.44998,0.00343
1314.38981,0.00342
1312.32964,0.00326
1310.26947,0.00311
1308.20929,0.00313
1306.14912,0.00320
1304.08895,0.00320
1302.02878,0.00316
1299.96861,0.00312
1297.90843,0.00311
1295.84826,0.00315
1293.78809,0.00325
1291.72792,0.00333
1289.66775,0.00334
1287.60757,0.00326
1285.54740,0.00319
1283.48723,0.00319
1281.42706,0.00326
1279.36688,0.00326
1277.30671,0.00318
1275.24654,0.00319
1273.18637,0.00332
1271.12620,0.00345
1269.06602,0.00355
1267.00585,0.00366
1264.94568,0.00375
1262.88551,0.00373
1260.82534,0.00368
1258.76516,0.00373
1256.70499,0.00387
1254.64482,0.00393
1252.58465,0.00388
1250.52447,0.00378
1248.46430,0.00370
1246.40413,0.00365
1244.34396,0.00348
1242.28379,0.00326
1240.22361,0.00313
1238.16344,0.00301
1236.10327,0.00282
1234.04310,0.00268
1231.98293,0.00261
1229.92275,0.00252
1227.86258,0.00238
1225.80241,0.00223
1223.74224,0.00201
1221.68207,0.00176
1219.62189,0.00152
1217.56172,0.00122
1215.50155,0.00087
1213.44138,0.00059
1211.38120,0.00044
1209.32103,0.00038
1207.26086,0.00036
1205.20069,0.00031
1203.14052,0.00023
1201.08034,0.00020
1199.02017,0.00017
1196.96000,0.00017
1194.89983,0.00036
1192.83966,0.00064
1190.77948,0.00081
1188.71931,0.00096
1186.65914,0.00126
1184.59897,0.00168
1182.53880,0.00200
1180.47862,0.00226
1178.41845,0.00284
1176.35828,0.00367
1174.29811,0.00449
1172.23793,0.00525
1170.17776,0.00588
1168.11759,0.00646
1166.05742,0.00716
1163.99725,0.00796
1161.93707,0.00867
1159.87690,0.00929
1157.81673,0.00987
1155.75656,0.01046
1153.69639,0.01101
1151.63621,0.01151
1149.57604,0.01207
1147.51587,0.01273
1145.45570,0.01343
1143.39552,0.01417
1141.33535,0.01494
1139.27518,0.01563
1137.21501,0.01624
1135.15484,0.01687
1133.09466,0.01768
1131.03449,0.01866
1128.97432,0.01954
1126.91415,0.02023
1124.85398,0.02087
1122.79380,0.02152
1120.73363,0.02231
1118.67346,0.02320
1116.61329,0.02406
1114.55312,0.02490
1112.49294,0.02565
1110.43277,0.02648
1108.37260,0.02759
1106.31243,0.02863
1104.25225,0.02944
1102.19208,0.03021
1100.13191,0.03108
1098.07174,0.03200
1096.01157,0.03275
1093.95139,0.03341
1091.89122,0.03432
1089.83105,0.03532
1087.77088,0.03619
1085.71071,0.03706
1083.65053,0.03795
1081.59036,0.03873
1079.53019,0.03937
1077.47002,0.03990
1075.40985,0.04042
1073.34967,0.04080
1071.28950,0.04091
1069.22933,0.04104
1067.16916,0.04128
1065.10898,0.04137
1063.04881,0.04130
1060.98864,0.04119
1058.92847,0.04099
1056.86830,0.04067
1054.80812,0.04040
1052.74795,0.04015
1050.68778,0.03977
1048.62761,0.03924
1046.56744,0.03859
1044.50726,0.03794
1042.44709,0.03730
1040.38692,0.03653
1038.32675,0.03572
1036.26657,0.03512
1034.20640,0.03466
1032.14623,0.03412
1030.08606,0.03344
1028.02589,0.03277
1025.96571,0.03221
1023.90554,0.03159
1021.84537,0.03086
1019.78520,0.03017
1017.72503,0.02945
1015.66485,0.02859
1013.60468,0.02781
1011.54451,0.02723
1009.48434,0.02660
1007.42417,0.02592
1005.36399,0.02547
1003.30382,0.02515
1001.24365,0.02496
999.18348,0.02510
997.12330,0.02536
995.06313,0.02558
993.00296,0.02594
990.94279,0.02645
988.88262,0.02694
986.82244,0.02735
984.76227,0.02749
982.70210,0.02731
980.64193,0.02695
978.58176,0.02620
976.52158,0.02509
974.46141,0.02399
972.40124,0.02294
970.34107,0.02181
968.28089,0.02066
966.22072,0.01964
964.16055,0.01878
962.10038,0.01778
960.04021,0.01666
957.98003,0.01578
955.91986,0.01510
953.85969,0.01442
951.79952,0.01379
949.73935,0.01323
947.67917,0.01265
945.61900,0.01216
943.55883,0.01177
941.49866,0.01144
939.43849,0.01122
937.37831,0.01093
935.31814,0.01047
933.25797,0.01010
931.19780,0.00985
929.13762,0.00961
927.07745,0.00947
925.01728,0.00949
922.95711,0.00956
920.89694,0.00943
918.83676,0.00890
916.77659,0.00825
914.71642,0.00763
912.65625,0.00714
910.59608,0.00705
908.53590,0.00712
906.47573,0.00691
904.41556,0.00657
902.35539,0.00638
900.29522,0.00642
898.23504,0.00655
896.17487,0.00657
894.11470,0.00664
892.05453,0.00682
889.99435,0.00689
887.93418,0.00692
885.87401,0.00715
883.81384,0.00745
881.75367,0.00758
879.69349,0.00774
877.63332,0.00820
875.57315,0.00866
873.51298,0.00904
871.45281,0.00922
869.39263,0.00893
867.33246,0.00870
865.27229,0.00884
863.21212,0.00901
861.15194,0.00906
859.09177,0.00891
857.03160,0.00867
854.97143,0.00860
852.91126,0.00857
850.85108,0.00838
848.79091,0.00793
846.73074,0.00734
844.67057,0.00683
842.61040,0.00670
840.55022,0.00688
838.49005,0.00673
836.42988,0.00632
834.36971,0.00607
832.30954,0.00591
830.24936,0.00569
828.18919,0.00535
826.12902,0.00498
824.06885,0.00453
822.00867,0.00413
819.94850,0.00414
817.88833,0.00416
815.82816,0.00372
813.76799,0.00328
811.70781,0.00324
809.64764,0.00343
807.58747,0.00357
805.52730,0.00344
803.46713,0.00311
801.40695,0.00282
799.34678,0.00278
797.28661,0.00282
795.22644,0.00266
793.16627,0.00250
791.10609,0.00234
789.04592,0.00190
786.98575,0.00161
784.92558,0.00192
782.86540,0.00240
780.80523,0.00258
778.74506,0.00250
776.68489,0.00237
774.62472,0.00216
772.56454,0.00190
770.50437,0.00184
768.44420,0.00184
766.38403,0.00184
764.32386,0.00195
762.26368,0.00178
760.20351,0.00156
758.14334,0.00159
756.08317,0.00146
754.02299,0.00144
751.96282,0.00152
749.90265,0.00107
747.84248,0.00046
745.78231,0.00027
743.72213,0.00056
741.66196,0.00116
739.60179,0.00148
737.54162,0.00144
735.48145,0.00150
733.42127,0.00165
731.36110,0.00188
729.30093,0.00197
727.24076,0.00146
725.18059,0.00095
723.12041,0.00098
721.06024,0.00135
719.00007,0.00162
716.93990,0.00153
714.87972,0.00124
712.81955,0.00124
710.75938,0.00165
708.69921,0.00194
706.63904,0.00195
704.57886,0.00231
702.51869,0.00303
700.45852,0.00305
698.39835,0.00223
696.33818,0.00168
694.27800,0.00169
692.21783,0.00153
690.15766,0.00126
688.09749,0.00136
686.03731,0.00122
683.97714,0.00057
681.91697,0.00028
679.85680,0.00060
677.79663,0.00106
675.73645,0.00160
673.67628,0.00250
671.61611,0.00330
669.55594,0.00366
667.49577,0.00351
665.43559,0.00272
663.37542,0.00200
661.31525,0.00179
659.25508,0.00161
657.19491,0.00127
655.13473,0.00097
653.07456,0.00101
651.01439,0.00170
648.95422,0.00315
646.89404,0.00463
644.83387,0.00498
642.77370,0.00405
640.71353,0.00261
638.65336,0.00163
636.59318,0.00166
634.53301,0.00201
632.47284,0.00207
630.41267,0.00243
628.35250,0.00280
626.29232,0.00225
624.23215,0.00236
622.17198,0.00399
620.11181,0.00428
618.05164,0.00202
615.99146,0.00028
613.93129,0.00071
611.87112,0.00180
609.81095,0.00197
607.75077,0.00163
605.69060,0.00105
603.63043,0.00036
601.57026,0.00000
599.51009,0.00000
