3996.73391,0.00087
3994.67373,0.00062
3992.61356,0.00041
3990.55339,0.00034
3988.49322,0.00033
3986.43305,0.00040
3984.37287,0.00050
3982.31270,0.00049
3980.25253,0.00041
3978.19236,0.00044
3976.13219,0.00055
3974.07201,0.00062
3972.01184,0.00071
3969.95167,0.00084
3967.89150,0.00084
3965.83133,0.00065
3963.77115,0.00035
3961.71098,0.00011
3959.65081,0.00000
3957.59064,0.00009
3955.53046,0.00035
3953.47029,0.00058
3951.41012,0.00068
3949.34995,0.00066
3947.28978,0.00054
3945.22960,0.00045
3943.16943,0.00051
3941.10926,0.00054
3939.04909,0.00049
3936.98892,0.00047
3934.92874,0.00046
3932.86857,0.00050
3930.80840,0.00064
3928.74823,0.00068
3926.68805,0.00063
3924.62788,0.00068
3922.56771,0.00086
3920.50754,0.00097
3918.44737,0.00077
3916.38719,0.00046
3914.32702,0.00049
3912.26685,0.00070
3910.20668,0.00071
3908.14651,0.00044
3906.08633,0.00014
3904.02616,0.00002
3901.96599,0.00005
3899.90582,0.00015
3897.84565,0.00034
3895.78547,0.00048
3893.72530,0.00048
3891.66513,0.00045
3889.60496,0.00048
3887.54478,0.00052
3885.48461,0.00054
3883.42444,0.00066
3881.36427,0.00076
3879.30410,0.00066
3877.24392,0.00068
3875.18375,0.00102
3873.12358,0.00136
3871.06341,0.00140
3869.00324,0.00113
3866.94306,0.00086
3864.88289,0.00078
3862.82272,0.00070
3860.76255,0.00058
3858.70237,0.00063
3856.64220,0.00108
3854.58203,0.00166
3852.52186,0.00170
3850.46169,0.00125
3848.40151,0.00090
3846.34134,0.00080
3844.28117,0.00096
3842.22100,0.00133
3840.16083,0.00167
3838.10065,0.00171
3836.04048,0.00163
3833.98031,0.00158
3831.92014,0.00137
3829.85997,0.00107
3827.79979,0.00088
3825.73962,0.00077
3823.67945,0.00060
3821.61928,0.00026
3819.55910,0.00018
3817.49893,0.00067
3815.43876,0.00117
3813.37859,0.00136
3811.31842,0.00152
3809.25824,0.00172
3807.19807,0.00166
3805.13790,0.00128
3803.07773,0.00092
3801.01756,0.00075
3798.95738,0.00073
3796.89721,0.00077
3794.83704,0.00076
3792.77687,0.00059
3790.71670,0.00031
3788.65652,0.00019
3786.59635,0.00043
3784.53618,0.00095
3782.47601,0.00138
3780.41583,0.00148
3778.35566,0.00151
3776.29549,0.00159
3774.23532,0.00158
3772.17515,0.00141
3770.11497,0.00118
3768.05480,0.00116
3765.99463,0.00140
3763.93446,0.00172
3761.87429,0.00185
3759.81411,0.00168
3757.75394,0.00151
3755.69377,0.00171
3753.63360,0.00192
3751.57342,0.00154
3749.51325,0.00095
3747.45308,0.00096
3745.39291,0.00122
3743.33274,0.00102
3741.27256,0.00069
3739.21239,0.00054
3737.15222,0.00029
3735.09205,0.00007
3733.03188,0.00018
3730.97170,0.00050
3728.91153,0.00076
3726.85136,0.00094
3724.79119,0.00102
3722.73102,0.00102
3720.67084,0.00124
3718.61067,0.00166
3716.55050,0.00218
3714.49033,0.00238
3712.43015,0.00177
3710.36998,0.00107
3708.30981,0.00104
3706.24964,0.00163
3704.18947,0.00204
3702.12929,0.00173
3700.06912,0.00121
3698.00895,0.00124
3695.94878,0.00164
3693.88861,0.00169
3691.82843,0.00123
3689.76826,0.00073
3687.70809,0.00092
3685.64792,0.00155
3683.58775,0.00217
3681.52757,0.00249
3679.46740,0.00261
3677.40723,0.00284
3675.34706,0.00305
3673.28688,0.00266
3671.22671,0.00194
3669.16654,0.00169
3667.10637,0.00216
3665.04620,0.00282
3662.98602,0.00328
3660.92585,0.00338
3658.86568,0.00316
3656.80551,0.00297
3654.74534,0.00313
3652.68516,0.00334
3650.62499,0.00318
3648.56482,0.00304
3646.50465,0.00343
3644.44447,0.00401
3642.38430,0.00464
3640.32413,0.00516
3638.26396,0.00543
3636.20379,0.00553
3634.14361,0.00553
3632.08344,0.00552
3630.02327,0.00561
3627.96310,0.00581
3625.90293,0.00612
3623.84275,0.00674
3621.78258,0.00738
3619.72241,0.00754
3617.66224,0.00743
3615.60207,0.00754
3613.54189,0.00800
3611.48172,0.00841
3609.42155,0.00859
3607.36138,0.00880
3605.30120,0.00925
3603.24103,0.00976
3601.18086,0.00994
3599.12069,0.01008
3597.06052,0.01045
3595.00034,0.01092
3592.94017,0.01128
3590.88000,0.01167
3588.81983,0.01188
3586.75966,0.01209
3584.69948,0.01268
3582.63931,0.01339
3580.57914,0.01373
3578.51897,0.01378
3576.45879,0.01389
3574.39862,0.01405
3572.33845,0.01428
3570.27828,0.01468
3568.21811,0.01492
3566.15793,0.01489
3564.09776,0.01519
3562.03759,0.01587
3559.97742,0.01639
3557.91725,0.01664
3555.85707,0.01685
3553.79690,0.01718
3551.73673,0.01755
3549.67656,0.01794
3547.61639,0.01831
3545.55621,0.01855
3543.49604,0.01881
3541.43587,0.01914
3539.37570,0.01942
3537.31552,0.01965
3535.25535,0.01988
3533.19518,0.02018
3531.13501,0.02057
3529.07484,0.02096
3527.01466,0.02138
3524.95449,0.02182
3522.89432,0.02204
3520.83415,0.02216
3518.77398,0.02250
3516.71380,0.02293
3514.65363,0.02329
3512.59346,0.02356
3510.53329,0.02369
3508.47312,0.02383
3506.41294,0.02414
3504.35277,0.02450
3502.29260,0.02464
3500.23243,0.02461
3498.17225,0.02475
3496.11208,0.02524
3494.05191,0.02584
3491.99174,0.02623
3489.93157,0.02648
3487.87139,0.02680
3485.81122,0.02712
3483.75105,0.02733
3481.69088,0.02741
3479.63071,0.02746
3477.57053,0.02760
3475.51036,0.02785
3473.45019,0.02827
3471.39002,0.02874
3469.32984,0.02908
3467.26967,0.02924
3465.20950,0.02923
3463.14933,0.02916
3461.08916,0.02914
3459.02898,0.02932
3456.96881,0.02963
3454.90864,0.02993
3452.84847,0.03023
3450.78830,0.03058
3448.72812,0.03089
3446.66795,0.03106
3444.60778,0.03126
3442.54761,0.03153
3440.48744,0.03179
3438.42726,0.03200
3436.36709,0.03212
3434.30692,0.03220
3432.24675,0.03226
3430.18657,0.03229
3428.12640,0.03249
3426.06623,0.03294
3424.00606,0.03336
3421.94589,0.03345
3419.88571,0.03340
3417.82554,0.03360
3415.76537,0.03392
3413.70520,0.03411
3411.64503,0.03427
3409.58485,0.03449
3407.52468,0.03471
3405.46451,0.03491
3403.40434,0.03504
3401.34416,0.03517
3399.28399,0.03541
3397.22382,0.03558
3395.16365,0.03558
3393.10348,0.03526
3391.04330,0.03486
3388.98313,0.03489
3386.92296,0.03532
3384.86279,0.03559
3382.80262,0.03569
3380.74244,0.03595
3378.68227,0.03629
3376.62210,0.03639
3374.56193,0.03626
3372.50176,0.03626
3370.44158,0.03649
3368.38141,0.03681
3366.32124,0.03710
3364.26107,0.03712
3362.20089,0.03700
3360.14072,0.03697
3358.08055,0.03703
3356.02038,0.03715
3353.96021,0.03731
3351.90003,0.03738
3349.83986,0.03726
3347.77969,0.03707
3345.71952,0.03699
3343.65935,0.03713
3341.59917,0.03743
3339.53900,0.03772
3337.47883,0.03787
3335.41866,0.03800
3333.35849,0.03815
3331.29831,0.03826
3329.23814,0.03824
3327.17797,0.03794
3325.11780,0.03747
3323.05762,0.03717
3320.99745,0.03728
3318.93728,0.03776
3316.87711,0.03823
3314.81694,0.03848
3312.75676,0.03853
3310.69659,0.03835
3308.63642,0.03808
3306.57625,0.03793
3304.51608,0.03797
3302.45590,0.03807
3300.39573,0.03807
3298.33556,0.03803
3296.27539,0.03802
3294.21521,0.03808
3292.15504,0.03828
3290.09487,0.03861
3288.03470,0.03891
3285.97453,0.03894
3283.91435,0.03874
3281.85418,0.03861
3279.79401,0.03865
3277.73384,0.03873
3275.67367,0.03886
3273.61349,0.03887
3271.55332,0.03865
3269.49315,0.03850
3267.43298,0.03857
3265.37281,0.03867
3263.31263,0.03871
3261.25246,0.03867
3259.19229,0.03859
3257.13212,0.03857
3255.07194,0.03851
3253.01177,0.03835
3250.95160,0.03836
3248.89143,0.03852
3246.83126,0.03859
3244.77108,0.03853
3242.71091,0.03844
3240.65074,0.03831
3238.59057,0.03823
3236.53040,0.03826
3234.47022,0.03827
3232.41005,0.03821
3230.34988,0.03823
3228.28971,0.03837
3226.22954,0.03847
3224.16936,0.03844
3222.10919,0.03822
3220.04902,0.03782
3217.98885,0.03748
3215.92867,0.03731
3213.86850,0.03719
3211.80833,0.03726
3209.74816,0.03757
3207.68799,0.03777
3205.62781,0.03769
3203.56764,0.03749
3201.50747,0.03733
3199.44730,0.03722
3197.38713,0.03706
3195.32695,0.03685
3193.26678,0.03679
3191.20661,0.03683
3189.14644,0.03673
3187.08626,0.03658
3185.02609,0.03651
3182.96592,0.03623
3180.90575,0.03578
3178.84558,0.03560
3176.78540,0.03575
3174.72523,0.03596
3172.66506,0.03596
3170.60489,0.03577
3168.54472,0.03557
3166.48454,0.03530
3164.42437,0.03505
3162.36420,0.03503
3160.30403,0.03514
3158.24386,0.03509
3156.18368,0.03495
3154.12351,0.03480
3152.06334,0.03461
3150.00317,0.03446
3147.94299,0.03435
3145.88282,0.03413
3143.82265,0.03384
3141.76248,0.03355
3139.70231,0.03335
3137.64213,0.03332
3135.58196,0.03328
3133.52179,0.03313
3131.46162,0.03291
3129.40145,0.03276
3127.34127,0.03271
3125.28110,0.03256
3123.22093,0.03230
3121.16076,0.03215
3119.10058,0.03219
3117.04041,0.03236
3114.98024,0.03253
3112.92007,0.03248
3110.85990,0.03206
3108.79972,0.03162
3106.73955,0.03148
3104.67938,0.03132
3102.61921,0.03093
3100.55904,0.03070
3098.49886,0.03068
3096.43869,0.03057
3094.37852,0.03045
3092.31835,0.03035
3090.25818,0.03020
3088.19800,0.03007
3086.13783,0.02996
3084.07766,0.02985
3082.01749,0.02971
3079.95731,0.02962
3077.89714,0.02965
3075.83697,0.02962
3073.77680,0.02946
3071.71663,0.02924
3069.65645,0.02904
3067.59628,0.02890
3065.53611,0.02866
3063.47594,0.02825
3061.41577,0.02790
3059.35559,0.02783
3057.29542,0.02798
3055.23525,0.02808
3053.17508,0.02785
3051.11491,0.02750
3049.05473,0.02727
3046.99456,0.02706
3044.93439,0.02685
3042.87422,0.02653
3040.81404,0.02610
3038.75387,0.02592
3036.69370,0.02599
3034.63353,0.02598
3032.57336,0.02592
3030.51318,0.02589
3028.45301,0.02576
3026.39284,0.02556
3024.33267,0.02540
3022.27250,0.02525
3020.21232,0.02513
3018.15215,0.02510
3016.09198,0.02502
3014.03181,0.02481
3011.97163,0.02454
3009.91146,0.02434
3007.85129,0.02421
3005.79112,0.02396
3003.73095,0.02368
3001.67077,0.02356
2999.61060,0.02348
2997.55043,0.02342
2995.49026,0.02353
2993.43009,0.02364
2991.36991,0.02361
2989.30974,0.02336
2987.24957,0.02305
2985.18940,0.02289
2983.12923,0.02283
2981.06905,0.02277
2979.00888,0.02275
2976.94871,0.02276
2974.88854,0.02272
2972.82836,0.02267
2970.76819,0.02273
2968.70802,0.02280
2966.64785,0.02280
2964.58768,0.02269
2962.52750,0.02252
2960.46733,0.02247
2958.40716,0.02254
2956.34699,0.02271
2954.28682,0.02288
2952.22664,0.02278
2950.16647,0.02268
2948.10630,0.02281
2946.04613,0.02287
2943.98596,0.02278
2941.92578,0.02286
2939.86561,0.02312
2937.80544,0.02320
2935.74527,0.02306
2933.68509,0.02291
2931.62492,0.02283
2929.56475,0.02283
2927.50458,0.02289
2925.44441,0.02290
2923.38423,0.02272
2921.32406,0.02253
2919.26389,0.02260
2917.20372,0.02270
2915.14355,0.02247
2913.08337,0.02215
2911.02320,0.02200
2908.96303,0.02179
2906.90286,0.02145
2904.84268,0.02129
2902.78251,0.02136
2900.72234,0.02136
2898.66217,0.02122
2896.60200,0.02116
2894.54182,0.02130
2892.48165,0.02134
2890.42148,0.02111
2888.36131,0.02093
2886.30114,0.02090
2884.24096,0.02088
2882.18079,0.02088
2880.12062,0.02087
2878.06045,0.02069
2876.00028,0.02047
2873.94010,0.02041
2871.87993,0.02039
2869.81976,0.02029
2867.75959,0.02005
2865.69941,0.01973
2863.63924,0.01947
2861.57907,0.01937
2859.51890,0.01938
2857.45873,0.01944
2855.39855,0.01951
2853.33838,0.01947
2851.27821,0.01933
2849.21804,0.01923
2847.15787,0.01911
2845.09769,0.01887
2843.03752,0.01868
2840.97735,0.01863
2838.91718,0.01860
2836.85700,0.01850
2834.79683,0.01835
2832.73666,0.01824
2830.67649,0.01820
2828.61632,0.01804
2826.55614,0.01776
2824.49597,0.01747
2822.43580,0.01726
2820.37563,0.01724
2818.31546,0.01735
2816.25528,0.01735
2814.19511,0.01738
2812.13494,0.01746
2810.07477,0.01736
2808.01460,0.01717
2805.95442,0.01707
2803.89425,0.01705
2801.83408,0.01709
2799.77391,0.01712
2797.71373,0.01712
2795.65356,0.01700
2793.59339,0.01676
2791.53322,0.01654
2789.47305,0.01647
2787.41287,0.01649
2785.35270,0.01645
2783.29253,0.01620
2781.23236,0.01600
2779.17219,0.01605
2777.11201,0.01614
2775.05184,0.01604
2772.99167,0.01579
2770.93150,0.01556
2768.87133,0.01552
2766.81115,0.01558
2764.75098,0.01550
2762.69081,0.01531
2760.63064,0.01514
2758.57046,0.01495
2756.51029,0.01487
2754.45012,0.01499
2752.38995,0.01520
2750.32978,0.01531
2748.26960,0.01529
2746.20943,0.01526
2744.14926,0.01517
2742.08909,0.01500
2740.02892,0.01490
2737.96874,0.01499
2735.90857,0.01502
2733.84840,0.01482
2731.78823,0.01452
2729.72805,0.01441
2727.66788,0.01447
2725.60771,0.01450
2723.54754,0.01446
2721.48737,0.01444
2719.42719,0.01439
2717.36702,0.01420
2715.30685,0.01398
2713.24668,0.01387
2711.18651,0.01385
2709.12633,0.01383
2707.06616,0.01380
2705.00599,0.01377
2702.94582,0.01370
2700.88565,0.01354
2698.82547,0.01342
2696.76530,0.01336
2694.70513,0.01327
2692.64496,0.01323
2690.58478,0.01330
2688.52461,0.01337
2686.46444,0.01337
2684.40427,0.01330
2682.34410,0.01316
2680.28392,0.01301
2678.22375,0.01290
2676.16358,0.01276
2674.10341,0.01266
2672.04324,0.01262
2669.98306,0.01240
2667.92289,0.01207
2665.86272,0.01196
2663.80255,0.01202
2661.74238,0.01206
2659.68220,0.01205
2657.62203,0.01206
2655.56186,0.01212
2653.50169,0.01214
2651.44151,0.01199
2649.38134,0.01182
2647.32117,0.01179
2645.26100,0.01172
2643.20083,0.01150
2641.14065,0.01126
2639.08048,0.01107
2637.02031,0.01095
2634.96014,0.01083
2632.89997,0.01077
2630.83979,0.01083
2628.77962,0.01088
2626.71945,0.01083
2624.65928,0.01062
2622.59910,0.01038
2620.53893,0.01021
2618.47876,0.01019
2616.41859,0.01039
2614.35842,0.01050
2612.29824,0.01037
2610.23807,0.01030
2608.17790,0.01021
2606.11773,0.01001
2604.05756,0.00990
2601.99738,0.00992
2599.93721,0.00992
2597.87704,0.00984
2595.81687,0.00973
2593.75670,0.00958
2591.69652,0.00956
2589.63635,0.00962
2587.57618,0.00972
2585.51601,0.01002
2583.45583,0.01022
2581.39566,0.00990
2579.33549,0.00932
2577.27532,0.00900
2575.21515,0.00894
2573.15497,0.00902
2571.09480,0.00925
2569.03463,0.00947
2566.97446,0.00948
2564.91429,0.00918
2562.85411,0.00879
2560.79394,0.00852
2558.73377,0.00842
2556.67360,0.00854
2554.61342,0.00875
2552.55325,0.00885
2550.49308,0.00879
2548.43291,0.00864
2546.37274,0.00857
2544.31256,0.00876
2542.25239,0.00900
2540.19222,0.00886
2538.13205,0.00865
2536.07188,0.00869
2534.01170,0.00883
2531.95153,0.00890
2529.89136,0.00880
2527.83119,0.00864
2525.77102,0.00865
2523.71084,0.00883
2521.65067,0.00905
2519.59050,0.00909
2517.53033,0.00890
2515.47015,0.00862
2513.40998,0.00843
2511.34981,0.00850
2509.28964,0.00860
2507.22947,0.00857
2505.16929,0.00857
2503.10912,0.00855
2501.04895,0.00849
2498.98878,0.00845
2496.92861,0.00835
2494.86843,0.00839
2492.80826,0.00863
2490.74809,0.00885
2488.68792,0.00902
2486.62775,0.00912
2484.56757,0.00906
2482.50740,0.00900
2480.44723,0.00896
2478.38706,0.00894
2476.32688,0.00900
2474.26671,0.00899
2472.20654,0.00887
2470.14637,0.00875
2468.08620,0.00873
2466.02602,0.00892
2463.96585,0.00915
2461.90568,0.00920
2459.84551,0.00907
2457.78534,0.00905
2455.72516,0.00928
2453.66499,0.00950
2451.60482,0.00959
2449.54465,0.00959
2447.48447,0.00958
2445.42430,0.00964
2443.36413,0.00945
2441.30396,0.00900
2439.24379,0.00860
2437.18361,0.00853
2435.12344,0.00879
2433.06327,0.00900
2431.00310,0.00909
2428.94293,0.00908
2426.88275,0.00896
2424.82258,0.00903
2422.76241,0.00921
2420.70224,0.00915
2418.64207,0.00898
2416.58189,0.00899
2414.52172,0.00917
2412.46155,0.00917
2410.40138,0.00898
2408.34120,0.00888
2406.28103,0.00895
2404.22086,0.00910
2402.16069,0.00915
2400.10052,0.00898
2398.04034,0.00876
2395.98017,0.00864
2393.92000,0.00859
2391.85983,0.00861
2389.79966,0.00868
2387.73948,0.00889
2385.67931,0.00930
2383.61914,0.00949
2381.55897,0.00917
2379.49880,0.00871
2377.43862,0.00866
2375.37845,0.00854
2373.31828,0.00870
2371.25811,0.00893
2369.19793,0.00747
2367.13776,0.00567
2365.07759,0.00636
2363.01742,0.00754
2360.95725,0.00894
2358.89707,0.00670
2356.83690,0.00406
2354.77673,0.00342
2352.71656,0.00474
2350.65639,0.00998
2348.59621,0.01253
2346.53604,0.00662
2344.47587,0.00542
2342.41570,0.00739
2340.35552,0.00960
2338.29535,0.01157
2336.23518,0.01144
2334.17501,0.01018
2332.11484,0.00860
2330.05466,0.00830
2327.99449,0.00876
2325.93432,0.01013
2323.87415,0.00945
2321.81398,0.00793
2319.75380,0.00683
2317.69363,0.00817
2315.63346,0.00921
2313.57329,0.00906
2311.51312,0.00874
2309.45294,0.00869
2307.39277,0.00883
2305.33260,0.00897
2303.27243,0.00904
2301.21225,0.00876
2299.15208,0.00861
2297.09191,0.00851
2295.03174,0.00833
2292.97157,0.00809
2290.91139,0.00765
2288.85122,0.00742
2286.79105,0.00772
2284.73088,0.00816
2282.67071,0.00828
2280.61053,0.00802
2278.55036,0.00773
2276.49019,0.00762
2274.43002,0.00757
2272.36984,0.00754
2270.30967,0.00780
2268.24950,0.00788
2266.18933,0.00741
2264.12916,0.00688
2262.06898,0.00657
2260.00881,0.00622
2257.94864,0.00618
2255.88847,0.00662
2253.82830,0.00696
2251.76812,0.00683
2249.70795,0.00670
2247.64778,0.00704
2245.58761,0.00700
2243.52744,0.00642
2241.46726,0.00663
2239.40709,0.00725
2237.34692,0.00715
2235.28675,0.00688
2233.22657,0.00681
2231.16640,0.00658
2229.10623,0.00643
2227.04606,0.00640
2224.98589,0.00645
2222.92571,0.00659
2220.86554,0.00627
2218.80537,0.00560
2216.74520,0.00542
2214.68503,0.00545
2212.62485,0.00527
2210.56468,0.00523
2208.50451,0.00505
2206.44434,0.00454
2204.38417,0.00486
2202.32399,0.00583
2200.26382,0.00570
2198.20365,0.00507
2196.14348,0.00538
2194.08330,0.00577
2192.02313,0.00551
2189.96296,0.00515
2187.90279,0.00511
2185.84262,0.00527
2183.78244,0.00495
2181.72227,0.00454
2179.66210,0.00489
2177.60193,0.00486
2175.54176,0.00424
2173.48158,0.00478
2171.42141,0.00537
2169.36124,0.00399
2167.30107,0.00284
2165.24089,0.00398
2163.18072,0.00499
2161.12055,0.00413
2159.06038,0.00293
2157.00021,0.00256
2154.94003,0.00236
2152.87986,0.00210
2150.81969,0.00239
2148.75952,0.00298
2146.69935,0.00353
2144.63917,0.00435
2142.57900,0.00494
2140.51883,0.00511
2138.45866,0.00476
2136.39849,0.00384
2134.33831,0.00373
2132.27814,0.00435
2130.21797,0.00417
2128.15780,0.00377
2126.09762,0.00419
2124.03745,0.00469
2121.97728,0.00484
2119.91711,0.00501
2117.85694,0.00508
2115.79676,0.00489
2113.73659,0.00473
2111.67642,0.00503
2109.61625,0.00559
2107.55608,0.00602
2105.49590,0.00600
2103.43573,0.00525
2101.37556,0.00453
2099.31539,0.00428
2097.25521,0.00417
2095.19504,0.00423
2093.13487,0.00437
2091.07470,0.00445
2089.01453,0.00486
2086.95435,0.00535
2084.89418,0.00533
2082.83401,0.00512
2080.77384,0.00495
2078.71367,0.00434
2076.65349,0.00365
2074.59332,0.00382
2072.53315,0.00457
2070.47298,0.00491
2068.41281,0.00463
2066.35263,0.00396
2064.29246,0.00325
2062.23229,0.00313
2060.17212,0.00363
2058.11194,0.00400
2056.05177,0.00401
2053.99160,0.00425
2051.93143,0.00447
2049.87126,0.00406
2047.81108,0.00354
2045.75091,0.00358
2043.69074,0.00404
2041.63057,0.00388
2039.57040,0.00295
2037.51022,0.00257
2035.45005,0.00287
2033.38988,0.00261
2031.32971,0.00198
2029.26954,0.00209
2027.20936,0.00227
2025.14919,0.00139
2023.08902,0.00060
2021.02885,0.00092
2018.96867,0.00152
2016.90850,0.00228
2014.84833,0.00359
2012.78816,0.00475
2010.72799,0.00522
2008.66781,0.00496
2006.60764,0.00394
2004.54747,0.00272
2002.48730,0.00201
2000.42713,0.00186
1998.36695,0.00198
1996.30678,0.00233
1994.24661,0.00280
1992.18644,0.00337
1990.12626,0.00424
1988.06609,0.00500
1986.00592,0.00495
1983.94575,0.00422
1981.88558,0.00343
1979.82540,0.00269
1977.76523,0.00203
1975.70506,0.00182
1973.64489,0.00156
1971.58472,0.00084
1969.52454,0.00066
1967.46437,0.00124
1965.40420,0.00172
1963.34403,0.00188
1961.28386,0.00183
1959.22368,0.00169
1957.16351,0.00174
1955.10334,0.00190
1953.04317,0.00215
1950.98299,0.00293
1948.92282,0.00366
1946.86265,0.00337
1944.80248,0.00256
1942.74231,0.00204
1940.68213,0.00165
1938.62196,0.00107
1936.56179,0.00063
1934.50162,0.00101
1932.44145,0.00225
1930.38127,0.00328
1928.32110,0.00342
1926.26093,0.00323
1924.20076,0.00316
1922.14059,0.00315
1920.08041,0.00310
1918.02024,0.00291
1915.96007,0.00255
1913.89990,0.00223
1911.83972,0.00217
1909.77955,0.00238
1907.71938,0.00267
1905.65921,0.00282
1903.59904,0.00272
1901.53886,0.00263
1899.47869,0.00272
1897.41852,0.00272
1895.35835,0.00251
1893.29818,0.00238
1891.23800,0.00260
1889.17783,0.00300
1887.11766,0.00306
1885.05749,0.00267
1882.99731,0.00225
1880.93714,0.00212
1878.87697,0.00227
1876.81680,0.00244
1874.75663,0.00240
1872.69645,0.00224
1870.63628,0.00216
1868.57611,0.00218
1866.51594,0.00237
1864.45577,0.00273
1862.39559,0.00292
1860.33542,0.00276
1858.27525,0.00249
1856.21508,0.00235
1854.15491,0.00241
1852.09473,0.00266
1850.03456,0.00290
1847.97439,0.00292
1845.91422,0.00279
1843.85404,0.00265
1841.79387,0.00265
1839.73370,0.00272
1837.67353,0.00275
1835.61336,0.00285
1833.55318,0.00302
1831.49301,0.00295
1829.43284,0.00273
1827.37267,0.00273
1825.31250,0.00294
1823.25232,0.00304
1821.19215,0.00298
1819.13198,0.00294
1817.07181,0.00293
1815.01163,0.00287
1812.95146,0.00278
1810.89129,0.00281
1808.83112,0.00302
1806.77095,0.00323
1804.71077,0.00324
1802.65060,0.00304
1800.59043,0.00276
1798.53026,0.00258
1796.47009,0.00255
1794.40991,0.00258
1792.34974,0.00272
1790.28957,0.00299
1788.22940,0.00317
1786.16923,0.00309
1784.10905,0.00295
1782.04888,0.00298
1779.98871,0.00312
1777.92854,0.00325
1775.86836,0.00326
1773.80819,0.00318
1771.74802,0.00317
1769.68785,0.00335
1767.62768,0.00358
1765.56750,0.00381
1763.50733,0.00403
1761.44716,0.00412
1759.38699,0.00409
1757.32682,0.00400
1755.26664,0.00397
1753.20647,0.00420
1751.14630,0.00457
1749.08613,0.00473
1747.02596,0.00478
1744.96578,0.00490
1742.90561,0.00508
1740.84544,0.00521
1738.78527,0.00535
1736.72509,0.00551
1734.66492,0.00542
1732.60475,0.00522
1730.54458,0.00540
1728.48441,0.00574
1726.42423,0.00599
1724.36406,0.00624
1722.30389,0.00649
1720.24372,0.00658
1718.18355,0.00636
1716.12337,0.00612
1714.06320,0.00624
1712.00303,0.00654
1709.94286,0.00664
1707.88268,0.00649
1705.82251,0.00642
1703.76234,0.00679
1701.70217,0.00726
1699.64200,0.00733
1697.58182,0.00735
1695.52165,0.00767
1693.46148,0.00812
1691.40131,0.00846
1689.34114,0.00874
1687.28096,0.00915
1685.22079,0.00961
1683.16062,0.00985
1681.10045,0.01001
1679.04028,0.01042
1676.98010,0.01095
1674.91993,0.01129
1672.85976,0.01138
1670.79959,0.01143
1668.73941,0.01161
1666.67924,0.01204
1664.61907,0.01256
1662.55890,0.01299
1660.49873,0.01341
1658.43855,0.01385
1656.37838,0.01425
1654.31821,0.01442
1652.25804,0.01434
1650.19787,0.01433
1648.13769,0.01424
1646.07752,0.01404
1644.01735,0.01423
1641.95718,0.01460
1639.89701,0.01472
1637.83683,0.01442
1635.77666,0.01396
1633.71649,0.01397
1631.65632,0.01432
1629.59614,0.01455
1627.53597,0.01461
1625.47580,0.01463
1623.41563,0.01460
1621.35546,0.01470
1619.29528,0.01493
1617.23511,0.01486
1615.17494,0.01459
1613.11477,0.01459
1611.05460,0.01467
1608.99442,0.01455
1606.93425,0.01435
1604.87408,0.01425
1602.81391,0.01415
1600.75373,0.01395
1598.69356,0.01360
1596.63339,0.01315
1594.57322,0.01275
1592.51305,0.01241
1590.45287,0.01198
1588.39270,0.01142
1586.33253,0.01087
1584.27236,0.01045
1582.21219,0.01016
1580.15201,0.00995
1578.09184,0.00962
1576.03167,0.00898
1573.97150,0.00847
1571.91133,0.00827
1569.85115,0.00796
1567.79098,0.00754
1565.73081,0.00731
1563.67064,0.00728
1561.61046,0.00727
1559.55029,0.00682
1557.49012,0.00608
1555.42995,0.00582
1553.36978,0.00583
1551.30960,0.00572
1549.24943,0.00553
1547.18926,0.00548
1545.12909,0.00543
1543.06892,0.00519
1541.00874,0.00481
1538.94857,0.00454
1536.88840,0.00453
1534.82823,0.00458
1532.76805,0.00453
1530.70788,0.00453
1528.64771,0.00452
1526.58754,0.00432
1524.52737,0.00402
1522.46719,0.00371
1520.40702,0.00349
1518.34685,0.00340
1516.28668,0.00335
1514.22651,0.00345
1512.16633,0.00354
1510.10616,0.00317
1508.04599,0.00241
1505.98582,0.00220
1503.92565,0.00270
1501.86547,0.00306
1499.80530,0.00310
1497.74513,0.00303
1495.68496,0.00302
1493.62478,0.00313
1491.56461,0.00314
1489.50444,0.00297
1487.44427,0.00293
1485.38410,0.00311
1483.32392,0.00332
1481.26375,0.00350
1479.20358,0.00365
1477.14341,0.00372
1475.08324,0.00370
1473.02306,0.00371
1470.96289,0.00391
1468.90272,0.00423
1466.84255,0.00444
1464.78238,0.00451
1462.72220,0.00469
1460.66203,0.00498
1458.60186,0.00507
1456.54169,0.00505
1454.48151,0.00528
1452.42134,0.00553
1450.36117,0.00561
1448.30100,0.00558
1446.24083,0.00561
1444.18065,0.00573
1442.12048,0.00582
1440.06031,0.00585
1438.00014,0.00582
1435.93997,0.00580
1433.87979,0.00584
1431.81962,0.00596
1429.75945,0.00618
1427.69928,0.00647
1425.63910,0.00671
1423.57893,0.00687
1421.51876,0.00702
1419.45859,0.00707
1417.39842,0.00705
1415.33824,0.00713
1413.27807,0.00722
1411.21790,0.00726
1409.15773,0.00730
1407.09756,0.00727
1405.03738,0.00703
1402.97721,0.00675
1400.91704,0.00654
1398.85687,0.00628
1396.79670,0.00600
1394.73652,0.00595
1392.67635,0.00613
1390.61618,0.00631
1388.55601,0.00628
1386.49583,0.00616
1384.43566,0.00616
1382.37549,0.00626
1380.31532,0.00636
1378.25515,0.00638
1376.19497,0.00625
1374.13480,0.00605
1372.07463,0.00597
1370.01446,0.00606
1367.95429,0.00624
1365.89411,0.00635
1363.83394,0.00620
1361.77377,0.00585
1359.71360,0.00556
1357.65343,0.00543
1355.59325,0.00537
1353.53308,0.00522
1351.47291,0.00501
1349.41274,0.00491
1347.35256,0.00491
1345.29239,0.00489
1343.23222,0.00481
1341.17205,0.00464
1339.11188,0.00445
1337.05170,0.00438
1334.99153,0.00446
1332.93136,0.00459
1330.87119,0.00467
1328.81102,0.00472
1326.75084,0.00480
1324.69067,0.00485
1322.63050,0.00481
1320.57033,0.00473
1318.51015,0.00460
1316.44998,0.00445
1314.38981,0.00429
1312.32964,0.00422
1310.26947,0.00430
1308.20929,0.00445
1306.14912,0.00454
1304.08895,0.00453
1302.02878,0.00450
1299.96861,0.00451
1297.90843,0.00452
1295.84826,0.00453
1293.78809,0.00454
1291.72792,0.00449
1289.66775,0.00437
1287.60757,0.00430
1285.54740,0.00436
1283.48723,0.00452
1281.42706,0.00467
1279.36688,0.00475
1277.30671,0.00478
1275.24654,0.00486
1273.18637,0.00496
1271.12620,0.00499
1269.06602,0.00500
1267.00585,0.00506
1264.94568,0.00511
1262.88551,0.00512
1260.82534,0.00506
1258.76516,0.00505
1256.70499,0.00514
1254.64482,0.00518
1252.58465,0.00509
1250.52447,0.00500
1248.46430,0.00499
1246.40413,0.00496
1244.34396,0.00484
1242.28379,0.00465
1240.22361,0.00444
1238.16344,0.00423
1236.10327,0.00409
1234.04310,0.00396
1231.98293,0.00384
1229.92275,0.00375
1227.86258,0.00364
1225.80241,0.00348
1223.74224,0.00325
1221.68207,0.00304
1219.62189,0.00293
1217.56172,0.00276
1215.50155,0.00241
1213.44138,0.00203
1211.38120,0.00180
1209.32103,0.00172
1207.26086,0.00170
1205.20069,0.00171
1203.14052,0.00175
1201.08034,0.00180
1199.02017,0.00182
1196.96000,0.00181
1194.89983,0.00194
1192.83966,0.00213
1190.77948,0.00224
1188.71931,0.00236
1186.65914,0.00264
1184.59897,0.00301
1182.53880,0.00333
1180.47862,0.00370
1178.41845,0.00438
1176.35828,0.00521
1174.29811,0.00592
1172.23793,0.00662
1170.17776,0.00739
1168.11759,0.00815
1166.05742,0.00882
1163.99725,0.00940
1161.93707,0.00993
1159.87690,0.01056
1157.81673,0.01130
1155.75656,0.01195
1153.69639,0.01241
1151.63621,0.01282
1149.57604,0.01343
1147.51587,0.01416
1145.45570,0.01483
1143.39552,0.01556
1141.33535,0.01641
1139.27518,0.01723
1137.21501,0.01789
1135.15484,0.01858
1133.09466,0.01944
1131.03449,0.02030
1128.97432,0.02102
1126.91415,0.02165
1124.85398,0.02234
1122.79380,0.02304
1120.73363,0.02371
1118.67346,0.02443
1116.61329,0.02520
1114.55312,0.02612
1112.49294,0.02702
1110.43277,0.02785
1108.37260,0.02874
1106.31243,0.02963
1104.25225,0.03057
1102.19208,0.03163
1100.13191,0.03258
1098.07174,0.03343
1096.01157,0.03422
1093.95139,0.03496
1091.89122,0.03573
1089.83105,0.03650
1087.77088,0.03722
1085.71071,0.03806
1083.65053,0.03895
1081.59036,0.03977
1079.53019,0.04051
1077.47002,0.04119
1075.40985,0.04178
1073.34967,0.04208
1071.28950,0.04208
1069.22933,0.04217
1067.16916,0.04249
1065.10898,0.04270
1063.04881,0.04263
1060.98864,0.04250
1058.92847,0.04234
1056.86830,0.04201
1054.80812,0.04171
1052.74795,0.04155
1050.68778,0.04129
1048.62761,0.04084
1046.56744,0.04031
1044.50726,0.03976
1042.44709,0.03908
1040.38692,0.03828
1038.32675,0.03749
1036.26657,0.03684
1034.20640,0.03629
1032.14623,0.03574
1030.08606,0.03514
1028.02589,0.03441
1025.96571,0.03365
1023.90554,0.03291
1021.84537,0.03218
1019.78520,0.03155
1017.72503,0.03105
1015.66485,0.03051
1013.60468,0.02981
1011.54451,0.02902
1009.48434,0.02819
1007.42417,0.02739
1005.36399,0.02685
1003.30382,0.02665
1001.24365,0.02664
999.18348,0.02676
997.12330,0.02703
995.06313,0.02746
993.00296,0.02800
990.94279,0.02850
988.88262,0.02878
986.82244,0.02892
984.76227,0.02897
982.70210,0.02883
980.64193,0.02854
978.58176,0.02785
976.52158,0.02673
974.46141,0.02566
972.40124,0.02472
970.34107,0.02372
968.28089,0.02267
966.22072,0.02165
964.16055,0.02068
962.10038,0.01974
960.04021,0.01886
957.98003,0.01806
955.91986,0.01726
953.85969,0.01651
951.79952,0.01581
949.73935,0.01511
947.67917,0.01451
945.61900,0.01414
943.55883,0.01383
941.49866,0.01354
939.43849,0.01336
937.37831,0.01309
935.31814,0.01269
933.25797,0.01238
931.19780,0.01214
929.13762,0.01191
927.07745,0.01177
925.01728,0.01165
922.95711,0.01155
920.89694,0.01137
918.83676,0.01104
916.77659,0.01066
914.71642,0.01031
912.65625,0.00999
910.59608,0.00969
908.53590,0.00942
906.47573,0.00921
904.41556,0.00905
902.35539,0.00901
900.29522,0.00916
898.23504,0.00933
896.17487,0.00924
894.11470,0.00907
892.05453,0.00918
889.99435,0.00935
887.93418,0.00934
885.87401,0.00943
883.81384,0.00979
881.75367,0.01017
879.69349,0.01056
877.63332,0.01092
875.57315,0.01102
873.51298,0.01120
871.45281,0.01141
869.39263,0.01119
867.33246,0.01105
865.27229,0.01121
863.21212,0.01125
861.15194,0.01131
859.09177,0.01148
857.03160,0.01149
854.97143,0.01131
852.91126,0.01109
850.85108,0.01093
848.79091,0.01079
846.73074,0.01050
844.67057,0.01000
842.61040,0.00961
840.55022,0.00950
838.49005,0.00945
836.42988,0.00943
834.36971,0.00932
832.30954,0.00894
830.24936,0.00850
828.18919,0.00828
826.12902,0.00811
824.06885,0.00778
822.00867,0.00745
819.94850,0.00730
817.88833,0.00722
815.82816,0.00699
813.76799,0.00661
811.70781,0.00641
809.64764,0.00655
807.58747,0.00665
805.52730,0.00652
803.46713,0.00640
801.40695,0.00619
799.34678,0.00595
797.28661,0.00593
795.22644,0.00579
793.16627,0.00554
791.10609,0.00551
789.04592,0.00534
786.98575,0.00482
784.92558,0.00443
782.86540,0.00466
780.80523,0.00540
778.74506,0.00597
776.68489,0.00577
774.62472,0.00516
772.56454,0.00486
770.50437,0.00489
768.44420,0.00498
766.38403,0.00515
764.32386,0.00536
762.26368,0.00534
760.20351,0.00550
758.14334,0.00574
756.08317,0.00512
754.02299,0.00435
751.96282,0.00432
749.90265,0.00455
747.84248,0.00457
745.78231,0.00430
743.72213,0.00410
741.66196,0.00432
739.60179,0.00468
737.54162,0.00481
735.48145,0.00466
733.42127,0.00454
731.36110,0.00469
729.30093,0.00479
727.24076,0.00459
725.18059,0.00449
723.12041,0.00493
721.06024,0.00457
719.00007,0.00497
716.93990,0.00528
714.87972,0.00503
712.81955,0.00495
710.75938,0.00526
708.69921,0.00567
706.63904,0.00566
704.57886,0.00567
702.51869,0.00629
700.45852,0.00700
698.39835,0.00698
696.33818,0.00636
694.27800,0.00600
692.21783,0.00632
690.15766,0.00692
688.09749,0.00735
686.03731,0.00744
683.97714,0.00743
681.91697,0.00746
679.85680,0.00719
677.79663,0.00669
675.73645,0.00700
673.67628,0.00966
671.61611,0.01317
669.55594,0.00691
667.49577,0.00103
665.43559,0.01230
663.37542,0.01065
661.31525,0.00696
659.25508,0.00599
657.19491,0.00605
655.13473,0.00601
653.07456,0.00592
651.01439,0.00600
648.95422,0.00630
646.89404,0.00712
644.83387,0.00723
642.77370,0.00696
640.71353,0.00634
638.65336,0.00526
636.59318,0.00446
634.53301,0.00417
632.47284,0.00404
630.41267,0.00417
628.35250,0.00425
626.29232,0.00381
624.23215,0.00365
622.17198,0.00450
620.11181,0.00449
618.05164,0.00305
615.99146,0.00235
613.93129,0.00278
611.87112,0.00310
609.81095,0.00335
607.75077,0.00277
605.69060,0.00105
603.63043,0.00000
601.57026,0.00029
599.51009,0.00000
