Created as New Dataset,Sample 033 By Analyst Date Wednesday, April 02 2025
cm-1,A
4000.00,-0.0026
3998.00,-0.0026
3996.00,-0.0026
3994.00,-0.0026
3992.00,-0.0026
3990.00,-0.0026
3988.00,-0.0026
3986.00,-0.0026
3984.00,-0.0026
3982.00,-0.0026
3980.00,-0.0025
3978.00,-0.0025
3976.00,-0.0025
3974.00,-0.0025
3972.00,-0.0026
3970.00,-0.0025
3968.00,-0.0025
3966.00,-0.0025
3964.00,-0.0025
3962.00,-0.0025
3960.00,-0.0025
3958.00,-0.0025
3956.00,-0.0025
3954.00,-0.0025
3952.00,-0.0025
3950.00,-0.0025
3948.00,-0.0025
3946.00,-0.0025
3944.00,-0.0025
3942.00,-0.0025
3940.00,-0.0025
3938.00,-0.0025
3936.00,-0.0025
3934.00,-0.0024
3932.00,-0.0025
3930.00,-0.0025
3928.00,-0.0025
3926.00,-0.0025
3924.00,-0.0025
3922.00,-0.0025
3920.00,-0.0024
3918.00,-0.0024
3916.00,-0.0024
3914.00,-0.0025
3912.00,-0.0025
3910.00,-0.0025
3908.00,-0.0025
3906.00,-0.0024
3904.00,-0.0023
3902.00,-0.0023
3900.00,-0.0023
3898.00,-0.0024
3896.00,-0.0024
3894.00,-0.0024
3892.00,-0.0024
3890.00,-0.0025
3888.00,-0.0024
3886.00,-0.0023
3884.00,-0.0024
3882.00,-0.0023
3880.00,-0.0024
3878.00,-0.0024
3876.00,-0.0024
3874.00,-0.0024
3872.00,-0.0024
3870.00,-0.0023
3868.00,-0.0024
3866.00,-0.0023
3864.00,-0.0023
3862.00,-0.0024
3860.00,-0.0024
3858.00,-0.0024
3856.00,-0.0025
3854.00,-0.0024
3852.00,-0.0023
3850.00,-0.0023
3848.00,-0.0023
3846.00,-0.0024
3844.00,-0.0024
3842.00,-0.0024
3840.00,-0.0024
3838.00,-0.0023
3836.00,-0.0023
3834.00,-0.0023
3832.00,-0.0024
3830.00,-0.0024
3828.00,-0.0024
3826.00,-0.0024
3824.00,-0.0024
3822.00,-0.0023
3820.00,-0.0024
3818.00,-0.0024
3816.00,-0.0023
3814.00,-0.0024
3812.00,-0.0024
3810.00,-0.0025
3808.00,-0.0025
3806.00,-0.0025
3804.00,-0.0025
3802.00,-0.0024
3800.00,-0.0024
3798.00,-0.0024
3796.00,-0.0024
3794.00,-0.0025
3792.00,-0.0025
3790.00,-0.0025
3788.00,-0.0025
3786.00,-0.0025
3784.00,-0.0025
3782.00,-0.0025
3780.00,-0.0025
3778.00,-0.0025
3776.00,-0.0025
3774.00,-0.0025
3772.00,-0.0025
3770.00,-0.0024
3768.00,-0.0024
3766.00,-0.0024
3764.00,-0.0024
3762.00,-0.0024
3760.00,-0.0024
3758.00,-0.0024
3756.00,-0.0024
3754.00,-0.0023
3752.00,-0.0023
3750.00,-0.0022
3748.00,-0.0022
3746.00,-0.0022
3744.00,-0.0021
3742.00,-0.0022
3740.00,-0.0021
3738.00,-0.0021
3736.00,-0.0021
3734.00,-0.0022
3732.00,-0.0022
3730.00,-0.0022
3728.00,-0.0023
3726.00,-0.0023
3724.00,-0.0024
3722.00,-0.0024
3720.00,-0.0024
3718.00,-0.0024
3716.00,-0.0024
3714.00,-0.0024
3712.00,-0.0024
3710.00,-0.0024
3708.00,-0.0024
3706.00,-0.0024
3704.00,-0.0024
3702.00,-0.0024
3700.00,-0.0025
3698.00,-0.0024
3696.00,-0.0024
3694.00,-0.0024
3692.00,-0.0024
3690.00,-0.0024
3688.00,-0.0023
3686.00,-0.0023
3684.00,-0.0023
3682.00,-0.0024
3680.00,-0.0024
3678.00,-0.0024
3676.00,-0.0022
3674.00,-0.0023
3672.00,-0.0022
3670.00,-0.0022
3668.00,-0.0023
3666.00,-0.0023
3664.00,-0.0024
3662.00,-0.0024
3660.00,-0.0024
3658.00,-0.0024
3656.00,-0.0023
3654.00,-0.0023
3652.00,-0.0022
3650.00,-0.0022
3648.00,-0.0022
3646.00,-0.0022
3644.00,-0.0023
3642.00,-0.0024
3640.00,-0.0024
3638.00,-0.0024
3636.00,-0.0024
3634.00,-0.0024
3632.00,-0.0023
3630.00,-0.0022
3628.00,-0.0022
3626.00,-0.0023
3624.00,-0.0023
3622.00,-0.0023
3620.00,-0.0023
3618.00,-0.0023
3616.00,-0.0023
3614.00,-0.0022
3612.00,-0.0023
3610.00,-0.0022
3608.00,-0.0022
3606.00,-0.0023
3604.00,-0.0024
3602.00,-0.0024
3600.00,-0.0024
3598.00,-0.0024
3596.00,-0.0024
3594.00,-0.0024
3592.00,-0.0024
3590.00,-0.0023
3588.00,-0.0022
3586.00,-0.0023
3584.00,-0.0023
3582.00,-0.0024
3580.00,-0.0024
3578.00,-0.0025
3576.00,-0.0025
3574.00,-0.0025
3572.00,-0.0024
3570.00,-0.0023
3568.00,-0.0022
3566.00,-0.0023
3564.00,-0.0023
3562.00,-0.0024
3560.00,-0.0024
3558.00,-0.0025
3556.00,-0.0025
3554.00,-0.0024
3552.00,-0.0024
3550.00,-0.0024
3548.00,-0.0023
3546.00,-0.0024
3544.00,-0.0024
3542.00,-0.0024
3540.00,-0.0025
3538.00,-0.0025
3536.00,-0.0025
3534.00,-0.0025
3532.00,-0.0025
3530.00,-0.0025
3528.00,-0.0025
3526.00,-0.0024
3524.00,-0.0024
3522.00,-0.0025
3520.00,-0.0025
3518.00,-0.0025
3516.00,-0.0025
3514.00,-0.0025
3512.00,-0.0025
3510.00,-0.0025
3508.00,-0.0025
3506.00,-0.0025
3504.00,-0.0025
3502.00,-0.0025
3500.00,-0.0025
3498.00,-0.0025
3496.00,-0.0025
3494.00,-0.0025
3492.00,-0.0025
3490.00,-0.0025
3488.00,-0.0025
3486.00,-0.0025
3484.00,-0.0025
3482.00,-0.0025
3480.00,-0.0025
3478.00,-0.0025
3476.00,-0.0025
3474.00,-0.0026
3472.00,-0.0025
3470.00,-0.0025
3468.00,-0.0025
3466.00,-0.0025
3464.00,-0.0026
3462.00,-0.0026
3460.00,-0.0026
3458.00,-0.0026
3456.00,-0.0026
3454.00,-0.0026
3452.00,-0.0026
3450.00,-0.0025
3448.00,-0.0025
3446.00,-0.0025
3444.00,-0.0025
3442.00,-0.0025
3440.00,-0.0026
3438.00,-0.0025
3436.00,-0.0026
3434.00,-0.0026
3432.00,-0.0026
3430.00,-0.0026
3428.00,-0.0026
3426.00,-0.0026
3424.00,-0.0025
3422.00,-0.0025
3420.00,-0.0025
3418.00,-0.0025
3416.00,-0.0025
3414.00,-0.0025
3412.00,-0.0025
3410.00,-0.0025
3408.00,-0.0025
3406.00,-0.0025
3404.00,-0.0025
3402.00,-0.0025
3400.00,-0.0025
3398.00,-0.0025
3396.00,-0.0025
3394.00,-0.0025
3392.00,-0.0025
3390.00,-0.0025
3388.00,-0.0026
3386.00,-0.0025
3384.00,-0.0025
3382.00,-0.0025
3380.00,-0.0025
3378.00,-0.0026
3376.00,-0.0025
3374.00,-0.0025
3372.00,-0.0025
3370.00,-0.0025
3368.00,-0.0025
3366.00,-0.0026
3364.00,-0.0026
3362.00,-0.0026
3360.00,-0.0026
3358.00,-0.0026
3356.00,-0.0026
3354.00,-0.0026
3352.00,-0.0026
3350.00,-0.0025
3348.00,-0.0026
3346.00,-0.0026
3344.00,-0.0025
3342.00,-0.0025
3340.00,-0.0026
3338.00,-0.0026
3336.00,-0.0026
3334.00,-0.0026
3332.00,-0.0026
3330.00,-0.0026
3328.00,-0.0026
3326.00,-0.0026
3324.00,-0.0026
3322.00,-0.0026
3320.00,-0.0026
3318.00,-0.0026
3316.00,-0.0026
3314.00,-0.0026
3312.00,-0.0026
3310.00,-0.0026
3308.00,-0.0026
3306.00,-0.0026
3304.00,-0.0026
3302.00,-0.0026
3300.00,-0.0026
3298.00,-0.0026
3296.00,-0.0026
3294.00,-0.0025
3292.00,-0.0025
3290.00,-0.0026
3288.00,-0.0026
3286.00,-0.0025
3284.00,-0.0026
3282.00,-0.0026
3280.00,-0.0026
3278.00,-0.0026
3276.00,-0.0026
3274.00,-0.0026
3272.00,-0.0026
3270.00,-0.0026
3268.00,-0.0026
3266.00,-0.0026
3264.00,-0.0026
3262.00,-0.0026
3260.00,-0.0026
3258.00,-0.0026
3256.00,-0.0026
3254.00,-0.0026
3252.00,-0.0026
3250.00,-0.0026
3248.00,-0.0026
3246.00,-0.0026
3244.00,-0.0026
3242.00,-0.0026
3240.00,-0.0026
3238.00,-0.0026
3236.00,-0.0026
3234.00,-0.0026
3232.00,-0.0026
3230.00,-0.0026
3228.00,-0.0026
3226.00,-0.0026
3224.00,-0.0026
3222.00,-0.0026
3220.00,-0.0026
3218.00,-0.0026
3216.00,-0.0026
3214.00,-0.0026
3212.00,-0.0026
3210.00,-0.0026
3208.00,-0.0026
3206.00,-0.0026
3204.00,-0.0026
3202.00,-0.0026
3200.00,-0.0026
3198.00,-0.0025
3196.00,-0.0025
3194.00,-0.0025
3192.00,-0.0025
3190.00,-0.0025
3188.00,-0.0025
3186.00,-0.0025
3184.00,-0.0026
3182.00,-0.0026
3180.00,-0.0026
3178.00,-0.0026
3176.00,-0.0026
3174.00,-0.0026
3172.00,-0.0026
3170.00,-0.0026
3168.00,-0.0026
3166.00,-0.0026
3164.00,-0.0026
3162.00,-0.0026
3160.00,-0.0026
3158.00,-0.0026
3156.00,-0.0026
3154.00,-0.0025
3152.00,-0.0026
3150.00,-0.0026
3148.00,-0.0026
3146.00,-0.0025
3144.00,-0.0025
3142.00,-0.0026
3140.00,-0.0025
3138.00,-0.0025
3136.00,-0.0025
3134.00,-0.0025
3132.00,-0.0025
3130.00,-0.0025
3128.00,-0.0025
3126.00,-0.0025
3124.00,-0.0025
3122.00,-0.0025
3120.00,-0.0025
3118.00,-0.0025
3116.00,-0.0025
3114.00,-0.0025
3112.00,-0.0025
3110.00,-0.0025
3108.00,-0.0025
3106.00,-0.0025
3104.00,-0.0025
3102.00,-0.0025
3100.00,-0.0025
3098.00,-0.0025
3096.00,-0.0025
3094.00,-0.0025
3092.00,-0.0025
3090.00,-0.0025
3088.00,-0.0025
3086.00,-0.0025
3084.00,-0.0025
3082.00,-0.0025
3080.00,-0.0025
3078.00,-0.0025
3076.00,-0.0025
3074.00,-0.0025
3072.00,-0.0025
3070.00,-0.0025
3068.00,-0.0025
3066.00,-0.0025
3064.00,-0.0025
3062.00,-0.0025
3060.00,-0.0025
3058.00,-0.0025
3056.00,-0.0025
3054.00,-0.0025
3052.00,-0.0025
3050.00,-0.0025
3048.00,-0.0025
3046.00,-0.0025
3044.00,-0.0025
3042.00,-0.0025
3040.00,-0.0025
3038.00,-0.0025
3036.00,-0.0025
3034.00,-0.0025
3032.00,-0.0025
3030.00,-0.0025
3028.00,-0.0025
3026.00,-0.0025
3024.00,-0.0025
3022.00,-0.0025
3020.00,-0.0025
3018.00,-0.0025
3016.00,-0.0025
3014.00,-0.0025
3012.00,-0.0025
3010.00,-0.0025
3008.00,-0.0025
3006.00,-0.0025
3004.00,-0.0025
3002.00,-0.0025
3000.00,-0.0025
2998.00,-0.0025
2996.00,-0.0025
2994.00,-0.0025
2992.00,-0.0025
2990.00,-0.0025
2988.00,-0.0025
2986.00,-0.0025
2984.00,-0.0024
2982.00,-0.0024
2980.00,-0.0024
2978.00,-0.0024
2976.00,-0.0024
2974.00,-0.0024
2972.00,-0.0024
2970.00,-0.0024
2968.00,-0.0024
2966.00,-0.0024
2964.00,-0.0024
2962.00,-0.0024
2960.00,-0.0024
2958.00,-0.0024
2956.00,-0.0024
2954.00,-0.0024
2952.00,-0.0024
2950.00,-0.0024
2948.00,-0.0024
2946.00,-0.0024
2944.00,-0.0024
2942.00,-0.0024
2940.00,-0.0024
2938.00,-0.0024
2936.00,-0.0024
2934.00,-0.0024
2932.00,-0.0024
2930.00,-0.0024
2928.00,-0.0024
2926.00,-0.0024
2924.00,-0.0025
2922.00,-0.0025
2920.00,-0.0025
2918.00,-0.0024
2916.00,-0.0024
2914.00,-0.0024
2912.00,-0.0024
2910.00,-0.0024
2908.00,-0.0024
2906.00,-0.0024
2904.00,-0.0024
2902.00,-0.0024
2900.00,-0.0024
2898.00,-0.0024
2896.00,-0.0024
2894.00,-0.0024
2892.00,-0.0024
2890.00,-0.0024
2888.00,-0.0024
2886.00,-0.0024
2884.00,-0.0024
2882.00,-0.0024
2880.00,-0.0024
2878.00,-0.0024
2876.00,-0.0024
2874.00,-0.0024
2872.00,-0.0024
2870.00,-0.0024
2868.00,-0.0024
2866.00,-0.0024
2864.00,-0.0024
2862.00,-0.0025
2860.00,-0.0025
2858.00,-0.0025
2856.00,-0.0025
2854.00,-0.0025
2852.00,-0.0025
2850.00,-0.0025
2848.00,-0.0025
2846.00,-0.0025
2844.00,-0.0024
2842.00,-0.0024
2840.00,-0.0024
2838.00,-0.0024
2836.00,-0.0024
2834.00,-0.0024
2832.00,-0.0024
2830.00,-0.0024
2828.00,-0.0024
2826.00,-0.0024
2824.00,-0.0024
2822.00,-0.0025
2820.00,-0.0024
2818.00,-0.0024
2816.00,-0.0025
2814.00,-0.0025
2812.00,-0.0025
2810.00,-0.0025
2808.00,-0.0025
2806.00,-0.0025
2804.00,-0.0025
2802.00,-0.0025
2800.00,-0.0025
2798.00,-0.0025
2796.00,-0.0025
2794.00,-0.0025
2792.00,-0.0025
2790.00,-0.0025
2788.00,-0.0025
2786.00,-0.0025
2784.00,-0.0025
2782.00,-0.0025
2780.00,-0.0025
2778.00,-0.0025
2776.00,-0.0025
2774.00,-0.0025
2772.00,-0.0025
2770.00,-0.0025
2768.00,-0.0025
2766.00,-0.0025
2764.00,-0.0025
2762.00,-0.0025
2760.00,-0.0025
2758.00,-0.0024
2756.00,-0.0024
2754.00,-0.0025
2752.00,-0.0025
2750.00,-0.0025
2748.00,-0.0025
2746.00,-0.0025
2744.00,-0.0025
2742.00,-0.0025
2740.00,-0.0025
2738.00,-0.0025
2736.00,-0.0025
2734.00,-0.0025
2732.00,-0.0025
2730.00,-0.0025
2728.00,-0.0024
2726.00,-0.0024
2724.00,-0.0025
2722.00,-0.0025
2720.00,-0.0025
2718.00,-0.0025
2716.00,-0.0025
2714.00,-0.0025
2712.00,-0.0025
2710.00,-0.0025
2708.00,-0.0025
2706.00,-0.0025
2704.00,-0.0025
2702.00,-0.0025
2700.00,-0.0025
2698.00,-0.0025
2696.00,-0.0025
2694.00,-0.0025
2692.00,-0.0025
2690.00,-0.0025
2688.00,-0.0025
2686.00,-0.0025
2684.00,-0.0025
2682.00,-0.0025
2680.00,-0.0025
2678.00,-0.0025
2676.00,-0.0025
2674.00,-0.0025
2672.00,-0.0025
2670.00,-0.0025
2668.00,-0.0025
2666.00,-0.0025
2664.00,-0.0025
2662.00,-0.0025
2660.00,-0.0025
2658.00,-0.0025
2656.00,-0.0025
2654.00,-0.0025
2652.00,-0.0025
2650.00,-0.0025
2648.00,-0.0025
2646.00,-0.0025
2644.00,-0.0025
2642.00,-0.0025
2640.00,-0.0025
2638.00,-0.0025
2636.00,-0.0025
2634.00,-0.0025
2632.00,-0.0025
2630.00,-0.0025
2628.00,-0.0025
2626.00,-0.0025
2624.00,-0.0025
2622.00,-0.0025
2620.00,-0.0025
2618.00,-0.0025
2616.00,-0.0025
2614.00,-0.0025
2612.00,-0.0025
2610.00,-0.0025
2608.00,-0.0025
2606.00,-0.0025
2604.00,-0.0025
2602.00,-0.0025
2600.00,-0.0025
2598.00,-0.0025
2596.00,-0.0025
2594.00,-0.0025
2592.00,-0.0025
2590.00,-0.0025
2588.00,-0.0025
2586.00,-0.0025
2584.00,-0.0025
2582.00,-0.0025
2580.00,-0.0025
2578.00,-0.0025
2576.00,-0.0024
2574.00,-0.0024
2572.00,-0.0024
2570.00,-0.0024
2568.00,-0.0024
2566.00,-0.0024
2564.00,-0.0024
2562.00,-0.0025
2560.00,-0.0025
2558.00,-0.0025
2556.00,-0.0025
2554.00,-0.0025
2552.00,-0.0025
2550.00,-0.0025
2548.00,-0.0025
2546.00,-0.0025
2544.00,-0.0025
2542.00,-0.0025
2540.00,-0.0024
2538.00,-0.0024
2536.00,-0.0025
2534.00,-0.0025
2532.00,-0.0025
2530.00,-0.0025
2528.00,-0.0025
2526.00,-0.0025
2524.00,-0.0025
2522.00,-0.0025
2520.00,-0.0025
2518.00,-0.0025
2516.00,-0.0025
2514.00,-0.0024
2512.00,-0.0024
2510.00,-0.0024
2508.00,-0.0024
2506.00,-0.0024
2504.00,-0.0024
2502.00,-0.0024
2500.00,-0.0024
2498.00,-0.0024
2496.00,-0.0024
2494.00,-0.0025
2492.00,-0.0025
2490.00,-0.0025
2488.00,-0.0025
2486.00,-0.0024
2484.00,-0.0024
2482.00,-0.0025
2480.00,-0.0024
2478.00,-0.0024
2476.00,-0.0024
2474.00,-0.0024
2472.00,-0.0024
2470.00,-0.0024
2468.00,-0.0024
2466.00,-0.0024
2464.00,-0.0024
2462.00,-0.0024
2460.00,-0.0025
2458.00,-0.0025
2456.00,-0.0025
2454.00,-0.0025
2452.00,-0.0025
2450.00,-0.0024
2448.00,-0.0024
2446.00,-0.0024
2444.00,-0.0024
2442.00,-0.0025
2440.00,-0.0025
2438.00,-0.0024
2436.00,-0.0025
2434.00,-0.0025
2432.00,-0.0025
2430.00,-0.0025
2428.00,-0.0025
2426.00,-0.0025
2424.00,-0.0025
2422.00,-0.0025
2420.00,-0.0025
2418.00,-0.0024
2416.00,-0.0024
2414.00,-0.0024
2412.00,-0.0025
2410.00,-0.0025
2408.00,-0.0024
2406.00,-0.0024
2404.00,-0.0024
2402.00,-0.0025
2400.00,-0.0025
2398.00,-0.0025
2396.00,-0.0025
2394.00,-0.0025
2392.00,-0.0025
2390.00,-0.0025
2388.00,-0.0025
2386.00,-0.0025
2384.00,-0.0025
2382.00,-0.0025
2380.00,-0.0025
2378.00,-0.0024
2376.00,-0.0024
2374.00,-0.0025
2372.00,-0.0026
2370.00,-0.0025
2368.00,-0.0025
2366.00,-0.0025
2364.00,-0.0025
2362.00,-0.0025
2360.00,-0.0026
2358.00,-0.0027
2356.00,-0.0026
2354.00,-0.0025
2352.00,-0.0024
2350.00,-0.0025
2348.00,-0.0027
2346.00,-0.0026
2344.00,-0.0026
2342.00,-0.0027
2340.00,-0.0027
2338.00,-0.0026
2336.00,-0.0026
2334.00,-0.0025
2332.00,-0.0025
2330.00,-0.0025
2328.00,-0.0026
2326.00,-0.0026
2324.00,-0.0027
2322.00,-0.0026
2320.00,-0.0026
2318.00,-0.0027
2316.00,-0.0026
2314.00,-0.0026
2312.00,-0.0025
2310.00,-0.0026
2308.00,-0.0026
2306.00,-0.0026
2304.00,-0.0025
2302.00,-0.0025
2300.00,-0.0025
2298.00,-0.0025
2296.00,-0.0025
2294.00,-0.0025
2292.00,-0.0025
2290.00,-0.0025
2288.00,-0.0025
2286.00,-0.0025
2284.00,-0.0025
2282.00,-0.0025
2280.00,-0.0024
2278.00,-0.0024
2276.00,-0.0025
2274.00,-0.0025
2272.00,-0.0025
2270.00,-0.0025
2268.00,-0.0025
2266.00,-0.0025
2264.00,-0.0025
2262.00,-0.0025
2260.00,-0.0024
2258.00,-0.0024
2256.00,-0.0024
2254.00,-0.0024
2252.00,-0.0024
2250.00,-0.0024
2248.00,-0.0024
2246.00,-0.0024
2244.00,-0.0024
2242.00,-0.0025
2240.00,-0.0025
2238.00,-0.0024
2236.00,-0.0024
2234.00,-0.0024
2232.00,-0.0024
2230.00,-0.0024
2228.00,-0.0024
2226.00,-0.0024
2224.00,-0.0024
2222.00,-0.0024
2220.00,-0.0024
2218.00,-0.0024
2216.00,-0.0024
2214.00,-0.0024
2212.00,-0.0024
2210.00,-0.0024
2208.00,-0.0024
2206.00,-0.0024
2204.00,-0.0024
2202.00,-0.0024
2200.00,-0.0024
2198.00,-0.0024
2196.00,-0.0024
2194.00,-0.0024
2192.00,-0.0024
2190.00,-0.0024
2188.00,-0.0024
2186.00,-0.0024
2184.00,-0.0024
2182.00,-0.0024
2180.00,-0.0024
2178.00,-0.0024
2176.00,-0.0024
2174.00,-0.0024
2172.00,-0.0024
2170.00,-0.0024
2168.00,-0.0024
2166.00,-0.0024
2164.00,-0.0024
2162.00,-0.0024
2160.00,-0.0024
2158.00,-0.0024
2156.00,-0.0024
2154.00,-0.0024
2152.00,-0.0024
2150.00,-0.0024
2148.00,-0.0024
2146.00,-0.0024
2144.00,-0.0024
2142.00,-0.0024
2140.00,-0.0024
2138.00,-0.0024
2136.00,-0.0024
2134.00,-0.0024
2132.00,-0.0024
2130.00,-0.0024
2128.00,-0.0024
2126.00,-0.0024
2124.00,-0.0024
2122.00,-0.0024
2120.00,-0.0024
2118.00,-0.0024
2116.00,-0.0024
2114.00,-0.0024
2112.00,-0.0024
2110.00,-0.0024
2108.00,-0.0024
2106.00,-0.0024
2104.00,-0.0024
2102.00,-0.0024
2100.00,-0.0024
2098.00,-0.0024
2096.00,-0.0024
2094.00,-0.0024
2092.00,-0.0024
2090.00,-0.0024
2088.00,-0.0024
2086.00,-0.0024
2084.00,-0.0024
2082.00,-0.0024
2080.00,-0.0024
2078.00,-0.0024
2076.00,-0.0024
2074.00,-0.0024
2072.00,-0.0024
2070.00,-0.0024
2068.00,-0.0024
2066.00,-0.0024
2064.00,-0.0024
2062.00,-0.0024
2060.00,-0.0024
2058.00,-0.0024
2056.00,-0.0024
2054.00,-0.0024
2052.00,-0.0024
2050.00,-0.0024
2048.00,-0.0024
2046.00,-0.0024
2044.00,-0.0024
2042.00,-0.0024
2040.00,-0.0024
2038.00,-0.0024
2036.00,-0.0024
2034.00,-0.0024
2032.00,-0.0024
2030.00,-0.0024
2028.00,-0.0024
2026.00,-0.0024
2024.00,-0.0024
2022.00,-0.0024
2020.00,-0.0024
2018.00,-0.0024
2016.00,-0.0024
2014.00,-0.0024
2012.00,-0.0024
2010.00,-0.0024
2008.00,-0.0024
2006.00,-0.0024
2004.00,-0.0024
2002.00,-0.0024
2000.00,-0.0024
1998.00,-0.0024
1996.00,-0.0024
1994.00,-0.0024
1992.00,-0.0024
1990.00,-0.0024
1988.00,-0.0024
1986.00,-0.0024
1984.00,-0.0024
1982.00,-0.0024
1980.00,-0.0024
1978.00,-0.0024
1976.00,-0.0024
1974.00,-0.0024
1972.00,-0.0024
1970.00,-0.0024
1968.00,-0.0024
1966.00,-0.0024
1964.00,-0.0024
1962.00,-0.0024
1960.00,-0.0024
1958.00,-0.0024
1956.00,-0.0024
1954.00,-0.0024
1952.00,-0.0024
1950.00,-0.0024
1948.00,-0.0024
1946.00,-0.0024
1944.00,-0.0024
1942.00,-0.0024
1940.00,-0.0024
1938.00,-0.0024
1936.00,-0.0024
1934.00,-0.0024
1932.00,-0.0024
1930.00,-0.0024
1928.00,-0.0024
1926.00,-0.0024
1924.00,-0.0024
1922.00,-0.0024
1920.00,-0.0024
1918.00,-0.0024
1916.00,-0.0024
1914.00,-0.0024
1912.00,-0.0024
1910.00,-0.0024
1908.00,-0.0024
1906.00,-0.0024
1904.00,-0.0024
1902.00,-0.0024
1900.00,-0.0024
1898.00,-0.0024
1896.00,-0.0024
1894.00,-0.0024
1892.00,-0.0024
1890.00,-0.0024
1888.00,-0.0024
1886.00,-0.0024
1884.00,-0.0024
1882.00,-0.0024
1880.00,-0.0024
1878.00,-0.0024
1876.00,-0.0024
1874.00,-0.0024
1872.00,-0.0024
1870.00,-0.0024
1868.00,-0.0024
1866.00,-0.0024
1864.00,-0.0024
1862.00,-0.0024
1860.00,-0.0024
1858.00,-0.0024
1856.00,-0.0024
1854.00,-0.0024
1852.00,-0.0024
1850.00,-0.0024
1848.00,-0.0024
1846.00,-0.0024
1844.00,-0.0024
1842.00,-0.0024
1840.00,-0.0024
1838.00,-0.0024
1836.00,-0.0024
1834.00,-0.0024
1832.00,-0.0024
1830.00,-0.0024
1828.00,-0.0024
1826.00,-0.0024
1824.00,-0.0024
1822.00,-0.0024
1820.00,-0.0024
1818.00,-0.0024
1816.00,-0.0024
1814.00,-0.0024
1812.00,-0.0024
1810.00,-0.0024
1808.00,-0.0024
1806.00,-0.0024
1804.00,-0.0024
1802.00,-0.0024
1800.00,-0.0024
1798.00,-0.0024
1796.00,-0.0025
1794.00,-0.0031
1792.00,-0.0035
1790.00,-0.0029
1788.00,-0.0024
1786.00,-0.0024
1784.00,-0.0024
1782.00,-0.0025
1780.00,-0.0024
1778.00,-0.0024
1776.00,-0.0024
1774.00,-0.0024
1772.00,-0.0023
1770.00,-0.0023
1768.00,-0.0023
1766.00,-0.0023
1764.00,-0.0023
1762.00,-0.0024
1760.00,-0.0024
1758.00,-0.0023
1756.00,-0.0023
1754.00,-0.0023
1752.00,-0.0022
1750.00,-0.0023
1748.00,-0.0023
1746.00,-0.0023
1744.00,-0.0023
1742.00,-0.0024
1740.00,-0.0024
1738.00,-0.0024
1736.00,-0.0023
1734.00,-0.0023
1732.00,-0.0023
1730.00,-0.0023
1728.00,-0.0023
1726.00,-0.0023
1724.00,-0.0023
1722.00,-0.0023
1720.00,-0.0023
1718.00,-0.0023
1716.00,-0.0023
1714.00,-0.0023
1712.00,-0.0023
1710.00,-0.0024
1708.00,-0.0024
1706.00,-0.0024
1704.00,-0.0024
1702.00,-0.0024
1700.00,-0.0024
1698.00,-0.0023
1696.00,-0.0023
1694.00,-0.0023
1692.00,-0.0023
1690.00,-0.0023
1688.00,-0.0024
1686.00,-0.0023
1684.00,-0.0023
1682.00,-0.0023
1680.00,-0.0023
1678.00,-0.0024
1676.00,-0.0024
1674.00,-0.0023
1672.00,-0.0023
1670.00,-0.0023
1668.00,-0.0024
1666.00,-0.0024
1664.00,-0.0024
1662.00,-0.0024
1660.00,-0.0023
1658.00,-0.0023
1656.00,-0.0024
1654.00,-0.0024
1652.00,-0.0024
1650.00,-0.0023
1648.00,-0.0023
1646.00,-0.0023
1644.00,-0.0023
1642.00,-0.0023
1640.00,-0.0024
1638.00,-0.0023
1636.00,-0.0023
1634.00,-0.0023
1632.00,-0.0023
1630.00,-0.0023
1628.00,-0.0023
1626.00,-0.0024
1624.00,-0.0023
1622.00,-0.0024
1620.00,-0.0024
1618.00,-0.0024
1616.00,-0.0024
1614.00,-0.0024
1612.00,-0.0024
1610.00,-0.0024
1608.00,-0.0024
1606.00,-0.0024
1604.00,-0.0024
1602.00,-0.0024
1600.00,-0.0024
1598.00,-0.0024
1596.00,-0.0024
1594.00,-0.0024
1592.00,-0.0024
1590.00,-0.0024
1588.00,-0.0024
1586.00,-0.0024
1584.00,-0.0024
1582.00,-0.0024
1580.00,-0.0024
1578.00,-0.0024
1576.00,-0.0024
1574.00,-0.0024
1572.00,-0.0024
1570.00,-0.0024
1568.00,-0.0024
1566.00,-0.0023
1564.00,-0.0023
1562.00,-0.0024
1560.00,-0.0023
1558.00,-0.0023
1556.00,-0.0023
1554.00,-0.0023
1552.00,-0.0023
1550.00,-0.0023
1548.00,-0.0023
1546.00,-0.0023
1544.00,-0.0023
1542.00,-0.0023
1540.00,-0.0023
1538.00,-0.0023
1536.00,-0.0023
1534.00,-0.0023
1532.00,-0.0023
1530.00,-0.0023
1528.00,-0.0023
1526.00,-0.0023
1524.00,-0.0023
1522.00,-0.0023
1520.00,-0.0023
1518.00,-0.0023
1516.00,-0.0023
1514.00,-0.0023
1512.00,-0.0023
1510.00,-0.0023
1508.00,-0.0023
1506.00,-0.0023
1504.00,-0.0022
1502.00,-0.0023
1500.00,-0.0024
1498.00,-0.0024
1496.00,-0.0023
1494.00,-0.0023
1492.00,-0.0023
1490.00,-0.0023
1488.00,-0.0023
1486.00,-0.0023
1484.00,-0.0023
1482.00,-0.0023
1480.00,-0.0023
1478.00,-0.0023
1476.00,-0.0023
1474.00,-0.0022
1472.00,-0.0022
1470.00,-0.0023
1468.00,-0.0023
1466.00,-0.0023
1464.00,-0.0023
1462.00,-0.0023
1460.00,-0.0023
1458.00,-0.0023
1456.00,-0.0023
1454.00,-0.0023
1452.00,-0.0023
1450.00,-0.0023
1448.00,-0.0023
1446.00,-0.0023
1444.00,-0.0023
1442.00,-0.0023
1440.00,-0.0023
1438.00,-0.0023
1436.00,-0.0023
1434.00,-0.0023
1432.00,-0.0023
1430.00,-0.0023
1428.00,-0.0023
1426.00,-0.0023
1424.00,-0.0023
1422.00,-0.0023
1420.00,-0.0023
1418.00,-0.0023
1416.00,-0.0023
1414.00,-0.0023
1412.00,-0.0023
1410.00,-0.0024
1408.00,-0.0024
1406.00,-0.0024
1404.00,-0.0024
1402.00,-0.0023
1400.00,-0.0023
1398.00,-0.0023
1396.00,-0.0023
1394.00,-0.0023
1392.00,-0.0023
1390.00,-0.0023
1388.00,-0.0023
1386.00,-0.0024
1384.00,-0.0024
1382.00,-0.0023
1380.00,-0.0023
1378.00,-0.0023
1376.00,-0.0023
1374.00,-0.0023
1372.00,-0.0023
1370.00,-0.0023
1368.00,-0.0023
1366.00,-0.0023
1364.00,-0.0024
1362.00,-0.0024
1360.00,-0.0024
1358.00,-0.0023
1356.00,-0.0024
1354.00,-0.0024
1352.00,-0.0024
1350.00,-0.0024
1348.00,-0.0024
1346.00,-0.0023
1344.00,-0.0024
1342.00,-0.0024
1340.00,-0.0024
1338.00,-0.0024
1336.00,-0.0024
1334.00,-0.0024
1332.00,-0.0024
1330.00,-0.0024
1328.00,-0.0024
1326.00,-0.0024
1324.00,-0.0024
1322.00,-0.0024
1320.00,-0.0024
1318.00,-0.0024
1316.00,-0.0024
1314.00,-0.0024
1312.00,-0.0024
1310.00,-0.0024
1308.00,-0.0024
1306.00,-0.0024
1304.00,-0.0024
1302.00,-0.0024
1300.00,-0.0024
1298.00,-0.0024
1296.00,-0.0024
1294.00,-0.0024
1292.00,-0.0024
1290.00,-0.0024
1288.00,-0.0024
1286.00,-0.0024
1284.00,-0.0024
1282.00,-0.0024
1280.00,-0.0024
1278.00,-0.0024
1276.00,-0.0024
1274.00,-0.0024
1272.00,-0.0024
1270.00,-0.0024
1268.00,-0.0024
1266.00,-0.0024
1264.00,-0.0024
1262.00,-0.0024
1260.00,-0.0024
1258.00,-0.0024
1256.00,-0.0025
1254.00,-0.0025
1252.00,-0.0025
1250.00,-0.0025
1248.00,-0.0025
1246.00,-0.0025
1244.00,-0.0025
1242.00,-0.0025
1240.00,-0.0024
1238.00,-0.0024
1236.00,-0.0024
1234.00,-0.0024
1232.00,-0.0024
1230.00,-0.0024
1228.00,-0.0024
1226.00,-0.0024
1224.00,-0.0024
1222.00,-0.0024
1220.00,-0.0024
1218.00,-0.0024
1216.00,-0.0024
1214.00,-0.0024
1212.00,-0.0024
1210.00,-0.0024
1208.00,-0.0024
1206.00,-0.0024
1204.00,-0.0024
1202.00,-0.0024
1200.00,-0.0024
1198.00,-0.0024
1196.00,-0.0024
1194.00,-0.0024
1192.00,-0.0024
1190.00,-0.0024
1188.00,-0.0024
1186.00,-0.0024
1184.00,-0.0024
1182.00,-0.0024
1180.00,-0.0024
1178.00,-0.0024
1176.00,-0.0024
1174.00,-0.0024
1172.00,-0.0024
1170.00,-0.0024
1168.00,-0.0024
1166.00,-0.0024
1164.00,-0.0024
1162.00,-0.0024
1160.00,-0.0024
1158.00,-0.0024
1156.00,-0.0024
1154.00,-0.0024
1152.00,-0.0024
1150.00,-0.0024
1148.00,-0.0024
1146.00,-0.0024
1144.00,-0.0024
1142.00,-0.0024
1140.00,-0.0024
1138.00,-0.0024
1136.00,-0.0024
1134.00,-0.0024
1132.00,-0.0024
1130.00,-0.0024
1128.00,-0.0024
1126.00,-0.0024
1124.00,-0.0024
1122.00,-0.0024
1120.00,-0.0024
1118.00,-0.0024
1116.00,-0.0024
1114.00,-0.0025
1112.00,-0.0025
1110.00,-0.0025
1108.00,-0.0024
1106.00,-0.0024
1104.00,-0.0024
1102.00,-0.0024
1100.00,-0.0024
1098.00,-0.0024
1096.00,-0.0024
1094.00,-0.0024
1092.00,-0.0024
1090.00,-0.0024
1088.00,-0.0024
1086.00,-0.0024
1084.00,-0.0024
1082.00,-0.0024
1080.00,-0.0024
1078.00,-0.0024
1076.00,-0.0024
1074.00,-0.0024
1072.00,-0.0024
1070.00,-0.0024
1068.00,-0.0024
1066.00,-0.0024
1064.00,-0.0023
1062.00,-0.0023
1060.00,-0.0023
1058.00,-0.0023
1056.00,-0.0023
1054.00,-0.0024
1052.00,-0.0024
1050.00,-0.0023
1048.00,-0.0023
1046.00,-0.0023
1044.00,-0.0023
1042.00,-0.0023
1040.00,-0.0024
1038.00,-0.0024
1036.00,-0.0024
1034.00,-0.0024
1032.00,-0.0023
1030.00,-0.0023
1028.00,-0.0023
1026.00,-0.0023
1024.00,-0.0023
1022.00,-0.0023
1020.00,-0.0023
1018.00,-0.0023
1016.00,-0.0023
1014.00,-0.0023
1012.00,-0.0023
1010.00,-0.0023
1008.00,-0.0023
1006.00,-0.0023
1004.00,-0.0023
1002.00,-0.0023
1000.00,-0.0023
998.00,-0.0023
996.00,-0.0023
994.00,-0.0023
992.00,-0.0023
990.00,-0.0024
988.00,-0.0024
986.00,-0.0024
984.00,-0.0024
982.00,-0.0024
980.00,-0.0024
978.00,-0.0024
976.00,-0.0024
974.00,-0.0024
972.00,-0.0024
970.00,-0.0024
968.00,-0.0024
966.00,-0.0024
964.00,-0.0024
962.00,-0.0024
960.00,-0.0024
958.00,-0.0025
956.00,-0.0025
954.00,-0.0025
952.00,-0.0025
950.00,-0.0025
948.00,-0.0025
946.00,-0.0025
944.00,-0.0025
942.00,-0.0025
940.00,-0.0025
938.00,-0.0025
936.00,-0.0025
934.00,-0.0025
932.00,-0.0025
930.00,-0.0026
928.00,-0.0026
926.00,-0.0026
924.00,-0.0026
922.00,-0.0026
920.00,-0.0026
918.00,-0.0026
916.00,-0.0026
914.00,-0.0026
912.00,-0.0026
910.00,-0.0026
908.00,-0.0026
906.00,-0.0026
904.00,-0.0026
902.00,-0.0026
900.00,-0.0026
898.00,-0.0026
896.00,-0.0026
894.00,-0.0025
892.00,-0.0024
890.00,-0.0025
888.00,-0.0026
886.00,-0.0026
884.00,-0.0026
882.00,-0.0025
880.00,-0.0025
878.00,-0.0025
876.00,-0.0025
874.00,-0.0025
872.00,-0.0025
870.00,-0.0025
868.00,-0.0025
866.00,-0.0025
864.00,-0.0025
862.00,-0.0025
860.00,-0.0025
858.00,-0.0026
856.00,-0.0026
854.00,-0.0025
852.00,-0.0026
850.00,-0.0025
848.00,-0.0025
846.00,-0.0025
844.00,-0.0025
842.00,-0.0025
840.00,-0.0025
838.00,-0.0025
836.00,-0.0025
834.00,-0.0026
832.00,-0.0026
830.00,-0.0026
828.00,-0.0026
826.00,-0.0026
824.00,-0.0026
822.00,-0.0026
820.00,-0.0025
818.00,-0.0025
816.00,-0.0025
814.00,-0.0025
812.00,-0.0025
810.00,-0.0025
808.00,-0.0025
806.00,-0.0026
804.00,-0.0026
802.00,-0.0026
800.00,-0.0026
798.00,-0.0026
796.00,-0.0025
794.00,-0.0025
792.00,-0.0025
790.00,-0.0026
788.00,-0.0026
786.00,-0.0025
784.00,-0.0025
782.00,-0.0025
780.00,-0.0025
778.00,-0.0025
776.00,-0.0026
774.00,-0.0025
772.00,-0.0025
770.00,-0.0026
768.00,-0.0025
766.00,-0.0025
764.00,-0.0026
762.00,-0.0026
760.00,-0.0025
758.00,-0.0025
756.00,-0.0025
754.00,-0.0025
752.00,-0.0025
750.00,-0.0025
748.00,-0.0025
746.00,-0.0025
744.00,-0.0025
742.00,-0.0025
740.00,-0.0025
738.00,-0.0025
736.00,-0.0025
734.00,-0.0025
732.00,-0.0025
730.00,-0.0025
728.00,-0.0025
726.00,-0.0026
724.00,-0.0025
722.00,-0.0025
720.00,-0.0025
718.00,-0.0025
716.00,-0.0025
714.00,-0.0026
712.00,-0.0025
710.00,-0.0025
708.00,-0.0026
706.00,-0.0026
704.00,-0.0026
702.00,-0.0026
700.00,-0.0025
698.00,-0.0025
696.00,-0.0025
694.00,-0.0025
692.00,-0.0025
690.00,-0.0025
688.00,-0.0025
686.00,-0.0025
684.00,-0.0025
682.00,-0.0025
680.00,-0.0026
678.00,-0.0026
676.00,-0.0026
674.00,-0.0026
672.00,-0.0024
670.00,-0.0018
668.00,-0.0006
666.00,-0.0015
664.00,-0.0024
662.00,-0.0025
660.00,-0.0025
658.00,-0.0026
656.00,-0.0026
654.00,-0.0025
652.00,-0.0025
650.00,-0.0025
648.00,-0.0026
646.00,-0.0026
644.00,-0.0026
642.00,-0.0026
640.00,-0.0026
638.00,-0.0026
636.00,-0.0026
634.00,-0.0025
632.00,-0.0025
630.00,-0.0025
628.00,-0.0026
626.00,-0.0025
624.00,-0.0025
622.00,-0.0024
620.00,-0.0025
618.00,-0.0025
616.00,-0.0025
614.00,-0.0025
612.00,-0.0026
610.00,-0.0026
608.00,-0.0026
606.00,-0.0026
604.00,-0.0026
602.00,-0.0025
600.00,-0.0024
598.00,-0.0024
596.00,-0.0025
594.00,-0.0025
592.00,-0.0025
590.00,-0.0025
588.00,-0.0026
586.00,-0.0026
584.00,-0.0026
582.00,-0.0025
580.00,-0.0025
578.00,-0.0025
576.00,-0.0026
574.00,-0.0026
572.00,-0.0026
570.00,-0.0026
568.00,-0.0025
566.00,-0.0025
564.00,-0.0025
562.00,-0.0024
560.00,-0.0024
558.00,-0.0024
556.00,-0.0024
554.00,-0.0024
552.00,-0.0024
550.00,-0.0024
548.00,-0.0023
546.00,-0.0024
544.00,-0.0025
542.00,-0.0025
540.00,-0.0025
538.00,-0.0024
536.00,-0.0024
534.00,-0.0024
532.00,-0.0024
530.00,-0.0024
528.00,-0.0024
526.00,-0.0024
524.00,-0.0024
522.00,-0.0024
520.00,-0.0024
518.00,-0.0024
516.00,-0.0024
514.00,-0.0025
512.00,-0.0025
510.00,-0.0025
508.00,-0.0025
506.00,-0.0026
504.00,-0.0026
502.00,-0.0026
500.00,-0.0026
