Created as New Dataset,Sample 034 By Analyst Date Wednesday, April 02 2025
cm-1,A
4000.00,-0.0024
3998.00,-0.0024
3996.00,-0.0024
3994.00,-0.0024
3992.00,-0.0024
3990.00,-0.0024
3988.00,-0.0024
3986.00,-0.0024
3984.00,-0.0024
3982.00,-0.0024
3980.00,-0.0024
3978.00,-0.0024
3976.00,-0.0024
3974.00,-0.0024
3972.00,-0.0024
3970.00,-0.0024
3968.00,-0.0024
3966.00,-0.0024
3964.00,-0.0024
3962.00,-0.0024
3960.00,-0.0024
3958.00,-0.0024
3956.00,-0.0024
3954.00,-0.0024
3952.00,-0.0024
3950.00,-0.0023
3948.00,-0.0023
3946.00,-0.0023
3944.00,-0.0023
3942.00,-0.0023
3940.00,-0.0024
3938.00,-0.0023
3936.00,-0.0023
3934.00,-0.0023
3932.00,-0.0023
3930.00,-0.0023
3928.00,-0.0023
3926.00,-0.0023
3924.00,-0.0023
3922.00,-0.0023
3920.00,-0.0022
3918.00,-0.0022
3916.00,-0.0023
3914.00,-0.0023
3912.00,-0.0023
3910.00,-0.0024
3908.00,-0.0023
3906.00,-0.0022
3904.00,-0.0021
3902.00,-0.0020
3900.00,-0.0020
3898.00,-0.0022
3896.00,-0.0022
3894.00,-0.0022
3892.00,-0.0023
3890.00,-0.0023
3888.00,-0.0022
3886.00,-0.0021
3884.00,-0.0022
3882.00,-0.0021
3880.00,-0.0022
3878.00,-0.0023
3876.00,-0.0022
3874.00,-0.0022
3872.00,-0.0022
3870.00,-0.0021
3868.00,-0.0022
3866.00,-0.0021
3864.00,-0.0021
3862.00,-0.0022
3860.00,-0.0022
3858.00,-0.0023
3856.00,-0.0024
3854.00,-0.0022
3852.00,-0.0021
3850.00,-0.0021
3848.00,-0.0021
3846.00,-0.0022
3844.00,-0.0022
3842.00,-0.0022
3840.00,-0.0022
3838.00,-0.0021
3836.00,-0.0021
3834.00,-0.0021
3832.00,-0.0021
3830.00,-0.0022
3828.00,-0.0022
3826.00,-0.0022
3824.00,-0.0023
3822.00,-0.0021
3820.00,-0.0022
3818.00,-0.0022
3816.00,-0.0021
3814.00,-0.0022
3812.00,-0.0022
3810.00,-0.0023
3808.00,-0.0023
3806.00,-0.0023
3804.00,-0.0023
3802.00,-0.0022
3800.00,-0.0023
3798.00,-0.0022
3796.00,-0.0022
3794.00,-0.0023
3792.00,-0.0023
3790.00,-0.0023
3788.00,-0.0023
3786.00,-0.0023
3784.00,-0.0023
3782.00,-0.0023
3780.00,-0.0023
3778.00,-0.0023
3776.00,-0.0023
3774.00,-0.0023
3772.00,-0.0023
3770.00,-0.0022
3768.00,-0.0022
3766.00,-0.0022
3764.00,-0.0022
3762.00,-0.0022
3760.00,-0.0022
3758.00,-0.0022
3756.00,-0.0022
3754.00,-0.0021
3752.00,-0.0021
3750.00,-0.0020
3748.00,-0.0019
3746.00,-0.0019
3744.00,-0.0019
3742.00,-0.0020
3740.00,-0.0019
3738.00,-0.0018
3736.00,-0.0018
3734.00,-0.0019
3732.00,-0.0019
3730.00,-0.0020
3728.00,-0.0020
3726.00,-0.0021
3724.00,-0.0021
3722.00,-0.0021
3720.00,-0.0022
3718.00,-0.0022
3716.00,-0.0022
3714.00,-0.0022
3712.00,-0.0022
3710.00,-0.0022
3708.00,-0.0022
3706.00,-0.0022
3704.00,-0.0022
3702.00,-0.0023
3700.00,-0.0023
3698.00,-0.0022
3696.00,-0.0023
3694.00,-0.0023
3692.00,-0.0022
3690.00,-0.0022
3688.00,-0.0021
3686.00,-0.0021
3684.00,-0.0021
3682.00,-0.0022
3680.00,-0.0022
3678.00,-0.0022
3676.00,-0.0020
3674.00,-0.0021
3672.00,-0.0020
3670.00,-0.0019
3668.00,-0.0021
3666.00,-0.0021
3664.00,-0.0022
3662.00,-0.0023
3660.00,-0.0023
3658.00,-0.0022
3656.00,-0.0022
3654.00,-0.0021
3652.00,-0.0020
3650.00,-0.0019
3648.00,-0.0019
3646.00,-0.0020
3644.00,-0.0021
3642.00,-0.0022
3640.00,-0.0023
3638.00,-0.0023
3636.00,-0.0022
3634.00,-0.0022
3632.00,-0.0021
3630.00,-0.0020
3628.00,-0.0020
3626.00,-0.0020
3624.00,-0.0020
3622.00,-0.0021
3620.00,-0.0021
3618.00,-0.0021
3616.00,-0.0020
3614.00,-0.0020
3612.00,-0.0021
3610.00,-0.0020
3608.00,-0.0020
3606.00,-0.0021
3604.00,-0.0021
3602.00,-0.0022
3600.00,-0.0022
3598.00,-0.0022
3596.00,-0.0022
3594.00,-0.0022
3592.00,-0.0022
3590.00,-0.0020
3588.00,-0.0020
3586.00,-0.0021
3584.00,-0.0021
3582.00,-0.0022
3580.00,-0.0023
3578.00,-0.0023
3576.00,-0.0023
3574.00,-0.0023
3572.00,-0.0022
3570.00,-0.0021
3568.00,-0.0020
3566.00,-0.0021
3564.00,-0.0021
3562.00,-0.0022
3560.00,-0.0023
3558.00,-0.0023
3556.00,-0.0023
3554.00,-0.0023
3552.00,-0.0023
3550.00,-0.0022
3548.00,-0.0021
3546.00,-0.0022
3544.00,-0.0022
3542.00,-0.0022
3540.00,-0.0023
3538.00,-0.0023
3536.00,-0.0023
3534.00,-0.0023
3532.00,-0.0023
3530.00,-0.0023
3528.00,-0.0023
3526.00,-0.0022
3524.00,-0.0023
3522.00,-0.0023
3520.00,-0.0023
3518.00,-0.0023
3516.00,-0.0023
3514.00,-0.0023
3512.00,-0.0023
3510.00,-0.0023
3508.00,-0.0023
3506.00,-0.0023
3504.00,-0.0023
3502.00,-0.0023
3500.00,-0.0023
3498.00,-0.0024
3496.00,-0.0024
3494.00,-0.0024
3492.00,-0.0024
3490.00,-0.0024
3488.00,-0.0024
3486.00,-0.0024
3484.00,-0.0024
3482.00,-0.0024
3480.00,-0.0024
3478.00,-0.0024
3476.00,-0.0024
3474.00,-0.0024
3472.00,-0.0024
3470.00,-0.0024
3468.00,-0.0024
3466.00,-0.0024
3464.00,-0.0024
3462.00,-0.0024
3460.00,-0.0024
3458.00,-0.0024
3456.00,-0.0024
3454.00,-0.0024
3452.00,-0.0024
3450.00,-0.0024
3448.00,-0.0024
3446.00,-0.0024
3444.00,-0.0024
3442.00,-0.0024
3440.00,-0.0024
3438.00,-0.0024
3436.00,-0.0024
3434.00,-0.0024
3432.00,-0.0024
3430.00,-0.0024
3428.00,-0.0024
3426.00,-0.0024
3424.00,-0.0024
3422.00,-0.0024
3420.00,-0.0024
3418.00,-0.0024
3416.00,-0.0024
3414.00,-0.0024
3412.00,-0.0024
3410.00,-0.0024
3408.00,-0.0024
3406.00,-0.0024
3404.00,-0.0024
3402.00,-0.0024
3400.00,-0.0024
3398.00,-0.0024
3396.00,-0.0024
3394.00,-0.0024
3392.00,-0.0024
3390.00,-0.0024
3388.00,-0.0024
3386.00,-0.0024
3384.00,-0.0024
3382.00,-0.0024
3380.00,-0.0024
3378.00,-0.0024
3376.00,-0.0024
3374.00,-0.0024
3372.00,-0.0024
3370.00,-0.0024
3368.00,-0.0024
3366.00,-0.0024
3364.00,-0.0024
3362.00,-0.0024
3360.00,-0.0024
3358.00,-0.0024
3356.00,-0.0024
3354.00,-0.0024
3352.00,-0.0024
3350.00,-0.0024
3348.00,-0.0024
3346.00,-0.0024
3344.00,-0.0024
3342.00,-0.0024
3340.00,-0.0024
3338.00,-0.0024
3336.00,-0.0024
3334.00,-0.0024
3332.00,-0.0024
3330.00,-0.0024
3328.00,-0.0024
3326.00,-0.0024
3324.00,-0.0024
3322.00,-0.0024
3320.00,-0.0024
3318.00,-0.0024
3316.00,-0.0024
3314.00,-0.0024
3312.00,-0.0024
3310.00,-0.0024
3308.00,-0.0024
3306.00,-0.0024
3304.00,-0.0024
3302.00,-0.0024
3300.00,-0.0024
3298.00,-0.0024
3296.00,-0.0024
3294.00,-0.0024
3292.00,-0.0024
3290.00,-0.0024
3288.00,-0.0024
3286.00,-0.0024
3284.00,-0.0024
3282.00,-0.0024
3280.00,-0.0024
3278.00,-0.0024
3276.00,-0.0024
3274.00,-0.0024
3272.00,-0.0024
3270.00,-0.0024
3268.00,-0.0024
3266.00,-0.0024
3264.00,-0.0024
3262.00,-0.0024
3260.00,-0.0024
3258.00,-0.0024
3256.00,-0.0024
3254.00,-0.0024
3252.00,-0.0024
3250.00,-0.0024
3248.00,-0.0024
3246.00,-0.0024
3244.00,-0.0024
3242.00,-0.0024
3240.00,-0.0024
3238.00,-0.0024
3236.00,-0.0024
3234.00,-0.0024
3232.00,-0.0024
3230.00,-0.0024
3228.00,-0.0024
3226.00,-0.0024
3224.00,-0.0024
3222.00,-0.0024
3220.00,-0.0024
3218.00,-0.0024
3216.00,-0.0024
3214.00,-0.0024
3212.00,-0.0024
3210.00,-0.0024
3208.00,-0.0024
3206.00,-0.0024
3204.00,-0.0024
3202.00,-0.0024
3200.00,-0.0024
3198.00,-0.0024
3196.00,-0.0024
3194.00,-0.0024
3192.00,-0.0024
3190.00,-0.0024
3188.00,-0.0024
3186.00,-0.0024
3184.00,-0.0024
3182.00,-0.0024
3180.00,-0.0024
3178.00,-0.0024
3176.00,-0.0024
3174.00,-0.0024
3172.00,-0.0024
3170.00,-0.0024
3168.00,-0.0024
3166.00,-0.0024
3164.00,-0.0024
3162.00,-0.0024
3160.00,-0.0024
3158.00,-0.0024
3156.00,-0.0024
3154.00,-0.0024
3152.00,-0.0024
3150.00,-0.0024
3148.00,-0.0024
3146.00,-0.0024
3144.00,-0.0024
3142.00,-0.0024
3140.00,-0.0024
3138.00,-0.0024
3136.00,-0.0024
3134.00,-0.0024
3132.00,-0.0024
3130.00,-0.0024
3128.00,-0.0024
3126.00,-0.0024
3124.00,-0.0024
3122.00,-0.0024
3120.00,-0.0024
3118.00,-0.0024
3116.00,-0.0024
3114.00,-0.0024
3112.00,-0.0024
3110.00,-0.0024
3108.00,-0.0024
3106.00,-0.0024
3104.00,-0.0024
3102.00,-0.0024
3100.00,-0.0024
3098.00,-0.0024
3096.00,-0.0024
3094.00,-0.0024
3092.00,-0.0024
3090.00,-0.0024
3088.00,-0.0024
3086.00,-0.0024
3084.00,-0.0024
3082.00,-0.0024
3080.00,-0.0024
3078.00,-0.0024
3076.00,-0.0024
3074.00,-0.0024
3072.00,-0.0024
3070.00,-0.0024
3068.00,-0.0024
3066.00,-0.0024
3064.00,-0.0024
3062.00,-0.0024
3060.00,-0.0024
3058.00,-0.0024
3056.00,-0.0024
3054.00,-0.0024
3052.00,-0.0024
3050.00,-0.0024
3048.00,-0.0024
3046.00,-0.0024
3044.00,-0.0024
3042.00,-0.0024
3040.00,-0.0024
3038.00,-0.0024
3036.00,-0.0024
3034.00,-0.0024
3032.00,-0.0024
3030.00,-0.0024
3028.00,-0.0024
3026.00,-0.0024
3024.00,-0.0024
3022.00,-0.0024
3020.00,-0.0024
3018.00,-0.0024
3016.00,-0.0023
3014.00,-0.0023
3012.00,-0.0023
3010.00,-0.0023
3008.00,-0.0024
3006.00,-0.0024
3004.00,-0.0024
3002.00,-0.0024
3000.00,-0.0023
2998.00,-0.0023
2996.00,-0.0023
2994.00,-0.0023
2992.00,-0.0023
2990.00,-0.0023
2988.00,-0.0023
2986.00,-0.0023
2984.00,-0.0023
2982.00,-0.0023
2980.00,-0.0023
2978.00,-0.0023
2976.00,-0.0023
2974.00,-0.0023
2972.00,-0.0023
2970.00,-0.0023
2968.00,-0.0023
2966.00,-0.0023
2964.00,-0.0023
2962.00,-0.0023
2960.00,-0.0023
2958.00,-0.0023
2956.00,-0.0023
2954.00,-0.0023
2952.00,-0.0023
2950.00,-0.0023
2948.00,-0.0023
2946.00,-0.0023
2944.00,-0.0023
2942.00,-0.0023
2940.00,-0.0023
2938.00,-0.0023
2936.00,-0.0023
2934.00,-0.0023
2932.00,-0.0023
2930.00,-0.0023
2928.00,-0.0023
2926.00,-0.0023
2924.00,-0.0023
2922.00,-0.0023
2920.00,-0.0023
2918.00,-0.0023
2916.00,-0.0023
2914.00,-0.0023
2912.00,-0.0023
2910.00,-0.0023
2908.00,-0.0023
2906.00,-0.0023
2904.00,-0.0023
2902.00,-0.0023
2900.00,-0.0023
2898.00,-0.0023
2896.00,-0.0023
2894.00,-0.0023
2892.00,-0.0023
2890.00,-0.0023
2888.00,-0.0023
2886.00,-0.0023
2884.00,-0.0023
2882.00,-0.0023
2880.00,-0.0023
2878.00,-0.0023
2876.00,-0.0023
2874.00,-0.0023
2872.00,-0.0023
2870.00,-0.0023
2868.00,-0.0023
2866.00,-0.0023
2864.00,-0.0023
2862.00,-0.0023
2860.00,-0.0024
2858.00,-0.0024
2856.00,-0.0024
2854.00,-0.0024
2852.00,-0.0024
2850.00,-0.0024
2848.00,-0.0024
2846.00,-0.0023
2844.00,-0.0023
2842.00,-0.0023
2840.00,-0.0023
2838.00,-0.0023
2836.00,-0.0023
2834.00,-0.0023
2832.00,-0.0023
2830.00,-0.0023
2828.00,-0.0023
2826.00,-0.0023
2824.00,-0.0023
2822.00,-0.0023
2820.00,-0.0023
2818.00,-0.0023
2816.00,-0.0023
2814.00,-0.0023
2812.00,-0.0023
2810.00,-0.0024
2808.00,-0.0024
2806.00,-0.0024
2804.00,-0.0024
2802.00,-0.0024
2800.00,-0.0024
2798.00,-0.0024
2796.00,-0.0024
2794.00,-0.0024
2792.00,-0.0024
2790.00,-0.0024
2788.00,-0.0024
2786.00,-0.0024
2784.00,-0.0024
2782.00,-0.0024
2780.00,-0.0024
2778.00,-0.0024
2776.00,-0.0024
2774.00,-0.0024
2772.00,-0.0024
2770.00,-0.0024
2768.00,-0.0024
2766.00,-0.0024
2764.00,-0.0024
2762.00,-0.0024
2760.00,-0.0024
2758.00,-0.0023
2756.00,-0.0023
2754.00,-0.0023
2752.00,-0.0023
2750.00,-0.0024
2748.00,-0.0024
2746.00,-0.0024
2744.00,-0.0024
2742.00,-0.0024
2740.00,-0.0024
2738.00,-0.0024
2736.00,-0.0024
2734.00,-0.0024
2732.00,-0.0023
2730.00,-0.0023
2728.00,-0.0023
2726.00,-0.0023
2724.00,-0.0023
2722.00,-0.0023
2720.00,-0.0023
2718.00,-0.0024
2716.00,-0.0024
2714.00,-0.0024
2712.00,-0.0024
2710.00,-0.0024
2708.00,-0.0024
2706.00,-0.0024
2704.00,-0.0024
2702.00,-0.0024
2700.00,-0.0024
2698.00,-0.0024
2696.00,-0.0024
2694.00,-0.0024
2692.00,-0.0024
2690.00,-0.0024
2688.00,-0.0023
2686.00,-0.0024
2684.00,-0.0024
2682.00,-0.0024
2680.00,-0.0024
2678.00,-0.0024
2676.00,-0.0024
2674.00,-0.0024
2672.00,-0.0023
2670.00,-0.0023
2668.00,-0.0023
2666.00,-0.0023
2664.00,-0.0023
2662.00,-0.0023
2660.00,-0.0024
2658.00,-0.0024
2656.00,-0.0023
2654.00,-0.0023
2652.00,-0.0024
2650.00,-0.0024
2648.00,-0.0024
2646.00,-0.0024
2644.00,-0.0024
2642.00,-0.0024
2640.00,-0.0024
2638.00,-0.0024
2636.00,-0.0024
2634.00,-0.0024
2632.00,-0.0023
2630.00,-0.0024
2628.00,-0.0024
2626.00,-0.0024
2624.00,-0.0024
2622.00,-0.0024
2620.00,-0.0024
2618.00,-0.0024
2616.00,-0.0024
2614.00,-0.0024
2612.00,-0.0024
2610.00,-0.0024
2608.00,-0.0024
2606.00,-0.0023
2604.00,-0.0024
2602.00,-0.0024
2600.00,-0.0024
2598.00,-0.0024
2596.00,-0.0024
2594.00,-0.0023
2592.00,-0.0023
2590.00,-0.0024
2588.00,-0.0024
2586.00,-0.0024
2584.00,-0.0024
2582.00,-0.0024
2580.00,-0.0023
2578.00,-0.0023
2576.00,-0.0023
2574.00,-0.0023
2572.00,-0.0023
2570.00,-0.0023
2568.00,-0.0023
2566.00,-0.0023
2564.00,-0.0023
2562.00,-0.0023
2560.00,-0.0023
2558.00,-0.0024
2556.00,-0.0024
2554.00,-0.0024
2552.00,-0.0023
2550.00,-0.0023
2548.00,-0.0023
2546.00,-0.0024
2544.00,-0.0024
2542.00,-0.0024
2540.00,-0.0023
2538.00,-0.0023
2536.00,-0.0023
2534.00,-0.0023
2532.00,-0.0023
2530.00,-0.0023
2528.00,-0.0023
2526.00,-0.0023
2524.00,-0.0023
2522.00,-0.0023
2520.00,-0.0023
2518.00,-0.0023
2516.00,-0.0023
2514.00,-0.0023
2512.00,-0.0023
2510.00,-0.0023
2508.00,-0.0023
2506.00,-0.0023
2504.00,-0.0023
2502.00,-0.0023
2500.00,-0.0023
2498.00,-0.0023
2496.00,-0.0023
2494.00,-0.0023
2492.00,-0.0023
2490.00,-0.0023
2488.00,-0.0023
2486.00,-0.0023
2484.00,-0.0023
2482.00,-0.0023
2480.00,-0.0023
2478.00,-0.0023
2476.00,-0.0023
2474.00,-0.0023
2472.00,-0.0023
2470.00,-0.0023
2468.00,-0.0023
2466.00,-0.0023
2464.00,-0.0023
2462.00,-0.0023
2460.00,-0.0023
2458.00,-0.0023
2456.00,-0.0023
2454.00,-0.0023
2452.00,-0.0023
2450.00,-0.0023
2448.00,-0.0023
2446.00,-0.0023
2444.00,-0.0023
2442.00,-0.0023
2440.00,-0.0023
2438.00,-0.0023
2436.00,-0.0023
2434.00,-0.0023
2432.00,-0.0023
2430.00,-0.0023
2428.00,-0.0024
2426.00,-0.0024
2424.00,-0.0024
2422.00,-0.0023
2420.00,-0.0023
2418.00,-0.0023
2416.00,-0.0023
2414.00,-0.0023
2412.00,-0.0023
2410.00,-0.0023
2408.00,-0.0023
2406.00,-0.0023
2404.00,-0.0023
2402.00,-0.0023
2400.00,-0.0023
2398.00,-0.0023
2396.00,-0.0023
2394.00,-0.0023
2392.00,-0.0023
2390.00,-0.0023
2388.00,-0.0024
2386.00,-0.0024
2384.00,-0.0024
2382.00,-0.0024
2380.00,-0.0024
2378.00,-0.0023
2376.00,-0.0023
2374.00,-0.0023
2372.00,-0.0024
2370.00,-0.0024
2368.00,-0.0023
2366.00,-0.0023
2364.00,-0.0023
2362.00,-0.0024
2360.00,-0.0025
2358.00,-0.0025
2356.00,-0.0024
2354.00,-0.0023
2352.00,-0.0022
2350.00,-0.0023
2348.00,-0.0025
2346.00,-0.0024
2344.00,-0.0024
2342.00,-0.0025
2340.00,-0.0025
2338.00,-0.0024
2336.00,-0.0024
2334.00,-0.0024
2332.00,-0.0024
2330.00,-0.0024
2328.00,-0.0024
2326.00,-0.0025
2324.00,-0.0025
2322.00,-0.0025
2320.00,-0.0025
2318.00,-0.0025
2316.00,-0.0025
2314.00,-0.0025
2312.00,-0.0024
2310.00,-0.0025
2308.00,-0.0025
2306.00,-0.0024
2304.00,-0.0024
2302.00,-0.0024
2300.00,-0.0024
2298.00,-0.0024
2296.00,-0.0024
2294.00,-0.0024
2292.00,-0.0024
2290.00,-0.0024
2288.00,-0.0023
2286.00,-0.0023
2284.00,-0.0023
2282.00,-0.0023
2280.00,-0.0023
2278.00,-0.0023
2276.00,-0.0023
2274.00,-0.0023
2272.00,-0.0023
2270.00,-0.0023
2268.00,-0.0023
2266.00,-0.0023
2264.00,-0.0023
2262.00,-0.0023
2260.00,-0.0023
2258.00,-0.0023
2256.00,-0.0023
2254.00,-0.0023
2252.00,-0.0023
2250.00,-0.0023
2248.00,-0.0023
2246.00,-0.0023
2244.00,-0.0023
2242.00,-0.0023
2240.00,-0.0023
2238.00,-0.0023
2236.00,-0.0023
2234.00,-0.0023
2232.00,-0.0023
2230.00,-0.0023
2228.00,-0.0023
2226.00,-0.0023
2224.00,-0.0023
2222.00,-0.0023
2220.00,-0.0023
2218.00,-0.0023
2216.00,-0.0023
2214.00,-0.0023
2212.00,-0.0023
2210.00,-0.0023
2208.00,-0.0023
2206.00,-0.0023
2204.00,-0.0023
2202.00,-0.0023
2200.00,-0.0023
2198.00,-0.0023
2196.00,-0.0023
2194.00,-0.0023
2192.00,-0.0023
2190.00,-0.0023
2188.00,-0.0023
2186.00,-0.0023
2184.00,-0.0023
2182.00,-0.0023
2180.00,-0.0023
2178.00,-0.0023
2176.00,-0.0023
2174.00,-0.0023
2172.00,-0.0023
2170.00,-0.0023
2168.00,-0.0023
2166.00,-0.0023
2164.00,-0.0023
2162.00,-0.0023
2160.00,-0.0023
2158.00,-0.0023
2156.00,-0.0023
2154.00,-0.0023
2152.00,-0.0023
2150.00,-0.0023
2148.00,-0.0023
2146.00,-0.0023
2144.00,-0.0023
2142.00,-0.0023
2140.00,-0.0023
2138.00,-0.0023
2136.00,-0.0023
2134.00,-0.0023
2132.00,-0.0023
2130.00,-0.0023
2128.00,-0.0023
2126.00,-0.0023
2124.00,-0.0023
2122.00,-0.0023
2120.00,-0.0023
2118.00,-0.0023
2116.00,-0.0023
2114.00,-0.0023
2112.00,-0.0023
2110.00,-0.0023
2108.00,-0.0023
2106.00,-0.0023
2104.00,-0.0023
2102.00,-0.0023
2100.00,-0.0023
2098.00,-0.0023
2096.00,-0.0023
2094.00,-0.0023
2092.00,-0.0023
2090.00,-0.0023
2088.00,-0.0023
2086.00,-0.0023
2084.00,-0.0023
2082.00,-0.0023
2080.00,-0.0023
2078.00,-0.0023
2076.00,-0.0023
2074.00,-0.0023
2072.00,-0.0023
2070.00,-0.0022
2068.00,-0.0022
2066.00,-0.0022
2064.00,-0.0023
2062.00,-0.0023
2060.00,-0.0023
2058.00,-0.0023
2056.00,-0.0023
2054.00,-0.0023
2052.00,-0.0023
2050.00,-0.0023
2048.00,-0.0023
2046.00,-0.0023
2044.00,-0.0023
2042.00,-0.0023
2040.00,-0.0022
2038.00,-0.0022
2036.00,-0.0022
2034.00,-0.0022
2032.00,-0.0022
2030.00,-0.0023
2028.00,-0.0023
2026.00,-0.0023
2024.00,-0.0023
2022.00,-0.0022
2020.00,-0.0022
2018.00,-0.0022
2016.00,-0.0022
2014.00,-0.0022
2012.00,-0.0022
2010.00,-0.0022
2008.00,-0.0022
2006.00,-0.0022
2004.00,-0.0022
2002.00,-0.0022
2000.00,-0.0022
1998.00,-0.0022
1996.00,-0.0022
1994.00,-0.0022
1992.00,-0.0023
1990.00,-0.0022
1988.00,-0.0022
1986.00,-0.0022
1984.00,-0.0022
1982.00,-0.0022
1980.00,-0.0022
1978.00,-0.0022
1976.00,-0.0022
1974.00,-0.0022
1972.00,-0.0022
1970.00,-0.0022
1968.00,-0.0022
1966.00,-0.0022
1964.00,-0.0022
1962.00,-0.0022
1960.00,-0.0023
1958.00,-0.0022
1956.00,-0.0022
1954.00,-0.0022
1952.00,-0.0022
1950.00,-0.0022
1948.00,-0.0022
1946.00,-0.0022
1944.00,-0.0022
1942.00,-0.0022
1940.00,-0.0022
1938.00,-0.0022
1936.00,-0.0022
1934.00,-0.0022
1932.00,-0.0022
1930.00,-0.0022
1928.00,-0.0022
1926.00,-0.0022
1924.00,-0.0022
1922.00,-0.0022
1920.00,-0.0022
1918.00,-0.0022
1916.00,-0.0022
1914.00,-0.0022
1912.00,-0.0022
1910.00,-0.0022
1908.00,-0.0022
1906.00,-0.0022
1904.00,-0.0022
1902.00,-0.0022
1900.00,-0.0022
1898.00,-0.0022
1896.00,-0.0023
1894.00,-0.0022
1892.00,-0.0022
1890.00,-0.0022
1888.00,-0.0022
1886.00,-0.0022
1884.00,-0.0022
1882.00,-0.0022
1880.00,-0.0022
1878.00,-0.0022
1876.00,-0.0022
1874.00,-0.0022
1872.00,-0.0022
1870.00,-0.0022
1868.00,-0.0022
1866.00,-0.0022
1864.00,-0.0022
1862.00,-0.0022
1860.00,-0.0022
1858.00,-0.0022
1856.00,-0.0022
1854.00,-0.0022
1852.00,-0.0022
1850.00,-0.0022
1848.00,-0.0022
1846.00,-0.0022
1844.00,-0.0022
1842.00,-0.0022
1840.00,-0.0022
1838.00,-0.0022
1836.00,-0.0022
1834.00,-0.0022
1832.00,-0.0022
1830.00,-0.0023
1828.00,-0.0022
1826.00,-0.0022
1824.00,-0.0022
1822.00,-0.0022
1820.00,-0.0022
1818.00,-0.0022
1816.00,-0.0022
1814.00,-0.0022
1812.00,-0.0022
1810.00,-0.0022
1808.00,-0.0022
1806.00,-0.0022
1804.00,-0.0022
1802.00,-0.0022
1800.00,-0.0022
1798.00,-0.0022
1796.00,-0.0024
1794.00,-0.0029
1792.00,-0.0032
1790.00,-0.0026
1788.00,-0.0022
1786.00,-0.0022
1784.00,-0.0021
1782.00,-0.0020
1780.00,-0.0021
1778.00,-0.0022
1776.00,-0.0022
1774.00,-0.0022
1772.00,-0.0022
1770.00,-0.0022
1768.00,-0.0021
1766.00,-0.0022
1764.00,-0.0022
1762.00,-0.0022
1760.00,-0.0022
1758.00,-0.0022
1756.00,-0.0022
1754.00,-0.0021
1752.00,-0.0020
1750.00,-0.0021
1748.00,-0.0021
1746.00,-0.0021
1744.00,-0.0021
1742.00,-0.0022
1740.00,-0.0022
1738.00,-0.0022
1736.00,-0.0021
1734.00,-0.0021
1732.00,-0.0021
1730.00,-0.0021
1728.00,-0.0022
1726.00,-0.0022
1724.00,-0.0022
1722.00,-0.0022
1720.00,-0.0022
1718.00,-0.0021
1716.00,-0.0021
1714.00,-0.0021
1712.00,-0.0022
1710.00,-0.0022
1708.00,-0.0022
1706.00,-0.0022
1704.00,-0.0022
1702.00,-0.0022
1700.00,-0.0022
1698.00,-0.0021
1696.00,-0.0021
1694.00,-0.0021
1692.00,-0.0021
1690.00,-0.0021
1688.00,-0.0022
1686.00,-0.0022
1684.00,-0.0022
1682.00,-0.0022
1680.00,-0.0022
1678.00,-0.0022
1676.00,-0.0022
1674.00,-0.0022
1672.00,-0.0021
1670.00,-0.0022
1668.00,-0.0022
1666.00,-0.0022
1664.00,-0.0022
1662.00,-0.0022
1660.00,-0.0022
1658.00,-0.0022
1656.00,-0.0023
1654.00,-0.0023
1652.00,-0.0023
1650.00,-0.0021
1648.00,-0.0021
1646.00,-0.0022
1644.00,-0.0022
1642.00,-0.0022
1640.00,-0.0022
1638.00,-0.0022
1636.00,-0.0022
1634.00,-0.0022
1632.00,-0.0022
1630.00,-0.0022
1628.00,-0.0022
1626.00,-0.0022
1624.00,-0.0022
1622.00,-0.0022
1620.00,-0.0022
1618.00,-0.0023
1616.00,-0.0022
1614.00,-0.0022
1612.00,-0.0022
1610.00,-0.0022
1608.00,-0.0022
1606.00,-0.0022
1604.00,-0.0022
1602.00,-0.0022
1600.00,-0.0022
1598.00,-0.0022
1596.00,-0.0022
1594.00,-0.0022
1592.00,-0.0022
1590.00,-0.0022
1588.00,-0.0022
1586.00,-0.0022
1584.00,-0.0022
1582.00,-0.0022
1580.00,-0.0022
1578.00,-0.0022
1576.00,-0.0022
1574.00,-0.0022
1572.00,-0.0022
1570.00,-0.0022
1568.00,-0.0022
1566.00,-0.0021
1564.00,-0.0022
1562.00,-0.0022
1560.00,-0.0022
1558.00,-0.0021
1556.00,-0.0021
1554.00,-0.0021
1552.00,-0.0021
1550.00,-0.0021
1548.00,-0.0021
1546.00,-0.0021
1544.00,-0.0021
1542.00,-0.0021
1540.00,-0.0021
1538.00,-0.0021
1536.00,-0.0021
1534.00,-0.0021
1532.00,-0.0021
1530.00,-0.0021
1528.00,-0.0021
1526.00,-0.0021
1524.00,-0.0021
1522.00,-0.0020
1520.00,-0.0021
1518.00,-0.0021
1516.00,-0.0021
1514.00,-0.0021
1512.00,-0.0021
1510.00,-0.0021
1508.00,-0.0021
1506.00,-0.0021
1504.00,-0.0021
1502.00,-0.0021
1500.00,-0.0022
1498.00,-0.0022
1496.00,-0.0021
1494.00,-0.0021
1492.00,-0.0021
1490.00,-0.0021
1488.00,-0.0021
1486.00,-0.0021
1484.00,-0.0021
1482.00,-0.0021
1480.00,-0.0021
1478.00,-0.0021
1476.00,-0.0021
1474.00,-0.0020
1472.00,-0.0021
1470.00,-0.0021
1468.00,-0.0021
1466.00,-0.0022
1464.00,-0.0021
1462.00,-0.0021
1460.00,-0.0021
1458.00,-0.0021
1456.00,-0.0021
1454.00,-0.0021
1452.00,-0.0021
1450.00,-0.0021
1448.00,-0.0021
1446.00,-0.0021
1444.00,-0.0021
1442.00,-0.0022
1440.00,-0.0021
1438.00,-0.0021
1436.00,-0.0021
1434.00,-0.0021
1432.00,-0.0021
1430.00,-0.0022
1428.00,-0.0022
1426.00,-0.0022
1424.00,-0.0021
1422.00,-0.0021
1420.00,-0.0021
1418.00,-0.0022
1416.00,-0.0021
1414.00,-0.0022
1412.00,-0.0022
1410.00,-0.0022
1408.00,-0.0022
1406.00,-0.0022
1404.00,-0.0022
1402.00,-0.0022
1400.00,-0.0021
1398.00,-0.0021
1396.00,-0.0021
1394.00,-0.0022
1392.00,-0.0022
1390.00,-0.0022
1388.00,-0.0022
1386.00,-0.0022
1384.00,-0.0022
1382.00,-0.0022
1380.00,-0.0022
1378.00,-0.0021
1376.00,-0.0021
1374.00,-0.0022
1372.00,-0.0022
1370.00,-0.0022
1368.00,-0.0022
1366.00,-0.0022
1364.00,-0.0022
1362.00,-0.0022
1360.00,-0.0022
1358.00,-0.0022
1356.00,-0.0022
1354.00,-0.0022
1352.00,-0.0022
1350.00,-0.0022
1348.00,-0.0022
1346.00,-0.0022
1344.00,-0.0022
1342.00,-0.0022
1340.00,-0.0022
1338.00,-0.0022
1336.00,-0.0022
1334.00,-0.0022
1332.00,-0.0022
1330.00,-0.0022
1328.00,-0.0022
1326.00,-0.0022
1324.00,-0.0022
1322.00,-0.0022
1320.00,-0.0022
1318.00,-0.0022
1316.00,-0.0022
1314.00,-0.0022
1312.00,-0.0022
1310.00,-0.0022
1308.00,-0.0022
1306.00,-0.0022
1304.00,-0.0022
1302.00,-0.0022
1300.00,-0.0022
1298.00,-0.0022
1296.00,-0.0022
1294.00,-0.0022
1292.00,-0.0022
1290.00,-0.0022
1288.00,-0.0022
1286.00,-0.0022
1284.00,-0.0022
1282.00,-0.0022
1280.00,-0.0022
1278.00,-0.0022
1276.00,-0.0022
1274.00,-0.0022
1272.00,-0.0022
1270.00,-0.0022
1268.00,-0.0022
1266.00,-0.0022
1264.00,-0.0023
1262.00,-0.0023
1260.00,-0.0023
1258.00,-0.0023
1256.00,-0.0023
1254.00,-0.0023
1252.00,-0.0023
1250.00,-0.0023
1248.00,-0.0023
1246.00,-0.0023
1244.00,-0.0023
1242.00,-0.0023
1240.00,-0.0023
1238.00,-0.0023
1236.00,-0.0023
1234.00,-0.0022
1232.00,-0.0022
1230.00,-0.0022
1228.00,-0.0022
1226.00,-0.0022
1224.00,-0.0022
1222.00,-0.0022
1220.00,-0.0022
1218.00,-0.0022
1216.00,-0.0022
1214.00,-0.0022
1212.00,-0.0022
1210.00,-0.0023
1208.00,-0.0022
1206.00,-0.0022
1204.00,-0.0023
1202.00,-0.0023
1200.00,-0.0023
1198.00,-0.0023
1196.00,-0.0023
1194.00,-0.0023
1192.00,-0.0023
1190.00,-0.0023
1188.00,-0.0023
1186.00,-0.0023
1184.00,-0.0023
1182.00,-0.0023
1180.00,-0.0023
1178.00,-0.0023
1176.00,-0.0023
1174.00,-0.0023
1172.00,-0.0023
1170.00,-0.0023
1168.00,-0.0022
1166.00,-0.0023
1164.00,-0.0023
1162.00,-0.0023
1160.00,-0.0023
1158.00,-0.0023
1156.00,-0.0023
1154.00,-0.0023
1152.00,-0.0023
1150.00,-0.0023
1148.00,-0.0023
1146.00,-0.0023
1144.00,-0.0023
1142.00,-0.0023
1140.00,-0.0023
1138.00,-0.0023
1136.00,-0.0023
1134.00,-0.0023
1132.00,-0.0023
1130.00,-0.0023
1128.00,-0.0023
1126.00,-0.0023
1124.00,-0.0023
1122.00,-0.0023
1120.00,-0.0023
1118.00,-0.0023
1116.00,-0.0023
1114.00,-0.0023
1112.00,-0.0023
1110.00,-0.0023
1108.00,-0.0023
1106.00,-0.0023
1104.00,-0.0023
1102.00,-0.0023
1100.00,-0.0023
1098.00,-0.0023
1096.00,-0.0023
1094.00,-0.0023
1092.00,-0.0023
1090.00,-0.0023
1088.00,-0.0023
1086.00,-0.0023
1084.00,-0.0023
1082.00,-0.0023
1080.00,-0.0023
1078.00,-0.0023
1076.00,-0.0023
1074.00,-0.0022
1072.00,-0.0022
1070.00,-0.0022
1068.00,-0.0022
1066.00,-0.0022
1064.00,-0.0022
1062.00,-0.0022
1060.00,-0.0022
1058.00,-0.0022
1056.00,-0.0022
1054.00,-0.0022
1052.00,-0.0022
1050.00,-0.0022
1048.00,-0.0022
1046.00,-0.0022
1044.00,-0.0022
1042.00,-0.0022
1040.00,-0.0022
1038.00,-0.0022
1036.00,-0.0022
1034.00,-0.0022
1032.00,-0.0022
1030.00,-0.0022
1028.00,-0.0022
1026.00,-0.0022
1024.00,-0.0022
1022.00,-0.0022
1020.00,-0.0022
1018.00,-0.0022
1016.00,-0.0022
1014.00,-0.0022
1012.00,-0.0022
1010.00,-0.0022
1008.00,-0.0021
1006.00,-0.0021
1004.00,-0.0022
1002.00,-0.0022
1000.00,-0.0022
998.00,-0.0022
996.00,-0.0022
994.00,-0.0022
992.00,-0.0022
990.00,-0.0022
988.00,-0.0022
986.00,-0.0022
984.00,-0.0022
982.00,-0.0022
980.00,-0.0022
978.00,-0.0022
976.00,-0.0022
974.00,-0.0022
972.00,-0.0023
970.00,-0.0022
968.00,-0.0022
966.00,-0.0023
964.00,-0.0023
962.00,-0.0023
960.00,-0.0023
958.00,-0.0023
956.00,-0.0023
954.00,-0.0023
952.00,-0.0023
950.00,-0.0023
948.00,-0.0023
946.00,-0.0023
944.00,-0.0023
942.00,-0.0024
940.00,-0.0023
938.00,-0.0023
936.00,-0.0024
934.00,-0.0024
932.00,-0.0024
930.00,-0.0024
928.00,-0.0024
926.00,-0.0024
924.00,-0.0024
922.00,-0.0024
920.00,-0.0024
918.00,-0.0024
916.00,-0.0024
914.00,-0.0024
912.00,-0.0024
910.00,-0.0024
908.00,-0.0024
906.00,-0.0024
904.00,-0.0024
902.00,-0.0024
900.00,-0.0024
898.00,-0.0024
896.00,-0.0024
894.00,-0.0023
892.00,-0.0023
890.00,-0.0024
888.00,-0.0024
886.00,-0.0024
884.00,-0.0024
882.00,-0.0024
880.00,-0.0024
878.00,-0.0024
876.00,-0.0023
874.00,-0.0023
872.00,-0.0023
870.00,-0.0023
868.00,-0.0023
866.00,-0.0024
864.00,-0.0024
862.00,-0.0024
860.00,-0.0024
858.00,-0.0024
856.00,-0.0024
854.00,-0.0024
852.00,-0.0024
850.00,-0.0024
848.00,-0.0024
846.00,-0.0024
844.00,-0.0024
842.00,-0.0024
840.00,-0.0024
838.00,-0.0024
836.00,-0.0024
834.00,-0.0024
832.00,-0.0024
830.00,-0.0024
828.00,-0.0024
826.00,-0.0024
824.00,-0.0024
822.00,-0.0024
820.00,-0.0023
818.00,-0.0023
816.00,-0.0024
814.00,-0.0024
812.00,-0.0024
810.00,-0.0024
808.00,-0.0024
806.00,-0.0024
804.00,-0.0024
802.00,-0.0024
800.00,-0.0024
798.00,-0.0024
796.00,-0.0024
794.00,-0.0024
792.00,-0.0024
790.00,-0.0024
788.00,-0.0024
786.00,-0.0023
784.00,-0.0023
782.00,-0.0024
780.00,-0.0024
778.00,-0.0024
776.00,-0.0023
774.00,-0.0024
772.00,-0.0024
770.00,-0.0024
768.00,-0.0024
766.00,-0.0024
764.00,-0.0024
762.00,-0.0024
760.00,-0.0024
758.00,-0.0024
756.00,-0.0024
754.00,-0.0023
752.00,-0.0023
750.00,-0.0023
748.00,-0.0024
746.00,-0.0024
744.00,-0.0024
742.00,-0.0023
740.00,-0.0023
738.00,-0.0023
736.00,-0.0024
734.00,-0.0024
732.00,-0.0024
730.00,-0.0024
728.00,-0.0024
726.00,-0.0024
724.00,-0.0023
722.00,-0.0023
720.00,-0.0023
718.00,-0.0024
716.00,-0.0024
714.00,-0.0024
712.00,-0.0024
710.00,-0.0023
708.00,-0.0023
706.00,-0.0023
704.00,-0.0023
702.00,-0.0024
700.00,-0.0024
698.00,-0.0024
696.00,-0.0024
694.00,-0.0023
692.00,-0.0023
690.00,-0.0024
688.00,-0.0024
686.00,-0.0023
684.00,-0.0023
682.00,-0.0024
680.00,-0.0024
678.00,-0.0024
676.00,-0.0024
674.00,-0.0024
672.00,-0.0022
670.00,-0.0015
668.00,-0.0003
666.00,-0.0013
664.00,-0.0022
662.00,-0.0024
660.00,-0.0023
658.00,-0.0023
656.00,-0.0024
654.00,-0.0023
652.00,-0.0023
650.00,-0.0023
648.00,-0.0024
646.00,-0.0024
644.00,-0.0024
642.00,-0.0024
640.00,-0.0024
638.00,-0.0024
636.00,-0.0024
634.00,-0.0024
632.00,-0.0024
630.00,-0.0024
628.00,-0.0024
626.00,-0.0024
624.00,-0.0023
622.00,-0.0023
620.00,-0.0024
618.00,-0.0024
616.00,-0.0024
614.00,-0.0024
612.00,-0.0024
610.00,-0.0024
608.00,-0.0024
606.00,-0.0024
604.00,-0.0024
602.00,-0.0024
600.00,-0.0024
598.00,-0.0023
596.00,-0.0023
594.00,-0.0023
592.00,-0.0024
590.00,-0.0024
588.00,-0.0024
586.00,-0.0024
584.00,-0.0024
582.00,-0.0023
580.00,-0.0024
578.00,-0.0025
576.00,-0.0025
574.00,-0.0024
572.00,-0.0024
570.00,-0.0025
568.00,-0.0024
566.00,-0.0024
564.00,-0.0024
562.00,-0.0023
560.00,-0.0023
558.00,-0.0023
556.00,-0.0023
554.00,-0.0024
552.00,-0.0024
550.00,-0.0023
548.00,-0.0022
546.00,-0.0023
544.00,-0.0023
542.00,-0.0023
540.00,-0.0023
538.00,-0.0023
536.00,-0.0022
534.00,-0.0023
532.00,-0.0023
530.00,-0.0023
528.00,-0.0023
526.00,-0.0023
524.00,-0.0023
522.00,-0.0024
520.00,-0.0024
518.00,-0.0024
516.00,-0.0024
514.00,-0.0024
512.00,-0.0024
510.00,-0.0024
508.00,-0.0024
506.00,-0.0024
504.00,-0.0024
502.00,-0.0024
500.00,-0.0024
