3996.73391,0.00077
3994.67373,0.00021
3992.61356,0.00000
3990.55339,0.00013
3988.49322,0.00036
3986.43305,0.00065
3984.37287,0.00092
3982.31270,0.00096
3980.25253,0.00076
3978.19236,0.00064
3976.13219,0.00062
3974.07201,0.00051
3972.01184,0.00047
3969.95167,0.00061
3967.89150,0.00056
3965.83133,0.00029
3963.77115,0.00033
3961.71098,0.00065
3959.65081,0.00075
3957.59064,0.00063
3955.53046,0.00053
3953.47029,0.00043
3951.41012,0.00044
3949.34995,0.00064
3947.28978,0.00088
3945.22960,0.00107
3943.16943,0.00111
3941.10926,0.00101
3939.04909,0.00100
3936.98892,0.00101
3934.92874,0.00088
3932.86857,0.00071
3930.80840,0.00064
3928.74823,0.00058
3926.68805,0.00046
3924.62788,0.00037
3922.56771,0.00031
3920.50754,0.00035
3918.44737,0.00065
3916.38719,0.00094
3914.32702,0.00092
3912.26685,0.00076
3910.20668,0.00070
3908.14651,0.00072
3906.08633,0.00073
3904.02616,0.00063
3901.96599,0.00045
3899.90582,0.00028
3897.84565,0.00021
3895.78547,0.00031
3893.72530,0.00056
3891.66513,0.00077
3889.60496,0.00085
3887.54478,0.00095
3885.48461,0.00104
3883.42444,0.00092
3881.36427,0.00056
3879.30410,0.00028
3877.24392,0.00039
3875.18375,0.00069
3873.12358,0.00078
3871.06341,0.00073
3869.00324,0.00083
3866.94306,0.00096
3864.88289,0.00074
3862.82272,0.00036
3860.76255,0.00038
3858.70237,0.00058
3856.64220,0.00071
3854.58203,0.00087
3852.52186,0.00095
3850.46169,0.00091
3848.40151,0.00100
3846.34134,0.00100
3844.28117,0.00079
3842.22100,0.00048
3840.16083,0.00019
3838.10065,0.00025
3836.04048,0.00066
3833.98031,0.00080
3831.92014,0.00043
3829.85997,0.00001
3827.79979,0.00000
3825.73962,0.00039
3823.67945,0.00085
3821.61928,0.00105
3819.55910,0.00091
3817.49893,0.00062
3815.43876,0.00043
3813.37859,0.00045
3811.31842,0.00042
3809.25824,0.00026
3807.19807,0.00025
3805.13790,0.00049
3803.07773,0.00074
3801.01756,0.00088
3798.95738,0.00094
3796.89721,0.00103
3794.83704,0.00102
3792.77687,0.00097
3790.71670,0.00116
3788.65652,0.00141
3786.59635,0.00131
3784.53618,0.00099
3782.47601,0.00071
3780.41583,0.00062
3778.35566,0.00074
3776.29549,0.00097
3774.23532,0.00119
3772.17515,0.00143
3770.11497,0.00153
3768.05480,0.00132
3765.99463,0.00104
3763.93446,0.00094
3761.87429,0.00096
3759.81411,0.00108
3757.75394,0.00117
3755.69377,0.00112
3753.63360,0.00103
3751.57342,0.00099
3749.51325,0.00091
3747.45308,0.00073
3745.39291,0.00057
3743.33274,0.00068
3741.27256,0.00088
3739.21239,0.00101
3737.15222,0.00130
3735.09205,0.00127
3733.03188,0.00055
3730.97170,0.00023
3728.91153,0.00062
3726.85136,0.00104
3724.79119,0.00128
3722.73102,0.00143
3720.67084,0.00138
3718.61067,0.00116
3716.55050,0.00085
3714.49033,0.00041
3712.43015,0.00003
3710.36998,0.00024
3708.30981,0.00091
3706.24964,0.00120
3704.18947,0.00112
3702.12929,0.00126
3700.06912,0.00160
3698.00895,0.00151
3695.94878,0.00100
3693.88861,0.00075
3691.82843,0.00090
3689.76826,0.00136
3687.70809,0.00203
3685.64792,0.00247
3683.58775,0.00248
3681.52757,0.00209
3679.46740,0.00135
3677.40723,0.00077
3675.34706,0.00097
3673.28688,0.00153
3671.22671,0.00170
3669.16654,0.00169
3667.10637,0.00177
3665.04620,0.00180
3662.98602,0.00189
3660.92585,0.00223
3658.86568,0.00257
3656.80551,0.00274
3654.74534,0.00292
3652.68516,0.00311
3650.62499,0.00330
3648.56482,0.00359
3646.50465,0.00379
3644.44447,0.00407
3642.38430,0.00461
3640.32413,0.00511
3638.26396,0.00535
3636.20379,0.00547
3634.14361,0.00575
3632.08344,0.00608
3630.02327,0.00639
3627.96310,0.00695
3625.90293,0.00757
3623.84275,0.00786
3621.78258,0.00782
3619.72241,0.00740
3617.66224,0.00700
3615.60207,0.00723
3613.54189,0.00779
3611.48172,0.00841
3609.42155,0.00898
3607.36138,0.00931
3605.30120,0.00966
3603.24103,0.01031
3601.18086,0.01088
3599.12069,0.01109
3597.06052,0.01111
3595.00034,0.01119
3592.94017,0.01166
3590.88000,0.01222
3588.81983,0.01243
3586.75966,0.01265
3584.69948,0.01322
3582.63931,0.01358
3580.57914,0.01364
3578.51897,0.01400
3576.45879,0.01460
3574.39862,0.01486
3572.33845,0.01488
3570.27828,0.01508
3568.21811,0.01542
3566.15793,0.01566
3564.09776,0.01591
3562.03759,0.01630
3559.97742,0.01653
3557.91725,0.01654
3555.85707,0.01667
3553.79690,0.01706
3551.73673,0.01761
3549.67656,0.01807
3547.61639,0.01817
3545.55621,0.01809
3543.49604,0.01839
3541.43587,0.01909
3539.37570,0.01972
3537.31552,0.02007
3535.25535,0.02026
3533.19518,0.02048
3531.13501,0.02077
3529.07484,0.02110
3527.01466,0.02147
3524.95449,0.02172
3522.89432,0.02194
3520.83415,0.02224
3518.77398,0.02231
3516.71380,0.02234
3514.65363,0.02284
3512.59346,0.02354
3510.53329,0.02388
3508.47312,0.02396
3506.41294,0.02422
3504.35277,0.02473
3502.29260,0.02521
3500.23243,0.02552
3498.17225,0.02560
3496.11208,0.02559
3494.05191,0.02557
3491.99174,0.02554
3489.93157,0.02573
3487.87139,0.02622
3485.81122,0.02682
3483.75105,0.02735
3481.69088,0.02779
3479.63071,0.02800
3477.57053,0.02794
3475.51036,0.02795
3473.45019,0.02831
3471.39002,0.02882
3469.32984,0.02909
3467.26967,0.02912
3465.20950,0.02921
3463.14933,0.02929
3461.08916,0.02931
3459.02898,0.02958
3456.96881,0.02996
3454.90864,0.03008
3452.84847,0.03020
3450.78830,0.03059
3448.72812,0.03098
3446.66795,0.03112
3444.60778,0.03100
3442.54761,0.03089
3440.48744,0.03103
3438.42726,0.03127
3436.36709,0.03161
3434.30692,0.03213
3432.24675,0.03245
3430.18657,0.03238
3428.12640,0.03240
3426.06623,0.03281
3424.00606,0.03335
3421.94589,0.03364
3419.88571,0.03345
3417.82554,0.03319
3415.76537,0.03333
3413.70520,0.03365
3411.64503,0.03382
3409.58485,0.03383
3407.52468,0.03389
3405.46451,0.03404
3403.40434,0.03424
3401.34416,0.03447
3399.28399,0.03464
3397.22382,0.03479
3395.16365,0.03513
3393.10348,0.03540
3391.04330,0.03535
3388.98313,0.03539
3386.92296,0.03577
3384.86279,0.03610
3382.80262,0.03621
3380.74244,0.03614
3378.68227,0.03617
3376.62210,0.03655
3374.56193,0.03687
3372.50176,0.03688
3370.44158,0.03701
3368.38141,0.03729
3366.32124,0.03713
3364.26107,0.03668
3362.20089,0.03654
3360.14072,0.03664
3358.08055,0.03673
3356.02038,0.03681
3353.96021,0.03679
3351.90003,0.03687
3349.83986,0.03716
3347.77969,0.03740
3345.71952,0.03750
3343.65935,0.03762
3341.59917,0.03774
3339.53900,0.03783
3337.47883,0.03773
3335.41866,0.03734
3333.35849,0.03723
3331.29831,0.03755
3329.23814,0.03777
3327.17797,0.03773
3325.11780,0.03752
3323.05762,0.03729
3320.99745,0.03737
3318.93728,0.03767
3316.87711,0.03782
3314.81694,0.03785
3312.75676,0.03792
3310.69659,0.03806
3308.63642,0.03827
3306.57625,0.03838
3304.51608,0.03831
3302.45590,0.03807
3300.39573,0.03781
3298.33556,0.03776
3296.27539,0.03809
3294.21521,0.03861
3292.15504,0.03873
3290.09487,0.03852
3288.03470,0.03854
3285.97453,0.03860
3283.91435,0.03842
3281.85418,0.03830
3279.79401,0.03848
3277.73384,0.03874
3275.67367,0.03869
3273.61349,0.03853
3271.55332,0.03875
3269.49315,0.03899
3267.43298,0.03874
3265.37281,0.03837
3263.31263,0.03842
3261.25246,0.03867
3259.19229,0.03869
3257.13212,0.03858
3255.07194,0.03835
3253.01177,0.03802
3250.95160,0.03812
3248.89143,0.03858
3246.83126,0.03881
3244.77108,0.03870
3242.71091,0.03842
3240.65074,0.03822
3238.59057,0.03833
3236.53040,0.03862
3234.47022,0.03903
3232.41005,0.03942
3230.34988,0.03942
3228.28971,0.03899
3226.22954,0.03848
3224.16936,0.03826
3222.10919,0.03850
3220.04902,0.03896
3217.98885,0.03923
3215.92867,0.03915
3213.86850,0.03894
3211.80833,0.03866
3209.74816,0.03824
3207.68799,0.03796
3205.62781,0.03806
3203.56764,0.03822
3201.50747,0.03821
3199.44730,0.03822
3197.38713,0.03828
3195.32695,0.03819
3193.26678,0.03801
3191.20661,0.03793
3189.14644,0.03795
3187.08626,0.03798
3185.02609,0.03795
3182.96592,0.03788
3180.90575,0.03770
3178.84558,0.03733
3176.78540,0.03701
3174.72523,0.03689
3172.66506,0.03672
3170.60489,0.03648
3168.54472,0.03637
3166.48454,0.03631
3164.42437,0.03639
3162.36420,0.03670
3160.30403,0.03687
3158.24386,0.03669
3156.18368,0.03637
3154.12351,0.03600
3152.06334,0.03560
3150.00317,0.03521
3147.94299,0.03496
3145.88282,0.03503
3143.82265,0.03528
3141.76248,0.03519
3139.70231,0.03483
3137.64213,0.03463
3135.58196,0.03467
3133.52179,0.03472
3131.46162,0.03472
3129.40145,0.03469
3127.34127,0.03450
3125.28110,0.03436
3123.22093,0.03437
3121.16076,0.03422
3119.10058,0.03388
3117.04041,0.03362
3114.98024,0.03356
3112.92007,0.03357
3110.85990,0.03359
3108.79972,0.03348
3106.73955,0.03322
3104.67938,0.03286
3102.61921,0.03243
3100.55904,0.03213
3098.49886,0.03207
3096.43869,0.03205
3094.37852,0.03204
3092.31835,0.03204
3090.25818,0.03208
3088.19800,0.03207
3086.13783,0.03175
3084.07766,0.03129
3082.01749,0.03097
3079.95731,0.03071
3077.89714,0.03059
3075.83697,0.03054
3073.77680,0.03047
3071.71663,0.03054
3069.65645,0.03056
3067.59628,0.03025
3065.53611,0.02982
3063.47594,0.02970
3061.41577,0.02984
3059.35559,0.02968
3057.29542,0.02920
3055.23525,0.02895
3053.17508,0.02906
3051.11491,0.02914
3049.05473,0.02893
3046.99456,0.02874
3044.93439,0.02859
3042.87422,0.02824
3040.81404,0.02787
3038.75387,0.02773
3036.69370,0.02773
3034.63353,0.02750
3032.57336,0.02695
3030.51318,0.02657
3028.45301,0.02659
3026.39284,0.02673
3024.33267,0.02677
3022.27250,0.02659
3020.21232,0.02627
3018.15215,0.02609
3016.09198,0.02597
3014.03181,0.02576
3011.97163,0.02558
3009.91146,0.02549
3007.85129,0.02545
3005.79112,0.02532
3003.73095,0.02516
3001.67077,0.02507
2999.61060,0.02482
2997.55043,0.02441
2995.49026,0.02417
2993.43009,0.02408
2991.36991,0.02403
2989.30974,0.02399
2987.24957,0.02387
2985.18940,0.02377
2983.12923,0.02370
2981.06905,0.02352
2979.00888,0.02323
2976.94871,0.02294
2974.88854,0.02287
2972.82836,0.02302
2970.76819,0.02308
2968.70802,0.02300
2966.64785,0.02303
2964.58768,0.02295
2962.52750,0.02263
2960.46733,0.02232
2958.40716,0.02219
2956.34699,0.02240
2954.28682,0.02280
2952.22664,0.02302
2950.16647,0.02312
2948.10630,0.02325
2946.04613,0.02314
2943.98596,0.02277
2941.92578,0.02251
2939.86561,0.02244
2937.80544,0.02244
2935.74527,0.02244
2933.68509,0.02248
2931.62492,0.02238
2929.56475,0.02200
2927.50458,0.02166
2925.44441,0.02149
2923.38423,0.02125
2921.32406,0.02106
2919.26389,0.02117
2917.20372,0.02132
2915.14355,0.02120
2913.08337,0.02093
2911.02320,0.02078
2908.96303,0.02073
2906.90286,0.02066
2904.84268,0.02058
2902.78251,0.02048
2900.72234,0.02040
2898.66217,0.02045
2896.60200,0.02048
2894.54182,0.02035
2892.48165,0.02015
2890.42148,0.01998
2888.36131,0.01989
2886.30114,0.01988
2884.24096,0.01987
2882.18079,0.01982
2880.12062,0.01976
2878.06045,0.01966
2876.00028,0.01962
2873.94010,0.01953
2871.87993,0.01922
2869.81976,0.01898
2867.75959,0.01897
2865.69941,0.01902
2863.63924,0.01903
2861.57907,0.01911
2859.51890,0.01921
2857.45873,0.01900
2855.39855,0.01846
2853.33838,0.01810
2851.27821,0.01810
2849.21804,0.01804
2847.15787,0.01776
2845.09769,0.01755
2843.03752,0.01757
2840.97735,0.01769
2838.91718,0.01763
2836.85700,0.01735
2834.79683,0.01712
2832.73666,0.01698
2830.67649,0.01691
2828.61632,0.01698
2826.55614,0.01706
2824.49597,0.01696
2822.43580,0.01676
2820.37563,0.01665
2818.31546,0.01656
2816.25528,0.01633
2814.19511,0.01619
2812.13494,0.01623
2810.07477,0.01618
2808.01460,0.01605
2805.95442,0.01596
2803.89425,0.01580
2801.83408,0.01562
2799.77391,0.01556
2797.71373,0.01552
2795.65356,0.01544
2793.59339,0.01539
2791.53322,0.01535
2789.47305,0.01535
2787.41287,0.01547
2785.35270,0.01558
2783.29253,0.01548
2781.23236,0.01518
2779.17219,0.01477
2777.11201,0.01458
2775.05184,0.01475
2772.99167,0.01491
2770.93150,0.01495
2768.87133,0.01492
2766.81115,0.01472
2764.75098,0.01449
2762.69081,0.01438
2760.63064,0.01436
2758.57046,0.01438
2756.51029,0.01433
2754.45012,0.01420
2752.38995,0.01407
2750.32978,0.01391
2748.26960,0.01378
2746.20943,0.01381
2744.14926,0.01383
2742.08909,0.01358
2740.02892,0.01333
2737.96874,0.01335
2735.90857,0.01337
2733.84840,0.01326
2731.78823,0.01306
2729.72805,0.01289
2727.66788,0.01291
2725.60771,0.01301
2723.54754,0.01299
2721.48737,0.01284
2719.42719,0.01258
2717.36702,0.01246
2715.30685,0.01247
2713.24668,0.01236
2711.18651,0.01224
2709.12633,0.01227
2707.06616,0.01237
2705.00599,0.01236
2702.94582,0.01222
2700.88565,0.01196
2698.82547,0.01175
2696.76530,0.01171
2694.70513,0.01172
2692.64496,0.01166
2690.58478,0.01143
2688.52461,0.01111
2686.46444,0.01085
2684.40427,0.01072
2682.34410,0.01081
2680.28392,0.01104
2678.22375,0.01102
2676.16358,0.01070
2674.10341,0.01054
2672.04324,0.01062
2669.98306,0.01057
2667.92289,0.01029
2665.86272,0.01008
2663.80255,0.01014
2661.74238,0.01033
2659.68220,0.01039
2657.62203,0.01024
2655.56186,0.01015
2653.50169,0.01024
2651.44151,0.01024
2649.38134,0.01005
2647.32117,0.00995
2645.26100,0.00999
2643.20083,0.00990
2641.14065,0.00955
2639.08048,0.00919
2637.02031,0.00911
2634.96014,0.00911
2632.89997,0.00895
2630.83979,0.00893
2628.77962,0.00917
2626.71945,0.00939
2624.65928,0.00936
2622.59910,0.00907
2620.53893,0.00874
2618.47876,0.00858
2616.41859,0.00839
2614.35842,0.00814
2612.29824,0.00805
2610.23807,0.00804
2608.17790,0.00808
2606.11773,0.00810
2604.05756,0.00790
2601.99738,0.00765
2599.93721,0.00768
2597.87704,0.00791
2595.81687,0.00810
2593.75670,0.00804
2591.69652,0.00771
2589.63635,0.00740
2587.57618,0.00759
2585.51601,0.00804
2583.45583,0.00816
2581.39566,0.00803
2579.33549,0.00776
2577.27532,0.00748
2575.21515,0.00748
2573.15497,0.00756
2571.09480,0.00734
2569.03463,0.00711
2566.97446,0.00719
2564.91429,0.00741
2562.85411,0.00749
2560.79394,0.00731
2558.73377,0.00732
2556.67360,0.00768
2554.61342,0.00770
2552.55325,0.00713
2550.49308,0.00668
2548.43291,0.00687
2546.37274,0.00728
2544.31256,0.00747
2542.25239,0.00756
2540.19222,0.00760
2538.13205,0.00750
2536.07188,0.00732
2534.01170,0.00716
2531.95153,0.00718
2529.89136,0.00723
2527.83119,0.00733
2525.77102,0.00738
2523.71084,0.00711
2521.65067,0.00697
2519.59050,0.00730
2517.53033,0.00764
2515.47015,0.00775
2513.40998,0.00775
2511.34981,0.00758
2509.28964,0.00729
2507.22947,0.00698
2505.16929,0.00684
2503.10912,0.00707
2501.04895,0.00728
2498.98878,0.00727
2496.92861,0.00735
2494.86843,0.00758
2492.80826,0.00766
2490.74809,0.00741
2488.68792,0.00707
2486.62775,0.00683
2484.56757,0.00675
2482.50740,0.00695
2480.44723,0.00735
2478.38706,0.00751
2476.32688,0.00736
2474.26671,0.00742
2472.20654,0.00774
2470.14637,0.00785
2468.08620,0.00774
2466.02602,0.00771
2463.96585,0.00774
2461.90568,0.00777
2459.84551,0.00789
2457.78534,0.00815
2455.72516,0.00829
2453.66499,0.00818
2451.60482,0.00803
2449.54465,0.00776
2447.48447,0.00747
2445.42430,0.00752
2443.36413,0.00765
2441.30396,0.00772
2439.24379,0.00785
2437.18361,0.00807
2435.12344,0.00817
2433.06327,0.00791
2431.00310,0.00765
2428.94293,0.00762
2426.88275,0.00754
2424.82258,0.00745
2422.76241,0.00751
2420.70224,0.00762
2418.64207,0.00777
2416.58189,0.00785
2414.52172,0.00780
2412.46155,0.00776
2410.40138,0.00772
2408.34120,0.00768
2406.28103,0.00785
2404.22086,0.00812
2402.16069,0.00819
2400.10052,0.00812
2398.04034,0.00786
2395.98017,0.00766
2393.92000,0.00765
2391.85983,0.00766
2389.79966,0.00761
2387.73948,0.00765
2385.67931,0.00783
2383.61914,0.00801
2381.55897,0.00817
2379.49880,0.00830
2377.43862,0.00834
2375.37845,0.00877
2373.31828,0.00988
2371.25811,0.01100
2369.19793,0.01093
2367.13776,0.00917
2365.07759,0.00744
2363.01742,0.00861
2360.95725,0.01074
2358.89707,0.01157
2356.83690,0.01005
2354.77673,0.00790
2352.71656,0.00708
2350.65639,0.00637
2348.59621,0.00639
2346.53604,0.00855
2344.47587,0.00935
2342.41570,0.00898
2340.35552,0.00811
2338.29535,0.00742
2336.23518,0.00787
2334.17501,0.00911
2332.11484,0.01030
2330.05466,0.01046
2327.99449,0.01009
2325.93432,0.00919
2323.87415,0.00829
2321.81398,0.00767
2319.75380,0.00763
2317.69363,0.00771
2315.63346,0.00823
2313.57329,0.00863
2311.51312,0.00843
2309.45294,0.00794
2307.39277,0.00737
2305.33260,0.00711
2303.27243,0.00747
2301.21225,0.00789
2299.15208,0.00782
2297.09191,0.00779
2295.03174,0.00798
2292.97157,0.00785
2290.91139,0.00741
2288.85122,0.00723
2286.79105,0.00747
2284.73088,0.00781
2282.67071,0.00787
2280.61053,0.00756
2278.55036,0.00704
2276.49019,0.00658
2274.43002,0.00650
2272.36984,0.00666
2270.30967,0.00675
2268.24950,0.00690
2266.18933,0.00706
2264.12916,0.00695
2262.06898,0.00676
2260.00881,0.00666
2257.94864,0.00640
2255.88847,0.00592
2253.82830,0.00570
2251.76812,0.00619
2249.70795,0.00666
2247.64778,0.00624
2245.58761,0.00576
2243.52744,0.00533
2241.46726,0.00448
2239.40709,0.00406
2237.34692,0.00457
2235.28675,0.00547
2233.22657,0.00613
2231.16640,0.00600
2229.10623,0.00528
2227.04606,0.00461
2224.98589,0.00419
2222.92571,0.00417
2220.86554,0.00460
2218.80537,0.00498
2216.74520,0.00504
2214.68503,0.00483
2212.62485,0.00476
2210.56468,0.00540
2208.50451,0.00592
2206.44434,0.00533
2204.38417,0.00450
2202.32399,0.00451
2200.26382,0.00510
2198.20365,0.00541
2196.14348,0.00489
2194.08330,0.00420
2192.02313,0.00442
2189.96296,0.00499
2187.90279,0.00472
2185.84262,0.00424
2183.78244,0.00451
2181.72227,0.00517
2179.66210,0.00632
2177.60193,0.00744
2175.54176,0.00652
2173.48158,0.00453
2171.42141,0.00398
2169.36124,0.00383
2167.30107,0.00279
2165.24089,0.00262
2163.18072,0.00365
2161.12055,0.00336
2159.06038,0.00239
2157.00021,0.00232
2154.94003,0.00205
2152.87986,0.00204
2150.81969,0.00286
2148.75952,0.00349
2146.69935,0.00331
2144.63917,0.00283
2142.57900,0.00264
2140.51883,0.00266
2138.45866,0.00283
2136.39849,0.00308
2134.33831,0.00274
2132.27814,0.00236
2130.21797,0.00282
2128.15780,0.00308
2126.09762,0.00289
2124.03745,0.00312
2121.97728,0.00366
2119.91711,0.00422
2117.85694,0.00476
2115.79676,0.00492
2113.73659,0.00469
2111.67642,0.00463
2109.61625,0.00453
2107.55608,0.00380
2105.49590,0.00294
2103.43573,0.00279
2101.37556,0.00332
2099.31539,0.00409
2097.25521,0.00419
2095.19504,0.00322
2093.13487,0.00242
2091.07470,0.00263
2089.01453,0.00333
2086.95435,0.00384
2084.89418,0.00384
2082.83401,0.00342
2080.77384,0.00334
2078.71367,0.00397
2076.65349,0.00408
2074.59332,0.00321
2072.53315,0.00291
2070.47298,0.00340
2068.41281,0.00350
2066.35263,0.00322
2064.29246,0.00339
2062.23229,0.00343
2060.17212,0.00253
2058.11194,0.00179
2056.05177,0.00234
2053.99160,0.00336
2051.93143,0.00324
2049.87126,0.00228
2047.81108,0.00251
2045.75091,0.00382
2043.69074,0.00416
2041.63057,0.00297
2039.57040,0.00211
2037.51022,0.00291
2035.45005,0.00387
2033.38988,0.00334
2031.32971,0.00194
2029.26954,0.00106
2027.20936,0.00095
2025.14919,0.00114
2023.08902,0.00155
2021.02885,0.00170
2018.96867,0.00107
2016.90850,0.00079
2014.84833,0.00147
2012.78816,0.00170
2010.72799,0.00103
2008.66781,0.00054
2006.60764,0.00069
2004.54747,0.00140
2002.48730,0.00222
2000.42713,0.00198
1998.36695,0.00069
1996.30678,0.00000
1994.24661,0.00093
1992.18644,0.00302
1990.12626,0.00441
1988.06609,0.00406
1986.00592,0.00368
1983.94575,0.00389
1981.88558,0.00331
1979.82540,0.00200
1977.76523,0.00137
1975.70506,0.00186
1973.64489,0.00246
1971.58472,0.00230
1969.52454,0.00204
1967.46437,0.00265
1965.40420,0.00336
1963.34403,0.00313
1961.28386,0.00199
1959.22368,0.00065
1957.16351,0.00036
1955.10334,0.00110
1953.04317,0.00150
1950.98299,0.00123
1948.92282,0.00084
1946.86265,0.00060
1944.80248,0.00048
1942.74231,0.00063
1940.68213,0.00105
1938.62196,0.00128
1936.56179,0.00128
1934.50162,0.00148
1932.44145,0.00183
1930.38127,0.00181
1928.32110,0.00151
1926.26093,0.00141
1924.20076,0.00148
1922.14059,0.00168
1920.08041,0.00181
1918.02024,0.00158
1915.96007,0.00142
1913.89990,0.00137
1911.83972,0.00108
1909.77955,0.00110
1907.71938,0.00166
1905.65921,0.00221
1903.59904,0.00237
1901.53886,0.00203
1899.47869,0.00157
1897.41852,0.00149
1895.35835,0.00152
1893.29818,0.00130
1891.23800,0.00118
1889.17783,0.00146
1887.11766,0.00178
1885.05749,0.00177
1882.99731,0.00146
1880.93714,0.00117
1878.87697,0.00125
1876.81680,0.00150
1874.75663,0.00162
1872.69645,0.00167
1870.63628,0.00154
1868.57611,0.00123
1866.51594,0.00123
1864.45577,0.00151
1862.39559,0.00157
1860.33542,0.00142
1858.27525,0.00117
1856.21508,0.00084
1854.15491,0.00077
1852.09473,0.00118
1850.03456,0.00171
1847.97439,0.00195
1845.91422,0.00196
1843.85404,0.00187
1841.79387,0.00157
1839.73370,0.00123
1837.67353,0.00123
1835.61336,0.00161
1833.55318,0.00188
1831.49301,0.00169
1829.43284,0.00123
1827.37267,0.00087
1825.31250,0.00077
1823.25232,0.00101
1821.19215,0.00136
1819.13198,0.00139
1817.07181,0.00123
1815.01163,0.00118
1812.95146,0.00126
1810.89129,0.00142
1808.83112,0.00167
1806.77095,0.00181
1804.71077,0.00173
1802.65060,0.00160
1800.59043,0.00155
1798.53026,0.00155
1796.47009,0.00163
1794.40991,0.00167
1792.34974,0.00150
1790.28957,0.00147
1788.22940,0.00179
1786.16923,0.00209
1784.10905,0.00224
1782.04888,0.00237
1779.98871,0.00237
1777.92854,0.00226
1775.86836,0.00212
1773.80819,0.00200
1771.74802,0.00193
1769.68785,0.00195
1767.62768,0.00212
1765.56750,0.00244
1763.50733,0.00272
1761.44716,0.00281
1759.38699,0.00281
1757.32682,0.00289
1755.26664,0.00305
1753.20647,0.00319
1751.14630,0.00312
1749.08613,0.00295
1747.02596,0.00305
1744.96578,0.00333
1742.90561,0.00353
1740.84544,0.00365
1738.78527,0.00392
1736.72509,0.00418
1734.66492,0.00402
1732.60475,0.00368
1730.54458,0.00385
1728.48441,0.00435
1726.42423,0.00480
1724.36406,0.00504
1722.30389,0.00507
1720.24372,0.00493
1718.18355,0.00468
1716.12337,0.00465
1714.06320,0.00500
1712.00303,0.00554
1709.94286,0.00603
1707.88268,0.00629
1705.82251,0.00640
1703.76234,0.00660
1701.70217,0.00682
1699.64200,0.00694
1697.58182,0.00723
1695.52165,0.00768
1693.46148,0.00810
1691.40131,0.00842
1689.34114,0.00869
1687.28096,0.00905
1685.22079,0.00931
1683.16062,0.00941
1681.10045,0.00978
1679.04028,0.01040
1676.98010,0.01095
1674.91993,0.01136
1672.85976,0.01172
1670.79959,0.01181
1668.73941,0.01176
1666.67924,0.01206
1664.61907,0.01266
1662.55890,0.01326
1660.49873,0.01373
1658.43855,0.01402
1656.37838,0.01410
1654.31821,0.01386
1652.25804,0.01360
1650.19787,0.01374
1648.13769,0.01387
1646.07752,0.01380
1644.01735,0.01394
1641.95718,0.01427
1639.89701,0.01446
1637.83683,0.01425
1635.77666,0.01360
1633.71649,0.01311
1631.65632,0.01310
1629.59614,0.01322
1627.53597,0.01326
1625.47580,0.01311
1623.41563,0.01281
1621.35546,0.01272
1619.29528,0.01274
1617.23511,0.01244
1615.17494,0.01220
1613.11477,0.01240
1611.05460,0.01255
1608.99442,0.01237
1606.93425,0.01206
1604.87408,0.01176
1602.81391,0.01154
1600.75373,0.01136
1598.69356,0.01109
1596.63339,0.01066
1594.57322,0.01019
1592.51305,0.00977
1590.45287,0.00944
1588.39270,0.00916
1586.33253,0.00879
1584.27236,0.00833
1582.21219,0.00796
1580.15201,0.00771
1578.09184,0.00742
1576.03167,0.00699
1573.97150,0.00676
1571.91133,0.00667
1569.85115,0.00616
1567.79098,0.00546
1565.73081,0.00528
1563.67064,0.00558
1561.61046,0.00587
1559.55029,0.00558
1557.49012,0.00468
1555.42995,0.00402
1553.36978,0.00374
1551.30960,0.00361
1549.24943,0.00365
1547.18926,0.00384
1545.12909,0.00375
1543.06892,0.00308
1541.00874,0.00226
1538.94857,0.00206
1536.88840,0.00243
1534.82823,0.00265
1532.76805,0.00260
1530.70788,0.00258
1528.64771,0.00254
1526.58754,0.00229
1524.52737,0.00201
1522.46719,0.00192
1520.40702,0.00188
1518.34685,0.00168
1516.28668,0.00153
1514.22651,0.00162
1512.16633,0.00174
1510.10616,0.00158
1508.04599,0.00115
1505.98582,0.00089
1503.92565,0.00104
1501.86547,0.00128
1499.80530,0.00132
1497.74513,0.00114
1495.68496,0.00103
1493.62478,0.00111
1491.56461,0.00113
1489.50444,0.00108
1487.44427,0.00115
1485.38410,0.00133
1483.32392,0.00158
1481.26375,0.00173
1479.20358,0.00164
1477.14341,0.00146
1475.08324,0.00135
1473.02306,0.00138
1470.96289,0.00165
1468.90272,0.00206
1466.84255,0.00227
1464.78238,0.00223
1462.72220,0.00221
1460.66203,0.00230
1458.60186,0.00236
1456.54169,0.00249
1454.48151,0.00274
1452.42134,0.00301
1450.36117,0.00310
1448.30100,0.00298
1446.24083,0.00283
1444.18065,0.00290
1442.12048,0.00311
1440.06031,0.00319
1438.00014,0.00293
1435.93997,0.00254
1433.87979,0.00249
1431.81962,0.00271
1429.75945,0.00284
1427.69928,0.00287
1425.63910,0.00294
1423.57893,0.00306
1421.51876,0.00311
1419.45859,0.00297
1417.39842,0.00287
1415.33824,0.00310
1413.27807,0.00347
1411.21790,0.00376
1409.15773,0.00389
1407.09756,0.00382
1405.03738,0.00358
1402.97721,0.00332
1400.91704,0.00315
1398.85687,0.00309
1396.79670,0.00314
1394.73652,0.00315
1392.67635,0.00302
1390.61618,0.00287
1388.55601,0.00277
1386.49583,0.00284
1384.43566,0.00310
1382.37549,0.00337
1380.31532,0.00346
1378.25515,0.00335
1376.19497,0.00312
1374.13480,0.00296
1372.07463,0.00298
1370.01446,0.00306
1367.95429,0.00311
1365.89411,0.00307
1363.83394,0.00285
1361.77377,0.00256
1359.71360,0.00246
1357.65343,0.00251
1355.59325,0.00250
1353.53308,0.00242
1351.47291,0.00237
1349.41274,0.00238
1347.35256,0.00240
1345.29239,0.00229
1343.23222,0.00207
1341.17205,0.00192
1339.11188,0.00191
1337.05170,0.00197
1334.99153,0.00205
1332.93136,0.00210
1330.87119,0.00208
1328.81102,0.00199
1326.75084,0.00190
1324.69067,0.00193
1322.63050,0.00206
1320.57033,0.00207
1318.51015,0.00190
1316.44998,0.00181
1314.38981,0.00196
1312.32964,0.00211
1310.26947,0.00212
1308.20929,0.00204
1306.14912,0.00203
1304.08895,0.00211
1302.02878,0.00217
1299.96861,0.00217
1297.90843,0.00214
1295.84826,0.00219
1293.78809,0.00235
1291.72792,0.00252
1289.66775,0.00261
1287.60757,0.00254
1285.54740,0.00243
1283.48723,0.00240
1281.42706,0.00241
1279.36688,0.00252
1277.30671,0.00268
1275.24654,0.00269
1273.18637,0.00258
1271.12620,0.00254
1269.06602,0.00263
1267.00585,0.00277
1264.94568,0.00274
1262.88551,0.00256
1260.82534,0.00249
1258.76516,0.00268
1256.70499,0.00275
1254.64482,0.00250
1252.58465,0.00227
1250.52447,0.00230
1248.46430,0.00243
1246.40413,0.00249
1244.34396,0.00237
1242.28379,0.00213
1240.22361,0.00202
1238.16344,0.00200
1236.10327,0.00189
1234.04310,0.00177
1231.98293,0.00167
1229.92275,0.00156
1227.86258,0.00151
1225.80241,0.00154
1223.74224,0.00148
1221.68207,0.00118
1219.62189,0.00086
1217.56172,0.00064
1215.50155,0.00045
1213.44138,0.00036
1211.38120,0.00035
1209.32103,0.00028
1207.26086,0.00016
1205.20069,0.00007
1203.14052,0.00000
1201.08034,-0.00001
1199.02017,0.00005
1196.96000,-0.00002
1194.89983,-0.00004
1192.83966,0.00020
1190.77948,0.00058
1188.71931,0.00092
1186.65914,0.00121
1184.59897,0.00158
1182.53880,0.00215
1180.47862,0.00275
1178.41845,0.00321
1176.35828,0.00362
1174.29811,0.00418
1172.23793,0.00483
1170.17776,0.00539
1168.11759,0.00587
1166.05742,0.00645
1163.99725,0.00703
1161.93707,0.00743
1159.87690,0.00780
1157.81673,0.00832
1155.75656,0.00894
1153.69639,0.00957
1151.63621,0.01016
1149.57604,0.01068
1147.51587,0.01124
1145.45570,0.01199
1143.39552,0.01281
1141.33535,0.01351
1139.27518,0.01413
1137.21501,0.01479
1135.15484,0.01549
1133.09466,0.01620
1131.03449,0.01698
1128.97432,0.01779
1126.91415,0.01853
1124.85398,0.01923
1122.79380,0.01999
1120.73363,0.02075
1118.67346,0.02157
1116.61329,0.02250
1114.55312,0.02347
1112.49294,0.02454
1110.43277,0.02562
1108.37260,0.02654
1106.31243,0.02749
1104.25225,0.02878
1102.19208,0.03016
1100.13191,0.03136
1098.07174,0.03262
1096.01157,0.03385
1093.95139,0.03474
1091.89122,0.03560
1089.83105,0.03678
1087.77088,0.03795
1085.71071,0.03882
1083.65053,0.03966
1081.59036,0.04064
1079.53019,0.04159
1077.47002,0.04246
1075.40985,0.04335
1073.34967,0.04401
1071.28950,0.04436
1069.22933,0.04472
1067.16916,0.04501
1065.10898,0.04513
1063.04881,0.04534
1060.98864,0.04546
1058.92847,0.04533
1056.86830,0.04510
1054.80812,0.04475
1052.74795,0.04420
1050.68778,0.04365
1048.62761,0.04317
1046.56744,0.04259
1044.50726,0.04194
1042.44709,0.04115
1040.38692,0.04008
1038.32675,0.03895
1036.26657,0.03794
1034.20640,0.03681
1032.14623,0.03555
1030.08606,0.03451
1028.02589,0.03365
1025.96571,0.03274
1023.90554,0.03177
1021.84537,0.03082
1019.78520,0.03001
1017.72503,0.02922
1015.66485,0.02831
1013.60468,0.02747
1011.54451,0.02695
1009.48434,0.02664
1007.42417,0.02634
1005.36399,0.02592
1003.30382,0.02545
1001.24365,0.02528
999.18348,0.02551
997.12330,0.02593
995.06313,0.02647
993.00296,0.02727
990.94279,0.02807
988.88262,0.02864
986.82244,0.02919
984.76227,0.02969
982.70210,0.02988
980.64193,0.02962
978.58176,0.02877
976.52158,0.02751
974.46141,0.02640
972.40124,0.02560
970.34107,0.02454
968.28089,0.02301
966.22072,0.02152
964.16055,0.02046
962.10038,0.01955
960.04021,0.01846
957.98003,0.01753
955.91986,0.01685
953.85969,0.01617
951.79952,0.01553
949.73935,0.01506
947.67917,0.01459
945.61900,0.01398
943.55883,0.01352
941.49866,0.01342
939.43849,0.01346
937.37831,0.01335
935.31814,0.01324
933.25797,0.01338
931.19780,0.01340
929.13762,0.01314
927.07745,0.01301
925.01728,0.01295
922.95711,0.01246
920.89694,0.01165
918.83676,0.01112
916.77659,0.01092
914.71642,0.01054
912.65625,0.00995
910.59608,0.00950
908.53590,0.00916
906.47573,0.00889
904.41556,0.00875
902.35539,0.00868
900.29522,0.00848
898.23504,0.00812
896.17487,0.00789
894.11470,0.00799
892.05453,0.00823
889.99435,0.00854
887.93418,0.00893
885.87401,0.00926
883.81384,0.00945
881.75367,0.00974
879.69349,0.01016
877.63332,0.01048
875.57315,0.01067
873.51298,0.01093
871.45281,0.01153
869.39263,0.01204
867.33246,0.01199
865.27229,0.01188
863.21212,0.01194
861.15194,0.01200
859.09177,0.01207
857.03160,0.01214
854.97143,0.01192
852.91126,0.01121
850.85108,0.01050
848.79091,0.01024
846.73074,0.01002
844.67057,0.00959
842.61040,0.00926
840.55022,0.00898
838.49005,0.00846
836.42988,0.00810
834.36971,0.00804
832.30954,0.00779
830.24936,0.00759
828.18919,0.00749
826.12902,0.00669
824.06885,0.00580
822.00867,0.00574
819.94850,0.00578
817.88833,0.00564
815.82816,0.00568
813.76799,0.00549
811.70781,0.00477
809.64764,0.00393
807.58747,0.00318
805.52730,0.00267
803.46713,0.00292
801.40695,0.00355
799.34678,0.00362
797.28661,0.00323
795.22644,0.00312
793.16627,0.00335
791.10609,0.00322
789.04592,0.00272
786.98575,0.00267
784.92558,0.00314
782.86540,0.00335
780.80523,0.00322
778.74506,0.00302
776.68489,0.00285
774.62472,0.00264
772.56454,0.00241
770.50437,0.00230
768.44420,0.00200
766.38403,0.00172
764.32386,0.00229
762.26368,0.00300
760.20351,0.00273
758.14334,0.00221
756.08317,0.00211
754.02299,0.00202
751.96282,0.00176
749.90265,0.00121
747.84248,0.00052
745.78231,0.00030
743.72213,0.00056
741.66196,0.00077
739.60179,0.00087
737.54162,0.00098
735.48145,0.00101
733.42127,0.00101
731.36110,0.00095
729.30093,0.00071
727.24076,0.00052
725.18059,0.00068
723.12041,0.00126
721.06024,0.00230
719.00007,0.00288
716.93990,0.00267
714.87972,0.00180
712.81955,0.00088
710.75938,0.00051
708.69921,0.00055
706.63904,0.00072
704.57886,0.00103
702.51869,0.00135
700.45852,0.00143
698.39835,0.00155
696.33818,0.00227
694.27800,0.00326
692.21783,0.00355
690.15766,0.00300
688.09749,0.00243
686.03731,0.00266
683.97714,0.00331
681.91697,0.00321
679.85680,0.00206
677.79663,0.00061
675.73645,0.00000
673.67628,0.00043
671.61611,0.00171
669.55594,0.00490
667.49577,0.00602
665.43559,0.00169
663.37542,0.00095
661.31525,0.00085
659.25508,0.00040
657.19491,0.00042
655.13473,0.00077
653.07456,0.00068
651.01439,0.00021
648.95422,0.00000
646.89404,-0.00009
644.83387,-0.00015
642.77370,-0.00030
640.71353,-0.00005
638.65336,0.00034
636.59318,0.00015
634.53301,-0.00070
632.47284,-0.00210
630.41267,-0.00317
628.35250,-0.00266
626.29232,-0.00146
624.23215,-0.00189
622.17198,-0.00238
620.11181,-0.00205
618.05164,-0.00188
615.99146,-0.00213
613.93129,-0.00310
611.87112,-0.00407
609.81095,-0.00455
607.75077,-0.00540
605.69060,-0.00615
603.63043,-0.00528
601.57026,-0.00198
599.51009,0.00000
