3996.73391,0.00072
3994.67373,0.00033
3992.61356,0.00004
3990.55339,0.00000
3988.49322,0.00027
3986.43305,0.00078
3984.37287,0.00129
3982.31270,0.00153
3980.25253,0.00145
3978.19236,0.00119
3976.13219,0.00088
3974.07201,0.00065
3972.01184,0.00067
3969.95167,0.00075
3967.89150,0.00058
3965.83133,0.00048
3963.77115,0.00076
3961.71098,0.00100
3959.65081,0.00092
3957.59064,0.00086
3955.53046,0.00109
3953.47029,0.00144
3951.41012,0.00163
3949.34995,0.00139
3947.28978,0.00094
3945.22960,0.00084
3943.16943,0.00104
3941.10926,0.00124
3939.04909,0.00138
3936.98892,0.00144
3934.92874,0.00142
3932.86857,0.00141
3930.80840,0.00125
3928.74823,0.00088
3926.68805,0.00065
3924.62788,0.00081
3922.56771,0.00108
3920.50754,0.00117
3918.44737,0.00114
3916.38719,0.00116
3914.32702,0.00122
3912.26685,0.00120
3910.20668,0.00109
3908.14651,0.00096
3906.08633,0.00089
3904.02616,0.00102
3901.96599,0.00120
3899.90582,0.00101
3897.84565,0.00074
3895.78547,0.00091
3893.72530,0.00126
3891.66513,0.00140
3889.60496,0.00141
3887.54478,0.00154
3885.48461,0.00169
3883.42444,0.00165
3881.36427,0.00145
3879.30410,0.00118
3877.24392,0.00111
3875.18375,0.00129
3873.12358,0.00135
3871.06341,0.00128
3869.00324,0.00141
3866.94306,0.00160
3864.88289,0.00149
3862.82272,0.00100
3860.76255,0.00071
3858.70237,0.00101
3856.64220,0.00162
3854.58203,0.00197
3852.52186,0.00139
3850.46169,0.00050
3848.40151,0.00027
3846.34134,0.00036
3844.28117,0.00046
3842.22100,0.00063
3840.16083,0.00083
3838.10065,0.00114
3836.04048,0.00149
3833.98031,0.00143
3831.92014,0.00109
3829.85997,0.00089
3827.79979,0.00096
3825.73962,0.00124
3823.67945,0.00172
3821.61928,0.00213
3819.55910,0.00186
3817.49893,0.00103
3815.43876,0.00051
3813.37859,0.00081
3811.31842,0.00138
3809.25824,0.00156
3807.19807,0.00126
3805.13790,0.00089
3803.07773,0.00081
3801.01756,0.00091
3798.95738,0.00110
3796.89721,0.00131
3794.83704,0.00134
3792.77687,0.00129
3790.71670,0.00139
3788.65652,0.00156
3786.59635,0.00164
3784.53618,0.00156
3782.47601,0.00139
3780.41583,0.00133
3778.35566,0.00139
3776.29549,0.00144
3774.23532,0.00161
3772.17515,0.00203
3770.11497,0.00250
3768.05480,0.00252
3765.99463,0.00210
3763.93446,0.00166
3761.87429,0.00134
3759.81411,0.00112
3757.75394,0.00107
3755.69377,0.00132
3753.63360,0.00146
3751.57342,0.00091
3749.51325,0.00013
3747.45308,0.00000
3745.39291,0.00055
3743.33274,0.00131
3741.27256,0.00159
3739.21239,0.00131
3737.15222,0.00104
3735.09205,0.00116
3733.03188,0.00120
3730.97170,0.00115
3728.91153,0.00140
3726.85136,0.00171
3724.79119,0.00163
3722.73102,0.00133
3720.67084,0.00142
3718.61067,0.00177
3716.55050,0.00194
3714.49033,0.00176
3712.43015,0.00148
3710.36998,0.00165
3708.30981,0.00197
3706.24964,0.00214
3704.18947,0.00229
3702.12929,0.00254
3700.06912,0.00271
3698.00895,0.00246
3695.94878,0.00201
3693.88861,0.00185
3691.82843,0.00204
3689.76826,0.00215
3687.70809,0.00219
3685.64792,0.00250
3683.58775,0.00300
3681.52757,0.00321
3679.46740,0.00315
3677.40723,0.00316
3675.34706,0.00315
3673.28688,0.00285
3671.22671,0.00243
3669.16654,0.00233
3667.10637,0.00271
3665.04620,0.00306
3662.98602,0.00312
3660.92585,0.00317
3658.86568,0.00344
3656.80551,0.00381
3654.74534,0.00414
3652.68516,0.00442
3650.62499,0.00450
3648.56482,0.00441
3646.50465,0.00451
3644.44447,0.00483
3642.38430,0.00520
3640.32413,0.00549
3638.26396,0.00572
3636.20379,0.00613
3634.14361,0.00683
3632.08344,0.00749
3630.02327,0.00786
3627.96310,0.00799
3625.90293,0.00807
3623.84275,0.00836
3621.78258,0.00872
3619.72241,0.00869
3617.66224,0.00844
3615.60207,0.00861
3613.54189,0.00921
3611.48172,0.00975
3609.42155,0.01010
3607.36138,0.01017
3605.30120,0.01022
3603.24103,0.01068
3601.18086,0.01121
3599.12069,0.01142
3597.06052,0.01137
3595.00034,0.01144
3592.94017,0.01213
3590.88000,0.01332
3588.81983,0.01402
3586.75966,0.01403
3584.69948,0.01410
3582.63931,0.01433
3580.57914,0.01437
3578.51897,0.01452
3576.45879,0.01500
3574.39862,0.01533
3572.33845,0.01533
3570.27828,0.01544
3568.21811,0.01565
3566.15793,0.01567
3564.09776,0.01579
3562.03759,0.01630
3559.97742,0.01699
3557.91725,0.01762
3555.85707,0.01813
3553.79690,0.01846
3551.73673,0.01856
3549.67656,0.01872
3547.61639,0.01906
3545.55621,0.01922
3543.49604,0.01921
3541.43587,0.01950
3539.37570,0.02004
3537.31552,0.02034
3535.25535,0.02050
3533.19518,0.02087
3531.13501,0.02124
3529.07484,0.02140
3527.01466,0.02159
3524.95449,0.02194
3522.89432,0.02230
3520.83415,0.02261
3518.77398,0.02286
3516.71380,0.02314
3514.65363,0.02351
3512.59346,0.02381
3510.53329,0.02398
3508.47312,0.02432
3506.41294,0.02489
3504.35277,0.02524
3502.29260,0.02518
3500.23243,0.02512
3498.17225,0.02529
3496.11208,0.02562
3494.05191,0.02598
3491.99174,0.02627
3489.93157,0.02656
3487.87139,0.02685
3485.81122,0.02727
3483.75105,0.02797
3481.69088,0.02860
3479.63071,0.02856
3477.57053,0.02821
3475.51036,0.02840
3473.45019,0.02895
3471.39002,0.02935
3469.32984,0.02958
3467.26967,0.02972
3465.20950,0.02982
3463.14933,0.03001
3461.08916,0.03025
3459.02898,0.03043
3456.96881,0.03058
3454.90864,0.03062
3452.84847,0.03066
3450.78830,0.03099
3448.72812,0.03146
3446.66795,0.03177
3444.60778,0.03193
3442.54761,0.03207
3440.48744,0.03218
3438.42726,0.03218
3436.36709,0.03242
3434.30692,0.03299
3432.24675,0.03339
3430.18657,0.03351
3428.12640,0.03358
3426.06623,0.03361
3424.00606,0.03371
3421.94589,0.03382
3419.88571,0.03374
3417.82554,0.03376
3415.76537,0.03406
3413.70520,0.03436
3411.64503,0.03457
3409.58485,0.03484
3407.52468,0.03500
3405.46451,0.03512
3403.40434,0.03534
3401.34416,0.03551
3399.28399,0.03550
3397.22382,0.03546
3395.16365,0.03567
3393.10348,0.03592
3391.04330,0.03597
3388.98313,0.03610
3386.92296,0.03649
3384.86279,0.03685
3382.80262,0.03704
3380.74244,0.03722
3378.68227,0.03754
3376.62210,0.03781
3374.56193,0.03787
3372.50176,0.03784
3370.44158,0.03787
3368.38141,0.03784
3366.32124,0.03766
3364.26107,0.03764
3362.20089,0.03790
3360.14072,0.03795
3358.08055,0.03772
3356.02038,0.03764
3353.96021,0.03773
3351.90003,0.03791
3349.83986,0.03815
3347.77969,0.03843
3345.71952,0.03870
3343.65935,0.03877
3341.59917,0.03867
3339.53900,0.03872
3337.47883,0.03886
3335.41866,0.03885
3333.35849,0.03879
3331.29831,0.03869
3329.23814,0.03857
3327.17797,0.03851
3325.11780,0.03842
3323.05762,0.03835
3320.99745,0.03847
3318.93728,0.03869
3316.87711,0.03889
3314.81694,0.03911
3312.75676,0.03932
3310.69659,0.03935
3308.63642,0.03915
3306.57625,0.03899
3304.51608,0.03893
3302.45590,0.03883
3300.39573,0.03892
3298.33556,0.03915
3296.27539,0.03942
3294.21521,0.03978
3292.15504,0.03985
3290.09487,0.03959
3288.03470,0.03958
3285.97453,0.03985
3283.91435,0.03992
3281.85418,0.03972
3279.79401,0.03964
3277.73384,0.03982
3275.67367,0.03984
3273.61349,0.03977
3271.55332,0.03985
3269.49315,0.03983
3267.43298,0.03964
3265.37281,0.03957
3263.31263,0.03972
3261.25246,0.03979
3259.19229,0.03970
3257.13212,0.03975
3255.07194,0.03978
3253.01177,0.03966
3250.95160,0.03973
3248.89143,0.04000
3246.83126,0.04012
3244.77108,0.03993
3242.71091,0.03971
3240.65074,0.03959
3238.59057,0.03941
3236.53040,0.03938
3234.47022,0.03975
3232.41005,0.04009
3230.34988,0.04001
3228.28971,0.03987
3226.22954,0.03992
3224.16936,0.03985
3222.10919,0.03973
3220.04902,0.03989
3217.98885,0.03991
3215.92867,0.03962
3213.86850,0.03953
3211.80833,0.03945
3209.74816,0.03901
3207.68799,0.03871
3205.62781,0.03884
3203.56764,0.03908
3201.50747,0.03930
3199.44730,0.03950
3197.38713,0.03954
3195.32695,0.03924
3193.26678,0.03879
3191.20661,0.03863
3189.14644,0.03867
3187.08626,0.03852
3185.02609,0.03835
3182.96592,0.03858
3180.90575,0.03896
3178.84558,0.03880
3176.78540,0.03827
3174.72523,0.03799
3172.66506,0.03804
3170.60489,0.03814
3168.54472,0.03820
3166.48454,0.03801
3164.42437,0.03761
3162.36420,0.03732
3160.30403,0.03724
3158.24386,0.03741
3156.18368,0.03753
3154.12351,0.03735
3152.06334,0.03708
3150.00317,0.03679
3147.94299,0.03649
3145.88282,0.03647
3143.82265,0.03663
3141.76248,0.03659
3139.70231,0.03648
3137.64213,0.03644
3135.58196,0.03625
3133.52179,0.03593
3131.46162,0.03575
3129.40145,0.03565
3127.34127,0.03548
3125.28110,0.03529
3123.22093,0.03516
3121.16076,0.03507
3119.10058,0.03500
3117.04041,0.03493
3114.98024,0.03489
3112.92007,0.03479
3110.85990,0.03458
3108.79972,0.03422
3106.73955,0.03384
3104.67938,0.03348
3102.61921,0.03305
3100.55904,0.03284
3098.49886,0.03304
3096.43869,0.03320
3094.37852,0.03308
3092.31835,0.03285
3090.25818,0.03264
3088.19800,0.03252
3086.13783,0.03242
3084.07766,0.03235
3082.01749,0.03230
3079.95731,0.03220
3077.89714,0.03213
3075.83697,0.03199
3073.77680,0.03164
3071.71663,0.03132
3069.65645,0.03119
3067.59628,0.03106
3065.53611,0.03073
3063.47594,0.03042
3061.41577,0.03034
3059.35559,0.03027
3057.29542,0.02999
3055.23525,0.02971
3053.17508,0.02967
3051.11491,0.02975
3049.05473,0.02969
3046.99456,0.02939
3044.93439,0.02910
3042.87422,0.02895
3040.81404,0.02880
3038.75387,0.02857
3036.69370,0.02837
3034.63353,0.02825
3032.57336,0.02799
3030.51318,0.02769
3028.45301,0.02756
3026.39284,0.02752
3024.33267,0.02739
3022.27250,0.02707
3020.21232,0.02666
3018.15215,0.02639
3016.09198,0.02628
3014.03181,0.02632
3011.97163,0.02636
3009.91146,0.02622
3007.85129,0.02600
3005.79112,0.02580
3003.73095,0.02561
3001.67077,0.02548
2999.61060,0.02524
2997.55043,0.02494
2995.49026,0.02487
2993.43009,0.02493
2991.36991,0.02491
2989.30974,0.02476
2987.24957,0.02465
2985.18940,0.02463
2983.12923,0.02451
2981.06905,0.02427
2979.00888,0.02401
2976.94871,0.02380
2974.88854,0.02376
2972.82836,0.02377
2970.76819,0.02374
2968.70802,0.02380
2966.64785,0.02376
2964.58768,0.02351
2962.52750,0.02336
2960.46733,0.02327
2958.40716,0.02324
2956.34699,0.02346
2954.28682,0.02367
2952.22664,0.02375
2950.16647,0.02385
2948.10630,0.02401
2946.04613,0.02383
2943.98596,0.02330
2941.92578,0.02312
2939.86561,0.02330
2937.80544,0.02331
2935.74527,0.02324
2933.68509,0.02324
2931.62492,0.02311
2929.56475,0.02286
2927.50458,0.02266
2925.44441,0.02252
2923.38423,0.02227
2921.32406,0.02205
2919.26389,0.02203
2917.20372,0.02200
2915.14355,0.02195
2913.08337,0.02201
2911.02320,0.02207
2908.96303,0.02210
2906.90286,0.02210
2904.84268,0.02207
2902.78251,0.02193
2900.72234,0.02168
2898.66217,0.02147
2896.60200,0.02129
2894.54182,0.02108
2892.48165,0.02091
2890.42148,0.02087
2888.36131,0.02084
2886.30114,0.02085
2884.24096,0.02095
2882.18079,0.02097
2880.12062,0.02089
2878.06045,0.02070
2876.00028,0.02045
2873.94010,0.02023
2871.87993,0.02007
2869.81976,0.02011
2867.75959,0.02023
2865.69941,0.02016
2863.63924,0.02002
2861.57907,0.01998
2859.51890,0.01994
2857.45873,0.01972
2855.39855,0.01929
2853.33838,0.01895
2851.27821,0.01902
2849.21804,0.01916
2847.15787,0.01903
2845.09769,0.01884
2843.03752,0.01875
2840.97735,0.01869
2838.91718,0.01858
2836.85700,0.01848
2834.79683,0.01842
2832.73666,0.01823
2830.67649,0.01791
2828.61632,0.01783
2826.55614,0.01800
2824.49597,0.01809
2822.43580,0.01799
2820.37563,0.01785
2818.31546,0.01772
2816.25528,0.01757
2814.19511,0.01750
2812.13494,0.01751
2810.07477,0.01743
2808.01460,0.01721
2805.95442,0.01702
2803.89425,0.01702
2801.83408,0.01715
2799.77391,0.01718
2797.71373,0.01699
2795.65356,0.01676
2793.59339,0.01663
2791.53322,0.01636
2789.47305,0.01606
2787.41287,0.01608
2785.35270,0.01629
2783.29253,0.01632
2781.23236,0.01611
2779.17219,0.01589
2777.11201,0.01593
2775.05184,0.01605
2772.99167,0.01603
2770.93150,0.01589
2768.87133,0.01569
2766.81115,0.01556
2764.75098,0.01553
2762.69081,0.01552
2760.63064,0.01543
2758.57046,0.01526
2756.51029,0.01515
2754.45012,0.01505
2752.38995,0.01488
2750.32978,0.01469
2748.26960,0.01457
2746.20943,0.01463
2744.14926,0.01478
2742.08909,0.01474
2740.02892,0.01468
2737.96874,0.01469
2735.90857,0.01455
2733.84840,0.01429
2731.78823,0.01408
2729.72805,0.01394
2727.66788,0.01385
2725.60771,0.01383
2723.54754,0.01388
2721.48737,0.01393
2719.42719,0.01384
2717.36702,0.01364
2715.30685,0.01348
2713.24668,0.01334
2711.18651,0.01317
2709.12633,0.01313
2707.06616,0.01324
2705.00599,0.01325
2702.94582,0.01315
2700.88565,0.01301
2698.82547,0.01290
2696.76530,0.01287
2694.70513,0.01281
2692.64496,0.01270
2690.58478,0.01253
2688.52461,0.01228
2686.46444,0.01203
2684.40427,0.01184
2682.34410,0.01181
2680.28392,0.01194
2678.22375,0.01194
2676.16358,0.01169
2674.10341,0.01150
2672.04324,0.01148
2669.98306,0.01148
2667.92289,0.01142
2665.86272,0.01131
2663.80255,0.01124
2661.74238,0.01114
2659.68220,0.01102
2657.62203,0.01092
2655.56186,0.01094
2653.50169,0.01110
2651.44151,0.01114
2649.38134,0.01106
2647.32117,0.01102
2645.26100,0.01103
2643.20083,0.01098
2641.14065,0.01074
2639.08048,0.01041
2637.02031,0.01032
2634.96014,0.01031
2632.89997,0.01012
2630.83979,0.00995
2628.77962,0.01001
2626.71945,0.01002
2624.65928,0.00981
2622.59910,0.00971
2620.53893,0.00975
2618.47876,0.00973
2616.41859,0.00955
2614.35842,0.00921
2612.29824,0.00909
2610.23807,0.00920
2608.17790,0.00917
2606.11773,0.00898
2604.05756,0.00882
2601.99738,0.00875
2599.93721,0.00879
2597.87704,0.00880
2595.81687,0.00863
2593.75670,0.00840
2591.69652,0.00822
2589.63635,0.00804
2587.57618,0.00809
2585.51601,0.00836
2583.45583,0.00829
2581.39566,0.00811
2579.33549,0.00832
2577.27532,0.00851
2575.21515,0.00844
2573.15497,0.00815
2571.09480,0.00773
2569.03463,0.00767
2566.97446,0.00791
2564.91429,0.00789
2562.85411,0.00764
2560.79394,0.00761
2558.73377,0.00796
2556.67360,0.00835
2554.61342,0.00833
2552.55325,0.00795
2550.49308,0.00777
2548.43291,0.00793
2546.37274,0.00810
2544.31256,0.00822
2542.25239,0.00820
2540.19222,0.00789
2538.13205,0.00774
2536.07188,0.00793
2534.01170,0.00793
2531.95153,0.00780
2529.89136,0.00776
2527.83119,0.00777
2525.77102,0.00779
2523.71084,0.00768
2521.65067,0.00761
2519.59050,0.00774
2517.53033,0.00794
2515.47015,0.00835
2513.40998,0.00870
2511.34981,0.00849
2509.28964,0.00809
2507.22947,0.00780
2505.16929,0.00766
2503.10912,0.00780
2501.04895,0.00796
2498.98878,0.00793
2496.92861,0.00783
2494.86843,0.00765
2492.80826,0.00746
2490.74809,0.00751
2488.68792,0.00786
2486.62775,0.00818
2484.56757,0.00816
2482.50740,0.00801
2480.44723,0.00797
2478.38706,0.00800
2476.32688,0.00803
2474.26671,0.00812
2472.20654,0.00832
2470.14637,0.00846
2468.08620,0.00835
2466.02602,0.00813
2463.96585,0.00812
2461.90568,0.00813
2459.84551,0.00806
2457.78534,0.00823
2455.72516,0.00847
2453.66499,0.00843
2451.60482,0.00814
2449.54465,0.00790
2447.48447,0.00802
2445.42430,0.00828
2443.36413,0.00839
2441.30396,0.00843
2439.24379,0.00853
2437.18361,0.00890
2435.12344,0.00921
2433.06327,0.00902
2431.00310,0.00875
2428.94293,0.00882
2426.88275,0.00901
2424.82258,0.00886
2422.76241,0.00842
2420.70224,0.00819
2418.64207,0.00824
2416.58189,0.00830
2414.52172,0.00824
2412.46155,0.00820
2410.40138,0.00834
2408.34120,0.00855
2406.28103,0.00871
2404.22086,0.00875
2402.16069,0.00864
2400.10052,0.00863
2398.04034,0.00850
2395.98017,0.00846
2393.92000,0.00854
2391.85983,0.00853
2389.79966,0.00840
2387.73948,0.00841
2385.67931,0.00853
2383.61914,0.00840
2381.55897,0.00818
2379.49880,0.00843
2377.43862,0.00913
2375.37845,0.00935
2373.31828,0.00931
2371.25811,0.00961
2369.19793,0.00951
2367.13776,0.00896
2365.07759,0.00905
2363.01742,0.00996
2360.95725,0.01154
2358.89707,0.00985
2356.83690,0.00631
2354.77673,0.00425
2352.71656,0.00505
2350.65639,0.00904
2348.59621,0.01124
2346.53604,0.00833
2344.47587,0.00761
2342.41570,0.00851
2340.35552,0.00880
2338.29535,0.00844
2336.23518,0.00792
2334.17501,0.00844
2332.11484,0.00928
2330.05466,0.00991
2327.99449,0.01017
2325.93432,0.01080
2323.87415,0.01053
2321.81398,0.00985
2319.75380,0.00905
2317.69363,0.00910
2315.63346,0.00939
2313.57329,0.00956
2311.51312,0.00938
2309.45294,0.00867
2307.39277,0.00762
2305.33260,0.00701
2303.27243,0.00757
2301.21225,0.00858
2299.15208,0.00908
2297.09191,0.00872
2295.03174,0.00827
2292.97157,0.00822
2290.91139,0.00828
2288.85122,0.00846
2286.79105,0.00888
2284.73088,0.00903
2282.67071,0.00849
2280.61053,0.00763
2278.55036,0.00695
2276.49019,0.00665
2274.43002,0.00680
2272.36984,0.00696
2270.30967,0.00686
2268.24950,0.00687
2266.18933,0.00701
2264.12916,0.00689
2262.06898,0.00662
2260.00881,0.00652
2257.94864,0.00659
2255.88847,0.00662
2253.82830,0.00656
2251.76812,0.00649
2249.70795,0.00641
2247.64778,0.00639
2245.58761,0.00645
2243.52744,0.00637
2241.46726,0.00581
2239.40709,0.00523
2237.34692,0.00532
2235.28675,0.00586
2233.22657,0.00597
2231.16640,0.00553
2229.10623,0.00483
2227.04606,0.00431
2224.98589,0.00446
2222.92571,0.00495
2220.86554,0.00548
2218.80537,0.00603
2216.74520,0.00630
2214.68503,0.00599
2212.62485,0.00558
2210.56468,0.00584
2208.50451,0.00607
2206.44434,0.00532
2204.38417,0.00460
2202.32399,0.00518
2200.26382,0.00630
2198.20365,0.00620
2196.14348,0.00534
2194.08330,0.00527
2192.02313,0.00575
2189.96296,0.00590
2187.90279,0.00546
2185.84262,0.00541
2183.78244,0.00608
2181.72227,0.00634
2179.66210,0.00598
2177.60193,0.00514
2175.54176,0.00455
2173.48158,0.00498
2171.42141,0.00563
2169.36124,0.00579
2167.30107,0.00519
2165.24089,0.00408
2163.18072,0.00370
2161.12055,0.00283
2159.06038,0.00077
2157.00021,0.00000
2154.94003,0.00100
2152.87986,0.00244
2150.81969,0.00310
2148.75952,0.00354
2146.69935,0.00395
2144.63917,0.00323
2142.57900,0.00233
2140.51883,0.00259
2138.45866,0.00356
2136.39849,0.00391
2134.33831,0.00317
2132.27814,0.00251
2130.21797,0.00256
2128.15780,0.00268
2126.09762,0.00282
2124.03745,0.00319
2121.97728,0.00364
2119.91711,0.00393
2117.85694,0.00381
2115.79676,0.00366
2113.73659,0.00390
2111.67642,0.00397
2109.61625,0.00352
2107.55608,0.00301
2105.49590,0.00273
2103.43573,0.00261
2101.37556,0.00301
2099.31539,0.00397
2097.25521,0.00418
2095.19504,0.00327
2093.13487,0.00269
2091.07470,0.00329
2089.01453,0.00416
2086.95435,0.00443
2084.89418,0.00447
2082.83401,0.00428
2080.77384,0.00355
2078.71367,0.00292
2076.65349,0.00257
2074.59332,0.00249
2072.53315,0.00321
2070.47298,0.00413
2068.41281,0.00408
2066.35263,0.00340
2064.29246,0.00345
2062.23229,0.00389
2060.17212,0.00336
2058.11194,0.00241
2056.05177,0.00272
2053.99160,0.00423
2051.93143,0.00474
2049.87126,0.00355
2047.81108,0.00312
2045.75091,0.00415
2043.69074,0.00403
2041.63057,0.00234
2039.57040,0.00206
2037.51022,0.00356
2035.45005,0.00394
2033.38988,0.00271
2031.32971,0.00192
2029.26954,0.00212
2027.20936,0.00256
2025.14919,0.00285
2023.08902,0.00304
2021.02885,0.00297
2018.96867,0.00217
2016.90850,0.00124
2014.84833,0.00134
2012.78816,0.00192
2010.72799,0.00201
2008.66781,0.00163
2006.60764,0.00098
2004.54747,0.00066
2002.48730,0.00073
2000.42713,0.00061
1998.36695,0.00049
1996.30678,0.00088
1994.24661,0.00173
1992.18644,0.00273
1990.12626,0.00332
1988.06609,0.00328
1986.00592,0.00332
1983.94575,0.00336
1981.88558,0.00261
1979.82540,0.00132
1977.76523,0.00041
1975.70506,0.00046
1973.64489,0.00121
1971.58472,0.00149
1969.52454,0.00077
1967.46437,0.00032
1965.40420,0.00111
1963.34403,0.00206
1961.28386,0.00196
1959.22368,0.00107
1957.16351,0.00034
1955.10334,0.00000
1953.04317,0.00012
1950.98299,0.00090
1948.92282,0.00153
1946.86265,0.00118
1944.80248,0.00035
1942.74231,0.00015
1940.68213,0.00063
1938.62196,0.00086
1936.56179,0.00075
1934.50162,0.00091
1932.44145,0.00128
1930.38127,0.00139
1928.32110,0.00133
1926.26093,0.00149
1924.20076,0.00165
1922.14059,0.00153
1920.08041,0.00146
1918.02024,0.00140
1915.96007,0.00108
1913.89990,0.00082
1911.83972,0.00072
1909.77955,0.00074
1907.71938,0.00114
1905.65921,0.00174
1903.59904,0.00207
1901.53886,0.00199
1899.47869,0.00176
1897.41852,0.00166
1895.35835,0.00170
1893.29818,0.00174
1891.23800,0.00158
1889.17783,0.00124
1887.11766,0.00101
1885.05749,0.00109
1882.99731,0.00140
1880.93714,0.00168
1878.87697,0.00177
1876.81680,0.00162
1874.75663,0.00145
1872.69645,0.00149
1870.63628,0.00156
1868.57611,0.00140
1866.51594,0.00118
1864.45577,0.00116
1862.39559,0.00122
1860.33542,0.00124
1858.27525,0.00108
1856.21508,0.00075
1854.15491,0.00061
1852.09473,0.00087
1850.03456,0.00143
1847.97439,0.00189
1845.91422,0.00196
1843.85404,0.00170
1841.79387,0.00140
1839.73370,0.00127
1837.67353,0.00134
1835.61336,0.00151
1833.55318,0.00161
1831.49301,0.00149
1829.43284,0.00119
1827.37267,0.00106
1825.31250,0.00120
1823.25232,0.00135
1821.19215,0.00135
1819.13198,0.00120
1817.07181,0.00107
1815.01163,0.00113
1812.95146,0.00120
1810.89129,0.00116
1808.83112,0.00128
1806.77095,0.00155
1804.71077,0.00167
1802.65060,0.00168
1800.59043,0.00180
1798.53026,0.00200
1796.47009,0.00214
1794.40991,0.00211
1792.34974,0.00187
1790.28957,0.00170
1788.22940,0.00179
1786.16923,0.00193
1784.10905,0.00199
1782.04888,0.00207
1779.98871,0.00217
1777.92854,0.00215
1775.86836,0.00202
1773.80819,0.00191
1771.74802,0.00180
1769.68785,0.00171
1767.62768,0.00166
1765.56750,0.00174
1763.50733,0.00203
1761.44716,0.00242
1759.38699,0.00275
1757.32682,0.00299
1755.26664,0.00320
1753.20647,0.00336
1751.14630,0.00331
1749.08613,0.00316
1747.02596,0.00331
1744.96578,0.00369
1742.90561,0.00392
1740.84544,0.00390
1738.78527,0.00394
1736.72509,0.00418
1734.66492,0.00436
1732.60475,0.00432
1730.54458,0.00435
1728.48441,0.00455
1726.42423,0.00478
1724.36406,0.00496
1722.30389,0.00516
1720.24372,0.00538
1718.18355,0.00543
1716.12337,0.00530
1714.06320,0.00531
1712.00303,0.00563
1709.94286,0.00607
1707.88268,0.00635
1705.82251,0.00655
1703.76234,0.00689
1701.70217,0.00727
1699.64200,0.00741
1697.58182,0.00744
1695.52165,0.00752
1693.46148,0.00771
1691.40131,0.00810
1689.34114,0.00866
1687.28096,0.00911
1685.22079,0.00914
1683.16062,0.00896
1681.10045,0.00935
1679.04028,0.01019
1676.98010,0.01095
1674.91993,0.01142
1672.85976,0.01168
1670.79959,0.01170
1668.73941,0.01166
1666.67924,0.01202
1664.61907,0.01267
1662.55890,0.01311
1660.49873,0.01332
1658.43855,0.01359
1656.37838,0.01383
1654.31821,0.01366
1652.25804,0.01323
1650.19787,0.01343
1648.13769,0.01379
1646.07752,0.01372
1644.01735,0.01371
1641.95718,0.01408
1639.89701,0.01441
1637.83683,0.01430
1635.77666,0.01367
1633.71649,0.01311
1631.65632,0.01312
1629.59614,0.01334
1627.53597,0.01343
1625.47580,0.01330
1623.41563,0.01299
1621.35546,0.01284
1619.29528,0.01294
1617.23511,0.01286
1615.17494,0.01257
1613.11477,0.01254
1611.05460,0.01263
1608.99442,0.01256
1606.93425,0.01234
1604.87408,0.01210
1602.81391,0.01185
1600.75373,0.01160
1598.69356,0.01127
1596.63339,0.01083
1594.57322,0.01041
1592.51305,0.01003
1590.45287,0.00956
1588.39270,0.00905
1586.33253,0.00864
1584.27236,0.00837
1582.21219,0.00820
1580.15201,0.00804
1578.09184,0.00767
1576.03167,0.00699
1573.97150,0.00655
1571.91133,0.00650
1569.85115,0.00622
1567.79098,0.00566
1565.73081,0.00545
1563.67064,0.00572
1561.61046,0.00604
1559.55029,0.00584
1557.49012,0.00512
1555.42995,0.00460
1553.36978,0.00427
1551.30960,0.00402
1549.24943,0.00397
1547.18926,0.00407
1545.12909,0.00393
1543.06892,0.00344
1541.00874,0.00290
1538.94857,0.00267
1536.88840,0.00273
1534.82823,0.00270
1532.76805,0.00252
1530.70788,0.00249
1528.64771,0.00250
1526.58754,0.00234
1524.52737,0.00220
1522.46719,0.00221
1520.40702,0.00207
1518.34685,0.00175
1516.28668,0.00155
1514.22651,0.00168
1512.16633,0.00198
1510.10616,0.00210
1508.04599,0.00183
1505.98582,0.00143
1503.92565,0.00137
1501.86547,0.00151
1499.80530,0.00162
1497.74513,0.00155
1495.68496,0.00133
1493.62478,0.00127
1491.56461,0.00140
1489.50444,0.00149
1487.44427,0.00141
1485.38410,0.00136
1483.32392,0.00149
1481.26375,0.00159
1479.20358,0.00156
1477.14341,0.00163
1475.08324,0.00187
1473.02306,0.00204
1470.96289,0.00213
1468.90272,0.00235
1466.84255,0.00251
1464.78238,0.00252
1462.72220,0.00263
1460.66203,0.00293
1458.60186,0.00310
1456.54169,0.00299
1454.48151,0.00290
1452.42134,0.00297
1450.36117,0.00309
1448.30100,0.00315
1446.24083,0.00314
1444.18065,0.00315
1442.12048,0.00314
1440.06031,0.00308
1438.00014,0.00289
1435.93997,0.00257
1433.87979,0.00250
1431.81962,0.00280
1429.75945,0.00317
1427.69928,0.00339
1425.63910,0.00347
1423.57893,0.00354
1421.51876,0.00368
1419.45859,0.00373
1417.39842,0.00366
1415.33824,0.00374
1413.27807,0.00395
1411.21790,0.00407
1409.15773,0.00410
1407.09756,0.00399
1405.03738,0.00370
1402.97721,0.00348
1400.91704,0.00349
1398.85687,0.00360
1396.79670,0.00358
1394.73652,0.00336
1392.67635,0.00310
1390.61618,0.00299
1388.55601,0.00300
1386.49583,0.00309
1384.43566,0.00332
1382.37549,0.00360
1380.31532,0.00377
1378.25515,0.00381
1376.19497,0.00382
1374.13480,0.00374
1372.07463,0.00360
1370.01446,0.00349
1367.95429,0.00342
1365.89411,0.00336
1363.83394,0.00325
1361.77377,0.00306
1359.71360,0.00295
1357.65343,0.00296
1355.59325,0.00291
1353.53308,0.00276
1351.47291,0.00259
1349.41274,0.00252
1347.35256,0.00254
1345.29239,0.00249
1343.23222,0.00239
1341.17205,0.00234
1339.11188,0.00236
1337.05170,0.00246
1334.99153,0.00252
1332.93136,0.00248
1330.87119,0.00240
1328.81102,0.00230
1326.75084,0.00215
1324.69067,0.00206
1322.63050,0.00216
1320.57033,0.00226
1318.51015,0.00217
1316.44998,0.00214
1314.38981,0.00231
1312.32964,0.00238
1310.26947,0.00226
1308.20929,0.00214
1306.14912,0.00207
1304.08895,0.00201
1302.02878,0.00199
1299.96861,0.00206
1297.90843,0.00215
1295.84826,0.00222
1293.78809,0.00235
1291.72792,0.00254
1289.66775,0.00270
1287.60757,0.00275
1285.54740,0.00281
1283.48723,0.00293
1281.42706,0.00296
1279.36688,0.00288
1277.30671,0.00285
1275.24654,0.00283
1273.18637,0.00272
1271.12620,0.00261
1269.06602,0.00267
1267.00585,0.00281
1264.94568,0.00280
1262.88551,0.00268
1260.82534,0.00269
1258.76516,0.00289
1256.70499,0.00305
1254.64482,0.00296
1252.58465,0.00264
1250.52447,0.00235
1248.46430,0.00230
1246.40413,0.00248
1244.34396,0.00251
1242.28379,0.00217
1240.22361,0.00185
1238.16344,0.00191
1236.10327,0.00208
1234.04310,0.00200
1231.98293,0.00175
1229.92275,0.00157
1227.86258,0.00148
1225.80241,0.00148
1223.74224,0.00142
1221.68207,0.00113
1219.62189,0.00083
1217.56172,0.00071
1215.50155,0.00062
1213.44138,0.00046
1211.38120,0.00028
1209.32103,0.00010
1207.26086,0.00000
1205.20069,-0.00002
1203.14052,-0.00001
1201.08034,0.00001
1199.02017,0.00003
1196.96000,-0.00003
1194.89983,-0.00012
1192.83966,0.00008
1190.77948,0.00064
1188.71931,0.00121
1186.65914,0.00167
1184.59897,0.00216
1182.53880,0.00265
1180.47862,0.00304
1178.41845,0.00333
1176.35828,0.00371
1174.29811,0.00435
1172.23793,0.00520
1170.17776,0.00602
1168.11759,0.00658
1166.05742,0.00701
1163.99725,0.00761
1161.93707,0.00834
1159.87690,0.00895
1157.81673,0.00938
1155.75656,0.00977
1153.69639,0.01034
1151.63621,0.01114
1149.57604,0.01190
1147.51587,0.01257
1145.45570,0.01328
1143.39552,0.01404
1141.33535,0.01474
1139.27518,0.01550
1137.21501,0.01631
1135.15484,0.01706
1133.09466,0.01782
1131.03449,0.01869
1128.97432,0.01964
1126.91415,0.02040
1124.85398,0.02099
1122.79380,0.02164
1120.73363,0.02246
1118.67346,0.02351
1116.61329,0.02452
1114.55312,0.02538
1112.49294,0.02623
1110.43277,0.02728
1108.37260,0.02850
1106.31243,0.02976
1104.25225,0.03108
1102.19208,0.03245
1100.13191,0.03364
1098.07174,0.03464
1096.01157,0.03567
1093.95139,0.03678
1091.89122,0.03788
1089.83105,0.03895
1087.77088,0.03993
1085.71071,0.04087
1083.65053,0.04185
1081.59036,0.04283
1079.53019,0.04376
1077.47002,0.04463
1075.40985,0.04542
1073.34967,0.04604
1071.28950,0.04644
1069.22933,0.04681
1067.16916,0.04729
1065.10898,0.04776
1063.04881,0.04805
1060.98864,0.04806
1058.92847,0.04791
1056.86830,0.04767
1054.80812,0.04729
1052.74795,0.04672
1050.68778,0.04610
1048.62761,0.04563
1046.56744,0.04518
1044.50726,0.04454
1042.44709,0.04352
1040.38692,0.04232
1038.32675,0.04123
1036.26657,0.04025
1034.20640,0.03919
1032.14623,0.03799
1030.08606,0.03678
1028.02589,0.03559
1025.96571,0.03450
1023.90554,0.03365
1021.84537,0.03291
1019.78520,0.03214
1017.72503,0.03141
1015.66485,0.03049
1013.60468,0.02945
1011.54451,0.02870
1009.48434,0.02818
1007.42417,0.02768
1005.36399,0.02724
1003.30382,0.02697
1001.24365,0.02703
999.18348,0.02728
997.12330,0.02741
995.06313,0.02771
993.00296,0.02847
990.94279,0.02932
988.88262,0.02994
986.82244,0.03038
984.76227,0.03076
982.70210,0.03116
980.64193,0.03112
978.58176,0.03019
976.52158,0.02882
974.46141,0.02773
972.40124,0.02699
970.34107,0.02603
968.28089,0.02459
966.22072,0.02305
964.16055,0.02174
962.10038,0.02054
960.04021,0.01940
957.98003,0.01852
955.91986,0.01777
953.85969,0.01695
951.79952,0.01612
949.73935,0.01546
947.67917,0.01504
945.61900,0.01466
943.55883,0.01426
941.49866,0.01412
939.43849,0.01417
937.37831,0.01405
935.31814,0.01390
933.25797,0.01406
931.19780,0.01418
929.13762,0.01400
927.07745,0.01384
925.01728,0.01364
922.95711,0.01307
920.89694,0.01238
918.83676,0.01185
916.77659,0.01139
914.71642,0.01087
912.65625,0.01043
910.59608,0.01023
908.53590,0.01007
906.47573,0.00969
904.41556,0.00938
902.35539,0.00943
900.29522,0.00950
898.23504,0.00920
896.17487,0.00883
894.11470,0.00881
892.05453,0.00896
889.99435,0.00907
887.93418,0.00921
885.87401,0.00967
883.81384,0.01021
881.75367,0.01033
879.69349,0.01028
877.63332,0.01065
875.57315,0.01127
873.51298,0.01150
871.45281,0.01164
869.39263,0.01213
867.33246,0.01265
865.27229,0.01306
863.21212,0.01309
861.15194,0.01269
859.09177,0.01232
857.03160,0.01222
854.97143,0.01219
852.91126,0.01193
850.85108,0.01148
848.79091,0.01098
846.73074,0.01049
844.67057,0.00998
842.61040,0.00968
840.55022,0.00970
838.49005,0.00955
836.42988,0.00910
834.36971,0.00881
832.30954,0.00872
830.24936,0.00857
828.18919,0.00820
826.12902,0.00752
824.06885,0.00689
822.00867,0.00663
819.94850,0.00638
817.88833,0.00627
815.82816,0.00656
813.76799,0.00652
811.70781,0.00559
809.64764,0.00471
807.58747,0.00445
805.52730,0.00421
803.46713,0.00398
801.40695,0.00398
799.34678,0.00408
797.28661,0.00398
795.22644,0.00364
793.16627,0.00342
791.10609,0.00336
789.04592,0.00308
786.98575,0.00262
784.92558,0.00251
782.86540,0.00281
780.80523,0.00315
778.74506,0.00351
776.68489,0.00370
774.62472,0.00340
772.56454,0.00305
770.50437,0.00307
768.44420,0.00297
766.38403,0.00259
764.32386,0.00242
762.26368,0.00251
760.20351,0.00226
758.14334,0.00204
756.08317,0.00235
754.02299,0.00259
751.96282,0.00256
749.90265,0.00212
747.84248,0.00119
745.78231,0.00057
743.72213,0.00060
741.66196,0.00086
739.60179,0.00113
737.54162,0.00124
735.48145,0.00112
733.42127,0.00087
731.36110,0.00050
729.30093,0.00018
727.24076,0.00029
725.18059,0.00107
723.12041,0.00269
721.06024,0.00337
719.00007,0.00321
716.93990,0.00230
714.87972,0.00129
712.81955,0.00079
710.75938,0.00072
708.69921,0.00099
706.63904,0.00131
704.57886,0.00157
702.51869,0.00194
700.45852,0.00237
698.39835,0.00284
696.33818,0.00356
694.27800,0.00429
692.21783,0.00452
690.15766,0.00448
688.09749,0.00457
686.03731,0.00468
683.97714,0.00484
681.91697,0.00510
679.85680,0.00499
677.79663,0.00413
675.73645,0.00313
673.67628,0.00381
671.61611,0.00586
669.55594,0.00291
667.49577,0.00000
665.43559,0.00558
663.37542,0.00480
661.31525,0.00274
659.25508,0.00205
657.19491,0.00201
655.13473,0.00212
653.07456,0.00225
651.01439,0.00265
648.95422,0.00285
646.89404,0.00211
644.83387,0.00061
642.77370,0.00000
640.71353,0.00054
638.65336,0.00167
636.59318,0.00272
634.53301,0.00338
632.47284,0.00317
630.41267,0.00229
628.35250,0.00188
626.29232,0.00172
624.23215,0.00010
622.17198,-0.00128
620.11181,-0.00123
618.05164,-0.00073
615.99146,-0.00111
613.93129,-0.00204
611.87112,-0.00273
609.81095,-0.00332
607.75077,-0.00347
605.69060,-0.00334
603.63043,-0.00251
601.57026,-0.00061
599.51009,0.00000
