3996.73391,0.00100
3994.67373,0.00072
3992.61356,0.00045
3990.55339,0.00021
3988.49322,0.00022
3986.43305,0.00048
3984.37287,0.00061
3982.31270,0.00043
3980.25253,0.00039
3978.19236,0.00075
3976.13219,0.00105
3974.07201,0.00082
3972.01184,0.00025
3969.95167,0.00000
3967.89150,0.00010
3965.83133,0.00013
3963.77115,0.00016
3961.71098,0.00028
3959.65081,0.00030
3957.59064,0.00027
3955.53046,0.00032
3953.47029,0.00036
3951.41012,0.00048
3949.34995,0.00089
3947.28978,0.00127
3945.22960,0.00104
3943.16943,0.00042
3941.10926,0.00018
3939.04909,0.00046
3936.98892,0.00074
3934.92874,0.00080
3932.86857,0.00083
3930.80840,0.00083
3928.74823,0.00053
3926.68805,0.00009
3924.62788,0.00000
3922.56771,0.00027
3920.50754,0.00064
3918.44737,0.00100
3916.38719,0.00108
3914.32702,0.00087
3912.26685,0.00081
3910.20668,0.00112
3908.14651,0.00150
3906.08633,0.00159
3904.02616,0.00134
3901.96599,0.00107
3899.90582,0.00088
3897.84565,0.00069
3895.78547,0.00066
3893.72530,0.00074
3891.66513,0.00062
3889.60496,0.00037
3887.54478,0.00035
3885.48461,0.00050
3883.42444,0.00056
3881.36427,0.00030
3879.30410,0.00000
3877.24392,0.00012
3875.18375,0.00024
3873.12358,0.00010
3871.06341,0.00014
3869.00324,0.00054
3866.94306,0.00110
3864.88289,0.00149
3862.82272,0.00140
3860.76255,0.00099
3858.70237,0.00080
3856.64220,0.00104
3854.58203,0.00123
3852.52186,0.00082
3850.46169,0.00035
3848.40151,0.00016
3846.34134,0.00013
3844.28117,0.00031
3842.22100,0.00062
3840.16083,0.00074
3838.10065,0.00063
3836.04048,0.00070
3833.98031,0.00101
3831.92014,0.00125
3829.85997,0.00137
3827.79979,0.00139
3825.73962,0.00116
3823.67945,0.00065
3821.61928,0.00014
3819.55910,0.00000
3817.49893,0.00014
3815.43876,0.00022
3813.37859,0.00044
3811.31842,0.00094
3809.25824,0.00137
3807.19807,0.00136
3805.13790,0.00112
3803.07773,0.00089
3801.01756,0.00056
3798.95738,0.00052
3796.89721,0.00095
3794.83704,0.00139
3792.77687,0.00135
3790.71670,0.00106
3788.65652,0.00099
3786.59635,0.00101
3784.53618,0.00091
3782.47601,0.00095
3780.41583,0.00100
3778.35566,0.00079
3776.29549,0.00073
3774.23532,0.00101
3772.17515,0.00125
3770.11497,0.00123
3768.05480,0.00114
3765.99463,0.00121
3763.93446,0.00147
3761.87429,0.00180
3759.81411,0.00185
3757.75394,0.00158
3755.69377,0.00160
3753.63360,0.00211
3751.57342,0.00254
3749.51325,0.00239
3747.45308,0.00207
3745.39291,0.00183
3743.33274,0.00159
3741.27256,0.00162
3739.21239,0.00178
3737.15222,0.00168
3735.09205,0.00142
3733.03188,0.00159
3730.97170,0.00207
3728.91153,0.00219
3726.85136,0.00179
3724.79119,0.00123
3722.73102,0.00086
3720.67084,0.00073
3718.61067,0.00079
3716.55050,0.00087
3714.49033,0.00097
3712.43015,0.00110
3710.36998,0.00106
3708.30981,0.00110
3706.24964,0.00137
3704.18947,0.00161
3702.12929,0.00164
3700.06912,0.00174
3698.00895,0.00204
3695.94878,0.00233
3693.88861,0.00260
3691.82843,0.00272
3689.76826,0.00233
3687.70809,0.00171
3685.64792,0.00166
3683.58775,0.00189
3681.52757,0.00204
3679.46740,0.00225
3677.40723,0.00244
3675.34706,0.00240
3673.28688,0.00260
3671.22671,0.00293
3669.16654,0.00297
3667.10637,0.00306
3665.04620,0.00336
3662.98602,0.00361
3660.92585,0.00382
3658.86568,0.00418
3656.80551,0.00454
3654.74534,0.00462
3652.68516,0.00437
3650.62499,0.00409
3648.56482,0.00410
3646.50465,0.00432
3644.44447,0.00461
3642.38430,0.00508
3640.32413,0.00591
3638.26396,0.00691
3636.20379,0.00761
3634.14361,0.00783
3632.08344,0.00785
3630.02327,0.00808
3627.96310,0.00867
3625.90293,0.00945
3623.84275,0.01007
3621.78258,0.01054
3619.72241,0.01096
3617.66224,0.01120
3615.60207,0.01133
3613.54189,0.01165
3611.48172,0.01234
3609.42155,0.01286
3607.36138,0.01297
3605.30120,0.01303
3603.24103,0.01299
3601.18086,0.01289
3599.12069,0.01296
3597.06052,0.01333
3595.00034,0.01410
3592.94017,0.01530
3590.88000,0.01630
3588.81983,0.01654
3586.75966,0.01630
3584.69948,0.01645
3582.63931,0.01706
3580.57914,0.01770
3578.51897,0.01829
3576.45879,0.01879
3574.39862,0.01915
3572.33845,0.01945
3570.27828,0.01971
3568.21811,0.01980
3566.15793,0.02011
3564.09776,0.02081
3562.03759,0.02130
3559.97742,0.02134
3557.91725,0.02129
3555.85707,0.02159
3553.79690,0.02210
3551.73673,0.02239
3549.67656,0.02250
3547.61639,0.02271
3545.55621,0.02317
3543.49604,0.02389
3541.43587,0.02456
3539.37570,0.02502
3537.31552,0.02543
3535.25535,0.02595
3533.19518,0.02649
3531.13501,0.02682
3529.07484,0.02698
3527.01466,0.02725
3524.95449,0.02748
3522.89432,0.02746
3520.83415,0.02757
3518.77398,0.02804
3516.71380,0.02858
3514.65363,0.02904
3512.59346,0.02953
3510.53329,0.03003
3508.47312,0.03046
3506.41294,0.03084
3504.35277,0.03113
3502.29260,0.03147
3500.23243,0.03191
3498.17225,0.03228
3496.11208,0.03260
3494.05191,0.03288
3491.99174,0.03297
3489.93157,0.03316
3487.87139,0.03372
3485.81122,0.03425
3483.75105,0.03446
3481.69088,0.03458
3479.63071,0.03496
3477.57053,0.03545
3475.51036,0.03574
3473.45019,0.03591
3471.39002,0.03619
3469.32984,0.03664
3467.26967,0.03715
3465.20950,0.03766
3463.14933,0.03800
3461.08916,0.03792
3459.02898,0.03768
3456.96881,0.03777
3454.90864,0.03811
3452.84847,0.03856
3450.78830,0.03908
3448.72812,0.03932
3446.66795,0.03926
3444.60778,0.03927
3442.54761,0.03949
3440.48744,0.03989
3438.42726,0.04011
3436.36709,0.03996
3434.30692,0.04003
3432.24675,0.04060
3430.18657,0.04119
3428.12640,0.04145
3426.06623,0.04152
3424.00606,0.04155
3421.94589,0.04170
3419.88571,0.04222
3417.82554,0.04268
3415.76537,0.04284
3413.70520,0.04293
3411.64503,0.04307
3409.58485,0.04330
3407.52468,0.04332
3405.46451,0.04325
3403.40434,0.04348
3401.34416,0.04370
3399.28399,0.04383
3397.22382,0.04410
3395.16365,0.04429
3393.10348,0.04439
3391.04330,0.04451
3388.98313,0.04460
3386.92296,0.04467
3384.86279,0.04477
3382.80262,0.04474
3380.74244,0.04454
3378.68227,0.04445
3376.62210,0.04457
3374.56193,0.04486
3372.50176,0.04534
3370.44158,0.04568
3368.38141,0.04558
3366.32124,0.04550
3364.26107,0.04583
3362.20089,0.04616
3360.14072,0.04628
3358.08055,0.04635
3356.02038,0.04646
3353.96021,0.04667
3351.90003,0.04689
3349.83986,0.04691
3347.77969,0.04663
3345.71952,0.04633
3343.65935,0.04653
3341.59917,0.04692
3339.53900,0.04686
3337.47883,0.04659
3335.41866,0.04654
3333.35849,0.04656
3331.29831,0.04648
3329.23814,0.04642
3327.17797,0.04639
3325.11780,0.04654
3323.05762,0.04688
3320.99745,0.04695
3318.93728,0.04687
3316.87711,0.04702
3314.81694,0.04722
3312.75676,0.04739
3310.69659,0.04740
3308.63642,0.04701
3306.57625,0.04670
3304.51608,0.04690
3302.45590,0.04721
3300.39573,0.04738
3298.33556,0.04761
3296.27539,0.04756
3294.21521,0.04722
3292.15504,0.04726
3290.09487,0.04749
3288.03470,0.04736
3285.97453,0.04715
3283.91435,0.04730
3281.85418,0.04758
3279.79401,0.04768
3277.73384,0.04766
3275.67367,0.04762
3273.61349,0.04760
3271.55332,0.04757
3269.49315,0.04765
3267.43298,0.04785
3265.37281,0.04791
3263.31263,0.04784
3261.25246,0.04785
3259.19229,0.04791
3257.13212,0.04800
3255.07194,0.04811
3253.01177,0.04784
3250.95160,0.04727
3248.89143,0.04705
3246.83126,0.04731
3244.77108,0.04769
3242.71091,0.04781
3240.65074,0.04771
3238.59057,0.04768
3236.53040,0.04774
3234.47022,0.04753
3232.41005,0.04717
3230.34988,0.04708
3228.28971,0.04726
3226.22954,0.04738
3224.16936,0.04720
3222.10919,0.04689
3220.04902,0.04678
3217.98885,0.04696
3215.92867,0.04714
3213.86850,0.04712
3211.80833,0.04705
3209.74816,0.04696
3207.68799,0.04667
3205.62781,0.04638
3203.56764,0.04636
3201.50747,0.04645
3199.44730,0.04641
3197.38713,0.04627
3195.32695,0.04615
3193.26678,0.04603
3191.20661,0.04607
3189.14644,0.04619
3187.08626,0.04595
3185.02609,0.04551
3182.96592,0.04535
3180.90575,0.04537
3178.84558,0.04519
3176.78540,0.04491
3174.72523,0.04494
3172.66506,0.04529
3170.60489,0.04542
3168.54472,0.04514
3166.48454,0.04498
3164.42437,0.04509
3162.36420,0.04503
3160.30403,0.04477
3158.24386,0.04449
3156.18368,0.04431
3154.12351,0.04438
3152.06334,0.04445
3150.00317,0.04406
3147.94299,0.04335
3145.88282,0.04292
3143.82265,0.04292
3141.76248,0.04301
3139.70231,0.04300
3137.64213,0.04285
3135.58196,0.04258
3133.52179,0.04242
3131.46162,0.04248
3129.40145,0.04253
3127.34127,0.04235
3125.28110,0.04209
3123.22093,0.04195
3121.16076,0.04177
3119.10058,0.04135
3117.04041,0.04084
3114.98024,0.04063
3112.92007,0.04077
3110.85990,0.04101
3108.79972,0.04094
3106.73955,0.04035
3104.67938,0.03975
3102.61921,0.03963
3100.55904,0.03976
3098.49886,0.03977
3096.43869,0.03961
3094.37852,0.03937
3092.31835,0.03918
3090.25818,0.03914
3088.19800,0.03917
3086.13783,0.03892
3084.07766,0.03836
3082.01749,0.03816
3079.95731,0.03849
3077.89714,0.03873
3075.83697,0.03860
3073.77680,0.03821
3071.71663,0.03769
3069.65645,0.03726
3067.59628,0.03697
3065.53611,0.03673
3063.47594,0.03637
3061.41577,0.03599
3059.35559,0.03587
3057.29542,0.03596
3055.23525,0.03607
3053.17508,0.03610
3051.11491,0.03593
3049.05473,0.03560
3046.99456,0.03533
3044.93439,0.03508
3042.87422,0.03480
3040.81404,0.03458
3038.75387,0.03447
3036.69370,0.03436
3034.63353,0.03409
3032.57336,0.03368
3030.51318,0.03340
3028.45301,0.03325
3026.39284,0.03314
3024.33267,0.03314
3022.27250,0.03296
3020.21232,0.03252
3018.15215,0.03211
3016.09198,0.03184
3014.03181,0.03164
3011.97163,0.03150
3009.91146,0.03136
3007.85129,0.03122
3005.79112,0.03106
3003.73095,0.03083
3001.67077,0.03077
2999.61060,0.03078
2997.55043,0.03054
2995.49026,0.03016
2993.43009,0.02986
2991.36991,0.02971
2989.30974,0.02958
2987.24957,0.02934
2985.18940,0.02912
2983.12923,0.02903
2981.06905,0.02899
2979.00888,0.02889
2976.94871,0.02880
2974.88854,0.02877
2972.82836,0.02870
2970.76819,0.02867
2968.70802,0.02869
2966.64785,0.02860
2964.58768,0.02831
2962.52750,0.02801
2960.46733,0.02788
2958.40716,0.02788
2956.34699,0.02779
2954.28682,0.02765
2952.22664,0.02756
2950.16647,0.02741
2948.10630,0.02740
2946.04613,0.02752
2943.98596,0.02746
2941.92578,0.02738
2939.86561,0.02757
2937.80544,0.02762
2935.74527,0.02719
2933.68509,0.02679
2931.62492,0.02684
2929.56475,0.02710
2927.50458,0.02718
2925.44441,0.02683
2923.38423,0.02618
2921.32406,0.02565
2919.26389,0.02544
2917.20372,0.02546
2915.14355,0.02558
2913.08337,0.02580
2911.02320,0.02606
2908.96303,0.02603
2906.90286,0.02580
2904.84268,0.02557
2902.78251,0.02519
2900.72234,0.02498
2898.66217,0.02514
2896.60200,0.02522
2894.54182,0.02500
2892.48165,0.02457
2890.42148,0.02433
2888.36131,0.02432
2886.30114,0.02431
2884.24096,0.02425
2882.18079,0.02407
2880.12062,0.02384
2878.06045,0.02380
2876.00028,0.02384
2873.94010,0.02382
2871.87993,0.02371
2869.81976,0.02354
2867.75959,0.02350
2865.69941,0.02355
2863.63924,0.02354
2861.57907,0.02340
2859.51890,0.02313
2857.45873,0.02282
2855.39855,0.02255
2853.33838,0.02247
2851.27821,0.02249
2849.21804,0.02240
2847.15787,0.02225
2845.09769,0.02205
2843.03752,0.02182
2840.97735,0.02160
2838.91718,0.02146
2836.85700,0.02137
2834.79683,0.02122
2832.73666,0.02100
2830.67649,0.02086
2828.61632,0.02065
2826.55614,0.02031
2824.49597,0.02008
2822.43580,0.02008
2820.37563,0.02012
2818.31546,0.02012
2816.25528,0.02004
2814.19511,0.01989
2812.13494,0.01986
2810.07477,0.01985
2808.01460,0.01968
2805.95442,0.01949
2803.89425,0.01923
2801.83408,0.01899
2799.77391,0.01895
2797.71373,0.01887
2795.65356,0.01873
2793.59339,0.01869
2791.53322,0.01878
2789.47305,0.01889
2787.41287,0.01883
2785.35270,0.01865
2783.29253,0.01863
2781.23236,0.01868
2779.17219,0.01845
2777.11201,0.01809
2775.05184,0.01788
2772.99167,0.01765
2770.93150,0.01742
2768.87133,0.01740
2766.81115,0.01756
2764.75098,0.01762
2762.69081,0.01749
2760.63064,0.01739
2758.57046,0.01725
2756.51029,0.01687
2754.45012,0.01656
2752.38995,0.01651
2750.32978,0.01655
2748.26960,0.01648
2746.20943,0.01643
2744.14926,0.01658
2742.08909,0.01665
2740.02892,0.01649
2737.96874,0.01631
2735.90857,0.01611
2733.84840,0.01595
2731.78823,0.01590
2729.72805,0.01575
2727.66788,0.01551
2725.60771,0.01544
2723.54754,0.01547
2721.48737,0.01542
2719.42719,0.01533
2717.36702,0.01518
2715.30685,0.01502
2713.24668,0.01510
2711.18651,0.01523
2709.12633,0.01509
2707.06616,0.01479
2705.00599,0.01453
2702.94582,0.01439
2700.88565,0.01436
2698.82547,0.01427
2696.76530,0.01396
2694.70513,0.01377
2692.64496,0.01385
2690.58478,0.01384
2688.52461,0.01370
2686.46444,0.01366
2684.40427,0.01358
2682.34410,0.01336
2680.28392,0.01324
2678.22375,0.01314
2676.16358,0.01283
2674.10341,0.01262
2672.04324,0.01266
2669.98306,0.01286
2667.92289,0.01300
2665.86272,0.01290
2663.80255,0.01280
2661.74238,0.01287
2659.68220,0.01283
2657.62203,0.01251
2655.56186,0.01213
2653.50169,0.01212
2651.44151,0.01229
2649.38134,0.01222
2647.32117,0.01195
2645.26100,0.01171
2643.20083,0.01149
2641.14065,0.01117
2639.08048,0.01083
2637.02031,0.01062
2634.96014,0.01062
2632.89997,0.01080
2630.83979,0.01096
2628.77962,0.01104
2626.71945,0.01109
2624.65928,0.01099
2622.59910,0.01080
2620.53893,0.01078
2618.47876,0.01089
2616.41859,0.01083
2614.35842,0.01049
2612.29824,0.01019
2610.23807,0.01008
2608.17790,0.00998
2606.11773,0.00981
2604.05756,0.00965
2601.99738,0.00956
2599.93721,0.00969
2597.87704,0.01007
2595.81687,0.01029
2593.75670,0.01017
2591.69652,0.00981
2589.63635,0.00941
2587.57618,0.00912
2585.51601,0.00900
2583.45583,0.00901
2581.39566,0.00896
2579.33549,0.00901
2577.27532,0.00928
2575.21515,0.00944
2573.15497,0.00944
2571.09480,0.00951
2569.03463,0.00949
2566.97446,0.00914
2564.91429,0.00881
2562.85411,0.00897
2560.79394,0.00930
2558.73377,0.00924
2556.67360,0.00898
2554.61342,0.00896
2552.55325,0.00912
2550.49308,0.00918
2548.43291,0.00904
2546.37274,0.00910
2544.31256,0.00952
2542.25239,0.00958
2540.19222,0.00931
2538.13205,0.00929
2536.07188,0.00925
2534.01170,0.00909
2531.95153,0.00925
2529.89136,0.00955
2527.83119,0.00958
2525.77102,0.00947
2523.71084,0.00951
2521.65067,0.00959
2519.59050,0.00961
2517.53033,0.00961
2515.47015,0.00971
2513.40998,0.00983
2511.34981,0.00980
2509.28964,0.00967
2507.22947,0.00950
2505.16929,0.00941
2503.10912,0.00948
2501.04895,0.00966
2498.98878,0.00985
2496.92861,0.00987
2494.86843,0.00984
2492.80826,0.00970
2490.74809,0.00936
2488.68792,0.00904
2486.62775,0.00892
2484.56757,0.00913
2482.50740,0.00950
2480.44723,0.00968
2478.38706,0.00948
2476.32688,0.00909
2474.26671,0.00890
2472.20654,0.00899
2470.14637,0.00938
2468.08620,0.00981
2466.02602,0.00968
2463.96585,0.00930
2461.90568,0.00955
2459.84551,0.01008
2457.78534,0.01013
2455.72516,0.01011
2453.66499,0.01016
2451.60482,0.00998
2449.54465,0.01002
2447.48447,0.01019
2445.42430,0.00993
2443.36413,0.00965
2441.30396,0.00961
2439.24379,0.00955
2437.18361,0.00952
2435.12344,0.00968
2433.06327,0.00996
2431.00310,0.01035
2428.94293,0.01053
2426.88275,0.01016
2424.82258,0.00976
2422.76241,0.00972
2420.70224,0.00986
2418.64207,0.00980
2416.58189,0.00949
2414.52172,0.00946
2412.46155,0.00971
2410.40138,0.00992
2408.34120,0.00992
2406.28103,0.00977
2404.22086,0.00965
2402.16069,0.00961
2400.10052,0.00968
2398.04034,0.00983
2395.98017,0.00986
2393.92000,0.00975
2391.85983,0.00970
2389.79966,0.00974
2387.73948,0.00965
2385.67931,0.00952
2383.61914,0.00972
2381.55897,0.01027
2379.49880,0.01070
2377.43862,0.01073
2375.37845,0.01077
2373.31828,0.01079
2371.25811,0.01087
2369.19793,0.01133
2367.13776,0.01132
2365.07759,0.01096
2363.01742,0.01170
2360.95725,0.01075
2358.89707,0.00897
2356.83690,0.00842
2354.77673,0.00982
2352.71656,0.01071
2350.65639,0.00872
2348.59621,0.00745
2346.53604,0.00996
2344.47587,0.01008
2342.41570,0.00926
2340.35552,0.00938
2338.29535,0.00927
2336.23518,0.00828
2334.17501,0.00712
2332.11484,0.00756
2330.05466,0.00903
2327.99449,0.01040
2325.93432,0.01057
2323.87415,0.01054
2321.81398,0.01024
2319.75380,0.01049
2317.69363,0.01045
2315.63346,0.01032
2313.57329,0.00989
2311.51312,0.00952
2309.45294,0.00970
2307.39277,0.00979
2305.33260,0.00968
2303.27243,0.00986
2301.21225,0.01022
2299.15208,0.01007
2297.09191,0.00956
2295.03174,0.00908
2292.97157,0.00894
2290.91139,0.00931
2288.85122,0.00959
2286.79105,0.00935
2284.73088,0.00903
2282.67071,0.00896
2280.61053,0.00904
2278.55036,0.00904
2276.49019,0.00863
2274.43002,0.00808
2272.36984,0.00792
2270.30967,0.00795
2268.24950,0.00780
2266.18933,0.00756
2264.12916,0.00741
2262.06898,0.00736
2260.00881,0.00738
2257.94864,0.00745
2255.88847,0.00759
2253.82830,0.00745
2251.76812,0.00708
2249.70795,0.00723
2247.64778,0.00784
2245.58761,0.00768
2243.52744,0.00650
2241.46726,0.00545
2239.40709,0.00547
2237.34692,0.00623
2235.28675,0.00689
2233.22657,0.00717
2231.16640,0.00714
2229.10623,0.00726
2227.04606,0.00753
2224.98589,0.00761
2222.92571,0.00786
2220.86554,0.00825
2218.80537,0.00802
2216.74520,0.00733
2214.68503,0.00692
2212.62485,0.00685
2210.56468,0.00686
2208.50451,0.00680
2206.44434,0.00670
2204.38417,0.00688
2202.32399,0.00701
2200.26382,0.00643
2198.20365,0.00588
2196.14348,0.00625
2194.08330,0.00684
2192.02313,0.00707
2189.96296,0.00684
2187.90279,0.00647
2185.84262,0.00615
2183.78244,0.00527
2181.72227,0.00423
2179.66210,0.00378
2177.60193,0.00390
2175.54176,0.00471
2173.48158,0.00585
2171.42141,0.00664
2169.36124,0.00688
2167.30107,0.00653
2165.24089,0.00586
2163.18072,0.00458
2161.12055,0.00217
2159.06038,0.00000
2157.00021,0.00012
2154.94003,0.00215
2152.87986,0.00423
2150.81969,0.00498
2148.75952,0.00421
2146.69935,0.00325
2144.63917,0.00268
2142.57900,0.00265
2140.51883,0.00368
2138.45866,0.00443
2136.39849,0.00392
2134.33831,0.00336
2132.27814,0.00366
2130.21797,0.00450
2128.15780,0.00522
2126.09762,0.00574
2124.03745,0.00572
2121.97728,0.00507
2119.91711,0.00498
2117.85694,0.00549
2115.79676,0.00567
2113.73659,0.00541
2111.67642,0.00497
2109.61625,0.00491
2107.55608,0.00547
2105.49590,0.00588
2103.43573,0.00542
2101.37556,0.00474
2099.31539,0.00426
2097.25521,0.00412
2095.19504,0.00472
2093.13487,0.00513
2091.07470,0.00484
2089.01453,0.00459
2086.95435,0.00473
2084.89418,0.00530
2082.83401,0.00570
2080.77384,0.00494
2078.71367,0.00365
2076.65349,0.00344
2074.59332,0.00435
2072.53315,0.00482
2070.47298,0.00458
2068.41281,0.00465
2066.35263,0.00480
2064.29246,0.00431
2062.23229,0.00351
2060.17212,0.00295
2058.11194,0.00325
2056.05177,0.00411
2053.99160,0.00412
2051.93143,0.00302
2049.87126,0.00232
2047.81108,0.00338
2045.75091,0.00513
2043.69074,0.00517
2041.63057,0.00376
2039.57040,0.00295
2037.51022,0.00323
2035.45005,0.00409
2033.38988,0.00476
2031.32971,0.00430
2029.26954,0.00327
2027.20936,0.00234
2025.14919,0.00159
2023.08902,0.00163
2021.02885,0.00259
2018.96867,0.00371
2016.90850,0.00403
2014.84833,0.00335
2012.78816,0.00268
2010.72799,0.00250
2008.66781,0.00210
2006.60764,0.00101
2004.54747,0.00005
2002.48730,0.00000
2000.42713,0.00079
1998.36695,0.00189
1996.30678,0.00287
1994.24661,0.00363
1992.18644,0.00404
1990.12626,0.00381
1988.06609,0.00285
1986.00592,0.00206
1983.94575,0.00221
1981.88558,0.00235
1979.82540,0.00148
1977.76523,0.00071
1975.70506,0.00150
1973.64489,0.00248
1971.58472,0.00231
1969.52454,0.00224
1967.46437,0.00240
1965.40420,0.00153
1963.34403,0.00051
1961.28386,0.00056
1959.22368,0.00110
1957.16351,0.00159
1955.10334,0.00210
1953.04317,0.00229
1950.98299,0.00238
1948.92282,0.00267
1946.86265,0.00257
1944.80248,0.00195
1942.74231,0.00151
1940.68213,0.00158
1938.62196,0.00183
1936.56179,0.00159
1934.50162,0.00088
1932.44145,0.00066
1930.38127,0.00136
1928.32110,0.00222
1926.26093,0.00276
1924.20076,0.00283
1922.14059,0.00247
1920.08041,0.00260
1918.02024,0.00317
1915.96007,0.00300
1913.89990,0.00229
1911.83972,0.00176
1909.77955,0.00158
1907.71938,0.00178
1905.65921,0.00210
1903.59904,0.00223
1901.53886,0.00233
1899.47869,0.00245
1897.41852,0.00234
1895.35835,0.00213
1893.29818,0.00198
1891.23800,0.00176
1889.17783,0.00179
1887.11766,0.00256
1885.05749,0.00344
1882.99731,0.00353
1880.93714,0.00297
1878.87697,0.00255
1876.81680,0.00270
1874.75663,0.00312
1872.69645,0.00314
1870.63628,0.00261
1868.57611,0.00219
1866.51594,0.00236
1864.45577,0.00276
1862.39559,0.00285
1860.33542,0.00258
1858.27525,0.00218
1856.21508,0.00203
1854.15491,0.00226
1852.09473,0.00244
1850.03456,0.00235
1847.97439,0.00226
1845.91422,0.00231
1843.85404,0.00237
1841.79387,0.00245
1839.73370,0.00248
1837.67353,0.00242
1835.61336,0.00250
1833.55318,0.00281
1831.49301,0.00294
1829.43284,0.00260
1827.37267,0.00221
1825.31250,0.00231
1823.25232,0.00276
1821.19215,0.00306
1819.13198,0.00295
1817.07181,0.00270
1815.01163,0.00268
1812.95146,0.00287
1810.89129,0.00303
1808.83112,0.00302
1806.77095,0.00288
1804.71077,0.00278
1802.65060,0.00277
1800.59043,0.00277
1798.53026,0.00276
1796.47009,0.00278
1794.40991,0.00287
1792.34974,0.00309
1790.28957,0.00333
1788.22940,0.00341
1786.16923,0.00331
1784.10905,0.00324
1782.04888,0.00327
1779.98871,0.00325
1777.92854,0.00316
1775.86836,0.00309
1773.80819,0.00300
1771.74802,0.00293
1769.68785,0.00299
1767.62768,0.00313
1765.56750,0.00323
1763.50733,0.00331
1761.44716,0.00350
1759.38699,0.00368
1757.32682,0.00377
1755.26664,0.00393
1753.20647,0.00413
1751.14630,0.00428
1749.08613,0.00436
1747.02596,0.00437
1744.96578,0.00435
1742.90561,0.00439
1740.84544,0.00443
1738.78527,0.00440
1736.72509,0.00430
1734.66492,0.00436
1732.60475,0.00492
1730.54458,0.00559
1728.48441,0.00599
1726.42423,0.00628
1724.36406,0.00654
1722.30389,0.00660
1720.24372,0.00643
1718.18355,0.00619
1716.12337,0.00628
1714.06320,0.00677
1712.00303,0.00730
1709.94286,0.00763
1707.88268,0.00776
1705.82251,0.00794
1703.76234,0.00836
1701.70217,0.00872
1699.64200,0.00882
1697.58182,0.00906
1695.52165,0.00957
1693.46148,0.01006
1691.40131,0.01043
1689.34114,0.01074
1687.28096,0.01104
1685.22079,0.01135
1683.16062,0.01189
1681.10045,0.01266
1679.04028,0.01333
1676.98010,0.01386
1674.91993,0.01435
1672.85976,0.01479
1670.79959,0.01516
1668.73941,0.01558
1666.67924,0.01604
1664.61907,0.01637
1662.55890,0.01666
1660.49873,0.01707
1658.43855,0.01755
1656.37838,0.01796
1654.31821,0.01808
1652.25804,0.01784
1650.19787,0.01751
1648.13769,0.01734
1646.07752,0.01748
1644.01735,0.01785
1641.95718,0.01799
1639.89701,0.01785
1637.83683,0.01759
1635.77666,0.01728
1633.71649,0.01709
1631.65632,0.01702
1629.59614,0.01683
1627.53597,0.01641
1625.47580,0.01591
1623.41563,0.01551
1621.35546,0.01530
1619.29528,0.01514
1617.23511,0.01495
1615.17494,0.01498
1613.11477,0.01518
1611.05460,0.01514
1608.99442,0.01468
1606.93425,0.01406
1604.87408,0.01363
1602.81391,0.01343
1600.75373,0.01327
1598.69356,0.01296
1596.63339,0.01245
1594.57322,0.01186
1592.51305,0.01141
1590.45287,0.01106
1588.39270,0.01068
1586.33253,0.01026
1584.27236,0.00991
1582.21219,0.00965
1580.15201,0.00941
1578.09184,0.00909
1576.03167,0.00856
1573.97150,0.00804
1571.91133,0.00773
1569.85115,0.00749
1567.79098,0.00725
1565.73081,0.00701
1563.67064,0.00685
1561.61046,0.00676
1559.55029,0.00642
1557.49012,0.00581
1555.42995,0.00543
1553.36978,0.00526
1551.30960,0.00530
1549.24943,0.00541
1547.18926,0.00532
1545.12909,0.00496
1543.06892,0.00462
1541.00874,0.00433
1538.94857,0.00399
1536.88840,0.00385
1534.82823,0.00374
1532.76805,0.00346
1530.70788,0.00328
1528.64771,0.00325
1526.58754,0.00323
1524.52737,0.00329
1522.46719,0.00332
1520.40702,0.00292
1518.34685,0.00231
1516.28668,0.00214
1514.22651,0.00244
1512.16633,0.00262
1510.10616,0.00243
1508.04599,0.00196
1505.98582,0.00163
1503.92565,0.00177
1501.86547,0.00199
1499.80530,0.00195
1497.74513,0.00180
1495.68496,0.00186
1493.62478,0.00205
1491.56461,0.00209
1489.50444,0.00198
1487.44427,0.00189
1485.38410,0.00194
1483.32392,0.00201
1481.26375,0.00208
1479.20358,0.00217
1477.14341,0.00218
1475.08324,0.00210
1473.02306,0.00227
1470.96289,0.00265
1468.90272,0.00284
1466.84255,0.00281
1464.78238,0.00268
1462.72220,0.00251
1460.66203,0.00231
1458.60186,0.00222
1456.54169,0.00254
1454.48151,0.00299
1452.42134,0.00312
1450.36117,0.00310
1448.30100,0.00315
1446.24083,0.00314
1444.18065,0.00298
1442.12048,0.00278
1440.06031,0.00265
1438.00014,0.00255
1435.93997,0.00249
1433.87979,0.00252
1431.81962,0.00268
1429.75945,0.00298
1427.69928,0.00326
1425.63910,0.00336
1423.57893,0.00334
1421.51876,0.00332
1419.45859,0.00338
1417.39842,0.00356
1415.33824,0.00372
1413.27807,0.00369
1411.21790,0.00359
1409.15773,0.00352
1407.09756,0.00337
1405.03738,0.00310
1402.97721,0.00283
1400.91704,0.00265
1398.85687,0.00269
1396.79670,0.00285
1394.73652,0.00280
1392.67635,0.00253
1390.61618,0.00232
1388.55601,0.00224
1386.49583,0.00232
1384.43566,0.00257
1382.37549,0.00279
1380.31532,0.00283
1378.25515,0.00273
1376.19497,0.00269
1374.13480,0.00270
1372.07463,0.00273
1370.01446,0.00272
1367.95429,0.00270
1365.89411,0.00265
1363.83394,0.00249
1361.77377,0.00223
1359.71360,0.00202
1357.65343,0.00192
1355.59325,0.00190
1353.53308,0.00190
1351.47291,0.00184
1349.41274,0.00170
1347.35256,0.00156
1345.29239,0.00158
1343.23222,0.00177
1341.17205,0.00194
1339.11188,0.00195
1337.05170,0.00186
1334.99153,0.00170
1332.93136,0.00158
1330.87119,0.00158
1328.81102,0.00160
1326.75084,0.00152
1324.69067,0.00137
1322.63050,0.00122
1320.57033,0.00117
1318.51015,0.00123
1316.44998,0.00133
1314.38981,0.00140
1312.32964,0.00147
1310.26947,0.00161
1308.20929,0.00169
1306.14912,0.00164
1304.08895,0.00159
1302.02878,0.00155
1299.96861,0.00151
1297.90843,0.00156
1295.84826,0.00173
1293.78809,0.00181
1291.72792,0.00167
1289.66775,0.00161
1287.60757,0.00180
1285.54740,0.00202
1283.48723,0.00211
1281.42706,0.00217
1279.36688,0.00226
1277.30671,0.00229
1275.24654,0.00231
1273.18637,0.00238
1271.12620,0.00244
1269.06602,0.00247
1267.00585,0.00254
1264.94568,0.00259
1262.88551,0.00256
1260.82534,0.00254
1258.76516,0.00265
1256.70499,0.00282
1254.64482,0.00291
1252.58465,0.00280
1250.52447,0.00255
1248.46430,0.00245
1246.40413,0.00252
1244.34396,0.00251
1242.28379,0.00230
1240.22361,0.00208
1238.16344,0.00198
1236.10327,0.00197
1234.04310,0.00194
1231.98293,0.00173
1229.92275,0.00135
1227.86258,0.00110
1225.80241,0.00107
1223.74224,0.00095
1221.68207,0.00061
1219.62189,0.00034
1217.56172,0.00028
1215.50155,0.00034
1213.44138,0.00041
1211.38120,0.00033
1209.32103,0.00012
1207.26086,0.00000
1205.20069,0.00002
1203.14052,0.00001
1201.08034,-0.00013
1199.02017,-0.00021
1196.96000,-0.00023
1194.89983,-0.00028
1192.83966,-0.00009
1190.77948,0.00036
1188.71931,0.00074
1186.65914,0.00097
1184.59897,0.00127
1182.53880,0.00181
1180.47862,0.00240
1178.41845,0.00283
1176.35828,0.00323
1174.29811,0.00377
1172.23793,0.00435
1170.17776,0.00481
1168.11759,0.00523
1166.05742,0.00580
1163.99725,0.00667
1161.93707,0.00767
1159.87690,0.00840
1157.81673,0.00885
1155.75656,0.00941
1153.69639,0.01008
1151.63621,0.01052
1149.57604,0.01094
1147.51587,0.01159
1145.45570,0.01235
1143.39552,0.01322
1141.33535,0.01410
1139.27518,0.01473
1137.21501,0.01527
1135.15484,0.01595
1133.09466,0.01675
1131.03449,0.01762
1128.97432,0.01867
1126.91415,0.01990
1124.85398,0.02089
1122.79380,0.02158
1120.73363,0.02241
1118.67346,0.02345
1116.61329,0.02453
1114.55312,0.02566
1112.49294,0.02684
1110.43277,0.02797
1108.37260,0.02921
1106.31243,0.03060
1104.25225,0.03195
1102.19208,0.03315
1100.13191,0.03421
1098.07174,0.03522
1096.01157,0.03623
1093.95139,0.03716
1091.89122,0.03796
1089.83105,0.03864
1087.77088,0.03937
1085.71071,0.04038
1083.65053,0.04159
1081.59036,0.04270
1079.53019,0.04354
1077.47002,0.04417
1075.40985,0.04463
1073.34967,0.04509
1071.28950,0.04559
1069.22933,0.04587
1067.16916,0.04597
1065.10898,0.04609
1063.04881,0.04616
1060.98864,0.04599
1058.92847,0.04574
1056.86830,0.04564
1054.80812,0.04540
1052.74795,0.04477
1050.68778,0.04412
1048.62761,0.04353
1046.56744,0.04267
1044.50726,0.04153
1042.44709,0.04034
1040.38692,0.03932
1038.32675,0.03846
1036.26657,0.03757
1034.20640,0.03656
1032.14623,0.03547
1030.08606,0.03434
1028.02589,0.03335
1025.96571,0.03259
1023.90554,0.03182
1021.84537,0.03096
1019.78520,0.03002
1017.72503,0.02898
1015.66485,0.02794
1013.60468,0.02721
1011.54451,0.02668
1009.48434,0.02612
1007.42417,0.02579
1005.36399,0.02583
1003.30382,0.02592
1001.24365,0.02584
999.18348,0.02598
997.12330,0.02668
995.06313,0.02761
993.00296,0.02851
990.94279,0.02937
988.88262,0.03002
986.82244,0.03042
984.76227,0.03075
982.70210,0.03084
980.64193,0.03046
978.58176,0.02981
976.52158,0.02913
974.46141,0.02832
972.40124,0.02726
970.34107,0.02599
968.28089,0.02462
966.22072,0.02335
964.16055,0.02201
962.10038,0.02074
960.04021,0.01995
957.98003,0.01922
955.91986,0.01805
953.85969,0.01693
951.79952,0.01625
949.73935,0.01584
947.67917,0.01533
945.61900,0.01480
943.55883,0.01450
941.49866,0.01430
939.43849,0.01404
937.37831,0.01368
935.31814,0.01350
933.25797,0.01360
931.19780,0.01350
929.13762,0.01320
927.07745,0.01310
925.01728,0.01317
922.95711,0.01307
920.89694,0.01250
918.83676,0.01169
916.77659,0.01119
914.71642,0.01098
912.65625,0.01061
910.59608,0.01000
908.53590,0.00948
906.47573,0.00932
904.41556,0.00952
902.35539,0.00959
900.29522,0.00936
898.23504,0.00932
896.17487,0.00943
894.11470,0.00931
892.05453,0.00922
889.99435,0.00936
887.93418,0.00947
885.87401,0.00949
883.81384,0.00966
881.75367,0.01011
879.69349,0.01076
877.63332,0.01138
875.57315,0.01165
873.51298,0.01188
871.45281,0.01236
869.39263,0.01281
867.33246,0.01319
865.27229,0.01375
863.21212,0.01407
861.15194,0.01372
859.09177,0.01322
857.03160,0.01287
854.97143,0.01251
852.91126,0.01232
850.85108,0.01236
848.79091,0.01247
846.73074,0.01241
844.67057,0.01186
842.61040,0.01095
840.55022,0.01022
838.49005,0.00996
836.42988,0.00998
834.36971,0.00990
832.30954,0.00953
830.24936,0.00871
828.18919,0.00771
826.12902,0.00692
824.06885,0.00636
822.00867,0.00596
819.94850,0.00572
817.88833,0.00585
815.82816,0.00612
813.76799,0.00593
811.70781,0.00538
809.64764,0.00499
807.58747,0.00493
805.52730,0.00487
803.46713,0.00455
801.40695,0.00439
799.34678,0.00445
797.28661,0.00413
795.22644,0.00350
793.16627,0.00322
791.10609,0.00334
789.04592,0.00356
786.98575,0.00380
784.92558,0.00382
782.86540,0.00351
780.80523,0.00330
778.74506,0.00353
776.68489,0.00392
774.62472,0.00411
772.56454,0.00387
770.50437,0.00289
768.44420,0.00190
766.38403,0.00186
764.32386,0.00240
762.26368,0.00277
760.20351,0.00312
758.14334,0.00301
756.08317,0.00232
754.02299,0.00193
751.96282,0.00211
749.90265,0.00247
747.84248,0.00251
745.78231,0.00235
743.72213,0.00225
741.66196,0.00208
739.60179,0.00185
737.54162,0.00202
735.48145,0.00271
733.42127,0.00318
731.36110,0.00286
729.30093,0.00217
727.24076,0.00205
725.18059,0.00252
723.12041,0.00258
721.06024,0.00236
719.00007,0.00161
716.93990,0.00166
714.87972,0.00254
712.81955,0.00337
710.75938,0.00389
708.69921,0.00385
706.63904,0.00342
704.57886,0.00299
702.51869,0.00260
700.45852,0.00232
698.39835,0.00229
696.33818,0.00262
694.27800,0.00290
692.21783,0.00226
690.15766,0.00098
688.09749,0.00016
686.03731,0.00009
683.97714,0.00058
681.91697,0.00134
679.85680,0.00194
677.79663,0.00250
675.73645,0.00310
673.67628,0.00261
671.61611,0.00084
669.55594,0.00312
667.49577,0.00644
665.43559,0.00168
663.37542,0.00256
661.31525,0.00373
659.25508,0.00341
657.19491,0.00314
655.13473,0.00382
653.07456,0.00504
651.01439,0.00583
648.95422,0.00534
646.89404,0.00349
644.83387,0.00179
642.77370,0.00062
640.71353,0.00000
638.65336,0.00040
636.59318,0.00205
634.53301,0.00396
632.47284,0.00496
630.41267,0.00436
628.35250,0.00215
626.29232,-0.00039
624.23215,-0.00063
622.17198,0.00095
620.11181,0.00249
618.05164,0.00350
615.99146,0.00318
613.93129,0.00157
611.87112,-0.00036
609.81095,-0.00148
607.75077,-0.00102
605.69060,0.00052
603.63043,0.00195
601.57026,0.00179
599.51009,0.00000
