3996.73391,0.00099
3994.67373,0.00071
3992.61356,0.00044
3990.55339,0.00020
3988.49322,0.00021
3986.43305,0.00048
3984.37287,0.00060
3982.31270,0.00043
3980.25253,0.00039
3978.19236,0.00074
3976.13219,0.00105
3974.07201,0.00081
3972.01184,0.00025
3969.95167,0.00000
3967.89150,0.00010
3965.83133,0.00013
3963.77115,0.00016
3961.71098,0.00029
3959.65081,0.00031
3957.59064,0.00028
3955.53046,0.00032
3953.47029,0.00036
3951.41012,0.00049
3949.34995,0.00090
3947.28978,0.00128
3945.22960,0.00105
3943.16943,0.00043
3941.10926,0.00019
3939.04909,0.00047
3936.98892,0.00075
3934.92874,0.00081
3932.86857,0.00085
3930.80840,0.00085
3928.74823,0.00054
3926.68805,0.00011
3924.62788,0.00002
3922.56771,0.00029
3920.50754,0.00066
3918.44737,0.00102
3916.38719,0.00110
3914.32702,0.00089
3912.26685,0.00083
3910.20668,0.00114
3908.14651,0.00153
3906.08633,0.00161
3904.02616,0.00137
3901.96599,0.00110
3899.90582,0.00091
3897.84565,0.00072
3895.78547,0.00069
3893.72530,0.00078
3891.66513,0.00066
3889.60496,0.00040
3887.54478,0.00038
3885.48461,0.00054
3883.42444,0.00060
3881.36427,0.00034
3879.30410,0.00004
3877.24392,0.00016
3875.18375,0.00029
3873.12358,0.00014
3871.06341,0.00018
3869.00324,0.00059
3866.94306,0.00115
3864.88289,0.00154
3862.82272,0.00144
3860.76255,0.00104
3858.70237,0.00085
3856.64220,0.00109
3854.58203,0.00129
3852.52186,0.00088
3850.46169,0.00040
3848.40151,0.00022
3846.34134,0.00019
3844.28117,0.00036
3842.22100,0.00068
3840.16083,0.00080
3838.10065,0.00069
3836.04048,0.00076
3833.98031,0.00107
3831.92014,0.00131
3829.85997,0.00143
3827.79979,0.00145
3825.73962,0.00122
3823.67945,0.00072
3821.61928,0.00020
3819.55910,0.00007
3817.49893,0.00021
3815.43876,0.00029
3813.37859,0.00051
3811.31842,0.00101
3809.25824,0.00144
3807.19807,0.00143
3805.13790,0.00120
3803.07773,0.00097
3801.01756,0.00064
3798.95738,0.00059
3796.89721,0.00102
3794.83704,0.00147
3792.77687,0.00143
3790.71670,0.00114
3788.65652,0.00107
3786.59635,0.00109
3784.53618,0.00099
3782.47601,0.00104
3780.41583,0.00108
3778.35566,0.00087
3776.29549,0.00082
3774.23532,0.00110
3772.17515,0.00134
3770.11497,0.00132
3768.05480,0.00123
3765.99463,0.00130
3763.93446,0.00156
3761.87429,0.00189
3759.81411,0.00195
3757.75394,0.00168
3755.69377,0.00169
3753.63360,0.00220
3751.57342,0.00264
3749.51325,0.00249
3747.45308,0.00217
3745.39291,0.00193
3743.33274,0.00169
3741.27256,0.00172
3739.21239,0.00188
3737.15222,0.00178
3735.09205,0.00153
3733.03188,0.00169
3730.97170,0.00218
3728.91153,0.00229
3726.85136,0.00190
3724.79119,0.00134
3722.73102,0.00097
3720.67084,0.00084
3718.61067,0.00090
3716.55050,0.00098
3714.49033,0.00108
3712.43015,0.00122
3710.36998,0.00117
3708.30981,0.00122
3706.24964,0.00149
3704.18947,0.00172
3702.12929,0.00176
3700.06912,0.00186
3698.00895,0.00216
3695.94878,0.00245
3693.88861,0.00272
3691.82843,0.00284
3689.76826,0.00245
3687.70809,0.00183
3685.64792,0.00178
3683.58775,0.00201
3681.52757,0.00217
3679.46740,0.00238
3677.40723,0.00257
3675.34706,0.00253
3673.28688,0.00273
3671.22671,0.00306
3669.16654,0.00311
3667.10637,0.00319
3665.04620,0.00349
3662.98602,0.00374
3660.92585,0.00396
3658.86568,0.00431
3656.80551,0.00468
3654.74534,0.00476
3652.68516,0.00451
3650.62499,0.00423
3648.56482,0.00424
3646.50465,0.00446
3644.44447,0.00476
3642.38430,0.00523
3640.32413,0.00605
3638.26396,0.00706
3636.20379,0.00776
3634.14361,0.00798
3632.08344,0.00800
3630.02327,0.00823
3627.96310,0.00882
3625.90293,0.00960
3623.84275,0.01023
3621.78258,0.01070
3619.72241,0.01111
3617.66224,0.01136
3615.60207,0.01148
3613.54189,0.01181
3611.48172,0.01250
3609.42155,0.01302
3607.36138,0.01313
3605.30120,0.01319
3603.24103,0.01316
3601.18086,0.01306
3599.12069,0.01313
3597.06052,0.01350
3595.00034,0.01426
3592.94017,0.01546
3590.88000,0.01646
3588.81983,0.01671
3586.75966,0.01646
3584.69948,0.01662
3582.63931,0.01723
3580.57914,0.01788
3578.51897,0.01846
3576.45879,0.01897
3574.39862,0.01932
3572.33845,0.01963
3570.27828,0.01988
3568.21811,0.01998
3566.15793,0.02028
3564.09776,0.02099
3562.03759,0.02148
3559.97742,0.02152
3557.91725,0.02147
3555.85707,0.02177
3553.79690,0.02228
3551.73673,0.02257
3549.67656,0.02269
3547.61639,0.02290
3545.55621,0.02336
3543.49604,0.02407
3541.43587,0.02475
3539.37570,0.02521
3537.31552,0.02562
3535.25535,0.02614
3533.19518,0.02668
3531.13501,0.02701
3529.07484,0.02717
3527.01466,0.02744
3524.95449,0.02767
3522.89432,0.02765
3520.83415,0.02777
3518.77398,0.02823
3516.71380,0.02878
3514.65363,0.02924
3512.59346,0.02973
3510.53329,0.03023
3508.47312,0.03066
3506.41294,0.03104
3504.35277,0.03134
3502.29260,0.03168
3500.23243,0.03212
3498.17225,0.03249
3496.11208,0.03281
3494.05191,0.03309
3491.99174,0.03318
3489.93157,0.03338
3487.87139,0.03393
3485.81122,0.03446
3483.75105,0.03467
3481.69088,0.03479
3479.63071,0.03517
3477.57053,0.03567
3475.51036,0.03596
3473.45019,0.03613
3471.39002,0.03641
3469.32984,0.03686
3467.26967,0.03737
3465.20950,0.03788
3463.14933,0.03823
3461.08916,0.03815
3459.02898,0.03790
3456.96881,0.03800
3454.90864,0.03834
3452.84847,0.03879
3450.78830,0.03931
3448.72812,0.03955
3446.66795,0.03949
3444.60778,0.03950
3442.54761,0.03972
3440.48744,0.04013
3438.42726,0.04035
3436.36709,0.04020
3434.30692,0.04027
3432.24675,0.04083
3430.18657,0.04143
3428.12640,0.04169
3426.06623,0.04176
3424.00606,0.04179
3421.94589,0.04194
3419.88571,0.04246
3417.82554,0.04293
3415.76537,0.04309
3413.70520,0.04317
3411.64503,0.04332
3409.58485,0.04355
3407.52468,0.04357
3405.46451,0.04350
3403.40434,0.04373
3401.34416,0.04395
3399.28399,0.04408
3397.22382,0.04435
3395.16365,0.04455
3393.10348,0.04464
3391.04330,0.04477
3388.98313,0.04486
3386.92296,0.04493
3384.86279,0.04503
3382.80262,0.04500
3380.74244,0.04480
3378.68227,0.04471
3376.62210,0.04484
3374.56193,0.04512
3372.50176,0.04560
3370.44158,0.04594
3368.38141,0.04584
3366.32124,0.04577
3364.26107,0.04610
3362.20089,0.04643
3360.14072,0.04655
3358.08055,0.04662
3356.02038,0.04673
3353.96021,0.04694
3351.90003,0.04716
3349.83986,0.04719
3347.77969,0.04691
3345.71952,0.04661
3343.65935,0.04681
3341.59917,0.04720
3339.53900,0.04714
3337.47883,0.04687
3335.41866,0.04682
3333.35849,0.04684
3331.29831,0.04676
3329.23814,0.04670
3327.17797,0.04667
3325.11780,0.04683
3323.05762,0.04717
3320.99745,0.04723
3318.93728,0.04716
3316.87711,0.04731
3314.81694,0.04751
3312.75676,0.04768
3310.69659,0.04769
3308.63642,0.04730
3306.57625,0.04699
3304.51608,0.04719
3302.45590,0.04750
3300.39573,0.04768
3298.33556,0.04791
3296.27539,0.04785
3294.21521,0.04752
3292.15504,0.04756
3290.09487,0.04779
3288.03470,0.04766
3285.97453,0.04745
3283.91435,0.04760
3281.85418,0.04789
3279.79401,0.04798
3277.73384,0.04796
3275.67367,0.04793
3273.61349,0.04791
3271.55332,0.04788
3269.49315,0.04796
3267.43298,0.04816
3265.37281,0.04822
3263.31263,0.04815
3261.25246,0.04817
3259.19229,0.04822
3257.13212,0.04831
3255.07194,0.04843
3253.01177,0.04816
3250.95160,0.04759
3248.89143,0.04736
3246.83126,0.04763
3244.77108,0.04801
3242.71091,0.04813
3240.65074,0.04803
3238.59057,0.04800
3236.53040,0.04806
3234.47022,0.04786
3232.41005,0.04749
3230.34988,0.04741
3228.28971,0.04759
3226.22954,0.04771
3224.16936,0.04753
3222.10919,0.04722
3220.04902,0.04712
3217.98885,0.04729
3215.92867,0.04747
3213.86850,0.04745
3211.80833,0.04739
3209.74816,0.04730
3207.68799,0.04700
3205.62781,0.04672
3203.56764,0.04669
3201.50747,0.04679
3199.44730,0.04675
3197.38713,0.04661
3195.32695,0.04650
3193.26678,0.04638
3191.20661,0.04641
3189.14644,0.04653
3187.08626,0.04629
3185.02609,0.04586
3182.96592,0.04570
3180.90575,0.04572
3178.84558,0.04554
3176.78540,0.04526
3174.72523,0.04529
3172.66506,0.04564
3170.60489,0.04577
3168.54472,0.04550
3166.48454,0.04533
3164.42437,0.04544
3162.36420,0.04538
3160.30403,0.04513
3158.24386,0.04485
3156.18368,0.04467
3154.12351,0.04474
3152.06334,0.04481
3150.00317,0.04442
3147.94299,0.04371
3145.88282,0.04329
3143.82265,0.04328
3141.76248,0.04337
3139.70231,0.04337
3137.64213,0.04322
3135.58196,0.04295
3133.52179,0.04279
3131.46162,0.04285
3129.40145,0.04290
3127.34127,0.04272
3125.28110,0.04246
3123.22093,0.04232
3121.16076,0.04214
3119.10058,0.04172
3117.04041,0.04122
3114.98024,0.04100
3112.92007,0.04115
3110.85990,0.04139
3108.79972,0.04132
3106.73955,0.04073
3104.67938,0.04013
3102.61921,0.04001
3100.55904,0.04014
3098.49886,0.04016
3096.43869,0.04000
3094.37852,0.03976
3092.31835,0.03957
3090.25818,0.03953
3088.19800,0.03956
3086.13783,0.03931
3084.07766,0.03876
3082.01749,0.03855
3079.95731,0.03889
3077.89714,0.03912
3075.83697,0.03900
3073.77680,0.03861
3071.71663,0.03809
3069.65645,0.03766
3067.59628,0.03737
3065.53611,0.03713
3063.47594,0.03677
3061.41577,0.03640
3059.35559,0.03627
3057.29542,0.03636
3055.23525,0.03647
3053.17508,0.03651
3051.11491,0.03633
3049.05473,0.03601
3046.99456,0.03574
3044.93439,0.03549
3042.87422,0.03521
3040.81404,0.03499
3038.75387,0.03488
3036.69370,0.03477
3034.63353,0.03451
3032.57336,0.03409
3030.51318,0.03382
3028.45301,0.03367
3026.39284,0.03356
3024.33267,0.03356
3022.27250,0.03338
3020.21232,0.03294
3018.15215,0.03253
3016.09198,0.03226
3014.03181,0.03206
3011.97163,0.03192
3009.91146,0.03178
3007.85129,0.03165
3005.79112,0.03148
3003.73095,0.03126
3001.67077,0.03120
2999.61060,0.03121
2997.55043,0.03097
2995.49026,0.03059
2993.43009,0.03029
2991.36991,0.03015
2989.30974,0.03002
2987.24957,0.02978
2985.18940,0.02955
2983.12923,0.02947
2981.06905,0.02943
2979.00888,0.02932
2976.94871,0.02924
2974.88854,0.02921
2972.82836,0.02914
2970.76819,0.02911
2968.70802,0.02913
2966.64785,0.02904
2964.58768,0.02875
2962.52750,0.02845
2960.46733,0.02833
2958.40716,0.02833
2956.34699,0.02824
2954.28682,0.02810
2952.22664,0.02801
2950.16647,0.02786
2948.10630,0.02785
2946.04613,0.02798
2943.98596,0.02791
2941.92578,0.02784
2939.86561,0.02803
2937.80544,0.02807
2935.74527,0.02764
2933.68509,0.02725
2931.62492,0.02730
2929.56475,0.02756
2927.50458,0.02764
2925.44441,0.02729
2923.38423,0.02664
2921.32406,0.02612
2919.26389,0.02590
2917.20372,0.02592
2915.14355,0.02604
2913.08337,0.02627
2911.02320,0.02653
2908.96303,0.02650
2906.90286,0.02627
2904.84268,0.02604
2902.78251,0.02567
2900.72234,0.02546
2898.66217,0.02561
2896.60200,0.02570
2894.54182,0.02547
2892.48165,0.02505
2890.42148,0.02480
2888.36131,0.02480
2886.30114,0.02479
2884.24096,0.02473
2882.18079,0.02455
2880.12062,0.02432
2878.06045,0.02429
2876.00028,0.02433
2873.94010,0.02430
2871.87993,0.02419
2869.81976,0.02403
2867.75959,0.02398
2865.69941,0.02403
2863.63924,0.02403
2861.57907,0.02389
2859.51890,0.02362
2857.45873,0.02332
2855.39855,0.02304
2853.33838,0.02296
2851.27821,0.02298
2849.21804,0.02289
2847.15787,0.02275
2845.09769,0.02255
2843.03752,0.02231
2840.97735,0.02210
2838.91718,0.02196
2836.85700,0.02187
2834.79683,0.02172
2832.73666,0.02150
2830.67649,0.02136
2828.61632,0.02116
2826.55614,0.02081
2824.49597,0.02059
2822.43580,0.02058
2820.37563,0.02062
2818.31546,0.02063
2816.25528,0.02055
2814.19511,0.02040
2812.13494,0.02038
2810.07477,0.02036
2808.01460,0.02020
2805.95442,0.02000
2803.89425,0.01974
2801.83408,0.01951
2799.77391,0.01946
2797.71373,0.01939
2795.65356,0.01925
2793.59339,0.01921
2791.53322,0.01930
2789.47305,0.01941
2787.41287,0.01936
2785.35270,0.01918
2783.29253,0.01915
2781.23236,0.01920
2779.17219,0.01898
2777.11201,0.01862
2775.05184,0.01841
2772.99167,0.01818
2770.93150,0.01795
2768.87133,0.01793
2766.81115,0.01809
2764.75098,0.01815
2762.69081,0.01803
2760.63064,0.01793
2758.57046,0.01779
2756.51029,0.01741
2754.45012,0.01710
2752.38995,0.01705
2750.32978,0.01709
2748.26960,0.01702
2746.20943,0.01697
2744.14926,0.01713
2742.08909,0.01719
2740.02892,0.01704
2737.96874,0.01686
2735.90857,0.01666
2733.84840,0.01650
2731.78823,0.01645
2729.72805,0.01630
2727.66788,0.01606
2725.60771,0.01599
2723.54754,0.01602
2721.48737,0.01598
2719.42719,0.01588
2717.36702,0.01573
2715.30685,0.01557
2713.24668,0.01565
2711.18651,0.01578
2709.12633,0.01565
2707.06616,0.01535
2705.00599,0.01509
2702.94582,0.01495
2700.88565,0.01492
2698.82547,0.01483
2696.76530,0.01453
2694.70513,0.01434
2692.64496,0.01441
2690.58478,0.01441
2688.52461,0.01427
2686.46444,0.01423
2684.40427,0.01415
2682.34410,0.01393
2680.28392,0.01381
2678.22375,0.01371
2676.16358,0.01340
2674.10341,0.01319
2672.04324,0.01323
2669.98306,0.01343
2667.92289,0.01358
2665.86272,0.01348
2663.80255,0.01338
2661.74238,0.01344
2659.68220,0.01341
2657.62203,0.01309
2655.56186,0.01271
2653.50169,0.01270
2651.44151,0.01287
2649.38134,0.01280
2647.32117,0.01253
2645.26100,0.01229
2643.20083,0.01207
2641.14065,0.01175
2639.08048,0.01142
2637.02031,0.01121
2634.96014,0.01121
2632.89997,0.01139
2630.83979,0.01155
2628.77962,0.01163
2626.71945,0.01169
2624.65928,0.01158
2622.59910,0.01140
2620.53893,0.01138
2618.47876,0.01149
2616.41859,0.01142
2614.35842,0.01109
2612.29824,0.01079
2610.23807,0.01068
2608.17790,0.01058
2606.11773,0.01041
2604.05756,0.01025
2601.99738,0.01016
2599.93721,0.01029
2597.87704,0.01067
2595.81687,0.01090
2593.75670,0.01078
2591.69652,0.01042
2589.63635,0.01002
2587.57618,0.00973
2585.51601,0.00961
2583.45583,0.00962
2581.39566,0.00957
2579.33549,0.00962
2577.27532,0.00990
2575.21515,0.01005
2573.15497,0.01005
2571.09480,0.01012
2569.03463,0.01010
2566.97446,0.00976
2564.91429,0.00943
2562.85411,0.00959
2560.79394,0.00992
2558.73377,0.00987
2556.67360,0.00960
2554.61342,0.00959
2552.55325,0.00975
2550.49308,0.00981
2548.43291,0.00967
2546.37274,0.00972
2544.31256,0.01015
2542.25239,0.01021
2540.19222,0.00994
2538.13205,0.00993
2536.07188,0.00989
2534.01170,0.00972
2531.95153,0.00988
2529.89136,0.01019
2527.83119,0.01022
2525.77102,0.01011
2523.71084,0.01015
2521.65067,0.01023
2519.59050,0.01025
2517.53033,0.01025
2515.47015,0.01035
2513.40998,0.01047
2511.34981,0.01045
2509.28964,0.01031
2507.22947,0.01015
2505.16929,0.01006
2503.10912,0.01013
2501.04895,0.01031
2498.98878,0.01050
2496.92861,0.01052
2494.86843,0.01049
2492.80826,0.01036
2490.74809,0.01002
2488.68792,0.00970
2486.62775,0.00958
2484.56757,0.00978
2482.50740,0.01016
2480.44723,0.01034
2478.38706,0.01014
2476.32688,0.00974
2474.26671,0.00956
2472.20654,0.00966
2470.14637,0.01004
2468.08620,0.01048
2466.02602,0.01034
2463.96585,0.00997
2461.90568,0.01022
2459.84551,0.01075
2457.78534,0.01080
2455.72516,0.01078
2453.66499,0.01083
2451.60482,0.01065
2449.54465,0.01069
2447.48447,0.01087
2445.42430,0.01060
2443.36413,0.01032
2441.30396,0.01028
2439.24379,0.01023
2437.18361,0.01020
2435.12344,0.01036
2433.06327,0.01064
2431.00310,0.01103
2428.94293,0.01121
2426.88275,0.01084
2424.82258,0.01044
2422.76241,0.01040
2420.70224,0.01054
2418.64207,0.01048
2416.58189,0.01018
2414.52172,0.01014
2412.46155,0.01040
2410.40138,0.01061
2408.34120,0.01061
2406.28103,0.01046
2404.22086,0.01034
2402.16069,0.01030
2400.10052,0.01038
2398.04034,0.01053
2395.98017,0.01055
2393.92000,0.01045
2391.85983,0.01040
2389.79966,0.01044
2387.73948,0.01035
2385.67931,0.01021
2383.61914,0.01042
2381.55897,0.01097
2379.49880,0.01141
2377.43862,0.01143
2375.37845,0.01148
2373.31828,0.01150
2371.25811,0.01157
2369.19793,0.01203
2367.13776,0.01203
2365.07759,0.01167
2363.01742,0.01240
2360.95725,0.01146
2358.89707,0.00968
2356.83690,0.00913
2354.77673,0.01054
2352.71656,0.01143
2350.65639,0.00944
2348.59621,0.00816
2346.53604,0.01068
2344.47587,0.01080
2342.41570,0.00998
2340.35552,0.01010
2338.29535,0.00999
2336.23518,0.00900
2334.17501,0.00784
2332.11484,0.00828
2330.05466,0.00975
2327.99449,0.01113
2325.93432,0.01130
2323.87415,0.01127
2321.81398,0.01097
2319.75380,0.01122
2317.69363,0.01118
2315.63346,0.01105
2313.57329,0.01062
2311.51312,0.01026
2309.45294,0.01043
2307.39277,0.01052
2305.33260,0.01042
2303.27243,0.01060
2301.21225,0.01096
2299.15208,0.01081
2297.09191,0.01030
2295.03174,0.00982
2292.97157,0.00968
2290.91139,0.01005
2288.85122,0.01034
2286.79105,0.01010
2284.73088,0.00978
2282.67071,0.00970
2280.61053,0.00979
2278.55036,0.00979
2276.49019,0.00938
2274.43002,0.00883
2272.36984,0.00867
2270.30967,0.00870
2268.24950,0.00855
2266.18933,0.00831
2264.12916,0.00816
2262.06898,0.00811
2260.00881,0.00813
2257.94864,0.00820
2255.88847,0.00835
2253.82830,0.00821
2251.76812,0.00784
2249.70795,0.00799
2247.64778,0.00860
2245.58761,0.00845
2243.52744,0.00726
2241.46726,0.00621
2239.40709,0.00624
2237.34692,0.00699
2235.28675,0.00765
2233.22657,0.00793
2231.16640,0.00791
2229.10623,0.00803
2227.04606,0.00830
2224.98589,0.00838
2222.92571,0.00863
2220.86554,0.00902
2218.80537,0.00879
2216.74520,0.00810
2214.68503,0.00770
2212.62485,0.00762
2210.56468,0.00764
2208.50451,0.00757
2206.44434,0.00748
2204.38417,0.00766
2202.32399,0.00779
2200.26382,0.00721
2198.20365,0.00666
2196.14348,0.00703
2194.08330,0.00762
2192.02313,0.00786
2189.96296,0.00763
2187.90279,0.00726
2185.84262,0.00694
2183.78244,0.00606
2181.72227,0.00502
2179.66210,0.00457
2177.60193,0.00469
2175.54176,0.00550
2173.48158,0.00665
2171.42141,0.00743
2169.36124,0.00768
2167.30107,0.00732
2165.24089,0.00665
2163.18072,0.00538
2161.12055,0.00297
2159.06038,0.00080
2157.00021,0.00092
2154.94003,0.00295
2152.87986,0.00503
2150.81969,0.00578
2148.75952,0.00501
2146.69935,0.00405
2144.63917,0.00348
2142.57900,0.00346
2140.51883,0.00449
2138.45866,0.00524
2136.39849,0.00473
2134.33831,0.00418
2132.27814,0.00448
2130.21797,0.00531
2128.15780,0.00603
2126.09762,0.00655
2124.03745,0.00653
2121.97728,0.00589
2119.91711,0.00579
2117.85694,0.00630
2115.79676,0.00649
2113.73659,0.00623
2111.67642,0.00579
2109.61625,0.00573
2107.55608,0.00630
2105.49590,0.00670
2103.43573,0.00624
2101.37556,0.00557
2099.31539,0.00509
2097.25521,0.00495
2095.19504,0.00555
2093.13487,0.00596
2091.07470,0.00567
2089.01453,0.00542
2086.95435,0.00556
2084.89418,0.00614
2082.83401,0.00653
2080.77384,0.00577
2078.71367,0.00449
2076.65349,0.00428
2074.59332,0.00519
2072.53315,0.00566
2070.47298,0.00541
2068.41281,0.00549
2066.35263,0.00564
2064.29246,0.00515
2062.23229,0.00435
2060.17212,0.00379
2058.11194,0.00409
2056.05177,0.00496
2053.99160,0.00496
2051.93143,0.00387
2049.87126,0.00316
2047.81108,0.00423
2045.75091,0.00598
2043.69074,0.00602
2041.63057,0.00461
2039.57040,0.00380
2037.51022,0.00408
2035.45005,0.00495
2033.38988,0.00562
2031.32971,0.00516
2029.26954,0.00412
2027.20936,0.00320
2025.14919,0.00245
2023.08902,0.00249
2021.02885,0.00345
2018.96867,0.00457
2016.90850,0.00489
2014.84833,0.00422
2012.78816,0.00354
2010.72799,0.00337
2008.66781,0.00297
2006.60764,0.00188
2004.54747,0.00091
2002.48730,0.00087
2000.42713,0.00166
1998.36695,0.00277
1996.30678,0.00374
1994.24661,0.00451
1992.18644,0.00492
1990.12626,0.00469
1988.06609,0.00373
1986.00592,0.00294
1983.94575,0.00308
1981.88558,0.00323
1979.82540,0.00236
1977.76523,0.00159
1975.70506,0.00238
1973.64489,0.00336
1971.58472,0.00319
1969.52454,0.00312
1967.46437,0.00328
1965.40420,0.00242
1963.34403,0.00140
1961.28386,0.00145
1959.22368,0.00198
1957.16351,0.00248
1955.10334,0.00299
1953.04317,0.00318
1950.98299,0.00327
1948.92282,0.00357
1946.86265,0.00346
1944.80248,0.00285
1942.74231,0.00241
1940.68213,0.00248
1938.62196,0.00272
1936.56179,0.00249
1934.50162,0.00178
1932.44145,0.00156
1930.38127,0.00226
1928.32110,0.00312
1926.26093,0.00366
1924.20076,0.00373
1922.14059,0.00337
1920.08041,0.00351
1918.02024,0.00407
1915.96007,0.00391
1913.89990,0.00320
1911.83972,0.00267
1909.77955,0.00248
1907.71938,0.00269
1905.65921,0.00301
1903.59904,0.00314
1901.53886,0.00325
1899.47869,0.00336
1897.41852,0.00326
1895.35835,0.00305
1893.29818,0.00290
1891.23800,0.00268
1889.17783,0.00271
1887.11766,0.00348
1885.05749,0.00436
1882.99731,0.00445
1880.93714,0.00389
1878.87697,0.00347
1876.81680,0.00362
1874.75663,0.00405
1872.69645,0.00406
1870.63628,0.00354
1868.57611,0.00312
1866.51594,0.00329
1864.45577,0.00369
1862.39559,0.00378
1860.33542,0.00351
1858.27525,0.00311
1856.21508,0.00297
1854.15491,0.00319
1852.09473,0.00338
1850.03456,0.00329
1847.97439,0.00320
1845.91422,0.00325
1843.85404,0.00331
1841.79387,0.00339
1839.73370,0.00343
1837.67353,0.00336
1835.61336,0.00344
1833.55318,0.00376
1831.49301,0.00389
1829.43284,0.00354
1827.37267,0.00316
1825.31250,0.00325
1823.25232,0.00370
1821.19215,0.00401
1819.13198,0.00390
1817.07181,0.00365
1815.01163,0.00363
1812.95146,0.00382
1810.89129,0.00398
1808.83112,0.00397
1806.77095,0.00383
1804.71077,0.00374
1802.65060,0.00373
1800.59043,0.00373
1798.53026,0.00372
1796.47009,0.00374
1794.40991,0.00383
1792.34974,0.00405
1790.28957,0.00429
1788.22940,0.00437
1786.16923,0.00428
1784.10905,0.00421
1782.04888,0.00424
1779.98871,0.00422
1777.92854,0.00413
1775.86836,0.00406
1773.80819,0.00397
1771.74802,0.00390
1769.68785,0.00397
1767.62768,0.00410
1765.56750,0.00420
1763.50733,0.00429
1761.44716,0.00447
1759.38699,0.00465
1757.32682,0.00475
1755.26664,0.00491
1753.20647,0.00511
1751.14630,0.00526
1749.08613,0.00534
1747.02596,0.00535
1744.96578,0.00533
1742.90561,0.00537
1740.84544,0.00541
1738.78527,0.00538
1736.72509,0.00529
1734.66492,0.00535
1732.60475,0.00591
1730.54458,0.00658
1728.48441,0.00698
1726.42423,0.00727
1724.36406,0.00753
1722.30389,0.00760
1720.24372,0.00742
1718.18355,0.00718
1716.12337,0.00728
1714.06320,0.00776
1712.00303,0.00829
1709.94286,0.00863
1707.88268,0.00875
1705.82251,0.00894
1703.76234,0.00936
1701.70217,0.00972
1699.64200,0.00982
1697.58182,0.01006
1695.52165,0.01057
1693.46148,0.01106
1691.40131,0.01143
1689.34114,0.01175
1687.28096,0.01205
1685.22079,0.01236
1683.16062,0.01290
1681.10045,0.01367
1679.04028,0.01434
1676.98010,0.01487
1674.91993,0.01536
1672.85976,0.01581
1670.79959,0.01617
1668.73941,0.01660
1666.67924,0.01705
1664.61907,0.01739
1662.55890,0.01768
1660.49873,0.01809
1658.43855,0.01857
1656.37838,0.01898
1654.31821,0.01911
1652.25804,0.01886
1650.19787,0.01854
1648.13769,0.01836
1646.07752,0.01851
1644.01735,0.01888
1641.95718,0.01902
1639.89701,0.01888
1637.83683,0.01862
1635.77666,0.01831
1633.71649,0.01813
1631.65632,0.01805
1629.59614,0.01786
1627.53597,0.01744
1625.47580,0.01694
1623.41563,0.01654
1621.35546,0.01634
1619.29528,0.01618
1617.23511,0.01599
1615.17494,0.01602
1613.11477,0.01622
1611.05460,0.01618
1608.99442,0.01572
1606.93425,0.01510
1604.87408,0.01467
1602.81391,0.01448
1600.75373,0.01431
1598.69356,0.01400
1596.63339,0.01350
1594.57322,0.01291
1592.51305,0.01246
1590.45287,0.01212
1588.39270,0.01173
1586.33253,0.01131
1584.27236,0.01097
1582.21219,0.01070
1580.15201,0.01046
1578.09184,0.01014
1576.03167,0.00961
1573.97150,0.00910
1571.91133,0.00879
1569.85115,0.00855
1567.79098,0.00831
1565.73081,0.00808
1563.67064,0.00791
1561.61046,0.00782
1559.55029,0.00748
1557.49012,0.00688
1555.42995,0.00649
1553.36978,0.00633
1551.30960,0.00636
1549.24943,0.00648
1547.18926,0.00639
1545.12909,0.00604
1543.06892,0.00569
1541.00874,0.00540
1538.94857,0.00507
1536.88840,0.00493
1534.82823,0.00482
1532.76805,0.00454
1530.70788,0.00436
1528.64771,0.00433
1526.58754,0.00431
1524.52737,0.00437
1522.46719,0.00440
1520.40702,0.00400
1518.34685,0.00339
1516.28668,0.00323
1514.22651,0.00352
1512.16633,0.00371
1510.10616,0.00352
1508.04599,0.00305
1505.98582,0.00272
1503.92565,0.00286
1501.86547,0.00308
1499.80530,0.00304
1497.74513,0.00289
1495.68496,0.00295
1493.62478,0.00314
1491.56461,0.00319
1489.50444,0.00308
1487.44427,0.00299
1485.38410,0.00303
1483.32392,0.00311
1481.26375,0.00318
1479.20358,0.00327
1477.14341,0.00328
1475.08324,0.00320
1473.02306,0.00337
1470.96289,0.00375
1468.90272,0.00394
1466.84255,0.00391
1464.78238,0.00379
1462.72220,0.00362
1460.66203,0.00342
1458.60186,0.00333
1456.54169,0.00365
1454.48151,0.00410
1452.42134,0.00423
1450.36117,0.00421
1448.30100,0.00426
1446.24083,0.00426
1444.18065,0.00410
1442.12048,0.00390
1440.06031,0.00377
1438.00014,0.00367
1435.93997,0.00361
1433.87979,0.00364
1431.81962,0.00380
1429.75945,0.00410
1427.69928,0.00439
1425.63910,0.00449
1423.57893,0.00447
1421.51876,0.00445
1419.45859,0.00450
1417.39842,0.00469
1415.33824,0.00485
1413.27807,0.00482
1411.21790,0.00472
1409.15773,0.00465
1407.09756,0.00450
1405.03738,0.00424
1402.97721,0.00396
1400.91704,0.00379
1398.85687,0.00383
1396.79670,0.00399
1394.73652,0.00393
1392.67635,0.00367
1390.61618,0.00346
1388.55601,0.00338
1386.49583,0.00346
1384.43566,0.00371
1382.37549,0.00394
1380.31532,0.00397
1378.25515,0.00388
1376.19497,0.00383
1374.13480,0.00385
1372.07463,0.00387
1370.01446,0.00387
1367.95429,0.00385
1365.89411,0.00380
1363.83394,0.00364
1361.77377,0.00338
1359.71360,0.00317
1357.65343,0.00307
1355.59325,0.00306
1353.53308,0.00306
1351.47291,0.00300
1349.41274,0.00286
1347.35256,0.00272
1345.29239,0.00274
1343.23222,0.00293
1341.17205,0.00310
1339.11188,0.00312
1337.05170,0.00302
1334.99153,0.00287
1332.93136,0.00274
1330.87119,0.00274
1328.81102,0.00276
1326.75084,0.00269
1324.69067,0.00254
1322.63050,0.00239
1320.57033,0.00234
1318.51015,0.00240
1316.44998,0.00250
1314.38981,0.00257
1312.32964,0.00265
1310.26947,0.00279
1308.20929,0.00286
1306.14912,0.00282
1304.08895,0.00276
1302.02878,0.00273
1299.96861,0.00269
1297.90843,0.00274
1295.84826,0.00291
1293.78809,0.00299
1291.72792,0.00286
1289.66775,0.00279
1287.60757,0.00298
1285.54740,0.00320
1283.48723,0.00330
1281.42706,0.00336
1279.36688,0.00345
1277.30671,0.00348
1275.24654,0.00350
1273.18637,0.00357
1271.12620,0.00363
1269.06602,0.00367
1267.00585,0.00373
1264.94568,0.00379
1262.88551,0.00375
1260.82534,0.00374
1258.76516,0.00385
1256.70499,0.00401
1254.64482,0.00411
1252.58465,0.00400
1250.52447,0.00375
1248.46430,0.00365
1246.40413,0.00372
1244.34396,0.00371
1242.28379,0.00351
1240.22361,0.00328
1238.16344,0.00319
1236.10327,0.00318
1234.04310,0.00315
1231.98293,0.00294
1229.92275,0.00256
1227.86258,0.00231
1225.80241,0.00228
1223.74224,0.00217
1221.68207,0.00183
1219.62189,0.00155
1217.56172,0.00149
1215.50155,0.00156
1213.44138,0.00163
1211.38120,0.00155
1209.32103,0.00134
1207.26086,0.00122
1205.20069,0.00124
1203.14052,0.00123
1201.08034,0.00109
1199.02017,0.00101
1196.96000,0.00100
1194.89983,0.00095
1192.83966,0.00114
1190.77948,0.00159
1188.71931,0.00197
1186.65914,0.00220
1184.59897,0.00250
1182.53880,0.00304
1180.47862,0.00363
1178.41845,0.00406
1176.35828,0.00446
1174.29811,0.00500
1172.23793,0.00558
1170.17776,0.00604
1168.11759,0.00647
1166.05742,0.00704
1163.99725,0.00791
1161.93707,0.00891
1159.87690,0.00964
1157.81673,0.01009
1155.75656,0.01066
1153.69639,0.01132
1151.63621,0.01176
1149.57604,0.01218
1147.51587,0.01283
1145.45570,0.01360
1143.39552,0.01447
1141.33535,0.01535
1139.27518,0.01598
1137.21501,0.01652
1135.15484,0.01720
1133.09466,0.01801
1131.03449,0.01887
1128.97432,0.01993
1126.91415,0.02116
1124.85398,0.02214
1122.79380,0.02284
1120.73363,0.02367
1118.67346,0.02471
1116.61329,0.02579
1114.55312,0.02692
1112.49294,0.02810
1110.43277,0.02923
1108.37260,0.03047
1106.31243,0.03187
1104.25225,0.03322
1102.19208,0.03442
1100.13191,0.03548
1098.07174,0.03649
1096.01157,0.03750
1093.95139,0.03843
1091.89122,0.03923
1089.83105,0.03991
1087.77088,0.04064
1085.71071,0.04165
1083.65053,0.04287
1081.59036,0.04397
1079.53019,0.04482
1077.47002,0.04545
1075.40985,0.04591
1073.34967,0.04637
1071.28950,0.04687
1069.22933,0.04715
1067.16916,0.04725
1065.10898,0.04737
1063.04881,0.04744
1060.98864,0.04727
1058.92847,0.04703
1056.86830,0.04693
1054.80812,0.04669
1052.74795,0.04606
1050.68778,0.04541
1048.62761,0.04482
1046.56744,0.04396
1044.50726,0.04282
1042.44709,0.04163
1040.38692,0.04061
1038.32675,0.03975
1036.26657,0.03887
1034.20640,0.03785
1032.14623,0.03676
1030.08606,0.03564
1028.02589,0.03465
1025.96571,0.03389
1023.90554,0.03312
1021.84537,0.03226
1019.78520,0.03133
1017.72503,0.03028
1015.66485,0.02924
1013.60468,0.02852
1011.54451,0.02799
1009.48434,0.02742
1007.42417,0.02710
1005.36399,0.02714
1003.30382,0.02723
1001.24365,0.02715
999.18348,0.02729
997.12330,0.02800
995.06313,0.02892
993.00296,0.02982
990.94279,0.03069
988.88262,0.03134
986.82244,0.03174
984.76227,0.03207
982.70210,0.03216
980.64193,0.03178
978.58176,0.03113
976.52158,0.03046
974.46141,0.02964
972.40124,0.02859
970.34107,0.02731
968.28089,0.02595
966.22072,0.02468
964.16055,0.02334
962.10038,0.02207
960.04021,0.02128
957.98003,0.02055
955.91986,0.01938
953.85969,0.01826
951.79952,0.01759
949.73935,0.01717
947.67917,0.01666
945.61900,0.01613
943.55883,0.01583
941.49866,0.01564
939.43849,0.01538
937.37831,0.01502
935.31814,0.01484
933.25797,0.01494
931.19780,0.01484
929.13762,0.01454
927.07745,0.01444
925.01728,0.01452
922.95711,0.01442
920.89694,0.01385
918.83676,0.01304
916.77659,0.01254
914.71642,0.01233
912.65625,0.01196
910.59608,0.01136
908.53590,0.01083
906.47573,0.01067
904.41556,0.01087
902.35539,0.01094
900.29522,0.01071
898.23504,0.01067
896.17487,0.01079
894.11470,0.01067
892.05453,0.01058
889.99435,0.01072
887.93418,0.01083
885.87401,0.01085
883.81384,0.01102
881.75367,0.01147
879.69349,0.01212
877.63332,0.01275
875.57315,0.01302
873.51298,0.01324
871.45281,0.01373
869.39263,0.01418
867.33246,0.01456
865.27229,0.01512
863.21212,0.01544
861.15194,0.01509
859.09177,0.01460
857.03160,0.01424
854.97143,0.01389
852.91126,0.01370
850.85108,0.01374
848.79091,0.01385
846.73074,0.01379
844.67057,0.01324
842.61040,0.01233
840.55022,0.01160
838.49005,0.01134
836.42988,0.01136
834.36971,0.01129
832.30954,0.01091
830.24936,0.01010
828.18919,0.00910
826.12902,0.00831
824.06885,0.00775
822.00867,0.00735
819.94850,0.00712
817.88833,0.00724
815.82816,0.00752
813.76799,0.00733
811.70781,0.00677
809.64764,0.00639
807.58747,0.00633
805.52730,0.00626
803.46713,0.00595
801.40695,0.00579
799.34678,0.00585
797.28661,0.00553
795.22644,0.00490
793.16627,0.00463
791.10609,0.00475
789.04592,0.00496
786.98575,0.00521
784.92558,0.00522
782.86540,0.00492
780.80523,0.00471
778.74506,0.00494
776.68489,0.00533
774.62472,0.00553
772.56454,0.00528
770.50437,0.00431
768.44420,0.00331
766.38403,0.00328
764.32386,0.00381
762.26368,0.00419
760.20351,0.00454
758.14334,0.00443
756.08317,0.00374
754.02299,0.00335
751.96282,0.00353
749.90265,0.00389
747.84248,0.00394
745.78231,0.00377
743.72213,0.00367
741.66196,0.00350
739.60179,0.00327
737.54162,0.00345
735.48145,0.00414
733.42127,0.00461
731.36110,0.00429
729.30093,0.00360
727.24076,0.00348
725.18059,0.00396
723.12041,0.00402
721.06024,0.00379
719.00007,0.00305
716.93990,0.00309
714.87972,0.00397
712.81955,0.00481
710.75938,0.00533
708.69921,0.00529
706.63904,0.00486
704.57886,0.00444
702.51869,0.00405
700.45852,0.00376
698.39835,0.00373
696.33818,0.00407
694.27800,0.00434
692.21783,0.00371
690.15766,0.00243
688.09749,0.00161
686.03731,0.00154
683.97714,0.00203
681.91697,0.00279
679.85680,0.00339
677.79663,0.00395
675.73645,0.00456
673.67628,0.00406
671.61611,0.00229
669.55594,0.00458
667.49577,0.00790
665.43559,0.00314
663.37542,0.00402
661.31525,0.00519
659.25508,0.00487
657.19491,0.00460
655.13473,0.00528
653.07456,0.00650
651.01439,0.00729
648.95422,0.00681
646.89404,0.00496
644.83387,0.00325
642.77370,0.00209
640.71353,0.00147
638.65336,0.00187
636.59318,0.00352
634.53301,0.00543
632.47284,0.00643
630.41267,0.00583
628.35250,0.00363
626.29232,0.00109
624.23215,0.00084
622.17198,0.00242
620.11181,0.00396
618.05164,0.00498
615.99146,0.00466
613.93129,0.00305
611.87112,0.00112
609.81095,0.00000
607.75077,0.00017
605.69060,0.00141
603.63043,0.00255
601.57026,0.00209
599.51009,0.00000
