3996.73391,0.00084
3994.67373,0.00083
3992.61356,0.00098
3990.55339,0.00088
3988.49322,0.00053
3986.43305,0.00028
3984.37287,0.00020
3982.31270,0.00014
3980.25253,0.00000
3978.19236,0.00011
3976.13219,0.00056
3974.07201,0.00073
3972.01184,0.00045
3969.95167,0.00024
3967.89150,0.00022
3965.83133,0.00021
3963.77115,0.00037
3961.71098,0.00059
3959.65081,0.00066
3957.59064,0.00072
3955.53046,0.00091
3953.47029,0.00100
3951.41012,0.00085
3949.34995,0.00075
3947.28978,0.00085
3945.22960,0.00085
3943.16943,0.00066
3941.10926,0.00055
3939.04909,0.00061
3936.98892,0.00078
3934.92874,0.00098
3932.86857,0.00130
3930.80840,0.00146
3928.74823,0.00094
3926.68805,0.00019
3924.62788,0.00006
3922.56771,0.00035
3920.50754,0.00073
3918.44737,0.00138
3916.38719,0.00186
3914.32702,0.00174
3912.26685,0.00142
3910.20668,0.00124
3908.14651,0.00114
3906.08633,0.00120
3904.02616,0.00150
3901.96599,0.00187
3899.90582,0.00207
3897.84565,0.00207
3895.78547,0.00189
3893.72530,0.00168
3891.66513,0.00136
3889.60496,0.00074
3887.54478,0.00022
3885.48461,0.00034
3883.42444,0.00086
3881.36427,0.00104
3879.30410,0.00075
3877.24392,0.00025
3875.18375,0.00000
3873.12358,0.00030
3871.06341,0.00094
3869.00324,0.00139
3866.94306,0.00145
3864.88289,0.00138
3862.82272,0.00131
3860.76255,0.00122
3858.70237,0.00123
3856.64220,0.00135
3854.58203,0.00141
3852.52186,0.00120
3850.46169,0.00093
3848.40151,0.00071
3846.34134,0.00040
3844.28117,0.00018
3842.22100,0.00036
3840.16083,0.00075
3838.10065,0.00087
3836.04048,0.00064
3833.98031,0.00049
3831.92014,0.00072
3829.85997,0.00119
3827.79979,0.00162
3825.73962,0.00163
3823.67945,0.00117
3821.61928,0.00088
3819.55910,0.00096
3817.49893,0.00090
3815.43876,0.00083
3813.37859,0.00077
3811.31842,0.00062
3809.25824,0.00064
3807.19807,0.00090
3805.13790,0.00097
3803.07773,0.00072
3801.01756,0.00054
3798.95738,0.00069
3796.89721,0.00100
3794.83704,0.00112
3792.77687,0.00095
3790.71670,0.00075
3788.65652,0.00059
3786.59635,0.00044
3784.53618,0.00042
3782.47601,0.00060
3780.41583,0.00083
3778.35566,0.00093
3776.29549,0.00102
3774.23532,0.00126
3772.17515,0.00151
3770.11497,0.00150
3768.05480,0.00122
3765.99463,0.00098
3763.93446,0.00104
3761.87429,0.00145
3759.81411,0.00193
3757.75394,0.00175
3755.69377,0.00094
3753.63360,0.00035
3751.57342,0.00053
3749.51325,0.00115
3747.45308,0.00149
3745.39291,0.00164
3743.33274,0.00162
3741.27256,0.00128
3739.21239,0.00108
3737.15222,0.00141
3735.09205,0.00190
3733.03188,0.00197
3730.97170,0.00141
3728.91153,0.00051
3726.85136,0.00004
3724.79119,0.00017
3722.73102,0.00017
3720.67084,0.00011
3718.61067,0.00047
3716.55050,0.00094
3714.49033,0.00093
3712.43015,0.00080
3710.36998,0.00120
3708.30981,0.00154
3706.24964,0.00130
3704.18947,0.00079
3702.12929,0.00054
3700.06912,0.00074
3698.00895,0.00101
3695.94878,0.00117
3693.88861,0.00139
3691.82843,0.00160
3689.76826,0.00149
3687.70809,0.00131
3685.64792,0.00132
3683.58775,0.00121
3681.52757,0.00082
3679.46740,0.00060
3677.40723,0.00088
3675.34706,0.00141
3673.28688,0.00162
3671.22671,0.00162
3669.16654,0.00196
3667.10637,0.00255
3665.04620,0.00290
3662.98602,0.00288
3660.92585,0.00276
3658.86568,0.00294
3656.80551,0.00330
3654.74534,0.00334
3652.68516,0.00303
3650.62499,0.00298
3648.56482,0.00364
3646.50465,0.00434
3644.44447,0.00442
3642.38430,0.00435
3640.32413,0.00456
3638.26396,0.00494
3636.20379,0.00524
3634.14361,0.00534
3632.08344,0.00529
3630.02327,0.00542
3627.96310,0.00607
3625.90293,0.00683
3623.84275,0.00734
3621.78258,0.00777
3619.72241,0.00838
3617.66224,0.00895
3615.60207,0.00894
3613.54189,0.00872
3611.48172,0.00881
3609.42155,0.00913
3607.36138,0.00943
3605.30120,0.00965
3603.24103,0.00992
3601.18086,0.01049
3599.12069,0.01109
3597.06052,0.01131
3595.00034,0.01160
3592.94017,0.01225
3590.88000,0.01290
3588.81983,0.01330
3586.75966,0.01343
3584.69948,0.01327
3582.63931,0.01313
3580.57914,0.01333
3578.51897,0.01388
3576.45879,0.01450
3574.39862,0.01493
3572.33845,0.01509
3570.27828,0.01498
3568.21811,0.01470
3566.15793,0.01469
3564.09776,0.01525
3562.03759,0.01590
3559.97742,0.01620
3557.91725,0.01623
3555.85707,0.01648
3553.79690,0.01701
3551.73673,0.01738
3549.67656,0.01753
3547.61639,0.01776
3545.55621,0.01814
3543.49604,0.01853
3541.43587,0.01887
3539.37570,0.01923
3537.31552,0.01979
3535.25535,0.02039
3533.19518,0.02066
3531.13501,0.02058
3529.07484,0.02057
3527.01466,0.02091
3524.95449,0.02135
3522.89432,0.02154
3520.83415,0.02157
3518.77398,0.02185
3516.71380,0.02227
3514.65363,0.02249
3512.59346,0.02257
3510.53329,0.02277
3508.47312,0.02312
3506.41294,0.02354
3504.35277,0.02394
3502.29260,0.02431
3500.23243,0.02467
3498.17225,0.02490
3496.11208,0.02508
3494.05191,0.02538
3491.99174,0.02580
3489.93157,0.02618
3487.87139,0.02640
3485.81122,0.02649
3483.75105,0.02666
3481.69088,0.02691
3479.63071,0.02716
3477.57053,0.02761
3475.51036,0.02814
3473.45019,0.02814
3471.39002,0.02782
3469.32984,0.02794
3467.26967,0.02872
3465.20950,0.02961
3463.14933,0.02996
3461.08916,0.02971
3459.02898,0.02944
3456.96881,0.02954
3454.90864,0.02986
3452.84847,0.03029
3450.78830,0.03092
3448.72812,0.03133
3446.66795,0.03105
3444.60778,0.03057
3442.54761,0.03048
3440.48744,0.03082
3438.42726,0.03118
3436.36709,0.03121
3434.30692,0.03126
3432.24675,0.03175
3430.18657,0.03231
3428.12640,0.03251
3426.06623,0.03241
3424.00606,0.03228
3421.94589,0.03237
3419.88571,0.03278
3417.82554,0.03314
3415.76537,0.03320
3413.70520,0.03317
3411.64503,0.03317
3409.58485,0.03329
3407.52468,0.03368
3405.46451,0.03422
3403.40434,0.03446
3401.34416,0.03434
3399.28399,0.03433
3397.22382,0.03456
3395.16365,0.03470
3393.10348,0.03476
3391.04330,0.03476
3388.98313,0.03454
3386.92296,0.03436
3384.86279,0.03449
3382.80262,0.03468
3380.74244,0.03494
3378.68227,0.03530
3376.62210,0.03558
3374.56193,0.03583
3372.50176,0.03617
3370.44158,0.03645
3368.38141,0.03640
3366.32124,0.03625
3364.26107,0.03649
3362.20089,0.03684
3360.14072,0.03696
3358.08055,0.03692
3356.02038,0.03678
3353.96021,0.03682
3351.90003,0.03709
3349.83986,0.03721
3347.77969,0.03700
3345.71952,0.03669
3343.65935,0.03682
3341.59917,0.03732
3339.53900,0.03769
3337.47883,0.03787
3335.41866,0.03789
3333.35849,0.03765
3331.29831,0.03730
3329.23814,0.03716
3327.17797,0.03733
3325.11780,0.03770
3323.05762,0.03797
3320.99745,0.03792
3318.93728,0.03775
3316.87711,0.03769
3314.81694,0.03772
3312.75676,0.03780
3310.69659,0.03795
3308.63642,0.03807
3306.57625,0.03806
3304.51608,0.03804
3302.45590,0.03817
3300.39573,0.03836
3298.33556,0.03836
3296.27539,0.03824
3294.21521,0.03827
3292.15504,0.03828
3290.09487,0.03803
3288.03470,0.03792
3285.97453,0.03815
3283.91435,0.03842
3281.85418,0.03853
3279.79401,0.03852
3277.73384,0.03847
3275.67367,0.03853
3273.61349,0.03869
3271.55332,0.03870
3269.49315,0.03866
3267.43298,0.03872
3265.37281,0.03875
3263.31263,0.03889
3261.25246,0.03918
3259.19229,0.03920
3257.13212,0.03896
3255.07194,0.03877
3253.01177,0.03868
3250.95160,0.03868
3248.89143,0.03872
3246.83126,0.03876
3244.77108,0.03893
3242.71091,0.03912
3240.65074,0.03926
3238.59057,0.03952
3236.53040,0.03963
3234.47022,0.03937
3232.41005,0.03906
3230.34988,0.03891
3228.28971,0.03890
3226.22954,0.03898
3224.16936,0.03901
3222.10919,0.03897
3220.04902,0.03882
3217.98885,0.03870
3215.92867,0.03879
3213.86850,0.03886
3211.80833,0.03871
3209.74816,0.03855
3207.68799,0.03842
3205.62781,0.03838
3203.56764,0.03851
3201.50747,0.03876
3199.44730,0.03892
3197.38713,0.03885
3195.32695,0.03882
3193.26678,0.03885
3191.20661,0.03867
3189.14644,0.03840
3187.08626,0.03829
3185.02609,0.03835
3182.96592,0.03839
3180.90575,0.03815
3178.84558,0.03788
3176.78540,0.03783
3174.72523,0.03794
3172.66506,0.03813
3170.60489,0.03826
3168.54472,0.03830
3166.48454,0.03834
3164.42437,0.03816
3162.36420,0.03757
3160.30403,0.03715
3158.24386,0.03724
3156.18368,0.03738
3154.12351,0.03741
3152.06334,0.03743
3150.00317,0.03712
3147.94299,0.03654
3145.88282,0.03630
3143.82265,0.03652
3141.76248,0.03666
3139.70231,0.03656
3137.64213,0.03652
3135.58196,0.03647
3133.52179,0.03635
3131.46162,0.03628
3129.40145,0.03614
3127.34127,0.03595
3125.28110,0.03587
3123.22093,0.03576
3121.16076,0.03551
3119.10058,0.03512
3117.04041,0.03481
3114.98024,0.03488
3112.92007,0.03518
3110.85990,0.03533
3108.79972,0.03513
3106.73955,0.03462
3104.67938,0.03414
3102.61921,0.03402
3100.55904,0.03428
3098.49886,0.03450
3096.43869,0.03436
3094.37852,0.03406
3092.31835,0.03381
3090.25818,0.03360
3088.19800,0.03339
3086.13783,0.03323
3084.07766,0.03317
3082.01749,0.03335
3079.95731,0.03368
3077.89714,0.03373
3075.83697,0.03354
3073.77680,0.03327
3071.71663,0.03285
3069.65645,0.03244
3067.59628,0.03217
3065.53611,0.03191
3063.47594,0.03157
3061.41577,0.03123
3059.35559,0.03116
3057.29542,0.03138
3055.23525,0.03158
3053.17508,0.03164
3051.11491,0.03150
3049.05473,0.03110
3046.99456,0.03069
3044.93439,0.03037
3042.87422,0.03009
3040.81404,0.02993
3038.75387,0.03001
3036.69370,0.03017
3034.63353,0.03010
3032.57336,0.02978
3030.51318,0.02943
3028.45301,0.02911
3026.39284,0.02891
3024.33267,0.02890
3022.27250,0.02871
3020.21232,0.02833
3018.15215,0.02809
3016.09198,0.02794
3014.03181,0.02781
3011.97163,0.02768
3009.91146,0.02742
3007.85129,0.02718
3005.79112,0.02711
3003.73095,0.02697
3001.67077,0.02692
2999.61060,0.02706
2997.55043,0.02691
2995.49026,0.02642
2993.43009,0.02602
2991.36991,0.02592
2989.30974,0.02597
2987.24957,0.02593
2985.18940,0.02587
2983.12923,0.02579
2981.06905,0.02557
2979.00888,0.02536
2976.94871,0.02535
2974.88854,0.02540
2972.82836,0.02533
2970.76819,0.02524
2968.70802,0.02515
2966.64785,0.02503
2964.58768,0.02490
2962.52750,0.02458
2960.46733,0.02421
2958.40716,0.02408
2956.34699,0.02419
2954.28682,0.02410
2952.22664,0.02355
2950.16647,0.02328
2948.10630,0.02388
2946.04613,0.02445
2943.98596,0.02418
2941.92578,0.02367
2939.86561,0.02362
2937.80544,0.02381
2935.74527,0.02372
2933.68509,0.02357
2931.62492,0.02350
2929.56475,0.02336
2927.50458,0.02335
2925.44441,0.02338
2923.38423,0.02323
2921.32406,0.02292
2919.26389,0.02262
2917.20372,0.02250
2915.14355,0.02251
2913.08337,0.02251
2911.02320,0.02261
2908.96303,0.02263
2906.90286,0.02238
2904.84268,0.02209
2902.78251,0.02195
2900.72234,0.02192
2898.66217,0.02197
2896.60200,0.02194
2894.54182,0.02173
2892.48165,0.02143
2890.42148,0.02133
2888.36131,0.02146
2886.30114,0.02155
2884.24096,0.02142
2882.18079,0.02099
2880.12062,0.02043
2878.06045,0.02027
2876.00028,0.02058
2873.94010,0.02098
2871.87993,0.02109
2869.81976,0.02088
2867.75959,0.02075
2865.69941,0.02087
2863.63924,0.02076
2861.57907,0.02038
2859.51890,0.02022
2857.45873,0.02022
2855.39855,0.02014
2853.33838,0.02020
2851.27821,0.02029
2849.21804,0.02010
2847.15787,0.01979
2845.09769,0.01963
2843.03752,0.01959
2840.97735,0.01966
2838.91718,0.01975
2836.85700,0.01958
2834.79683,0.01924
2832.73666,0.01899
2830.67649,0.01881
2828.61632,0.01858
2826.55614,0.01839
2824.49597,0.01836
2822.43580,0.01839
2820.37563,0.01837
2818.31546,0.01825
2816.25528,0.01803
2814.19511,0.01791
2812.13494,0.01796
2810.07477,0.01786
2808.01460,0.01766
2805.95442,0.01763
2803.89425,0.01755
2801.83408,0.01735
2799.77391,0.01728
2797.71373,0.01735
2795.65356,0.01742
2793.59339,0.01738
2791.53322,0.01724
2789.47305,0.01710
2787.41287,0.01711
2785.35270,0.01717
2783.29253,0.01716
2781.23236,0.01709
2779.17219,0.01687
2777.11201,0.01659
2775.05184,0.01639
2772.99167,0.01616
2770.93150,0.01592
2768.87133,0.01591
2766.81115,0.01598
2764.75098,0.01587
2762.69081,0.01575
2760.63064,0.01587
2758.57046,0.01601
2756.51029,0.01584
2754.45012,0.01545
2752.38995,0.01520
2750.32978,0.01521
2748.26960,0.01528
2746.20943,0.01526
2744.14926,0.01524
2742.08909,0.01524
2740.02892,0.01530
2737.96874,0.01524
2735.90857,0.01495
2733.84840,0.01477
2731.78823,0.01479
2729.72805,0.01459
2727.66788,0.01425
2725.60771,0.01404
2723.54754,0.01397
2721.48737,0.01401
2719.42719,0.01399
2717.36702,0.01380
2715.30685,0.01374
2713.24668,0.01390
2711.18651,0.01393
2709.12633,0.01369
2707.06616,0.01349
2705.00599,0.01342
2702.94582,0.01331
2700.88565,0.01326
2698.82547,0.01323
2696.76530,0.01302
2694.70513,0.01280
2692.64496,0.01279
2690.58478,0.01284
2688.52461,0.01277
2686.46444,0.01259
2684.40427,0.01242
2682.34410,0.01239
2680.28392,0.01250
2678.22375,0.01247
2676.16358,0.01207
2674.10341,0.01172
2672.04324,0.01182
2669.98306,0.01206
2667.92289,0.01189
2665.86272,0.01150
2663.80255,0.01141
2661.74238,0.01151
2659.68220,0.01152
2657.62203,0.01131
2655.56186,0.01102
2653.50169,0.01094
2651.44151,0.01105
2649.38134,0.01104
2647.32117,0.01089
2645.26100,0.01079
2643.20083,0.01061
2641.14065,0.01032
2639.08048,0.01013
2637.02031,0.01010
2634.96014,0.01010
2632.89997,0.00996
2630.83979,0.00989
2628.77962,0.01016
2626.71945,0.01038
2624.65928,0.01019
2622.59910,0.00986
2620.53893,0.00959
2618.47876,0.00948
2616.41859,0.00959
2614.35842,0.00967
2612.29824,0.00955
2610.23807,0.00937
2608.17790,0.00917
2606.11773,0.00906
2604.05756,0.00905
2601.99738,0.00893
2599.93721,0.00888
2597.87704,0.00923
2595.81687,0.00951
2593.75670,0.00917
2591.69652,0.00872
2589.63635,0.00858
2587.57618,0.00843
2585.51601,0.00831
2583.45583,0.00859
2581.39566,0.00882
2579.33549,0.00870
2577.27532,0.00860
2575.21515,0.00854
2573.15497,0.00867
2571.09480,0.00921
2569.03463,0.00967
2566.97446,0.00939
2564.91429,0.00862
2562.85411,0.00838
2560.79394,0.00877
2558.73377,0.00897
2556.67360,0.00886
2554.61342,0.00868
2552.55325,0.00853
2550.49308,0.00843
2548.43291,0.00826
2546.37274,0.00816
2544.31256,0.00831
2542.25239,0.00847
2540.19222,0.00843
2538.13205,0.00821
2536.07188,0.00832
2534.01170,0.00885
2531.95153,0.00915
2529.89136,0.00900
2527.83119,0.00873
2525.77102,0.00852
2523.71084,0.00832
2521.65067,0.00813
2519.59050,0.00818
2517.53033,0.00842
2515.47015,0.00856
2513.40998,0.00872
2511.34981,0.00899
2509.28964,0.00915
2507.22947,0.00909
2505.16929,0.00892
2503.10912,0.00894
2501.04895,0.00903
2498.98878,0.00898
2496.92861,0.00915
2494.86843,0.00948
2492.80826,0.00950
2490.74809,0.00925
2488.68792,0.00897
2486.62775,0.00881
2484.56757,0.00902
2482.50740,0.00958
2480.44723,0.00997
2478.38706,0.00980
2476.32688,0.00933
2474.26671,0.00894
2472.20654,0.00867
2470.14637,0.00870
2468.08620,0.00902
2466.02602,0.00913
2463.96585,0.00904
2461.90568,0.00911
2459.84551,0.00916
2457.78534,0.00893
2455.72516,0.00882
2453.66499,0.00880
2451.60482,0.00863
2449.54465,0.00871
2447.48447,0.00904
2445.42430,0.00913
2443.36413,0.00895
2441.30396,0.00896
2439.24379,0.00919
2437.18361,0.00918
2435.12344,0.00919
2433.06327,0.00945
2431.00310,0.00963
2428.94293,0.00958
2426.88275,0.00942
2424.82258,0.00928
2422.76241,0.00921
2420.70224,0.00917
2418.64207,0.00925
2416.58189,0.00944
2414.52172,0.00957
2412.46155,0.00965
2410.40138,0.00982
2408.34120,0.00996
2406.28103,0.00985
2404.22086,0.00966
2402.16069,0.00953
2400.10052,0.00939
2398.04034,0.00941
2395.98017,0.00965
2393.92000,0.00996
2391.85983,0.01017
2389.79966,0.01015
2387.73948,0.00988
2385.67931,0.00961
2383.61914,0.00957
2381.55897,0.00964
2379.49880,0.00965
2377.43862,0.00969
2375.37845,0.00950
2373.31828,0.00941
2371.25811,0.01007
2369.19793,0.01072
2367.13776,0.01044
2365.07759,0.00974
2363.01742,0.00903
2360.95725,0.00940
2358.89707,0.00949
2356.83690,0.00964
2354.77673,0.00917
2352.71656,0.00868
2350.65639,0.01073
2348.59621,0.01238
2346.53604,0.00987
2344.47587,0.00870
2342.41570,0.00840
2340.35552,0.00812
2338.29535,0.00846
2336.23518,0.00872
2334.17501,0.00867
2332.11484,0.00827
2330.05466,0.00875
2327.99449,0.00979
2325.93432,0.01045
2323.87415,0.00951
2321.81398,0.00873
2319.75380,0.00888
2317.69363,0.00989
2315.63346,0.01008
2313.57329,0.00959
2311.51312,0.00941
2309.45294,0.00973
2307.39277,0.01004
2305.33260,0.01010
2303.27243,0.01005
2301.21225,0.00959
2299.15208,0.00892
2297.09191,0.00848
2295.03174,0.00834
2292.97157,0.00833
2290.91139,0.00852
2288.85122,0.00890
2286.79105,0.00920
2284.73088,0.00904
2282.67071,0.00861
2280.61053,0.00854
2278.55036,0.00859
2276.49019,0.00827
2274.43002,0.00804
2272.36984,0.00814
2270.30967,0.00796
2268.24950,0.00736
2266.18933,0.00724
2264.12916,0.00771
2262.06898,0.00782
2260.00881,0.00734
2257.94864,0.00698
2255.88847,0.00702
2253.82830,0.00723
2251.76812,0.00721
2249.70795,0.00711
2247.64778,0.00727
2245.58761,0.00715
2243.52744,0.00651
2241.46726,0.00566
2239.40709,0.00507
2237.34692,0.00525
2235.28675,0.00585
2233.22657,0.00630
2231.16640,0.00680
2229.10623,0.00744
2227.04606,0.00736
2224.98589,0.00667
2222.92571,0.00700
2220.86554,0.00806
2218.80537,0.00794
2216.74520,0.00695
2214.68503,0.00652
2212.62485,0.00663
2210.56468,0.00698
2208.50451,0.00722
2206.44434,0.00693
2204.38417,0.00642
2202.32399,0.00613
2200.26382,0.00596
2198.20365,0.00581
2196.14348,0.00618
2194.08330,0.00729
2192.02313,0.00819
2189.96296,0.00782
2187.90279,0.00645
2185.84262,0.00543
2183.78244,0.00503
2181.72227,0.00429
2179.66210,0.00313
2177.60193,0.00224
2175.54176,0.00245
2173.48158,0.00397
2171.42141,0.00566
2169.36124,0.00616
2167.30107,0.00513
2165.24089,0.00412
2163.18072,0.00401
2161.12055,0.00326
2159.06038,0.00185
2157.00021,0.00167
2154.94003,0.00213
2152.87986,0.00251
2150.81969,0.00335
2148.75952,0.00386
2146.69935,0.00410
2144.63917,0.00408
2142.57900,0.00334
2140.51883,0.00339
2138.45866,0.00439
2136.39849,0.00450
2134.33831,0.00376
2132.27814,0.00316
2130.21797,0.00299
2128.15780,0.00344
2126.09762,0.00427
2124.03745,0.00485
2121.97728,0.00493
2119.91711,0.00467
2117.85694,0.00439
2115.79676,0.00473
2113.73659,0.00495
2111.67642,0.00425
2109.61625,0.00408
2107.55608,0.00467
2105.49590,0.00477
2103.43573,0.00431
2101.37556,0.00373
2099.31539,0.00352
2097.25521,0.00406
2095.19504,0.00461
2093.13487,0.00435
2091.07470,0.00431
2089.01453,0.00493
2086.95435,0.00509
2084.89418,0.00496
2082.83401,0.00508
2080.77384,0.00475
2078.71367,0.00404
2076.65349,0.00419
2074.59332,0.00506
2072.53315,0.00505
2070.47298,0.00426
2068.41281,0.00421
2066.35263,0.00421
2064.29246,0.00329
2062.23229,0.00271
2060.17212,0.00305
2058.11194,0.00388
2056.05177,0.00468
2053.99160,0.00461
2051.93143,0.00422
2049.87126,0.00427
2047.81108,0.00441
2045.75091,0.00441
2043.69074,0.00400
2041.63057,0.00338
2039.57040,0.00294
2037.51022,0.00259
2035.45005,0.00271
2033.38988,0.00276
2031.32971,0.00209
2029.26954,0.00138
2027.20936,0.00097
2025.14919,0.00137
2023.08902,0.00294
2021.02885,0.00423
2018.96867,0.00406
2016.90850,0.00237
2014.84833,0.00039
2012.78816,0.00000
2010.72799,0.00122
2008.66781,0.00236
2006.60764,0.00246
2004.54747,0.00262
2002.48730,0.00307
2000.42713,0.00275
1998.36695,0.00158
1996.30678,0.00100
1994.24661,0.00193
1992.18644,0.00326
1990.12626,0.00391
1988.06609,0.00392
1986.00592,0.00314
1983.94575,0.00195
1981.88558,0.00131
1979.82540,0.00108
1977.76523,0.00114
1975.70506,0.00235
1973.64489,0.00418
1971.58472,0.00431
1969.52454,0.00298
1967.46437,0.00267
1965.40420,0.00278
1963.34403,0.00196
1961.28386,0.00159
1959.22368,0.00245
1957.16351,0.00343
1955.10334,0.00330
1953.04317,0.00197
1950.98299,0.00083
1948.92282,0.00101
1946.86265,0.00191
1944.80248,0.00230
1942.74231,0.00189
1940.68213,0.00149
1938.62196,0.00134
1936.56179,0.00120
1934.50162,0.00110
1932.44145,0.00144
1930.38127,0.00233
1928.32110,0.00319
1926.26093,0.00348
1924.20076,0.00320
1922.14059,0.00280
1920.08041,0.00320
1918.02024,0.00431
1915.96007,0.00464
1913.89990,0.00367
1911.83972,0.00236
1909.77955,0.00152
1907.71938,0.00137
1905.65921,0.00169
1903.59904,0.00214
1901.53886,0.00250
1899.47869,0.00279
1897.41852,0.00301
1895.35835,0.00308
1893.29818,0.00296
1891.23800,0.00268
1889.17783,0.00253
1887.11766,0.00290
1885.05749,0.00355
1882.99731,0.00367
1880.93714,0.00303
1878.87697,0.00240
1876.81680,0.00250
1874.75663,0.00297
1872.69645,0.00302
1870.63628,0.00266
1868.57611,0.00254
1866.51594,0.00287
1864.45577,0.00320
1862.39559,0.00325
1860.33542,0.00303
1858.27525,0.00270
1856.21508,0.00253
1854.15491,0.00259
1852.09473,0.00278
1850.03456,0.00301
1847.97439,0.00307
1845.91422,0.00276
1843.85404,0.00246
1841.79387,0.00268
1839.73370,0.00324
1837.67353,0.00362
1835.61336,0.00362
1833.55318,0.00357
1831.49301,0.00367
1829.43284,0.00365
1827.37267,0.00327
1825.31250,0.00298
1823.25232,0.00318
1821.19215,0.00351
1819.13198,0.00349
1817.07181,0.00330
1815.01163,0.00322
1812.95146,0.00321
1810.89129,0.00333
1808.83112,0.00357
1806.77095,0.00370
1804.71077,0.00358
1802.65060,0.00336
1800.59043,0.00322
1798.53026,0.00326
1796.47009,0.00343
1794.40991,0.00361
1792.34974,0.00382
1790.28957,0.00407
1788.22940,0.00417
1786.16923,0.00407
1784.10905,0.00389
1782.04888,0.00381
1779.98871,0.00382
1777.92854,0.00385
1775.86836,0.00392
1773.80819,0.00414
1771.74802,0.00444
1769.68785,0.00446
1767.62768,0.00419
1765.56750,0.00394
1763.50733,0.00386
1761.44716,0.00396
1759.38699,0.00415
1757.32682,0.00431
1755.26664,0.00446
1753.20647,0.00460
1751.14630,0.00475
1749.08613,0.00491
1747.02596,0.00492
1744.96578,0.00470
1742.90561,0.00444
1740.84544,0.00444
1738.78527,0.00463
1736.72509,0.00461
1734.66492,0.00457
1732.60475,0.00506
1730.54458,0.00565
1728.48441,0.00593
1726.42423,0.00616
1724.36406,0.00639
1722.30389,0.00638
1720.24372,0.00616
1718.18355,0.00613
1716.12337,0.00655
1714.06320,0.00700
1712.00303,0.00719
1709.94286,0.00728
1707.88268,0.00742
1705.82251,0.00765
1703.76234,0.00796
1701.70217,0.00818
1699.64200,0.00825
1697.58182,0.00842
1695.52165,0.00885
1693.46148,0.00925
1691.40131,0.00950
1689.34114,0.00975
1687.28096,0.00992
1685.22079,0.00995
1683.16062,0.01017
1681.10045,0.01071
1679.04028,0.01112
1676.98010,0.01136
1674.91993,0.01180
1672.85976,0.01236
1670.79959,0.01270
1668.73941,0.01294
1666.67924,0.01324
1664.61907,0.01356
1662.55890,0.01382
1660.49873,0.01402
1658.43855,0.01418
1656.37838,0.01430
1654.31821,0.01432
1652.25804,0.01417
1650.19787,0.01392
1648.13769,0.01381
1646.07752,0.01391
1644.01735,0.01400
1641.95718,0.01382
1639.89701,0.01347
1637.83683,0.01320
1635.77666,0.01311
1633.71649,0.01307
1631.65632,0.01300
1629.59614,0.01284
1627.53597,0.01260
1625.47580,0.01236
1623.41563,0.01216
1621.35546,0.01192
1619.29528,0.01156
1617.23511,0.01117
1615.17494,0.01095
1613.11477,0.01091
1611.05460,0.01080
1608.99442,0.01051
1606.93425,0.01014
1604.87408,0.00985
1602.81391,0.00975
1600.75373,0.00979
1598.69356,0.00975
1596.63339,0.00945
1594.57322,0.00896
1592.51305,0.00853
1590.45287,0.00825
1588.39270,0.00803
1586.33253,0.00779
1584.27236,0.00751
1582.21219,0.00727
1580.15201,0.00706
1578.09184,0.00676
1576.03167,0.00629
1573.97150,0.00590
1571.91133,0.00584
1569.85115,0.00605
1567.79098,0.00617
1565.73081,0.00589
1563.67064,0.00547
1561.61046,0.00529
1559.55029,0.00548
1557.49012,0.00571
1555.42995,0.00552
1553.36978,0.00515
1551.30960,0.00491
1549.24943,0.00474
1547.18926,0.00456
1545.12909,0.00445
1543.06892,0.00450
1541.00874,0.00465
1538.94857,0.00466
1536.88840,0.00453
1534.82823,0.00432
1532.76805,0.00394
1530.70788,0.00359
1528.64771,0.00347
1526.58754,0.00352
1524.52737,0.00364
1522.46719,0.00364
1520.40702,0.00318
1518.34685,0.00253
1516.28668,0.00238
1514.22651,0.00260
1512.16633,0.00268
1510.10616,0.00264
1508.04599,0.00256
1505.98582,0.00229
1503.92565,0.00209
1501.86547,0.00201
1499.80530,0.00190
1497.74513,0.00191
1495.68496,0.00217
1493.62478,0.00244
1491.56461,0.00261
1489.50444,0.00266
1487.44427,0.00252
1485.38410,0.00238
1483.32392,0.00233
1481.26375,0.00227
1479.20358,0.00220
1477.14341,0.00228
1475.08324,0.00252
1473.02306,0.00286
1470.96289,0.00299
1468.90272,0.00278
1466.84255,0.00253
1464.78238,0.00236
1462.72220,0.00216
1460.66203,0.00195
1458.60186,0.00192
1456.54169,0.00215
1454.48151,0.00226
1452.42134,0.00217
1450.36117,0.00220
1448.30100,0.00235
1446.24083,0.00232
1444.18065,0.00217
1442.12048,0.00209
1440.06031,0.00208
1438.00014,0.00206
1435.93997,0.00196
1433.87979,0.00180
1431.81962,0.00175
1429.75945,0.00186
1427.69928,0.00197
1425.63910,0.00197
1423.57893,0.00194
1421.51876,0.00190
1419.45859,0.00189
1417.39842,0.00195
1415.33824,0.00201
1413.27807,0.00212
1411.21790,0.00228
1409.15773,0.00231
1407.09756,0.00211
1405.03738,0.00184
1402.97721,0.00168
1400.91704,0.00162
1398.85687,0.00168
1396.79670,0.00182
1394.73652,0.00180
1392.67635,0.00162
1390.61618,0.00144
1388.55601,0.00130
1386.49583,0.00127
1384.43566,0.00136
1382.37549,0.00145
1380.31532,0.00150
1378.25515,0.00155
1376.19497,0.00159
1374.13480,0.00164
1372.07463,0.00164
1370.01446,0.00162
1367.95429,0.00167
1365.89411,0.00174
1363.83394,0.00163
1361.77377,0.00141
1359.71360,0.00131
1357.65343,0.00129
1355.59325,0.00125
1353.53308,0.00120
1351.47291,0.00118
1349.41274,0.00116
1347.35256,0.00112
1345.29239,0.00112
1343.23222,0.00131
1341.17205,0.00157
1339.11188,0.00158
1337.05170,0.00138
1334.99153,0.00121
1332.93136,0.00113
1330.87119,0.00112
1328.81102,0.00116
1326.75084,0.00115
1324.69067,0.00104
1322.63050,0.00097
1320.57033,0.00101
1318.51015,0.00106
1316.44998,0.00111
1314.38981,0.00119
1312.32964,0.00120
1310.26947,0.00107
1308.20929,0.00097
1306.14912,0.00108
1304.08895,0.00130
1302.02878,0.00147
1299.96861,0.00149
1297.90843,0.00152
1295.84826,0.00166
1293.78809,0.00174
1291.72792,0.00167
1289.66775,0.00159
1287.60757,0.00160
1285.54740,0.00159
1283.48723,0.00158
1281.42706,0.00172
1279.36688,0.00191
1277.30671,0.00200
1275.24654,0.00203
1273.18637,0.00203
1271.12620,0.00195
1269.06602,0.00193
1267.00585,0.00202
1264.94568,0.00208
1262.88551,0.00209
1260.82534,0.00206
1258.76516,0.00207
1256.70499,0.00216
1254.64482,0.00221
1252.58465,0.00209
1250.52447,0.00194
1248.46430,0.00187
1246.40413,0.00185
1244.34396,0.00183
1242.28379,0.00176
1240.22361,0.00169
1238.16344,0.00171
1236.10327,0.00169
1234.04310,0.00149
1231.98293,0.00124
1229.92275,0.00103
1227.86258,0.00094
1225.80241,0.00097
1223.74224,0.00085
1221.68207,0.00051
1219.62189,0.00028
1217.56172,0.00022
1215.50155,0.00030
1213.44138,0.00041
1211.38120,0.00033
1209.32103,0.00009
1207.26086,0.00000
1205.20069,0.00007
1203.14052,0.00015
1201.08034,0.00020
1199.02017,0.00018
1196.96000,0.00017
1194.89983,0.00025
1192.83966,0.00048
1190.77948,0.00077
1188.71931,0.00098
1186.65914,0.00124
1184.59897,0.00164
1182.53880,0.00209
1180.47862,0.00243
1178.41845,0.00259
1176.35828,0.00274
1174.29811,0.00322
1172.23793,0.00401
1170.17776,0.00464
1168.11759,0.00492
1166.05742,0.00531
1163.99725,0.00599
1161.93707,0.00664
1159.87690,0.00721
1157.81673,0.00775
1155.75656,0.00831
1153.69639,0.00880
1151.63621,0.00919
1149.57604,0.00971
1147.51587,0.01037
1145.45570,0.01096
1143.39552,0.01152
1141.33535,0.01209
1139.27518,0.01271
1137.21501,0.01341
1135.15484,0.01418
1133.09466,0.01499
1131.03449,0.01570
1128.97432,0.01635
1126.91415,0.01720
1124.85398,0.01818
1122.79380,0.01908
1120.73363,0.01997
1118.67346,0.02096
1116.61329,0.02186
1114.55312,0.02259
1112.49294,0.02345
1110.43277,0.02451
1108.37260,0.02571
1106.31243,0.02696
1104.25225,0.02803
1102.19208,0.02902
1100.13191,0.02996
1098.07174,0.03078
1096.01157,0.03157
1093.95139,0.03238
1091.89122,0.03310
1089.83105,0.03366
1087.77088,0.03418
1085.71071,0.03473
1083.65053,0.03550
1081.59036,0.03647
1079.53019,0.03724
1077.47002,0.03773
1075.40985,0.03819
1073.34967,0.03851
1071.28950,0.03871
1069.22933,0.03908
1067.16916,0.03951
1065.10898,0.03965
1063.04881,0.03965
1060.98864,0.03967
1058.92847,0.03944
1056.86830,0.03914
1054.80812,0.03902
1052.74795,0.03874
1050.68778,0.03819
1048.62761,0.03748
1046.56744,0.03648
1044.50726,0.03533
1042.44709,0.03427
1040.38692,0.03317
1038.32675,0.03210
1036.26657,0.03122
1034.20640,0.03043
1032.14623,0.02967
1030.08606,0.02880
1028.02589,0.02777
1025.96571,0.02683
1023.90554,0.02619
1021.84537,0.02576
1019.78520,0.02519
1017.72503,0.02441
1015.66485,0.02375
1013.60468,0.02333
1011.54451,0.02290
1009.48434,0.02245
1007.42417,0.02227
1005.36399,0.02228
1003.30382,0.02233
1001.24365,0.02243
999.18348,0.02276
997.12330,0.02347
995.06313,0.02442
993.00296,0.02554
990.94279,0.02662
988.88262,0.02744
986.82244,0.02800
984.76227,0.02829
982.70210,0.02833
980.64193,0.02819
978.58176,0.02802
976.52158,0.02778
974.46141,0.02732
972.40124,0.02665
970.34107,0.02577
968.28089,0.02481
966.22072,0.02379
964.16055,0.02235
962.10038,0.02074
960.04021,0.01973
957.98003,0.01910
955.91986,0.01822
953.85969,0.01748
951.79952,0.01725
949.73935,0.01710
947.67917,0.01667
945.61900,0.01619
943.55883,0.01605
941.49866,0.01603
939.43849,0.01561
937.37831,0.01499
935.31814,0.01490
933.25797,0.01521
931.19780,0.01526
929.13762,0.01490
927.07745,0.01443
925.01728,0.01412
922.95711,0.01401
920.89694,0.01389
918.83676,0.01350
916.77659,0.01295
914.71642,0.01254
912.65625,0.01219
910.59608,0.01179
908.53590,0.01168
906.47573,0.01194
904.41556,0.01213
902.35539,0.01202
900.29522,0.01177
898.23504,0.01139
896.17487,0.01090
894.11470,0.01078
892.05453,0.01112
889.99435,0.01139
887.93418,0.01129
885.87401,0.01122
883.81384,0.01182
881.75367,0.01272
879.69349,0.01320
877.63332,0.01339
875.57315,0.01362
873.51298,0.01393
871.45281,0.01432
869.39263,0.01469
867.33246,0.01487
865.27229,0.01512
863.21212,0.01536
861.15194,0.01517
859.09177,0.01486
857.03160,0.01477
854.97143,0.01462
852.91126,0.01412
850.85108,0.01328
848.79091,0.01272
846.73074,0.01299
844.67057,0.01336
842.61040,0.01296
840.55022,0.01221
838.49005,0.01186
836.42988,0.01168
834.36971,0.01121
832.30954,0.01060
830.24936,0.00993
828.18919,0.00910
826.12902,0.00821
824.06885,0.00758
822.00867,0.00732
819.94850,0.00724
817.88833,0.00733
815.82816,0.00745
813.76799,0.00720
811.70781,0.00646
809.64764,0.00586
807.58747,0.00579
805.52730,0.00581
803.46713,0.00565
801.40695,0.00565
799.34678,0.00573
797.28661,0.00540
795.22644,0.00473
793.16627,0.00437
791.10609,0.00445
789.04592,0.00452
786.98575,0.00442
784.92558,0.00441
782.86540,0.00449
780.80523,0.00448
778.74506,0.00431
776.68489,0.00414
774.62472,0.00424
772.56454,0.00417
770.50437,0.00337
768.44420,0.00282
766.38403,0.00332
764.32386,0.00379
762.26368,0.00357
760.20351,0.00321
758.14334,0.00288
756.08317,0.00259
754.02299,0.00246
751.96282,0.00234
749.90265,0.00223
747.84248,0.00237
745.78231,0.00272
743.72213,0.00271
741.66196,0.00233
739.60179,0.00231
737.54162,0.00299
735.48145,0.00397
733.42127,0.00403
731.36110,0.00270
729.30093,0.00151
727.24076,0.00128
725.18059,0.00152
723.12041,0.00205
721.06024,0.00231
719.00007,0.00325
716.93990,0.00407
714.87972,0.00398
712.81955,0.00372
710.75938,0.00385
708.69921,0.00419
706.63904,0.00453
704.57886,0.00451
702.51869,0.00373
700.45852,0.00281
698.39835,0.00256
696.33818,0.00271
694.27800,0.00251
692.21783,0.00167
690.15766,0.00091
688.09749,0.00132
686.03731,0.00264
683.97714,0.00376
681.91697,0.00416
679.85680,0.00390
677.79663,0.00341
675.73645,0.00331
673.67628,0.00436
671.61611,0.00624
669.55594,0.00357
667.49577,0.00000
665.43559,0.00486
663.37542,0.00494
661.31525,0.00504
659.25508,0.00595
657.19491,0.00554
655.13473,0.00419
653.07456,0.00376
651.01439,0.00396
648.95422,0.00379
646.89404,0.00427
644.83387,0.00498
642.77370,0.00458
640.71353,0.00363
638.65336,0.00358
636.59318,0.00403
634.53301,0.00360
632.47284,0.00238
630.41267,0.00156
628.35250,0.00090
626.29232,0.00000
624.23215,0.00054
622.17198,0.00172
620.11181,0.00158
618.05164,0.00239
615.99146,0.00494
613.93129,0.00556
611.87112,0.00277
609.81095,0.00015
607.75077,0.00020
605.69060,0.00143
603.63043,0.00221
601.57026,0.00141
599.51009,0.00000
