3996.73391,0.00053
3994.67373,0.00051
3992.61356,0.00042
3990.55339,0.00046
3988.49322,0.00044
3986.43305,0.00025
3984.37287,0.00009
3982.31270,0.00013
3980.25253,0.00027
3978.19236,0.00032
3976.13219,0.00029
3974.07201,0.00025
3972.01184,0.00027
3969.95167,0.00031
3967.89150,0.00023
3965.83133,0.00004
3963.77115,0.00000
3961.71098,0.00017
3959.65081,0.00026
3957.59064,0.00024
3955.53046,0.00028
3953.47029,0.00036
3951.41012,0.00036
3949.34995,0.00029
3947.28978,0.00026
3945.22960,0.00035
3943.16943,0.00046
3941.10926,0.00040
3939.04909,0.00021
3936.98892,0.00002
3934.92874,-0.00018
3932.86857,-0.00020
3930.80840,0.00007
3928.74823,0.00033
3926.68805,0.00034
3924.62788,0.00033
3922.56771,0.00040
3920.50754,0.00044
3918.44737,0.00042
3916.38719,0.00041
3914.32702,0.00039
3912.26685,0.00031
3910.20668,0.00024
3908.14651,0.00036
3906.08633,0.00065
3904.02616,0.00088
3901.96599,0.00089
3899.90582,0.00061
3897.84565,0.00023
3895.78547,0.00007
3893.72530,0.00010
3891.66513,0.00013
3889.60496,0.00009
3887.54478,-0.00002
3885.48461,-0.00006
3883.42444,0.00011
3881.36427,0.00034
3879.30410,0.00048
3877.24392,0.00060
3875.18375,0.00062
3873.12358,0.00050
3871.06341,0.00047
3869.00324,0.00069
3866.94306,0.00094
3864.88289,0.00084
3862.82272,0.00047
3860.76255,0.00027
3858.70237,0.00034
3856.64220,0.00053
3854.58203,0.00077
3852.52186,0.00085
3850.46169,0.00058
3848.40151,0.00021
3846.34134,0.00006
3844.28117,0.00025
3842.22100,0.00055
3840.16083,0.00063
3838.10065,0.00045
3836.04048,0.00011
3833.98031,-0.00005
3831.92014,0.00011
3829.85997,0.00032
3827.79979,0.00043
3825.73962,0.00048
3823.67945,0.00048
3821.61928,0.00040
3819.55910,0.00032
3817.49893,0.00039
3815.43876,0.00059
3813.37859,0.00070
3811.31842,0.00064
3809.25824,0.00051
3807.19807,0.00031
3805.13790,0.00007
3803.07773,0.00000
3801.01756,0.00031
3798.95738,0.00076
3796.89721,0.00092
3794.83704,0.00102
3792.77687,0.00120
3790.71670,0.00119
3788.65652,0.00099
3786.59635,0.00081
3784.53618,0.00079
3782.47601,0.00094
3780.41583,0.00103
3778.35566,0.00091
3776.29549,0.00074
3774.23532,0.00057
3772.17515,0.00033
3770.11497,0.00013
3768.05480,0.00019
3765.99463,0.00058
3763.93446,0.00098
3761.87429,0.00101
3759.81411,0.00080
3757.75394,0.00068
3755.69377,0.00057
3753.63360,0.00051
3751.57342,0.00083
3749.51325,0.00128
3747.45308,0.00131
3745.39291,0.00109
3743.33274,0.00089
3741.27256,0.00067
3739.21239,0.00046
3737.15222,0.00048
3735.09205,0.00080
3733.03188,0.00103
3730.97170,0.00088
3728.91153,0.00051
3726.85136,0.00035
3724.79119,0.00057
3722.73102,0.00086
3720.67084,0.00105
3718.61067,0.00102
3716.55050,0.00069
3714.49033,0.00022
3712.43015,0.00000
3710.36998,0.00021
3708.30981,0.00039
3706.24964,0.00039
3704.18947,0.00050
3702.12929,0.00083
3700.06912,0.00107
3698.00895,0.00118
3695.94878,0.00134
3693.88861,0.00143
3691.82843,0.00132
3689.76826,0.00105
3687.70809,0.00077
3685.64792,0.00063
3683.58775,0.00060
3681.52757,0.00050
3679.46740,0.00027
3677.40723,0.00013
3675.34706,0.00027
3673.28688,0.00053
3671.22671,0.00076
3669.16654,0.00094
3667.10637,0.00095
3665.04620,0.00088
3662.98602,0.00102
3660.92585,0.00136
3658.86568,0.00166
3656.80551,0.00186
3654.74534,0.00202
3652.68516,0.00194
3650.62499,0.00166
3648.56482,0.00182
3646.50465,0.00257
3644.44447,0.00314
3642.38430,0.00337
3640.32413,0.00346
3638.26396,0.00361
3636.20379,0.00398
3634.14361,0.00453
3632.08344,0.00496
3630.02327,0.00512
3627.96310,0.00533
3625.90293,0.00584
3623.84275,0.00631
3621.78258,0.00653
3619.72241,0.00666
3617.66224,0.00684
3615.60207,0.00699
3613.54189,0.00711
3611.48172,0.00715
3609.42155,0.00713
3607.36138,0.00727
3605.30120,0.00768
3603.24103,0.00835
3601.18086,0.00906
3599.12069,0.00948
3597.06052,0.00959
3595.00034,0.00964
3592.94017,0.00972
3590.88000,0.00990
3588.81983,0.01020
3586.75966,0.01064
3584.69948,0.01116
3582.63931,0.01170
3580.57914,0.01221
3578.51897,0.01258
3576.45879,0.01301
3574.39862,0.01361
3572.33845,0.01428
3570.27828,0.01492
3568.21811,0.01549
3566.15793,0.01592
3564.09776,0.01621
3562.03759,0.01641
3559.97742,0.01667
3557.91725,0.01715
3555.85707,0.01787
3553.79690,0.01864
3551.73673,0.01923
3549.67656,0.01962
3547.61639,0.01994
3545.55621,0.02035
3543.49604,0.02088
3541.43587,0.02136
3539.37570,0.02175
3537.31552,0.02214
3535.25535,0.02254
3533.19518,0.02298
3531.13501,0.02360
3529.07484,0.02437
3527.01466,0.02503
3524.95449,0.02549
3522.89432,0.02583
3520.83415,0.02619
3518.77398,0.02672
3516.71380,0.02740
3514.65363,0.02801
3512.59346,0.02850
3510.53329,0.02894
3508.47312,0.02937
3506.41294,0.02988
3504.35277,0.03046
3502.29260,0.03107
3500.23243,0.03157
3498.17225,0.03198
3496.11208,0.03244
3494.05191,0.03306
3491.99174,0.03363
3489.93157,0.03401
3487.87139,0.03440
3485.81122,0.03507
3483.75105,0.03572
3481.69088,0.03613
3479.63071,0.03652
3477.57053,0.03703
3475.51036,0.03751
3473.45019,0.03787
3471.39002,0.03827
3469.32984,0.03884
3467.26967,0.03939
3465.20950,0.03981
3463.14933,0.04022
3461.08916,0.04067
3459.02898,0.04112
3456.96881,0.04162
3454.90864,0.04217
3452.84847,0.04266
3450.78830,0.04305
3448.72812,0.04344
3446.66795,0.04390
3444.60778,0.04426
3442.54761,0.04467
3440.48744,0.04546
3438.42726,0.04628
3436.36709,0.04670
3434.30692,0.04704
3432.24675,0.04753
3430.18657,0.04809
3428.12640,0.04849
3426.06623,0.04873
3424.00606,0.04904
3421.94589,0.04944
3419.88571,0.04990
3417.82554,0.05038
3415.76537,0.05086
3413.70520,0.05137
3411.64503,0.05182
3409.58485,0.05216
3407.52468,0.05244
3405.46451,0.05274
3403.40434,0.05327
3401.34416,0.05390
3399.28399,0.05432
3397.22382,0.05453
3395.16365,0.05458
3393.10348,0.05463
3391.04330,0.05491
3388.98313,0.05533
3386.92296,0.05570
3384.86279,0.05601
3382.80262,0.05630
3380.74244,0.05661
3378.68227,0.05694
3376.62210,0.05731
3374.56193,0.05764
3372.50176,0.05792
3370.44158,0.05823
3368.38141,0.05851
3366.32124,0.05866
3364.26107,0.05883
3362.20089,0.05928
3360.14072,0.05983
3358.08055,0.06017
3356.02038,0.06037
3353.96021,0.06064
3351.90003,0.06103
3349.83986,0.06131
3347.77969,0.06142
3345.71952,0.06157
3343.65935,0.06184
3341.59917,0.06199
3339.53900,0.06195
3337.47883,0.06201
3335.41866,0.06221
3333.35849,0.06240
3331.29831,0.06252
3329.23814,0.06256
3327.17797,0.06258
3325.11780,0.06271
3323.05762,0.06299
3320.99745,0.06327
3318.93728,0.06332
3316.87711,0.06312
3314.81694,0.06296
3312.75676,0.06323
3310.69659,0.06382
3308.63642,0.06423
3306.57625,0.06429
3304.51608,0.06415
3302.45590,0.06403
3300.39573,0.06425
3298.33556,0.06467
3296.27539,0.06491
3294.21521,0.06510
3292.15504,0.06519
3290.09487,0.06504
3288.03470,0.06493
3285.97453,0.06503
3283.91435,0.06515
3281.85418,0.06524
3279.79401,0.06549
3277.73384,0.06573
3275.67367,0.06563
3273.61349,0.06530
3271.55332,0.06505
3269.49315,0.06496
3267.43298,0.06494
3265.37281,0.06485
3263.31263,0.06468
3261.25246,0.06456
3259.19229,0.06451
3257.13212,0.06446
3255.07194,0.06446
3253.01177,0.06450
3250.95160,0.06434
3248.89143,0.06400
3246.83126,0.06368
3244.77108,0.06350
3242.71091,0.06357
3240.65074,0.06369
3238.59057,0.06364
3236.53040,0.06348
3234.47022,0.06320
3232.41005,0.06285
3230.34988,0.06256
3228.28971,0.06227
3226.22954,0.06193
3224.16936,0.06170
3222.10919,0.06175
3220.04902,0.06189
3217.98885,0.06185
3215.92867,0.06176
3213.86850,0.06162
3211.80833,0.06127
3209.74816,0.06080
3207.68799,0.06045
3205.62781,0.06031
3203.56764,0.06017
3201.50747,0.05998
3199.44730,0.05976
3197.38713,0.05947
3195.32695,0.05921
3193.26678,0.05906
3191.20661,0.05891
3189.14644,0.05865
3187.08626,0.05838
3185.02609,0.05809
3182.96592,0.05770
3180.90575,0.05731
3178.84558,0.05694
3176.78540,0.05663
3174.72523,0.05636
3172.66506,0.05609
3170.60489,0.05586
3168.54472,0.05570
3166.48454,0.05551
3164.42437,0.05524
3162.36420,0.05496
3160.30403,0.05468
3158.24386,0.05438
3156.18368,0.05413
3154.12351,0.05392
3152.06334,0.05356
3150.00317,0.05306
3147.94299,0.05270
3145.88282,0.05254
3143.82265,0.05241
3141.76248,0.05217
3139.70231,0.05182
3137.64213,0.05150
3135.58196,0.05123
3133.52179,0.05092
3131.46162,0.05061
3129.40145,0.05028
3127.34127,0.04997
3125.28110,0.04974
3123.22093,0.04943
3121.16076,0.04914
3119.10058,0.04896
3117.04041,0.04868
3114.98024,0.04824
3112.92007,0.04781
3110.85990,0.04755
3108.79972,0.04742
3106.73955,0.04727
3104.67938,0.04699
3102.61921,0.04664
3100.55904,0.04630
3098.49886,0.04605
3096.43869,0.04581
3094.37852,0.04553
3092.31835,0.04526
3090.25818,0.04506
3088.19800,0.04489
3086.13783,0.04470
3084.07766,0.04448
3082.01749,0.04420
3079.95731,0.04387
3077.89714,0.04349
3075.83697,0.04308
3073.77680,0.04280
3071.71663,0.04274
3069.65645,0.04277
3067.59628,0.04265
3065.53611,0.04220
3063.47594,0.04157
3061.41577,0.04110
3059.35559,0.04085
3057.29542,0.04068
3055.23525,0.04051
3053.17508,0.04036
3051.11491,0.04011
3049.05473,0.03961
3046.99456,0.03910
3044.93439,0.03888
3042.87422,0.03881
3040.81404,0.03858
3038.75387,0.03818
3036.69370,0.03780
3034.63353,0.03753
3032.57336,0.03731
3030.51318,0.03689
3028.45301,0.03631
3026.39284,0.03591
3024.33267,0.03571
3022.27250,0.03549
3020.21232,0.03525
3018.15215,0.03501
3016.09198,0.03474
3014.03181,0.03455
3011.97163,0.03444
3009.91146,0.03427
3007.85129,0.03403
3005.79112,0.03375
3003.73095,0.03339
3001.67077,0.03306
2999.61060,0.03299
2997.55043,0.03307
2995.49026,0.03308
2993.43009,0.03312
2991.36991,0.03315
2989.30974,0.03303
2987.24957,0.03301
2985.18940,0.03325
2983.12923,0.03348
2981.06905,0.03380
2979.00888,0.03429
2976.94871,0.03472
2974.88854,0.03509
2972.82836,0.03555
2970.76819,0.03621
2968.70802,0.03713
2966.64785,0.03825
2964.58768,0.03931
2962.52750,0.04030
2960.46733,0.04150
2958.40716,0.04287
2956.34699,0.04414
2954.28682,0.04536
2952.22664,0.04660
2950.16647,0.04785
2948.10630,0.04917
2946.04613,0.05073
2943.98596,0.05270
2941.92578,0.05496
2939.86561,0.05730
2937.80544,0.05970
2935.74527,0.06222
2933.68509,0.06479
2931.62492,0.06731
2929.56475,0.06972
2927.50458,0.07222
2925.44441,0.07482
2923.38423,0.07731
2921.32406,0.07978
2919.26389,0.08207
2917.20372,0.08294
2915.14355,0.08098
2913.08337,0.07638
2911.02320,0.07124
2908.96303,0.06729
2906.90286,0.06447
2904.84268,0.06219
2902.78251,0.06030
2900.72234,0.05874
2898.66217,0.05736
2896.60200,0.05597
2894.54182,0.05451
2892.48165,0.05312
2890.42148,0.05190
2888.36131,0.05071
2886.30114,0.04954
2884.24096,0.04846
2882.18079,0.04758
2880.12062,0.04690
2878.06045,0.04640
2876.00028,0.04624
2873.94010,0.04638
2871.87993,0.04663
2869.81976,0.04695
2867.75959,0.04739
2865.69941,0.04818
2863.63924,0.04949
2861.57907,0.05118
2859.51890,0.05322
2857.45873,0.05562
2855.39855,0.05837
2853.33838,0.06157
2851.27821,0.06478
2849.21804,0.06593
2847.15787,0.06286
2845.09769,0.05674
2843.03752,0.05074
2840.97735,0.04640
2838.91718,0.04351
2836.85700,0.04146
2834.79683,0.03986
2832.73666,0.03844
2830.67649,0.03706
2828.61632,0.03594
2826.55614,0.03519
2824.49597,0.03461
2822.43580,0.03405
2820.37563,0.03350
2818.31546,0.03301
2816.25528,0.03254
2814.19511,0.03213
2812.13494,0.03180
2810.07477,0.03143
2808.01460,0.03100
2805.95442,0.03067
2803.89425,0.03048
2801.83408,0.03029
2799.77391,0.03005
2797.71373,0.02974
2795.65356,0.02943
2793.59339,0.02928
2791.53322,0.02924
2789.47305,0.02902
2787.41287,0.02860
2785.35270,0.02834
2783.29253,0.02827
2781.23236,0.02816
2779.17219,0.02792
2777.11201,0.02769
2775.05184,0.02749
2772.99167,0.02729
2770.93150,0.02709
2768.87133,0.02692
2766.81115,0.02674
2764.75098,0.02656
2762.69081,0.02644
2760.63064,0.02637
2758.57046,0.02628
2756.51029,0.02614
2754.45012,0.02610
2752.38995,0.02615
2750.32978,0.02611
2748.26960,0.02590
2746.20943,0.02565
2744.14926,0.02552
2742.08909,0.02557
2740.02892,0.02567
2737.96874,0.02563
2735.90857,0.02544
2733.84840,0.02529
2731.78823,0.02522
2729.72805,0.02515
2727.66788,0.02513
2725.60771,0.02515
2723.54754,0.02508
2721.48737,0.02491
2719.42719,0.02476
2717.36702,0.02467
2715.30685,0.02455
2713.24668,0.02442
2711.18651,0.02439
2709.12633,0.02439
2707.06616,0.02434
2705.00599,0.02431
2702.94582,0.02425
2700.88565,0.02407
2698.82547,0.02383
2696.76530,0.02365
2694.70513,0.02352
2692.64496,0.02338
2690.58478,0.02325
2688.52461,0.02319
2686.46444,0.02318
2684.40427,0.02316
2682.34410,0.02315
2680.28392,0.02315
2678.22375,0.02299
2676.16358,0.02278
2674.10341,0.02272
2672.04324,0.02269
2669.98306,0.02253
2667.92289,0.02236
2665.86272,0.02231
2663.80255,0.02230
2661.74238,0.02220
2659.68220,0.02207
2657.62203,0.02191
2655.56186,0.02177
2653.50169,0.02171
2651.44151,0.02167
2649.38134,0.02155
2647.32117,0.02125
2645.26100,0.02090
2643.20083,0.02076
2641.14065,0.02068
2639.08048,0.02064
2637.02031,0.02059
2634.96014,0.02029
2632.89997,0.02003
2630.83979,0.02003
2628.77962,0.01996
2626.71945,0.01977
2624.65928,0.01961
2622.59910,0.01949
2620.53893,0.01943
2618.47876,0.01930
2616.41859,0.01909
2614.35842,0.01900
2612.29824,0.01891
2610.23807,0.01874
2608.17790,0.01857
2606.11773,0.01852
2604.05756,0.01859
2601.99738,0.01864
2599.93721,0.01855
2597.87704,0.01830
2595.81687,0.01797
2593.75670,0.01781
2591.69652,0.01771
2589.63635,0.01743
2587.57618,0.01719
2585.51601,0.01712
2583.45583,0.01706
2581.39566,0.01702
2579.33549,0.01693
2577.27532,0.01682
2575.21515,0.01678
2573.15497,0.01682
2571.09480,0.01690
2569.03463,0.01687
2566.97446,0.01669
2564.91429,0.01641
2562.85411,0.01622
2560.79394,0.01629
2558.73377,0.01630
2556.67360,0.01600
2554.61342,0.01560
2552.55325,0.01540
2550.49308,0.01542
2548.43291,0.01548
2546.37274,0.01553
2544.31256,0.01553
2542.25239,0.01541
2540.19222,0.01520
2538.13205,0.01501
2536.07188,0.01496
2534.01170,0.01484
2531.95153,0.01464
2529.89136,0.01459
2527.83119,0.01461
2525.77102,0.01452
2523.71084,0.01447
2521.65067,0.01461
2519.59050,0.01458
2517.53033,0.01416
2515.47015,0.01377
2513.40998,0.01372
2511.34981,0.01384
2509.28964,0.01381
2507.22947,0.01368
2505.16929,0.01357
2503.10912,0.01340
2501.04895,0.01334
2498.98878,0.01342
2496.92861,0.01323
2494.86843,0.01298
2492.80826,0.01313
2490.74809,0.01339
2488.68792,0.01336
2486.62775,0.01299
2484.56757,0.01264
2482.50740,0.01257
2480.44723,0.01261
2478.38706,0.01263
2476.32688,0.01271
2474.26671,0.01271
2472.20654,0.01251
2470.14637,0.01244
2468.08620,0.01246
2466.02602,0.01226
2463.96585,0.01211
2461.90568,0.01208
2459.84551,0.01191
2457.78534,0.01189
2455.72516,0.01207
2453.66499,0.01207
2451.60482,0.01194
2449.54465,0.01189
2447.48447,0.01179
2445.42430,0.01163
2443.36413,0.01152
2441.30396,0.01145
2439.24379,0.01134
2437.18361,0.01131
2435.12344,0.01133
2433.06327,0.01122
2431.00310,0.01099
2428.94293,0.01081
2426.88275,0.01071
2424.82258,0.01075
2422.76241,0.01097
2420.70224,0.01110
2418.64207,0.01089
2416.58189,0.01052
2414.52172,0.01038
2412.46155,0.01045
2410.40138,0.01039
2408.34120,0.01012
2406.28103,0.00992
2404.22086,0.00994
2402.16069,0.00993
2400.10052,0.00969
2398.04034,0.00944
2395.98017,0.00941
2393.92000,0.00955
2391.85983,0.00969
2389.79966,0.00984
2387.73948,0.00997
2385.67931,0.01003
2383.61914,0.01016
2381.55897,0.01036
2379.49880,0.01041
2377.43862,0.01039
2375.37845,0.01037
2373.31828,0.01021
2371.25811,0.00954
2369.19793,0.00840
2367.13776,0.00801
2365.07759,0.00902
2363.01742,0.01021
2360.95725,0.01078
2358.89707,0.01004
2356.83690,0.00955
2354.77673,0.00952
2352.71656,0.00979
2350.65639,0.01100
2348.59621,0.01116
2346.53604,0.00900
2344.47587,0.00840
2342.41570,0.00922
2340.35552,0.00970
2338.29535,0.00964
2336.23518,0.00956
2334.17501,0.00965
2332.11484,0.00938
2330.05466,0.00911
2327.99449,0.00908
2325.93432,0.00964
2323.87415,0.00991
2321.81398,0.00970
2319.75380,0.00946
2317.69363,0.00978
2315.63346,0.00985
2313.57329,0.00947
2311.51312,0.00899
2309.45294,0.00865
2307.39277,0.00852
2305.33260,0.00853
2303.27243,0.00866
2301.21225,0.00870
2299.15208,0.00851
2297.09191,0.00814
2295.03174,0.00794
2292.97157,0.00807
2290.91139,0.00830
2288.85122,0.00846
2286.79105,0.00848
2284.73088,0.00831
2282.67071,0.00814
2280.61053,0.00804
2278.55036,0.00786
2276.49019,0.00757
2274.43002,0.00729
2272.36984,0.00703
2270.30967,0.00694
2268.24950,0.00711
2266.18933,0.00707
2264.12916,0.00670
2262.06898,0.00661
2260.00881,0.00684
2257.94864,0.00690
2255.88847,0.00677
2253.82830,0.00666
2251.76812,0.00657
2249.70795,0.00646
2247.64778,0.00631
2245.58761,0.00611
2243.52744,0.00609
2241.46726,0.00617
2239.40709,0.00633
2237.34692,0.00680
2235.28675,0.00696
2233.22657,0.00626
2231.16640,0.00558
2229.10623,0.00535
2227.04606,0.00533
2224.98589,0.00555
2222.92571,0.00561
2220.86554,0.00546
2218.80537,0.00555
2216.74520,0.00574
2214.68503,0.00551
2212.62485,0.00493
2210.56468,0.00469
2208.50451,0.00525
2206.44434,0.00581
2204.38417,0.00536
2202.32399,0.00469
2200.26382,0.00462
2198.20365,0.00484
2196.14348,0.00497
2194.08330,0.00485
2192.02313,0.00476
2189.96296,0.00471
2187.90279,0.00428
2185.84262,0.00362
2183.78244,0.00301
2181.72227,0.00237
2179.66210,0.00236
2177.60193,0.00313
2175.54176,0.00363
2173.48158,0.00375
2171.42141,0.00419
2169.36124,0.00466
2167.30107,0.00464
2165.24089,0.00430
2163.18072,0.00340
2161.12055,0.00231
2159.06038,0.00204
2157.00021,0.00170
2154.94003,0.00149
2152.87986,0.00192
2150.81969,0.00203
2148.75952,0.00205
2146.69935,0.00233
2144.63917,0.00257
2142.57900,0.00298
2140.51883,0.00345
2138.45866,0.00323
2136.39849,0.00262
2134.33831,0.00283
2132.27814,0.00358
2130.21797,0.00396
2128.15780,0.00407
2126.09762,0.00399
2124.03745,0.00399
2121.97728,0.00452
2119.91711,0.00532
2117.85694,0.00555
2115.79676,0.00496
2113.73659,0.00458
2111.67642,0.00496
2109.61625,0.00520
2107.55608,0.00500
2105.49590,0.00480
2103.43573,0.00463
2101.37556,0.00449
2099.31539,0.00442
2097.25521,0.00437
2095.19504,0.00438
2093.13487,0.00446
2091.07470,0.00445
2089.01453,0.00420
2086.95435,0.00402
2084.89418,0.00432
2082.83401,0.00451
2080.77384,0.00399
2078.71367,0.00358
2076.65349,0.00384
2074.59332,0.00413
2072.53315,0.00417
2070.47298,0.00402
2068.41281,0.00396
2066.35263,0.00422
2064.29246,0.00454
2062.23229,0.00467
2060.17212,0.00472
2058.11194,0.00469
2056.05177,0.00413
2053.99160,0.00336
2051.93143,0.00324
2049.87126,0.00378
2047.81108,0.00445
2045.75091,0.00444
2043.69074,0.00351
2041.63057,0.00214
2039.57040,0.00074
2037.51022,0.00000
2035.45005,0.00029
2033.38988,0.00145
2031.32971,0.00273
2029.26954,0.00258
2027.20936,0.00150
2025.14919,0.00178
2023.08902,0.00297
2021.02885,0.00285
2018.96867,0.00174
2016.90850,0.00114
2014.84833,0.00121
2012.78816,0.00112
2010.72799,0.00067
2008.66781,0.00085
2006.60764,0.00139
2004.54747,0.00128
2002.48730,0.00105
2000.42713,0.00151
1998.36695,0.00213
1996.30678,0.00228
1994.24661,0.00236
1992.18644,0.00226
1990.12626,0.00176
1988.06609,0.00135
1986.00592,0.00108
1983.94575,0.00095
1981.88558,0.00085
1979.82540,0.00065
1977.76523,0.00089
1975.70506,0.00146
1973.64489,0.00137
1971.58472,0.00101
1969.52454,0.00114
1967.46437,0.00158
1965.40420,0.00180
1963.34403,0.00143
1961.28386,0.00076
1959.22368,0.00061
1957.16351,0.00086
1955.10334,0.00081
1953.04317,0.00066
1950.98299,0.00109
1948.92282,0.00185
1946.86265,0.00182
1944.80248,0.00095
1942.74231,0.00040
1940.68213,0.00058
1938.62196,0.00114
1936.56179,0.00160
1934.50162,0.00167
1932.44145,0.00151
1930.38127,0.00129
1928.32110,0.00108
1926.26093,0.00121
1924.20076,0.00176
1922.14059,0.00212
1920.08041,0.00204
1918.02024,0.00194
1915.96007,0.00206
1913.89990,0.00200
1911.83972,0.00158
1909.77955,0.00126
1907.71938,0.00127
1905.65921,0.00123
1903.59904,0.00111
1901.53886,0.00120
1899.47869,0.00152
1897.41852,0.00174
1895.35835,0.00167
1893.29818,0.00149
1891.23800,0.00134
1889.17783,0.00121
1887.11766,0.00104
1885.05749,0.00091
1882.99731,0.00093
1880.93714,0.00099
1878.87697,0.00092
1876.81680,0.00078
1874.75663,0.00062
1872.69645,0.00057
1870.63628,0.00068
1868.57611,0.00083
1866.51594,0.00090
1864.45577,0.00094
1862.39559,0.00089
1860.33542,0.00073
1858.27525,0.00064
1856.21508,0.00074
1854.15491,0.00086
1852.09473,0.00077
1850.03456,0.00050
1847.97439,0.00026
1845.91422,0.00016
1843.85404,0.00024
1841.79387,0.00048
1839.73370,0.00061
1837.67353,0.00047
1835.61336,0.00035
1833.55318,0.00054
1831.49301,0.00085
1829.43284,0.00094
1827.37267,0.00081
1825.31250,0.00062
1823.25232,0.00045
1821.19215,0.00037
1819.13198,0.00037
1817.07181,0.00029
1815.01163,0.00011
1812.95146,0.00000
1810.89129,-0.00001
1808.83112,0.00003
1806.77095,0.00014
1804.71077,0.00042
1802.65060,0.00072
1800.59043,0.00075
1798.53026,0.00051
1796.47009,0.00026
1794.40991,0.00015
1792.34974,0.00020
1790.28957,0.00025
1788.22940,0.00020
1786.16923,0.00012
1784.10905,0.00004
1782.04888,0.00000
1779.98871,-0.00008
1777.92854,-0.00011
1775.86836,-0.00017
1773.80819,-0.00018
1771.74802,-0.00001
1769.68785,0.00031
1767.62768,0.00073
1765.56750,0.00119
1763.50733,0.00172
1761.44716,0.00250
1759.38699,0.00348
1757.32682,0.00440
1755.26664,0.00518
1753.20647,0.00606
1751.14630,0.00751
1749.08613,0.00972
1747.02596,0.01239
1744.96578,0.01546
1742.90561,0.01918
1740.84544,0.02357
1738.78527,0.02820
1736.72509,0.03235
1734.66492,0.03618
1732.60475,0.03941
1730.54458,0.04102
1728.48441,0.04140
1726.42423,0.04123
1724.36406,0.04079
1722.30389,0.04036
1720.24372,0.04010
1718.18355,0.03978
1716.12337,0.03929
1714.06320,0.03889
1712.00303,0.03868
1709.94286,0.03846
1707.88268,0.03802
1705.82251,0.03728
1703.76234,0.03646
1701.70217,0.03562
1699.64200,0.03473
1697.58182,0.03401
1695.52165,0.03335
1693.46148,0.03279
1691.40131,0.03247
1689.34114,0.03223
1687.28096,0.03203
1685.22079,0.03180
1683.16062,0.03145
1681.10045,0.03123
1679.04028,0.03124
1676.98010,0.03136
1674.91993,0.03160
1672.85976,0.03199
1670.79959,0.03253
1668.73941,0.03328
1666.67924,0.03427
1664.61907,0.03548
1662.55890,0.03694
1660.49873,0.03848
1658.43855,0.03991
1656.37838,0.04118
1654.31821,0.04230
1652.25804,0.04325
1650.19787,0.04399
1648.13769,0.04450
1646.07752,0.04474
1644.01735,0.04488
1641.95718,0.04522
1639.89701,0.04576
1637.83683,0.04638
1635.77666,0.04697
1633.71649,0.04769
1631.65632,0.04857
1629.59614,0.04946
1627.53597,0.05029
1625.47580,0.05108
1623.41563,0.05188
1621.35546,0.05271
1619.29528,0.05354
1617.23511,0.05442
1615.17494,0.05541
1613.11477,0.05642
1611.05460,0.05731
1608.99442,0.05797
1606.93425,0.05833
1604.87408,0.05835
1602.81391,0.05796
1600.75373,0.05707
1598.69356,0.05573
1596.63339,0.05405
1594.57322,0.05211
1592.51305,0.05004
1590.45287,0.04793
1588.39270,0.04579
1586.33253,0.04367
1584.27236,0.04158
1582.21219,0.03959
1580.15201,0.03780
1578.09184,0.03596
1576.03167,0.03379
1573.97150,0.03197
1571.91133,0.03078
1569.85115,0.02948
1567.79098,0.02808
1565.73081,0.02707
1563.67064,0.02649
1561.61046,0.02619
1559.55029,0.02592
1557.49012,0.02557
1555.42995,0.02547
1553.36978,0.02557
1551.30960,0.02566
1549.24943,0.02578
1547.18926,0.02598
1545.12909,0.02615
1543.06892,0.02609
1541.00874,0.02584
1538.94857,0.02569
1536.88840,0.02566
1534.82823,0.02533
1532.76805,0.02452
1530.70788,0.02361
1528.64771,0.02281
1526.58754,0.02204
1524.52737,0.02135
1522.46719,0.02089
1520.40702,0.02086
1518.34685,0.02120
1516.28668,0.02137
1514.22651,0.02109
1512.16633,0.02046
1510.10616,0.01938
1508.04599,0.01734
1505.98582,0.01476
1503.92565,0.01329
1501.86547,0.01254
1499.80530,0.01168
1497.74513,0.01045
1495.68496,0.00896
1493.62478,0.00759
1491.56461,0.00631
1489.50444,0.00502
1487.44427,0.00414
1485.38410,0.00384
1483.32392,0.00383
1481.26375,0.00404
1479.20358,0.00464
1477.14341,0.00595
1475.08324,0.00837
1473.02306,0.01180
1470.96289,0.01518
1468.90272,0.01790
1466.84255,0.02055
1464.78238,0.02332
1462.72220,0.02545
1460.66203,0.02666
1458.60186,0.02788
1456.54169,0.02995
1454.48151,0.03210
1452.42134,0.03362
1450.36117,0.03475
1448.30100,0.03577
1446.24083,0.03661
1444.18065,0.03706
1442.12048,0.03713
1440.06031,0.03684
1438.00014,0.03585
1435.93997,0.03414
1433.87979,0.03248
1431.81962,0.03110
1429.75945,0.02970
1427.69928,0.02846
1425.63910,0.02758
1423.57893,0.02704
1421.51876,0.02680
1419.45859,0.02675
1417.39842,0.02669
1415.33824,0.02659
1413.27807,0.02639
1411.21790,0.02603
1409.15773,0.02563
1407.09756,0.02540
1405.03738,0.02541
1402.97721,0.02555
1400.91704,0.02578
1398.85687,0.02608
1396.79670,0.02635
1394.73652,0.02656
1392.67635,0.02688
1390.61618,0.02749
1388.55601,0.02830
1386.49583,0.02912
1384.43566,0.02993
1382.37549,0.03095
1380.31532,0.03214
1378.25515,0.03330
1376.19497,0.03427
1374.13480,0.03505
1372.07463,0.03569
1370.01446,0.03623
1367.95429,0.03674
1365.89411,0.03713
1363.83394,0.03737
1361.77377,0.03755
1359.71360,0.03779
1357.65343,0.03812
1355.59325,0.03852
1353.53308,0.03897
1351.47291,0.03942
1349.41274,0.03987
1347.35256,0.04033
1345.29239,0.04080
1343.23222,0.04128
1341.17205,0.04168
1339.11188,0.04209
1337.05170,0.04262
1334.99153,0.04322
1332.93136,0.04386
1330.87119,0.04466
1328.81102,0.04564
1326.75084,0.04667
1324.69067,0.04760
1322.63050,0.04838
1320.57033,0.04898
1318.51015,0.04933
1316.44998,0.04935
1314.38981,0.04908
1312.32964,0.04842
1310.26947,0.04731
1308.20929,0.04587
1306.14912,0.04417
1304.08895,0.04218
1302.02878,0.03998
1299.96861,0.03770
1297.90843,0.03547
1295.84826,0.03339
1293.78809,0.03155
1291.72792,0.02996
1289.66775,0.02869
1287.60757,0.02777
1285.54740,0.02712
1283.48723,0.02660
1281.42706,0.02622
1279.36688,0.02600
1277.30671,0.02591
1275.24654,0.02602
1273.18637,0.02640
1271.12620,0.02698
1269.06602,0.02762
1267.00585,0.02830
1264.94568,0.02903
1262.88551,0.02974
1260.82534,0.03042
1258.76516,0.03109
1256.70499,0.03179
1254.64482,0.03255
1252.58465,0.03332
1250.52447,0.03411
1248.46430,0.03499
1246.40413,0.03588
1244.34396,0.03661
1242.28379,0.03729
1240.22361,0.03814
1238.16344,0.03917
1236.10327,0.04020
1234.04310,0.04110
1231.98293,0.04194
1229.92275,0.04283
1227.86258,0.04373
1225.80241,0.04459
1223.74224,0.04557
1221.68207,0.04672
1219.62189,0.04772
1217.56172,0.04852
1215.50155,0.04944
1213.44138,0.05043
1211.38120,0.05130
1209.32103,0.05233
1207.26086,0.05358
1205.20069,0.05477
1203.14052,0.05576
1201.08034,0.05666
1199.02017,0.05741
1196.96000,0.05795
1194.89983,0.05816
1192.83966,0.05803
1190.77948,0.05765
1188.71931,0.05696
1186.65914,0.05602
1184.59897,0.05504
1182.53880,0.05416
1180.47862,0.05344
1178.41845,0.05283
1176.35828,0.05238
1174.29811,0.05227
1172.23793,0.05244
1170.17776,0.05260
1168.11759,0.05247
1166.05742,0.05201
1163.99725,0.05138
1161.93707,0.05066
1159.87690,0.04979
1157.81673,0.04885
1155.75656,0.04777
1153.69639,0.04657
1151.63621,0.04546
1149.57604,0.04447
1147.51587,0.04343
1145.45570,0.04226
1143.39552,0.04105
1141.33535,0.03985
1139.27518,0.03858
1137.21501,0.03738
1135.15484,0.03647
1133.09466,0.03597
1131.03449,0.03587
1128.97432,0.03618
1126.91415,0.03696
1124.85398,0.03817
1122.79380,0.03974
1120.73363,0.04166
1118.67346,0.04386
1116.61329,0.04635
1114.55312,0.04928
1112.49294,0.05258
1110.43277,0.05608
1108.37260,0.05958
1106.31243,0.06284
1104.25225,0.06570
1102.19208,0.06812
1100.13191,0.07012
1098.07174,0.07181
1096.01157,0.07335
1093.95139,0.07488
1091.89122,0.07651
1089.83105,0.07838
1087.77088,0.08048
1085.71071,0.08279
1083.65053,0.08528
1081.59036,0.08784
1079.53019,0.09043
1077.47002,0.09293
1075.40985,0.09507
1073.34967,0.09675
1071.28950,0.09823
1069.22933,0.09968
1067.16916,0.10115
1065.10898,0.10272
1063.04881,0.10420
1060.98864,0.10547
1058.92847,0.10677
1056.86830,0.10829
1054.80812,0.10998
1052.74795,0.11178
1050.68778,0.11371
1048.62761,0.11563
1046.56744,0.11727
1044.50726,0.11895
1042.44709,0.12106
1040.38692,0.12333
1038.32675,0.12558
1036.26657,0.12808
1034.20640,0.13078
1032.14623,0.13319
1030.08606,0.13506
1028.02589,0.13640
1025.96571,0.13721
1023.90554,0.13744
1021.84537,0.13713
1019.78520,0.13661
1017.72503,0.13615
1015.66485,0.13554
1013.60468,0.13448
1011.54451,0.13299
1009.48434,0.13099
1007.42417,0.12840
1005.36399,0.12547
1003.30382,0.12238
1001.24365,0.11910
999.18348,0.11573
997.12330,0.11241
995.06313,0.10918
993.00296,0.10589
990.94279,0.10234
988.88262,0.09861
986.82244,0.09484
984.76227,0.09108
982.70210,0.08742
980.64193,0.08367
978.58176,0.07956
976.52158,0.07559
974.46141,0.07224
972.40124,0.06936
970.34107,0.06693
968.28089,0.06501
966.22072,0.06320
964.16055,0.06123
962.10038,0.05916
960.04021,0.05683
957.98003,0.05409
955.91986,0.05121
953.85969,0.04841
951.79952,0.04572
949.73935,0.04322
947.67917,0.04087
945.61900,0.03843
943.55883,0.03603
941.49866,0.03398
939.43849,0.03233
937.37831,0.03102
935.31814,0.03004
933.25797,0.02924
931.19780,0.02856
929.13762,0.02792
927.07745,0.02707
925.01728,0.02598
922.95711,0.02468
920.89694,0.02325
918.83676,0.02196
916.77659,0.02083
914.71642,0.01947
912.65625,0.01779
910.59608,0.01601
908.53590,0.01439
906.47573,0.01316
904.41556,0.01234
902.35539,0.01167
900.29522,0.01102
898.23504,0.01071
896.17487,0.01092
894.11470,0.01134
892.05453,0.01152
889.99435,0.01133
887.93418,0.01085
885.87401,0.01029
883.81384,0.00976
881.75367,0.00951
879.69349,0.00967
877.63332,0.00991
875.57315,0.01013
873.51298,0.01049
871.45281,0.01090
869.39263,0.01118
867.33246,0.01080
865.27229,0.00962
863.21212,0.00812
861.15194,0.00660
859.09177,0.00518
857.03160,0.00390
854.97143,0.00280
852.91126,0.00194
850.85108,0.00131
848.79091,0.00093
846.73074,0.00066
844.67057,0.00019
842.61040,0.00000
840.55022,0.00033
838.49005,0.00100
836.42988,0.00164
834.36971,0.00216
832.30954,0.00259
830.24936,0.00263
828.18919,0.00236
826.12902,0.00221
824.06885,0.00248
822.00867,0.00333
819.94850,0.00424
817.88833,0.00455
815.82816,0.00432
813.76799,0.00390
811.70781,0.00364
809.64764,0.00340
807.58747,0.00291
805.52730,0.00248
803.46713,0.00205
801.40695,0.00124
799.34678,0.00036
797.28661,0.00000
795.22644,-0.00039
793.16627,-0.00070
791.10609,-0.00033
789.04592,0.00081
786.98575,0.00179
784.92558,0.00237
782.86540,0.00290
780.80523,0.00353
778.74506,0.00403
776.68489,0.00421
774.62472,0.00441
772.56454,0.00512
770.50437,0.00634
768.44420,0.00780
766.38403,0.00951
764.32386,0.01135
762.26368,0.01304
760.20351,0.01445
758.14334,0.01519
756.08317,0.01527
754.02299,0.01525
751.96282,0.01498
749.90265,0.01380
747.84248,0.01194
745.78231,0.01030
743.72213,0.00899
741.66196,0.00776
739.60179,0.00666
737.54162,0.00574
735.48145,0.00525
733.42127,0.00537
731.36110,0.00548
729.30093,0.00511
727.24076,0.00468
725.18059,0.00440
723.12041,0.00439
721.06024,0.00424
719.00007,0.00401
716.93990,0.00332
714.87972,0.00243
712.81955,0.00194
710.75938,0.00179
708.69921,0.00184
706.63904,0.00235
704.57886,0.00314
702.51869,0.00352
700.45852,0.00337
698.39835,0.00303
696.33818,0.00259
694.27800,0.00198
692.21783,0.00124
690.15766,0.00072
688.09749,0.00049
686.03731,0.00016
683.97714,-0.00019
681.91697,-0.00047
679.85680,-0.00082
677.79663,-0.00072
675.73645,0.00005
673.67628,0.00101
671.61611,0.00153
669.55594,-0.00063
667.49577,-0.00226
665.43559,0.00055
663.37542,0.00036
661.31525,-0.00007
659.25508,0.00062
657.19491,0.00163
655.13473,0.00248
653.07456,0.00276
651.01439,0.00203
648.95422,0.00089
646.89404,0.00000
644.83387,-0.00085
642.77370,-0.00076
640.71353,0.00011
638.65336,0.00052
636.59318,0.00014
634.53301,-0.00035
632.47284,-0.00033
630.41267,-0.00002
628.35250,-0.00031
626.29232,-0.00165
624.23215,-0.00304
622.17198,-0.00345
620.11181,-0.00255
618.05164,-0.00057
615.99146,0.00153
613.93129,0.00317
611.87112,0.00396
609.81095,0.00386
607.75077,0.00396
605.69060,0.00418
603.63043,0.00357
601.57026,0.00212
599.51009,0.00000
