3996.73391,0.00047
3994.67373,0.00045
3992.61356,0.00027
3990.55339,0.00009
3988.49322,0.00002
3986.43305,0.00004
3984.37287,0.00012
3982.31270,0.00021
3980.25253,0.00025
3978.19236,0.00023
3976.13219,0.00029
3974.07201,0.00046
3972.01184,0.00064
3969.95167,0.00069
3967.89150,0.00054
3965.83133,0.00032
3963.77115,0.00018
3961.71098,0.00014
3959.65081,0.00006
3957.59064,0.00000
3955.53046,0.00004
3953.47029,0.00020
3951.41012,0.00039
3949.34995,0.00047
3947.28978,0.00043
3945.22960,0.00038
3943.16943,0.00035
3941.10926,0.00036
3939.04909,0.00029
3936.98892,0.00009
3934.92874,0.00000
3932.86857,0.00023
3930.80840,0.00064
3928.74823,0.00084
3926.68805,0.00078
3924.62788,0.00068
3922.56771,0.00057
3920.50754,0.00043
3918.44737,0.00037
3916.38719,0.00040
3914.32702,0.00046
3912.26685,0.00058
3910.20668,0.00081
3908.14651,0.00103
3906.08633,0.00099
3904.02616,0.00063
3901.96599,0.00042
3899.90582,0.00049
3897.84565,0.00052
3895.78547,0.00046
3893.72530,0.00036
3891.66513,0.00030
3889.60496,0.00031
3887.54478,0.00038
3885.48461,0.00058
3883.42444,0.00078
3881.36427,0.00080
3879.30410,0.00077
3877.24392,0.00076
3875.18375,0.00058
3873.12358,0.00028
3871.06341,0.00014
3869.00324,0.00030
3866.94306,0.00056
3864.88289,0.00064
3862.82272,0.00049
3860.76255,0.00042
3858.70237,0.00054
3856.64220,0.00074
3854.58203,0.00089
3852.52186,0.00075
3850.46169,0.00040
3848.40151,0.00026
3846.34134,0.00053
3844.28117,0.00106
3842.22100,0.00143
3840.16083,0.00125
3838.10065,0.00063
3836.04048,0.00010
3833.98031,0.00000
3831.92014,0.00018
3829.85997,0.00031
3827.79979,0.00033
3825.73962,0.00028
3823.67945,0.00017
3821.61928,0.00012
3819.55910,0.00029
3817.49893,0.00056
3815.43876,0.00077
3813.37859,0.00090
3811.31842,0.00094
3809.25824,0.00085
3807.19807,0.00066
3805.13790,0.00055
3803.07773,0.00064
3801.01756,0.00087
3798.95738,0.00094
3796.89721,0.00078
3794.83704,0.00071
3792.77687,0.00089
3790.71670,0.00111
3788.65652,0.00120
3786.59635,0.00116
3784.53618,0.00103
3782.47601,0.00095
3780.41583,0.00099
3778.35566,0.00097
3776.29549,0.00083
3774.23532,0.00063
3772.17515,0.00047
3770.11497,0.00044
3768.05480,0.00052
3765.99463,0.00067
3763.93446,0.00083
3761.87429,0.00101
3759.81411,0.00121
3757.75394,0.00120
3755.69377,0.00087
3753.63360,0.00054
3751.57342,0.00045
3749.51325,0.00064
3747.45308,0.00091
3745.39291,0.00103
3743.33274,0.00085
3741.27256,0.00056
3739.21239,0.00049
3737.15222,0.00062
3735.09205,0.00072
3733.03188,0.00063
3730.97170,0.00028
3728.91153,0.00000
3726.85136,0.00031
3724.79119,0.00104
3722.73102,0.00143
3720.67084,0.00140
3718.61067,0.00133
3716.55050,0.00128
3714.49033,0.00098
3712.43015,0.00049
3710.36998,0.00032
3708.30981,0.00047
3706.24964,0.00067
3704.18947,0.00086
3702.12929,0.00092
3700.06912,0.00089
3698.00895,0.00104
3695.94878,0.00124
3693.88861,0.00126
3691.82843,0.00136
3689.76826,0.00159
3687.70809,0.00147
3685.64792,0.00106
3683.58775,0.00085
3681.52757,0.00094
3679.46740,0.00107
3677.40723,0.00112
3675.34706,0.00129
3673.28688,0.00162
3671.22671,0.00190
3669.16654,0.00201
3667.10637,0.00196
3665.04620,0.00185
3662.98602,0.00183
3660.92585,0.00208
3658.86568,0.00248
3656.80551,0.00278
3654.74534,0.00293
3652.68516,0.00300
3650.62499,0.00308
3648.56482,0.00339
3646.50465,0.00376
3644.44447,0.00396
3642.38430,0.00423
3640.32413,0.00463
3638.26396,0.00501
3636.20379,0.00541
3634.14361,0.00588
3632.08344,0.00630
3630.02327,0.00653
3627.96310,0.00672
3625.90293,0.00700
3623.84275,0.00736
3621.78258,0.00773
3619.72241,0.00799
3617.66224,0.00813
3615.60207,0.00842
3613.54189,0.00899
3611.48172,0.00959
3609.42155,0.01001
3607.36138,0.01029
3605.30120,0.01053
3603.24103,0.01089
3601.18086,0.01140
3599.12069,0.01194
3597.06052,0.01238
3595.00034,0.01267
3592.94017,0.01280
3590.88000,0.01291
3588.81983,0.01311
3586.75966,0.01342
3584.69948,0.01393
3582.63931,0.01464
3580.57914,0.01530
3578.51897,0.01572
3576.45879,0.01615
3574.39862,0.01692
3572.33845,0.01790
3570.27828,0.01875
3568.21811,0.01937
3566.15793,0.01995
3564.09776,0.02036
3562.03759,0.02049
3559.97742,0.02068
3557.91725,0.02124
3555.85707,0.02200
3553.79690,0.02273
3551.73673,0.02341
3549.67656,0.02397
3547.61639,0.02436
3545.55621,0.02480
3543.49604,0.02546
3541.43587,0.02628
3539.37570,0.02703
3537.31552,0.02762
3535.25535,0.02811
3533.19518,0.02861
3531.13501,0.02921
3529.07484,0.02984
3527.01466,0.03045
3524.95449,0.03115
3522.89432,0.03184
3520.83415,0.03230
3518.77398,0.03276
3516.71380,0.03350
3514.65363,0.03443
3512.59346,0.03518
3510.53329,0.03558
3508.47312,0.03584
3506.41294,0.03624
3504.35277,0.03681
3502.29260,0.03748
3500.23243,0.03826
3498.17225,0.03902
3496.11208,0.03963
3494.05191,0.04007
3491.99174,0.04051
3489.93157,0.04116
3487.87139,0.04191
3485.81122,0.04261
3483.75105,0.04321
3481.69088,0.04363
3479.63071,0.04399
3477.57053,0.04447
3475.51036,0.04504
3473.45019,0.04553
3471.39002,0.04602
3469.32984,0.04658
3467.26967,0.04713
3465.20950,0.04775
3463.14933,0.04837
3461.08916,0.04882
3459.02898,0.04918
3456.96881,0.04970
3454.90864,0.05031
3452.84847,0.05075
3450.78830,0.05114
3448.72812,0.05170
3446.66795,0.05228
3444.60778,0.05281
3442.54761,0.05348
3440.48744,0.05429
3438.42726,0.05499
3436.36709,0.05550
3434.30692,0.05599
3432.24675,0.05648
3430.18657,0.05699
3428.12640,0.05749
3426.06623,0.05788
3424.00606,0.05827
3421.94589,0.05885
3419.88571,0.05944
3417.82554,0.05970
3415.76537,0.05974
3413.70520,0.06016
3411.64503,0.06088
3409.58485,0.06142
3407.52468,0.06177
3405.46451,0.06225
3403.40434,0.06291
3401.34416,0.06346
3399.28399,0.06374
3397.22382,0.06379
3395.16365,0.06383
3393.10348,0.06422
3391.04330,0.06489
3388.98313,0.06558
3386.92296,0.06606
3384.86279,0.06622
3382.80262,0.06631
3380.74244,0.06655
3378.68227,0.06692
3376.62210,0.06735
3374.56193,0.06779
3372.50176,0.06819
3370.44158,0.06858
3368.38141,0.06889
3366.32124,0.06895
3364.26107,0.06905
3362.20089,0.06948
3360.14072,0.06993
3358.08055,0.07025
3356.02038,0.07049
3353.96021,0.07065
3351.90003,0.07092
3349.83986,0.07127
3347.77969,0.07157
3345.71952,0.07188
3343.65935,0.07214
3341.59917,0.07221
3339.53900,0.07214
3337.47883,0.07218
3335.41866,0.07252
3333.35849,0.07291
3331.29831,0.07306
3329.23814,0.07305
3327.17797,0.07308
3325.11780,0.07323
3323.05762,0.07348
3320.99745,0.07372
3318.93728,0.07391
3316.87711,0.07394
3314.81694,0.07384
3312.75676,0.07389
3310.69659,0.07422
3308.63642,0.07461
3306.57625,0.07494
3304.51608,0.07506
3302.45590,0.07491
3300.39573,0.07476
3298.33556,0.07487
3296.27539,0.07504
3294.21521,0.07509
3292.15504,0.07509
3290.09487,0.07523
3288.03470,0.07549
3285.97453,0.07558
3283.91435,0.07551
3281.85418,0.07568
3279.79401,0.07598
3277.73384,0.07601
3275.67367,0.07574
3273.61349,0.07546
3271.55332,0.07527
3269.49315,0.07519
3267.43298,0.07519
3265.37281,0.07507
3263.31263,0.07490
3261.25246,0.07472
3259.19229,0.07453
3257.13212,0.07451
3255.07194,0.07455
3253.01177,0.07446
3250.95160,0.07424
3248.89143,0.07397
3246.83126,0.07372
3244.77108,0.07356
3242.71091,0.07360
3240.65074,0.07363
3238.59057,0.07338
3236.53040,0.07314
3234.47022,0.07308
3232.41005,0.07292
3230.34988,0.07256
3228.28971,0.07222
3226.22954,0.07198
3224.16936,0.07184
3222.10919,0.07184
3220.04902,0.07190
3217.98885,0.07184
3215.92867,0.07159
3213.86850,0.07116
3211.80833,0.07074
3209.74816,0.07041
3207.68799,0.07000
3205.62781,0.06966
3203.56764,0.06957
3201.50747,0.06965
3199.44730,0.06959
3197.38713,0.06924
3195.32695,0.06887
3193.26678,0.06853
3191.20661,0.06822
3189.14644,0.06797
3187.08626,0.06768
3185.02609,0.06738
3182.96592,0.06707
3180.90575,0.06663
3178.84558,0.06623
3176.78540,0.06597
3174.72523,0.06566
3172.66506,0.06525
3170.60489,0.06493
3168.54472,0.06471
3166.48454,0.06446
3164.42437,0.06413
3162.36420,0.06370
3160.30403,0.06332
3158.24386,0.06305
3156.18368,0.06287
3154.12351,0.06277
3152.06334,0.06252
3150.00317,0.06194
3147.94299,0.06133
3145.88282,0.06089
3143.82265,0.06051
3141.76248,0.06022
3139.70231,0.06004
3137.64213,0.05980
3135.58196,0.05944
3133.52179,0.05908
3131.46162,0.05879
3129.40145,0.05839
3127.34127,0.05790
3125.28110,0.05744
3123.22093,0.05701
3121.16076,0.05679
3119.10058,0.05673
3117.04041,0.05642
3114.98024,0.05588
3112.92007,0.05542
3110.85990,0.05517
3108.79972,0.05501
3106.73955,0.05479
3104.67938,0.05451
3102.61921,0.05418
3100.55904,0.05385
3098.49886,0.05358
3096.43869,0.05329
3094.37852,0.05299
3092.31835,0.05268
3090.25818,0.05229
3088.19800,0.05194
3086.13783,0.05176
3084.07766,0.05162
3082.01749,0.05129
3079.95731,0.05073
3077.89714,0.05020
3075.83697,0.04999
3073.77680,0.04995
3071.71663,0.04983
3069.65645,0.04956
3067.59628,0.04922
3065.53611,0.04882
3063.47594,0.04844
3061.41577,0.04818
3059.35559,0.04794
3057.29542,0.04754
3055.23525,0.04703
3053.17508,0.04659
3051.11491,0.04621
3049.05473,0.04575
3046.99456,0.04536
3044.93439,0.04524
3042.87422,0.04515
3040.81404,0.04482
3038.75387,0.04446
3036.69370,0.04412
3034.63353,0.04368
3032.57336,0.04329
3030.51318,0.04297
3028.45301,0.04263
3026.39284,0.04225
3024.33267,0.04181
3022.27250,0.04134
3020.21232,0.04103
3018.15215,0.04091
3016.09198,0.04081
3014.03181,0.04064
3011.97163,0.04041
3009.91146,0.04009
3007.85129,0.03972
3005.79112,0.03936
3003.73095,0.03918
3001.67077,0.03916
2999.61060,0.03910
2997.55043,0.03895
2995.49026,0.03887
2993.43009,0.03886
2991.36991,0.03881
2989.30974,0.03870
2987.24957,0.03872
2985.18940,0.03904
2983.12923,0.03955
2981.06905,0.04018
2979.00888,0.04081
2976.94871,0.04136
2974.88854,0.04195
2972.82836,0.04263
2970.76819,0.04355
2968.70802,0.04479
2966.64785,0.04620
2964.58768,0.04766
2962.52750,0.04920
2960.46733,0.05088
2958.40716,0.05253
2956.34699,0.05414
2954.28682,0.05581
2952.22664,0.05738
2950.16647,0.05897
2948.10630,0.06100
2946.04613,0.06349
2943.98596,0.06621
2941.92578,0.06914
2939.86561,0.07243
2937.80544,0.07610
2935.74527,0.07992
2933.68509,0.08368
2931.62492,0.08733
2929.56475,0.09077
2927.50458,0.09392
2925.44441,0.09702
2923.38423,0.10023
2921.32406,0.10336
2919.26389,0.10574
2917.20372,0.10613
2915.14355,0.10314
2913.08337,0.09705
2911.02320,0.09030
2908.96303,0.08490
2906.90286,0.08098
2904.84268,0.07790
2902.78251,0.07529
2900.72234,0.07302
2898.66217,0.07099
2896.60200,0.06907
2894.54182,0.06718
2892.48165,0.06537
2890.42148,0.06365
2888.36131,0.06195
2886.30114,0.06031
2884.24096,0.05883
2882.18079,0.05755
2880.12062,0.05657
2878.06045,0.05597
2876.00028,0.05584
2873.94010,0.05617
2871.87993,0.05671
2869.81976,0.05725
2867.75959,0.05805
2865.69941,0.05951
2863.63924,0.06152
2861.57907,0.06410
2859.51890,0.06739
2857.45873,0.07106
2855.39855,0.07486
2853.33838,0.07895
2851.27821,0.08265
2849.21804,0.08329
2847.15787,0.07856
2845.09769,0.07029
2843.03752,0.06235
2840.97735,0.05649
2838.91718,0.05241
2836.85700,0.04940
2834.79683,0.04709
2832.73666,0.04534
2830.67649,0.04390
2828.61632,0.04268
2826.55614,0.04155
2824.49597,0.04055
2822.43580,0.03988
2820.37563,0.03943
2818.31546,0.03888
2816.25528,0.03822
2814.19511,0.03772
2812.13494,0.03732
2810.07477,0.03676
2808.01460,0.03622
2805.95442,0.03587
2803.89425,0.03555
2801.83408,0.03514
2799.77391,0.03473
2797.71373,0.03441
2795.65356,0.03418
2793.59339,0.03401
2791.53322,0.03386
2789.47305,0.03356
2787.41287,0.03300
2785.35270,0.03247
2783.29253,0.03222
2781.23236,0.03212
2779.17219,0.03198
2777.11201,0.03174
2775.05184,0.03144
2772.99167,0.03117
2770.93150,0.03108
2768.87133,0.03108
2766.81115,0.03097
2764.75098,0.03079
2762.69081,0.03062
2760.63064,0.03045
2758.57046,0.03027
2756.51029,0.03012
2754.45012,0.03008
2752.38995,0.03005
2750.32978,0.02992
2748.26960,0.02973
2746.20943,0.02957
2744.14926,0.02949
2742.08909,0.02951
2740.02892,0.02957
2737.96874,0.02949
2735.90857,0.02929
2733.84840,0.02916
2731.78823,0.02906
2729.72805,0.02897
2727.66788,0.02896
2725.60771,0.02885
2723.54754,0.02856
2721.48737,0.02829
2719.42719,0.02808
2717.36702,0.02797
2715.30685,0.02800
2713.24668,0.02801
2711.18651,0.02799
2709.12633,0.02798
2707.06616,0.02789
2705.00599,0.02772
2702.94582,0.02752
2700.88565,0.02740
2698.82547,0.02735
2696.76530,0.02726
2694.70513,0.02705
2692.64496,0.02684
2690.58478,0.02674
2688.52461,0.02670
2686.46444,0.02657
2684.40427,0.02641
2682.34410,0.02635
2680.28392,0.02635
2678.22375,0.02633
2676.16358,0.02628
2674.10341,0.02615
2672.04324,0.02585
2669.98306,0.02556
2667.92289,0.02544
2665.86272,0.02542
2663.80255,0.02539
2661.74238,0.02527
2659.68220,0.02511
2657.62203,0.02493
2655.56186,0.02468
2653.50169,0.02445
2651.44151,0.02430
2649.38134,0.02413
2647.32117,0.02384
2645.26100,0.02367
2643.20083,0.02370
2641.14065,0.02366
2639.08048,0.02354
2637.02031,0.02344
2634.96014,0.02321
2632.89997,0.02295
2630.83979,0.02278
2628.77962,0.02262
2626.71945,0.02249
2624.65928,0.02234
2622.59910,0.02225
2620.53893,0.02225
2618.47876,0.02210
2616.41859,0.02179
2614.35842,0.02154
2612.29824,0.02146
2610.23807,0.02144
2608.17790,0.02138
2606.11773,0.02139
2604.05756,0.02141
2601.99738,0.02128
2599.93721,0.02102
2597.87704,0.02060
2595.81687,0.02009
2593.75670,0.01980
2591.69652,0.01982
2589.63635,0.01991
2587.57618,0.01978
2585.51601,0.01939
2583.45583,0.01915
2581.39566,0.01925
2579.33549,0.01937
2577.27532,0.01926
2575.21515,0.01904
2573.15497,0.01891
2571.09480,0.01896
2569.03463,0.01901
2566.97446,0.01889
2564.91429,0.01865
2562.85411,0.01841
2560.79394,0.01821
2558.73377,0.01795
2556.67360,0.01772
2554.61342,0.01764
2552.55325,0.01755
2550.49308,0.01732
2548.43291,0.01717
2546.37274,0.01725
2544.31256,0.01735
2542.25239,0.01726
2540.19222,0.01715
2538.13205,0.01710
2536.07188,0.01701
2534.01170,0.01671
2531.95153,0.01635
2529.89136,0.01627
2527.83119,0.01634
2525.77102,0.01634
2523.71084,0.01625
2521.65067,0.01624
2519.59050,0.01626
2517.53033,0.01611
2515.47015,0.01582
2513.40998,0.01559
2511.34981,0.01550
2509.28964,0.01537
2507.22947,0.01516
2505.16929,0.01509
2503.10912,0.01510
2501.04895,0.01505
2498.98878,0.01495
2496.92861,0.01467
2494.86843,0.01440
2492.80826,0.01438
2490.74809,0.01442
2488.68792,0.01443
2486.62775,0.01440
2484.56757,0.01437
2482.50740,0.01442
2480.44723,0.01438
2478.38706,0.01417
2476.32688,0.01403
2474.26671,0.01399
2472.20654,0.01389
2470.14637,0.01383
2468.08620,0.01380
2466.02602,0.01367
2463.96585,0.01357
2461.90568,0.01359
2459.84551,0.01354
2457.78534,0.01328
2455.72516,0.01307
2453.66499,0.01311
2451.60482,0.01323
2449.54465,0.01334
2447.48447,0.01329
2445.42430,0.01294
2443.36413,0.01260
2441.30396,0.01233
2439.24379,0.01216
2437.18361,0.01231
2435.12344,0.01246
2433.06327,0.01232
2431.00310,0.01213
2428.94293,0.01202
2426.88275,0.01187
2424.82258,0.01171
2422.76241,0.01170
2420.70224,0.01182
2418.64207,0.01195
2416.58189,0.01194
2414.52172,0.01166
2412.46155,0.01118
2410.40138,0.01081
2408.34120,0.01068
2406.28103,0.01071
2404.22086,0.01080
2402.16069,0.01081
2400.10052,0.01065
2398.04034,0.01047
2395.98017,0.01040
2393.92000,0.01051
2391.85983,0.01067
2389.79966,0.01076
2387.73948,0.01075
2385.67931,0.01074
2383.61914,0.01079
2381.55897,0.01080
2379.49880,0.01067
2377.43862,0.01074
2375.37845,0.01122
2373.31828,0.01174
2371.25811,0.01122
2369.19793,0.00946
2367.13776,0.00832
2365.07759,0.00871
2363.01742,0.00909
2360.95725,0.00932
2358.89707,0.00925
2356.83690,0.00992
2354.77673,0.01051
2352.71656,0.01051
2350.65639,0.01128
2348.59621,0.01164
2346.53604,0.01003
2344.47587,0.01014
2342.41570,0.01163
2340.35552,0.01213
2338.29535,0.01124
2336.23518,0.01021
2334.17501,0.00965
2332.11484,0.00920
2330.05466,0.00942
2327.99449,0.01014
2325.93432,0.01112
2323.87415,0.01147
2321.81398,0.01133
2319.75380,0.01082
2317.69363,0.01046
2315.63346,0.00996
2313.57329,0.00936
2311.51312,0.00877
2309.45294,0.00844
2307.39277,0.00851
2305.33260,0.00859
2303.27243,0.00845
2301.21225,0.00826
2299.15208,0.00835
2297.09191,0.00864
2295.03174,0.00889
2292.97157,0.00896
2290.91139,0.00888
2288.85122,0.00881
2286.79105,0.00879
2284.73088,0.00868
2282.67071,0.00855
2280.61053,0.00845
2278.55036,0.00835
2276.49019,0.00813
2274.43002,0.00777
2272.36984,0.00743
2270.30967,0.00737
2268.24950,0.00750
2266.18933,0.00742
2264.12916,0.00722
2262.06898,0.00732
2260.00881,0.00737
2257.94864,0.00720
2255.88847,0.00700
2253.82830,0.00674
2251.76812,0.00646
2249.70795,0.00648
2247.64778,0.00682
2245.58761,0.00686
2243.52744,0.00649
2241.46726,0.00614
2239.40709,0.00576
2237.34692,0.00560
2235.28675,0.00607
2233.22657,0.00632
2231.16640,0.00567
2229.10623,0.00496
2227.04606,0.00495
2224.98589,0.00536
2222.92571,0.00560
2220.86554,0.00577
2218.80537,0.00598
2216.74520,0.00584
2214.68503,0.00530
2212.62485,0.00495
2210.56468,0.00544
2208.50451,0.00636
2206.44434,0.00659
2204.38417,0.00574
2202.32399,0.00463
2200.26382,0.00428
2198.20365,0.00438
2196.14348,0.00405
2194.08330,0.00372
2192.02313,0.00420
2189.96296,0.00469
2187.90279,0.00431
2185.84262,0.00342
2183.78244,0.00271
2181.72227,0.00232
2179.66210,0.00264
2177.60193,0.00361
2175.54176,0.00386
2173.48158,0.00355
2171.42141,0.00396
2169.36124,0.00474
2167.30107,0.00522
2165.24089,0.00560
2163.18072,0.00506
2161.12055,0.00321
2159.06038,0.00175
2157.00021,0.00157
2154.94003,0.00260
2152.87986,0.00411
2150.81969,0.00464
2148.75952,0.00389
2146.69935,0.00258
2144.63917,0.00218
2142.57900,0.00306
2140.51883,0.00392
2138.45866,0.00394
2136.39849,0.00327
2134.33831,0.00291
2132.27814,0.00330
2130.21797,0.00381
2128.15780,0.00413
2126.09762,0.00440
2124.03745,0.00484
2121.97728,0.00529
2119.91711,0.00563
2117.85694,0.00595
2115.79676,0.00584
2113.73659,0.00535
2111.67642,0.00513
2109.61625,0.00508
2107.55608,0.00487
2105.49590,0.00460
2103.43573,0.00455
2101.37556,0.00473
2099.31539,0.00486
2097.25521,0.00492
2095.19504,0.00502
2093.13487,0.00501
2091.07470,0.00480
2089.01453,0.00478
2086.95435,0.00493
2084.89418,0.00497
2082.83401,0.00500
2080.77384,0.00489
2078.71367,0.00461
2076.65349,0.00446
2074.59332,0.00446
2072.53315,0.00436
2070.47298,0.00413
2068.41281,0.00395
2066.35263,0.00416
2064.29246,0.00452
2062.23229,0.00433
2060.17212,0.00393
2058.11194,0.00404
2056.05177,0.00398
2053.99160,0.00344
2051.93143,0.00346
2049.87126,0.00408
2047.81108,0.00438
2045.75091,0.00412
2043.69074,0.00359
2041.63057,0.00298
2039.57040,0.00211
2037.51022,0.00110
2035.45005,0.00074
2033.38988,0.00134
2031.32971,0.00204
2029.26954,0.00157
2027.20936,0.00071
2025.14919,0.00137
2023.08902,0.00276
2021.02885,0.00317
2018.96867,0.00294
2016.90850,0.00232
2014.84833,0.00156
2012.78816,0.00144
2010.72799,0.00149
2008.66781,0.00140
2006.60764,0.00117
2004.54747,0.00081
2002.48730,0.00076
2000.42713,0.00114
1998.36695,0.00172
1996.30678,0.00233
1994.24661,0.00274
1992.18644,0.00270
1990.12626,0.00251
1988.06609,0.00265
1986.00592,0.00286
1983.94575,0.00267
1981.88558,0.00204
1979.82540,0.00108
1977.76523,0.00059
1975.70506,0.00091
1973.64489,0.00064
1971.58472,0.00000
1969.52454,0.00066
1967.46437,0.00212
1965.40420,0.00265
1963.34403,0.00232
1961.28386,0.00227
1959.22368,0.00253
1957.16351,0.00258
1955.10334,0.00238
1953.04317,0.00228
1950.98299,0.00243
1948.92282,0.00274
1946.86265,0.00280
1944.80248,0.00232
1942.74231,0.00168
1940.68213,0.00148
1938.62196,0.00191
1936.56179,0.00241
1934.50162,0.00229
1932.44145,0.00169
1930.38127,0.00127
1928.32110,0.00147
1926.26093,0.00208
1924.20076,0.00253
1922.14059,0.00266
1920.08041,0.00263
1918.02024,0.00260
1915.96007,0.00252
1913.89990,0.00218
1911.83972,0.00169
1909.77955,0.00144
1907.71938,0.00140
1905.65921,0.00130
1903.59904,0.00127
1901.53886,0.00164
1899.47869,0.00237
1897.41852,0.00280
1895.35835,0.00253
1893.29818,0.00205
1891.23800,0.00183
1889.17783,0.00165
1887.11766,0.00140
1885.05749,0.00133
1882.99731,0.00132
1880.93714,0.00114
1878.87697,0.00093
1876.81680,0.00099
1874.75663,0.00122
1872.69645,0.00143
1870.63628,0.00165
1868.57611,0.00170
1866.51594,0.00144
1864.45577,0.00118
1862.39559,0.00109
1860.33542,0.00102
1858.27525,0.00091
1856.21508,0.00088
1854.15491,0.00086
1852.09473,0.00077
1850.03456,0.00068
1847.97439,0.00071
1845.91422,0.00071
1843.85404,0.00054
1841.79387,0.00042
1839.73370,0.00053
1837.67353,0.00067
1835.61336,0.00072
1833.55318,0.00082
1831.49301,0.00095
1829.43284,0.00084
1827.37267,0.00051
1825.31250,0.00029
1823.25232,0.00025
1821.19215,0.00022
1819.13198,0.00011
1817.07181,0.00000
1815.01163,-0.00011
1812.95146,-0.00014
1810.89129,-0.00013
1808.83112,-0.00008
1806.77095,-0.00002
1804.71077,0.00002
1802.65060,0.00007
1800.59043,0.00016
1798.53026,0.00022
1796.47009,0.00013
1794.40991,-0.00012
1792.34974,-0.00024
1790.28957,-0.00013
1788.22940,-0.00001
1786.16923,-0.00004
1784.10905,-0.00007
1782.04888,0.00000
1779.98871,-0.00002
1777.92854,-0.00014
1775.86836,-0.00030
1773.80819,-0.00030
1771.74802,-0.00002
1769.68785,0.00045
1767.62768,0.00091
1765.56750,0.00139
1763.50733,0.00205
1761.44716,0.00303
1759.38699,0.00429
1757.32682,0.00566
1755.26664,0.00690
1753.20647,0.00818
1751.14630,0.01020
1749.08613,0.01322
1747.02596,0.01672
1744.96578,0.02083
1742.90561,0.02607
1740.84544,0.03236
1738.78527,0.03876
1736.72509,0.04430
1734.66492,0.04953
1732.60475,0.05419
1730.54458,0.05658
1728.48441,0.05708
1726.42423,0.05673
1724.36406,0.05603
1722.30389,0.05535
1720.24372,0.05490
1718.18355,0.05435
1716.12337,0.05361
1714.06320,0.05323
1712.00303,0.05313
1709.94286,0.05280
1707.88268,0.05202
1705.82251,0.05080
1703.76234,0.04933
1701.70217,0.04774
1699.64200,0.04594
1697.58182,0.04445
1695.52165,0.04340
1693.46148,0.04261
1691.40131,0.04192
1689.34114,0.04124
1687.28096,0.04061
1685.22079,0.03994
1683.16062,0.03918
1681.10045,0.03873
1679.04028,0.03867
1676.98010,0.03880
1674.91993,0.03891
1672.85976,0.03891
1670.79959,0.03899
1668.73941,0.03945
1666.67924,0.04031
1664.61907,0.04147
1662.55890,0.04301
1660.49873,0.04472
1658.43855,0.04625
1656.37838,0.04753
1654.31821,0.04879
1652.25804,0.05011
1650.19787,0.05091
1648.13769,0.05115
1646.07752,0.05120
1644.01735,0.05137
1641.95718,0.05171
1639.89701,0.05215
1637.83683,0.05265
1635.77666,0.05335
1633.71649,0.05425
1631.65632,0.05517
1629.59614,0.05607
1627.53597,0.05698
1625.47580,0.05795
1623.41563,0.05905
1621.35546,0.06011
1619.29528,0.06107
1617.23511,0.06223
1615.17494,0.06362
1613.11477,0.06487
1611.05460,0.06592
1608.99442,0.06677
1606.93425,0.06732
1604.87408,0.06741
1602.81391,0.06700
1600.75373,0.06607
1598.69356,0.06470
1596.63339,0.06291
1594.57322,0.06077
1592.51305,0.05842
1590.45287,0.05596
1588.39270,0.05345
1586.33253,0.05095
1584.27236,0.04847
1582.21219,0.04608
1580.15201,0.04389
1578.09184,0.04168
1576.03167,0.03916
1573.97150,0.03694
1571.91133,0.03539
1569.85115,0.03387
1567.79098,0.03231
1565.73081,0.03115
1563.67064,0.03040
1561.61046,0.02997
1559.55029,0.02969
1557.49012,0.02937
1555.42995,0.02923
1553.36978,0.02929
1551.30960,0.02940
1549.24943,0.02956
1547.18926,0.02976
1545.12909,0.02990
1543.06892,0.02993
1541.00874,0.02983
1538.94857,0.02961
1536.88840,0.02929
1534.82823,0.02868
1532.76805,0.02777
1530.70788,0.02690
1528.64771,0.02608
1526.58754,0.02510
1524.52737,0.02412
1522.46719,0.02340
1520.40702,0.02316
1518.34685,0.02341
1516.28668,0.02370
1514.22651,0.02357
1512.16633,0.02294
1510.10616,0.02174
1508.04599,0.01959
1505.98582,0.01684
1503.92565,0.01509
1501.86547,0.01411
1499.80530,0.01296
1497.74513,0.01136
1495.68496,0.00953
1493.62478,0.00792
1491.56461,0.00652
1489.50444,0.00521
1487.44427,0.00421
1485.38410,0.00369
1483.32392,0.00361
1481.26375,0.00395
1479.20358,0.00477
1477.14341,0.00646
1475.08324,0.00955
1473.02306,0.01395
1470.96289,0.01836
1468.90272,0.02184
1466.84255,0.02512
1464.78238,0.02853
1462.72220,0.03099
1460.66203,0.03215
1458.60186,0.03336
1456.54169,0.03570
1454.48151,0.03814
1452.42134,0.03981
1450.36117,0.04108
1448.30100,0.04237
1446.24083,0.04359
1444.18065,0.04441
1442.12048,0.04469
1440.06031,0.04430
1438.00014,0.04298
1435.93997,0.04079
1433.87979,0.03857
1431.81962,0.03656
1429.75945,0.03462
1427.69928,0.03304
1425.63910,0.03201
1423.57893,0.03144
1421.51876,0.03130
1419.45859,0.03150
1417.39842,0.03173
1415.33824,0.03177
1413.27807,0.03167
1411.21790,0.03144
1409.15773,0.03113
1407.09756,0.03087
1405.03738,0.03076
1402.97721,0.03079
1400.91704,0.03092
1398.85687,0.03116
1396.79670,0.03150
1394.73652,0.03192
1392.67635,0.03241
1390.61618,0.03300
1388.55601,0.03380
1386.49583,0.03481
1384.43566,0.03586
1382.37549,0.03702
1380.31532,0.03837
1378.25515,0.03972
1376.19497,0.04090
1374.13480,0.04196
1372.07463,0.04286
1370.01446,0.04358
1367.95429,0.04420
1365.89411,0.04471
1363.83394,0.04510
1361.77377,0.04548
1359.71360,0.04583
1357.65343,0.04623
1355.59325,0.04673
1353.53308,0.04731
1351.47291,0.04794
1349.41274,0.04862
1347.35256,0.04934
1345.29239,0.05005
1343.23222,0.05073
1341.17205,0.05144
1339.11188,0.05217
1337.05170,0.05281
1334.99153,0.05336
1332.93136,0.05399
1330.87119,0.05480
1328.81102,0.05573
1326.75084,0.05665
1324.69067,0.05755
1322.63050,0.05841
1320.57033,0.05915
1318.51015,0.05969
1316.44998,0.05992
1314.38981,0.05978
1312.32964,0.05917
1310.26947,0.05807
1308.20929,0.05658
1306.14912,0.05475
1304.08895,0.05257
1302.02878,0.05004
1299.96861,0.04732
1297.90843,0.04469
1295.84826,0.04227
1293.78809,0.04013
1291.72792,0.03823
1289.66775,0.03667
1287.60757,0.03562
1285.54740,0.03492
1283.48723,0.03436
1281.42706,0.03399
1279.36688,0.03383
1277.30671,0.03382
1275.24654,0.03401
1273.18637,0.03444
1271.12620,0.03508
1269.06602,0.03595
1267.00585,0.03694
1264.94568,0.03789
1262.88551,0.03886
1260.82534,0.03984
1258.76516,0.04076
1256.70499,0.04163
1254.64482,0.04256
1252.58465,0.04357
1250.52447,0.04457
1248.46430,0.04557
1246.40413,0.04673
1244.34396,0.04800
1242.28379,0.04915
1240.22361,0.05026
1238.16344,0.05148
1236.10327,0.05267
1234.04310,0.05376
1231.98293,0.05486
1229.92275,0.05603
1227.86258,0.05707
1225.80241,0.05798
1223.74224,0.05901
1221.68207,0.06021
1219.62189,0.06141
1217.56172,0.06250
1215.50155,0.06358
1213.44138,0.06470
1211.38120,0.06583
1209.32103,0.06704
1207.26086,0.06849
1205.20069,0.07014
1203.14052,0.07177
1201.08034,0.07314
1199.02017,0.07406
1196.96000,0.07464
1194.89983,0.07495
1192.83966,0.07499
1190.77948,0.07467
1188.71931,0.07395
1186.65914,0.07310
1184.59897,0.07216
1182.53880,0.07107
1180.47862,0.06997
1178.41845,0.06908
1176.35828,0.06857
1174.29811,0.06830
1172.23793,0.06798
1170.17776,0.06747
1168.11759,0.06674
1166.05742,0.06581
1163.99725,0.06466
1161.93707,0.06326
1159.87690,0.06174
1157.81673,0.06040
1155.75656,0.05909
1153.69639,0.05767
1151.63621,0.05628
1149.57604,0.05492
1147.51587,0.05346
1145.45570,0.05188
1143.39552,0.05028
1141.33535,0.04871
1139.27518,0.04716
1137.21501,0.04567
1135.15484,0.04441
1133.09466,0.04366
1131.03449,0.04346
1128.97432,0.04371
1126.91415,0.04449
1124.85398,0.04586
1122.79380,0.04771
1120.73363,0.05006
1118.67346,0.05278
1116.61329,0.05571
1114.55312,0.05900
1112.49294,0.06274
1110.43277,0.06676
1108.37260,0.07081
1106.31243,0.07466
1104.25225,0.07813
1102.19208,0.08112
1100.13191,0.08368
1098.07174,0.08573
1096.01157,0.08728
1093.95139,0.08881
1091.89122,0.09061
1089.83105,0.09259
1087.77088,0.09490
1085.71071,0.09753
1083.65053,0.10017
1081.59036,0.10294
1079.53019,0.10583
1077.47002,0.10856
1075.40985,0.11095
1073.34967,0.11296
1071.28950,0.11474
1069.22933,0.11630
1067.16916,0.11759
1065.10898,0.11893
1063.04881,0.12047
1060.98864,0.12183
1058.92847,0.12297
1056.86830,0.12422
1054.80812,0.12563
1052.74795,0.12717
1050.68778,0.12895
1048.62761,0.13107
1046.56744,0.13350
1044.50726,0.13591
1042.44709,0.13817
1040.38692,0.14059
1038.32675,0.14321
1036.26657,0.14579
1034.20640,0.14829
1032.14623,0.15060
1030.08606,0.15237
1028.02589,0.15380
1025.96571,0.15518
1023.90554,0.15624
1021.84537,0.15671
1019.78520,0.15686
1017.72503,0.15700
1015.66485,0.15681
1013.60468,0.15583
1011.54451,0.15406
1009.48434,0.15162
1007.42417,0.14855
1005.36399,0.14488
1003.30382,0.14083
1001.24365,0.13672
999.18348,0.13253
997.12330,0.12836
995.06313,0.12452
993.00296,0.12097
990.94279,0.11725
988.88262,0.11307
986.82244,0.10870
984.76227,0.10419
982.70210,0.09938
980.64193,0.09454
978.58176,0.09007
976.52158,0.08602
974.46141,0.08232
972.40124,0.07908
970.34107,0.07630
968.28089,0.07392
966.22072,0.07179
964.16055,0.06974
962.10038,0.06766
960.04021,0.06521
957.98003,0.06238
955.91986,0.05948
953.85969,0.05640
951.79952,0.05307
949.73935,0.04984
947.67917,0.04687
945.61900,0.04399
943.55883,0.04102
941.49866,0.03823
939.43849,0.03594
937.37831,0.03418
935.31814,0.03302
933.25797,0.03223
931.19780,0.03137
929.13762,0.03050
927.07745,0.02968
925.01728,0.02855
922.95711,0.02711
920.89694,0.02568
918.83676,0.02422
916.77659,0.02267
914.71642,0.02116
912.65625,0.01945
910.59608,0.01727
908.53590,0.01521
906.47573,0.01381
904.41556,0.01295
902.35539,0.01232
900.29522,0.01182
898.23504,0.01150
896.17487,0.01142
894.11470,0.01148
892.05453,0.01152
889.99435,0.01129
887.93418,0.01085
885.87401,0.01046
883.81384,0.01010
881.75367,0.00999
879.69349,0.01043
877.63332,0.01102
875.57315,0.01151
873.51298,0.01204
871.45281,0.01245
869.39263,0.01254
867.33246,0.01212
865.27229,0.01098
863.21212,0.00930
861.15194,0.00738
859.09177,0.00548
857.03160,0.00382
854.97143,0.00245
852.91126,0.00151
850.85108,0.00094
848.79091,0.00037
846.73074,0.00000
844.67057,0.00014
842.61040,0.00061
840.55022,0.00122
838.49005,0.00215
836.42988,0.00313
834.36971,0.00397
832.30954,0.00470
830.24936,0.00485
828.18919,0.00427
826.12902,0.00386
824.06885,0.00433
822.00867,0.00534
819.94850,0.00617
817.88833,0.00651
815.82816,0.00646
813.76799,0.00613
811.70781,0.00570
809.64764,0.00504
807.58747,0.00402
805.52730,0.00307
803.46713,0.00208
801.40695,0.00106
799.34678,0.00039
797.28661,0.00000
795.22644,-0.00066
793.16627,-0.00076
791.10609,-0.00023
789.04592,0.00049
786.98575,0.00119
784.92558,0.00218
782.86540,0.00329
780.80523,0.00398
778.74506,0.00416
776.68489,0.00409
774.62472,0.00426
772.56454,0.00522
770.50437,0.00685
768.44420,0.00870
766.38403,0.01087
764.32386,0.01333
762.26368,0.01564
760.20351,0.01754
758.14334,0.01893
756.08317,0.01973
754.02299,0.01981
751.96282,0.01893
749.90265,0.01701
747.84248,0.01466
745.78231,0.01281
743.72213,0.01144
741.66196,0.01010
739.60179,0.00897
737.54162,0.00850
735.48145,0.00847
733.42127,0.00862
731.36110,0.00907
729.30093,0.00948
727.24076,0.00948
725.18059,0.00923
723.12041,0.00931
721.06024,0.00941
719.00007,0.00894
716.93990,0.00733
714.87972,0.00558
712.81955,0.00478
710.75938,0.00460
708.69921,0.00461
706.63904,0.00495
704.57886,0.00536
702.51869,0.00532
700.45852,0.00480
698.39835,0.00405
696.33818,0.00318
694.27800,0.00219
692.21783,0.00102
690.15766,0.00000
688.09749,-0.00033
686.03731,-0.00018
683.97714,-0.00016
681.91697,-0.00047
679.85680,-0.00068
677.79663,-0.00025
675.73645,0.00033
673.67628,0.00089
671.61611,0.00190
669.55594,0.00080
667.49577,-0.00114
665.43559,0.00102
663.37542,0.00072
661.31525,0.00050
659.25508,0.00068
657.19491,0.00077
655.13473,0.00105
653.07456,0.00150
651.01439,0.00159
648.95422,0.00094
646.89404,0.00000
644.83387,-0.00061
642.77370,0.00008
640.71353,0.00166
638.65336,0.00267
636.59318,0.00230
634.53301,0.00146
632.47284,0.00141
630.41267,0.00155
628.35250,0.00010
626.29232,-0.00263
624.23215,-0.00324
622.17198,-0.00163
620.11181,-0.00006
618.05164,0.00251
615.99146,0.00547
613.93129,0.00556
611.87112,0.00438
609.81095,0.00378
607.75077,0.00300
605.69060,0.00223
603.63043,0.00164
601.57026,0.00061
599.51009,0.00000
