3996.73391,0.00009
3994.67373,0.00025
3992.61356,0.00030
3990.55339,0.00012
3988.49322,-0.00009
3986.43305,-0.00003
3984.37287,0.00013
3982.31270,0.00018
3980.25253,0.00024
3978.19236,0.00026
3976.13219,0.00008
3974.07201,-0.00003
3972.01184,0.00008
3969.95167,0.00024
3967.89150,0.00036
3965.83133,0.00047
3963.77115,0.00050
3961.71098,0.00034
3959.65081,0.00008
3957.59064,0.00000
3955.53046,0.00012
3953.47029,0.00022
3951.41012,0.00024
3949.34995,0.00023
3947.28978,0.00027
3945.22960,0.00042
3943.16943,0.00060
3941.10926,0.00060
3939.04909,0.00041
3936.98892,0.00023
3934.92874,0.00022
3932.86857,0.00033
3930.80840,0.00038
3928.74823,0.00045
3926.68805,0.00066
3924.62788,0.00074
3922.56771,0.00055
3920.50754,0.00038
3918.44737,0.00037
3916.38719,0.00047
3914.32702,0.00055
3912.26685,0.00050
3910.20668,0.00049
3908.14651,0.00059
3906.08633,0.00072
3904.02616,0.00080
3901.96599,0.00065
3899.90582,0.00028
3897.84565,0.00006
3895.78547,0.00021
3893.72530,0.00051
3891.66513,0.00054
3889.60496,0.00035
3887.54478,0.00026
3885.48461,0.00028
3883.42444,0.00038
3881.36427,0.00060
3879.30410,0.00076
3877.24392,0.00067
3875.18375,0.00047
3873.12358,0.00031
3871.06341,0.00024
3869.00324,0.00023
3866.94306,0.00031
3864.88289,0.00048
3862.82272,0.00068
3860.76255,0.00062
3858.70237,0.00035
3856.64220,0.00015
3854.58203,0.00015
3852.52186,0.00025
3850.46169,0.00040
3848.40151,0.00050
3846.34134,0.00047
3844.28117,0.00034
3842.22100,0.00025
3840.16083,0.00038
3838.10065,0.00065
3836.04048,0.00082
3833.98031,0.00088
3831.92014,0.00084
3829.85997,0.00068
3827.79979,0.00060
3825.73962,0.00071
3823.67945,0.00086
3821.61928,0.00088
3819.55910,0.00067
3817.49893,0.00042
3815.43876,0.00040
3813.37859,0.00052
3811.31842,0.00046
3809.25824,0.00018
3807.19807,0.00000
3805.13790,0.00021
3803.07773,0.00052
3801.01756,0.00059
3798.95738,0.00061
3796.89721,0.00065
3794.83704,0.00065
3792.77687,0.00061
3790.71670,0.00055
3788.65652,0.00049
3786.59635,0.00053
3784.53618,0.00066
3782.47601,0.00088
3780.41583,0.00108
3778.35566,0.00116
3776.29549,0.00114
3774.23532,0.00097
3772.17515,0.00059
3770.11497,0.00020
3768.05480,0.00009
3765.99463,0.00011
3763.93446,0.00012
3761.87429,0.00031
3759.81411,0.00057
3757.75394,0.00067
3755.69377,0.00076
3753.63360,0.00108
3751.57342,0.00135
3749.51325,0.00120
3747.45308,0.00080
3745.39291,0.00042
3743.33274,0.00025
3741.27256,0.00039
3739.21239,0.00066
3737.15222,0.00086
3735.09205,0.00091
3733.03188,0.00095
3730.97170,0.00084
3728.91153,0.00043
3726.85136,0.00002
3724.79119,0.00000
3722.73102,0.00038
3720.67084,0.00088
3718.61067,0.00101
3716.55050,0.00071
3714.49033,0.00060
3712.43015,0.00098
3710.36998,0.00131
3708.30981,0.00109
3706.24964,0.00080
3704.18947,0.00079
3702.12929,0.00088
3700.06912,0.00090
3698.00895,0.00079
3695.94878,0.00058
3693.88861,0.00040
3691.82843,0.00040
3689.76826,0.00062
3687.70809,0.00087
3685.64792,0.00084
3683.58775,0.00074
3681.52757,0.00076
3679.46740,0.00082
3677.40723,0.00095
3675.34706,0.00119
3673.28688,0.00123
3671.22671,0.00082
3669.16654,0.00039
3667.10637,0.00058
3665.04620,0.00108
3662.98602,0.00133
3660.92585,0.00127
3658.86568,0.00131
3656.80551,0.00165
3654.74534,0.00214
3652.68516,0.00259
3650.62499,0.00268
3648.56482,0.00223
3646.50465,0.00197
3644.44447,0.00230
3642.38430,0.00278
3640.32413,0.00317
3638.26396,0.00340
3636.20379,0.00340
3634.14361,0.00321
3632.08344,0.00316
3630.02327,0.00338
3627.96310,0.00363
3625.90293,0.00387
3623.84275,0.00423
3621.78258,0.00473
3619.72241,0.00524
3617.66224,0.00562
3615.60207,0.00583
3613.54189,0.00598
3611.48172,0.00603
3609.42155,0.00601
3607.36138,0.00619
3605.30120,0.00656
3603.24103,0.00682
3601.18086,0.00696
3599.12069,0.00712
3597.06052,0.00743
3595.00034,0.00798
3592.94017,0.00857
3590.88000,0.00891
3588.81983,0.00914
3586.75966,0.00950
3584.69948,0.00979
3582.63931,0.00997
3580.57914,0.01016
3578.51897,0.01034
3576.45879,0.01061
3574.39862,0.01098
3572.33845,0.01123
3570.27828,0.01140
3568.21811,0.01164
3566.15793,0.01215
3564.09776,0.01293
3562.03759,0.01370
3559.97742,0.01421
3557.91725,0.01449
3555.85707,0.01476
3553.79690,0.01517
3551.73673,0.01564
3549.67656,0.01595
3547.61639,0.01608
3545.55621,0.01617
3543.49604,0.01644
3541.43587,0.01698
3539.37570,0.01766
3537.31552,0.01827
3535.25535,0.01871
3533.19518,0.01911
3531.13501,0.01953
3529.07484,0.01986
3527.01466,0.02008
3524.95449,0.02040
3522.89432,0.02089
3520.83415,0.02134
3518.77398,0.02181
3516.71380,0.02247
3514.65363,0.02301
3512.59346,0.02318
3510.53329,0.02335
3508.47312,0.02386
3506.41294,0.02448
3504.35277,0.02492
3502.29260,0.02527
3500.23243,0.02567
3498.17225,0.02602
3496.11208,0.02627
3494.05191,0.02660
3491.99174,0.02715
3489.93157,0.02773
3487.87139,0.02806
3485.81122,0.02822
3483.75105,0.02855
3481.69088,0.02902
3479.63071,0.02945
3477.57053,0.02985
3475.51036,0.03030
3473.45019,0.03083
3471.39002,0.03138
3469.32984,0.03194
3467.26967,0.03250
3465.20950,0.03295
3463.14933,0.03323
3461.08916,0.03336
3459.02898,0.03345
3456.96881,0.03368
3454.90864,0.03412
3452.84847,0.03466
3450.78830,0.03520
3448.72812,0.03575
3446.66795,0.03608
3444.60778,0.03615
3442.54761,0.03628
3440.48744,0.03666
3438.42726,0.03710
3436.36709,0.03756
3434.30692,0.03815
3432.24675,0.03874
3430.18657,0.03920
3428.12640,0.03958
3426.06623,0.04007
3424.00606,0.04062
3421.94589,0.04097
3419.88571,0.04105
3417.82554,0.04104
3415.76537,0.04121
3413.70520,0.04148
3411.64503,0.04156
3409.58485,0.04173
3407.52468,0.04229
3405.46451,0.04307
3403.40434,0.04367
3401.34416,0.04407
3399.28399,0.04430
3397.22382,0.04433
3395.16365,0.04437
3393.10348,0.04460
3391.04330,0.04501
3388.98313,0.04553
3386.92296,0.04593
3384.86279,0.04608
3382.80262,0.04617
3380.74244,0.04646
3378.68227,0.04686
3376.62210,0.04714
3374.56193,0.04734
3372.50176,0.04763
3370.44158,0.04777
3368.38141,0.04765
3366.32124,0.04766
3364.26107,0.04807
3362.20089,0.04859
3360.14072,0.04891
3358.08055,0.04900
3356.02038,0.04904
3353.96021,0.04922
3351.90003,0.04949
3349.83986,0.04961
3347.77969,0.04961
3345.71952,0.04973
3343.65935,0.05009
3341.59917,0.05045
3339.53900,0.05055
3337.47883,0.05057
3335.41866,0.05061
3333.35849,0.05071
3331.29831,0.05099
3329.23814,0.05130
3327.17797,0.05145
3325.11780,0.05141
3323.05762,0.05126
3320.99745,0.05131
3318.93728,0.05154
3316.87711,0.05169
3314.81694,0.05182
3312.75676,0.05208
3310.69659,0.05231
3308.63642,0.05244
3306.57625,0.05257
3304.51608,0.05266
3302.45590,0.05269
3300.39573,0.05272
3298.33556,0.05279
3296.27539,0.05292
3294.21521,0.05301
3292.15504,0.05297
3290.09487,0.05299
3288.03470,0.05317
3285.97453,0.05333
3283.91435,0.05332
3281.85418,0.05321
3279.79401,0.05318
3277.73384,0.05316
3275.67367,0.05312
3273.61349,0.05323
3271.55332,0.05340
3269.49315,0.05325
3267.43298,0.05289
3265.37281,0.05272
3263.31263,0.05275
3261.25246,0.05280
3259.19229,0.05281
3257.13212,0.05273
3255.07194,0.05247
3253.01177,0.05206
3250.95160,0.05179
3248.89143,0.05180
3246.83126,0.05181
3244.77108,0.05161
3242.71091,0.05142
3240.65074,0.05134
3238.59057,0.05126
3236.53040,0.05123
3234.47022,0.05122
3232.41005,0.05102
3230.34988,0.05057
3228.28971,0.05020
3226.22954,0.05008
3224.16936,0.05015
3222.10919,0.05036
3220.04902,0.05042
3217.98885,0.05020
3215.92867,0.04993
3213.86850,0.04964
3211.80833,0.04932
3209.74816,0.04903
3207.68799,0.04868
3205.62781,0.04839
3203.56764,0.04834
3201.50747,0.04840
3199.44730,0.04837
3197.38713,0.04811
3195.32695,0.04780
3193.26678,0.04772
3191.20661,0.04776
3189.14644,0.04774
3187.08626,0.04763
3185.02609,0.04752
3182.96592,0.04737
3180.90575,0.04695
3178.84558,0.04644
3176.78540,0.04617
3174.72523,0.04609
3172.66506,0.04601
3170.60489,0.04581
3168.54472,0.04549
3166.48454,0.04514
3164.42437,0.04482
3162.36420,0.04459
3160.30403,0.04437
3158.24386,0.04409
3156.18368,0.04381
3154.12351,0.04342
3152.06334,0.04297
3150.00317,0.04276
3147.94299,0.04272
3145.88282,0.04262
3143.82265,0.04243
3141.76248,0.04233
3139.70231,0.04224
3137.64213,0.04199
3135.58196,0.04158
3133.52179,0.04119
3131.46162,0.04099
3129.40145,0.04088
3127.34127,0.04057
3125.28110,0.04008
3123.22093,0.03971
3121.16076,0.03958
3119.10058,0.03944
3117.04041,0.03925
3114.98024,0.03903
3112.92007,0.03875
3110.85990,0.03856
3108.79972,0.03843
3106.73955,0.03820
3104.67938,0.03784
3102.61921,0.03749
3100.55904,0.03727
3098.49886,0.03721
3096.43869,0.03716
3094.37852,0.03689
3092.31835,0.03646
3090.25818,0.03613
3088.19800,0.03591
3086.13783,0.03572
3084.07766,0.03555
3082.01749,0.03541
3079.95731,0.03539
3077.89714,0.03529
3075.83697,0.03496
3073.77680,0.03462
3071.71663,0.03440
3069.65645,0.03413
3067.59628,0.03394
3065.53611,0.03391
3063.47594,0.03385
3061.41577,0.03364
3059.35559,0.03330
3057.29542,0.03293
3055.23525,0.03262
3053.17508,0.03244
3051.11491,0.03230
3049.05473,0.03199
3046.99456,0.03158
3044.93439,0.03131
3042.87422,0.03114
3040.81404,0.03090
3038.75387,0.03064
3036.69370,0.03053
3034.63353,0.03042
3032.57336,0.03020
3030.51318,0.02999
3028.45301,0.02975
3026.39284,0.02945
3024.33267,0.02925
3022.27250,0.02899
3020.21232,0.02858
3018.15215,0.02829
3016.09198,0.02824
3014.03181,0.02825
3011.97163,0.02805
3009.91146,0.02782
3007.85129,0.02778
3005.79112,0.02772
3003.73095,0.02749
3001.67077,0.02724
2999.61060,0.02701
2997.55043,0.02680
2995.49026,0.02662
2993.43009,0.02646
2991.36991,0.02646
2989.30974,0.02673
2987.24957,0.02703
2985.18940,0.02720
2983.12923,0.02740
2981.06905,0.02767
2979.00888,0.02799
2976.94871,0.02847
2974.88854,0.02903
2972.82836,0.02953
2970.76819,0.03006
2968.70802,0.03068
2966.64785,0.03148
2964.58768,0.03253
2962.52750,0.03362
2960.46733,0.03468
2958.40716,0.03590
2956.34699,0.03719
2954.28682,0.03836
2952.22664,0.03957
2950.16647,0.04079
2948.10630,0.04190
2946.04613,0.04326
2943.98596,0.04506
2941.92578,0.04711
2939.86561,0.04936
2937.80544,0.05170
2935.74527,0.05404
2933.68509,0.05658
2931.62492,0.05925
2929.56475,0.06166
2927.50458,0.06370
2925.44441,0.06562
2923.38423,0.06756
2921.32406,0.06940
2919.26389,0.07087
2917.20372,0.07121
2915.14355,0.06945
2913.08337,0.06570
2911.02320,0.06142
2908.96303,0.05788
2906.90286,0.05534
2904.84268,0.05337
2902.78251,0.05165
2900.72234,0.05020
2898.66217,0.04906
2896.60200,0.04807
2894.54182,0.04692
2892.48165,0.04555
2890.42148,0.04435
2888.36131,0.04344
2886.30114,0.04251
2884.24096,0.04150
2882.18079,0.04058
2880.12062,0.03989
2878.06045,0.03948
2876.00028,0.03938
2873.94010,0.03957
2871.87993,0.03983
2869.81976,0.04011
2867.75959,0.04057
2865.69941,0.04140
2863.63924,0.04269
2861.57907,0.04436
2859.51890,0.04631
2857.45873,0.04858
2855.39855,0.05118
2853.33838,0.05396
2851.27821,0.05639
2849.21804,0.05694
2847.15787,0.05418
2845.09769,0.04912
2843.03752,0.04407
2840.97735,0.04026
2838.91718,0.03753
2836.85700,0.03540
2834.79683,0.03375
2832.73666,0.03253
2830.67649,0.03149
2828.61632,0.03059
2826.55614,0.02996
2824.49597,0.02941
2822.43580,0.02878
2820.37563,0.02827
2818.31546,0.02808
2816.25528,0.02792
2814.19511,0.02744
2812.13494,0.02685
2810.07477,0.02643
2808.01460,0.02622
2805.95442,0.02611
2803.89425,0.02600
2801.83408,0.02584
2799.77391,0.02558
2797.71373,0.02515
2795.65356,0.02465
2793.59339,0.02431
2791.53322,0.02422
2789.47305,0.02418
2787.41287,0.02409
2785.35270,0.02400
2783.29253,0.02386
2781.23236,0.02372
2779.17219,0.02352
2777.11201,0.02330
2775.05184,0.02317
2772.99167,0.02305
2770.93150,0.02295
2768.87133,0.02286
2766.81115,0.02264
2764.75098,0.02239
2762.69081,0.02220
2760.63064,0.02210
2758.57046,0.02223
2756.51029,0.02236
2754.45012,0.02226
2752.38995,0.02214
2750.32978,0.02210
2748.26960,0.02199
2746.20943,0.02178
2744.14926,0.02153
2742.08909,0.02140
2740.02892,0.02142
2737.96874,0.02147
2735.90857,0.02147
2733.84840,0.02145
2731.78823,0.02148
2729.72805,0.02148
2727.66788,0.02145
2725.60771,0.02139
2723.54754,0.02125
2721.48737,0.02103
2719.42719,0.02082
2717.36702,0.02060
2715.30685,0.02046
2713.24668,0.02043
2711.18651,0.02041
2709.12633,0.02032
2707.06616,0.02023
2705.00599,0.02021
2702.94582,0.02018
2700.88565,0.02009
2698.82547,0.02002
2696.76530,0.01997
2694.70513,0.01987
2692.64496,0.01972
2690.58478,0.01964
2688.52461,0.01959
2686.46444,0.01953
2684.40427,0.01958
2682.34410,0.01965
2680.28392,0.01958
2678.22375,0.01939
2676.16358,0.01920
2674.10341,0.01908
2672.04324,0.01896
2669.98306,0.01884
2667.92289,0.01882
2665.86272,0.01879
2663.80255,0.01870
2661.74238,0.01865
2659.68220,0.01859
2657.62203,0.01844
2655.56186,0.01831
2653.50169,0.01830
2651.44151,0.01826
2649.38134,0.01806
2647.32117,0.01787
2645.26100,0.01787
2643.20083,0.01781
2641.14065,0.01758
2639.08048,0.01740
2637.02031,0.01735
2634.96014,0.01724
2632.89997,0.01696
2630.83979,0.01672
2628.77962,0.01668
2626.71945,0.01664
2624.65928,0.01650
2622.59910,0.01640
2620.53893,0.01625
2618.47876,0.01609
2616.41859,0.01603
2614.35842,0.01591
2612.29824,0.01570
2610.23807,0.01552
2608.17790,0.01541
2606.11773,0.01542
2604.05756,0.01555
2601.99738,0.01565
2599.93721,0.01559
2597.87704,0.01533
2595.81687,0.01510
2593.75670,0.01502
2591.69652,0.01490
2589.63635,0.01470
2587.57618,0.01449
2585.51601,0.01437
2583.45583,0.01438
2581.39566,0.01432
2579.33549,0.01423
2577.27532,0.01425
2575.21515,0.01422
2573.15497,0.01414
2571.09480,0.01412
2569.03463,0.01404
2566.97446,0.01377
2564.91429,0.01351
2562.85411,0.01346
2560.79394,0.01353
2558.73377,0.01361
2556.67360,0.01350
2554.61342,0.01320
2552.55325,0.01314
2550.49308,0.01324
2548.43291,0.01314
2546.37274,0.01294
2544.31256,0.01288
2542.25239,0.01286
2540.19222,0.01282
2538.13205,0.01294
2536.07188,0.01295
2534.01170,0.01262
2531.95153,0.01241
2529.89136,0.01248
2527.83119,0.01256
2525.77102,0.01261
2523.71084,0.01258
2521.65067,0.01247
2519.59050,0.01232
2517.53033,0.01212
2515.47015,0.01209
2513.40998,0.01211
2511.34981,0.01194
2509.28964,0.01189
2507.22947,0.01203
2505.16929,0.01197
2503.10912,0.01165
2501.04895,0.01145
2498.98878,0.01151
2496.92861,0.01161
2494.86843,0.01164
2492.80826,0.01159
2490.74809,0.01142
2488.68792,0.01116
2486.62775,0.01099
2484.56757,0.01104
2482.50740,0.01107
2480.44723,0.01095
2478.38706,0.01090
2476.32688,0.01103
2474.26671,0.01119
2472.20654,0.01105
2470.14637,0.01071
2468.08620,0.01056
2466.02602,0.01063
2463.96585,0.01069
2461.90568,0.01066
2459.84551,0.01051
2457.78534,0.01031
2455.72516,0.01017
2453.66499,0.01011
2451.60482,0.01009
2449.54465,0.01008
2447.48447,0.01008
2445.42430,0.01007
2443.36413,0.01006
2441.30396,0.00994
2439.24379,0.00971
2437.18361,0.00956
2435.12344,0.00948
2433.06327,0.00940
2431.00310,0.00950
2428.94293,0.00960
2426.88275,0.00936
2424.82258,0.00907
2422.76241,0.00909
2420.70224,0.00926
2418.64207,0.00931
2416.58189,0.00912
2414.52172,0.00880
2412.46155,0.00862
2410.40138,0.00849
2408.34120,0.00832
2406.28103,0.00834
2404.22086,0.00856
2402.16069,0.00862
2400.10052,0.00868
2398.04034,0.00890
2395.98017,0.00904
2393.92000,0.00886
2391.85983,0.00861
2389.79966,0.00853
2387.73948,0.00855
2385.67931,0.00855
2383.61914,0.00848
2381.55897,0.00821
2379.49880,0.00782
2377.43862,0.00752
2375.37845,0.00730
2373.31828,0.00707
2371.25811,0.00683
2369.19793,0.00650
2367.13776,0.00619
2365.07759,0.00605
2363.01742,0.00561
2360.95725,0.00506
2358.89707,0.00458
2356.83690,0.00389
2354.77673,0.00419
2352.71656,0.00558
2350.65639,0.00665
2348.59621,0.00708
2346.53604,0.00708
2344.47587,0.00664
2342.41570,0.00613
2340.35552,0.00600
2338.29535,0.00596
2336.23518,0.00614
2334.17501,0.00655
2332.11484,0.00668
2330.05466,0.00661
2327.99449,0.00669
2325.93432,0.00668
2323.87415,0.00644
2321.81398,0.00648
2319.75380,0.00694
2317.69363,0.00727
2315.63346,0.00730
2313.57329,0.00725
2311.51312,0.00719
2309.45294,0.00706
2307.39277,0.00697
2305.33260,0.00723
2303.27243,0.00769
2301.21225,0.00785
2299.15208,0.00764
2297.09191,0.00739
2295.03174,0.00731
2292.97157,0.00725
2290.91139,0.00721
2288.85122,0.00737
2286.79105,0.00759
2284.73088,0.00760
2282.67071,0.00731
2280.61053,0.00696
2278.55036,0.00683
2276.49019,0.00674
2274.43002,0.00644
2272.36984,0.00618
2270.30967,0.00617
2268.24950,0.00614
2266.18933,0.00601
2264.12916,0.00603
2262.06898,0.00605
2260.00881,0.00593
2257.94864,0.00588
2255.88847,0.00580
2253.82830,0.00561
2251.76812,0.00549
2249.70795,0.00533
2247.64778,0.00513
2245.58761,0.00517
2243.52744,0.00517
2241.46726,0.00468
2239.40709,0.00403
2237.34692,0.00402
2235.28675,0.00486
2233.22657,0.00583
2231.16640,0.00601
2229.10623,0.00539
2227.04606,0.00469
2224.98589,0.00440
2222.92571,0.00442
2220.86554,0.00455
2218.80537,0.00493
2216.74520,0.00530
2214.68503,0.00509
2212.62485,0.00447
2210.56468,0.00416
2208.50451,0.00446
2206.44434,0.00445
2204.38417,0.00369
2202.32399,0.00343
2200.26382,0.00405
2198.20365,0.00467
2196.14348,0.00493
2194.08330,0.00482
2192.02313,0.00441
2189.96296,0.00401
2187.90279,0.00385
2185.84262,0.00380
2183.78244,0.00374
2181.72227,0.00355
2179.66210,0.00344
2177.60193,0.00395
2175.54176,0.00448
2173.48158,0.00433
2171.42141,0.00383
2169.36124,0.00354
2167.30107,0.00370
2165.24089,0.00373
2163.18072,0.00320
2161.12055,0.00229
2159.06038,0.00099
2157.00021,0.00044
2154.94003,0.00081
2152.87986,0.00097
2150.81969,0.00124
2148.75952,0.00223
2146.69935,0.00323
2144.63917,0.00336
2142.57900,0.00273
2140.51883,0.00237
2138.45866,0.00266
2136.39849,0.00260
2134.33831,0.00200
2132.27814,0.00209
2130.21797,0.00297
2128.15780,0.00384
2126.09762,0.00460
2124.03745,0.00502
2121.97728,0.00480
2119.91711,0.00438
2117.85694,0.00432
2115.79676,0.00459
2113.73659,0.00465
2111.67642,0.00446
2109.61625,0.00448
2107.55608,0.00468
2105.49590,0.00480
2103.43573,0.00482
2101.37556,0.00454
2099.31539,0.00409
2097.25521,0.00416
2095.19504,0.00464
2093.13487,0.00470
2091.07470,0.00429
2089.01453,0.00403
2086.95435,0.00423
2084.89418,0.00439
2082.83401,0.00403
2080.77384,0.00371
2078.71367,0.00375
2076.65349,0.00384
2074.59332,0.00368
2072.53315,0.00339
2070.47298,0.00351
2068.41281,0.00388
2066.35263,0.00397
2064.29246,0.00428
2062.23229,0.00477
2060.17212,0.00437
2058.11194,0.00348
2056.05177,0.00317
2053.99160,0.00348
2051.93143,0.00386
2049.87126,0.00394
2047.81108,0.00415
2045.75091,0.00446
2043.69074,0.00399
2041.63057,0.00324
2039.57040,0.00329
2037.51022,0.00329
2035.45005,0.00207
2033.38988,0.00057
2031.32971,0.00018
2029.26954,0.00069
2027.20936,0.00126
2025.14919,0.00149
2023.08902,0.00159
2021.02885,0.00184
2018.96867,0.00168
2016.90850,0.00076
2014.84833,0.00028
2012.78816,0.00091
2010.72799,0.00179
2008.66781,0.00228
2006.60764,0.00206
2004.54747,0.00128
2002.48730,0.00087
2000.42713,0.00116
1998.36695,0.00151
1996.30678,0.00177
1994.24661,0.00224
1992.18644,0.00247
1990.12626,0.00234
1988.06609,0.00240
1986.00592,0.00293
1983.94575,0.00362
1981.88558,0.00374
1979.82540,0.00291
1977.76523,0.00148
1975.70506,0.00031
1973.64489,0.00000
1971.58472,0.00004
1969.52454,0.00003
1967.46437,0.00039
1965.40420,0.00097
1963.34403,0.00111
1961.28386,0.00083
1959.22368,0.00066
1957.16351,0.00093
1955.10334,0.00125
1953.04317,0.00137
1950.98299,0.00141
1948.92282,0.00148
1946.86265,0.00149
1944.80248,0.00114
1942.74231,0.00089
1940.68213,0.00138
1938.62196,0.00192
1936.56179,0.00187
1934.50162,0.00158
1932.44145,0.00147
1930.38127,0.00166
1928.32110,0.00198
1926.26093,0.00215
1924.20076,0.00216
1922.14059,0.00211
1920.08041,0.00208
1918.02024,0.00212
1915.96007,0.00211
1913.89990,0.00184
1911.83972,0.00146
1909.77955,0.00127
1907.71938,0.00146
1905.65921,0.00176
1903.59904,0.00181
1901.53886,0.00169
1899.47869,0.00159
1897.41852,0.00156
1895.35835,0.00166
1893.29818,0.00171
1891.23800,0.00154
1889.17783,0.00130
1887.11766,0.00119
1885.05749,0.00113
1882.99731,0.00096
1880.93714,0.00080
1878.87697,0.00088
1876.81680,0.00111
1874.75663,0.00118
1872.69645,0.00110
1870.63628,0.00093
1868.57611,0.00074
1866.51594,0.00069
1864.45577,0.00081
1862.39559,0.00094
1860.33542,0.00093
1858.27525,0.00076
1856.21508,0.00056
1854.15491,0.00047
1852.09473,0.00046
1850.03456,0.00054
1847.97439,0.00081
1845.91422,0.00118
1843.85404,0.00128
1841.79387,0.00098
1839.73370,0.00068
1837.67353,0.00060
1835.61336,0.00067
1833.55318,0.00070
1831.49301,0.00057
1829.43284,0.00040
1827.37267,0.00035
1825.31250,0.00029
1823.25232,0.00020
1821.19215,0.00016
1819.13198,0.00011
1817.07181,0.00004
1815.01163,0.00000
1812.95146,-0.00004
1810.89129,0.00000
1808.83112,0.00007
1806.77095,0.00006
1804.71077,-0.00001
1802.65060,-0.00004
1800.59043,-0.00002
1798.53026,-0.00008
1796.47009,-0.00023
1794.40991,-0.00021
1792.34974,0.00007
1790.28957,0.00032
1788.22940,0.00033
1786.16923,0.00018
1784.10905,0.00003
1782.04888,0.00000
1779.98871,-0.00006
1777.92854,-0.00021
1775.86836,-0.00045
1773.80819,-0.00059
1771.74802,-0.00043
1769.68785,-0.00002
1767.62768,0.00039
1765.56750,0.00069
1763.50733,0.00105
1761.44716,0.00169
1759.38699,0.00259
1757.32682,0.00362
1755.26664,0.00471
1753.20647,0.00582
1751.14630,0.00709
1749.08613,0.00883
1747.02596,0.01106
1744.96578,0.01381
1742.90561,0.01728
1740.84544,0.02153
1738.78527,0.02596
1736.72509,0.02961
1734.66492,0.03268
1732.60475,0.03534
1730.54458,0.03681
1728.48441,0.03720
1726.42423,0.03702
1724.36406,0.03656
1722.30389,0.03600
1720.24372,0.03550
1718.18355,0.03510
1716.12337,0.03491
1714.06320,0.03483
1712.00303,0.03465
1709.94286,0.03427
1707.88268,0.03366
1705.82251,0.03283
1703.76234,0.03195
1701.70217,0.03092
1699.64200,0.02952
1697.58182,0.02835
1695.52165,0.02787
1693.46148,0.02789
1691.40131,0.02801
1689.34114,0.02792
1687.28096,0.02756
1685.22079,0.02703
1683.16062,0.02671
1681.10045,0.02687
1679.04028,0.02720
1676.98010,0.02737
1674.91993,0.02748
1672.85976,0.02779
1670.79959,0.02828
1668.73941,0.02898
1666.67924,0.02992
1664.61907,0.03104
1662.55890,0.03237
1660.49873,0.03380
1658.43855,0.03510
1656.37838,0.03625
1654.31821,0.03736
1652.25804,0.03833
1650.19787,0.03880
1648.13769,0.03897
1646.07752,0.03915
1644.01735,0.03948
1641.95718,0.03988
1639.89701,0.04020
1637.83683,0.04040
1635.77666,0.04076
1633.71649,0.04148
1631.65632,0.04223
1629.59614,0.04276
1627.53597,0.04311
1625.47580,0.04349
1623.41563,0.04399
1621.35546,0.04461
1619.29528,0.04524
1617.23511,0.04597
1615.17494,0.04689
1613.11477,0.04774
1611.05460,0.04840
1608.99442,0.04889
1606.93425,0.04917
1604.87408,0.04914
1602.81391,0.04875
1600.75373,0.04805
1598.69356,0.04710
1596.63339,0.04582
1594.57322,0.04426
1592.51305,0.04252
1590.45287,0.04065
1588.39270,0.03872
1586.33253,0.03684
1584.27236,0.03499
1582.21219,0.03323
1580.15201,0.03171
1578.09184,0.03018
1576.03167,0.02827
1573.97150,0.02657
1571.91133,0.02547
1569.85115,0.02449
1567.79098,0.02355
1565.73081,0.02279
1563.67064,0.02218
1561.61046,0.02168
1559.55029,0.02130
1557.49012,0.02126
1555.42995,0.02158
1553.36978,0.02189
1551.30960,0.02209
1549.24943,0.02225
1547.18926,0.02236
1545.12909,0.02234
1543.06892,0.02203
1541.00874,0.02161
1538.94857,0.02163
1536.88840,0.02189
1534.82823,0.02169
1532.76805,0.02096
1530.70788,0.02024
1528.64771,0.01961
1526.58754,0.01884
1524.52737,0.01809
1522.46719,0.01773
1520.40702,0.01791
1518.34685,0.01838
1516.28668,0.01871
1514.22651,0.01867
1512.16633,0.01819
1510.10616,0.01715
1508.04599,0.01526
1505.98582,0.01291
1503.92565,0.01159
1501.86547,0.01099
1499.80530,0.01010
1497.74513,0.00872
1495.68496,0.00739
1493.62478,0.00645
1491.56461,0.00552
1489.50444,0.00432
1487.44427,0.00331
1485.38410,0.00292
1483.32392,0.00295
1481.26375,0.00323
1479.20358,0.00380
1477.14341,0.00486
1475.08324,0.00675
1473.02306,0.00964
1470.96289,0.01280
1468.90272,0.01544
1466.84255,0.01785
1464.78238,0.02026
1462.72220,0.02206
1460.66203,0.02303
1458.60186,0.02394
1456.54169,0.02552
1454.48151,0.02717
1452.42134,0.02828
1450.36117,0.02904
1448.30100,0.02978
1446.24083,0.03062
1444.18065,0.03133
1442.12048,0.03162
1440.06031,0.03137
1438.00014,0.03051
1435.93997,0.02909
1433.87979,0.02766
1431.81962,0.02634
1429.75945,0.02501
1427.69928,0.02396
1425.63910,0.02334
1423.57893,0.02298
1421.51876,0.02272
1419.45859,0.02253
1417.39842,0.02251
1415.33824,0.02256
1413.27807,0.02245
1411.21790,0.02213
1409.15773,0.02173
1407.09756,0.02132
1405.03738,0.02100
1402.97721,0.02093
1400.91704,0.02102
1398.85687,0.02112
1396.79670,0.02128
1394.73652,0.02169
1392.67635,0.02235
1390.61618,0.02305
1388.55601,0.02374
1386.49583,0.02450
1384.43566,0.02533
1382.37549,0.02615
1380.31532,0.02696
1378.25515,0.02778
1376.19497,0.02857
1374.13480,0.02939
1372.07463,0.03021
1370.01446,0.03086
1367.95429,0.03129
1365.89411,0.03151
1363.83394,0.03161
1361.77377,0.03170
1359.71360,0.03191
1357.65343,0.03225
1355.59325,0.03259
1353.53308,0.03288
1351.47291,0.03320
1349.41274,0.03360
1347.35256,0.03398
1345.29239,0.03428
1343.23222,0.03456
1341.17205,0.03491
1339.11188,0.03533
1337.05170,0.03580
1334.99153,0.03627
1332.93136,0.03676
1330.87119,0.03731
1328.81102,0.03790
1326.75084,0.03854
1324.69067,0.03927
1322.63050,0.04001
1320.57033,0.04064
1318.51015,0.04110
1316.44998,0.04130
1314.38981,0.04110
1312.32964,0.04052
1310.26947,0.03971
1308.20929,0.03863
1306.14912,0.03726
1304.08895,0.03568
1302.02878,0.03389
1299.96861,0.03195
1297.90843,0.03004
1295.84826,0.02830
1293.78809,0.02685
1291.72792,0.02570
1289.66775,0.02472
1287.60757,0.02394
1285.54740,0.02344
1283.48723,0.02314
1281.42706,0.02298
1279.36688,0.02305
1277.30671,0.02328
1275.24654,0.02352
1273.18637,0.02374
1271.12620,0.02413
1269.06602,0.02474
1267.00585,0.02536
1264.94568,0.02599
1262.88551,0.02667
1260.82534,0.02730
1258.76516,0.02783
1256.70499,0.02835
1254.64482,0.02887
1252.58465,0.02941
1250.52447,0.03009
1248.46430,0.03083
1246.40413,0.03160
1244.34396,0.03240
1242.28379,0.03318
1240.22361,0.03395
1238.16344,0.03471
1236.10327,0.03540
1234.04310,0.03615
1231.98293,0.03696
1229.92275,0.03776
1227.86258,0.03856
1225.80241,0.03937
1223.74224,0.04020
1221.68207,0.04106
1219.62189,0.04183
1217.56172,0.04246
1215.50155,0.04308
1213.44138,0.04380
1211.38120,0.04459
1209.32103,0.04540
1207.26086,0.04631
1205.20069,0.04726
1203.14052,0.04811
1201.08034,0.04891
1199.02017,0.04959
1196.96000,0.04999
1194.89983,0.05003
1192.83966,0.04970
1190.77948,0.04898
1188.71931,0.04813
1186.65914,0.04731
1184.59897,0.04650
1182.53880,0.04577
1180.47862,0.04522
1178.41845,0.04487
1176.35828,0.04465
1174.29811,0.04453
1172.23793,0.04460
1170.17776,0.04485
1168.11759,0.04506
1166.05742,0.04505
1163.99725,0.04471
1161.93707,0.04400
1159.87690,0.04304
1157.81673,0.04193
1155.75656,0.04081
1153.69639,0.03984
1151.63621,0.03906
1149.57604,0.03832
1147.51587,0.03744
1145.45570,0.03645
1143.39552,0.03546
1141.33535,0.03446
1139.27518,0.03344
1137.21501,0.03252
1135.15484,0.03187
1133.09466,0.03147
1131.03449,0.03133
1128.97432,0.03161
1126.91415,0.03245
1124.85398,0.03371
1122.79380,0.03509
1120.73363,0.03671
1118.67346,0.03878
1116.61329,0.04115
1114.55312,0.04366
1112.49294,0.04646
1110.43277,0.04960
1108.37260,0.05267
1106.31243,0.05532
1104.25225,0.05766
1102.19208,0.05978
1100.13191,0.06154
1098.07174,0.06290
1096.01157,0.06394
1093.95139,0.06491
1091.89122,0.06609
1089.83105,0.06757
1087.77088,0.06931
1085.71071,0.07112
1083.65053,0.07297
1081.59036,0.07509
1079.53019,0.07737
1077.47002,0.07952
1075.40985,0.08152
1073.34967,0.08333
1071.28950,0.08492
1069.22933,0.08646
1067.16916,0.08791
1065.10898,0.08933
1063.04881,0.09078
1060.98864,0.09199
1058.92847,0.09307
1056.86830,0.09442
1054.80812,0.09603
1052.74795,0.09758
1050.68778,0.09905
1048.62761,0.10061
1046.56744,0.10236
1044.50726,0.10417
1042.44709,0.10585
1040.38692,0.10761
1038.32675,0.10967
1036.26657,0.11179
1034.20640,0.11371
1032.14623,0.11535
1030.08606,0.11671
1028.02589,0.11770
1025.96571,0.11838
1023.90554,0.11885
1021.84537,0.11897
1019.78520,0.11875
1017.72503,0.11833
1015.66485,0.11764
1013.60468,0.11655
1011.54451,0.11511
1009.48434,0.11351
1007.42417,0.11172
1005.36399,0.10941
1003.30382,0.10666
1001.24365,0.10380
999.18348,0.10097
997.12330,0.09822
995.06313,0.09546
993.00296,0.09261
990.94279,0.08979
988.88262,0.08685
986.82244,0.08373
984.76227,0.08053
982.70210,0.07720
980.64193,0.07375
978.58176,0.07033
976.52158,0.06710
974.46141,0.06406
972.40124,0.06121
970.34107,0.05866
968.28089,0.05646
966.22072,0.05472
964.16055,0.05321
962.10038,0.05140
960.04021,0.04923
957.98003,0.04696
955.91986,0.04475
953.85969,0.04260
951.79952,0.04031
949.73935,0.03791
947.67917,0.03557
945.61900,0.03334
943.55883,0.03131
941.49866,0.02960
939.43849,0.02808
937.37831,0.02677
935.31814,0.02598
933.25797,0.02544
931.19780,0.02475
929.13762,0.02403
927.07745,0.02339
925.01728,0.02282
922.95711,0.02210
920.89694,0.02098
918.83676,0.01958
916.77659,0.01822
914.71642,0.01696
912.65625,0.01564
910.59608,0.01426
908.53590,0.01301
906.47573,0.01202
904.41556,0.01119
902.35539,0.01039
900.29522,0.00987
898.23504,0.00970
896.17487,0.00956
894.11470,0.00942
892.05453,0.00937
889.99435,0.00910
887.93418,0.00863
885.87401,0.00821
883.81384,0.00792
881.75367,0.00780
879.69349,0.00798
877.63332,0.00844
875.57315,0.00895
873.51298,0.00913
871.45281,0.00896
869.39263,0.00868
867.33246,0.00835
865.27229,0.00765
863.21212,0.00662
861.15194,0.00557
859.09177,0.00435
857.03160,0.00295
854.97143,0.00171
852.91126,0.00096
850.85108,0.00055
848.79091,0.00017
846.73074,0.00000
844.67057,-0.00003
842.61040,0.00005
840.55022,0.00027
838.49005,0.00069
836.42988,0.00131
834.36971,0.00211
832.30954,0.00270
830.24936,0.00281
828.18919,0.00245
826.12902,0.00200
824.06885,0.00193
822.00867,0.00216
819.94850,0.00222
817.88833,0.00214
815.82816,0.00239
813.76799,0.00270
811.70781,0.00245
809.64764,0.00170
807.58747,0.00099
805.52730,0.00048
803.46713,0.00000
801.40695,-0.00066
799.34678,-0.00115
797.28661,-0.00173
795.22644,-0.00236
793.16627,-0.00277
791.10609,-0.00268
789.04592,-0.00213
786.98575,-0.00156
784.92558,-0.00095
782.86540,-0.00017
780.80523,0.00039
778.74506,0.00064
776.68489,0.00090
774.62472,0.00153
772.56454,0.00245
770.50437,0.00325
768.44420,0.00406
766.38403,0.00531
764.32386,0.00705
762.26368,0.00877
760.20351,0.01013
758.14334,0.01121
756.08317,0.01165
754.02299,0.01118
751.96282,0.01011
749.90265,0.00877
747.84248,0.00713
745.78231,0.00535
743.72213,0.00432
741.66196,0.00418
739.60179,0.00389
737.54162,0.00307
735.48145,0.00228
733.42127,0.00201
731.36110,0.00210
729.30093,0.00220
727.24076,0.00179
725.18059,0.00118
723.12041,0.00155
721.06024,0.00216
719.00007,0.00204
716.93990,0.00136
714.87972,0.00060
712.81955,-0.00007
710.75938,-0.00036
708.69921,-0.00024
706.63904,-0.00008
704.57886,-0.00008
702.51869,-0.00009
700.45852,0.00000
698.39835,0.00015
696.33818,0.00018
694.27800,-0.00021
692.21783,-0.00060
690.15766,-0.00059
688.09749,-0.00076
686.03731,-0.00158
683.97714,-0.00255
681.91697,-0.00295
679.85680,-0.00261
677.79663,-0.00207
675.73645,-0.00178
673.67628,-0.00145
671.61611,-0.00045
669.55594,0.00100
667.49577,0.00119
665.43559,-0.00023
663.37542,-0.00129
661.31525,-0.00166
659.25508,-0.00211
657.19491,-0.00266
655.13473,-0.00258
653.07456,-0.00169
651.01439,-0.00062
648.95422,0.00000
646.89404,0.00008
644.83387,-0.00026
642.77370,-0.00105
640.71353,-0.00156
638.65336,-0.00126
636.59318,-0.00078
634.53301,-0.00077
632.47284,-0.00075
630.41267,-0.00007
628.35250,0.00058
626.29232,0.00037
624.23215,0.00016
622.17198,0.00067
620.11181,0.00059
618.05164,0.00003
615.99146,0.00146
613.93129,0.00368
611.87112,0.00435
609.81095,0.00414
607.75077,0.00348
605.69060,0.00182
603.63043,0.00047
601.57026,0.00048
599.51009,0.00000
