3996.73391,0.00056
3994.67373,0.00078
3992.61356,0.00089
3990.55339,0.00061
3988.49322,0.00016
3986.43305,0.00000
3984.37287,0.00024
3982.31270,0.00044
3980.25253,0.00040
3978.19236,0.00051
3976.13219,0.00074
3974.07201,0.00067
3972.01184,0.00044
3969.95167,0.00041
3967.89150,0.00040
3965.83133,0.00035
3963.77115,0.00048
3961.71098,0.00062
3959.65081,0.00058
3957.59064,0.00056
3955.53046,0.00065
3953.47029,0.00063
3951.41012,0.00046
3949.34995,0.00038
3947.28978,0.00043
3945.22960,0.00046
3943.16943,0.00057
3941.10926,0.00086
3939.04909,0.00106
3936.98892,0.00094
3934.92874,0.00065
3932.86857,0.00038
3930.80840,0.00014
3928.74823,0.00006
3926.68805,0.00040
3924.62788,0.00105
3922.56771,0.00146
3920.50754,0.00141
3918.44737,0.00126
3916.38719,0.00119
3914.32702,0.00114
3912.26685,0.00107
3910.20668,0.00102
3908.14651,0.00105
3906.08633,0.00125
3904.02616,0.00146
3901.96599,0.00140
3899.90582,0.00119
3897.84565,0.00102
3895.78547,0.00107
3893.72530,0.00153
3891.66513,0.00224
3889.60496,0.00235
3887.54478,0.00173
3885.48461,0.00099
3883.42444,0.00039
3881.36427,0.00010
3879.30410,0.00037
3877.24392,0.00074
3875.18375,0.00083
3873.12358,0.00091
3871.06341,0.00132
3869.00324,0.00187
3866.94306,0.00210
3864.88289,0.00195
3862.82272,0.00151
3860.76255,0.00104
3858.70237,0.00072
3856.64220,0.00046
3854.58203,0.00058
3852.52186,0.00132
3850.46169,0.00163
3848.40151,0.00124
3846.34134,0.00096
3844.28117,0.00125
3842.22100,0.00213
3840.16083,0.00318
3838.10065,0.00345
3836.04048,0.00266
3833.98031,0.00174
3831.92014,0.00121
3829.85997,0.00084
3827.79979,0.00074
3825.73962,0.00105
3823.67945,0.00146
3821.61928,0.00178
3819.55910,0.00201
3817.49893,0.00213
3815.43876,0.00219
3813.37859,0.00188
3811.31842,0.00124
3809.25824,0.00085
3807.19807,0.00084
3805.13790,0.00091
3803.07773,0.00098
3801.01756,0.00109
3798.95738,0.00118
3796.89721,0.00145
3794.83704,0.00176
3792.77687,0.00180
3790.71670,0.00168
3788.65652,0.00141
3786.59635,0.00092
3784.53618,0.00050
3782.47601,0.00038
3780.41583,0.00049
3778.35566,0.00050
3776.29549,0.00030
3774.23532,0.00021
3772.17515,0.00056
3770.11497,0.00113
3768.05480,0.00134
3765.99463,0.00120
3763.93446,0.00105
3761.87429,0.00098
3759.81411,0.00097
3757.75394,0.00086
3755.69377,0.00074
3753.63360,0.00117
3751.57342,0.00229
3749.51325,0.00333
3747.45308,0.00369
3745.39291,0.00339
3743.33274,0.00254
3741.27256,0.00167
3739.21239,0.00120
3737.15222,0.00133
3735.09205,0.00209
3733.03188,0.00246
3730.97170,0.00173
3728.91153,0.00093
3726.85136,0.00090
3724.79119,0.00133
3722.73102,0.00147
3720.67084,0.00125
3718.61067,0.00118
3716.55050,0.00105
3714.49033,0.00071
3712.43015,0.00086
3710.36998,0.00140
3708.30981,0.00130
3706.24964,0.00083
3704.18947,0.00072
3702.12929,0.00108
3700.06912,0.00146
3698.00895,0.00151
3695.94878,0.00141
3693.88861,0.00135
3691.82843,0.00140
3689.76826,0.00189
3687.70809,0.00259
3685.64792,0.00264
3683.58775,0.00200
3681.52757,0.00144
3679.46740,0.00139
3677.40723,0.00163
3675.34706,0.00215
3673.28688,0.00282
3671.22671,0.00310
3669.16654,0.00293
3667.10637,0.00272
3665.04620,0.00289
3662.98602,0.00328
3660.92585,0.00334
3658.86568,0.00305
3656.80551,0.00307
3654.74534,0.00360
3652.68516,0.00408
3650.62499,0.00452
3648.56482,0.00511
3646.50465,0.00552
3644.44447,0.00563
3642.38430,0.00560
3640.32413,0.00576
3638.26396,0.00621
3636.20379,0.00674
3634.14361,0.00716
3632.08344,0.00752
3630.02327,0.00817
3627.96310,0.00921
3625.90293,0.00993
3623.84275,0.01029
3621.78258,0.01071
3619.72241,0.01096
3617.66224,0.01079
3615.60207,0.01069
3613.54189,0.01136
3611.48172,0.01271
3609.42155,0.01359
3607.36138,0.01356
3605.30120,0.01354
3603.24103,0.01401
3601.18086,0.01461
3599.12069,0.01483
3597.06052,0.01476
3595.00034,0.01522
3592.94017,0.01612
3590.88000,0.01659
3588.81983,0.01687
3586.75966,0.01756
3584.69948,0.01819
3582.63931,0.01814
3580.57914,0.01788
3578.51897,0.01807
3576.45879,0.01880
3574.39862,0.01976
3572.33845,0.02060
3570.27828,0.02134
3568.21811,0.02215
3566.15793,0.02265
3564.09776,0.02266
3562.03759,0.02254
3559.97742,0.02245
3557.91725,0.02263
3555.85707,0.02321
3553.79690,0.02391
3551.73673,0.02454
3549.67656,0.02517
3547.61639,0.02570
3545.55621,0.02595
3543.49604,0.02603
3541.43587,0.02617
3539.37570,0.02645
3537.31552,0.02683
3535.25535,0.02731
3533.19518,0.02776
3531.13501,0.02825
3529.07484,0.02886
3527.01466,0.02958
3524.95449,0.03035
3522.89432,0.03085
3520.83415,0.03101
3518.77398,0.03115
3516.71380,0.03154
3514.65363,0.03219
3512.59346,0.03275
3510.53329,0.03296
3508.47312,0.03304
3506.41294,0.03326
3504.35277,0.03335
3502.29260,0.03326
3500.23243,0.03356
3498.17225,0.03417
3496.11208,0.03458
3494.05191,0.03488
3491.99174,0.03538
3489.93157,0.03598
3487.87139,0.03656
3485.81122,0.03719
3483.75105,0.03762
3481.69088,0.03771
3479.63071,0.03780
3477.57053,0.03818
3475.51036,0.03883
3473.45019,0.03936
3471.39002,0.03943
3469.32984,0.03944
3467.26967,0.03995
3465.20950,0.04062
3463.14933,0.04096
3461.08916,0.04125
3459.02898,0.04162
3456.96881,0.04196
3454.90864,0.04231
3452.84847,0.04282
3450.78830,0.04337
3448.72812,0.04367
3446.66795,0.04377
3444.60778,0.04376
3442.54761,0.04363
3440.48744,0.04360
3438.42726,0.04392
3436.36709,0.04447
3434.30692,0.04496
3432.24675,0.04512
3430.18657,0.04518
3428.12640,0.04565
3426.06623,0.04631
3424.00606,0.04674
3421.94589,0.04704
3419.88571,0.04728
3417.82554,0.04737
3415.76537,0.04752
3413.70520,0.04773
3411.64503,0.04775
3409.58485,0.04767
3407.52468,0.04780
3405.46451,0.04822
3403.40434,0.04860
3401.34416,0.04881
3399.28399,0.04922
3397.22382,0.04972
3395.16365,0.04996
3393.10348,0.04994
3391.04330,0.04988
3388.98313,0.05001
3386.92296,0.05026
3384.86279,0.05028
3382.80262,0.05029
3380.74244,0.05060
3378.68227,0.05090
3376.62210,0.05090
3374.56193,0.05085
3372.50176,0.05104
3370.44158,0.05131
3368.38141,0.05136
3366.32124,0.05132
3364.26107,0.05135
3362.20089,0.05149
3360.14072,0.05181
3358.08055,0.05207
3356.02038,0.05219
3353.96021,0.05232
3351.90003,0.05242
3349.83986,0.05258
3347.77969,0.05267
3345.71952,0.05253
3343.65935,0.05240
3341.59917,0.05244
3339.53900,0.05241
3337.47883,0.05221
3335.41866,0.05201
3333.35849,0.05208
3331.29831,0.05263
3329.23814,0.05323
3327.17797,0.05348
3325.11780,0.05350
3323.05762,0.05331
3320.99745,0.05314
3318.93728,0.05335
3316.87711,0.05366
3314.81694,0.05369
3312.75676,0.05372
3310.69659,0.05383
3308.63642,0.05378
3306.57625,0.05371
3304.51608,0.05380
3302.45590,0.05398
3300.39573,0.05416
3298.33556,0.05422
3296.27539,0.05413
3294.21521,0.05417
3292.15504,0.05458
3290.09487,0.05487
3288.03470,0.05459
3285.97453,0.05422
3283.91435,0.05438
3281.85418,0.05474
3279.79401,0.05485
3277.73384,0.05494
3275.67367,0.05515
3273.61349,0.05536
3271.55332,0.05545
3269.49315,0.05526
3267.43298,0.05497
3265.37281,0.05491
3263.31263,0.05503
3261.25246,0.05513
3259.19229,0.05513
3257.13212,0.05499
3255.07194,0.05481
3253.01177,0.05481
3250.95160,0.05495
3248.89143,0.05495
3246.83126,0.05484
3244.77108,0.05480
3242.71091,0.05498
3240.65074,0.05542
3238.59057,0.05569
3236.53040,0.05553
3234.47022,0.05530
3232.41005,0.05534
3230.34988,0.05531
3228.28971,0.05510
3226.22954,0.05506
3224.16936,0.05513
3222.10919,0.05518
3220.04902,0.05534
3217.98885,0.05549
3215.92867,0.05534
3213.86850,0.05508
3211.80833,0.05494
3209.74816,0.05476
3207.68799,0.05470
3205.62781,0.05499
3203.56764,0.05508
3201.50747,0.05470
3199.44730,0.05445
3197.38713,0.05444
3195.32695,0.05424
3193.26678,0.05395
3191.20661,0.05374
3189.14644,0.05362
3187.08626,0.05370
3185.02609,0.05357
3182.96592,0.05329
3180.90575,0.05333
3178.84558,0.05352
3176.78540,0.05354
3174.72523,0.05331
3172.66506,0.05290
3170.60489,0.05261
3168.54472,0.05258
3166.48454,0.05259
3164.42437,0.05246
3162.36420,0.05214
3160.30403,0.05179
3158.24386,0.05158
3156.18368,0.05156
3154.12351,0.05156
3152.06334,0.05135
3150.00317,0.05105
3147.94299,0.05093
3145.88282,0.05101
3143.82265,0.05121
3141.76248,0.05117
3139.70231,0.05084
3137.64213,0.05061
3135.58196,0.05052
3133.52179,0.05029
3131.46162,0.04998
3129.40145,0.04968
3127.34127,0.04926
3125.28110,0.04896
3123.22093,0.04886
3121.16076,0.04878
3119.10058,0.04860
3117.04041,0.04835
3114.98024,0.04816
3112.92007,0.04804
3110.85990,0.04795
3108.79972,0.04782
3106.73955,0.04754
3104.67938,0.04721
3102.61921,0.04691
3100.55904,0.04647
3098.49886,0.04601
3096.43869,0.04586
3094.37852,0.04588
3092.31835,0.04575
3090.25818,0.04553
3088.19800,0.04545
3086.13783,0.04550
3084.07766,0.04547
3082.01749,0.04518
3079.95731,0.04463
3077.89714,0.04408
3075.83697,0.04393
3073.77680,0.04409
3071.71663,0.04416
3069.65645,0.04400
3067.59628,0.04365
3065.53611,0.04318
3063.47594,0.04272
3061.41577,0.04249
3059.35559,0.04239
3057.29542,0.04218
3055.23525,0.04199
3053.17508,0.04189
3051.11491,0.04166
3049.05473,0.04124
3046.99456,0.04075
3044.93439,0.04038
3042.87422,0.04027
3040.81404,0.04027
3038.75387,0.04005
3036.69370,0.03966
3034.63353,0.03942
3032.57336,0.03935
3030.51318,0.03921
3028.45301,0.03890
3026.39284,0.03863
3024.33267,0.03855
3022.27250,0.03850
3020.21232,0.03837
3018.15215,0.03827
3016.09198,0.03811
3014.03181,0.03792
3011.97163,0.03779
3009.91146,0.03757
3007.85129,0.03708
3005.79112,0.03654
3003.73095,0.03625
3001.67077,0.03611
2999.61060,0.03589
2997.55043,0.03569
2995.49026,0.03557
2993.43009,0.03555
2991.36991,0.03552
2989.30974,0.03529
2987.24957,0.03493
2985.18940,0.03454
2983.12923,0.03432
2981.06905,0.03429
2979.00888,0.03405
2976.94871,0.03375
2974.88854,0.03379
2972.82836,0.03394
2970.76819,0.03399
2968.70802,0.03400
2966.64785,0.03393
2964.58768,0.03372
2962.52750,0.03328
2960.46733,0.03276
2958.40716,0.03250
2956.34699,0.03246
2954.28682,0.03254
2952.22664,0.03272
2950.16647,0.03281
2948.10630,0.03277
2946.04613,0.03282
2943.98596,0.03277
2941.92578,0.03242
2939.86561,0.03212
2937.80544,0.03206
2935.74527,0.03210
2933.68509,0.03216
2931.62492,0.03217
2929.56475,0.03203
2927.50458,0.03170
2925.44441,0.03127
2923.38423,0.03095
2921.32406,0.03078
2919.26389,0.03083
2917.20372,0.03106
2915.14355,0.03107
2913.08337,0.03071
2911.02320,0.03019
2908.96303,0.02990
2906.90286,0.02997
2904.84268,0.03003
2902.78251,0.02990
2900.72234,0.02984
2898.66217,0.02982
2896.60200,0.02954
2894.54182,0.02930
2892.48165,0.02952
2890.42148,0.02994
2888.36131,0.03004
2886.30114,0.02982
2884.24096,0.02945
2882.18079,0.02910
2880.12062,0.02907
2878.06045,0.02926
2876.00028,0.02930
2873.94010,0.02918
2871.87993,0.02908
2869.81976,0.02892
2867.75959,0.02865
2865.69941,0.02845
2863.63924,0.02846
2861.57907,0.02847
2859.51890,0.02822
2857.45873,0.02784
2855.39855,0.02753
2853.33838,0.02745
2851.27821,0.02755
2849.21804,0.02760
2847.15787,0.02742
2845.09769,0.02704
2843.03752,0.02682
2840.97735,0.02674
2838.91718,0.02659
2836.85700,0.02646
2834.79683,0.02641
2832.73666,0.02641
2830.67649,0.02631
2828.61632,0.02612
2826.55614,0.02597
2824.49597,0.02581
2822.43580,0.02561
2820.37563,0.02546
2818.31546,0.02539
2816.25528,0.02539
2814.19511,0.02537
2812.13494,0.02530
2810.07477,0.02519
2808.01460,0.02504
2805.95442,0.02495
2803.89425,0.02488
2801.83408,0.02485
2799.77391,0.02485
2797.71373,0.02463
2795.65356,0.02417
2793.59339,0.02392
2791.53322,0.02401
2789.47305,0.02413
2787.41287,0.02407
2785.35270,0.02389
2783.29253,0.02368
2781.23236,0.02354
2779.17219,0.02344
2777.11201,0.02333
2775.05184,0.02328
2772.99167,0.02320
2770.93150,0.02316
2768.87133,0.02327
2766.81115,0.02326
2764.75098,0.02300
2762.69081,0.02264
2760.63064,0.02249
2758.57046,0.02259
2756.51029,0.02258
2754.45012,0.02235
2752.38995,0.02211
2750.32978,0.02196
2748.26960,0.02187
2746.20943,0.02176
2744.14926,0.02154
2742.08909,0.02133
2740.02892,0.02134
2737.96874,0.02150
2735.90857,0.02153
2733.84840,0.02126
2731.78823,0.02085
2729.72805,0.02072
2727.66788,0.02089
2725.60771,0.02088
2723.54754,0.02060
2721.48737,0.02045
2719.42719,0.02052
2717.36702,0.02049
2715.30685,0.02026
2713.24668,0.02007
2711.18651,0.02002
2709.12633,0.02005
2707.06616,0.02010
2705.00599,0.01998
2702.94582,0.01962
2700.88565,0.01930
2698.82547,0.01922
2696.76530,0.01930
2694.70513,0.01929
2692.64496,0.01896
2690.58478,0.01851
2688.52461,0.01834
2686.46444,0.01842
2684.40427,0.01846
2682.34410,0.01832
2680.28392,0.01813
2678.22375,0.01804
2676.16358,0.01796
2674.10341,0.01776
2672.04324,0.01746
2669.98306,0.01722
2667.92289,0.01724
2665.86272,0.01734
2663.80255,0.01731
2661.74238,0.01736
2659.68220,0.01743
2657.62203,0.01734
2655.56186,0.01715
2653.50169,0.01692
2651.44151,0.01660
2649.38134,0.01635
2647.32117,0.01623
2645.26100,0.01602
2643.20083,0.01572
2641.14065,0.01561
2639.08048,0.01568
2637.02031,0.01563
2634.96014,0.01536
2632.89997,0.01509
2630.83979,0.01503
2628.77962,0.01486
2626.71945,0.01455
2624.65928,0.01446
2622.59910,0.01436
2620.53893,0.01420
2618.47876,0.01417
2616.41859,0.01408
2614.35842,0.01387
2612.29824,0.01373
2610.23807,0.01377
2608.17790,0.01381
2606.11773,0.01379
2604.05756,0.01382
2601.99738,0.01398
2599.93721,0.01409
2597.87704,0.01407
2595.81687,0.01397
2593.75670,0.01392
2591.69652,0.01404
2589.63635,0.01397
2587.57618,0.01368
2585.51601,0.01365
2583.45583,0.01372
2581.39566,0.01371
2579.33549,0.01380
2577.27532,0.01402
2575.21515,0.01392
2573.15497,0.01325
2571.09480,0.01280
2569.03463,0.01291
2566.97446,0.01302
2564.91429,0.01308
2562.85411,0.01313
2560.79394,0.01282
2558.73377,0.01223
2556.67360,0.01191
2554.61342,0.01218
2552.55325,0.01264
2550.49308,0.01286
2548.43291,0.01281
2546.37274,0.01261
2544.31256,0.01233
2542.25239,0.01223
2540.19222,0.01260
2538.13205,0.01320
2536.07188,0.01338
2534.01170,0.01314
2531.95153,0.01293
2529.89136,0.01290
2527.83119,0.01304
2525.77102,0.01315
2523.71084,0.01317
2521.65067,0.01329
2519.59050,0.01334
2517.53033,0.01320
2515.47015,0.01311
2513.40998,0.01323
2511.34981,0.01338
2509.28964,0.01355
2507.22947,0.01375
2505.16929,0.01378
2503.10912,0.01373
2501.04895,0.01393
2498.98878,0.01433
2496.92861,0.01445
2494.86843,0.01411
2492.80826,0.01385
2490.74809,0.01399
2488.68792,0.01402
2486.62775,0.01388
2484.56757,0.01392
2482.50740,0.01405
2480.44723,0.01401
2478.38706,0.01397
2476.32688,0.01420
2474.26671,0.01454
2472.20654,0.01489
2470.14637,0.01493
2468.08620,0.01457
2466.02602,0.01437
2463.96585,0.01459
2461.90568,0.01486
2459.84551,0.01475
2457.78534,0.01449
2455.72516,0.01463
2453.66499,0.01479
2451.60482,0.01467
2449.54465,0.01469
2447.48447,0.01439
2445.42430,0.01385
2443.36413,0.01418
2441.30396,0.01496
2439.24379,0.01528
2437.18361,0.01527
2435.12344,0.01525
2433.06327,0.01531
2431.00310,0.01534
2428.94293,0.01522
2426.88275,0.01514
2424.82258,0.01515
2422.76241,0.01506
2420.70224,0.01503
2418.64207,0.01499
2416.58189,0.01477
2414.52172,0.01475
2412.46155,0.01474
2410.40138,0.01446
2408.34120,0.01457
2406.28103,0.01510
2404.22086,0.01538
2402.16069,0.01531
2400.10052,0.01507
2398.04034,0.01483
2395.98017,0.01475
2393.92000,0.01475
2391.85983,0.01473
2389.79966,0.01474
2387.73948,0.01476
2385.67931,0.01474
2383.61914,0.01489
2381.55897,0.01536
2379.49880,0.01576
2377.43862,0.01542
2375.37845,0.01464
2373.31828,0.01472
2371.25811,0.01596
2369.19793,0.01616
2367.13776,0.01339
2365.07759,0.00905
2363.01742,0.00706
2360.95725,0.00810
2358.89707,0.01088
2356.83690,0.01249
2354.77673,0.01205
2352.71656,0.01122
2350.65639,0.01044
2348.59621,0.01097
2346.53604,0.01351
2344.47587,0.01419
2342.41570,0.01402
2340.35552,0.01352
2338.29535,0.01271
2336.23518,0.01278
2334.17501,0.01361
2332.11484,0.01440
2330.05466,0.01420
2327.99449,0.01392
2325.93432,0.01379
2323.87415,0.01372
2321.81398,0.01307
2319.75380,0.01265
2317.69363,0.01272
2315.63346,0.01315
2313.57329,0.01339
2311.51312,0.01358
2309.45294,0.01391
2307.39277,0.01418
2305.33260,0.01430
2303.27243,0.01454
2301.21225,0.01481
2299.15208,0.01446
2297.09191,0.01388
2295.03174,0.01392
2292.97157,0.01438
2290.91139,0.01452
2288.85122,0.01402
2286.79105,0.01343
2284.73088,0.01322
2282.67071,0.01307
2280.61053,0.01270
2278.55036,0.01242
2276.49019,0.01244
2274.43002,0.01266
2272.36984,0.01293
2270.30967,0.01287
2268.24950,0.01222
2266.18933,0.01135
2264.12916,0.01078
2262.06898,0.01068
2260.00881,0.01094
2257.94864,0.01146
2255.88847,0.01184
2253.82830,0.01161
2251.76812,0.01124
2249.70795,0.01138
2247.64778,0.01163
2245.58761,0.01174
2243.52744,0.01205
2241.46726,0.01237
2239.40709,0.01241
2237.34692,0.01257
2235.28675,0.01269
2233.22657,0.01210
2231.16640,0.01111
2229.10623,0.01049
2227.04606,0.01012
2224.98589,0.00959
2222.92571,0.00947
2220.86554,0.01013
2218.80537,0.01068
2216.74520,0.01007
2214.68503,0.00888
2212.62485,0.00837
2210.56468,0.00850
2208.50451,0.00905
2206.44434,0.01026
2204.38417,0.01147
2202.32399,0.01142
2200.26382,0.01017
2198.20365,0.00925
2196.14348,0.00943
2194.08330,0.01018
2192.02313,0.01058
2189.96296,0.00996
2187.90279,0.00861
2185.84262,0.00773
2183.78244,0.00799
2181.72227,0.00878
2179.66210,0.00913
2177.60193,0.00884
2175.54176,0.00843
2173.48158,0.00869
2171.42141,0.00985
2169.36124,0.01099
2167.30107,0.01020
2165.24089,0.00783
2163.18072,0.00640
2161.12055,0.00605
2159.06038,0.00599
2157.00021,0.00646
2154.94003,0.00675
2152.87986,0.00655
2150.81969,0.00642
2148.75952,0.00657
2146.69935,0.00695
2144.63917,0.00738
2142.57900,0.00735
2140.51883,0.00683
2138.45866,0.00647
2136.39849,0.00657
2134.33831,0.00687
2132.27814,0.00681
2130.21797,0.00661
2128.15780,0.00694
2126.09762,0.00734
2124.03745,0.00798
2121.97728,0.00886
2119.91711,0.00872
2117.85694,0.00784
2115.79676,0.00753
2113.73659,0.00777
2111.67642,0.00775
2109.61625,0.00728
2107.55608,0.00736
2105.49590,0.00818
2103.43573,0.00822
2101.37556,0.00766
2099.31539,0.00774
2097.25521,0.00817
2095.19504,0.00830
2093.13487,0.00810
2091.07470,0.00799
2089.01453,0.00837
2086.95435,0.00884
2084.89418,0.00846
2082.83401,0.00750
2080.77384,0.00700
2078.71367,0.00723
2076.65349,0.00773
2074.59332,0.00809
2072.53315,0.00786
2070.47298,0.00698
2068.41281,0.00636
2066.35263,0.00652
2064.29246,0.00667
2062.23229,0.00647
2060.17212,0.00650
2058.11194,0.00671
2056.05177,0.00669
2053.99160,0.00678
2051.93143,0.00722
2049.87126,0.00723
2047.81108,0.00664
2045.75091,0.00622
2043.69074,0.00639
2041.63057,0.00692
2039.57040,0.00680
2037.51022,0.00578
2035.45005,0.00560
2033.38988,0.00647
2031.32971,0.00610
2029.26954,0.00463
2027.20936,0.00478
2025.14919,0.00685
2023.08902,0.00817
2021.02885,0.00715
2018.96867,0.00574
2016.90850,0.00592
2014.84833,0.00611
2012.78816,0.00516
2010.72799,0.00387
2008.66781,0.00268
2006.60764,0.00221
2004.54747,0.00293
2002.48730,0.00409
2000.42713,0.00488
1998.36695,0.00544
1996.30678,0.00597
1994.24661,0.00603
1992.18644,0.00604
1990.12626,0.00692
1988.06609,0.00784
1986.00592,0.00762
1983.94575,0.00636
1981.88558,0.00529
1979.82540,0.00474
1977.76523,0.00340
1975.70506,0.00201
1973.64489,0.00236
1971.58472,0.00411
1969.52454,0.00489
1967.46437,0.00396
1965.40420,0.00294
1963.34403,0.00248
1961.28386,0.00267
1959.22368,0.00377
1957.16351,0.00514
1955.10334,0.00594
1953.04317,0.00651
1950.98299,0.00709
1948.92282,0.00702
1946.86265,0.00646
1944.80248,0.00618
1942.74231,0.00647
1940.68213,0.00681
1938.62196,0.00655
1936.56179,0.00589
1934.50162,0.00562
1932.44145,0.00606
1930.38127,0.00634
1928.32110,0.00585
1926.26093,0.00533
1924.20076,0.00556
1922.14059,0.00603
1920.08041,0.00631
1918.02024,0.00648
1915.96007,0.00651
1913.89990,0.00664
1911.83972,0.00678
1909.77955,0.00655
1907.71938,0.00621
1905.65921,0.00614
1903.59904,0.00618
1901.53886,0.00595
1899.47869,0.00551
1897.41852,0.00521
1895.35835,0.00518
1893.29818,0.00518
1891.23800,0.00509
1889.17783,0.00515
1887.11766,0.00552
1885.05749,0.00586
1882.99731,0.00579
1880.93714,0.00548
1878.87697,0.00537
1876.81680,0.00537
1874.75663,0.00526
1872.69645,0.00528
1870.63628,0.00582
1868.57611,0.00656
1866.51594,0.00674
1864.45577,0.00631
1862.39559,0.00590
1860.33542,0.00589
1858.27525,0.00614
1856.21508,0.00635
1854.15491,0.00623
1852.09473,0.00581
1850.03456,0.00558
1847.97439,0.00569
1845.91422,0.00584
1843.85404,0.00593
1841.79387,0.00621
1839.73370,0.00665
1837.67353,0.00684
1835.61336,0.00662
1833.55318,0.00624
1831.49301,0.00618
1829.43284,0.00660
1827.37267,0.00698
1825.31250,0.00692
1823.25232,0.00672
1821.19215,0.00671
1819.13198,0.00676
1817.07181,0.00670
1815.01163,0.00652
1812.95146,0.00643
1810.89129,0.00648
1808.83112,0.00649
1806.77095,0.00644
1804.71077,0.00655
1802.65060,0.00690
1800.59043,0.00714
1798.53026,0.00710
1796.47009,0.00699
1794.40991,0.00696
1792.34974,0.00695
1790.28957,0.00696
1788.22940,0.00703
1786.16923,0.00713
1784.10905,0.00717
1782.04888,0.00730
1779.98871,0.00751
1777.92854,0.00752
1775.86836,0.00737
1773.80819,0.00729
1771.74802,0.00724
1769.68785,0.00721
1767.62768,0.00727
1765.56750,0.00739
1763.50733,0.00756
1761.44716,0.00777
1759.38699,0.00801
1757.32682,0.00818
1755.26664,0.00824
1753.20647,0.00833
1751.14630,0.00862
1749.08613,0.00907
1747.02596,0.00932
1744.96578,0.00928
1742.90561,0.00936
1740.84544,0.00969
1738.78527,0.00993
1736.72509,0.00995
1734.66492,0.00996
1732.60475,0.00997
1730.54458,0.00996
1728.48441,0.01011
1726.42423,0.01044
1724.36406,0.01075
1722.30389,0.01096
1720.24372,0.01127
1718.18355,0.01179
1716.12337,0.01216
1714.06320,0.01220
1712.00303,0.01220
1709.94286,0.01231
1707.88268,0.01261
1705.82251,0.01305
1703.76234,0.01349
1701.70217,0.01397
1699.64200,0.01457
1697.58182,0.01505
1695.52165,0.01517
1693.46148,0.01517
1691.40131,0.01541
1689.34114,0.01589
1687.28096,0.01646
1685.22079,0.01699
1683.16062,0.01705
1681.10045,0.01686
1679.04028,0.01698
1676.98010,0.01736
1674.91993,0.01783
1672.85976,0.01838
1670.79959,0.01890
1668.73941,0.01907
1666.67924,0.01900
1664.61907,0.01902
1662.55890,0.01915
1660.49873,0.01942
1658.43855,0.01978
1656.37838,0.02017
1654.31821,0.02050
1652.25804,0.02061
1650.19787,0.02056
1648.13769,0.02044
1646.07752,0.02010
1644.01735,0.01988
1641.95718,0.01992
1639.89701,0.01993
1637.83683,0.01977
1635.77666,0.01943
1633.71649,0.01901
1631.65632,0.01862
1629.59614,0.01818
1627.53597,0.01775
1625.47580,0.01746
1623.41563,0.01723
1621.35546,0.01705
1619.29528,0.01692
1617.23511,0.01656
1615.17494,0.01604
1613.11477,0.01581
1611.05460,0.01580
1608.99442,0.01565
1606.93425,0.01531
1604.87408,0.01500
1602.81391,0.01480
1600.75373,0.01457
1598.69356,0.01425
1596.63339,0.01385
1594.57322,0.01340
1592.51305,0.01292
1590.45287,0.01245
1588.39270,0.01201
1586.33253,0.01164
1584.27236,0.01134
1582.21219,0.01104
1580.15201,0.01082
1578.09184,0.01076
1576.03167,0.01070
1573.97150,0.01056
1571.91133,0.01042
1569.85115,0.01019
1567.79098,0.00989
1565.73081,0.00972
1563.67064,0.00972
1561.61046,0.00983
1559.55029,0.00979
1557.49012,0.00925
1555.42995,0.00858
1553.36978,0.00816
1551.30960,0.00801
1549.24943,0.00797
1547.18926,0.00809
1545.12909,0.00853
1543.06892,0.00904
1541.00874,0.00899
1538.94857,0.00814
1536.88840,0.00736
1534.82823,0.00699
1532.76805,0.00677
1530.70788,0.00667
1528.64771,0.00672
1526.58754,0.00670
1524.52737,0.00660
1522.46719,0.00656
1520.40702,0.00656
1518.34685,0.00644
1516.28668,0.00614
1514.22651,0.00577
1512.16633,0.00569
1510.10616,0.00616
1508.04599,0.00662
1505.98582,0.00613
1503.92565,0.00538
1501.86547,0.00520
1499.80530,0.00532
1497.74513,0.00527
1495.68496,0.00499
1493.62478,0.00487
1491.56461,0.00507
1489.50444,0.00521
1487.44427,0.00501
1485.38410,0.00475
1483.32392,0.00469
1481.26375,0.00479
1479.20358,0.00489
1477.14341,0.00498
1475.08324,0.00502
1473.02306,0.00486
1470.96289,0.00454
1468.90272,0.00442
1466.84255,0.00459
1464.78238,0.00483
1462.72220,0.00504
1460.66203,0.00538
1458.60186,0.00582
1456.54169,0.00584
1454.48151,0.00539
1452.42134,0.00503
1450.36117,0.00495
1448.30100,0.00494
1446.24083,0.00478
1444.18065,0.00452
1442.12048,0.00440
1440.06031,0.00444
1438.00014,0.00446
1435.93997,0.00436
1433.87979,0.00429
1431.81962,0.00431
1429.75945,0.00433
1427.69928,0.00436
1425.63910,0.00446
1423.57893,0.00454
1421.51876,0.00460
1419.45859,0.00467
1417.39842,0.00461
1415.33824,0.00443
1413.27807,0.00432
1411.21790,0.00433
1409.15773,0.00435
1407.09756,0.00434
1405.03738,0.00427
1402.97721,0.00416
1400.91704,0.00415
1398.85687,0.00431
1396.79670,0.00449
1394.73652,0.00443
1392.67635,0.00424
1390.61618,0.00424
1388.55601,0.00433
1386.49583,0.00426
1384.43566,0.00416
1382.37549,0.00422
1380.31532,0.00439
1378.25515,0.00455
1376.19497,0.00471
1374.13480,0.00484
1372.07463,0.00491
1370.01446,0.00494
1367.95429,0.00496
1365.89411,0.00497
1363.83394,0.00490
1361.77377,0.00463
1359.71360,0.00431
1357.65343,0.00429
1355.59325,0.00455
1353.53308,0.00469
1351.47291,0.00454
1349.41274,0.00429
1347.35256,0.00411
1345.29239,0.00408
1343.23222,0.00417
1341.17205,0.00432
1339.11188,0.00443
1337.05170,0.00442
1334.99153,0.00440
1332.93136,0.00452
1330.87119,0.00469
1328.81102,0.00475
1326.75084,0.00461
1324.69067,0.00438
1322.63050,0.00428
1320.57033,0.00440
1318.51015,0.00449
1316.44998,0.00438
1314.38981,0.00416
1312.32964,0.00399
1310.26947,0.00396
1308.20929,0.00403
1306.14912,0.00414
1304.08895,0.00427
1302.02878,0.00428
1299.96861,0.00415
1297.90843,0.00413
1295.84826,0.00432
1293.78809,0.00451
1291.72792,0.00462
1289.66775,0.00467
1287.60757,0.00474
1285.54740,0.00482
1283.48723,0.00496
1281.42706,0.00511
1279.36688,0.00509
1277.30671,0.00495
1275.24654,0.00495
1273.18637,0.00518
1271.12620,0.00539
1269.06602,0.00534
1267.00585,0.00511
1264.94568,0.00492
1262.88551,0.00478
1260.82534,0.00462
1258.76516,0.00440
1256.70499,0.00428
1254.64482,0.00442
1252.58465,0.00463
1250.52447,0.00462
1248.46430,0.00452
1246.40413,0.00446
1244.34396,0.00438
1242.28379,0.00411
1240.22361,0.00379
1238.16344,0.00364
1236.10327,0.00364
1234.04310,0.00370
1231.98293,0.00377
1229.92275,0.00364
1227.86258,0.00344
1225.80241,0.00345
1223.74224,0.00348
1221.68207,0.00328
1219.62189,0.00303
1217.56172,0.00295
1215.50155,0.00287
1213.44138,0.00277
1211.38120,0.00273
1209.32103,0.00267
1207.26086,0.00262
1205.20069,0.00272
1203.14052,0.00287
1201.08034,0.00309
1199.02017,0.00346
1196.96000,0.00377
1194.89983,0.00386
1192.83966,0.00398
1190.77948,0.00430
1188.71931,0.00470
1186.65914,0.00521
1184.59897,0.00586
1182.53880,0.00639
1180.47862,0.00684
1178.41845,0.00759
1176.35828,0.00857
1174.29811,0.00949
1172.23793,0.01034
1170.17776,0.01119
1168.11759,0.01203
1166.05742,0.01281
1163.99725,0.01366
1161.93707,0.01465
1159.87690,0.01558
1157.81673,0.01631
1155.75656,0.01688
1153.69639,0.01737
1151.63621,0.01805
1149.57604,0.01899
1147.51587,0.01997
1145.45570,0.02084
1143.39552,0.02173
1141.33535,0.02276
1139.27518,0.02387
1137.21501,0.02510
1135.15484,0.02643
1133.09466,0.02763
1131.03449,0.02867
1128.97432,0.02968
1126.91415,0.03075
1124.85398,0.03181
1122.79380,0.03290
1120.73363,0.03403
1118.67346,0.03509
1116.61329,0.03619
1114.55312,0.03736
1112.49294,0.03843
1110.43277,0.03952
1108.37260,0.04083
1106.31243,0.04224
1104.25225,0.04351
1102.19208,0.04471
1100.13191,0.04602
1098.07174,0.04730
1096.01157,0.04828
1093.95139,0.04915
1091.89122,0.05010
1089.83105,0.05092
1087.77088,0.05174
1085.71071,0.05288
1083.65053,0.05411
1081.59036,0.05509
1079.53019,0.05585
1077.47002,0.05637
1075.40985,0.05663
1073.34967,0.05693
1071.28950,0.05742
1069.22933,0.05798
1067.16916,0.05846
1065.10898,0.05850
1063.04881,0.05813
1060.98864,0.05784
1058.92847,0.05755
1056.86830,0.05691
1054.80812,0.05603
1052.74795,0.05531
1050.68778,0.05476
1048.62761,0.05403
1046.56744,0.05304
1044.50726,0.05186
1042.44709,0.05056
1040.38692,0.04919
1038.32675,0.04800
1036.26657,0.04703
1034.20640,0.04588
1032.14623,0.04462
1030.08606,0.04360
1028.02589,0.04269
1025.96571,0.04157
1023.90554,0.04032
1021.84537,0.03935
1019.78520,0.03854
1017.72503,0.03752
1015.66485,0.03656
1013.60468,0.03614
1011.54451,0.03608
1009.48434,0.03605
1007.42417,0.03599
1005.36399,0.03596
1003.30382,0.03614
1001.24365,0.03669
999.18348,0.03730
997.12330,0.03783
995.06313,0.03866
993.00296,0.03974
990.94279,0.04067
988.88262,0.04130
986.82244,0.04167
984.76227,0.04190
982.70210,0.04210
980.64193,0.04218
978.58176,0.04184
976.52158,0.04100
974.46141,0.03992
972.40124,0.03865
970.34107,0.03701
968.28089,0.03541
966.22072,0.03418
964.16055,0.03299
962.10038,0.03181
960.04021,0.03074
957.98003,0.02974
955.91986,0.02876
953.85969,0.02781
951.79952,0.02707
949.73935,0.02670
947.67917,0.02646
945.61900,0.02608
943.55883,0.02572
941.49866,0.02537
939.43849,0.02504
937.37831,0.02502
935.31814,0.02523
933.25797,0.02529
931.19780,0.02513
929.13762,0.02505
927.07745,0.02513
925.01728,0.02506
922.95711,0.02456
920.89694,0.02380
918.83676,0.02336
916.77659,0.02324
914.71642,0.02283
912.65625,0.02199
910.59608,0.02128
908.53590,0.02074
906.47573,0.02017
904.41556,0.01983
902.35539,0.01985
900.29522,0.01989
898.23504,0.01980
896.17487,0.01956
894.11470,0.01944
892.05453,0.01964
889.99435,0.01996
887.93418,0.02027
885.87401,0.02058
883.81384,0.02094
881.75367,0.02155
879.69349,0.02224
877.63332,0.02259
875.57315,0.02258
873.51298,0.02262
871.45281,0.02292
869.39263,0.02308
867.33246,0.02298
865.27229,0.02325
863.21212,0.02381
861.15194,0.02393
859.09177,0.02350
857.03160,0.02273
854.97143,0.02212
852.91126,0.02201
850.85108,0.02196
848.79091,0.02159
846.73074,0.02095
844.67057,0.02025
842.61040,0.01970
840.55022,0.01935
838.49005,0.01897
836.42988,0.01843
834.36971,0.01759
832.30954,0.01636
830.24936,0.01542
828.18919,0.01495
826.12902,0.01456
824.06885,0.01410
822.00867,0.01327
819.94850,0.01249
817.88833,0.01241
815.82816,0.01243
813.76799,0.01179
811.70781,0.01095
809.64764,0.01070
807.58747,0.01076
805.52730,0.01078
803.46713,0.01046
801.40695,0.00952
799.34678,0.00882
797.28661,0.00884
795.22644,0.00896
793.16627,0.00887
791.10609,0.00844
789.04592,0.00798
786.98575,0.00802
784.92558,0.00826
782.86540,0.00818
780.80523,0.00752
778.74506,0.00667
776.68489,0.00653
774.62472,0.00690
772.56454,0.00725
770.50437,0.00768
768.44420,0.00802
766.38403,0.00790
764.32386,0.00751
762.26368,0.00724
760.20351,0.00703
758.14334,0.00671
756.08317,0.00663
754.02299,0.00667
751.96282,0.00630
749.90265,0.00560
747.84248,0.00518
745.78231,0.00518
743.72213,0.00495
741.66196,0.00445
739.60179,0.00460
737.54162,0.00537
735.48145,0.00575
733.42127,0.00574
731.36110,0.00579
729.30093,0.00579
727.24076,0.00560
725.18059,0.00512
723.12041,0.00467
721.06024,0.00524
719.00007,0.00604
716.93990,0.00631
714.87972,0.00597
712.81955,0.00579
710.75938,0.00625
708.69921,0.00638
706.63904,0.00559
704.57886,0.00495
702.51869,0.00500
700.45852,0.00492
698.39835,0.00453
696.33818,0.00448
694.27800,0.00465
692.21783,0.00450
690.15766,0.00419
688.09749,0.00429
686.03731,0.00473
683.97714,0.00495
681.91697,0.00488
679.85680,0.00481
677.79663,0.00454
675.73645,0.00395
673.67628,0.00330
671.61611,0.00347
669.55594,0.00699
667.49577,0.00915
665.43559,0.00472
663.37542,0.00366
661.31525,0.00434
659.25508,0.00458
657.19491,0.00401
655.13473,0.00399
653.07456,0.00487
651.01439,0.00590
648.95422,0.00703
646.89404,0.00761
644.83387,0.00676
642.77370,0.00459
640.71353,0.00334
638.65336,0.00443
636.59318,0.00621
634.53301,0.00625
632.47284,0.00558
630.41267,0.00609
628.35250,0.00724
626.29232,0.00722
624.23215,0.00596
622.17198,0.00480
620.11181,0.00447
618.05164,0.00430
615.99146,0.00346
613.93129,0.00251
611.87112,0.00200
609.81095,0.00149
607.75077,0.00048
605.69060,0.00032
603.63043,0.00009
601.57026,0.00000
599.51009,0.00000
