3996.73391,0.00042
3994.67373,0.00078
3992.61356,0.00083
3990.55339,0.00058
3988.49322,0.00027
3986.43305,0.00006
3984.37287,0.00000
3982.31270,0.00007
3980.25253,0.00037
3978.19236,0.00089
3976.13219,0.00121
3974.07201,0.00103
3972.01184,0.00063
3969.95167,0.00049
3967.89150,0.00057
3965.83133,0.00061
3963.77115,0.00064
3961.71098,0.00062
3959.65081,0.00059
3957.59064,0.00061
3955.53046,0.00062
3953.47029,0.00060
3951.41012,0.00075
3949.34995,0.00108
3947.28978,0.00137
3945.22960,0.00157
3943.16943,0.00175
3941.10926,0.00177
3939.04909,0.00158
3936.98892,0.00139
3934.92874,0.00135
3932.86857,0.00126
3930.80840,0.00090
3928.74823,0.00059
3926.68805,0.00060
3924.62788,0.00080
3922.56771,0.00115
3920.50754,0.00151
3918.44737,0.00156
3916.38719,0.00138
3914.32702,0.00137
3912.26685,0.00159
3910.20668,0.00182
3908.14651,0.00203
3906.08633,0.00224
3904.02616,0.00218
3901.96599,0.00182
3899.90582,0.00155
3897.84565,0.00163
3895.78547,0.00210
3893.72530,0.00260
3891.66513,0.00264
3889.60496,0.00247
3887.54478,0.00250
3885.48461,0.00240
3883.42444,0.00189
3881.36427,0.00133
3879.30410,0.00119
3877.24392,0.00144
3875.18375,0.00160
3873.12358,0.00173
3871.06341,0.00228
3869.00324,0.00294
3866.94306,0.00298
3864.88289,0.00241
3862.82272,0.00169
3860.76255,0.00124
3858.70237,0.00110
3856.64220,0.00117
3854.58203,0.00144
3852.52186,0.00169
3850.46169,0.00162
3848.40151,0.00151
3846.34134,0.00168
3844.28117,0.00219
3842.22100,0.00295
3840.16083,0.00374
3838.10065,0.00407
3836.04048,0.00366
3833.98031,0.00291
3831.92014,0.00227
3829.85997,0.00197
3827.79979,0.00209
3825.73962,0.00231
3823.67945,0.00244
3821.61928,0.00260
3819.55910,0.00295
3817.49893,0.00334
3815.43876,0.00319
3813.37859,0.00235
3811.31842,0.00139
3809.25824,0.00087
3807.19807,0.00100
3805.13790,0.00151
3803.07773,0.00182
3801.01756,0.00153
3798.95738,0.00113
3796.89721,0.00125
3794.83704,0.00155
3792.77687,0.00173
3790.71670,0.00186
3788.65652,0.00196
3786.59635,0.00195
3784.53618,0.00171
3782.47601,0.00146
3780.41583,0.00145
3778.35566,0.00142
3776.29549,0.00122
3774.23532,0.00124
3772.17515,0.00165
3770.11497,0.00193
3768.05480,0.00159
3765.99463,0.00109
3763.93446,0.00132
3761.87429,0.00224
3759.81411,0.00288
3757.75394,0.00264
3755.69377,0.00221
3753.63360,0.00244
3751.57342,0.00295
3749.51325,0.00303
3747.45308,0.00316
3745.39291,0.00332
3743.33274,0.00268
3741.27256,0.00183
3739.21239,0.00156
3737.15222,0.00189
3735.09205,0.00264
3733.03188,0.00292
3730.97170,0.00243
3728.91153,0.00202
3726.85136,0.00200
3724.79119,0.00182
3722.73102,0.00121
3720.67084,0.00058
3718.61067,0.00060
3716.55050,0.00128
3714.49033,0.00227
3712.43015,0.00312
3710.36998,0.00306
3708.30981,0.00228
3706.24964,0.00177
3704.18947,0.00184
3702.12929,0.00219
3700.06912,0.00251
3698.00895,0.00255
3695.94878,0.00226
3693.88861,0.00200
3691.82843,0.00212
3689.76826,0.00249
3687.70809,0.00262
3685.64792,0.00241
3683.58775,0.00218
3681.52757,0.00223
3679.46740,0.00256
3677.40723,0.00290
3675.34706,0.00303
3673.28688,0.00318
3671.22671,0.00344
3669.16654,0.00328
3667.10637,0.00283
3665.04620,0.00300
3662.98602,0.00368
3660.92585,0.00401
3658.86568,0.00382
3656.80551,0.00368
3654.74534,0.00404
3652.68516,0.00473
3650.62499,0.00510
3648.56482,0.00486
3646.50465,0.00479
3644.44447,0.00531
3642.38430,0.00602
3640.32413,0.00661
3638.26396,0.00706
3636.20379,0.00757
3634.14361,0.00835
3632.08344,0.00931
3630.02327,0.01003
3627.96310,0.01007
3625.90293,0.00989
3623.84275,0.01015
3621.78258,0.01094
3619.72241,0.01174
3617.66224,0.01190
3615.60207,0.01176
3613.54189,0.01195
3611.48172,0.01257
3609.42155,0.01307
3607.36138,0.01301
3605.30120,0.01295
3603.24103,0.01334
3601.18086,0.01412
3599.12069,0.01505
3597.06052,0.01575
3595.00034,0.01592
3592.94017,0.01577
3590.88000,0.01573
3588.81983,0.01605
3586.75966,0.01668
3584.69948,0.01729
3582.63931,0.01759
3580.57914,0.01782
3578.51897,0.01820
3576.45879,0.01863
3574.39862,0.01899
3572.33845,0.01922
3570.27828,0.01958
3568.21811,0.02034
3566.15793,0.02107
3564.09776,0.02136
3562.03759,0.02154
3559.97742,0.02176
3557.91725,0.02203
3555.85707,0.02254
3553.79690,0.02314
3551.73673,0.02352
3549.67656,0.02389
3547.61639,0.02452
3545.55621,0.02497
3543.49604,0.02501
3541.43587,0.02512
3539.37570,0.02549
3537.31552,0.02585
3535.25535,0.02620
3533.19518,0.02667
3531.13501,0.02717
3529.07484,0.02748
3527.01466,0.02775
3524.95449,0.02830
3522.89432,0.02898
3520.83415,0.02948
3518.77398,0.02978
3516.71380,0.03006
3514.65363,0.03051
3512.59346,0.03084
3510.53329,0.03079
3508.47312,0.03073
3506.41294,0.03093
3504.35277,0.03123
3502.29260,0.03161
3500.23243,0.03219
3498.17225,0.03290
3496.11208,0.03350
3494.05191,0.03380
3491.99174,0.03383
3489.93157,0.03384
3487.87139,0.03418
3485.81122,0.03476
3483.75105,0.03510
3481.69088,0.03509
3479.63071,0.03525
3477.57053,0.03569
3475.51036,0.03620
3473.45019,0.03676
3471.39002,0.03736
3469.32984,0.03793
3467.26967,0.03836
3465.20950,0.03849
3463.14933,0.03845
3461.08916,0.03856
3459.02898,0.03865
3456.96881,0.03866
3454.90864,0.03898
3452.84847,0.03968
3450.78830,0.04041
3448.72812,0.04085
3446.66795,0.04088
3444.60778,0.04072
3442.54761,0.04066
3440.48744,0.04091
3438.42726,0.04138
3436.36709,0.04173
3434.30692,0.04203
3432.24675,0.04229
3430.18657,0.04243
3428.12640,0.04265
3426.06623,0.04317
3424.00606,0.04373
3421.94589,0.04399
3419.88571,0.04411
3417.82554,0.04429
3415.76537,0.04435
3413.70520,0.04427
3411.64503,0.04428
3409.58485,0.04447
3407.52468,0.04490
3405.46451,0.04542
3403.40434,0.04555
3401.34416,0.04536
3399.28399,0.04552
3397.22382,0.04595
3395.16365,0.04610
3393.10348,0.04593
3391.04330,0.04596
3388.98313,0.04651
3386.92296,0.04698
3384.86279,0.04683
3382.80262,0.04653
3380.74244,0.04661
3378.68227,0.04693
3376.62210,0.04717
3374.56193,0.04738
3372.50176,0.04767
3370.44158,0.04794
3368.38141,0.04793
3366.32124,0.04771
3364.26107,0.04768
3362.20089,0.04788
3360.14072,0.04811
3358.08055,0.04829
3356.02038,0.04848
3353.96021,0.04867
3351.90003,0.04894
3349.83986,0.04928
3347.77969,0.04933
3345.71952,0.04901
3343.65935,0.04874
3341.59917,0.04880
3339.53900,0.04898
3337.47883,0.04903
3335.41866,0.04903
3333.35849,0.04924
3331.29831,0.04965
3329.23814,0.04985
3327.17797,0.04971
3325.11780,0.04956
3323.05762,0.04949
3320.99745,0.04948
3318.93728,0.04963
3316.87711,0.04979
3314.81694,0.04989
3312.75676,0.05008
3310.69659,0.05017
3308.63642,0.05002
3306.57625,0.04985
3304.51608,0.04969
3302.45590,0.04972
3300.39573,0.05014
3298.33556,0.05041
3296.27539,0.05019
3294.21521,0.05003
3292.15504,0.05019
3290.09487,0.05036
3288.03470,0.05038
3285.97453,0.05040
3283.91435,0.05064
3281.85418,0.05094
3279.79401,0.05092
3277.73384,0.05077
3275.67367,0.05096
3273.61349,0.05124
3271.55332,0.05120
3269.49315,0.05108
3267.43298,0.05113
3265.37281,0.05134
3263.31263,0.05160
3261.25246,0.05169
3259.19229,0.05167
3257.13212,0.05177
3255.07194,0.05189
3253.01177,0.05177
3250.95160,0.05128
3248.89143,0.05080
3246.83126,0.05079
3244.77108,0.05110
3242.71091,0.05151
3240.65074,0.05196
3238.59057,0.05204
3236.53040,0.05175
3234.47022,0.05155
3232.41005,0.05156
3230.34988,0.05156
3228.28971,0.05148
3226.22954,0.05142
3224.16936,0.05126
3222.10919,0.05097
3220.04902,0.05093
3217.98885,0.05109
3215.92867,0.05112
3213.86850,0.05116
3211.80833,0.05150
3209.74816,0.05177
3207.68799,0.05168
3205.62781,0.05149
3203.56764,0.05127
3201.50747,0.05091
3199.44730,0.05061
3197.38713,0.05050
3195.32695,0.05070
3193.26678,0.05107
3191.20661,0.05113
3189.14644,0.05082
3187.08626,0.05067
3185.02609,0.05066
3182.96592,0.05037
3180.90575,0.05003
3178.84558,0.04998
3176.78540,0.04995
3174.72523,0.04968
3172.66506,0.04937
3170.60489,0.04924
3168.54472,0.04925
3166.48454,0.04911
3164.42437,0.04882
3162.36420,0.04859
3160.30403,0.04846
3158.24386,0.04846
3156.18368,0.04844
3154.12351,0.04819
3152.06334,0.04801
3150.00317,0.04818
3147.94299,0.04834
3145.88282,0.04821
3143.82265,0.04802
3141.76248,0.04801
3139.70231,0.04812
3137.64213,0.04808
3135.58196,0.04774
3133.52179,0.04726
3131.46162,0.04689
3129.40145,0.04676
3127.34127,0.04650
3125.28110,0.04597
3123.22093,0.04558
3121.16076,0.04565
3119.10058,0.04581
3117.04041,0.04561
3114.98024,0.04519
3112.92007,0.04500
3110.85990,0.04495
3108.79972,0.04490
3106.73955,0.04492
3104.67938,0.04479
3102.61921,0.04443
3100.55904,0.04404
3098.49886,0.04374
3096.43869,0.04367
3094.37852,0.04377
3092.31835,0.04378
3090.25818,0.04351
3088.19800,0.04308
3086.13783,0.04287
3084.07766,0.04277
3082.01749,0.04244
3079.95731,0.04214
3077.89714,0.04204
3075.83697,0.04201
3073.77680,0.04208
3071.71663,0.04203
3069.65645,0.04176
3067.59628,0.04140
3065.53611,0.04109
3063.47594,0.04092
3061.41577,0.04088
3059.35559,0.04076
3057.29542,0.04033
3055.23525,0.03976
3053.17508,0.03942
3051.11491,0.03923
3049.05473,0.03896
3046.99456,0.03872
3044.93439,0.03864
3042.87422,0.03861
3040.81404,0.03843
3038.75387,0.03805
3036.69370,0.03763
3034.63353,0.03749
3032.57336,0.03765
3030.51318,0.03761
3028.45301,0.03694
3026.39284,0.03607
3024.33267,0.03576
3022.27250,0.03589
3020.21232,0.03606
3018.15215,0.03628
3016.09198,0.03630
3014.03181,0.03594
3011.97163,0.03547
3009.91146,0.03517
3007.85129,0.03501
3005.79112,0.03483
3003.73095,0.03450
3001.67077,0.03405
2999.61060,0.03372
2997.55043,0.03366
2995.49026,0.03364
2993.43009,0.03348
2991.36991,0.03314
2989.30974,0.03275
2987.24957,0.03250
2985.18940,0.03241
2983.12923,0.03246
2981.06905,0.03250
2979.00888,0.03226
2976.94871,0.03207
2974.88854,0.03220
2972.82836,0.03225
2970.76819,0.03213
2968.70802,0.03208
2966.64785,0.03204
2964.58768,0.03175
2962.52750,0.03128
2960.46733,0.03108
2958.40716,0.03103
2956.34699,0.03089
2954.28682,0.03083
2952.22664,0.03077
2950.16647,0.03081
2948.10630,0.03104
2946.04613,0.03118
2943.98596,0.03107
2941.92578,0.03072
2939.86561,0.03049
2937.80544,0.03039
2935.74527,0.03019
2933.68509,0.02999
2931.62492,0.02986
2929.56475,0.02983
2927.50458,0.02984
2925.44441,0.02969
2923.38423,0.02941
2921.32406,0.02919
2919.26389,0.02906
2917.20372,0.02892
2915.14355,0.02882
2913.08337,0.02869
2911.02320,0.02844
2908.96303,0.02826
2906.90286,0.02822
2904.84268,0.02818
2902.78251,0.02811
2900.72234,0.02807
2898.66217,0.02798
2896.60200,0.02780
2894.54182,0.02756
2892.48165,0.02738
2890.42148,0.02733
2888.36131,0.02735
2886.30114,0.02743
2884.24096,0.02736
2882.18079,0.02712
2880.12062,0.02704
2878.06045,0.02713
2876.00028,0.02717
2873.94010,0.02698
2871.87993,0.02654
2869.81976,0.02609
2867.75959,0.02588
2865.69941,0.02588
2863.63924,0.02601
2861.57907,0.02606
2859.51890,0.02599
2857.45873,0.02596
2855.39855,0.02584
2853.33838,0.02563
2851.27821,0.02559
2849.21804,0.02560
2847.15787,0.02533
2845.09769,0.02501
2843.03752,0.02501
2840.97735,0.02497
2838.91718,0.02469
2836.85700,0.02463
2834.79683,0.02466
2832.73666,0.02452
2830.67649,0.02435
2828.61632,0.02413
2826.55614,0.02386
2824.49597,0.02359
2822.43580,0.02329
2820.37563,0.02308
2818.31546,0.02308
2816.25528,0.02329
2814.19511,0.02344
2812.13494,0.02342
2810.07477,0.02338
2808.01460,0.02324
2805.95442,0.02295
2803.89425,0.02269
2801.83408,0.02270
2799.77391,0.02287
2797.71373,0.02277
2795.65356,0.02233
2793.59339,0.02200
2791.53322,0.02212
2789.47305,0.02238
2787.41287,0.02225
2785.35270,0.02183
2783.29253,0.02163
2781.23236,0.02164
2779.17219,0.02150
2777.11201,0.02121
2775.05184,0.02100
2772.99167,0.02097
2770.93150,0.02105
2768.87133,0.02102
2766.81115,0.02085
2764.75098,0.02083
2762.69081,0.02092
2760.63064,0.02081
2758.57046,0.02061
2756.51029,0.02056
2754.45012,0.02045
2752.38995,0.02021
2750.32978,0.01999
2748.26960,0.01985
2746.20943,0.01982
2744.14926,0.01982
2742.08909,0.01958
2740.02892,0.01932
2737.96874,0.01927
2735.90857,0.01924
2733.84840,0.01908
2731.78823,0.01883
2729.72805,0.01879
2727.66788,0.01901
2725.60771,0.01902
2723.54754,0.01880
2721.48737,0.01866
2719.42719,0.01853
2717.36702,0.01826
2715.30685,0.01797
2713.24668,0.01786
2711.18651,0.01794
2709.12633,0.01793
2707.06616,0.01781
2705.00599,0.01764
2702.94582,0.01735
2700.88565,0.01708
2698.82547,0.01698
2696.76530,0.01706
2694.70513,0.01718
2692.64496,0.01711
2690.58478,0.01694
2688.52461,0.01686
2686.46444,0.01674
2684.40427,0.01646
2682.34410,0.01606
2680.28392,0.01579
2678.22375,0.01584
2676.16358,0.01604
2674.10341,0.01602
2672.04324,0.01560
2669.98306,0.01518
2667.92289,0.01513
2665.86272,0.01519
2663.80255,0.01511
2661.74238,0.01503
2659.68220,0.01503
2657.62203,0.01490
2655.56186,0.01464
2653.50169,0.01457
2651.44151,0.01468
2649.38134,0.01465
2647.32117,0.01437
2645.26100,0.01401
2643.20083,0.01388
2641.14065,0.01388
2639.08048,0.01377
2637.02031,0.01355
2634.96014,0.01331
2632.89997,0.01323
2630.83979,0.01336
2628.77962,0.01345
2626.71945,0.01354
2624.65928,0.01369
2622.59910,0.01333
2620.53893,0.01265
2618.47876,0.01232
2616.41859,0.01223
2614.35842,0.01209
2612.29824,0.01214
2610.23807,0.01234
2608.17790,0.01224
2606.11773,0.01197
2604.05756,0.01198
2601.99738,0.01221
2599.93721,0.01215
2597.87704,0.01184
2595.81687,0.01161
2593.75670,0.01165
2591.69652,0.01192
2589.63635,0.01212
2587.57618,0.01212
2585.51601,0.01205
2583.45583,0.01207
2581.39566,0.01198
2579.33549,0.01168
2577.27532,0.01163
2575.21515,0.01170
2573.15497,0.01143
2571.09480,0.01125
2569.03463,0.01136
2566.97446,0.01138
2564.91429,0.01122
2562.85411,0.01105
2560.79394,0.01101
2558.73377,0.01085
2556.67360,0.01045
2554.61342,0.01037
2552.55325,0.01077
2550.49308,0.01098
2548.43291,0.01068
2546.37274,0.01030
2544.31256,0.01021
2542.25239,0.01037
2540.19222,0.01060
2538.13205,0.01096
2536.07188,0.01141
2534.01170,0.01141
2531.95153,0.01105
2529.89136,0.01096
2527.83119,0.01100
2525.77102,0.01093
2523.71084,0.01112
2521.65067,0.01167
2519.59050,0.01196
2517.53033,0.01176
2515.47015,0.01160
2513.40998,0.01145
2511.34981,0.01105
2509.28964,0.01092
2507.22947,0.01112
2505.16929,0.01120
2503.10912,0.01135
2501.04895,0.01174
2498.98878,0.01229
2496.92861,0.01273
2494.86843,0.01246
2492.80826,0.01185
2490.74809,0.01178
2488.68792,0.01206
2486.62775,0.01216
2484.56757,0.01198
2482.50740,0.01177
2480.44723,0.01174
2478.38706,0.01175
2476.32688,0.01158
2474.26671,0.01159
2472.20654,0.01213
2470.14637,0.01263
2468.08620,0.01252
2466.02602,0.01204
2463.96585,0.01192
2461.90568,0.01239
2459.84551,0.01284
2457.78534,0.01282
2455.72516,0.01257
2453.66499,0.01239
2451.60482,0.01241
2449.54465,0.01245
2447.48447,0.01213
2445.42430,0.01192
2443.36413,0.01246
2441.30396,0.01315
2439.24379,0.01327
2437.18361,0.01305
2435.12344,0.01302
2433.06327,0.01318
2431.00310,0.01313
2428.94293,0.01274
2426.88275,0.01236
2424.82258,0.01239
2422.76241,0.01276
2420.70224,0.01293
2418.64207,0.01272
2416.58189,0.01242
2414.52172,0.01234
2412.46155,0.01237
2410.40138,0.01241
2408.34120,0.01266
2406.28103,0.01301
2404.22086,0.01319
2402.16069,0.01302
2400.10052,0.01271
2398.04034,0.01253
2395.98017,0.01251
2393.92000,0.01275
2391.85983,0.01312
2389.79966,0.01330
2387.73948,0.01322
2385.67931,0.01313
2383.61914,0.01330
2381.55897,0.01366
2379.49880,0.01366
2377.43862,0.01282
2375.37845,0.01169
2373.31828,0.01168
2371.25811,0.01348
2369.19793,0.01517
2367.13776,0.01380
2365.07759,0.01007
2363.01742,0.00726
2360.95725,0.00585
2358.89707,0.00678
2356.83690,0.00897
2354.77673,0.01095
2352.71656,0.01202
2350.65639,0.01109
2348.59621,0.01035
2346.53604,0.01163
2344.47587,0.01207
2342.41570,0.01352
2340.35552,0.01511
2338.29535,0.01381
2336.23518,0.01095
2334.17501,0.00986
2332.11484,0.01124
2330.05466,0.01216
2327.99449,0.01180
2325.93432,0.01123
2323.87415,0.01143
2321.81398,0.01164
2319.75380,0.01173
2317.69363,0.01151
2315.63346,0.01151
2313.57329,0.01183
2311.51312,0.01212
2309.45294,0.01212
2307.39277,0.01202
2305.33260,0.01209
2303.27243,0.01213
2301.21225,0.01207
2299.15208,0.01193
2297.09191,0.01193
2295.03174,0.01197
2292.97157,0.01182
2290.91139,0.01162
2288.85122,0.01160
2286.79105,0.01175
2284.73088,0.01179
2282.67071,0.01148
2280.61053,0.01096
2278.55036,0.01060
2276.49019,0.01048
2274.43002,0.01052
2272.36984,0.01080
2270.30967,0.01113
2268.24950,0.01103
2266.18933,0.01039
2264.12916,0.00945
2262.06898,0.00877
2260.00881,0.00898
2257.94864,0.00993
2255.88847,0.01040
2253.82830,0.00987
2251.76812,0.00961
2249.70795,0.00998
2247.64778,0.00940
2245.58761,0.00836
2243.52744,0.00855
2241.46726,0.00936
2239.40709,0.00987
2237.34692,0.00999
2235.28675,0.00989
2233.22657,0.00952
2231.16640,0.00874
2229.10623,0.00793
2227.04606,0.00708
2224.98589,0.00635
2222.92571,0.00675
2220.86554,0.00848
2218.80537,0.01010
2216.74520,0.01017
2214.68503,0.00918
2212.62485,0.00831
2210.56468,0.00750
2208.50451,0.00703
2206.44434,0.00770
2204.38417,0.00881
2202.32399,0.00870
2200.26382,0.00745
2198.20365,0.00674
2196.14348,0.00711
2194.08330,0.00718
2192.02313,0.00653
2189.96296,0.00644
2187.90279,0.00751
2185.84262,0.00857
2183.78244,0.00851
2181.72227,0.00766
2179.66210,0.00677
2177.60193,0.00642
2175.54176,0.00646
2173.48158,0.00618
2171.42141,0.00644
2169.36124,0.00742
2167.30107,0.00709
2165.24089,0.00524
2163.18072,0.00386
2161.12055,0.00387
2159.06038,0.00421
2157.00021,0.00478
2154.94003,0.00653
2152.87986,0.00755
2150.81969,0.00639
2148.75952,0.00507
2146.69935,0.00502
2144.63917,0.00540
2142.57900,0.00500
2140.51883,0.00389
2138.45866,0.00376
2136.39849,0.00481
2134.33831,0.00525
2132.27814,0.00480
2130.21797,0.00498
2128.15780,0.00569
2126.09762,0.00571
2124.03745,0.00569
2121.97728,0.00650
2119.91711,0.00685
2117.85694,0.00607
2115.79676,0.00559
2113.73659,0.00613
2111.67642,0.00689
2109.61625,0.00713
2107.55608,0.00701
2105.49590,0.00688
2103.43573,0.00651
2101.37556,0.00628
2099.31539,0.00644
2097.25521,0.00639
2095.19504,0.00592
2093.13487,0.00572
2091.07470,0.00628
2089.01453,0.00700
2086.95435,0.00707
2084.89418,0.00646
2082.83401,0.00569
2080.77384,0.00541
2078.71367,0.00555
2076.65349,0.00573
2074.59332,0.00596
2072.53315,0.00572
2070.47298,0.00518
2068.41281,0.00577
2066.35263,0.00688
2064.29246,0.00624
2062.23229,0.00438
2060.17212,0.00327
2058.11194,0.00311
2056.05177,0.00351
2053.99160,0.00407
2051.93143,0.00450
2049.87126,0.00470
2047.81108,0.00439
2045.75091,0.00347
2043.69074,0.00262
2041.63057,0.00244
2039.57040,0.00179
2037.51022,0.00043
2035.45005,0.00042
2033.38988,0.00205
2031.32971,0.00308
2029.26954,0.00273
2027.20936,0.00223
2025.14919,0.00256
2023.08902,0.00366
2021.02885,0.00406
2018.96867,0.00332
2016.90850,0.00268
2014.84833,0.00221
2012.78816,0.00246
2010.72799,0.00310
2008.66781,0.00213
2006.60764,0.00093
2004.54747,0.00142
2002.48730,0.00227
2000.42713,0.00267
1998.36695,0.00309
1996.30678,0.00362
1994.24661,0.00387
1992.18644,0.00343
1990.12626,0.00330
1988.06609,0.00416
1986.00592,0.00452
1983.94575,0.00331
1981.88558,0.00199
1979.82540,0.00176
1977.76523,0.00171
1975.70506,0.00150
1973.64489,0.00199
1971.58472,0.00310
1969.52454,0.00354
1967.46437,0.00257
1965.40420,0.00109
1963.34403,0.00041
1961.28386,0.00113
1959.22368,0.00230
1957.16351,0.00260
1955.10334,0.00237
1953.04317,0.00270
1950.98299,0.00329
1948.92282,0.00319
1946.86265,0.00288
1944.80248,0.00314
1942.74231,0.00364
1940.68213,0.00371
1938.62196,0.00319
1936.56179,0.00275
1934.50162,0.00293
1932.44145,0.00336
1930.38127,0.00333
1928.32110,0.00287
1926.26093,0.00242
1924.20076,0.00222
1922.14059,0.00228
1920.08041,0.00250
1918.02024,0.00285
1915.96007,0.00347
1913.89990,0.00426
1911.83972,0.00460
1909.77955,0.00405
1907.71938,0.00323
1905.65921,0.00305
1903.59904,0.00343
1901.53886,0.00363
1899.47869,0.00338
1897.41852,0.00319
1895.35835,0.00313
1893.29818,0.00294
1891.23800,0.00292
1889.17783,0.00319
1887.11766,0.00348
1885.05749,0.00374
1882.99731,0.00373
1880.93714,0.00346
1878.87697,0.00335
1876.81680,0.00332
1874.75663,0.00317
1872.69645,0.00323
1870.63628,0.00360
1868.57611,0.00386
1866.51594,0.00375
1864.45577,0.00367
1862.39559,0.00376
1860.33542,0.00383
1858.27525,0.00379
1856.21508,0.00368
1854.15491,0.00342
1852.09473,0.00307
1850.03456,0.00309
1847.97439,0.00352
1845.91422,0.00391
1843.85404,0.00393
1841.79387,0.00389
1839.73370,0.00399
1837.67353,0.00395
1835.61336,0.00373
1833.55318,0.00361
1831.49301,0.00364
1829.43284,0.00379
1827.37267,0.00393
1825.31250,0.00384
1823.25232,0.00364
1821.19215,0.00366
1819.13198,0.00392
1817.07181,0.00406
1815.01163,0.00393
1812.95146,0.00385
1810.89129,0.00400
1808.83112,0.00409
1806.77095,0.00396
1804.71077,0.00399
1802.65060,0.00432
1800.59043,0.00457
1798.53026,0.00460
1796.47009,0.00452
1794.40991,0.00425
1792.34974,0.00387
1790.28957,0.00382
1788.22940,0.00416
1786.16923,0.00446
1784.10905,0.00455
1782.04888,0.00466
1779.98871,0.00473
1777.92854,0.00459
1775.86836,0.00452
1773.80819,0.00472
1771.74802,0.00489
1769.68785,0.00483
1767.62768,0.00470
1765.56750,0.00471
1763.50733,0.00497
1761.44716,0.00530
1759.38699,0.00544
1757.32682,0.00542
1755.26664,0.00548
1753.20647,0.00579
1751.14630,0.00617
1749.08613,0.00627
1747.02596,0.00626
1744.96578,0.00643
1742.90561,0.00675
1740.84544,0.00700
1738.78527,0.00714
1736.72509,0.00739
1734.66492,0.00758
1732.60475,0.00736
1730.54458,0.00702
1728.48441,0.00696
1726.42423,0.00715
1724.36406,0.00736
1722.30389,0.00761
1720.24372,0.00803
1718.18355,0.00856
1716.12337,0.00889
1714.06320,0.00895
1712.00303,0.00903
1709.94286,0.00925
1707.88268,0.00964
1705.82251,0.01005
1703.76234,0.01029
1701.70217,0.01056
1699.64200,0.01115
1697.58182,0.01174
1695.52165,0.01182
1693.46148,0.01170
1691.40131,0.01193
1689.34114,0.01252
1687.28096,0.01322
1685.22079,0.01376
1683.16062,0.01388
1681.10045,0.01390
1679.04028,0.01416
1676.98010,0.01448
1674.91993,0.01474
1672.85976,0.01508
1670.79959,0.01539
1668.73941,0.01549
1666.67924,0.01562
1664.61907,0.01592
1662.55890,0.01615
1660.49873,0.01623
1658.43855,0.01644
1656.37838,0.01695
1654.31821,0.01744
1652.25804,0.01728
1650.19787,0.01688
1648.13769,0.01678
1646.07752,0.01683
1644.01735,0.01691
1641.95718,0.01692
1639.89701,0.01675
1637.83683,0.01650
1635.77666,0.01623
1633.71649,0.01588
1631.65632,0.01546
1629.59614,0.01498
1627.53597,0.01453
1625.47580,0.01421
1623.41563,0.01390
1621.35546,0.01354
1619.29528,0.01330
1617.23511,0.01307
1615.17494,0.01274
1613.11477,0.01250
1611.05460,0.01237
1608.99442,0.01219
1606.93425,0.01193
1604.87408,0.01165
1602.81391,0.01139
1600.75373,0.01118
1598.69356,0.01097
1596.63339,0.01057
1594.57322,0.01002
1592.51305,0.00957
1590.45287,0.00927
1588.39270,0.00898
1586.33253,0.00866
1584.27236,0.00834
1582.21219,0.00802
1580.15201,0.00781
1578.09184,0.00776
1576.03167,0.00771
1573.97150,0.00757
1571.91133,0.00741
1569.85115,0.00711
1567.79098,0.00678
1565.73081,0.00670
1563.67064,0.00689
1561.61046,0.00734
1559.55029,0.00765
1557.49012,0.00722
1555.42995,0.00640
1553.36978,0.00575
1551.30960,0.00544
1549.24943,0.00535
1547.18926,0.00531
1545.12909,0.00551
1543.06892,0.00586
1541.00874,0.00571
1538.94857,0.00499
1536.88840,0.00460
1534.82823,0.00463
1532.76805,0.00466
1530.70788,0.00462
1528.64771,0.00464
1526.58754,0.00462
1524.52737,0.00455
1522.46719,0.00456
1520.40702,0.00447
1518.34685,0.00407
1516.28668,0.00357
1514.22651,0.00334
1512.16633,0.00349
1510.10616,0.00388
1508.04599,0.00394
1505.98582,0.00327
1503.92565,0.00281
1501.86547,0.00290
1499.80530,0.00310
1497.74513,0.00304
1495.68496,0.00264
1493.62478,0.00242
1491.56461,0.00265
1489.50444,0.00280
1487.44427,0.00238
1485.38410,0.00195
1483.32392,0.00200
1481.26375,0.00225
1479.20358,0.00240
1477.14341,0.00255
1475.08324,0.00272
1473.02306,0.00265
1470.96289,0.00236
1468.90272,0.00225
1466.84255,0.00238
1464.78238,0.00250
1462.72220,0.00256
1460.66203,0.00271
1458.60186,0.00287
1456.54169,0.00281
1454.48151,0.00259
1452.42134,0.00254
1450.36117,0.00263
1448.30100,0.00262
1446.24083,0.00234
1444.18065,0.00203
1442.12048,0.00199
1440.06031,0.00214
1438.00014,0.00221
1435.93997,0.00202
1433.87979,0.00182
1431.81962,0.00180
1429.75945,0.00184
1427.69928,0.00182
1425.63910,0.00184
1423.57893,0.00198
1421.51876,0.00228
1419.45859,0.00255
1417.39842,0.00233
1415.33824,0.00181
1413.27807,0.00153
1411.21790,0.00158
1409.15773,0.00166
1407.09756,0.00160
1405.03738,0.00144
1402.97721,0.00125
1400.91704,0.00125
1398.85687,0.00144
1396.79670,0.00154
1394.73652,0.00138
1392.67635,0.00122
1390.61618,0.00130
1388.55601,0.00142
1386.49583,0.00136
1384.43566,0.00127
1382.37549,0.00135
1380.31532,0.00152
1378.25515,0.00163
1376.19497,0.00169
1374.13480,0.00177
1372.07463,0.00185
1370.01446,0.00188
1367.95429,0.00184
1365.89411,0.00185
1363.83394,0.00192
1361.77377,0.00180
1359.71360,0.00149
1357.65343,0.00140
1355.59325,0.00157
1353.53308,0.00170
1351.47291,0.00162
1349.41274,0.00144
1347.35256,0.00124
1345.29239,0.00115
1343.23222,0.00127
1341.17205,0.00154
1339.11188,0.00174
1337.05170,0.00175
1334.99153,0.00169
1332.93136,0.00168
1330.87119,0.00175
1328.81102,0.00181
1326.75084,0.00179
1324.69067,0.00169
1322.63050,0.00161
1320.57033,0.00162
1318.51015,0.00166
1316.44998,0.00164
1314.38981,0.00156
1312.32964,0.00151
1310.26947,0.00161
1308.20929,0.00175
1306.14912,0.00175
1304.08895,0.00164
1302.02878,0.00155
1299.96861,0.00153
1297.90843,0.00161
1295.84826,0.00179
1293.78809,0.00198
1291.72792,0.00218
1289.66775,0.00234
1287.60757,0.00231
1285.54740,0.00223
1283.48723,0.00232
1281.42706,0.00256
1279.36688,0.00270
1277.30671,0.00266
1275.24654,0.00263
1273.18637,0.00274
1271.12620,0.00289
1269.06602,0.00289
1267.00585,0.00272
1264.94568,0.00252
1262.88551,0.00236
1260.82534,0.00222
1258.76516,0.00213
1256.70499,0.00214
1254.64482,0.00221
1252.58465,0.00219
1250.52447,0.00209
1248.46430,0.00208
1246.40413,0.00214
1244.34396,0.00205
1242.28379,0.00174
1240.22361,0.00144
1238.16344,0.00131
1236.10327,0.00126
1234.04310,0.00123
1231.98293,0.00121
1229.92275,0.00117
1227.86258,0.00118
1225.80241,0.00131
1223.74224,0.00128
1221.68207,0.00085
1219.62189,0.00044
1217.56172,0.00044
1215.50155,0.00058
1213.44138,0.00067
1211.38120,0.00073
1209.32103,0.00062
1207.26086,0.00041
1205.20069,0.00034
1203.14052,0.00043
1201.08034,0.00057
1199.02017,0.00069
1196.96000,0.00095
1194.89983,0.00128
1192.83966,0.00154
1190.77948,0.00184
1188.71931,0.00220
1186.65914,0.00264
1184.59897,0.00307
1182.53880,0.00335
1180.47862,0.00369
1178.41845,0.00446
1176.35828,0.00551
1174.29811,0.00644
1172.23793,0.00717
1170.17776,0.00786
1168.11759,0.00856
1166.05742,0.00928
1163.99725,0.00997
1161.93707,0.01061
1159.87690,0.01129
1157.81673,0.01194
1155.75656,0.01244
1153.69639,0.01295
1151.63621,0.01367
1149.57604,0.01455
1147.51587,0.01545
1145.45570,0.01618
1143.39552,0.01687
1141.33535,0.01776
1139.27518,0.01877
1137.21501,0.01989
1135.15484,0.02112
1133.09466,0.02226
1131.03449,0.02311
1128.97432,0.02386
1126.91415,0.02481
1124.85398,0.02589
1122.79380,0.02700
1120.73363,0.02806
1118.67346,0.02896
1116.61329,0.02984
1114.55312,0.03080
1112.49294,0.03190
1110.43277,0.03312
1108.37260,0.03427
1106.31243,0.03535
1104.25225,0.03655
1102.19208,0.03787
1100.13191,0.03911
1098.07174,0.04014
1096.01157,0.04096
1093.95139,0.04180
1091.89122,0.04282
1089.83105,0.04380
1087.77088,0.04468
1085.71071,0.04563
1083.65053,0.04639
1081.59036,0.04686
1079.53019,0.04748
1077.47002,0.04832
1075.40985,0.04899
1073.34967,0.04957
1071.28950,0.05018
1069.22933,0.05071
1067.16916,0.05105
1065.10898,0.05098
1063.04881,0.05075
1060.98864,0.05069
1058.92847,0.05055
1056.86830,0.05014
1054.80812,0.04951
1052.74795,0.04882
1050.68778,0.04825
1048.62761,0.04775
1046.56744,0.04697
1044.50726,0.04579
1042.44709,0.04449
1040.38692,0.04329
1038.32675,0.04228
1036.26657,0.04127
1034.20640,0.04003
1032.14623,0.03883
1030.08606,0.03792
1028.02589,0.03708
1025.96571,0.03616
1023.90554,0.03511
1021.84537,0.03407
1019.78520,0.03315
1017.72503,0.03220
1015.66485,0.03146
1013.60468,0.03116
1011.54451,0.03097
1009.48434,0.03073
1007.42417,0.03077
1005.36399,0.03086
1003.30382,0.03075
1001.24365,0.03106
999.18348,0.03184
997.12330,0.03249
995.06313,0.03303
993.00296,0.03385
990.94279,0.03507
988.88262,0.03617
986.82244,0.03675
984.76227,0.03710
982.70210,0.03741
980.64193,0.03742
978.58176,0.03691
976.52158,0.03614
974.46141,0.03551
972.40124,0.03471
970.34107,0.03326
968.28089,0.03154
966.22072,0.03018
964.16055,0.02907
962.10038,0.02793
960.04021,0.02687
957.98003,0.02593
955.91986,0.02512
953.85969,0.02453
951.79952,0.02407
949.73935,0.02382
947.67917,0.02376
945.61900,0.02359
943.55883,0.02333
941.49866,0.02307
939.43849,0.02282
937.37831,0.02266
935.31814,0.02264
933.25797,0.02274
931.19780,0.02273
929.13762,0.02255
927.07745,0.02251
925.01728,0.02250
922.95711,0.02221
920.89694,0.02176
918.83676,0.02138
916.77659,0.02112
914.71642,0.02073
912.65625,0.02009
910.59608,0.01946
908.53590,0.01888
906.47573,0.01818
904.41556,0.01762
902.35539,0.01742
900.29522,0.01741
898.23504,0.01729
896.17487,0.01707
894.11470,0.01704
892.05453,0.01731
889.99435,0.01774
887.93418,0.01797
885.87401,0.01804
883.81384,0.01850
881.75367,0.01931
879.69349,0.01981
877.63332,0.01994
875.57315,0.02002
873.51298,0.02030
871.45281,0.02084
869.39263,0.02136
867.33246,0.02151
865.27229,0.02150
863.21212,0.02155
861.15194,0.02139
859.09177,0.02096
857.03160,0.02043
854.97143,0.01995
852.91126,0.01949
850.85108,0.01918
848.79091,0.01906
846.73074,0.01871
844.67057,0.01793
842.61040,0.01721
840.55022,0.01694
838.49005,0.01669
836.42988,0.01611
834.36971,0.01533
832.30954,0.01458
830.24936,0.01412
828.18919,0.01376
826.12902,0.01321
824.06885,0.01262
822.00867,0.01203
819.94850,0.01153
817.88833,0.01131
815.82816,0.01122
813.76799,0.01069
811.70781,0.00981
809.64764,0.00932
807.58747,0.00909
805.52730,0.00878
803.46713,0.00844
801.40695,0.00813
799.34678,0.00813
797.28661,0.00831
795.22644,0.00805
793.16627,0.00749
791.10609,0.00736
789.04592,0.00768
786.98575,0.00794
784.92558,0.00799
782.86540,0.00815
780.80523,0.00827
778.74506,0.00772
776.68489,0.00670
774.62472,0.00574
772.56454,0.00540
770.50437,0.00581
768.44420,0.00643
766.38403,0.00664
764.32386,0.00626
762.26368,0.00598
760.20351,0.00606
758.14334,0.00594
756.08317,0.00564
754.02299,0.00541
751.96282,0.00535
749.90265,0.00529
747.84248,0.00501
745.78231,0.00480
743.72213,0.00450
741.66196,0.00384
739.60179,0.00360
737.54162,0.00407
735.48145,0.00459
733.42127,0.00482
731.36110,0.00490
729.30093,0.00494
727.24076,0.00476
725.18059,0.00427
723.12041,0.00376
721.06024,0.00393
719.00007,0.00414
716.93990,0.00425
714.87972,0.00413
712.81955,0.00382
710.75938,0.00390
708.69921,0.00422
706.63904,0.00420
704.57886,0.00396
702.51869,0.00392
700.45852,0.00396
698.39835,0.00398
696.33818,0.00432
694.27800,0.00474
692.21783,0.00465
690.15766,0.00445
688.09749,0.00468
686.03731,0.00485
683.97714,0.00440
681.91697,0.00354
679.85680,0.00273
677.79663,0.00202
675.73645,0.00151
673.67628,0.00137
671.61611,0.00180
669.55594,0.00486
667.49577,0.00624
665.43559,0.00153
663.37542,0.00029
661.31525,0.00101
659.25508,0.00169
657.19491,0.00192
655.13473,0.00261
653.07456,0.00402
651.01439,0.00515
648.95422,0.00537
646.89404,0.00497
644.83387,0.00412
642.77370,0.00251
640.71353,0.00177
638.65336,0.00294
636.59318,0.00388
634.53301,0.00359
632.47284,0.00391
630.41267,0.00522
628.35250,0.00638
626.29232,0.00670
624.23215,0.00590
622.17198,0.00412
620.11181,0.00325
618.05164,0.00408
615.99146,0.00474
613.93129,0.00522
611.87112,0.00503
609.81095,0.00252
607.75077,0.00028
605.69060,0.00000
603.63043,0.00071
601.57026,0.00069
599.51009,0.00000
