3996.73391,0.00059
3994.67373,0.00052
3992.61356,0.00040
3990.55339,0.00025
3988.49322,0.00028
3986.43305,0.00046
3984.37287,0.00070
3982.31270,0.00085
3980.25253,0.00077
3978.19236,0.00057
3976.13219,0.00039
3974.07201,0.00034
3972.01184,0.00049
3969.95167,0.00066
3967.89150,0.00048
3965.83133,0.00010
3963.77115,0.00000
3961.71098,0.00014
3959.65081,0.00020
3957.59064,0.00034
3955.53046,0.00065
3953.47029,0.00082
3951.41012,0.00075
3949.34995,0.00066
3947.28978,0.00075
3945.22960,0.00092
3943.16943,0.00089
3941.10926,0.00072
3939.04909,0.00072
3936.98892,0.00076
3934.92874,0.00064
3932.86857,0.00045
3930.80840,0.00028
3928.74823,0.00015
3926.68805,0.00014
3924.62788,0.00027
3922.56771,0.00042
3920.50754,0.00050
3918.44737,0.00054
3916.38719,0.00055
3914.32702,0.00053
3912.26685,0.00053
3910.20668,0.00070
3908.14651,0.00081
3906.08633,0.00058
3904.02616,0.00027
3901.96599,0.00046
3899.90582,0.00092
3897.84565,0.00097
3895.78547,0.00081
3893.72530,0.00095
3891.66513,0.00119
3889.60496,0.00106
3887.54478,0.00071
3885.48461,0.00056
3883.42444,0.00066
3881.36427,0.00073
3879.30410,0.00063
3877.24392,0.00048
3875.18375,0.00034
3873.12358,0.00024
3871.06341,0.00025
3869.00324,0.00044
3866.94306,0.00065
3864.88289,0.00054
3862.82272,0.00029
3860.76255,0.00037
3858.70237,0.00072
3856.64220,0.00096
3854.58203,0.00085
3852.52186,0.00034
3850.46169,0.00000
3848.40151,0.00017
3846.34134,0.00058
3844.28117,0.00093
3842.22100,0.00097
3840.16083,0.00066
3838.10065,0.00064
3836.04048,0.00106
3833.98031,0.00113
3831.92014,0.00077
3829.85997,0.00044
3827.79979,0.00046
3825.73962,0.00076
3823.67945,0.00102
3821.61928,0.00101
3819.55910,0.00092
3817.49893,0.00094
3815.43876,0.00082
3813.37859,0.00057
3811.31842,0.00046
3809.25824,0.00037
3807.19807,0.00018
3805.13790,0.00018
3803.07773,0.00038
3801.01756,0.00038
3798.95738,0.00027
3796.89721,0.00041
3794.83704,0.00071
3792.77687,0.00088
3790.71670,0.00099
3788.65652,0.00116
3786.59635,0.00139
3784.53618,0.00148
3782.47601,0.00127
3780.41583,0.00081
3778.35566,0.00042
3776.29549,0.00034
3774.23532,0.00062
3772.17515,0.00101
3770.11497,0.00113
3768.05480,0.00096
3765.99463,0.00075
3763.93446,0.00074
3761.87429,0.00094
3759.81411,0.00109
3757.75394,0.00084
3755.69377,0.00039
3753.63360,0.00007
3751.57342,0.00000
3749.51325,0.00032
3747.45308,0.00080
3745.39291,0.00107
3743.33274,0.00121
3741.27256,0.00127
3739.21239,0.00125
3737.15222,0.00145
3735.09205,0.00149
3733.03188,0.00091
3730.97170,0.00049
3728.91153,0.00072
3726.85136,0.00111
3724.79119,0.00120
3722.73102,0.00111
3720.67084,0.00113
3718.61067,0.00133
3716.55050,0.00128
3714.49033,0.00089
3712.43015,0.00063
3710.36998,0.00085
3708.30981,0.00146
3706.24964,0.00171
3704.18947,0.00151
3702.12929,0.00131
3700.06912,0.00139
3698.00895,0.00142
3695.94878,0.00119
3693.88861,0.00105
3691.82843,0.00105
3689.76826,0.00120
3687.70809,0.00157
3685.64792,0.00194
3683.58775,0.00206
3681.52757,0.00198
3679.46740,0.00181
3677.40723,0.00174
3675.34706,0.00174
3673.28688,0.00162
3671.22671,0.00142
3669.16654,0.00168
3667.10637,0.00231
3665.04620,0.00246
3662.98602,0.00216
3660.92585,0.00206
3658.86568,0.00233
3656.80551,0.00259
3654.74534,0.00265
3652.68516,0.00277
3650.62499,0.00303
3648.56482,0.00314
3646.50465,0.00312
3644.44447,0.00353
3642.38430,0.00434
3640.32413,0.00503
3638.26396,0.00520
3636.20379,0.00517
3634.14361,0.00555
3632.08344,0.00618
3630.02327,0.00659
3627.96310,0.00675
3625.90293,0.00688
3623.84275,0.00682
3621.78258,0.00667
3619.72241,0.00672
3617.66224,0.00720
3615.60207,0.00793
3613.54189,0.00839
3611.48172,0.00859
3609.42155,0.00865
3607.36138,0.00867
3605.30120,0.00894
3603.24103,0.00935
3601.18086,0.00959
3599.12069,0.00964
3597.06052,0.00993
3595.00034,0.01051
3592.94017,0.01116
3590.88000,0.01158
3588.81983,0.01183
3586.75966,0.01206
3584.69948,0.01239
3582.63931,0.01262
3580.57914,0.01278
3578.51897,0.01325
3576.45879,0.01382
3574.39862,0.01381
3572.33845,0.01348
3570.27828,0.01350
3568.21811,0.01374
3566.15793,0.01378
3564.09776,0.01373
3562.03759,0.01396
3559.97742,0.01452
3557.91725,0.01501
3555.85707,0.01539
3553.79690,0.01594
3551.73673,0.01658
3549.67656,0.01707
3547.61639,0.01729
3545.55621,0.01721
3543.49604,0.01719
3541.43587,0.01759
3539.37570,0.01819
3537.31552,0.01859
3535.25535,0.01875
3533.19518,0.01881
3531.13501,0.01885
3529.07484,0.01903
3527.01466,0.01950
3524.95449,0.02000
3522.89432,0.02030
3520.83415,0.02057
3518.77398,0.02078
3516.71380,0.02083
3514.65363,0.02102
3512.59346,0.02145
3510.53329,0.02179
3508.47312,0.02196
3506.41294,0.02227
3504.35277,0.02274
3502.29260,0.02313
3500.23243,0.02339
3498.17225,0.02351
3496.11208,0.02362
3494.05191,0.02370
3491.99174,0.02361
3489.93157,0.02362
3487.87139,0.02407
3485.81122,0.02486
3483.75105,0.02558
3481.69088,0.02593
3479.63071,0.02596
3477.57053,0.02585
3475.51036,0.02597
3473.45019,0.02635
3471.39002,0.02661
3469.32984,0.02659
3467.26967,0.02658
3465.20950,0.02690
3463.14933,0.02740
3461.08916,0.02760
3459.02898,0.02747
3456.96881,0.02747
3454.90864,0.02775
3452.84847,0.02814
3450.78830,0.02855
3448.72812,0.02880
3446.66795,0.02885
3444.60778,0.02881
3442.54761,0.02889
3440.48744,0.02920
3438.42726,0.02937
3436.36709,0.02946
3434.30692,0.03001
3432.24675,0.03055
3430.18657,0.03051
3428.12640,0.03038
3426.06623,0.03049
3424.00606,0.03063
3421.94589,0.03076
3419.88571,0.03090
3417.82554,0.03095
3415.76537,0.03100
3413.70520,0.03117
3411.64503,0.03150
3409.58485,0.03171
3407.52468,0.03177
3405.46451,0.03197
3403.40434,0.03218
3401.34416,0.03228
3399.28399,0.03251
3397.22382,0.03276
3395.16365,0.03309
3393.10348,0.03321
3391.04330,0.03288
3388.98313,0.03267
3386.92296,0.03308
3384.86279,0.03364
3382.80262,0.03384
3380.74244,0.03391
3378.68227,0.03412
3376.62210,0.03438
3374.56193,0.03447
3372.50176,0.03440
3370.44158,0.03451
3368.38141,0.03480
3366.32124,0.03486
3364.26107,0.03469
3362.20089,0.03465
3360.14072,0.03476
3358.08055,0.03483
3356.02038,0.03492
3353.96021,0.03506
3351.90003,0.03520
3349.83986,0.03543
3347.77969,0.03576
3345.71952,0.03586
3343.65935,0.03565
3341.59917,0.03545
3339.53900,0.03544
3337.47883,0.03545
3335.41866,0.03536
3333.35849,0.03560
3331.29831,0.03618
3329.23814,0.03646
3327.17797,0.03634
3325.11780,0.03609
3323.05762,0.03585
3320.99745,0.03574
3318.93728,0.03574
3316.87711,0.03579
3314.81694,0.03584
3312.75676,0.03593
3310.69659,0.03613
3308.63642,0.03623
3306.57625,0.03626
3304.51608,0.03635
3302.45590,0.03634
3300.39573,0.03622
3298.33556,0.03627
3296.27539,0.03668
3294.21521,0.03709
3292.15504,0.03695
3290.09487,0.03665
3288.03470,0.03689
3285.97453,0.03724
3283.91435,0.03716
3281.85418,0.03686
3279.79401,0.03672
3277.73384,0.03688
3275.67367,0.03699
3273.61349,0.03691
3271.55332,0.03699
3269.49315,0.03711
3267.43298,0.03693
3265.37281,0.03666
3263.31263,0.03668
3261.25246,0.03697
3259.19229,0.03725
3257.13212,0.03728
3255.07194,0.03708
3253.01177,0.03697
3250.95160,0.03718
3248.89143,0.03740
3246.83126,0.03723
3244.77108,0.03694
3242.71091,0.03701
3240.65074,0.03733
3238.59057,0.03745
3236.53040,0.03731
3234.47022,0.03741
3232.41005,0.03760
3230.34988,0.03738
3228.28971,0.03708
3226.22954,0.03682
3224.16936,0.03649
3222.10919,0.03654
3220.04902,0.03701
3217.98885,0.03735
3215.92867,0.03752
3213.86850,0.03774
3211.80833,0.03770
3209.74816,0.03720
3207.68799,0.03674
3205.62781,0.03661
3203.56764,0.03654
3201.50747,0.03654
3199.44730,0.03674
3197.38713,0.03681
3195.32695,0.03656
3193.26678,0.03629
3191.20661,0.03639
3189.14644,0.03672
3187.08626,0.03686
3185.02609,0.03662
3182.96592,0.03624
3180.90575,0.03604
3178.84558,0.03593
3176.78540,0.03573
3174.72523,0.03562
3172.66506,0.03575
3170.60489,0.03595
3168.54472,0.03590
3166.48454,0.03559
3164.42437,0.03540
3162.36420,0.03545
3160.30403,0.03552
3158.24386,0.03565
3156.18368,0.03579
3154.12351,0.03565
3152.06334,0.03520
3150.00317,0.03461
3147.94299,0.03426
3145.88282,0.03442
3143.82265,0.03467
3141.76248,0.03453
3139.70231,0.03417
3137.64213,0.03387
3135.58196,0.03360
3133.52179,0.03344
3131.46162,0.03357
3129.40145,0.03373
3127.34127,0.03369
3125.28110,0.03357
3123.22093,0.03342
3121.16076,0.03316
3119.10058,0.03296
3117.04041,0.03303
3114.98024,0.03331
3112.92007,0.03343
3110.85990,0.03326
3108.79972,0.03294
3106.73955,0.03264
3104.67938,0.03229
3102.61921,0.03194
3100.55904,0.03184
3098.49886,0.03187
3096.43869,0.03176
3094.37852,0.03153
3092.31835,0.03131
3090.25818,0.03115
3088.19800,0.03106
3086.13783,0.03083
3084.07766,0.03043
3082.01749,0.03019
3079.95731,0.03016
3077.89714,0.03016
3075.83697,0.03001
3073.77680,0.02984
3071.71663,0.03000
3069.65645,0.03018
3067.59628,0.03005
3065.53611,0.02969
3063.47594,0.02936
3061.41577,0.02919
3059.35559,0.02890
3057.29542,0.02848
3055.23525,0.02832
3053.17508,0.02847
3051.11491,0.02863
3049.05473,0.02850
3046.99456,0.02825
3044.93439,0.02808
3042.87422,0.02793
3040.81404,0.02784
3038.75387,0.02783
3036.69370,0.02768
3034.63353,0.02737
3032.57336,0.02699
3030.51318,0.02671
3028.45301,0.02655
3026.39284,0.02647
3024.33267,0.02646
3022.27250,0.02637
3020.21232,0.02613
3018.15215,0.02584
3016.09198,0.02556
3014.03181,0.02534
3011.97163,0.02524
3009.91146,0.02517
3007.85129,0.02513
3005.79112,0.02512
3003.73095,0.02504
3001.67077,0.02473
2999.61060,0.02438
2997.55043,0.02428
2995.49026,0.02419
2993.43009,0.02396
2991.36991,0.02384
2989.30974,0.02381
2987.24957,0.02369
2985.18940,0.02363
2983.12923,0.02364
2981.06905,0.02349
2979.00888,0.02316
2976.94871,0.02297
2974.88854,0.02296
2972.82836,0.02293
2970.76819,0.02288
2968.70802,0.02278
2966.64785,0.02262
2964.58768,0.02247
2962.52750,0.02234
2960.46733,0.02217
2958.40716,0.02218
2956.34699,0.02247
2954.28682,0.02258
2952.22664,0.02238
2950.16647,0.02215
2948.10630,0.02219
2946.04613,0.02233
2943.98596,0.02223
2941.92578,0.02217
2939.86561,0.02232
2937.80544,0.02234
2935.74527,0.02224
2933.68509,0.02211
2931.62492,0.02188
2929.56475,0.02163
2927.50458,0.02143
2925.44441,0.02127
2923.38423,0.02100
2921.32406,0.02071
2919.26389,0.02076
2917.20372,0.02098
2915.14355,0.02102
2913.08337,0.02094
2911.02320,0.02083
2908.96303,0.02070
2906.90286,0.02056
2904.84268,0.02054
2902.78251,0.02064
2900.72234,0.02068
2898.66217,0.02056
2896.60200,0.02032
2894.54182,0.02002
2892.48165,0.01966
2890.42148,0.01957
2888.36131,0.01980
2886.30114,0.02002
2884.24096,0.02011
2882.18079,0.02014
2880.12062,0.02007
2878.06045,0.01990
2876.00028,0.01968
2873.94010,0.01937
2871.87993,0.01916
2869.81976,0.01921
2867.75959,0.01926
2865.69941,0.01923
2863.63924,0.01918
2861.57907,0.01907
2859.51890,0.01900
2857.45873,0.01887
2855.39855,0.01848
2853.33838,0.01818
2851.27821,0.01825
2849.21804,0.01831
2847.15787,0.01815
2845.09769,0.01792
2843.03752,0.01783
2840.97735,0.01789
2838.91718,0.01779
2836.85700,0.01756
2834.79683,0.01749
2832.73666,0.01749
2830.67649,0.01740
2828.61632,0.01733
2826.55614,0.01728
2824.49597,0.01710
2822.43580,0.01697
2820.37563,0.01696
2818.31546,0.01699
2816.25528,0.01692
2814.19511,0.01679
2812.13494,0.01676
2810.07477,0.01670
2808.01460,0.01649
2805.95442,0.01648
2803.89425,0.01664
2801.83408,0.01661
2799.77391,0.01644
2797.71373,0.01636
2795.65356,0.01632
2793.59339,0.01623
2791.53322,0.01605
2789.47305,0.01597
2787.41287,0.01606
2785.35270,0.01611
2783.29253,0.01600
2781.23236,0.01578
2779.17219,0.01555
2777.11201,0.01547
2775.05184,0.01561
2772.99167,0.01574
2770.93150,0.01566
2768.87133,0.01544
2766.81115,0.01529
2764.75098,0.01521
2762.69081,0.01506
2760.63064,0.01489
2758.57046,0.01482
2756.51029,0.01477
2754.45012,0.01461
2752.38995,0.01442
2750.32978,0.01433
2748.26960,0.01436
2746.20943,0.01453
2744.14926,0.01465
2742.08909,0.01453
2740.02892,0.01434
2737.96874,0.01420
2735.90857,0.01399
2733.84840,0.01387
2731.78823,0.01390
2729.72805,0.01386
2727.66788,0.01378
2725.60771,0.01371
2723.54754,0.01363
2721.48737,0.01352
2719.42719,0.01336
2717.36702,0.01327
2715.30685,0.01324
2713.24668,0.01313
2711.18651,0.01291
2709.12633,0.01269
2707.06616,0.01256
2705.00599,0.01254
2702.94582,0.01263
2700.88565,0.01267
2698.82547,0.01263
2696.76530,0.01261
2694.70513,0.01258
2692.64496,0.01246
2690.58478,0.01223
2688.52461,0.01192
2686.46444,0.01175
2684.40427,0.01158
2682.34410,0.01141
2680.28392,0.01151
2678.22375,0.01165
2676.16358,0.01151
2674.10341,0.01140
2672.04324,0.01142
2669.98306,0.01139
2667.92289,0.01127
2665.86272,0.01116
2663.80255,0.01113
2661.74238,0.01108
2659.68220,0.01104
2657.62203,0.01108
2655.56186,0.01112
2653.50169,0.01116
2651.44151,0.01114
2649.38134,0.01106
2647.32117,0.01102
2645.26100,0.01090
2643.20083,0.01060
2641.14065,0.01032
2639.08048,0.01017
2637.02031,0.01014
2634.96014,0.01010
2632.89997,0.01001
2630.83979,0.01000
2628.77962,0.01003
2626.71945,0.01000
2624.65928,0.00974
2622.59910,0.00928
2620.53893,0.00902
2618.47876,0.00902
2616.41859,0.00907
2614.35842,0.00903
2612.29824,0.00906
2610.23807,0.00915
2608.17790,0.00907
2606.11773,0.00895
2604.05756,0.00891
2601.99738,0.00879
2599.93721,0.00871
2597.87704,0.00883
2595.81687,0.00894
2593.75670,0.00885
2591.69652,0.00857
2589.63635,0.00843
2587.57618,0.00874
2585.51601,0.00912
2583.45583,0.00909
2581.39566,0.00895
2579.33549,0.00900
2577.27532,0.00883
2575.21515,0.00846
2573.15497,0.00842
2571.09480,0.00853
2569.03463,0.00856
2566.97446,0.00858
2564.91429,0.00857
2562.85411,0.00856
2560.79394,0.00844
2558.73377,0.00817
2556.67360,0.00806
2554.61342,0.00805
2552.55325,0.00779
2550.49308,0.00762
2548.43291,0.00788
2546.37274,0.00837
2544.31256,0.00865
2542.25239,0.00842
2540.19222,0.00800
2538.13205,0.00799
2536.07188,0.00826
2534.01170,0.00825
2531.95153,0.00808
2529.89136,0.00799
2527.83119,0.00796
2525.77102,0.00781
2523.71084,0.00741
2521.65067,0.00725
2519.59050,0.00755
2517.53033,0.00803
2515.47015,0.00845
2513.40998,0.00851
2511.34981,0.00818
2509.28964,0.00789
2507.22947,0.00783
2505.16929,0.00799
2503.10912,0.00824
2501.04895,0.00849
2498.98878,0.00879
2496.92861,0.00905
2494.86843,0.00891
2492.80826,0.00842
2490.74809,0.00812
2488.68792,0.00812
2486.62775,0.00804
2484.56757,0.00790
2482.50740,0.00803
2480.44723,0.00839
2478.38706,0.00864
2476.32688,0.00869
2474.26671,0.00874
2472.20654,0.00891
2470.14637,0.00902
2468.08620,0.00890
2466.02602,0.00874
2463.96585,0.00867
2461.90568,0.00868
2459.84551,0.00862
2457.78534,0.00864
2455.72516,0.00885
2453.66499,0.00897
2451.60482,0.00880
2449.54465,0.00856
2447.48447,0.00857
2445.42430,0.00884
2443.36413,0.00907
2441.30396,0.00915
2439.24379,0.00917
2437.18361,0.00939
2435.12344,0.00959
2433.06327,0.00937
2431.00310,0.00907
2428.94293,0.00895
2426.88275,0.00884
2424.82258,0.00889
2422.76241,0.00918
2420.70224,0.00940
2418.64207,0.00938
2416.58189,0.00905
2414.52172,0.00859
2412.46155,0.00851
2410.40138,0.00880
2408.34120,0.00907
2406.28103,0.00923
2404.22086,0.00927
2402.16069,0.00928
2400.10052,0.00943
2398.04034,0.00935
2395.98017,0.00931
2393.92000,0.00936
2391.85983,0.00920
2389.79966,0.00876
2387.73948,0.00853
2385.67931,0.00857
2383.61914,0.00863
2381.55897,0.00868
2379.49880,0.00885
2377.43862,0.00915
2375.37845,0.00981
2373.31828,0.01033
2371.25811,0.01068
2369.19793,0.01147
2367.13776,0.01222
2365.07759,0.01268
2363.01742,0.01364
2360.95725,0.01178
2358.89707,0.01047
2356.83690,0.01026
2354.77673,0.01065
2352.71656,0.01084
2350.65639,0.00773
2348.59621,0.00598
2346.53604,0.01089
2344.47587,0.01220
2342.41570,0.01171
2340.35552,0.01068
2338.29535,0.00933
2336.23518,0.00918
2334.17501,0.00906
2332.11484,0.00879
2330.05466,0.00866
2327.99449,0.00978
2325.93432,0.01003
2323.87415,0.01051
2321.81398,0.01073
2319.75380,0.01081
2317.69363,0.00956
2315.63346,0.00916
2313.57329,0.00963
2311.51312,0.00990
2309.45294,0.00972
2307.39277,0.00903
2305.33260,0.00833
2303.27243,0.00811
2301.21225,0.00843
2299.15208,0.00866
2297.09191,0.00903
2295.03174,0.00954
2292.97157,0.00963
2290.91139,0.00939
2288.85122,0.00928
2286.79105,0.00936
2284.73088,0.00940
2282.67071,0.00920
2280.61053,0.00879
2278.55036,0.00815
2276.49019,0.00753
2274.43002,0.00731
2272.36984,0.00732
2270.30967,0.00725
2268.24950,0.00758
2266.18933,0.00856
2264.12916,0.00916
2262.06898,0.00864
2260.00881,0.00759
2257.94864,0.00668
2255.88847,0.00647
2253.82830,0.00715
2251.76812,0.00816
2249.70795,0.00846
2247.64778,0.00792
2245.58761,0.00772
2243.52744,0.00783
2241.46726,0.00739
2239.40709,0.00660
2237.34692,0.00611
2235.28675,0.00608
2233.22657,0.00625
2231.16640,0.00629
2229.10623,0.00574
2227.04606,0.00509
2224.98589,0.00504
2222.92571,0.00540
2220.86554,0.00613
2218.80537,0.00681
2216.74520,0.00688
2214.68503,0.00660
2212.62485,0.00654
2210.56468,0.00684
2208.50451,0.00682
2206.44434,0.00608
2204.38417,0.00564
2202.32399,0.00609
2200.26382,0.00702
2198.20365,0.00782
2196.14348,0.00749
2194.08330,0.00636
2192.02313,0.00575
2189.96296,0.00589
2187.90279,0.00641
2185.84262,0.00698
2183.78244,0.00669
2181.72227,0.00590
2179.66210,0.00541
2177.60193,0.00433
2175.54176,0.00325
2173.48158,0.00347
2171.42141,0.00408
2169.36124,0.00387
2167.30107,0.00374
2165.24089,0.00502
2163.18072,0.00632
2161.12055,0.00485
2159.06038,0.00252
2157.00021,0.00246
2154.94003,0.00306
2152.87986,0.00350
2150.81969,0.00439
2148.75952,0.00529
2146.69935,0.00520
2144.63917,0.00405
2142.57900,0.00329
2140.51883,0.00320
2138.45866,0.00276
2136.39849,0.00254
2134.33831,0.00295
2132.27814,0.00321
2130.21797,0.00374
2128.15780,0.00429
2126.09762,0.00408
2124.03745,0.00383
2121.97728,0.00413
2119.91711,0.00478
2117.85694,0.00538
2115.79676,0.00550
2113.73659,0.00527
2111.67642,0.00486
2109.61625,0.00419
2107.55608,0.00376
2105.49590,0.00426
2103.43573,0.00508
2101.37556,0.00537
2099.31539,0.00535
2097.25521,0.00501
2095.19504,0.00433
2093.13487,0.00401
2091.07470,0.00466
2089.01453,0.00565
2086.95435,0.00597
2084.89418,0.00587
2082.83401,0.00556
2080.77384,0.00486
2078.71367,0.00430
2076.65349,0.00408
2074.59332,0.00407
2072.53315,0.00463
2070.47298,0.00534
2068.41281,0.00526
2066.35263,0.00453
2064.29246,0.00416
2062.23229,0.00428
2060.17212,0.00404
2058.11194,0.00363
2056.05177,0.00398
2053.99160,0.00461
2051.93143,0.00416
2049.87126,0.00287
2047.81108,0.00249
2045.75091,0.00351
2043.69074,0.00451
2041.63057,0.00437
2039.57040,0.00374
2037.51022,0.00348
2035.45005,0.00354
2033.38988,0.00338
2031.32971,0.00321
2029.26954,0.00341
2027.20936,0.00330
2025.14919,0.00339
2023.08902,0.00461
2021.02885,0.00575
2018.96867,0.00534
2016.90850,0.00381
2014.84833,0.00232
2012.78816,0.00100
2010.72799,0.00000
2008.66781,0.00004
2006.60764,0.00067
2004.54747,0.00111
2002.48730,0.00141
2000.42713,0.00170
1998.36695,0.00223
1996.30678,0.00278
1994.24661,0.00297
1992.18644,0.00347
1990.12626,0.00445
1988.06609,0.00484
1986.00592,0.00491
1983.94575,0.00524
1981.88558,0.00496
1979.82540,0.00338
1977.76523,0.00181
1975.70506,0.00191
1973.64489,0.00301
1971.58472,0.00357
1969.52454,0.00327
1967.46437,0.00295
1965.40420,0.00298
1963.34403,0.00312
1961.28386,0.00270
1959.22368,0.00137
1957.16351,0.00023
1955.10334,0.00045
1953.04317,0.00211
1950.98299,0.00392
1948.92282,0.00393
1946.86265,0.00221
1944.80248,0.00089
1942.74231,0.00122
1940.68213,0.00213
1938.62196,0.00189
1936.56179,0.00101
1934.50162,0.00103
1932.44145,0.00194
1930.38127,0.00258
1928.32110,0.00250
1926.26093,0.00232
1924.20076,0.00231
1922.14059,0.00221
1920.08041,0.00221
1918.02024,0.00264
1915.96007,0.00308
1913.89990,0.00269
1911.83972,0.00189
1909.77955,0.00192
1907.71938,0.00271
1905.65921,0.00324
1903.59904,0.00310
1901.53886,0.00244
1899.47869,0.00189
1897.41852,0.00189
1895.35835,0.00208
1893.29818,0.00218
1891.23800,0.00230
1889.17783,0.00256
1887.11766,0.00274
1885.05749,0.00261
1882.99731,0.00248
1880.93714,0.00257
1878.87697,0.00261
1876.81680,0.00248
1874.75663,0.00238
1872.69645,0.00238
1870.63628,0.00216
1868.57611,0.00182
1866.51594,0.00195
1864.45577,0.00225
1862.39559,0.00225
1860.33542,0.00219
1858.27525,0.00219
1856.21508,0.00220
1854.15491,0.00234
1852.09473,0.00266
1850.03456,0.00302
1847.97439,0.00305
1845.91422,0.00261
1843.85404,0.00214
1841.79387,0.00206
1839.73370,0.00226
1837.67353,0.00250
1835.61336,0.00268
1833.55318,0.00278
1831.49301,0.00273
1829.43284,0.00252
1827.37267,0.00232
1825.31250,0.00234
1823.25232,0.00256
1821.19215,0.00273
1819.13198,0.00263
1817.07181,0.00238
1815.01163,0.00223
1812.95146,0.00225
1810.89129,0.00240
1808.83112,0.00266
1806.77095,0.00283
1804.71077,0.00287
1802.65060,0.00298
1800.59043,0.00311
1798.53026,0.00311
1796.47009,0.00313
1794.40991,0.00316
1792.34974,0.00301
1790.28957,0.00293
1788.22940,0.00308
1786.16923,0.00321
1784.10905,0.00326
1782.04888,0.00329
1779.98871,0.00329
1777.92854,0.00323
1775.86836,0.00315
1773.80819,0.00321
1771.74802,0.00344
1769.68785,0.00355
1767.62768,0.00345
1765.56750,0.00342
1763.50733,0.00353
1761.44716,0.00362
1759.38699,0.00368
1757.32682,0.00389
1755.26664,0.00424
1753.20647,0.00443
1751.14630,0.00430
1749.08613,0.00417
1747.02596,0.00431
1744.96578,0.00450
1742.90561,0.00454
1740.84544,0.00450
1738.78527,0.00461
1736.72509,0.00483
1734.66492,0.00496
1732.60475,0.00497
1730.54458,0.00501
1728.48441,0.00523
1726.42423,0.00558
1724.36406,0.00590
1722.30389,0.00614
1720.24372,0.00631
1718.18355,0.00630
1716.12337,0.00612
1714.06320,0.00617
1712.00303,0.00656
1709.94286,0.00694
1707.88268,0.00704
1705.82251,0.00702
1703.76234,0.00717
1701.70217,0.00752
1699.64200,0.00790
1697.58182,0.00813
1695.52165,0.00823
1693.46148,0.00849
1691.40131,0.00897
1689.34114,0.00945
1687.28096,0.00972
1685.22079,0.00969
1683.16062,0.00967
1681.10045,0.01015
1679.04028,0.01080
1676.98010,0.01127
1674.91993,0.01159
1672.85976,0.01190
1670.79959,0.01204
1668.73941,0.01208
1666.67924,0.01235
1664.61907,0.01283
1662.55890,0.01320
1660.49873,0.01341
1658.43855,0.01365
1656.37838,0.01391
1654.31821,0.01386
1652.25804,0.01343
1650.19787,0.01326
1648.13769,0.01334
1646.07752,0.01340
1644.01735,0.01361
1641.95718,0.01395
1639.89701,0.01416
1637.83683,0.01396
1635.77666,0.01329
1633.71649,0.01276
1631.65632,0.01276
1629.59614,0.01284
1627.53597,0.01271
1625.47580,0.01245
1623.41563,0.01221
1621.35546,0.01224
1619.29528,0.01232
1617.23511,0.01204
1615.17494,0.01177
1613.11477,0.01190
1611.05460,0.01205
1608.99442,0.01199
1606.93425,0.01176
1604.87408,0.01143
1602.81391,0.01104
1600.75373,0.01079
1598.69356,0.01064
1596.63339,0.01036
1594.57322,0.00989
1592.51305,0.00941
1590.45287,0.00902
1588.39270,0.00870
1586.33253,0.00844
1584.27236,0.00828
1582.21219,0.00819
1580.15201,0.00808
1578.09184,0.00773
1576.03167,0.00721
1573.97150,0.00697
1571.91133,0.00693
1569.85115,0.00659
1567.79098,0.00607
1565.73081,0.00585
1563.67064,0.00590
1561.61046,0.00591
1559.55029,0.00558
1557.49012,0.00500
1555.42995,0.00459
1553.36978,0.00436
1551.30960,0.00427
1549.24943,0.00438
1547.18926,0.00453
1545.12909,0.00433
1543.06892,0.00370
1541.00874,0.00306
1538.94857,0.00288
1536.88840,0.00301
1534.82823,0.00301
1532.76805,0.00280
1530.70788,0.00270
1528.64771,0.00267
1526.58754,0.00256
1524.52737,0.00241
1522.46719,0.00239
1520.40702,0.00255
1518.34685,0.00260
1516.28668,0.00243
1514.22651,0.00238
1512.16633,0.00248
1510.10616,0.00228
1508.04599,0.00167
1505.98582,0.00136
1503.92565,0.00162
1501.86547,0.00195
1499.80530,0.00207
1497.74513,0.00193
1495.68496,0.00174
1493.62478,0.00171
1491.56461,0.00168
1489.50444,0.00160
1487.44427,0.00164
1485.38410,0.00180
1483.32392,0.00197
1481.26375,0.00200
1479.20358,0.00188
1477.14341,0.00178
1475.08324,0.00178
1473.02306,0.00183
1470.96289,0.00198
1468.90272,0.00221
1466.84255,0.00234
1464.78238,0.00229
1462.72220,0.00229
1460.66203,0.00236
1458.60186,0.00234
1456.54169,0.00234
1454.48151,0.00259
1452.42134,0.00287
1450.36117,0.00297
1448.30100,0.00284
1446.24083,0.00265
1444.18065,0.00255
1442.12048,0.00252
1440.06031,0.00249
1438.00014,0.00235
1435.93997,0.00211
1433.87979,0.00210
1431.81962,0.00237
1429.75945,0.00266
1427.69928,0.00278
1425.63910,0.00277
1423.57893,0.00280
1421.51876,0.00286
1419.45859,0.00276
1417.39842,0.00273
1415.33824,0.00302
1413.27807,0.00333
1411.21790,0.00342
1409.15773,0.00337
1407.09756,0.00320
1405.03738,0.00294
1402.97721,0.00278
1400.91704,0.00275
1398.85687,0.00272
1396.79670,0.00268
1394.73652,0.00259
1392.67635,0.00243
1390.61618,0.00234
1388.55601,0.00247
1386.49583,0.00275
1384.43566,0.00299
1382.37549,0.00304
1380.31532,0.00293
1378.25515,0.00279
1376.19497,0.00271
1374.13480,0.00265
1372.07463,0.00262
1370.01446,0.00263
1367.95429,0.00260
1365.89411,0.00250
1363.83394,0.00234
1361.77377,0.00216
1359.71360,0.00207
1357.65343,0.00204
1355.59325,0.00203
1353.53308,0.00202
1351.47291,0.00197
1349.41274,0.00193
1347.35256,0.00187
1345.29239,0.00176
1343.23222,0.00162
1341.17205,0.00156
1339.11188,0.00159
1337.05170,0.00175
1334.99153,0.00195
1332.93136,0.00204
1330.87119,0.00201
1328.81102,0.00190
1326.75084,0.00176
1324.69067,0.00180
1322.63050,0.00196
1320.57033,0.00198
1318.51015,0.00183
1316.44998,0.00174
1314.38981,0.00175
1312.32964,0.00171
1310.26947,0.00167
1308.20929,0.00178
1306.14912,0.00186
1304.08895,0.00182
1302.02878,0.00182
1299.96861,0.00191
1297.90843,0.00194
1295.84826,0.00190
1293.78809,0.00196
1291.72792,0.00205
1289.66775,0.00209
1287.60757,0.00213
1285.54740,0.00228
1283.48723,0.00239
1281.42706,0.00231
1279.36688,0.00223
1277.30671,0.00232
1275.24654,0.00246
1273.18637,0.00247
1271.12620,0.00234
1269.06602,0.00234
1267.00585,0.00251
1264.94568,0.00253
1262.88551,0.00233
1260.82534,0.00231
1258.76516,0.00255
1256.70499,0.00266
1254.64482,0.00246
1252.58465,0.00229
1250.52447,0.00226
1248.46430,0.00219
1246.40413,0.00206
1244.34396,0.00188
1242.28379,0.00165
1240.22361,0.00158
1238.16344,0.00164
1236.10327,0.00157
1234.04310,0.00144
1231.98293,0.00142
1229.92275,0.00141
1227.86258,0.00126
1225.80241,0.00107
1223.74224,0.00089
1221.68207,0.00062
1219.62189,0.00045
1217.56172,0.00047
1215.50155,0.00042
1213.44138,0.00027
1211.38120,0.00017
1209.32103,0.00008
1207.26086,0.00000
1205.20069,-0.00002
1203.14052,0.00002
1201.08034,0.00010
1199.02017,0.00015
1196.96000,0.00014
1194.89983,0.00013
1192.83966,0.00021
1190.77948,0.00047
1188.71931,0.00084
1186.65914,0.00131
1184.59897,0.00186
1182.53880,0.00239
1180.47862,0.00289
1178.41845,0.00330
1176.35828,0.00361
1174.29811,0.00411
1172.23793,0.00483
1170.17776,0.00553
1168.11759,0.00601
1166.05742,0.00634
1163.99725,0.00677
1161.93707,0.00741
1159.87690,0.00810
1157.81673,0.00863
1155.75656,0.00910
1153.69639,0.00967
1151.63621,0.01035
1149.57604,0.01101
1147.51587,0.01170
1145.45570,0.01248
1143.39552,0.01330
1141.33535,0.01399
1139.27518,0.01459
1137.21501,0.01529
1135.15484,0.01606
1133.09466,0.01681
1131.03449,0.01762
1128.97432,0.01852
1126.91415,0.01938
1124.85398,0.02017
1122.79380,0.02101
1120.73363,0.02188
1118.67346,0.02271
1116.61329,0.02346
1114.55312,0.02421
1112.49294,0.02515
1110.43277,0.02626
1108.37260,0.02740
1106.31243,0.02855
1104.25225,0.02967
1102.19208,0.03075
1100.13191,0.03191
1098.07174,0.03327
1096.01157,0.03461
1093.95139,0.03565
1091.89122,0.03647
1089.83105,0.03737
1087.77088,0.03826
1085.71071,0.03906
1083.65053,0.03998
1081.59036,0.04105
1079.53019,0.04208
1077.47002,0.04301
1075.40985,0.04367
1073.34967,0.04407
1071.28950,0.04450
1069.22933,0.04497
1067.16916,0.04534
1065.10898,0.04558
1063.04881,0.04557
1060.98864,0.04542
1058.92847,0.04548
1056.86830,0.04549
1054.80812,0.04500
1052.74795,0.04419
1050.68778,0.04357
1048.62761,0.04316
1046.56744,0.04266
1044.50726,0.04202
1042.44709,0.04119
1040.38692,0.04019
1038.32675,0.03916
1036.26657,0.03820
1034.20640,0.03728
1032.14623,0.03633
1030.08606,0.03540
1028.02589,0.03439
1025.96571,0.03328
1023.90554,0.03230
1021.84537,0.03155
1019.78520,0.03090
1017.72503,0.03021
1015.66485,0.02936
1013.60468,0.02854
1011.54451,0.02798
1009.48434,0.02758
1007.42417,0.02733
1005.36399,0.02716
1003.30382,0.02698
1001.24365,0.02699
999.18348,0.02730
997.12330,0.02779
995.06313,0.02853
993.00296,0.02950
990.94279,0.03020
988.88262,0.03052
986.82244,0.03095
984.76227,0.03159
982.70210,0.03209
980.64193,0.03210
978.58176,0.03139
976.52158,0.03016
974.46141,0.02917
972.40124,0.02860
970.34107,0.02767
968.28089,0.02624
966.22072,0.02490
964.16055,0.02385
962.10038,0.02286
960.04021,0.02177
957.98003,0.02071
955.91986,0.01983
953.85969,0.01918
951.79952,0.01867
949.73935,0.01807
947.67917,0.01749
945.61900,0.01708
943.55883,0.01677
941.49866,0.01669
939.43849,0.01685
937.37831,0.01674
935.31814,0.01647
933.25797,0.01662
931.19780,0.01670
929.13762,0.01637
927.07745,0.01628
925.01728,0.01640
922.95711,0.01614
920.89694,0.01551
918.83676,0.01478
916.77659,0.01416
914.71642,0.01367
912.65625,0.01323
910.59608,0.01283
908.53590,0.01254
906.47573,0.01240
904.41556,0.01242
902.35539,0.01244
900.29522,0.01223
898.23504,0.01174
896.17487,0.01143
894.11470,0.01170
892.05453,0.01220
889.99435,0.01250
887.93418,0.01266
885.87401,0.01305
883.81384,0.01351
881.75367,0.01354
879.69349,0.01350
877.63332,0.01397
875.57315,0.01453
873.51298,0.01469
871.45281,0.01492
869.39263,0.01545
867.33246,0.01588
865.27229,0.01616
863.21212,0.01622
861.15194,0.01586
859.09177,0.01543
857.03160,0.01536
854.97143,0.01543
852.91126,0.01512
850.85108,0.01459
848.79091,0.01418
846.73074,0.01364
844.67057,0.01293
842.61040,0.01245
840.55022,0.01227
838.49005,0.01230
836.42988,0.01250
834.36971,0.01252
832.30954,0.01204
830.24936,0.01121
828.18919,0.01012
826.12902,0.00904
824.06885,0.00877
822.00867,0.00926
819.94850,0.00947
817.88833,0.00921
815.82816,0.00878
813.76799,0.00820
811.70781,0.00758
809.64764,0.00704
807.58747,0.00644
805.52730,0.00591
803.46713,0.00607
801.40695,0.00667
799.34678,0.00667
797.28661,0.00595
795.22644,0.00548
793.16627,0.00557
791.10609,0.00580
789.04592,0.00604
786.98575,0.00615
784.92558,0.00595
782.86540,0.00563
780.80523,0.00548
778.74506,0.00534
776.68489,0.00546
774.62472,0.00592
772.56454,0.00601
770.50437,0.00566
768.44420,0.00538
766.38403,0.00520
764.32386,0.00503
762.26368,0.00491
760.20351,0.00478
758.14334,0.00458
756.08317,0.00461
754.02299,0.00501
751.96282,0.00517
749.90265,0.00446
747.84248,0.00311
745.78231,0.00237
743.72213,0.00278
741.66196,0.00341
739.60179,0.00366
737.54162,0.00366
735.48145,0.00386
733.42127,0.00414
731.36110,0.00377
729.30093,0.00287
727.24076,0.00210
725.18059,0.00207
723.12041,0.00292
721.06024,0.00439
719.00007,0.00426
716.93990,0.00344
714.87972,0.00307
712.81955,0.00311
710.75938,0.00333
708.69921,0.00344
706.63904,0.00342
704.57886,0.00327
702.51869,0.00305
700.45852,0.00290
698.39835,0.00302
696.33818,0.00335
694.27800,0.00330
692.21783,0.00272
690.15766,0.00242
688.09749,0.00287
686.03731,0.00356
683.97714,0.00379
681.91697,0.00358
679.85680,0.00337
677.79663,0.00316
675.73645,0.00281
673.67628,0.00166
671.61611,0.00000
669.55594,0.00499
667.49577,0.00972
665.43559,0.00033
663.37542,0.00084
661.31525,0.00231
659.25508,0.00145
657.19491,0.00052
655.13473,0.00014
653.07456,0.00003
651.01439,0.00069
648.95422,0.00168
646.89404,0.00128
644.83387,0.00051
642.77370,0.00000
640.71353,-0.00028
638.65336,-0.00008
636.59318,0.00065
634.53301,0.00105
632.47284,0.00053
630.41267,0.00002
628.35250,0.00065
626.29232,0.00119
624.23215,-0.00002
622.17198,-0.00108
620.11181,-0.00056
618.05164,0.00038
615.99146,-0.00035
613.93129,-0.00224
611.87112,-0.00320
609.81095,-0.00284
607.75077,-0.00194
605.69060,-0.00174
603.63043,-0.00171
601.57026,-0.00055
599.51009,0.00000
