3996.73391,0.00085
3994.67373,0.00060
3992.61356,0.00045
3990.55339,0.00043
3988.49322,0.00036
3986.43305,0.00033
3984.37287,0.00047
3982.31270,0.00074
3980.25253,0.00094
3978.19236,0.00088
3976.13219,0.00065
3974.07201,0.00047
3972.01184,0.00042
3969.95167,0.00040
3967.89150,0.00021
3965.83133,0.00000
3963.77115,0.00018
3961.71098,0.00059
3959.65081,0.00077
3957.59064,0.00072
3955.53046,0.00068
3953.47029,0.00068
3951.41012,0.00074
3949.34995,0.00084
3947.28978,0.00094
3945.22960,0.00104
3943.16943,0.00112
3941.10926,0.00116
3939.04909,0.00116
3936.98892,0.00092
3934.92874,0.00059
3932.86857,0.00063
3930.80840,0.00101
3928.74823,0.00119
3926.68805,0.00110
3924.62788,0.00111
3922.56771,0.00112
3920.50754,0.00094
3918.44737,0.00092
3916.38719,0.00106
3914.32702,0.00105
3912.26685,0.00094
3910.20668,0.00077
3908.14651,0.00061
3906.08633,0.00055
3904.02616,0.00080
3901.96599,0.00142
3899.90582,0.00193
3897.84565,0.00188
3895.78547,0.00143
3893.72530,0.00111
3891.66513,0.00113
3889.60496,0.00124
3887.54478,0.00122
3885.48461,0.00116
3883.42444,0.00083
3881.36427,0.00019
3879.30410,0.00000
3877.24392,0.00043
3875.18375,0.00083
3873.12358,0.00084
3871.06341,0.00075
3869.00324,0.00104
3866.94306,0.00157
3864.88289,0.00168
3862.82272,0.00143
3860.76255,0.00141
3858.70237,0.00174
3856.64220,0.00201
3854.58203,0.00174
3852.52186,0.00096
3850.46169,0.00039
3848.40151,0.00026
3846.34134,0.00024
3844.28117,0.00038
3842.22100,0.00079
3840.16083,0.00105
3838.10065,0.00115
3836.04048,0.00128
3833.98031,0.00108
3831.92014,0.00054
3829.85997,0.00021
3827.79979,0.00035
3825.73962,0.00070
3823.67945,0.00098
3821.61928,0.00112
3819.55910,0.00116
3817.49893,0.00108
3815.43876,0.00094
3813.37859,0.00087
3811.31842,0.00092
3809.25824,0.00100
3807.19807,0.00099
3805.13790,0.00098
3803.07773,0.00114
3801.01756,0.00131
3798.95738,0.00131
3796.89721,0.00131
3794.83704,0.00128
3792.77687,0.00115
3790.71670,0.00117
3788.65652,0.00129
3786.59635,0.00121
3784.53618,0.00107
3782.47601,0.00100
3780.41583,0.00084
3778.35566,0.00071
3776.29549,0.00078
3774.23532,0.00103
3772.17515,0.00136
3770.11497,0.00147
3768.05480,0.00119
3765.99463,0.00088
3763.93446,0.00076
3761.87429,0.00073
3759.81411,0.00071
3757.75394,0.00077
3755.69377,0.00098
3753.63360,0.00119
3751.57342,0.00110
3749.51325,0.00076
3747.45308,0.00052
3745.39291,0.00064
3743.33274,0.00105
3741.27256,0.00132
3739.21239,0.00142
3737.15222,0.00153
3735.09205,0.00141
3733.03188,0.00087
3730.97170,0.00061
3728.91153,0.00079
3726.85136,0.00102
3724.79119,0.00122
3722.73102,0.00132
3720.67084,0.00138
3718.61067,0.00146
3716.55050,0.00158
3714.49033,0.00145
3712.43015,0.00120
3710.36998,0.00152
3708.30981,0.00193
3706.24964,0.00183
3704.18947,0.00146
3702.12929,0.00144
3700.06912,0.00182
3698.00895,0.00190
3695.94878,0.00150
3693.88861,0.00115
3691.82843,0.00118
3689.76826,0.00130
3687.70809,0.00144
3685.64792,0.00171
3683.58775,0.00201
3681.52757,0.00180
3679.46740,0.00112
3677.40723,0.00078
3675.34706,0.00116
3673.28688,0.00149
3671.22671,0.00120
3669.16654,0.00112
3667.10637,0.00176
3665.04620,0.00236
3662.98602,0.00250
3660.92585,0.00243
3658.86568,0.00248
3656.80551,0.00277
3654.74534,0.00322
3652.68516,0.00343
3650.62499,0.00329
3648.56482,0.00335
3646.50465,0.00376
3644.44447,0.00414
3642.38430,0.00455
3640.32413,0.00519
3638.26396,0.00569
3636.20379,0.00566
3634.14361,0.00556
3632.08344,0.00594
3630.02327,0.00668
3627.96310,0.00730
3625.90293,0.00743
3623.84275,0.00737
3621.78258,0.00736
3619.72241,0.00724
3617.66224,0.00721
3615.60207,0.00767
3613.54189,0.00846
3611.48172,0.00920
3609.42155,0.00984
3607.36138,0.01018
3605.30120,0.01023
3603.24103,0.01028
3601.18086,0.01024
3599.12069,0.01018
3597.06052,0.01035
3595.00034,0.01087
3592.94017,0.01169
3590.88000,0.01254
3588.81983,0.01289
3586.75966,0.01287
3584.69948,0.01311
3582.63931,0.01355
3580.57914,0.01385
3578.51897,0.01421
3576.45879,0.01465
3574.39862,0.01468
3572.33845,0.01438
3570.27828,0.01437
3568.21811,0.01480
3566.15793,0.01526
3564.09776,0.01552
3562.03759,0.01576
3559.97742,0.01607
3557.91725,0.01649
3555.85707,0.01695
3553.79690,0.01742
3551.73673,0.01789
3549.67656,0.01817
3547.61639,0.01816
3545.55621,0.01814
3543.49604,0.01836
3541.43587,0.01882
3539.37570,0.01932
3537.31552,0.01965
3535.25535,0.01983
3533.19518,0.01997
3531.13501,0.01997
3529.07484,0.02001
3527.01466,0.02038
3524.95449,0.02099
3522.89432,0.02156
3520.83415,0.02197
3518.77398,0.02207
3516.71380,0.02208
3514.65363,0.02248
3512.59346,0.02311
3510.53329,0.02338
3508.47312,0.02333
3506.41294,0.02351
3504.35277,0.02398
3502.29260,0.02443
3500.23243,0.02482
3498.17225,0.02515
3496.11208,0.02532
3494.05191,0.02527
3491.99174,0.02509
3489.93157,0.02517
3487.87139,0.02561
3485.81122,0.02626
3483.75105,0.02700
3481.69088,0.02761
3479.63071,0.02774
3477.57053,0.02758
3475.51036,0.02770
3473.45019,0.02806
3471.39002,0.02821
3469.32984,0.02815
3467.26967,0.02825
3465.20950,0.02855
3463.14933,0.02889
3461.08916,0.02916
3459.02898,0.02928
3456.96881,0.02922
3454.90864,0.02909
3452.84847,0.02935
3450.78830,0.02999
3448.72812,0.03056
3446.66795,0.03101
3444.60778,0.03121
3442.54761,0.03111
3440.48744,0.03110
3438.42726,0.03121
3436.36709,0.03146
3434.30692,0.03199
3432.24675,0.03223
3430.18657,0.03194
3428.12640,0.03177
3426.06623,0.03214
3424.00606,0.03265
3421.94589,0.03279
3419.88571,0.03283
3417.82554,0.03314
3415.76537,0.03347
3413.70520,0.03369
3411.64503,0.03381
3409.58485,0.03385
3407.52468,0.03400
3405.46451,0.03431
3403.40434,0.03461
3401.34416,0.03462
3399.28399,0.03461
3397.22382,0.03488
3395.16365,0.03524
3393.10348,0.03529
3391.04330,0.03519
3388.98313,0.03532
3386.92296,0.03564
3384.86279,0.03590
3382.80262,0.03612
3380.74244,0.03634
3378.68227,0.03650
3376.62210,0.03655
3374.56193,0.03661
3372.50176,0.03684
3370.44158,0.03714
3368.38141,0.03733
3366.32124,0.03731
3364.26107,0.03710
3362.20089,0.03689
3360.14072,0.03695
3358.08055,0.03719
3356.02038,0.03730
3353.96021,0.03729
3351.90003,0.03752
3349.83986,0.03807
3347.77969,0.03850
3345.71952,0.03854
3343.65935,0.03841
3341.59917,0.03819
3339.53900,0.03794
3337.47883,0.03788
3335.41866,0.03790
3333.35849,0.03799
3331.29831,0.03816
3329.23814,0.03813
3327.17797,0.03792
3325.11780,0.03781
3323.05762,0.03781
3320.99745,0.03782
3318.93728,0.03798
3316.87711,0.03822
3314.81694,0.03834
3312.75676,0.03852
3310.69659,0.03887
3308.63642,0.03903
3306.57625,0.03896
3304.51608,0.03888
3302.45590,0.03868
3300.39573,0.03848
3298.33556,0.03862
3296.27539,0.03917
3294.21521,0.03971
3292.15504,0.03954
3290.09487,0.03897
3288.03470,0.03888
3285.97453,0.03920
3283.91435,0.03938
3281.85418,0.03936
3279.79401,0.03951
3277.73384,0.03975
3275.67367,0.03961
3273.61349,0.03944
3271.55332,0.03977
3269.49315,0.04004
3267.43298,0.03976
3265.37281,0.03946
3263.31263,0.03963
3261.25246,0.04000
3259.19229,0.04004
3257.13212,0.03978
3255.07194,0.03962
3253.01177,0.03968
3250.95160,0.03977
3248.89143,0.03978
3246.83126,0.03962
3244.77108,0.03947
3242.71091,0.03955
3240.65074,0.03975
3238.59057,0.03976
3236.53040,0.03959
3234.47022,0.03973
3232.41005,0.04010
3230.34988,0.04011
3228.28971,0.03990
3226.22954,0.03976
3224.16936,0.03970
3222.10919,0.03983
3220.04902,0.04007
3217.98885,0.04019
3215.92867,0.04021
3213.86850,0.04030
3211.80833,0.04033
3209.74816,0.04002
3207.68799,0.03961
3205.62781,0.03944
3203.56764,0.03952
3201.50747,0.03966
3199.44730,0.03972
3197.38713,0.03964
3195.32695,0.03941
3193.26678,0.03923
3191.20661,0.03922
3189.14644,0.03915
3187.08626,0.03896
3185.02609,0.03875
3182.96592,0.03881
3180.90575,0.03914
3178.84558,0.03922
3176.78540,0.03885
3174.72523,0.03841
3172.66506,0.03815
3170.60489,0.03819
3168.54472,0.03843
3166.48454,0.03852
3164.42437,0.03846
3162.36420,0.03837
3160.30403,0.03828
3158.24386,0.03833
3156.18368,0.03842
3154.12351,0.03826
3152.06334,0.03789
3150.00317,0.03748
3147.94299,0.03722
3145.88282,0.03715
3143.82265,0.03705
3141.76248,0.03679
3139.70231,0.03650
3137.64213,0.03637
3135.58196,0.03633
3133.52179,0.03635
3131.46162,0.03641
3129.40145,0.03644
3127.34127,0.03648
3125.28110,0.03645
3123.22093,0.03618
3121.16076,0.03590
3119.10058,0.03582
3117.04041,0.03581
3114.98024,0.03579
3112.92007,0.03573
3110.85990,0.03550
3108.79972,0.03529
3106.73955,0.03520
3104.67938,0.03486
3102.61921,0.03430
3100.55904,0.03400
3098.49886,0.03394
3096.43869,0.03372
3094.37852,0.03340
3092.31835,0.03326
3090.25818,0.03319
3088.19800,0.03314
3086.13783,0.03317
3084.07766,0.03314
3082.01749,0.03290
3079.95731,0.03259
3077.89714,0.03247
3075.83697,0.03238
3073.77680,0.03214
3071.71663,0.03196
3069.65645,0.03195
3067.59628,0.03204
3065.53611,0.03190
3063.47594,0.03141
3061.41577,0.03107
3059.35559,0.03093
3057.29542,0.03070
3055.23525,0.03049
3053.17508,0.03047
3051.11491,0.03050
3049.05473,0.03037
3046.99456,0.03020
3044.93439,0.03012
3042.87422,0.03001
3040.81404,0.02975
3038.75387,0.02951
3036.69370,0.02935
3034.63353,0.02905
3032.57336,0.02869
3030.51318,0.02847
3028.45301,0.02836
3026.39284,0.02825
3024.33267,0.02811
3022.27250,0.02794
3020.21232,0.02773
3018.15215,0.02766
3016.09198,0.02764
3014.03181,0.02754
3011.97163,0.02743
3009.91146,0.02730
3007.85129,0.02724
3005.79112,0.02727
3003.73095,0.02705
3001.67077,0.02661
2999.61060,0.02622
2997.55043,0.02599
2995.49026,0.02594
2993.43009,0.02595
2991.36991,0.02577
2989.30974,0.02545
2987.24957,0.02520
2985.18940,0.02512
2983.12923,0.02519
2981.06905,0.02502
2979.00888,0.02450
2976.94871,0.02416
2974.88854,0.02422
2972.82836,0.02432
2970.76819,0.02422
2968.70802,0.02414
2966.64785,0.02416
2964.58768,0.02406
2962.52750,0.02386
2960.46733,0.02376
2958.40716,0.02386
2956.34699,0.02401
2954.28682,0.02401
2952.22664,0.02391
2950.16647,0.02385
2948.10630,0.02382
2946.04613,0.02370
2943.98596,0.02348
2941.92578,0.02341
2939.86561,0.02344
2937.80544,0.02330
2935.74527,0.02315
2933.68509,0.02312
2931.62492,0.02303
2929.56475,0.02294
2927.50458,0.02287
2925.44441,0.02263
2923.38423,0.02221
2921.32406,0.02190
2919.26389,0.02206
2917.20372,0.02242
2915.14355,0.02246
2913.08337,0.02222
2911.02320,0.02206
2908.96303,0.02205
2906.90286,0.02201
2904.84268,0.02193
2902.78251,0.02178
2900.72234,0.02145
2898.66217,0.02121
2896.60200,0.02127
2894.54182,0.02130
2892.48165,0.02103
2890.42148,0.02081
2888.36131,0.02087
2886.30114,0.02103
2884.24096,0.02114
2882.18079,0.02114
2880.12062,0.02100
2878.06045,0.02087
2876.00028,0.02082
2873.94010,0.02058
2871.87993,0.02029
2869.81976,0.02032
2867.75959,0.02041
2865.69941,0.02033
2863.63924,0.02019
2861.57907,0.02010
2859.51890,0.02009
2857.45873,0.01982
2855.39855,0.01929
2853.33838,0.01897
2851.27821,0.01901
2849.21804,0.01901
2847.15787,0.01889
2845.09769,0.01888
2843.03752,0.01898
2840.97735,0.01902
2838.91718,0.01889
2836.85700,0.01864
2834.79683,0.01834
2832.73666,0.01804
2830.67649,0.01790
2828.61632,0.01794
2826.55614,0.01805
2824.49597,0.01810
2822.43580,0.01808
2820.37563,0.01807
2818.31546,0.01794
2816.25528,0.01771
2814.19511,0.01766
2812.13494,0.01783
2810.07477,0.01787
2808.01460,0.01764
2805.95442,0.01742
2803.89425,0.01731
2801.83408,0.01725
2799.77391,0.01728
2797.71373,0.01725
2795.65356,0.01701
2793.59339,0.01678
2791.53322,0.01665
2789.47305,0.01657
2787.41287,0.01660
2785.35270,0.01670
2783.29253,0.01672
2781.23236,0.01662
2779.17219,0.01641
2777.11201,0.01617
2775.05184,0.01613
2772.99167,0.01625
2770.93150,0.01631
2768.87133,0.01617
2766.81115,0.01600
2764.75098,0.01597
2762.69081,0.01585
2760.63064,0.01557
2758.57046,0.01541
2756.51029,0.01540
2754.45012,0.01529
2752.38995,0.01508
2750.32978,0.01496
2748.26960,0.01496
2746.20943,0.01503
2744.14926,0.01501
2742.08909,0.01480
2740.02892,0.01461
2737.96874,0.01458
2735.90857,0.01457
2733.84840,0.01446
2731.78823,0.01421
2729.72805,0.01404
2727.66788,0.01411
2725.60771,0.01413
2723.54754,0.01397
2721.48737,0.01385
2719.42719,0.01371
2717.36702,0.01357
2715.30685,0.01349
2713.24668,0.01340
2711.18651,0.01325
2709.12633,0.01309
2707.06616,0.01297
2705.00599,0.01286
2702.94582,0.01286
2700.88565,0.01294
2698.82547,0.01292
2696.76530,0.01282
2694.70513,0.01273
2692.64496,0.01267
2690.58478,0.01253
2688.52461,0.01229
2686.46444,0.01206
2684.40427,0.01187
2682.34410,0.01175
2680.28392,0.01179
2678.22375,0.01184
2676.16358,0.01169
2674.10341,0.01146
2672.04324,0.01141
2669.98306,0.01144
2667.92289,0.01137
2665.86272,0.01124
2663.80255,0.01117
2661.74238,0.01107
2659.68220,0.01097
2657.62203,0.01091
2655.56186,0.01097
2653.50169,0.01111
2651.44151,0.01107
2649.38134,0.01077
2647.32117,0.01051
2645.26100,0.01044
2643.20083,0.01032
2641.14065,0.01013
2639.08048,0.01000
2637.02031,0.00999
2634.96014,0.00996
2632.89997,0.00978
2630.83979,0.00964
2628.77962,0.00976
2626.71945,0.00987
2624.65928,0.00969
2622.59910,0.00941
2620.53893,0.00935
2618.47876,0.00947
2616.41859,0.00922
2614.35842,0.00874
2612.29824,0.00867
2610.23807,0.00894
2608.17790,0.00910
2606.11773,0.00898
2604.05756,0.00868
2601.99738,0.00842
2599.93721,0.00840
2597.87704,0.00861
2595.81687,0.00870
2593.75670,0.00852
2591.69652,0.00828
2589.63635,0.00808
2587.57618,0.00812
2585.51601,0.00851
2583.45583,0.00877
2581.39566,0.00866
2579.33549,0.00854
2577.27532,0.00852
2575.21515,0.00844
2573.15497,0.00826
2571.09480,0.00802
2569.03463,0.00797
2566.97446,0.00807
2564.91429,0.00805
2562.85411,0.00791
2560.79394,0.00782
2558.73377,0.00787
2556.67360,0.00806
2554.61342,0.00806
2552.55325,0.00780
2550.49308,0.00771
2548.43291,0.00797
2546.37274,0.00840
2544.31256,0.00872
2542.25239,0.00852
2540.19222,0.00797
2538.13205,0.00773
2536.07188,0.00768
2534.01170,0.00765
2531.95153,0.00792
2529.89136,0.00814
2527.83119,0.00813
2525.77102,0.00791
2523.71084,0.00744
2521.65067,0.00735
2519.59050,0.00763
2517.53033,0.00778
2515.47015,0.00809
2513.40998,0.00844
2511.34981,0.00830
2509.28964,0.00789
2507.22947,0.00763
2505.16929,0.00782
2503.10912,0.00822
2501.04895,0.00829
2498.98878,0.00813
2496.92861,0.00809
2494.86843,0.00817
2492.80826,0.00816
2490.74809,0.00809
2488.68792,0.00817
2486.62775,0.00821
2484.56757,0.00812
2482.50740,0.00820
2480.44723,0.00843
2478.38706,0.00849
2476.32688,0.00832
2474.26671,0.00823
2472.20654,0.00838
2470.14637,0.00845
2468.08620,0.00840
2466.02602,0.00854
2463.96585,0.00862
2461.90568,0.00840
2459.84551,0.00822
2457.78534,0.00848
2455.72516,0.00888
2453.66499,0.00882
2451.60482,0.00842
2449.54465,0.00813
2447.48447,0.00812
2445.42430,0.00835
2443.36413,0.00867
2441.30396,0.00882
2439.24379,0.00886
2437.18361,0.00913
2435.12344,0.00921
2433.06327,0.00887
2431.00310,0.00876
2428.94293,0.00894
2426.88275,0.00903
2424.82258,0.00895
2422.76241,0.00890
2420.70224,0.00887
2418.64207,0.00865
2416.58189,0.00850
2414.52172,0.00849
2412.46155,0.00849
2410.40138,0.00865
2408.34120,0.00887
2406.28103,0.00888
2404.22086,0.00882
2402.16069,0.00891
2400.10052,0.00903
2398.04034,0.00877
2395.98017,0.00864
2393.92000,0.00876
2391.85983,0.00892
2389.79966,0.00893
2387.73948,0.00887
2385.67931,0.00891
2383.61914,0.00897
2381.55897,0.00909
2379.49880,0.00945
2377.43862,0.01005
2375.37845,0.01050
2373.31828,0.01098
2371.25811,0.01144
2369.19793,0.01105
2367.13776,0.01027
2365.07759,0.01018
2363.01742,0.01050
2360.95725,0.01207
2358.89707,0.01102
2356.83690,0.00811
2354.77673,0.00716
2352.71656,0.00870
2350.65639,0.01232
2348.59621,0.01357
2346.53604,0.00932
2344.47587,0.00719
2342.41570,0.00693
2340.35552,0.00679
2338.29535,0.00691
2336.23518,0.00705
2334.17501,0.00773
2332.11484,0.00881
2330.05466,0.01009
2327.99449,0.01075
2325.93432,0.01134
2323.87415,0.01064
2321.81398,0.00957
2319.75380,0.00901
2317.69363,0.00998
2315.63346,0.01073
2313.57329,0.01054
2311.51312,0.01012
2309.45294,0.00974
2307.39277,0.00902
2305.33260,0.00809
2303.27243,0.00781
2301.21225,0.00819
2299.15208,0.00878
2297.09191,0.00904
2295.03174,0.00904
2292.97157,0.00898
2290.91139,0.00877
2288.85122,0.00856
2286.79105,0.00864
2284.73088,0.00892
2282.67071,0.00895
2280.61053,0.00863
2278.55036,0.00814
2276.49019,0.00753
2274.43002,0.00698
2272.36984,0.00670
2270.30967,0.00677
2268.24950,0.00702
2266.18933,0.00718
2264.12916,0.00715
2262.06898,0.00705
2260.00881,0.00690
2257.94864,0.00681
2255.88847,0.00692
2253.82830,0.00722
2251.76812,0.00726
2249.70795,0.00671
2247.64778,0.00619
2245.58761,0.00627
2243.52744,0.00592
2241.46726,0.00477
2239.40709,0.00420
2237.34692,0.00462
2235.28675,0.00526
2233.22657,0.00581
2231.16640,0.00620
2229.10623,0.00607
2227.04606,0.00560
2224.98589,0.00545
2222.92571,0.00581
2220.86554,0.00629
2218.80537,0.00624
2216.74520,0.00553
2214.68503,0.00477
2212.62485,0.00421
2210.56468,0.00431
2208.50451,0.00487
2206.44434,0.00476
2204.38417,0.00453
2202.32399,0.00493
2200.26382,0.00550
2198.20365,0.00583
2196.14348,0.00565
2194.08330,0.00479
2192.02313,0.00415
2189.96296,0.00447
2187.90279,0.00504
2185.84262,0.00524
2183.78244,0.00502
2181.72227,0.00486
2179.66210,0.00520
2177.60193,0.00530
2175.54176,0.00436
2173.48158,0.00335
2171.42141,0.00343
2169.36124,0.00386
2167.30107,0.00344
2165.24089,0.00292
2163.18072,0.00389
2161.12055,0.00426
2159.06038,0.00257
2157.00021,0.00137
2154.94003,0.00143
2152.87986,0.00238
2150.81969,0.00323
2148.75952,0.00311
2146.69935,0.00290
2144.63917,0.00336
2142.57900,0.00387
2140.51883,0.00338
2138.45866,0.00237
2136.39849,0.00200
2134.33831,0.00200
2132.27814,0.00243
2130.21797,0.00341
2128.15780,0.00388
2126.09762,0.00365
2124.03745,0.00340
2121.97728,0.00336
2119.91711,0.00349
2117.85694,0.00362
2115.79676,0.00367
2113.73659,0.00383
2111.67642,0.00396
2109.61625,0.00385
2107.55608,0.00375
2105.49590,0.00385
2103.43573,0.00393
2101.37556,0.00380
2099.31539,0.00370
2097.25521,0.00340
2095.19504,0.00251
2093.13487,0.00191
2091.07470,0.00246
2089.01453,0.00359
2086.95435,0.00445
2084.89418,0.00463
2082.83401,0.00393
2080.77384,0.00307
2078.71367,0.00280
2076.65349,0.00257
2074.59332,0.00217
2072.53315,0.00254
2070.47298,0.00351
2068.41281,0.00372
2066.35263,0.00327
2064.29246,0.00353
2062.23229,0.00404
2060.17212,0.00343
2058.11194,0.00255
2056.05177,0.00311
2053.99160,0.00461
2051.93143,0.00481
2049.87126,0.00347
2047.81108,0.00256
2045.75091,0.00229
2043.69074,0.00147
2041.63057,0.00045
2039.57040,0.00058
2037.51022,0.00146
2035.45005,0.00158
2033.38988,0.00094
2031.32971,0.00081
2029.26954,0.00141
2027.20936,0.00202
2025.14919,0.00223
2023.08902,0.00232
2021.02885,0.00257
2018.96867,0.00298
2016.90850,0.00332
2014.84833,0.00267
2012.78816,0.00115
2010.72799,0.00028
2008.66781,0.00006
2006.60764,0.00001
2004.54747,0.00052
2002.48730,0.00094
2000.42713,0.00061
1998.36695,0.00046
1996.30678,0.00124
1994.24661,0.00235
1992.18644,0.00326
1990.12626,0.00417
1988.06609,0.00491
1986.00592,0.00534
1983.94575,0.00543
1981.88558,0.00450
1979.82540,0.00282
1977.76523,0.00177
1975.70506,0.00173
1973.64489,0.00206
1971.58472,0.00252
1969.52454,0.00284
1967.46437,0.00276
1965.40420,0.00282
1963.34403,0.00351
1961.28386,0.00375
1959.22368,0.00251
1957.16351,0.00109
1955.10334,0.00110
1953.04317,0.00246
1950.98299,0.00366
1948.92282,0.00322
1946.86265,0.00142
1944.80248,0.00000
1942.74231,0.00006
1940.68213,0.00113
1938.62196,0.00182
1936.56179,0.00178
1934.50162,0.00198
1932.44145,0.00287
1930.38127,0.00321
1928.32110,0.00242
1926.26093,0.00170
1924.20076,0.00175
1922.14059,0.00192
1920.08041,0.00177
1918.02024,0.00159
1915.96007,0.00150
1913.89990,0.00130
1911.83972,0.00107
1909.77955,0.00116
1907.71938,0.00157
1905.65921,0.00205
1903.59904,0.00241
1901.53886,0.00241
1899.47869,0.00209
1897.41852,0.00167
1895.35835,0.00133
1893.29818,0.00138
1891.23800,0.00188
1889.17783,0.00270
1887.11766,0.00334
1885.05749,0.00333
1882.99731,0.00287
1880.93714,0.00240
1878.87697,0.00216
1876.81680,0.00216
1874.75663,0.00224
1872.69645,0.00221
1870.63628,0.00203
1868.57611,0.00191
1866.51594,0.00207
1864.45577,0.00243
1862.39559,0.00266
1860.33542,0.00258
1858.27525,0.00217
1856.21508,0.00176
1854.15491,0.00182
1852.09473,0.00225
1850.03456,0.00267
1847.97439,0.00289
1845.91422,0.00301
1843.85404,0.00307
1841.79387,0.00281
1839.73370,0.00236
1837.67353,0.00220
1835.61336,0.00240
1833.55318,0.00269
1831.49301,0.00283
1829.43284,0.00269
1827.37267,0.00245
1825.31250,0.00237
1823.25232,0.00243
1821.19215,0.00246
1819.13198,0.00243
1817.07181,0.00242
1815.01163,0.00236
1812.95146,0.00219
1810.89129,0.00222
1808.83112,0.00264
1806.77095,0.00310
1804.71077,0.00326
1802.65060,0.00317
1800.59043,0.00307
1798.53026,0.00303
1796.47009,0.00307
1794.40991,0.00310
1792.34974,0.00299
1790.28957,0.00295
1788.22940,0.00314
1786.16923,0.00331
1784.10905,0.00330
1782.04888,0.00318
1779.98871,0.00313
1777.92854,0.00319
1775.86836,0.00307
1773.80819,0.00267
1771.74802,0.00244
1769.68785,0.00270
1767.62768,0.00313
1765.56750,0.00348
1763.50733,0.00366
1761.44716,0.00362
1759.38699,0.00352
1757.32682,0.00363
1755.26664,0.00395
1753.20647,0.00416
1751.14630,0.00407
1749.08613,0.00397
1747.02596,0.00422
1744.96578,0.00466
1742.90561,0.00496
1740.84544,0.00503
1738.78527,0.00506
1736.72509,0.00514
1734.66492,0.00515
1732.60475,0.00511
1730.54458,0.00528
1728.48441,0.00559
1726.42423,0.00585
1724.36406,0.00602
1722.30389,0.00616
1720.24372,0.00620
1718.18355,0.00609
1716.12337,0.00603
1714.06320,0.00632
1712.00303,0.00689
1709.94286,0.00746
1707.88268,0.00777
1705.82251,0.00788
1703.76234,0.00802
1701.70217,0.00814
1699.64200,0.00814
1697.58182,0.00834
1695.52165,0.00881
1693.46148,0.00929
1691.40131,0.00970
1689.34114,0.01001
1687.28096,0.01010
1685.22079,0.01000
1683.16062,0.01025
1681.10045,0.01107
1679.04028,0.01189
1676.98010,0.01234
1674.91993,0.01253
1672.85976,0.01270
1670.79959,0.01290
1668.73941,0.01316
1666.67924,0.01356
1664.61907,0.01393
1662.55890,0.01418
1660.49873,0.01440
1658.43855,0.01461
1656.37838,0.01468
1654.31821,0.01451
1652.25804,0.01434
1650.19787,0.01432
1648.13769,0.01424
1646.07752,0.01421
1644.01735,0.01452
1641.95718,0.01496
1639.89701,0.01520
1637.83683,0.01493
1635.77666,0.01417
1633.71649,0.01365
1631.65632,0.01361
1629.59614,0.01359
1627.53597,0.01343
1625.47580,0.01322
1623.41563,0.01299
1621.35546,0.01293
1619.29528,0.01297
1617.23511,0.01277
1615.17494,0.01250
1613.11477,0.01241
1611.05460,0.01233
1608.99442,0.01218
1606.93425,0.01207
1604.87408,0.01192
1602.81391,0.01168
1600.75373,0.01145
1598.69356,0.01123
1596.63339,0.01092
1594.57322,0.01052
1592.51305,0.01008
1590.45287,0.00963
1588.39270,0.00929
1586.33253,0.00902
1584.27236,0.00876
1582.21219,0.00850
1580.15201,0.00821
1578.09184,0.00780
1576.03167,0.00737
1573.97150,0.00717
1571.91133,0.00700
1569.85115,0.00657
1567.79098,0.00614
1565.73081,0.00604
1563.67064,0.00616
1561.61046,0.00621
1559.55029,0.00594
1557.49012,0.00543
1555.42995,0.00495
1553.36978,0.00459
1551.30960,0.00448
1549.24943,0.00462
1547.18926,0.00471
1545.12909,0.00442
1543.06892,0.00389
1541.00874,0.00337
1538.94857,0.00314
1536.88840,0.00326
1534.82823,0.00329
1532.76805,0.00317
1530.70788,0.00319
1528.64771,0.00320
1526.58754,0.00293
1524.52737,0.00255
1522.46719,0.00235
1520.40702,0.00234
1518.34685,0.00237
1516.28668,0.00239
1514.22651,0.00248
1512.16633,0.00256
1510.10616,0.00243
1508.04599,0.00201
1505.98582,0.00172
1503.92565,0.00181
1501.86547,0.00194
1499.80530,0.00184
1497.74513,0.00155
1495.68496,0.00134
1493.62478,0.00137
1491.56461,0.00144
1489.50444,0.00145
1487.44427,0.00153
1485.38410,0.00174
1483.32392,0.00200
1481.26375,0.00214
1479.20358,0.00199
1477.14341,0.00170
1475.08324,0.00158
1473.02306,0.00183
1470.96289,0.00230
1468.90272,0.00257
1466.84255,0.00252
1464.78238,0.00230
1462.72220,0.00222
1460.66203,0.00230
1458.60186,0.00241
1456.54169,0.00257
1454.48151,0.00276
1452.42134,0.00288
1450.36117,0.00287
1448.30100,0.00275
1446.24083,0.00263
1444.18065,0.00257
1442.12048,0.00253
1440.06031,0.00246
1438.00014,0.00233
1435.93997,0.00217
1433.87979,0.00214
1431.81962,0.00225
1429.75945,0.00238
1427.69928,0.00248
1425.63910,0.00256
1423.57893,0.00267
1421.51876,0.00277
1419.45859,0.00268
1417.39842,0.00257
1415.33824,0.00274
1413.27807,0.00302
1411.21790,0.00324
1409.15773,0.00338
1407.09756,0.00330
1405.03738,0.00296
1402.97721,0.00266
1400.91704,0.00251
1398.85687,0.00236
1396.79670,0.00220
1394.73652,0.00212
1392.67635,0.00210
1390.61618,0.00211
1388.55601,0.00219
1386.49583,0.00234
1384.43566,0.00253
1382.37549,0.00269
1380.31532,0.00275
1378.25515,0.00273
1376.19497,0.00263
1374.13480,0.00254
1372.07463,0.00253
1370.01446,0.00252
1367.95429,0.00241
1365.89411,0.00232
1363.83394,0.00226
1361.77377,0.00216
1359.71360,0.00204
1357.65343,0.00194
1355.59325,0.00189
1353.53308,0.00195
1351.47291,0.00210
1349.41274,0.00216
1347.35256,0.00206
1345.29239,0.00189
1343.23222,0.00174
1341.17205,0.00164
1339.11188,0.00171
1337.05170,0.00196
1334.99153,0.00218
1332.93136,0.00216
1330.87119,0.00200
1328.81102,0.00180
1326.75084,0.00172
1324.69067,0.00185
1322.63050,0.00198
1320.57033,0.00193
1318.51015,0.00180
1316.44998,0.00178
1314.38981,0.00184
1312.32964,0.00182
1310.26947,0.00174
1308.20929,0.00175
1306.14912,0.00187
1304.08895,0.00207
1302.02878,0.00219
1299.96861,0.00219
1297.90843,0.00217
1295.84826,0.00226
1293.78809,0.00244
1291.72792,0.00254
1289.66775,0.00246
1287.60757,0.00233
1285.54740,0.00237
1283.48723,0.00255
1281.42706,0.00267
1279.36688,0.00275
1277.30671,0.00284
1275.24654,0.00286
1273.18637,0.00280
1271.12620,0.00280
1269.06602,0.00289
1267.00585,0.00292
1264.94568,0.00286
1262.88551,0.00279
1260.82534,0.00282
1258.76516,0.00294
1256.70499,0.00295
1254.64482,0.00283
1252.58465,0.00269
1250.52447,0.00253
1248.46430,0.00236
1246.40413,0.00227
1244.34396,0.00225
1242.28379,0.00221
1240.22361,0.00220
1238.16344,0.00220
1236.10327,0.00208
1234.04310,0.00179
1231.98293,0.00147
1229.92275,0.00133
1227.86258,0.00136
1225.80241,0.00141
1223.74224,0.00133
1221.68207,0.00101
1219.62189,0.00068
1217.56172,0.00051
1215.50155,0.00035
1213.44138,0.00022
1211.38120,0.00012
1209.32103,0.00000
1207.26086,-0.00001
1205.20069,0.00008
1203.14052,0.00007
1201.08034,0.00004
1199.02017,0.00007
1196.96000,0.00012
1194.89983,0.00025
1192.83966,0.00051
1190.77948,0.00085
1188.71931,0.00120
1186.65914,0.00160
1184.59897,0.00222
1182.53880,0.00298
1180.47862,0.00363
1178.41845,0.00405
1176.35828,0.00439
1174.29811,0.00488
1172.23793,0.00555
1170.17776,0.00622
1168.11759,0.00677
1166.05742,0.00732
1163.99725,0.00801
1161.93707,0.00866
1159.87690,0.00920
1157.81673,0.00974
1155.75656,0.01038
1153.69639,0.01118
1151.63621,0.01199
1149.57604,0.01258
1147.51587,0.01319
1145.45570,0.01403
1143.39552,0.01488
1141.33535,0.01560
1139.27518,0.01631
1137.21501,0.01707
1135.15484,0.01786
1133.09466,0.01874
1131.03449,0.01980
1128.97432,0.02100
1126.91415,0.02204
1124.85398,0.02279
1122.79380,0.02345
1120.73363,0.02418
1118.67346,0.02521
1116.61329,0.02639
1114.55312,0.02746
1112.49294,0.02861
1110.43277,0.02974
1108.37260,0.03064
1106.31243,0.03165
1104.25225,0.03293
1102.19208,0.03434
1100.13191,0.03574
1098.07174,0.03700
1096.01157,0.03804
1093.95139,0.03885
1091.89122,0.03980
1089.83105,0.04113
1087.77088,0.04244
1085.71071,0.04340
1083.65053,0.04419
1081.59036,0.04506
1079.53019,0.04603
1077.47002,0.04687
1075.40985,0.04749
1073.34967,0.04803
1071.28950,0.04860
1069.22933,0.04917
1067.16916,0.04953
1065.10898,0.04961
1063.04881,0.04956
1060.98864,0.04964
1058.92847,0.04981
1056.86830,0.04966
1054.80812,0.04921
1052.74795,0.04871
1050.68778,0.04810
1048.62761,0.04740
1046.56744,0.04674
1044.50726,0.04598
1042.44709,0.04512
1040.38692,0.04425
1038.32675,0.04318
1036.26657,0.04195
1034.20640,0.04067
1032.14623,0.03937
1030.08606,0.03820
1028.02589,0.03711
1025.96571,0.03609
1023.90554,0.03518
1021.84537,0.03421
1019.78520,0.03335
1017.72503,0.03269
1015.66485,0.03187
1013.60468,0.03110
1011.54451,0.03078
1009.48434,0.03056
1007.42417,0.03019
1005.36399,0.02986
1003.30382,0.02959
1001.24365,0.02946
999.18348,0.02964
997.12330,0.03004
995.06313,0.03072
993.00296,0.03192
990.94279,0.03315
988.88262,0.03395
986.82244,0.03449
984.76227,0.03493
982.70210,0.03523
980.64193,0.03518
978.58176,0.03466
976.52158,0.03385
974.46141,0.03293
972.40124,0.03199
970.34107,0.03092
968.28089,0.02968
966.22072,0.02827
964.16055,0.02677
962.10038,0.02549
960.04021,0.02450
957.98003,0.02356
955.91986,0.02255
953.85969,0.02173
951.79952,0.02114
949.73935,0.02063
947.67917,0.02009
945.61900,0.01959
943.55883,0.01937
941.49866,0.01938
939.43849,0.01934
937.37831,0.01912
935.31814,0.01888
933.25797,0.01887
931.19780,0.01892
929.13762,0.01891
927.07745,0.01892
925.01728,0.01869
922.95711,0.01813
920.89694,0.01748
918.83676,0.01696
916.77659,0.01660
914.71642,0.01612
912.65625,0.01543
910.59608,0.01495
908.53590,0.01470
906.47573,0.01436
904.41556,0.01408
902.35539,0.01400
900.29522,0.01385
898.23504,0.01366
896.17487,0.01374
894.11470,0.01408
892.05453,0.01430
889.99435,0.01427
887.93418,0.01424
885.87401,0.01451
883.81384,0.01509
881.75367,0.01558
879.69349,0.01579
877.63332,0.01616
875.57315,0.01674
873.51298,0.01708
871.45281,0.01740
869.39263,0.01783
867.33246,0.01816
865.27229,0.01846
863.21212,0.01833
861.15194,0.01768
859.09177,0.01734
857.03160,0.01758
854.97143,0.01762
852.91126,0.01703
850.85108,0.01658
848.79091,0.01662
846.73074,0.01653
844.67057,0.01611
842.61040,0.01558
840.55022,0.01486
838.49005,0.01416
836.42988,0.01401
834.36971,0.01406
832.30954,0.01355
830.24936,0.01271
828.18919,0.01189
826.12902,0.01100
824.06885,0.01044
822.00867,0.01038
819.94850,0.01022
817.88833,0.01003
815.82816,0.01009
813.76799,0.00984
811.70781,0.00916
809.64764,0.00835
807.58747,0.00735
805.52730,0.00665
803.46713,0.00664
801.40695,0.00680
799.34678,0.00680
797.28661,0.00672
795.22644,0.00675
793.16627,0.00683
791.10609,0.00681
789.04592,0.00671
786.98575,0.00657
784.92558,0.00662
782.86540,0.00690
780.80523,0.00707
778.74506,0.00693
776.68489,0.00653
774.62472,0.00611
772.56454,0.00578
770.50437,0.00557
768.44420,0.00564
766.38403,0.00594
764.32386,0.00619
762.26368,0.00611
760.20351,0.00576
758.14334,0.00530
756.08317,0.00465
754.02299,0.00415
751.96282,0.00415
749.90265,0.00403
747.84248,0.00318
745.78231,0.00251
743.72213,0.00264
741.66196,0.00283
739.60179,0.00323
737.54162,0.00412
735.48145,0.00438
733.42127,0.00366
731.36110,0.00287
729.30093,0.00245
727.24076,0.00247
725.18059,0.00278
723.12041,0.00337
721.06024,0.00340
719.00007,0.00375
716.93990,0.00394
714.87972,0.00382
712.81955,0.00369
710.75938,0.00330
708.69921,0.00290
706.63904,0.00292
704.57886,0.00334
702.51869,0.00387
700.45852,0.00427
698.39835,0.00455
696.33818,0.00473
694.27800,0.00471
692.21783,0.00452
690.15766,0.00443
688.09749,0.00490
686.03731,0.00600
683.97714,0.00686
681.91697,0.00677
679.85680,0.00624
677.79663,0.00547
675.73645,0.00433
673.67628,0.00438
671.61611,0.00556
669.55594,0.00222
667.49577,0.00000
665.43559,0.00623
663.37542,0.00584
661.31525,0.00458
659.25508,0.00442
657.19491,0.00377
655.13473,0.00239
653.07456,0.00128
651.01439,0.00093
648.95422,0.00074
646.89404,0.00104
644.83387,0.00169
642.77370,0.00174
640.71353,0.00064
638.65336,-0.00048
636.59318,-0.00076
634.53301,-0.00085
632.47284,-0.00150
630.41267,-0.00211
628.35250,-0.00198
626.29232,-0.00187
624.23215,-0.00290
622.17198,-0.00341
620.11181,-0.00302
618.05164,-0.00273
615.99146,-0.00255
613.93129,-0.00339
611.87112,-0.00480
609.81095,-0.00552
607.75077,-0.00607
605.69060,-0.00572
603.63043,-0.00358
601.57026,-0.00069
599.51009,0.00000
