3996.73391,0.00051
3994.67373,0.00063
3992.61356,0.00065
3990.55339,0.00064
3988.49322,0.00070
3986.43305,0.00071
3984.37287,0.00070
3982.31270,0.00079
3980.25253,0.00109
3978.19236,0.00124
3976.13219,0.00086
3974.07201,0.00026
3972.01184,0.00000
3969.95167,0.00030
3967.89150,0.00080
3965.83133,0.00103
3963.77115,0.00092
3961.71098,0.00092
3959.65081,0.00120
3957.59064,0.00148
3955.53046,0.00166
3953.47029,0.00157
3951.41012,0.00104
3949.34995,0.00049
3947.28978,0.00067
3945.22960,0.00106
3943.16943,0.00099
3941.10926,0.00094
3939.04909,0.00106
3936.98892,0.00138
3934.92874,0.00148
3932.86857,0.00100
3930.80840,0.00066
3928.74823,0.00061
3926.68805,0.00031
3924.62788,0.00026
3922.56771,0.00085
3920.50754,0.00100
3918.44737,0.00062
3916.38719,0.00058
3914.32702,0.00095
3912.26685,0.00128
3910.20668,0.00173
3908.14651,0.00198
3906.08633,0.00142
3904.02616,0.00088
3901.96599,0.00096
3899.90582,0.00106
3897.84565,0.00166
3895.78547,0.00212
3893.72530,0.00137
3891.66513,0.00092
3889.60496,0.00209
3887.54478,0.00232
3885.48461,0.00160
3883.42444,0.00150
3881.36427,0.00092
3879.30410,0.00145
3877.24392,0.00252
3875.18375,0.00224
3873.12358,0.00210
3871.06341,0.00185
3869.00324,0.00212
3866.94306,0.00275
3864.88289,0.00250
3862.82272,0.00306
3860.76255,0.00393
3858.70237,0.00385
3856.64220,0.00228
3854.58203,0.00000
3852.52186,0.00080
3850.46169,0.00328
3848.40151,0.00351
3846.34134,0.00240
3844.28117,0.00160
3842.22100,0.00159
3840.16083,0.00151
3838.10065,0.00172
3836.04048,0.00284
3833.98031,0.00319
3831.92014,0.00279
3829.85997,0.00282
3827.79979,0.00296
3825.73962,0.00339
3823.67945,0.00299
3821.61928,0.00153
3819.55910,0.00190
3817.49893,0.00195
3815.43876,0.00204
3813.37859,0.00350
3811.31842,0.00368
3809.25824,0.00220
3807.19807,0.00141
3805.13790,0.00272
3803.07773,0.00279
3801.01756,0.00245
3798.95738,0.00340
3796.89721,0.00314
3794.83704,0.00267
3792.77687,0.00255
3790.71670,0.00249
3788.65652,0.00255
3786.59635,0.00217
3784.53618,0.00166
3782.47601,0.00126
3780.41583,0.00055
3778.35566,0.00089
3776.29549,0.00220
3774.23532,0.00281
3772.17515,0.00229
3770.11497,0.00160
3768.05480,0.00175
3765.99463,0.00182
3763.93446,0.00216
3761.87429,0.00225
3759.81411,0.00184
3757.75394,0.00227
3755.69377,0.00293
3753.63360,0.00206
3751.57342,0.00070
3749.51325,0.00196
3747.45308,0.00369
3745.39291,0.00264
3743.33274,0.00251
3741.27256,0.00388
3739.21239,0.00395
3737.15222,0.00314
3735.09205,0.00278
3733.03188,0.00308
3730.97170,0.00382
3728.91153,0.00435
3726.85136,0.00390
3724.79119,0.00336
3722.73102,0.00295
3720.67084,0.00266
3718.61067,0.00281
3716.55050,0.00325
3714.49033,0.00301
3712.43015,0.00206
3710.36998,0.00200
3708.30981,0.00294
3706.24964,0.00342
3704.18947,0.00294
3702.12929,0.00249
3700.06912,0.00318
3698.00895,0.00383
3695.94878,0.00397
3693.88861,0.00400
3691.82843,0.00319
3689.76826,0.00222
3687.70809,0.00263
3685.64792,0.00349
3683.58775,0.00362
3681.52757,0.00387
3679.46740,0.00440
3677.40723,0.00402
3675.34706,0.00381
3673.28688,0.00521
3671.22671,0.00469
3669.16654,0.00430
3667.10637,0.00553
3665.04620,0.00561
3662.98602,0.00508
3660.92585,0.00508
3658.86568,0.00500
3656.80551,0.00497
3654.74534,0.00621
3652.68516,0.00649
3650.62499,0.00498
3648.56482,0.00468
3646.50465,0.00589
3644.44447,0.00695
3642.38430,0.00736
3640.32413,0.00772
3638.26396,0.00817
3636.20379,0.00868
3634.14361,0.00928
3632.08344,0.00921
3630.02327,0.00772
3627.96310,0.00799
3625.90293,0.01032
3623.84275,0.01109
3621.78258,0.01032
3619.72241,0.00983
3617.66224,0.01090
3615.60207,0.01189
3613.54189,0.01198
3611.48172,0.01250
3609.42155,0.01308
3607.36138,0.01388
3605.30120,0.01474
3603.24103,0.01458
3601.18086,0.01435
3599.12069,0.01492
3597.06052,0.01536
3595.00034,0.01551
3592.94017,0.01628
3590.88000,0.01673
3588.81983,0.01633
3586.75966,0.01661
3584.69948,0.01750
3582.63931,0.01777
3580.57914,0.01796
3578.51897,0.01839
3576.45879,0.01889
3574.39862,0.01982
3572.33845,0.02087
3570.27828,0.02084
3568.21811,0.01997
3566.15793,0.02035
3564.09776,0.02174
3562.03759,0.02211
3559.97742,0.02175
3557.91725,0.02174
3555.85707,0.02201
3553.79690,0.02218
3551.73673,0.02266
3549.67656,0.02348
3547.61639,0.02404
3545.55621,0.02457
3543.49604,0.02502
3541.43587,0.02507
3539.37570,0.02501
3537.31552,0.02512
3535.25535,0.02563
3533.19518,0.02635
3531.13501,0.02674
3529.07484,0.02688
3527.01466,0.02729
3524.95449,0.02787
3522.89432,0.02841
3520.83415,0.02898
3518.77398,0.02945
3516.71380,0.02983
3514.65363,0.03005
3512.59346,0.03017
3510.53329,0.03045
3508.47312,0.03114
3506.41294,0.03177
3504.35277,0.03170
3502.29260,0.03171
3500.23243,0.03234
3498.17225,0.03292
3496.11208,0.03309
3494.05191,0.03310
3491.99174,0.03328
3489.93157,0.03376
3487.87139,0.03434
3485.81122,0.03478
3483.75105,0.03485
3481.69088,0.03468
3479.63071,0.03467
3477.57053,0.03492
3475.51036,0.03551
3473.45019,0.03627
3471.39002,0.03696
3469.32984,0.03739
3467.26967,0.03745
3465.20950,0.03757
3463.14933,0.03792
3461.08916,0.03810
3459.02898,0.03806
3456.96881,0.03827
3454.90864,0.03866
3452.84847,0.03885
3450.78830,0.03903
3448.72812,0.03906
3446.66795,0.03915
3444.60778,0.03954
3442.54761,0.03975
3440.48744,0.04003
3438.42726,0.04051
3436.36709,0.04096
3434.30692,0.04117
3432.24675,0.04135
3430.18657,0.04173
3428.12640,0.04182
3426.06623,0.04156
3424.00606,0.04147
3421.94589,0.04167
3419.88571,0.04231
3417.82554,0.04322
3415.76537,0.04374
3413.70520,0.04364
3411.64503,0.04317
3409.58485,0.04283
3407.52468,0.04291
3405.46451,0.04343
3403.40434,0.04395
3401.34416,0.04414
3399.28399,0.04419
3397.22382,0.04435
3395.16365,0.04461
3393.10348,0.04484
3391.04330,0.04502
3388.98313,0.04497
3386.92296,0.04517
3384.86279,0.04577
3382.80262,0.04616
3380.74244,0.04617
3378.68227,0.04607
3376.62210,0.04601
3374.56193,0.04600
3372.50176,0.04602
3370.44158,0.04616
3368.38141,0.04633
3366.32124,0.04634
3364.26107,0.04633
3362.20089,0.04641
3360.14072,0.04675
3358.08055,0.04713
3356.02038,0.04725
3353.96021,0.04735
3351.90003,0.04726
3349.83986,0.04691
3347.77969,0.04710
3345.71952,0.04789
3343.65935,0.04813
3341.59917,0.04758
3339.53900,0.04705
3337.47883,0.04694
3335.41866,0.04712
3333.35849,0.04733
3331.29831,0.04743
3329.23814,0.04757
3327.17797,0.04775
3325.11780,0.04765
3323.05762,0.04742
3320.99745,0.04757
3318.93728,0.04801
3316.87711,0.04849
3314.81694,0.04877
3312.75676,0.04860
3310.69659,0.04820
3308.63642,0.04808
3306.57625,0.04818
3304.51608,0.04806
3302.45590,0.04791
3300.39573,0.04790
3298.33556,0.04789
3296.27539,0.04803
3294.21521,0.04833
3292.15504,0.04844
3290.09487,0.04833
3288.03470,0.04809
3285.97453,0.04791
3283.91435,0.04801
3281.85418,0.04822
3279.79401,0.04835
3277.73384,0.04845
3275.67367,0.04830
3273.61349,0.04800
3271.55332,0.04808
3269.49315,0.04857
3267.43298,0.04898
3265.37281,0.04910
3263.31263,0.04916
3261.25246,0.04920
3259.19229,0.04904
3257.13212,0.04869
3255.07194,0.04824
3253.01177,0.04790
3250.95160,0.04791
3248.89143,0.04817
3246.83126,0.04836
3244.77108,0.04852
3242.71091,0.04877
3240.65074,0.04885
3238.59057,0.04882
3236.53040,0.04891
3234.47022,0.04901
3232.41005,0.04879
3230.34988,0.04836
3228.28971,0.04808
3226.22954,0.04798
3224.16936,0.04795
3222.10919,0.04809
3220.04902,0.04832
3217.98885,0.04826
3215.92867,0.04779
3213.86850,0.04761
3211.80833,0.04794
3209.74816,0.04816
3207.68799,0.04818
3205.62781,0.04818
3203.56764,0.04820
3201.50747,0.04816
3199.44730,0.04786
3197.38713,0.04745
3195.32695,0.04735
3193.26678,0.04740
3191.20661,0.04713
3189.14644,0.04661
3187.08626,0.04639
3185.02609,0.04659
3182.96592,0.04682
3180.90575,0.04678
3178.84558,0.04657
3176.78540,0.04650
3174.72523,0.04653
3172.66506,0.04644
3170.60489,0.04623
3168.54472,0.04603
3166.48454,0.04584
3164.42437,0.04570
3162.36420,0.04579
3160.30403,0.04586
3158.24386,0.04561
3156.18368,0.04528
3154.12351,0.04511
3152.06334,0.04499
3150.00317,0.04475
3147.94299,0.04446
3145.88282,0.04427
3143.82265,0.04429
3141.76248,0.04442
3139.70231,0.04445
3137.64213,0.04429
3135.58196,0.04409
3133.52179,0.04396
3131.46162,0.04386
3129.40145,0.04363
3127.34127,0.04342
3125.28110,0.04321
3123.22093,0.04288
3121.16076,0.04266
3119.10058,0.04270
3117.04041,0.04274
3114.98024,0.04256
3112.92007,0.04205
3110.85990,0.04148
3108.79972,0.04134
3106.73955,0.04149
3104.67938,0.04148
3102.61921,0.04137
3100.55904,0.04142
3098.49886,0.04148
3096.43869,0.04131
3094.37852,0.04098
3092.31835,0.04054
3090.25818,0.03999
3088.19800,0.03953
3086.13783,0.03920
3084.07766,0.03887
3082.01749,0.03869
3079.95731,0.03884
3077.89714,0.03899
3075.83697,0.03882
3073.77680,0.03854
3071.71663,0.03845
3069.65645,0.03840
3067.59628,0.03811
3065.53611,0.03779
3063.47594,0.03768
3061.41577,0.03755
3059.35559,0.03733
3057.29542,0.03722
3055.23525,0.03706
3053.17508,0.03669
3051.11491,0.03630
3049.05473,0.03613
3046.99456,0.03610
3044.93439,0.03620
3042.87422,0.03637
3040.81404,0.03622
3038.75387,0.03567
3036.69370,0.03512
3034.63353,0.03474
3032.57336,0.03442
3030.51318,0.03426
3028.45301,0.03436
3026.39284,0.03422
3024.33267,0.03373
3022.27250,0.03338
3020.21232,0.03329
3018.15215,0.03330
3016.09198,0.03342
3014.03181,0.03340
3011.97163,0.03300
3009.91146,0.03237
3007.85129,0.03180
3005.79112,0.03148
3003.73095,0.03137
3001.67077,0.03131
2999.61060,0.03137
2997.55043,0.03143
2995.49026,0.03131
2993.43009,0.03123
2991.36991,0.03108
2989.30974,0.03070
2987.24957,0.03036
2985.18940,0.03022
2983.12923,0.03005
2981.06905,0.02988
2979.00888,0.02991
2976.94871,0.02988
2974.88854,0.02971
2972.82836,0.02965
2970.76819,0.02980
2968.70802,0.03000
2966.64785,0.03007
2964.58768,0.03011
2962.52750,0.03010
2960.46733,0.02973
2958.40716,0.02921
2956.34699,0.02897
2954.28682,0.02898
2952.22664,0.02904
2950.16647,0.02910
2948.10630,0.02910
2946.04613,0.02908
2943.98596,0.02903
2941.92578,0.02898
2939.86561,0.02896
2937.80544,0.02885
2935.74527,0.02884
2933.68509,0.02895
2931.62492,0.02881
2929.56475,0.02836
2927.50458,0.02799
2925.44441,0.02787
2923.38423,0.02784
2921.32406,0.02767
2919.26389,0.02747
2917.20372,0.02753
2915.14355,0.02750
2913.08337,0.02717
2911.02320,0.02695
2908.96303,0.02691
2906.90286,0.02678
2904.84268,0.02654
2902.78251,0.02623
2900.72234,0.02603
2898.66217,0.02608
2896.60200,0.02627
2894.54182,0.02643
2892.48165,0.02635
2890.42148,0.02607
2888.36131,0.02581
2886.30114,0.02567
2884.24096,0.02574
2882.18079,0.02589
2880.12062,0.02581
2878.06045,0.02556
2876.00028,0.02543
2873.94010,0.02536
2871.87993,0.02522
2869.81976,0.02502
2867.75959,0.02482
2865.69941,0.02472
2863.63924,0.02474
2861.57907,0.02479
2859.51890,0.02478
2857.45873,0.02462
2855.39855,0.02431
2853.33838,0.02409
2851.27821,0.02401
2849.21804,0.02390
2847.15787,0.02378
2845.09769,0.02369
2843.03752,0.02345
2840.97735,0.02319
2838.91718,0.02306
2836.85700,0.02290
2834.79683,0.02268
2832.73666,0.02262
2830.67649,0.02270
2828.61632,0.02254
2826.55614,0.02205
2824.49597,0.02163
2822.43580,0.02158
2820.37563,0.02162
2818.31546,0.02152
2816.25528,0.02157
2814.19511,0.02178
2812.13494,0.02173
2810.07477,0.02134
2808.01460,0.02094
2805.95442,0.02088
2803.89425,0.02106
2801.83408,0.02115
2799.77391,0.02119
2797.71373,0.02114
2795.65356,0.02094
2793.59339,0.02065
2791.53322,0.02038
2789.47305,0.02030
2787.41287,0.02038
2785.35270,0.02038
2783.29253,0.02019
2781.23236,0.02006
2779.17219,0.02015
2777.11201,0.02020
2775.05184,0.02004
2772.99167,0.01980
2770.93150,0.01959
2768.87133,0.01938
2766.81115,0.01918
2764.75098,0.01919
2762.69081,0.01941
2760.63064,0.01947
2758.57046,0.01930
2756.51029,0.01914
2754.45012,0.01904
2752.38995,0.01895
2750.32978,0.01887
2748.26960,0.01881
2746.20943,0.01873
2744.14926,0.01868
2742.08909,0.01860
2740.02892,0.01837
2737.96874,0.01815
2735.90857,0.01819
2733.84840,0.01835
2731.78823,0.01827
2729.72805,0.01790
2727.66788,0.01753
2725.60771,0.01742
2723.54754,0.01744
2721.48737,0.01750
2719.42719,0.01762
2717.36702,0.01766
2715.30685,0.01755
2713.24668,0.01716
2711.18651,0.01673
2709.12633,0.01669
2707.06616,0.01682
2705.00599,0.01675
2702.94582,0.01664
2700.88565,0.01657
2698.82547,0.01641
2696.76530,0.01612
2694.70513,0.01594
2692.64496,0.01600
2690.58478,0.01603
2688.52461,0.01585
2686.46444,0.01563
2684.40427,0.01546
2682.34410,0.01536
2680.28392,0.01527
2678.22375,0.01517
2676.16358,0.01521
2674.10341,0.01528
2672.04324,0.01501
2669.98306,0.01460
2667.92289,0.01444
2665.86272,0.01446
2663.80255,0.01452
2661.74238,0.01458
2659.68220,0.01455
2657.62203,0.01445
2655.56186,0.01423
2653.50169,0.01392
2651.44151,0.01374
2649.38134,0.01382
2647.32117,0.01395
2645.26100,0.01397
2643.20083,0.01390
2641.14065,0.01368
2639.08048,0.01338
2637.02031,0.01318
2634.96014,0.01289
2632.89997,0.01244
2630.83979,0.01232
2628.77962,0.01267
2626.71945,0.01300
2624.65928,0.01287
2622.59910,0.01258
2620.53893,0.01242
2618.47876,0.01233
2616.41859,0.01227
2614.35842,0.01204
2612.29824,0.01161
2610.23807,0.01132
2608.17790,0.01140
2606.11773,0.01170
2604.05756,0.01174
2601.99738,0.01130
2599.93721,0.01102
2597.87704,0.01129
2595.81687,0.01178
2593.75670,0.01195
2591.69652,0.01155
2589.63635,0.01127
2587.57618,0.01131
2585.51601,0.01122
2583.45583,0.01119
2581.39566,0.01128
2579.33549,0.01114
2577.27532,0.01099
2575.21515,0.01109
2573.15497,0.01126
2571.09480,0.01108
2569.03463,0.01054
2566.97446,0.01024
2564.91429,0.01027
2562.85411,0.01044
2560.79394,0.01072
2558.73377,0.01099
2556.67360,0.01123
2554.61342,0.01136
2552.55325,0.01119
2550.49308,0.01072
2548.43291,0.01036
2546.37274,0.01044
2544.31256,0.01073
2542.25239,0.01102
2540.19222,0.01137
2538.13205,0.01139
2536.07188,0.01103
2534.01170,0.01075
2531.95153,0.01057
2529.89136,0.01021
2527.83119,0.00997
2525.77102,0.01035
2523.71084,0.01076
2521.65067,0.01074
2519.59050,0.01070
2517.53033,0.01069
2515.47015,0.01062
2513.40998,0.01056
2511.34981,0.01048
2509.28964,0.01041
2507.22947,0.01060
2505.16929,0.01080
2503.10912,0.01080
2501.04895,0.01085
2498.98878,0.01114
2496.92861,0.01142
2494.86843,0.01128
2492.80826,0.01091
2490.74809,0.01085
2488.68792,0.01115
2486.62775,0.01147
2484.56757,0.01145
2482.50740,0.01101
2480.44723,0.01065
2478.38706,0.01079
2476.32688,0.01129
2474.26671,0.01159
2472.20654,0.01163
2470.14637,0.01170
2468.08620,0.01177
2466.02602,0.01183
2463.96585,0.01179
2461.90568,0.01167
2459.84551,0.01146
2457.78534,0.01126
2455.72516,0.01150
2453.66499,0.01187
2451.60482,0.01192
2449.54465,0.01200
2447.48447,0.01179
2445.42430,0.01107
2443.36413,0.01099
2441.30396,0.01154
2439.24379,0.01163
2437.18361,0.01144
2435.12344,0.01157
2433.06327,0.01179
2431.00310,0.01200
2428.94293,0.01205
2426.88275,0.01157
2424.82258,0.01095
2422.76241,0.01094
2420.70224,0.01149
2418.64207,0.01171
2416.58189,0.01150
2414.52172,0.01136
2412.46155,0.01150
2410.40138,0.01180
2408.34120,0.01166
2406.28103,0.01121
2404.22086,0.01115
2402.16069,0.01145
2400.10052,0.01170
2398.04034,0.01170
2395.98017,0.01168
2393.92000,0.01170
2391.85983,0.01161
2389.79966,0.01135
2387.73948,0.01108
2385.67931,0.01094
2383.61914,0.01095
2381.55897,0.01107
2379.49880,0.01109
2377.43862,0.01080
2375.37845,0.01074
2373.31828,0.01053
2371.25811,0.00998
2369.19793,0.01039
2367.13776,0.01181
2365.07759,0.01298
2363.01742,0.01441
2360.95725,0.01418
2358.89707,0.01409
2356.83690,0.01324
2354.77673,0.01287
2352.71656,0.01339
2350.65639,0.01126
2348.59621,0.00967
2346.53604,0.01319
2344.47587,0.01321
2342.41570,0.01238
2340.35552,0.01221
2338.29535,0.01139
2336.23518,0.01102
2334.17501,0.01080
2332.11484,0.01075
2330.05466,0.01102
2327.99449,0.01201
2325.93432,0.01177
2323.87415,0.01179
2321.81398,0.01181
2319.75380,0.01204
2317.69363,0.01113
2315.63346,0.01063
2313.57329,0.01088
2311.51312,0.01153
2309.45294,0.01222
2307.39277,0.01212
2305.33260,0.01143
2303.27243,0.01088
2301.21225,0.01073
2299.15208,0.01049
2297.09191,0.01028
2295.03174,0.01024
2292.97157,0.01017
2290.91139,0.01015
2288.85122,0.01023
2286.79105,0.01034
2284.73088,0.01040
2282.67071,0.01033
2280.61053,0.00999
2278.55036,0.00948
2276.49019,0.00918
2274.43002,0.00903
2272.36984,0.00891
2270.30967,0.00886
2268.24950,0.00881
2266.18933,0.00869
2264.12916,0.00866
2262.06898,0.00896
2260.00881,0.00944
2257.94864,0.00972
2255.88847,0.00966
2253.82830,0.00914
2251.76812,0.00863
2249.70795,0.00854
2247.64778,0.00853
2245.58761,0.00848
2243.52744,0.00821
2241.46726,0.00749
2239.40709,0.00713
2237.34692,0.00761
2235.28675,0.00817
2233.22657,0.00803
2231.16640,0.00740
2229.10623,0.00711
2227.04606,0.00742
2224.98589,0.00798
2222.92571,0.00835
2220.86554,0.00797
2218.80537,0.00738
2216.74520,0.00798
2214.68503,0.00883
2212.62485,0.00843
2210.56468,0.00781
2208.50451,0.00771
2206.44434,0.00778
2204.38417,0.00753
2202.32399,0.00649
2200.26382,0.00593
2198.20365,0.00643
2196.14348,0.00709
2194.08330,0.00760
2192.02313,0.00798
2189.96296,0.00762
2187.90279,0.00573
2185.84262,0.00384
2183.78244,0.00483
2181.72227,0.00763
2179.66210,0.00815
2177.60193,0.00646
2175.54176,0.00576
2173.48158,0.00606
2171.42141,0.00576
2169.36124,0.00591
2167.30107,0.00687
2165.24089,0.00708
2163.18072,0.00609
2161.12055,0.00406
2159.06038,0.00157
2157.00021,0.00000
2154.94003,0.00100
2152.87986,0.00376
2150.81969,0.00557
2148.75952,0.00517
2146.69935,0.00365
2144.63917,0.00304
2142.57900,0.00351
2140.51883,0.00425
2138.45866,0.00447
2136.39849,0.00401
2134.33831,0.00377
2132.27814,0.00394
2130.21797,0.00444
2128.15780,0.00523
2126.09762,0.00560
2124.03745,0.00523
2121.97728,0.00480
2119.91711,0.00500
2117.85694,0.00576
2115.79676,0.00673
2113.73659,0.00713
2111.67642,0.00660
2109.61625,0.00565
2107.55608,0.00497
2105.49590,0.00533
2103.43573,0.00618
2101.37556,0.00588
2099.31539,0.00471
2097.25521,0.00419
2095.19504,0.00467
2093.13487,0.00546
2091.07470,0.00581
2089.01453,0.00595
2086.95435,0.00596
2084.89418,0.00563
2082.83401,0.00524
2080.77384,0.00492
2078.71367,0.00490
2076.65349,0.00525
2074.59332,0.00507
2072.53315,0.00399
2070.47298,0.00348
2068.41281,0.00423
2066.35263,0.00469
2064.29246,0.00448
2062.23229,0.00421
2060.17212,0.00395
2058.11194,0.00368
2056.05177,0.00331
2053.99160,0.00324
2051.93143,0.00356
2049.87126,0.00376
2047.81108,0.00360
2045.75091,0.00334
2043.69074,0.00320
2041.63057,0.00313
2039.57040,0.00334
2037.51022,0.00393
2035.45005,0.00447
2033.38988,0.00438
2031.32971,0.00349
2029.26954,0.00220
2027.20936,0.00074
2025.14919,0.00000
2023.08902,0.00042
2021.02885,0.00065
2018.96867,0.00037
2016.90850,0.00107
2014.84833,0.00245
2012.78816,0.00313
2010.72799,0.00323
2008.66781,0.00237
2006.60764,0.00118
2004.54747,0.00157
2002.48730,0.00277
2000.42713,0.00336
1998.36695,0.00357
1996.30678,0.00354
1994.24661,0.00334
1992.18644,0.00362
1990.12626,0.00439
1988.06609,0.00485
1986.00592,0.00499
1983.94575,0.00462
1981.88558,0.00358
1979.82540,0.00266
1977.76523,0.00226
1975.70506,0.00206
1973.64489,0.00232
1971.58472,0.00304
1969.52454,0.00283
1967.46437,0.00141
1965.40420,0.00048
1963.34403,0.00034
1961.28386,0.00061
1959.22368,0.00147
1957.16351,0.00260
1955.10334,0.00299
1953.04317,0.00228
1950.98299,0.00155
1948.92282,0.00119
1946.86265,0.00054
1944.80248,0.00000
1942.74231,0.00041
1940.68213,0.00159
1938.62196,0.00208
1936.56179,0.00208
1934.50162,0.00259
1932.44145,0.00277
1930.38127,0.00192
1928.32110,0.00138
1926.26093,0.00196
1924.20076,0.00249
1922.14059,0.00269
1920.08041,0.00270
1918.02024,0.00240
1915.96007,0.00237
1913.89990,0.00206
1911.83972,0.00137
1909.77955,0.00094
1907.71938,0.00115
1905.65921,0.00164
1903.59904,0.00176
1901.53886,0.00150
1899.47869,0.00126
1897.41852,0.00098
1895.35835,0.00087
1893.29818,0.00153
1891.23800,0.00178
1889.17783,0.00159
1887.11766,0.00201
1885.05749,0.00220
1882.99731,0.00185
1880.93714,0.00159
1878.87697,0.00176
1876.81680,0.00210
1874.75663,0.00237
1872.69645,0.00245
1870.63628,0.00202
1868.57611,0.00179
1866.51594,0.00236
1864.45577,0.00265
1862.39559,0.00244
1860.33542,0.00241
1858.27525,0.00264
1856.21508,0.00280
1854.15491,0.00287
1852.09473,0.00300
1850.03456,0.00310
1847.97439,0.00296
1845.91422,0.00216
1843.85404,0.00176
1841.79387,0.00280
1839.73370,0.00323
1837.67353,0.00282
1835.61336,0.00278
1833.55318,0.00279
1831.49301,0.00218
1829.43284,0.00223
1827.37267,0.00304
1825.31250,0.00306
1823.25232,0.00301
1821.19215,0.00295
1819.13198,0.00253
1817.07181,0.00252
1815.01163,0.00299
1812.95146,0.00307
1810.89129,0.00285
1808.83112,0.00309
1806.77095,0.00353
1804.71077,0.00370
1802.65060,0.00343
1800.59043,0.00325
1798.53026,0.00374
1796.47009,0.00416
1794.40991,0.00367
1792.34974,0.00299
1790.28957,0.00362
1788.22940,0.00429
1786.16923,0.00405
1784.10905,0.00376
1782.04888,0.00345
1779.98871,0.00330
1777.92854,0.00370
1775.86836,0.00359
1773.80819,0.00260
1771.74802,0.00246
1769.68785,0.00371
1767.62768,0.00473
1765.56750,0.00533
1763.50733,0.00479
1761.44716,0.00410
1759.38699,0.00427
1757.32682,0.00427
1755.26664,0.00476
1753.20647,0.00492
1751.14630,0.00434
1749.08613,0.00465
1747.02596,0.00541
1744.96578,0.00563
1742.90561,0.00546
1740.84544,0.00540
1738.78527,0.00635
1736.72509,0.00681
1734.66492,0.00546
1732.60475,0.00583
1730.54458,0.00691
1728.48441,0.00691
1726.42423,0.00668
1724.36406,0.00663
1722.30389,0.00725
1720.24372,0.00716
1718.18355,0.00593
1716.12337,0.00624
1714.06320,0.00759
1712.00303,0.00843
1709.94286,0.00876
1707.88268,0.00882
1705.82251,0.00931
1703.76234,0.01044
1701.70217,0.00980
1699.64200,0.00906
1697.58182,0.00958
1695.52165,0.00985
1693.46148,0.01130
1691.40131,0.01197
1689.34114,0.01226
1687.28096,0.01257
1685.22079,0.01129
1683.16062,0.01175
1681.10045,0.01415
1679.04028,0.01508
1676.98010,0.01440
1674.91993,0.01422
1672.85976,0.01530
1670.79959,0.01505
1668.73941,0.01512
1666.67924,0.01649
1664.61907,0.01640
1662.55890,0.01580
1660.49873,0.01688
1658.43855,0.01815
1656.37838,0.01736
1654.31821,0.01444
1652.25804,0.01529
1650.19787,0.01859
1648.13769,0.01766
1646.07752,0.01636
1644.01735,0.01758
1641.95718,0.01827
1639.89701,0.01794
1637.83683,0.01657
1635.77666,0.01533
1633.71649,0.01672
1631.65632,0.01764
1629.59614,0.01655
1627.53597,0.01573
1625.47580,0.01550
1623.41563,0.01516
1621.35546,0.01576
1619.29528,0.01541
1617.23511,0.01371
1615.17494,0.01403
1613.11477,0.01494
1611.05460,0.01436
1608.99442,0.01355
1606.93425,0.01321
1604.87408,0.01277
1602.81391,0.01219
1600.75373,0.01195
1598.69356,0.01173
1596.63339,0.01114
1594.57322,0.01060
1592.51305,0.01042
1590.45287,0.01023
1588.39270,0.00998
1586.33253,0.00971
1584.27236,0.00944
1582.21219,0.00948
1580.15201,0.00958
1578.09184,0.00838
1576.03167,0.00733
1573.97150,0.00871
1571.91133,0.00875
1569.85115,0.00707
1567.79098,0.00713
1565.73081,0.00773
1563.67064,0.00807
1561.61046,0.00675
1559.55029,0.00375
1557.49012,0.00525
1555.42995,0.00721
1553.36978,0.00670
1551.30960,0.00570
1549.24943,0.00554
1547.18926,0.00613
1545.12909,0.00596
1543.06892,0.00502
1541.00874,0.00347
1538.94857,0.00421
1536.88840,0.00622
1534.82823,0.00519
1532.76805,0.00406
1530.70788,0.00494
1528.64771,0.00491
1526.58754,0.00441
1524.52737,0.00420
1522.46719,0.00301
1520.40702,0.00290
1518.34685,0.00360
1516.28668,0.00365
1514.22651,0.00432
1512.16633,0.00485
1510.10616,0.00401
1508.04599,0.00112
1505.98582,0.00052
1503.92565,0.00313
1501.86547,0.00382
1499.80530,0.00260
1497.74513,0.00182
1495.68496,0.00281
1493.62478,0.00398
1491.56461,0.00302
1489.50444,0.00174
1487.44427,0.00218
1485.38410,0.00286
1483.32392,0.00274
1481.26375,0.00250
1479.20358,0.00282
1477.14341,0.00291
1475.08324,0.00247
1473.02306,0.00213
1470.96289,0.00328
1468.90272,0.00425
1466.84255,0.00332
1464.78238,0.00270
1462.72220,0.00397
1460.66203,0.00419
1458.60186,0.00199
1456.54169,0.00126
1454.48151,0.00328
1452.42134,0.00404
1450.36117,0.00327
1448.30100,0.00254
1446.24083,0.00275
1444.18065,0.00315
1442.12048,0.00331
1440.06031,0.00336
1438.00014,0.00258
1435.93997,0.00253
1433.87979,0.00371
1431.81962,0.00356
1429.75945,0.00298
1427.69928,0.00339
1425.63910,0.00371
1423.57893,0.00402
1421.51876,0.00401
1419.45859,0.00306
1417.39842,0.00336
1415.33824,0.00415
1413.27807,0.00387
1411.21790,0.00334
1409.15773,0.00326
1407.09756,0.00307
1405.03738,0.00290
1402.97721,0.00344
1400.91704,0.00358
1398.85687,0.00315
1396.79670,0.00280
1394.73652,0.00240
1392.67635,0.00274
1390.61618,0.00306
1388.55601,0.00259
1386.49583,0.00247
1384.43566,0.00287
1382.37549,0.00292
1380.31532,0.00284
1378.25515,0.00282
1376.19497,0.00246
1374.13480,0.00217
1372.07463,0.00277
1370.01446,0.00323
1367.95429,0.00327
1365.89411,0.00316
1363.83394,0.00253
1361.77377,0.00223
1359.71360,0.00240
1357.65343,0.00219
1355.59325,0.00189
1353.53308,0.00196
1351.47291,0.00209
1349.41274,0.00204
1347.35256,0.00203
1345.29239,0.00210
1343.23222,0.00202
1341.17205,0.00150
1339.11188,0.00110
1337.05170,0.00135
1334.99153,0.00156
1332.93136,0.00150
1330.87119,0.00151
1328.81102,0.00168
1326.75084,0.00183
1324.69067,0.00193
1322.63050,0.00193
1320.57033,0.00174
1318.51015,0.00164
1316.44998,0.00177
1314.38981,0.00172
1312.32964,0.00170
1310.26947,0.00184
1308.20929,0.00180
1306.14912,0.00162
1304.08895,0.00151
1302.02878,0.00161
1299.96861,0.00186
1297.90843,0.00199
1295.84826,0.00193
1293.78809,0.00186
1291.72792,0.00187
1289.66775,0.00195
1287.60757,0.00208
1285.54740,0.00227
1283.48723,0.00244
1281.42706,0.00248
1279.36688,0.00243
1277.30671,0.00240
1275.24654,0.00249
1273.18637,0.00259
1271.12620,0.00269
1269.06602,0.00289
1267.00585,0.00304
1264.94568,0.00307
1262.88551,0.00294
1260.82534,0.00269
1258.76516,0.00269
1256.70499,0.00291
1254.64482,0.00296
1252.58465,0.00289
1250.52447,0.00284
1248.46430,0.00275
1246.40413,0.00263
1244.34396,0.00250
1242.28379,0.00239
1240.22361,0.00231
1238.16344,0.00222
1236.10327,0.00214
1234.04310,0.00211
1231.98293,0.00198
1229.92275,0.00172
1227.86258,0.00150
1225.80241,0.00141
1223.74224,0.00133
1221.68207,0.00111
1219.62189,0.00081
1217.56172,0.00055
1215.50155,0.00042
1213.44138,0.00039
1211.38120,0.00034
1209.32103,0.00033
1207.26086,0.00031
1205.20069,0.00013
1203.14052,0.00000
1201.08034,0.00019
1199.02017,0.00054
1196.96000,0.00089
1194.89983,0.00123
1192.83966,0.00138
1190.77948,0.00139
1188.71931,0.00150
1186.65914,0.00162
1184.59897,0.00183
1182.53880,0.00236
1180.47862,0.00299
1178.41845,0.00367
1176.35828,0.00452
1174.29811,0.00535
1172.23793,0.00600
1170.17776,0.00656
1168.11759,0.00724
1166.05742,0.00813
1163.99725,0.00907
1161.93707,0.00987
1159.87690,0.01054
1157.81673,0.01124
1155.75656,0.01196
1153.69639,0.01251
1151.63621,0.01304
1149.57604,0.01385
1147.51587,0.01480
1145.45570,0.01562
1143.39552,0.01650
1141.33535,0.01740
1139.27518,0.01807
1137.21501,0.01886
1135.15484,0.02004
1133.09466,0.02126
1131.03449,0.02231
1128.97432,0.02322
1126.91415,0.02417
1124.85398,0.02519
1122.79380,0.02623
1120.73363,0.02739
1118.67346,0.02860
1116.61329,0.02971
1114.55312,0.03091
1112.49294,0.03228
1110.43277,0.03368
1108.37260,0.03501
1106.31243,0.03626
1104.25225,0.03743
1102.19208,0.03860
1100.13191,0.03989
1098.07174,0.04128
1096.01157,0.04251
1093.95139,0.04348
1091.89122,0.04433
1089.83105,0.04515
1087.77088,0.04604
1085.71071,0.04715
1083.65053,0.04837
1081.59036,0.04938
1079.53019,0.05008
1077.47002,0.05073
1075.40985,0.05139
1073.34967,0.05186
1071.28950,0.05229
1069.22933,0.05266
1067.16916,0.05272
1065.10898,0.05271
1063.04881,0.05276
1060.98864,0.05271
1058.92847,0.05231
1056.86830,0.05141
1054.80812,0.05040
1052.74795,0.04975
1050.68778,0.04922
1048.62761,0.04834
1046.56744,0.04702
1044.50726,0.04555
1042.44709,0.04429
1040.38692,0.04331
1038.32675,0.04227
1036.26657,0.04083
1034.20640,0.03917
1032.14623,0.03770
1030.08606,0.03655
1028.02589,0.03557
1025.96571,0.03476
1023.90554,0.03395
1021.84537,0.03288
1019.78520,0.03187
1017.72503,0.03112
1015.66485,0.03050
1013.60468,0.03002
1011.54451,0.02968
1009.48434,0.02941
1007.42417,0.02922
1005.36399,0.02927
1003.30382,0.02959
1001.24365,0.03016
999.18348,0.03098
997.12330,0.03178
995.06313,0.03227
993.00296,0.03278
990.94279,0.03360
988.88262,0.03442
986.82244,0.03506
984.76227,0.03548
982.70210,0.03539
980.64193,0.03499
978.58176,0.03460
976.52158,0.03397
974.46141,0.03294
972.40124,0.03160
970.34107,0.03011
968.28089,0.02871
966.22072,0.02730
964.16055,0.02588
962.10038,0.02457
960.04021,0.02327
957.98003,0.02208
955.91986,0.02130
953.85969,0.02076
951.79952,0.02003
949.73935,0.01919
947.67917,0.01865
945.61900,0.01833
943.55883,0.01799
941.49866,0.01791
939.43849,0.01815
937.37831,0.01813
935.31814,0.01769
933.25797,0.01722
931.19780,0.01684
929.13762,0.01653
927.07745,0.01627
925.01728,0.01612
922.95711,0.01594
920.89694,0.01532
918.83676,0.01451
916.77659,0.01409
914.71642,0.01400
912.65625,0.01377
910.59608,0.01333
908.53590,0.01295
906.47573,0.01275
904.41556,0.01273
902.35539,0.01261
900.29522,0.01242
898.23504,0.01250
896.17487,0.01261
894.11470,0.01272
892.05453,0.01314
889.99435,0.01346
887.93418,0.01364
885.87401,0.01399
883.81384,0.01418
881.75367,0.01431
879.69349,0.01477
877.63332,0.01520
875.57315,0.01547
873.51298,0.01586
871.45281,0.01629
869.39263,0.01670
867.33246,0.01711
865.27229,0.01719
863.21212,0.01700
861.15194,0.01681
859.09177,0.01672
857.03160,0.01681
854.97143,0.01687
852.91126,0.01653
850.85108,0.01597
848.79091,0.01535
846.73074,0.01480
844.67057,0.01444
842.61040,0.01397
840.55022,0.01336
838.49005,0.01264
836.42988,0.01198
834.36971,0.01173
832.30954,0.01149
830.24936,0.01100
828.18919,0.01071
826.12902,0.01054
824.06885,0.01027
822.00867,0.01011
819.94850,0.00984
817.88833,0.00919
815.82816,0.00839
813.76799,0.00792
811.70781,0.00803
809.64764,0.00817
807.58747,0.00783
805.52730,0.00745
803.46713,0.00728
801.40695,0.00687
799.34678,0.00647
797.28661,0.00655
795.22644,0.00665
793.16627,0.00628
791.10609,0.00586
789.04592,0.00586
786.98575,0.00593
784.92558,0.00556
782.86540,0.00505
780.80523,0.00515
778.74506,0.00570
776.68489,0.00581
774.62472,0.00564
772.56454,0.00582
770.50437,0.00615
768.44420,0.00616
766.38403,0.00577
764.32386,0.00512
762.26368,0.00429
760.20351,0.00369
758.14334,0.00357
756.08317,0.00358
754.02299,0.00343
751.96282,0.00333
749.90265,0.00359
747.84248,0.00377
745.78231,0.00351
743.72213,0.00354
741.66196,0.00411
739.60179,0.00442
737.54162,0.00437
735.48145,0.00425
733.42127,0.00381
731.36110,0.00345
729.30093,0.00388
727.24076,0.00446
725.18059,0.00439
723.12041,0.00415
721.06024,0.00454
719.00007,0.00397
716.93990,0.00342
714.87972,0.00349
712.81955,0.00373
710.75938,0.00419
708.69921,0.00459
706.63904,0.00448
704.57886,0.00418
702.51869,0.00412
700.45852,0.00406
698.39835,0.00379
696.33818,0.00317
694.27800,0.00240
692.21783,0.00234
690.15766,0.00318
688.09749,0.00422
686.03731,0.00474
683.97714,0.00444
681.91697,0.00366
679.85680,0.00289
677.79663,0.00228
675.73645,0.00204
673.67628,0.00132
671.61611,0.00000
669.55594,0.00510
667.49577,0.01056
665.43559,0.00162
663.37542,0.00127
661.31525,0.00233
659.25508,0.00169
657.19491,0.00072
655.13473,0.00021
653.07456,0.00012
651.01439,0.00046
648.95422,0.00139
646.89404,0.00226
644.83387,0.00336
642.77370,0.00422
640.71353,0.00453
638.65336,0.00444
636.59318,0.00423
634.53301,0.00404
632.47284,0.00363
630.41267,0.00275
628.35250,0.00187
626.29232,0.00134
624.23215,0.00144
622.17198,0.00241
620.11181,0.00318
618.05164,0.00351
615.99146,0.00346
613.93129,0.00195
611.87112,0.00015
609.81095,-0.00051
607.75077,-0.00028
605.69060,0.00050
603.63043,0.00141
601.57026,0.00130
599.51009,0.00000
