3996.73391,0.00013
3994.67373,-0.00014
3992.61356,-0.00017
3990.55339,-0.00002
3988.49322,0.00002
3986.43305,-0.00001
3984.37287,0.00009
3982.31270,0.00029
3980.25253,0.00060
3978.19236,0.00087
3976.13219,0.00064
3974.07201,0.00003
3972.01184,-0.00016
3969.95167,0.00020
3967.89150,0.00041
3965.83133,0.00041
3963.77115,0.00062
3961.71098,0.00098
3959.65081,0.00113
3957.59064,0.00102
3955.53046,0.00086
3953.47029,0.00075
3951.41012,0.00057
3949.34995,0.00022
3947.28978,0.00000
3945.22960,0.00020
3943.16943,0.00054
3941.10926,0.00065
3939.04909,0.00067
3936.98892,0.00083
3934.92874,0.00095
3932.86857,0.00074
3930.80840,0.00029
3928.74823,0.00000
3926.68805,0.00019
3924.62788,0.00058
3922.56771,0.00074
3920.50754,0.00068
3918.44737,0.00065
3916.38719,0.00076
3914.32702,0.00095
3912.26685,0.00114
3910.20668,0.00133
3908.14651,0.00139
3906.08633,0.00127
3904.02616,0.00112
3901.96599,0.00108
3899.90582,0.00111
3897.84565,0.00103
3895.78547,0.00091
3893.72530,0.00082
3891.66513,0.00082
3889.60496,0.00088
3887.54478,0.00072
3885.48461,0.00029
3883.42444,-0.00000
3881.36427,0.00000
3879.30410,0.00020
3877.24392,0.00052
3875.18375,0.00101
3873.12358,0.00153
3871.06341,0.00156
3869.00324,0.00115
3866.94306,0.00097
3864.88289,0.00125
3862.82272,0.00146
3860.76255,0.00132
3858.70237,0.00121
3856.64220,0.00139
3854.58203,0.00176
3852.52186,0.00195
3850.46169,0.00179
3848.40151,0.00157
3846.34134,0.00126
3844.28117,0.00078
3842.22100,0.00046
3840.16083,0.00056
3838.10065,0.00074
3836.04048,0.00079
3833.98031,0.00096
3831.92014,0.00115
3829.85997,0.00108
3827.79979,0.00096
3825.73962,0.00106
3823.67945,0.00127
3821.61928,0.00143
3819.55910,0.00152
3817.49893,0.00163
3815.43876,0.00181
3813.37859,0.00165
3811.31842,0.00115
3809.25824,0.00079
3807.19807,0.00088
3805.13790,0.00130
3803.07773,0.00165
3801.01756,0.00177
3798.95738,0.00174
3796.89721,0.00158
3794.83704,0.00125
3792.77687,0.00111
3790.71670,0.00124
3788.65652,0.00123
3786.59635,0.00088
3784.53618,0.00039
3782.47601,0.00000
3780.41583,0.00006
3778.35566,0.00054
3776.29549,0.00070
3774.23532,0.00054
3772.17515,0.00060
3770.11497,0.00091
3768.05480,0.00123
3765.99463,0.00145
3763.93446,0.00151
3761.87429,0.00158
3759.81411,0.00171
3757.75394,0.00169
3755.69377,0.00162
3753.63360,0.00180
3751.57342,0.00211
3749.51325,0.00220
3747.45308,0.00204
3745.39291,0.00177
3743.33274,0.00146
3741.27256,0.00148
3739.21239,0.00176
3737.15222,0.00190
3735.09205,0.00190
3733.03188,0.00194
3730.97170,0.00203
3728.91153,0.00249
3726.85136,0.00291
3724.79119,0.00243
3722.73102,0.00133
3720.67084,0.00083
3718.61067,0.00119
3716.55050,0.00170
3714.49033,0.00193
3712.43015,0.00195
3710.36998,0.00166
3708.30981,0.00131
3706.24964,0.00133
3704.18947,0.00143
3702.12929,0.00121
3700.06912,0.00099
3698.00895,0.00110
3695.94878,0.00124
3693.88861,0.00125
3691.82843,0.00140
3689.76826,0.00180
3687.70809,0.00188
3685.64792,0.00140
3683.58775,0.00098
3681.52757,0.00114
3679.46740,0.00186
3677.40723,0.00267
3675.34706,0.00292
3673.28688,0.00261
3671.22671,0.00255
3669.16654,0.00274
3667.10637,0.00265
3665.04620,0.00255
3662.98602,0.00272
3660.92585,0.00293
3658.86568,0.00302
3656.80551,0.00327
3654.74534,0.00375
3652.68516,0.00437
3650.62499,0.00500
3648.56482,0.00504
3646.50465,0.00455
3644.44447,0.00451
3642.38430,0.00498
3640.32413,0.00541
3638.26396,0.00574
3636.20379,0.00625
3634.14361,0.00674
3632.08344,0.00685
3630.02327,0.00676
3627.96310,0.00699
3625.90293,0.00746
3623.84275,0.00788
3621.78258,0.00842
3619.72241,0.00913
3617.66224,0.00958
3615.60207,0.00962
3613.54189,0.00953
3611.48172,0.00951
3609.42155,0.00979
3607.36138,0.01046
3605.30120,0.01097
3603.24103,0.01106
3601.18086,0.01118
3599.12069,0.01149
3597.06052,0.01182
3595.00034,0.01218
3592.94017,0.01249
3590.88000,0.01278
3588.81983,0.01363
3586.75966,0.01476
3584.69948,0.01495
3582.63931,0.01453
3580.57914,0.01435
3578.51897,0.01437
3576.45879,0.01457
3574.39862,0.01516
3572.33845,0.01589
3570.27828,0.01639
3568.21811,0.01684
3566.15793,0.01746
3564.09776,0.01797
3562.03759,0.01808
3559.97742,0.01782
3557.91725,0.01755
3555.85707,0.01758
3553.79690,0.01780
3551.73673,0.01797
3549.67656,0.01821
3547.61639,0.01885
3545.55621,0.01968
3543.49604,0.02018
3541.43587,0.02041
3539.37570,0.02075
3537.31552,0.02120
3535.25535,0.02161
3533.19518,0.02188
3531.13501,0.02201
3529.07484,0.02223
3527.01466,0.02280
3524.95449,0.02352
3522.89432,0.02396
3520.83415,0.02417
3518.77398,0.02449
3516.71380,0.02499
3514.65363,0.02536
3512.59346,0.02542
3510.53329,0.02541
3508.47312,0.02558
3506.41294,0.02591
3504.35277,0.02616
3502.29260,0.02629
3500.23243,0.02665
3498.17225,0.02733
3496.11208,0.02777
3494.05191,0.02780
3491.99174,0.02799
3489.93157,0.02863
3487.87139,0.02930
3485.81122,0.02963
3483.75105,0.02968
3481.69088,0.02969
3479.63071,0.02978
3477.57053,0.02996
3475.51036,0.03016
3473.45019,0.03018
3471.39002,0.03019
3469.32984,0.03048
3467.26967,0.03073
3465.20950,0.03090
3463.14933,0.03125
3461.08916,0.03157
3459.02898,0.03183
3456.96881,0.03238
3454.90864,0.03296
3452.84847,0.03314
3450.78830,0.03312
3448.72812,0.03300
3446.66795,0.03277
3444.60778,0.03285
3442.54761,0.03344
3440.48744,0.03398
3438.42726,0.03428
3436.36709,0.03455
3434.30692,0.03468
3432.24675,0.03483
3430.18657,0.03524
3428.12640,0.03539
3426.06623,0.03518
3424.00606,0.03524
3421.94589,0.03567
3419.88571,0.03618
3417.82554,0.03655
3415.76537,0.03659
3413.70520,0.03638
3411.64503,0.03624
3409.58485,0.03643
3407.52468,0.03691
3405.46451,0.03751
3403.40434,0.03785
3401.34416,0.03776
3399.28399,0.03760
3397.22382,0.03759
3395.16365,0.03761
3393.10348,0.03773
3391.04330,0.03786
3388.98313,0.03799
3386.92296,0.03842
3384.86279,0.03905
3382.80262,0.03929
3380.74244,0.03904
3378.68227,0.03875
3376.62210,0.03866
3374.56193,0.03876
3372.50176,0.03901
3370.44158,0.03933
3368.38141,0.03946
3366.32124,0.03944
3364.26107,0.03964
3362.20089,0.04002
3360.14072,0.04034
3358.08055,0.04047
3356.02038,0.04053
3353.96021,0.04072
3351.90003,0.04084
3349.83986,0.04063
3347.77969,0.04050
3345.71952,0.04072
3343.65935,0.04084
3341.59917,0.04066
3339.53900,0.04050
3337.47883,0.04060
3335.41866,0.04090
3333.35849,0.04123
3331.29831,0.04131
3329.23814,0.04124
3327.17797,0.04133
3325.11780,0.04138
3323.05762,0.04133
3320.99745,0.04136
3318.93728,0.04147
3316.87711,0.04157
3314.81694,0.04164
3312.75676,0.04162
3310.69659,0.04138
3308.63642,0.04116
3306.57625,0.04126
3304.51608,0.04143
3302.45590,0.04148
3300.39573,0.04150
3298.33556,0.04159
3296.27539,0.04184
3294.21521,0.04196
3292.15504,0.04178
3290.09487,0.04167
3288.03470,0.04177
3285.97453,0.04198
3283.91435,0.04212
3281.85418,0.04204
3279.79401,0.04210
3277.73384,0.04239
3275.67367,0.04232
3273.61349,0.04195
3271.55332,0.04183
3269.49315,0.04191
3267.43298,0.04207
3265.37281,0.04223
3263.31263,0.04223
3261.25246,0.04216
3259.19229,0.04223
3257.13212,0.04241
3255.07194,0.04236
3253.01177,0.04195
3250.95160,0.04151
3248.89143,0.04153
3246.83126,0.04196
3244.77108,0.04228
3242.71091,0.04232
3240.65074,0.04225
3238.59057,0.04217
3236.53040,0.04214
3234.47022,0.04231
3232.41005,0.04246
3230.34988,0.04234
3228.28971,0.04211
3226.22954,0.04195
3224.16936,0.04179
3222.10919,0.04172
3220.04902,0.04183
3217.98885,0.04178
3215.92867,0.04147
3213.86850,0.04144
3211.80833,0.04173
3209.74816,0.04192
3207.68799,0.04195
3205.62781,0.04198
3203.56764,0.04208
3201.50747,0.04208
3199.44730,0.04182
3197.38713,0.04149
3195.32695,0.04146
3193.26678,0.04150
3191.20661,0.04122
3189.14644,0.04089
3187.08626,0.04088
3185.02609,0.04109
3182.96592,0.04123
3180.90575,0.04115
3178.84558,0.04089
3176.78540,0.04069
3174.72523,0.04061
3172.66506,0.04044
3170.60489,0.04024
3168.54472,0.04019
3166.48454,0.04015
3164.42437,0.04024
3162.36420,0.04058
3160.30403,0.04063
3158.24386,0.04027
3156.18368,0.04008
3154.12351,0.04013
3152.06334,0.03992
3150.00317,0.03927
3147.94299,0.03863
3145.88282,0.03860
3143.82265,0.03899
3141.76248,0.03924
3139.70231,0.03927
3137.64213,0.03920
3135.58196,0.03913
3133.52179,0.03897
3131.46162,0.03876
3129.40145,0.03865
3127.34127,0.03852
3125.28110,0.03815
3123.22093,0.03774
3121.16076,0.03749
3119.10058,0.03750
3117.04041,0.03772
3114.98024,0.03780
3112.92007,0.03754
3110.85990,0.03708
3108.79972,0.03674
3106.73955,0.03666
3104.67938,0.03653
3102.61921,0.03637
3100.55904,0.03645
3098.49886,0.03657
3096.43869,0.03634
3094.37852,0.03594
3092.31835,0.03572
3090.25818,0.03549
3088.19800,0.03510
3086.13783,0.03482
3084.07766,0.03464
3082.01749,0.03456
3079.95731,0.03481
3077.89714,0.03510
3075.83697,0.03497
3073.77680,0.03457
3071.71663,0.03421
3069.65645,0.03394
3067.59628,0.03367
3065.53611,0.03354
3063.47594,0.03363
3061.41577,0.03371
3059.35559,0.03359
3057.29542,0.03336
3055.23525,0.03308
3053.17508,0.03263
3051.11491,0.03220
3049.05473,0.03199
3046.99456,0.03191
3044.93439,0.03194
3042.87422,0.03211
3040.81404,0.03211
3038.75387,0.03175
3036.69370,0.03115
3034.63353,0.03056
3032.57336,0.03036
3030.51318,0.03050
3028.45301,0.03060
3026.39284,0.03044
3024.33267,0.03005
3022.27250,0.02977
3020.21232,0.02965
3018.15215,0.02958
3016.09198,0.02962
3014.03181,0.02958
3011.97163,0.02930
3009.91146,0.02890
3007.85129,0.02848
3005.79112,0.02811
3003.73095,0.02775
3001.67077,0.02752
2999.61060,0.02768
2997.55043,0.02793
2995.49026,0.02777
2993.43009,0.02738
2991.36991,0.02714
2989.30974,0.02708
2987.24957,0.02704
2985.18940,0.02702
2983.12923,0.02691
2981.06905,0.02658
2979.00888,0.02621
2976.94871,0.02599
2974.88854,0.02573
2972.82836,0.02553
2970.76819,0.02569
2968.70802,0.02604
2966.64785,0.02618
2964.58768,0.02616
2962.52750,0.02605
2960.46733,0.02587
2958.40716,0.02566
2956.34699,0.02546
2954.28682,0.02534
2952.22664,0.02523
2950.16647,0.02514
2948.10630,0.02519
2946.04613,0.02532
2943.98596,0.02534
2941.92578,0.02529
2939.86561,0.02522
2937.80544,0.02505
2935.74527,0.02502
2933.68509,0.02515
2931.62492,0.02500
2929.56475,0.02463
2927.50458,0.02449
2925.44441,0.02454
2923.38423,0.02446
2921.32406,0.02422
2919.26389,0.02401
2917.20372,0.02375
2915.14355,0.02329
2913.08337,0.02287
2911.02320,0.02283
2908.96303,0.02313
2906.90286,0.02340
2904.84268,0.02319
2902.78251,0.02261
2900.72234,0.02237
2898.66217,0.02270
2896.60200,0.02306
2894.54182,0.02308
2892.48165,0.02280
2890.42148,0.02256
2888.36131,0.02258
2886.30114,0.02261
2884.24096,0.02246
2882.18079,0.02225
2880.12062,0.02212
2878.06045,0.02203
2876.00028,0.02186
2873.94010,0.02171
2871.87993,0.02177
2869.81976,0.02189
2867.75959,0.02183
2865.69941,0.02165
2863.63924,0.02156
2861.57907,0.02154
2859.51890,0.02153
2857.45873,0.02135
2855.39855,0.02099
2853.33838,0.02087
2851.27821,0.02087
2849.21804,0.02066
2847.15787,0.02042
2845.09769,0.02021
2843.03752,0.01998
2840.97735,0.01989
2838.91718,0.01985
2836.85700,0.01974
2834.79683,0.01966
2832.73666,0.01959
2830.67649,0.01953
2828.61632,0.01954
2826.55614,0.01940
2824.49597,0.01913
2822.43580,0.01903
2820.37563,0.01913
2818.31546,0.01915
2816.25528,0.01910
2814.19511,0.01906
2812.13494,0.01889
2810.07477,0.01860
2808.01460,0.01845
2805.95442,0.01854
2803.89425,0.01867
2801.83408,0.01875
2799.77391,0.01870
2797.71373,0.01835
2795.65356,0.01800
2793.59339,0.01793
2791.53322,0.01792
2789.47305,0.01779
2787.41287,0.01774
2785.35270,0.01779
2783.29253,0.01763
2781.23236,0.01733
2779.17219,0.01725
2777.11201,0.01731
2775.05184,0.01717
2772.99167,0.01699
2770.93150,0.01702
2768.87133,0.01707
2766.81115,0.01687
2764.75098,0.01667
2762.69081,0.01686
2760.63064,0.01717
2758.57046,0.01707
2756.51029,0.01662
2754.45012,0.01617
2752.38995,0.01593
2750.32978,0.01598
2748.26960,0.01614
2746.20943,0.01622
2744.14926,0.01639
2742.08909,0.01637
2740.02892,0.01601
2737.96874,0.01568
2735.90857,0.01559
2733.84840,0.01567
2731.78823,0.01561
2729.72805,0.01530
2727.66788,0.01502
2725.60771,0.01490
2723.54754,0.01489
2721.48737,0.01504
2719.42719,0.01514
2717.36702,0.01500
2715.30685,0.01478
2713.24668,0.01451
2711.18651,0.01432
2709.12633,0.01445
2707.06616,0.01455
2705.00599,0.01439
2702.94582,0.01425
2700.88565,0.01418
2698.82547,0.01406
2696.76530,0.01389
2694.70513,0.01379
2692.64496,0.01367
2690.58478,0.01342
2688.52461,0.01319
2686.46444,0.01303
2684.40427,0.01291
2682.34410,0.01286
2680.28392,0.01286
2678.22375,0.01275
2676.16358,0.01258
2674.10341,0.01246
2672.04324,0.01232
2669.98306,0.01227
2667.92289,0.01235
2665.86272,0.01246
2663.80255,0.01259
2661.74238,0.01259
2659.68220,0.01235
2657.62203,0.01212
2655.56186,0.01208
2653.50169,0.01198
2651.44151,0.01172
2649.38134,0.01153
2647.32117,0.01147
2645.26100,0.01151
2643.20083,0.01160
2641.14065,0.01155
2639.08048,0.01142
2637.02031,0.01134
2634.96014,0.01116
2632.89997,0.01078
2630.83979,0.01059
2628.77962,0.01069
2626.71945,0.01072
2624.65928,0.01044
2622.59910,0.01005
2620.53893,0.00989
2618.47876,0.00997
2616.41859,0.01002
2614.35842,0.00983
2612.29824,0.00945
2610.23807,0.00915
2608.17790,0.00920
2606.11773,0.00969
2604.05756,0.01013
2601.99738,0.00992
2599.93721,0.00949
2597.87704,0.00948
2595.81687,0.00978
2593.75670,0.00987
2591.69652,0.00950
2589.63635,0.00928
2587.57618,0.00952
2585.51601,0.00971
2583.45583,0.00967
2581.39566,0.00945
2579.33549,0.00904
2577.27532,0.00890
2575.21515,0.00911
2573.15497,0.00916
2571.09480,0.00884
2569.03463,0.00836
2566.97446,0.00813
2564.91429,0.00819
2562.85411,0.00818
2560.79394,0.00807
2558.73377,0.00837
2556.67360,0.00909
2554.61342,0.00944
2552.55325,0.00925
2550.49308,0.00891
2548.43291,0.00848
2546.37274,0.00820
2544.31256,0.00824
2542.25239,0.00847
2540.19222,0.00877
2538.13205,0.00888
2536.07188,0.00896
2534.01170,0.00929
2531.95153,0.00928
2529.89136,0.00870
2527.83119,0.00825
2525.77102,0.00827
2523.71084,0.00861
2521.65067,0.00893
2519.59050,0.00904
2517.53033,0.00906
2515.47015,0.00910
2513.40998,0.00900
2511.34981,0.00865
2509.28964,0.00862
2507.22947,0.00897
2505.16929,0.00899
2503.10912,0.00876
2501.04895,0.00899
2498.98878,0.00940
2496.92861,0.00944
2494.86843,0.00931
2492.80826,0.00915
2490.74809,0.00901
2488.68792,0.00915
2486.62775,0.00954
2484.56757,0.00981
2482.50740,0.00974
2480.44723,0.00967
2478.38706,0.01002
2476.32688,0.01049
2474.26671,0.01049
2472.20654,0.01031
2470.14637,0.01030
2468.08620,0.01032
2466.02602,0.01024
2463.96585,0.00992
2461.90568,0.00950
2459.84551,0.00941
2457.78534,0.00952
2455.72516,0.00965
2453.66499,0.00977
2451.60482,0.00999
2449.54465,0.01029
2447.48447,0.01028
2445.42430,0.00992
2443.36413,0.00968
2441.30396,0.00959
2439.24379,0.00928
2437.18361,0.00910
2435.12344,0.00948
2433.06327,0.00984
2431.00310,0.00983
2428.94293,0.00963
2426.88275,0.00922
2424.82258,0.00875
2422.76241,0.00889
2420.70224,0.00966
2418.64207,0.01015
2416.58189,0.01017
2414.52172,0.01019
2412.46155,0.01028
2410.40138,0.01028
2408.34120,0.00998
2406.28103,0.00950
2404.22086,0.00927
2402.16069,0.00935
2400.10052,0.00955
2398.04034,0.00968
2395.98017,0.00988
2393.92000,0.01005
2391.85983,0.01005
2389.79966,0.00991
2387.73948,0.00978
2385.67931,0.00986
2383.61914,0.01001
2381.55897,0.00999
2379.49880,0.00982
2377.43862,0.00967
2375.37845,0.00941
2373.31828,0.00871
2371.25811,0.00765
2369.19793,0.00731
2367.13776,0.00835
2365.07759,0.00942
2363.01742,0.00903
2360.95725,0.00765
2358.89707,0.00720
2356.83690,0.00913
2354.77673,0.01178
2352.71656,0.01284
2350.65639,0.01274
2348.59621,0.01220
2346.53604,0.01110
2344.47587,0.00998
2342.41570,0.00979
2340.35552,0.00995
2338.29535,0.00985
2336.23518,0.01019
2334.17501,0.01041
2332.11484,0.00969
2330.05466,0.00919
2327.99449,0.00984
2325.93432,0.01058
2323.87415,0.01028
2321.81398,0.00940
2319.75380,0.00882
2317.69363,0.00861
2315.63346,0.00880
2313.57329,0.00926
2311.51312,0.00969
2309.45294,0.01008
2307.39277,0.01026
2305.33260,0.00992
2303.27243,0.00930
2301.21225,0.00891
2299.15208,0.00882
2297.09191,0.00872
2295.03174,0.00874
2292.97157,0.00905
2290.91139,0.00932
2288.85122,0.00929
2286.79105,0.00917
2284.73088,0.00930
2282.67071,0.00961
2280.61053,0.00953
2278.55036,0.00897
2276.49019,0.00850
2274.43002,0.00827
2272.36984,0.00807
2270.30967,0.00782
2268.24950,0.00749
2266.18933,0.00717
2264.12916,0.00706
2262.06898,0.00738
2260.00881,0.00802
2257.94864,0.00849
2255.88847,0.00861
2253.82830,0.00844
2251.76812,0.00798
2249.70795,0.00754
2247.64778,0.00759
2245.58761,0.00788
2243.52744,0.00752
2241.46726,0.00674
2239.40709,0.00642
2237.34692,0.00673
2235.28675,0.00730
2233.22657,0.00731
2231.16640,0.00670
2229.10623,0.00621
2227.04606,0.00597
2224.98589,0.00540
2222.92571,0.00472
2220.86554,0.00479
2218.80537,0.00546
2216.74520,0.00631
2214.68503,0.00742
2212.62485,0.00792
2210.56468,0.00695
2208.50451,0.00555
2206.44434,0.00514
2204.38417,0.00557
2202.32399,0.00589
2200.26382,0.00583
2198.20365,0.00527
2196.14348,0.00418
2194.08330,0.00376
2192.02313,0.00490
2189.96296,0.00530
2187.90279,0.00382
2185.84262,0.00304
2183.78244,0.00403
2181.72227,0.00529
2179.66210,0.00503
2177.60193,0.00361
2175.54176,0.00334
2173.48158,0.00384
2171.42141,0.00360
2169.36124,0.00386
2167.30107,0.00476
2165.24089,0.00519
2163.18072,0.00440
2161.12055,0.00248
2159.06038,0.00159
2157.00021,0.00169
2154.94003,0.00196
2152.87986,0.00323
2150.81969,0.00485
2148.75952,0.00529
2146.69935,0.00420
2144.63917,0.00316
2142.57900,0.00350
2140.51883,0.00437
2138.45866,0.00462
2136.39849,0.00381
2134.33831,0.00262
2132.27814,0.00225
2130.21797,0.00278
2128.15780,0.00369
2126.09762,0.00439
2124.03745,0.00431
2121.97728,0.00400
2119.91711,0.00446
2117.85694,0.00533
2115.79676,0.00574
2113.73659,0.00560
2111.67642,0.00506
2109.61625,0.00460
2107.55608,0.00425
2105.49590,0.00408
2103.43573,0.00412
2101.37556,0.00363
2099.31539,0.00287
2097.25521,0.00270
2095.19504,0.00307
2093.13487,0.00351
2091.07470,0.00377
2089.01453,0.00407
2086.95435,0.00424
2084.89418,0.00421
2082.83401,0.00443
2080.77384,0.00463
2078.71367,0.00474
2076.65349,0.00513
2074.59332,0.00514
2072.53315,0.00432
2070.47298,0.00359
2068.41281,0.00343
2066.35263,0.00366
2064.29246,0.00442
2062.23229,0.00483
2060.17212,0.00415
2058.11194,0.00310
2056.05177,0.00252
2053.99160,0.00278
2051.93143,0.00357
2049.87126,0.00401
2047.81108,0.00334
2045.75091,0.00202
2043.69074,0.00182
2041.63057,0.00293
2039.57040,0.00417
2037.51022,0.00502
2035.45005,0.00487
2033.38988,0.00382
2031.32971,0.00368
2029.26954,0.00470
2027.20936,0.00466
2025.14919,0.00348
2023.08902,0.00249
2021.02885,0.00120
2018.96867,0.00000
2016.90850,0.00023
2014.84833,0.00140
2012.78816,0.00255
2010.72799,0.00320
2008.66781,0.00266
2006.60764,0.00133
2004.54747,0.00059
2002.48730,0.00076
2000.42713,0.00143
1998.36695,0.00192
1996.30678,0.00162
1994.24661,0.00145
1992.18644,0.00230
1990.12626,0.00352
1988.06609,0.00440
1986.00592,0.00480
1983.94575,0.00433
1981.88558,0.00299
1979.82540,0.00154
1977.76523,0.00074
1975.70506,0.00064
1973.64489,0.00116
1971.58472,0.00207
1969.52454,0.00218
1967.46437,0.00177
1965.40420,0.00190
1963.34403,0.00183
1961.28386,0.00158
1959.22368,0.00173
1957.16351,0.00202
1955.10334,0.00219
1953.04317,0.00225
1950.98299,0.00214
1948.92282,0.00151
1946.86265,0.00056
1944.80248,0.00012
1942.74231,0.00062
1940.68213,0.00117
1938.62196,0.00120
1936.56179,0.00154
1934.50162,0.00218
1932.44145,0.00195
1930.38127,0.00109
1928.32110,0.00095
1926.26093,0.00164
1924.20076,0.00233
1922.14059,0.00244
1920.08041,0.00196
1918.02024,0.00157
1915.96007,0.00166
1913.89990,0.00193
1911.83972,0.00193
1909.77955,0.00173
1907.71938,0.00158
1905.65921,0.00137
1903.59904,0.00111
1901.53886,0.00108
1899.47869,0.00106
1897.41852,0.00079
1895.35835,0.00065
1893.29818,0.00090
1891.23800,0.00131
1889.17783,0.00183
1887.11766,0.00247
1885.05749,0.00271
1882.99731,0.00213
1880.93714,0.00139
1878.87697,0.00138
1876.81680,0.00184
1874.75663,0.00223
1872.69645,0.00258
1870.63628,0.00285
1868.57611,0.00291
1866.51594,0.00273
1864.45577,0.00243
1862.39559,0.00227
1860.33542,0.00239
1858.27525,0.00261
1856.21508,0.00275
1854.15491,0.00286
1852.09473,0.00300
1850.03456,0.00308
1847.97439,0.00295
1845.91422,0.00259
1843.85404,0.00229
1841.79387,0.00225
1839.73370,0.00239
1837.67353,0.00257
1835.61336,0.00262
1833.55318,0.00265
1831.49301,0.00282
1829.43284,0.00298
1827.37267,0.00300
1825.31250,0.00297
1823.25232,0.00286
1821.19215,0.00267
1819.13198,0.00248
1817.07181,0.00243
1815.01163,0.00260
1812.95146,0.00286
1810.89129,0.00313
1808.83112,0.00341
1806.77095,0.00360
1804.71077,0.00360
1802.65060,0.00364
1800.59043,0.00390
1798.53026,0.00416
1796.47009,0.00411
1794.40991,0.00399
1792.34974,0.00400
1790.28957,0.00384
1788.22940,0.00340
1786.16923,0.00300
1784.10905,0.00294
1782.04888,0.00320
1779.98871,0.00350
1777.92854,0.00353
1775.86836,0.00344
1773.80819,0.00363
1771.74802,0.00405
1769.68785,0.00431
1767.62768,0.00443
1765.56750,0.00445
1763.50733,0.00425
1761.44716,0.00391
1759.38699,0.00372
1757.32682,0.00377
1755.26664,0.00382
1753.20647,0.00391
1751.14630,0.00449
1749.08613,0.00521
1747.02596,0.00529
1744.96578,0.00507
1742.90561,0.00506
1740.84544,0.00512
1738.78527,0.00522
1736.72509,0.00554
1734.66492,0.00602
1732.60475,0.00631
1730.54458,0.00631
1728.48441,0.00619
1726.42423,0.00613
1724.36406,0.00627
1722.30389,0.00656
1720.24372,0.00680
1718.18355,0.00693
1716.12337,0.00692
1714.06320,0.00687
1712.00303,0.00694
1709.94286,0.00721
1707.88268,0.00770
1705.82251,0.00827
1703.76234,0.00851
1701.70217,0.00845
1699.64200,0.00862
1697.58182,0.00906
1695.52165,0.00943
1693.46148,0.00967
1691.40131,0.01005
1689.34114,0.01078
1687.28096,0.01169
1685.22079,0.01250
1683.16062,0.01300
1681.10045,0.01308
1679.04028,0.01303
1676.98010,0.01317
1674.91993,0.01366
1672.85976,0.01422
1670.79959,0.01465
1668.73941,0.01478
1666.67924,0.01465
1664.61907,0.01466
1662.55890,0.01485
1660.49873,0.01498
1658.43855,0.01513
1656.37838,0.01542
1654.31821,0.01573
1652.25804,0.01588
1650.19787,0.01594
1648.13769,0.01610
1646.07752,0.01621
1644.01735,0.01607
1641.95718,0.01583
1639.89701,0.01565
1637.83683,0.01551
1635.77666,0.01527
1633.71649,0.01505
1631.65632,0.01490
1629.59614,0.01467
1627.53597,0.01443
1625.47580,0.01426
1623.41563,0.01407
1621.35546,0.01389
1619.29528,0.01380
1617.23511,0.01358
1615.17494,0.01304
1613.11477,0.01259
1611.05460,0.01243
1608.99442,0.01236
1606.93425,0.01207
1604.87408,0.01158
1602.81391,0.01114
1600.75373,0.01093
1598.69356,0.01076
1596.63339,0.01041
1594.57322,0.00996
1592.51305,0.00964
1590.45287,0.00938
1588.39270,0.00907
1586.33253,0.00877
1584.27236,0.00849
1582.21219,0.00823
1580.15201,0.00802
1578.09184,0.00780
1576.03167,0.00754
1573.97150,0.00734
1571.91133,0.00727
1569.85115,0.00722
1567.79098,0.00704
1565.73081,0.00670
1563.67064,0.00627
1561.61046,0.00593
1559.55029,0.00598
1557.49012,0.00618
1555.42995,0.00594
1553.36978,0.00537
1551.30960,0.00489
1549.24943,0.00468
1547.18926,0.00464
1545.12909,0.00480
1543.06892,0.00516
1541.00874,0.00530
1538.94857,0.00483
1536.88840,0.00428
1534.82823,0.00414
1532.76805,0.00421
1530.70788,0.00417
1528.64771,0.00409
1526.58754,0.00407
1524.52737,0.00404
1522.46719,0.00385
1520.40702,0.00347
1518.34685,0.00325
1516.28668,0.00323
1514.22651,0.00313
1512.16633,0.00305
1510.10616,0.00316
1508.04599,0.00320
1505.98582,0.00290
1503.92565,0.00255
1501.86547,0.00233
1499.80530,0.00222
1497.74513,0.00218
1495.68496,0.00211
1493.62478,0.00212
1491.56461,0.00239
1489.50444,0.00277
1487.44427,0.00276
1485.38410,0.00241
1483.32392,0.00213
1481.26375,0.00202
1479.20358,0.00194
1477.14341,0.00193
1475.08324,0.00219
1473.02306,0.00263
1470.96289,0.00284
1468.90272,0.00279
1466.84255,0.00275
1464.78238,0.00278
1462.72220,0.00283
1460.66203,0.00299
1458.60186,0.00324
1456.54169,0.00329
1454.48151,0.00304
1452.42134,0.00283
1450.36117,0.00278
1448.30100,0.00274
1446.24083,0.00257
1444.18065,0.00237
1442.12048,0.00229
1440.06031,0.00232
1438.00014,0.00244
1435.93997,0.00271
1433.87979,0.00305
1431.81962,0.00328
1429.75945,0.00322
1427.69928,0.00303
1425.63910,0.00299
1423.57893,0.00311
1421.51876,0.00322
1419.45859,0.00333
1417.39842,0.00330
1415.33824,0.00302
1413.27807,0.00277
1411.21790,0.00270
1409.15773,0.00269
1407.09756,0.00267
1405.03738,0.00264
1402.97721,0.00259
1400.91704,0.00265
1398.85687,0.00282
1396.79670,0.00280
1394.73652,0.00254
1392.67635,0.00225
1390.61618,0.00218
1388.55601,0.00230
1386.49583,0.00234
1384.43566,0.00221
1382.37549,0.00210
1380.31532,0.00206
1378.25515,0.00202
1376.19497,0.00206
1374.13480,0.00227
1372.07463,0.00249
1370.01446,0.00253
1367.95429,0.00235
1365.89411,0.00212
1363.83394,0.00201
1361.77377,0.00197
1359.71360,0.00188
1357.65343,0.00171
1355.59325,0.00157
1353.53308,0.00148
1351.47291,0.00139
1349.41274,0.00136
1347.35256,0.00140
1345.29239,0.00141
1343.23222,0.00144
1341.17205,0.00157
1339.11188,0.00153
1337.05170,0.00129
1334.99153,0.00116
1332.93136,0.00124
1330.87119,0.00145
1328.81102,0.00160
1326.75084,0.00153
1324.69067,0.00136
1322.63050,0.00129
1320.57033,0.00135
1318.51015,0.00143
1316.44998,0.00139
1314.38981,0.00124
1312.32964,0.00116
1310.26947,0.00122
1308.20929,0.00131
1306.14912,0.00136
1304.08895,0.00137
1302.02878,0.00139
1299.96861,0.00145
1297.90843,0.00152
1295.84826,0.00160
1293.78809,0.00173
1291.72792,0.00180
1289.66775,0.00180
1287.60757,0.00185
1285.54740,0.00192
1283.48723,0.00204
1281.42706,0.00211
1279.36688,0.00198
1277.30671,0.00183
1275.24654,0.00196
1273.18637,0.00228
1271.12620,0.00248
1269.06602,0.00248
1267.00585,0.00241
1264.94568,0.00235
1262.88551,0.00232
1260.82534,0.00240
1258.76516,0.00260
1256.70499,0.00280
1254.64482,0.00277
1252.58465,0.00262
1250.52447,0.00260
1248.46430,0.00262
1246.40413,0.00248
1244.34396,0.00219
1242.28379,0.00183
1240.22361,0.00165
1238.16344,0.00162
1236.10327,0.00164
1234.04310,0.00176
1231.98293,0.00170
1229.92275,0.00138
1227.86258,0.00115
1225.80241,0.00110
1223.74224,0.00104
1221.68207,0.00082
1219.62189,0.00053
1217.56172,0.00038
1215.50155,0.00036
1213.44138,0.00027
1211.38120,0.00007
1209.32103,0.00000
1207.26086,0.00010
1205.20069,0.00013
1203.14052,0.00006
1201.08034,0.00006
1199.02017,0.00016
1196.96000,0.00039
1194.89983,0.00078
1192.83966,0.00108
1190.77948,0.00111
1188.71931,0.00106
1186.65914,0.00118
1184.59897,0.00146
1182.53880,0.00192
1180.47862,0.00256
1178.41845,0.00335
1176.35828,0.00423
1174.29811,0.00506
1172.23793,0.00565
1170.17776,0.00610
1168.11759,0.00670
1166.05742,0.00752
1163.99725,0.00850
1161.93707,0.00929
1159.87690,0.00963
1157.81673,0.00999
1155.75656,0.01068
1153.69639,0.01135
1151.63621,0.01197
1149.57604,0.01277
1147.51587,0.01355
1145.45570,0.01427
1143.39552,0.01519
1141.33535,0.01608
1139.27518,0.01669
1137.21501,0.01751
1135.15484,0.01874
1133.09466,0.01984
1131.03449,0.02072
1128.97432,0.02162
1126.91415,0.02255
1124.85398,0.02350
1122.79380,0.02457
1120.73363,0.02577
1118.67346,0.02692
1116.61329,0.02795
1114.55312,0.02896
1112.49294,0.02999
1110.43277,0.03112
1108.37260,0.03230
1106.31243,0.03344
1104.25225,0.03469
1102.19208,0.03597
1100.13191,0.03715
1098.07174,0.03827
1096.01157,0.03937
1093.95139,0.04038
1091.89122,0.04126
1089.83105,0.04207
1087.77088,0.04296
1085.71071,0.04391
1083.65053,0.04489
1081.59036,0.04584
1079.53019,0.04663
1077.47002,0.04724
1075.40985,0.04765
1073.34967,0.04789
1071.28950,0.04810
1069.22933,0.04834
1067.16916,0.04862
1065.10898,0.04901
1063.04881,0.04930
1060.98864,0.04933
1058.92847,0.04893
1056.86830,0.04808
1054.80812,0.04728
1052.74795,0.04683
1050.68778,0.04638
1048.62761,0.04544
1046.56744,0.04408
1044.50726,0.04278
1042.44709,0.04183
1040.38692,0.04094
1038.32675,0.03978
1036.26657,0.03842
1034.20640,0.03713
1032.14623,0.03604
1030.08606,0.03508
1028.02589,0.03420
1025.96571,0.03334
1023.90554,0.03241
1021.84537,0.03151
1019.78520,0.03070
1017.72503,0.02976
1015.66485,0.02892
1013.60468,0.02859
1011.54451,0.02858
1009.48434,0.02840
1007.42417,0.02799
1005.36399,0.02781
1003.30382,0.02820
1001.24365,0.02875
999.18348,0.02917
997.12330,0.02974
995.06313,0.03045
993.00296,0.03116
990.94279,0.03200
988.88262,0.03292
986.82244,0.03369
984.76227,0.03413
982.70210,0.03415
980.64193,0.03386
978.58176,0.03338
976.52158,0.03274
974.46141,0.03189
972.40124,0.03083
970.34107,0.02963
968.28089,0.02837
966.22072,0.02717
964.16055,0.02612
962.10038,0.02497
960.04021,0.02357
957.98003,0.02234
955.91986,0.02144
953.85969,0.02055
951.79952,0.01974
949.73935,0.01922
947.67917,0.01880
945.61900,0.01836
943.55883,0.01797
941.49866,0.01781
939.43849,0.01789
937.37831,0.01784
935.31814,0.01744
933.25797,0.01701
931.19780,0.01677
929.13762,0.01656
927.07745,0.01621
925.01728,0.01589
922.95711,0.01564
920.89694,0.01534
918.83676,0.01516
916.77659,0.01496
914.71642,0.01460
912.65625,0.01424
910.59608,0.01383
908.53590,0.01350
906.47573,0.01342
904.41556,0.01331
902.35539,0.01278
900.29522,0.01223
898.23504,0.01225
896.17487,0.01250
894.11470,0.01256
892.05453,0.01264
889.99435,0.01286
887.93418,0.01302
885.87401,0.01322
883.81384,0.01355
881.75367,0.01381
879.69349,0.01405
877.63332,0.01453
875.57315,0.01512
873.51298,0.01569
871.45281,0.01647
869.39263,0.01719
867.33246,0.01721
865.27229,0.01685
863.21212,0.01670
861.15194,0.01665
859.09177,0.01676
857.03160,0.01692
854.97143,0.01679
852.91126,0.01649
850.85108,0.01592
848.79091,0.01503
846.73074,0.01467
844.67057,0.01468
842.61040,0.01404
840.55022,0.01318
838.49005,0.01251
836.42988,0.01181
834.36971,0.01137
832.30954,0.01107
830.24936,0.01065
828.18919,0.01035
826.12902,0.01004
824.06885,0.00973
822.00867,0.00964
819.94850,0.00935
817.88833,0.00873
815.82816,0.00827
813.76799,0.00834
811.70781,0.00849
809.64764,0.00810
807.58747,0.00744
805.52730,0.00710
803.46713,0.00692
801.40695,0.00646
799.34678,0.00592
797.28661,0.00570
795.22644,0.00567
793.16627,0.00562
791.10609,0.00561
789.04592,0.00559
786.98575,0.00535
784.92558,0.00494
782.86540,0.00466
780.80523,0.00485
778.74506,0.00521
776.68489,0.00530
774.62472,0.00530
772.56454,0.00533
770.50437,0.00517
768.44420,0.00450
766.38403,0.00368
764.32386,0.00353
762.26368,0.00385
760.20351,0.00408
758.14334,0.00404
756.08317,0.00357
754.02299,0.00287
751.96282,0.00254
749.90265,0.00277
747.84248,0.00293
745.78231,0.00279
743.72213,0.00279
741.66196,0.00326
739.60179,0.00390
737.54162,0.00386
735.48145,0.00330
733.42127,0.00308
731.36110,0.00299
729.30093,0.00270
727.24076,0.00239
725.18059,0.00233
723.12041,0.00314
721.06024,0.00393
719.00007,0.00393
716.93990,0.00373
714.87972,0.00376
712.81955,0.00358
710.75938,0.00324
708.69921,0.00288
706.63904,0.00231
704.57886,0.00206
702.51869,0.00240
700.45852,0.00254
698.39835,0.00240
696.33818,0.00248
694.27800,0.00281
692.21783,0.00328
690.15766,0.00370
688.09749,0.00399
686.03731,0.00423
683.97714,0.00440
681.91697,0.00431
679.85680,0.00350
677.79663,0.00211
675.73645,0.00137
673.67628,0.00152
671.61611,0.00156
669.55594,0.00157
667.49577,0.00261
665.43559,0.00385
663.37542,0.00426
661.31525,0.00365
659.25508,0.00257
657.19491,0.00184
655.13473,0.00151
653.07456,0.00127
651.01439,0.00210
648.95422,0.00452
646.89404,0.00643
644.83387,0.00615
642.77370,0.00474
640.71353,0.00391
638.65336,0.00424
636.59318,0.00517
634.53301,0.00629
632.47284,0.00673
630.41267,0.00532
628.35250,0.00302
626.29232,0.00213
624.23215,0.00334
622.17198,0.00506
620.11181,0.00564
618.05164,0.00550
615.99146,0.00551
613.93129,0.00579
611.87112,0.00545
609.81095,0.00386
607.75077,0.00205
605.69060,0.00064
603.63043,0.00000
601.57026,-0.00002
599.51009,0.00000
