3996.73391,0.00055
3994.67373,0.00059
3992.61356,0.00060
3990.55339,0.00071
3988.49322,0.00074
3986.43305,0.00068
3984.37287,0.00065
3982.31270,0.00072
3980.25253,0.00100
3978.19236,0.00129
3976.13219,0.00110
3974.07201,0.00044
3972.01184,0.00000
3969.95167,0.00009
3967.89150,0.00034
3965.83133,0.00046
3963.77115,0.00053
3961.71098,0.00060
3959.65081,0.00075
3957.59064,0.00106
3955.53046,0.00135
3953.47029,0.00134
3951.41012,0.00097
3949.34995,0.00057
3947.28978,0.00039
3945.22960,0.00036
3943.16943,0.00039
3941.10926,0.00035
3939.04909,0.00028
3936.98892,0.00040
3934.92874,0.00063
3932.86857,0.00070
3930.80840,0.00060
3928.74823,0.00045
3926.68805,0.00045
3924.62788,0.00066
3922.56771,0.00077
3920.50754,0.00063
3918.44737,0.00065
3916.38719,0.00092
3914.32702,0.00106
3912.26685,0.00105
3910.20668,0.00107
3908.14651,0.00085
3906.08633,0.00035
3904.02616,0.00017
3901.96599,0.00067
3899.90582,0.00123
3897.84565,0.00106
3895.78547,0.00039
3893.72530,-0.00006
3891.66513,0.00015
3889.60496,0.00069
3887.54478,0.00094
3885.48461,0.00088
3883.42444,0.00062
3881.36427,0.00062
3879.30410,0.00104
3877.24392,0.00116
3875.18375,0.00100
3873.12358,0.00124
3871.06341,0.00168
3869.00324,0.00160
3866.94306,0.00129
3864.88289,0.00159
3862.82272,0.00197
3860.76255,0.00148
3858.70237,0.00052
3856.64220,-0.00002
3854.58203,0.00040
3852.52186,0.00152
3850.46169,0.00168
3848.40151,0.00080
3846.34134,0.00008
3844.28117,0.00000
3842.22100,0.00020
3840.16083,0.00050
3838.10065,0.00117
3836.04048,0.00184
3833.98031,0.00183
3831.92014,0.00156
3829.85997,0.00167
3827.79979,0.00217
3825.73962,0.00258
3823.67945,0.00247
3821.61928,0.00216
3819.55910,0.00196
3817.49893,0.00182
3815.43876,0.00193
3813.37859,0.00188
3811.31842,0.00129
3809.25824,0.00074
3807.19807,0.00084
3805.13790,0.00134
3803.07773,0.00167
3801.01756,0.00200
3798.95738,0.00222
3796.89721,0.00202
3794.83704,0.00154
3792.77687,0.00126
3790.71670,0.00135
3788.65652,0.00139
3786.59635,0.00118
3784.53618,0.00089
3782.47601,0.00054
3780.41583,0.00029
3778.35566,0.00045
3776.29549,0.00070
3774.23532,0.00075
3772.17515,0.00090
3770.11497,0.00120
3768.05480,0.00122
3765.99463,0.00093
3763.93446,0.00059
3761.87429,0.00033
3759.81411,0.00039
3757.75394,0.00063
3755.69377,0.00078
3753.63360,0.00114
3751.57342,0.00180
3749.51325,0.00211
3747.45308,0.00187
3745.39291,0.00170
3743.33274,0.00175
3741.27256,0.00158
3739.21239,0.00137
3737.15222,0.00168
3735.09205,0.00235
3733.03188,0.00243
3730.97170,0.00196
3728.91153,0.00169
3726.85136,0.00172
3724.79119,0.00180
3722.73102,0.00178
3720.67084,0.00166
3718.61067,0.00142
3716.55050,0.00112
3714.49033,0.00102
3712.43015,0.00127
3710.36998,0.00150
3708.30981,0.00141
3706.24964,0.00126
3704.18947,0.00116
3702.12929,0.00133
3700.06912,0.00179
3698.00895,0.00199
3695.94878,0.00173
3693.88861,0.00128
3691.82843,0.00103
3689.76826,0.00126
3687.70809,0.00173
3685.64792,0.00173
3683.58775,0.00145
3681.52757,0.00155
3679.46740,0.00210
3677.40723,0.00265
3675.34706,0.00287
3673.28688,0.00267
3671.22671,0.00266
3669.16654,0.00332
3667.10637,0.00383
3665.04620,0.00375
3662.98602,0.00341
3660.92585,0.00308
3658.86568,0.00299
3656.80551,0.00322
3654.74534,0.00338
3652.68516,0.00329
3650.62499,0.00363
3648.56482,0.00455
3646.50465,0.00501
3644.44447,0.00491
3642.38430,0.00489
3640.32413,0.00499
3638.26396,0.00506
3636.20379,0.00546
3634.14361,0.00610
3632.08344,0.00650
3630.02327,0.00702
3627.96310,0.00791
3625.90293,0.00822
3623.84275,0.00779
3621.78258,0.00744
3619.72241,0.00793
3617.66224,0.00901
3615.60207,0.00960
3613.54189,0.00949
3611.48172,0.00922
3609.42155,0.00947
3607.36138,0.01021
3605.30120,0.01043
3603.24103,0.01010
3601.18086,0.01020
3599.12069,0.01086
3597.06052,0.01158
3595.00034,0.01227
3592.94017,0.01261
3590.88000,0.01232
3588.81983,0.01239
3586.75966,0.01342
3584.69948,0.01402
3582.63931,0.01365
3580.57914,0.01327
3578.51897,0.01351
3576.45879,0.01435
3574.39862,0.01535
3572.33845,0.01586
3570.27828,0.01563
3568.21811,0.01531
3566.15793,0.01576
3564.09776,0.01641
3562.03759,0.01643
3559.97742,0.01624
3557.91725,0.01635
3555.85707,0.01663
3553.79690,0.01700
3551.73673,0.01745
3549.67656,0.01786
3547.61639,0.01837
3545.55621,0.01900
3543.49604,0.01946
3541.43587,0.01988
3539.37570,0.02042
3537.31552,0.02079
3535.25535,0.02082
3533.19518,0.02079
3531.13501,0.02100
3529.07484,0.02141
3527.01466,0.02203
3524.95449,0.02277
3522.89432,0.02320
3520.83415,0.02325
3518.77398,0.02328
3516.71380,0.02346
3514.65363,0.02360
3512.59346,0.02356
3510.53329,0.02362
3508.47312,0.02396
3506.41294,0.02430
3504.35277,0.02463
3502.29260,0.02514
3500.23243,0.02579
3498.17225,0.02637
3496.11208,0.02663
3494.05191,0.02675
3491.99174,0.02700
3489.93157,0.02735
3487.87139,0.02759
3485.81122,0.02764
3483.75105,0.02753
3481.69088,0.02733
3479.63071,0.02735
3477.57053,0.02794
3475.51036,0.02884
3473.45019,0.02925
3471.39002,0.02907
3469.32984,0.02897
3467.26967,0.02904
3465.20950,0.02905
3463.14933,0.02921
3461.08916,0.02953
3459.02898,0.02989
3456.96881,0.03055
3454.90864,0.03125
3452.84847,0.03139
3450.78830,0.03127
3448.72812,0.03137
3446.66795,0.03149
3444.60778,0.03137
3442.54761,0.03132
3440.48744,0.03177
3438.42726,0.03240
3436.36709,0.03263
3434.30692,0.03249
3432.24675,0.03250
3430.18657,0.03276
3428.12640,0.03289
3426.06623,0.03310
3424.00606,0.03368
3421.94589,0.03418
3419.88571,0.03440
3417.82554,0.03466
3415.76537,0.03490
3413.70520,0.03484
3411.64503,0.03459
3409.58485,0.03455
3407.52468,0.03475
3405.46451,0.03509
3403.40434,0.03550
3401.34416,0.03558
3399.28399,0.03520
3397.22382,0.03477
3395.16365,0.03465
3393.10348,0.03490
3391.04330,0.03525
3388.98313,0.03566
3386.92296,0.03618
3384.86279,0.03651
3382.80262,0.03663
3380.74244,0.03678
3378.68227,0.03682
3376.62210,0.03665
3374.56193,0.03649
3372.50176,0.03651
3370.44158,0.03658
3368.38141,0.03654
3366.32124,0.03662
3364.26107,0.03713
3362.20089,0.03776
3360.14072,0.03800
3358.08055,0.03788
3356.02038,0.03790
3353.96021,0.03809
3351.90003,0.03802
3349.83986,0.03782
3347.77969,0.03797
3345.71952,0.03819
3343.65935,0.03818
3341.59917,0.03795
3339.53900,0.03768
3337.47883,0.03755
3335.41866,0.03749
3333.35849,0.03763
3331.29831,0.03813
3329.23814,0.03858
3327.17797,0.03859
3325.11780,0.03829
3323.05762,0.03827
3320.99745,0.03861
3318.93728,0.03866
3316.87711,0.03848
3314.81694,0.03851
3312.75676,0.03856
3310.69659,0.03844
3308.63642,0.03853
3306.57625,0.03893
3304.51608,0.03913
3302.45590,0.03901
3300.39573,0.03890
3298.33556,0.03894
3296.27539,0.03898
3294.21521,0.03895
3292.15504,0.03897
3290.09487,0.03901
3288.03470,0.03904
3285.97453,0.03918
3283.91435,0.03940
3281.85418,0.03947
3279.79401,0.03929
3277.73384,0.03917
3275.67367,0.03913
3273.61349,0.03901
3271.55332,0.03911
3269.49315,0.03934
3267.43298,0.03950
3265.37281,0.03956
3263.31263,0.03933
3261.25246,0.03905
3259.19229,0.03916
3257.13212,0.03935
3255.07194,0.03916
3253.01177,0.03869
3250.95160,0.03835
3248.89143,0.03836
3246.83126,0.03868
3244.77108,0.03910
3242.71091,0.03935
3240.65074,0.03939
3238.59057,0.03944
3236.53040,0.03965
3234.47022,0.03990
3232.41005,0.04004
3230.34988,0.04021
3228.28971,0.04032
3226.22954,0.04002
3224.16936,0.03954
3222.10919,0.03940
3220.04902,0.03945
3217.98885,0.03923
3215.92867,0.03900
3213.86850,0.03917
3211.80833,0.03934
3209.74816,0.03921
3207.68799,0.03910
3205.62781,0.03914
3203.56764,0.03917
3201.50747,0.03897
3199.44730,0.03859
3197.38713,0.03846
3195.32695,0.03867
3193.26678,0.03873
3191.20661,0.03841
3189.14644,0.03809
3187.08626,0.03798
3185.02609,0.03800
3182.96592,0.03814
3180.90575,0.03832
3178.84558,0.03835
3176.78540,0.03818
3174.72523,0.03785
3172.66506,0.03735
3170.60489,0.03709
3168.54472,0.03730
3166.48454,0.03745
3164.42437,0.03755
3162.36420,0.03794
3160.30403,0.03810
3158.24386,0.03767
3156.18368,0.03727
3154.12351,0.03721
3152.06334,0.03716
3150.00317,0.03688
3147.94299,0.03654
3145.88282,0.03636
3143.82265,0.03630
3141.76248,0.03622
3139.70231,0.03619
3137.64213,0.03634
3135.58196,0.03650
3133.52179,0.03641
3131.46162,0.03626
3129.40145,0.03626
3127.34127,0.03615
3125.28110,0.03579
3123.22093,0.03541
3121.16076,0.03507
3119.10058,0.03488
3117.04041,0.03501
3114.98024,0.03509
3112.92007,0.03484
3110.85990,0.03463
3108.79972,0.03473
3106.73955,0.03477
3104.67938,0.03444
3102.61921,0.03411
3100.55904,0.03403
3098.49886,0.03400
3096.43869,0.03373
3094.37852,0.03338
3092.31835,0.03322
3090.25818,0.03313
3088.19800,0.03297
3086.13783,0.03278
3084.07766,0.03252
3082.01749,0.03226
3079.95731,0.03236
3077.89714,0.03261
3075.83697,0.03239
3073.77680,0.03192
3071.71663,0.03188
3069.65645,0.03204
3067.59628,0.03188
3065.53611,0.03154
3063.47594,0.03118
3061.41577,0.03085
3059.35559,0.03066
3057.29542,0.03063
3055.23525,0.03059
3053.17508,0.03032
3051.11491,0.02997
3049.05473,0.02994
3046.99456,0.03002
3044.93439,0.03000
3042.87422,0.02999
3040.81404,0.02972
3038.75387,0.02924
3036.69370,0.02886
3034.63353,0.02864
3032.57336,0.02860
3030.51318,0.02865
3028.45301,0.02859
3026.39284,0.02831
3024.33267,0.02783
3022.27250,0.02746
3020.21232,0.02740
3018.15215,0.02750
3016.09198,0.02758
3014.03181,0.02749
3011.97163,0.02721
3009.91146,0.02688
3007.85129,0.02651
3005.79112,0.02620
3003.73095,0.02607
3001.67077,0.02598
2999.61060,0.02591
2997.55043,0.02591
2995.49026,0.02581
2993.43009,0.02569
2991.36991,0.02558
2989.30974,0.02544
2987.24957,0.02526
2985.18940,0.02502
2983.12923,0.02476
2981.06905,0.02461
2979.00888,0.02471
2976.94871,0.02469
2974.88854,0.02432
2972.82836,0.02395
2970.76819,0.02385
2968.70802,0.02403
2966.64785,0.02419
2964.58768,0.02405
2962.52750,0.02378
2960.46733,0.02352
2958.40716,0.02331
2956.34699,0.02307
2954.28682,0.02275
2952.22664,0.02256
2950.16647,0.02268
2948.10630,0.02296
2946.04613,0.02312
2943.98596,0.02303
2941.92578,0.02300
2939.86561,0.02313
2937.80544,0.02311
2935.74527,0.02299
2933.68509,0.02283
2931.62492,0.02253
2929.56475,0.02233
2927.50458,0.02240
2925.44441,0.02239
2923.38423,0.02217
2921.32406,0.02188
2919.26389,0.02162
2917.20372,0.02134
2915.14355,0.02095
2913.08337,0.02071
2911.02320,0.02083
2908.96303,0.02100
2906.90286,0.02097
2904.84268,0.02071
2902.78251,0.02037
2900.72234,0.02033
2898.66217,0.02059
2896.60200,0.02067
2894.54182,0.02047
2892.48165,0.02022
2890.42148,0.02026
2888.36131,0.02053
2886.30114,0.02054
2884.24096,0.02030
2882.18079,0.02024
2880.12062,0.02038
2878.06045,0.02045
2876.00028,0.02040
2873.94010,0.02025
2871.87993,0.01992
2869.81976,0.01955
2867.75959,0.01930
2865.69941,0.01912
2863.63924,0.01900
2861.57907,0.01910
2859.51890,0.01928
2857.45873,0.01908
2855.39855,0.01866
2853.33838,0.01861
2851.27821,0.01882
2849.21804,0.01877
2847.15787,0.01852
2845.09769,0.01830
2843.03752,0.01805
2840.97735,0.01789
2838.91718,0.01785
2836.85700,0.01777
2834.79683,0.01780
2832.73666,0.01795
2830.67649,0.01795
2828.61632,0.01774
2826.55614,0.01742
2824.49597,0.01718
2822.43580,0.01708
2820.37563,0.01697
2818.31546,0.01685
2816.25528,0.01685
2814.19511,0.01689
2812.13494,0.01675
2810.07477,0.01636
2808.01460,0.01621
2805.95442,0.01653
2803.89425,0.01673
2801.83408,0.01661
2799.77391,0.01650
2797.71373,0.01630
2795.65356,0.01596
2793.59339,0.01573
2791.53322,0.01578
2789.47305,0.01587
2787.41287,0.01570
2785.35270,0.01545
2783.29253,0.01536
2781.23236,0.01534
2779.17219,0.01525
2777.11201,0.01511
2775.05184,0.01507
2772.99167,0.01518
2770.93150,0.01528
2768.87133,0.01520
2766.81115,0.01490
2764.75098,0.01472
2762.69081,0.01481
2760.63064,0.01482
2758.57046,0.01461
2756.51029,0.01437
2754.45012,0.01420
2752.38995,0.01416
2750.32978,0.01426
2748.26960,0.01427
2746.20943,0.01418
2744.14926,0.01417
2742.08909,0.01418
2740.02892,0.01405
2737.96874,0.01384
2735.90857,0.01370
2733.84840,0.01369
2731.78823,0.01366
2729.72805,0.01354
2727.66788,0.01355
2725.60771,0.01354
2723.54754,0.01337
2721.48737,0.01330
2719.42719,0.01331
2717.36702,0.01313
2715.30685,0.01288
2713.24668,0.01268
2711.18651,0.01249
2709.12633,0.01255
2707.06616,0.01260
2705.00599,0.01241
2702.94582,0.01231
2700.88565,0.01230
2698.82547,0.01205
2696.76530,0.01176
2694.70513,0.01172
2692.64496,0.01181
2690.58478,0.01179
2688.52461,0.01164
2686.46444,0.01151
2684.40427,0.01149
2682.34410,0.01157
2680.28392,0.01159
2678.22375,0.01138
2676.16358,0.01109
2674.10341,0.01096
2672.04324,0.01088
2669.98306,0.01080
2667.92289,0.01076
2665.86272,0.01067
2663.80255,0.01057
2661.74238,0.01058
2659.68220,0.01055
2657.62203,0.01050
2655.56186,0.01044
2653.50169,0.01018
2651.44151,0.00984
2649.38134,0.00966
2647.32117,0.00962
2645.26100,0.00966
2643.20083,0.00967
2641.14065,0.00962
2639.08048,0.00952
2637.02031,0.00939
2634.96014,0.00939
2632.89997,0.00933
2630.83979,0.00912
2628.77962,0.00911
2626.71945,0.00925
2624.65928,0.00916
2622.59910,0.00898
2620.53893,0.00895
2618.47876,0.00891
2616.41859,0.00870
2614.35842,0.00843
2612.29824,0.00831
2610.23807,0.00832
2608.17790,0.00839
2606.11773,0.00861
2604.05756,0.00880
2601.99738,0.00849
2599.93721,0.00804
2597.87704,0.00819
2595.81687,0.00868
2593.75670,0.00869
2591.69652,0.00814
2589.63635,0.00773
2587.57618,0.00771
2585.51601,0.00790
2583.45583,0.00827
2581.39566,0.00859
2579.33549,0.00838
2577.27532,0.00807
2575.21515,0.00822
2573.15497,0.00847
2571.09480,0.00823
2569.03463,0.00751
2566.97446,0.00708
2564.91429,0.00705
2562.85411,0.00691
2560.79394,0.00687
2558.73377,0.00733
2556.67360,0.00795
2554.61342,0.00809
2552.55325,0.00789
2550.49308,0.00771
2548.43291,0.00732
2546.37274,0.00703
2544.31256,0.00725
2542.25239,0.00762
2540.19222,0.00797
2538.13205,0.00820
2536.07188,0.00807
2534.01170,0.00773
2531.95153,0.00755
2529.89136,0.00768
2527.83119,0.00793
2525.77102,0.00783
2523.71084,0.00748
2521.65067,0.00748
2519.59050,0.00777
2517.53033,0.00781
2515.47015,0.00768
2513.40998,0.00771
2511.34981,0.00773
2509.28964,0.00783
2507.22947,0.00820
2505.16929,0.00835
2503.10912,0.00804
2501.04895,0.00779
2498.98878,0.00794
2496.92861,0.00823
2494.86843,0.00839
2492.80826,0.00833
2490.74809,0.00823
2488.68792,0.00846
2486.62775,0.00885
2484.56757,0.00887
2482.50740,0.00878
2480.44723,0.00880
2478.38706,0.00861
2476.32688,0.00842
2474.26671,0.00845
2472.20654,0.00852
2470.14637,0.00864
2468.08620,0.00883
2466.02602,0.00894
2463.96585,0.00888
2461.90568,0.00891
2459.84551,0.00901
2457.78534,0.00889
2455.72516,0.00866
2453.66499,0.00858
2451.60482,0.00879
2449.54465,0.00899
2447.48447,0.00875
2445.42430,0.00834
2443.36413,0.00838
2441.30396,0.00872
2439.24379,0.00866
2437.18361,0.00839
2435.12344,0.00846
2433.06327,0.00877
2431.00310,0.00902
2428.94293,0.00877
2426.88275,0.00808
2424.82258,0.00760
2422.76241,0.00773
2420.70224,0.00827
2418.64207,0.00851
2416.58189,0.00831
2414.52172,0.00826
2412.46155,0.00849
2410.40138,0.00873
2408.34120,0.00875
2406.28103,0.00851
2404.22086,0.00826
2402.16069,0.00831
2400.10052,0.00849
2398.04034,0.00863
2395.98017,0.00887
2393.92000,0.00911
2391.85983,0.00914
2389.79966,0.00903
2387.73948,0.00907
2385.67931,0.00923
2383.61914,0.00923
2381.55897,0.00914
2379.49880,0.00911
2377.43862,0.00909
2375.37845,0.00913
2373.31828,0.00914
2371.25811,0.00889
2369.19793,0.00878
2367.13776,0.00899
2365.07759,0.00854
2363.01742,0.00722
2360.95725,0.00653
2358.89707,0.00715
2356.83690,0.00820
2354.77673,0.00903
2352.71656,0.00996
2350.65639,0.01071
2348.59621,0.01073
2346.53604,0.01017
2344.47587,0.00917
2342.41570,0.00814
2340.35552,0.00798
2338.29535,0.00882
2336.23518,0.00990
2334.17501,0.00999
2332.11484,0.00891
2330.05466,0.00821
2327.99449,0.00870
2325.93432,0.00958
2323.87415,0.01011
2321.81398,0.01035
2319.75380,0.01020
2317.69363,0.00920
2315.63346,0.00795
2313.57329,0.00767
2311.51312,0.00834
2309.45294,0.00887
2307.39277,0.00871
2305.33260,0.00828
2303.27243,0.00807
2301.21225,0.00812
2299.15208,0.00819
2297.09191,0.00810
2295.03174,0.00786
2292.97157,0.00758
2290.91139,0.00747
2288.85122,0.00766
2286.79105,0.00785
2284.73088,0.00781
2282.67071,0.00759
2280.61053,0.00737
2278.55036,0.00739
2276.49019,0.00763
2274.43002,0.00774
2272.36984,0.00749
2270.30967,0.00703
2268.24950,0.00658
2266.18933,0.00611
2264.12916,0.00565
2262.06898,0.00577
2260.00881,0.00681
2257.94864,0.00759
2255.88847,0.00710
2253.82830,0.00639
2251.76812,0.00648
2249.70795,0.00652
2247.64778,0.00598
2245.58761,0.00560
2243.52744,0.00510
2241.46726,0.00481
2239.40709,0.00510
2237.34692,0.00549
2235.28675,0.00559
2233.22657,0.00505
2231.16640,0.00435
2229.10623,0.00432
2227.04606,0.00476
2224.98589,0.00498
2222.92571,0.00485
2220.86554,0.00482
2218.80537,0.00522
2216.74520,0.00557
2214.68503,0.00532
2212.62485,0.00481
2210.56468,0.00461
2208.50451,0.00473
2206.44434,0.00493
2204.38417,0.00482
2202.32399,0.00453
2200.26382,0.00470
2198.20365,0.00496
2196.14348,0.00496
2194.08330,0.00529
2192.02313,0.00613
2189.96296,0.00636
2187.90279,0.00500
2185.84262,0.00293
2183.78244,0.00251
2181.72227,0.00419
2179.66210,0.00568
2177.60193,0.00577
2175.54176,0.00487
2173.48158,0.00357
2171.42141,0.00252
2169.36124,0.00243
2167.30107,0.00279
2165.24089,0.00289
2163.18072,0.00281
2161.12055,0.00255
2159.06038,0.00217
2157.00021,0.00196
2154.94003,0.00218
2152.87986,0.00321
2150.81969,0.00489
2148.75952,0.00526
2146.69935,0.00384
2144.63917,0.00284
2142.57900,0.00289
2140.51883,0.00318
2138.45866,0.00302
2136.39849,0.00233
2134.33831,0.00191
2132.27814,0.00205
2130.21797,0.00280
2128.15780,0.00398
2126.09762,0.00440
2124.03745,0.00392
2121.97728,0.00381
2119.91711,0.00437
2117.85694,0.00470
2115.79676,0.00455
2113.73659,0.00419
2111.67642,0.00395
2109.61625,0.00433
2107.55608,0.00486
2105.49590,0.00471
2103.43573,0.00406
2101.37556,0.00307
2099.31539,0.00212
2097.25521,0.00222
2095.19504,0.00327
2093.13487,0.00400
2091.07470,0.00415
2089.01453,0.00431
2086.95435,0.00434
2084.89418,0.00412
2082.83401,0.00416
2080.77384,0.00432
2078.71367,0.00414
2076.65349,0.00342
2074.59332,0.00242
2072.53315,0.00187
2070.47298,0.00239
2068.41281,0.00328
2066.35263,0.00331
2064.29246,0.00322
2062.23229,0.00347
2060.17212,0.00292
2058.11194,0.00157
2056.05177,0.00060
2053.99160,0.00077
2051.93143,0.00173
2049.87126,0.00231
2047.81108,0.00166
2045.75091,0.00067
2043.69074,0.00138
2041.63057,0.00309
2039.57040,0.00347
2037.51022,0.00350
2035.45005,0.00402
2033.38988,0.00338
2031.32971,0.00221
2029.26954,0.00216
2027.20936,0.00230
2025.14919,0.00193
2023.08902,0.00168
2021.02885,0.00163
2018.96867,0.00157
2016.90850,0.00187
2014.84833,0.00296
2012.78816,0.00385
2010.72799,0.00346
2008.66781,0.00270
2006.60764,0.00228
2004.54747,0.00143
2002.48730,0.00036
2000.42713,0.00075
1998.36695,0.00244
1996.30678,0.00360
1994.24661,0.00424
1992.18644,0.00464
1990.12626,0.00415
1988.06609,0.00357
1986.00592,0.00418
1983.94575,0.00491
1981.88558,0.00393
1979.82540,0.00216
1977.76523,0.00143
1975.70506,0.00108
1973.64489,0.00072
1971.58472,0.00123
1969.52454,0.00157
1967.46437,0.00088
1965.40420,0.00017
1963.34403,0.00000
1961.28386,0.00078
1959.22368,0.00245
1957.16351,0.00337
1955.10334,0.00284
1953.04317,0.00227
1950.98299,0.00250
1948.92282,0.00253
1946.86265,0.00185
1944.80248,0.00151
1942.74231,0.00189
1940.68213,0.00192
1938.62196,0.00158
1936.56179,0.00193
1934.50162,0.00294
1932.44145,0.00332
1930.38127,0.00272
1928.32110,0.00223
1926.26093,0.00249
1924.20076,0.00320
1922.14059,0.00366
1920.08041,0.00366
1918.02024,0.00365
1915.96007,0.00353
1913.89990,0.00300
1911.83972,0.00232
1909.77955,0.00194
1907.71938,0.00213
1905.65921,0.00268
1903.59904,0.00297
1901.53886,0.00261
1899.47869,0.00210
1897.41852,0.00172
1895.35835,0.00138
1893.29818,0.00146
1891.23800,0.00195
1889.17783,0.00233
1887.11766,0.00253
1885.05749,0.00271
1882.99731,0.00284
1880.93714,0.00275
1878.87697,0.00250
1876.81680,0.00244
1874.75663,0.00271
1872.69645,0.00305
1870.63628,0.00325
1868.57611,0.00324
1866.51594,0.00288
1864.45577,0.00231
1862.39559,0.00190
1860.33542,0.00183
1858.27525,0.00207
1856.21508,0.00256
1854.15491,0.00307
1852.09473,0.00325
1850.03456,0.00314
1847.97439,0.00303
1845.91422,0.00301
1843.85404,0.00307
1841.79387,0.00309
1839.73370,0.00295
1837.67353,0.00275
1835.61336,0.00263
1833.55318,0.00270
1831.49301,0.00295
1829.43284,0.00316
1827.37267,0.00338
1825.31250,0.00369
1823.25232,0.00374
1821.19215,0.00339
1819.13198,0.00298
1817.07181,0.00293
1815.01163,0.00316
1812.95146,0.00333
1810.89129,0.00333
1808.83112,0.00336
1806.77095,0.00356
1804.71077,0.00369
1802.65060,0.00362
1800.59043,0.00358
1798.53026,0.00374
1796.47009,0.00394
1794.40991,0.00401
1792.34974,0.00392
1790.28957,0.00369
1788.22940,0.00346
1786.16923,0.00341
1784.10905,0.00351
1782.04888,0.00367
1779.98871,0.00381
1777.92854,0.00380
1775.86836,0.00360
1773.80819,0.00345
1771.74802,0.00357
1769.68785,0.00378
1767.62768,0.00391
1765.56750,0.00393
1763.50733,0.00384
1761.44716,0.00372
1759.38699,0.00371
1757.32682,0.00386
1755.26664,0.00406
1753.20647,0.00426
1751.14630,0.00473
1749.08613,0.00531
1747.02596,0.00540
1744.96578,0.00512
1742.90561,0.00497
1740.84544,0.00505
1738.78527,0.00521
1736.72509,0.00546
1734.66492,0.00591
1732.60475,0.00624
1730.54458,0.00615
1728.48441,0.00587
1726.42423,0.00579
1724.36406,0.00595
1722.30389,0.00603
1720.24372,0.00600
1718.18355,0.00625
1716.12337,0.00676
1714.06320,0.00705
1712.00303,0.00716
1709.94286,0.00730
1707.88268,0.00771
1705.82251,0.00849
1703.76234,0.00915
1701.70217,0.00940
1699.64200,0.00944
1697.58182,0.00942
1695.52165,0.00957
1693.46148,0.00987
1691.40131,0.01012
1689.34114,0.01045
1687.28096,0.01101
1685.22079,0.01181
1683.16062,0.01243
1681.10045,0.01254
1679.04028,0.01255
1676.98010,0.01270
1674.91993,0.01301
1672.85976,0.01338
1670.79959,0.01374
1668.73941,0.01400
1666.67924,0.01395
1664.61907,0.01381
1662.55890,0.01384
1660.49873,0.01400
1658.43855,0.01419
1656.37838,0.01440
1654.31821,0.01472
1652.25804,0.01501
1650.19787,0.01490
1648.13769,0.01469
1646.07752,0.01468
1644.01735,0.01473
1641.95718,0.01467
1639.89701,0.01455
1637.83683,0.01445
1635.77666,0.01433
1633.71649,0.01410
1631.65632,0.01375
1629.59614,0.01334
1627.53597,0.01295
1625.47580,0.01276
1623.41563,0.01270
1621.35546,0.01253
1619.29528,0.01236
1617.23511,0.01231
1615.17494,0.01211
1613.11477,0.01163
1611.05460,0.01112
1608.99442,0.01080
1606.93425,0.01054
1604.87408,0.01016
1602.81391,0.00981
1600.75373,0.00957
1598.69356,0.00931
1596.63339,0.00897
1594.57322,0.00868
1592.51305,0.00842
1590.45287,0.00811
1588.39270,0.00779
1586.33253,0.00746
1584.27236,0.00707
1582.21219,0.00675
1580.15201,0.00661
1578.09184,0.00670
1576.03167,0.00690
1573.97150,0.00689
1571.91133,0.00667
1569.85115,0.00644
1567.79098,0.00611
1565.73081,0.00573
1563.67064,0.00547
1561.61046,0.00548
1559.55029,0.00587
1557.49012,0.00606
1555.42995,0.00549
1553.36978,0.00476
1551.30960,0.00442
1549.24943,0.00444
1547.18926,0.00450
1545.12909,0.00463
1543.06892,0.00491
1541.00874,0.00496
1538.94857,0.00453
1536.88840,0.00406
1534.82823,0.00391
1532.76805,0.00398
1530.70788,0.00393
1528.64771,0.00378
1526.58754,0.00367
1524.52737,0.00367
1522.46719,0.00370
1520.40702,0.00363
1518.34685,0.00355
1516.28668,0.00345
1514.22651,0.00322
1512.16633,0.00300
1510.10616,0.00301
1508.04599,0.00324
1505.98582,0.00331
1503.92565,0.00296
1501.86547,0.00254
1499.80530,0.00237
1497.74513,0.00243
1495.68496,0.00237
1493.62478,0.00216
1491.56461,0.00217
1489.50444,0.00243
1487.44427,0.00243
1485.38410,0.00211
1483.32392,0.00184
1481.26375,0.00177
1479.20358,0.00185
1477.14341,0.00205
1475.08324,0.00245
1473.02306,0.00287
1470.96289,0.00285
1468.90272,0.00245
1466.84255,0.00223
1464.78238,0.00236
1462.72220,0.00255
1460.66203,0.00266
1458.60186,0.00281
1456.54169,0.00287
1454.48151,0.00258
1452.42134,0.00217
1450.36117,0.00198
1448.30100,0.00200
1446.24083,0.00196
1444.18065,0.00180
1442.12048,0.00170
1440.06031,0.00169
1438.00014,0.00182
1435.93997,0.00209
1433.87979,0.00221
1431.81962,0.00211
1429.75945,0.00192
1427.69928,0.00178
1425.63910,0.00189
1423.57893,0.00222
1421.51876,0.00251
1419.45859,0.00261
1417.39842,0.00249
1415.33824,0.00219
1413.27807,0.00201
1411.21790,0.00209
1409.15773,0.00213
1407.09756,0.00195
1405.03738,0.00173
1402.97721,0.00175
1400.91704,0.00201
1398.85687,0.00223
1396.79670,0.00214
1394.73652,0.00174
1392.67635,0.00132
1390.61618,0.00114
1388.55601,0.00128
1386.49583,0.00144
1384.43566,0.00134
1382.37549,0.00117
1380.31532,0.00118
1378.25515,0.00132
1376.19497,0.00146
1374.13480,0.00154
1372.07463,0.00159
1370.01446,0.00166
1367.95429,0.00166
1365.89411,0.00154
1363.83394,0.00145
1361.77377,0.00143
1359.71360,0.00130
1357.65343,0.00100
1355.59325,0.00079
1353.53308,0.00085
1351.47291,0.00098
1349.41274,0.00097
1347.35256,0.00089
1345.29239,0.00083
1343.23222,0.00082
1341.17205,0.00088
1339.11188,0.00090
1337.05170,0.00081
1334.99153,0.00072
1332.93136,0.00075
1330.87119,0.00089
1328.81102,0.00098
1326.75084,0.00095
1324.69067,0.00094
1322.63050,0.00095
1320.57033,0.00088
1318.51015,0.00082
1316.44998,0.00081
1314.38981,0.00081
1312.32964,0.00089
1310.26947,0.00105
1308.20929,0.00111
1306.14912,0.00093
1304.08895,0.00073
1302.02878,0.00076
1299.96861,0.00095
1297.90843,0.00112
1295.84826,0.00131
1293.78809,0.00149
1291.72792,0.00149
1289.66775,0.00145
1287.60757,0.00147
1285.54740,0.00148
1283.48723,0.00157
1281.42706,0.00175
1279.36688,0.00178
1277.30671,0.00174
1275.24654,0.00184
1273.18637,0.00200
1271.12620,0.00210
1269.06602,0.00211
1267.00585,0.00204
1264.94568,0.00190
1262.88551,0.00173
1260.82534,0.00173
1258.76516,0.00198
1256.70499,0.00225
1254.64482,0.00223
1252.58465,0.00207
1250.52447,0.00201
1248.46430,0.00199
1246.40413,0.00193
1244.34396,0.00187
1242.28379,0.00169
1240.22361,0.00147
1238.16344,0.00138
1236.10327,0.00139
1234.04310,0.00143
1231.98293,0.00126
1229.92275,0.00095
1227.86258,0.00080
1225.80241,0.00082
1223.74224,0.00081
1221.68207,0.00067
1219.62189,0.00038
1217.56172,0.00020
1215.50155,0.00026
1213.44138,0.00022
1211.38120,0.00000
1209.32103,-0.00003
1207.26086,0.00019
1205.20069,0.00025
1203.14052,0.00005
1201.08034,0.00006
1199.02017,0.00033
1196.96000,0.00055
1194.89983,0.00080
1192.83966,0.00100
1190.77948,0.00104
1188.71931,0.00107
1186.65914,0.00111
1184.59897,0.00126
1182.53880,0.00168
1180.47862,0.00219
1178.41845,0.00272
1176.35828,0.00346
1174.29811,0.00417
1172.23793,0.00456
1170.17776,0.00495
1168.11759,0.00564
1166.05742,0.00645
1163.99725,0.00713
1161.93707,0.00766
1159.87690,0.00794
1157.81673,0.00811
1155.75656,0.00865
1153.69639,0.00951
1151.63621,0.01028
1149.57604,0.01093
1147.51587,0.01152
1145.45570,0.01207
1143.39552,0.01278
1141.33535,0.01360
1139.27518,0.01420
1137.21501,0.01480
1135.15484,0.01578
1133.09466,0.01687
1131.03449,0.01782
1128.97432,0.01867
1126.91415,0.01952
1124.85398,0.02049
1122.79380,0.02156
1120.73363,0.02267
1118.67346,0.02359
1116.61329,0.02444
1114.55312,0.02555
1112.49294,0.02677
1110.43277,0.02789
1108.37260,0.02888
1106.31243,0.02992
1104.25225,0.03105
1102.19208,0.03215
1100.13191,0.03326
1098.07174,0.03428
1096.01157,0.03516
1093.95139,0.03608
1091.89122,0.03707
1089.83105,0.03805
1087.77088,0.03890
1085.71071,0.03952
1083.65053,0.04020
1081.59036,0.04108
1079.53019,0.04178
1077.47002,0.04219
1075.40985,0.04250
1073.34967,0.04281
1071.28950,0.04312
1069.22933,0.04334
1067.16916,0.04357
1065.10898,0.04385
1063.04881,0.04390
1060.98864,0.04370
1058.92847,0.04330
1056.86830,0.04261
1054.80812,0.04181
1052.74795,0.04116
1050.68778,0.04054
1048.62761,0.03956
1046.56744,0.03822
1044.50726,0.03695
1042.44709,0.03601
1040.38692,0.03525
1038.32675,0.03426
1036.26657,0.03291
1034.20640,0.03150
1032.14623,0.03029
1030.08606,0.02930
1028.02589,0.02833
1025.96571,0.02733
1023.90554,0.02634
1021.84537,0.02548
1019.78520,0.02492
1017.72503,0.02460
1015.66485,0.02417
1013.60468,0.02355
1011.54451,0.02307
1009.48434,0.02297
1007.42417,0.02320
1005.36399,0.02360
1003.30382,0.02393
1001.24365,0.02416
999.18348,0.02463
997.12330,0.02545
995.06313,0.02622
993.00296,0.02684
990.94279,0.02770
988.88262,0.02862
986.82244,0.02924
984.76227,0.02938
982.70210,0.02920
980.64193,0.02917
978.58176,0.02905
976.52158,0.02843
974.46141,0.02748
972.40124,0.02643
970.34107,0.02532
968.28089,0.02412
966.22072,0.02292
964.16055,0.02181
962.10038,0.02062
960.04021,0.01940
957.98003,0.01846
955.91986,0.01778
953.85969,0.01719
951.79952,0.01656
949.73935,0.01576
947.67917,0.01516
945.61900,0.01493
943.55883,0.01479
941.49866,0.01473
939.43849,0.01485
937.37831,0.01485
935.31814,0.01442
933.25797,0.01378
931.19780,0.01329
929.13762,0.01313
927.07745,0.01331
925.01728,0.01361
922.95711,0.01351
920.89694,0.01281
918.83676,0.01220
916.77659,0.01213
914.71642,0.01211
912.65625,0.01165
910.59608,0.01088
908.53590,0.01028
906.47573,0.01015
904.41556,0.01018
902.35539,0.01005
900.29522,0.01012
898.23504,0.01051
896.17487,0.01069
894.11470,0.01048
892.05453,0.01028
889.99435,0.01024
887.93418,0.01032
885.87401,0.01065
883.81384,0.01105
881.75367,0.01142
879.69349,0.01198
877.63332,0.01254
875.57315,0.01280
873.51298,0.01295
871.45281,0.01322
869.39263,0.01347
867.33246,0.01366
865.27229,0.01399
863.21212,0.01424
861.15194,0.01417
859.09177,0.01413
857.03160,0.01445
854.97143,0.01454
852.91126,0.01391
850.85108,0.01311
848.79091,0.01261
846.73074,0.01244
844.67057,0.01240
842.61040,0.01198
840.55022,0.01124
838.49005,0.01048
836.42988,0.00994
834.36971,0.00989
832.30954,0.00988
830.24936,0.00940
828.18919,0.00862
826.12902,0.00794
824.06885,0.00773
822.00867,0.00774
819.94850,0.00761
817.88833,0.00755
815.82816,0.00738
813.76799,0.00698
811.70781,0.00672
809.64764,0.00665
807.58747,0.00652
805.52730,0.00611
803.46713,0.00538
801.40695,0.00452
799.34678,0.00386
797.28661,0.00358
795.22644,0.00364
793.16627,0.00383
791.10609,0.00386
789.04592,0.00362
786.98575,0.00334
784.92558,0.00309
782.86540,0.00279
780.80523,0.00306
778.74506,0.00398
776.68489,0.00449
774.62472,0.00422
772.56454,0.00381
770.50437,0.00357
768.44420,0.00300
766.38403,0.00204
764.32386,0.00157
762.26368,0.00172
760.20351,0.00187
758.14334,0.00203
756.08317,0.00220
754.02299,0.00213
751.96282,0.00210
749.90265,0.00235
747.84248,0.00228
745.78231,0.00185
743.72213,0.00197
741.66196,0.00243
739.60179,0.00248
737.54162,0.00225
735.48145,0.00177
733.42127,0.00115
731.36110,0.00120
729.30093,0.00193
727.24076,0.00247
725.18059,0.00259
723.12041,0.00303
721.06024,0.00355
719.00007,0.00355
716.93990,0.00315
714.87972,0.00255
712.81955,0.00173
710.75938,0.00129
708.69921,0.00162
706.63904,0.00219
704.57886,0.00260
702.51869,0.00282
700.45852,0.00270
698.39835,0.00262
696.33818,0.00276
694.27800,0.00242
692.21783,0.00172
690.15766,0.00151
688.09749,0.00198
686.03731,0.00297
683.97714,0.00392
681.91697,0.00412
679.85680,0.00346
677.79663,0.00266
675.73645,0.00250
673.67628,0.00260
671.61611,0.00212
669.55594,0.00134
667.49577,0.00102
665.43559,0.00115
663.37542,0.00130
661.31525,0.00115
659.25508,0.00054
657.19491,0.00000
655.13473,0.00004
653.07456,0.00076
651.01439,0.00199
648.95422,0.00293
646.89404,0.00282
644.83387,0.00228
642.77370,0.00239
640.71353,0.00300
638.65336,0.00343
636.59318,0.00354
634.53301,0.00360
632.47284,0.00326
630.41267,0.00198
628.35250,0.00087
626.29232,0.00139
624.23215,0.00241
622.17198,0.00255
620.11181,0.00267
618.05164,0.00417
615.99146,0.00580
613.93129,0.00575
611.87112,0.00483
609.81095,0.00359
607.75077,0.00206
605.69060,0.00171
603.63043,0.00271
601.57026,0.00205
599.51009,0.00000
