3996.73391,0.00083
3994.67373,0.00074
3992.61356,0.00059
3990.55339,0.00043
3988.49322,0.00030
3986.43305,0.00035
3984.37287,0.00043
3982.31270,0.00030
3980.25253,0.00019
3978.19236,0.00032
3976.13219,0.00054
3974.07201,0.00064
3972.01184,0.00059
3969.95167,0.00044
3967.89150,0.00034
3965.83133,0.00035
3963.77115,0.00038
3961.71098,0.00029
3959.65081,0.00009
3957.59064,0.00000
3955.53046,0.00013
3953.47029,0.00030
3951.41012,0.00038
3949.34995,0.00036
3947.28978,0.00029
3945.22960,0.00023
3943.16943,0.00020
3941.10926,0.00022
3939.04909,0.00039
3936.98892,0.00059
3934.92874,0.00064
3932.86857,0.00059
3930.80840,0.00054
3928.74823,0.00043
3926.68805,0.00032
3924.62788,0.00034
3922.56771,0.00038
3920.50754,0.00035
3918.44737,0.00029
3916.38719,0.00035
3914.32702,0.00050
3912.26685,0.00064
3910.20668,0.00062
3908.14651,0.00044
3906.08633,0.00040
3904.02616,0.00045
3901.96599,0.00030
3899.90582,0.00020
3897.84565,0.00034
3895.78547,0.00043
3893.72530,0.00041
3891.66513,0.00053
3889.60496,0.00080
3887.54478,0.00090
3885.48461,0.00074
3883.42444,0.00054
3881.36427,0.00038
3879.30410,0.00019
3877.24392,0.00026
3875.18375,0.00064
3873.12358,0.00108
3871.06341,0.00141
3869.00324,0.00137
3866.94306,0.00100
3864.88289,0.00067
3862.82272,0.00060
3860.76255,0.00071
3858.70237,0.00101
3856.64220,0.00150
3854.58203,0.00182
3852.52186,0.00154
3850.46169,0.00102
3848.40151,0.00075
3846.34134,0.00086
3844.28117,0.00123
3842.22100,0.00153
3840.16083,0.00162
3838.10065,0.00150
3836.04048,0.00120
3833.98031,0.00099
3831.92014,0.00090
3829.85997,0.00072
3827.79979,0.00053
3825.73962,0.00051
3823.67945,0.00047
3821.61928,0.00031
3819.55910,0.00047
3817.49893,0.00099
3815.43876,0.00132
3813.37859,0.00125
3811.31842,0.00104
3809.25824,0.00091
3807.19807,0.00093
3805.13790,0.00100
3803.07773,0.00102
3801.01756,0.00110
3798.95738,0.00123
3796.89721,0.00107
3794.83704,0.00074
3792.77687,0.00056
3790.71670,0.00044
3788.65652,0.00028
3786.59635,0.00039
3784.53618,0.00093
3782.47601,0.00150
3780.41583,0.00166
3778.35566,0.00157
3776.29549,0.00158
3774.23532,0.00161
3772.17515,0.00149
3770.11497,0.00134
3768.05480,0.00129
3765.99463,0.00128
3763.93446,0.00131
3761.87429,0.00140
3759.81411,0.00140
3757.75394,0.00143
3755.69377,0.00161
3753.63360,0.00169
3751.57342,0.00151
3749.51325,0.00135
3747.45308,0.00146
3745.39291,0.00158
3743.33274,0.00149
3741.27256,0.00146
3739.21239,0.00144
3737.15222,0.00093
3735.09205,0.00018
3733.03188,0.00002
3730.97170,0.00039
3728.91153,0.00083
3726.85136,0.00126
3724.79119,0.00145
3722.73102,0.00121
3720.67084,0.00090
3718.61067,0.00094
3716.55050,0.00128
3714.49033,0.00140
3712.43015,0.00122
3710.36998,0.00132
3708.30981,0.00171
3706.24964,0.00198
3704.18947,0.00184
3702.12929,0.00137
3700.06912,0.00113
3698.00895,0.00132
3695.94878,0.00155
3693.88861,0.00162
3691.82843,0.00156
3689.76826,0.00150
3687.70809,0.00165
3685.64792,0.00191
3683.58775,0.00220
3681.52757,0.00248
3679.46740,0.00258
3677.40723,0.00233
3675.34706,0.00200
3673.28688,0.00207
3671.22671,0.00242
3669.16654,0.00275
3667.10637,0.00292
3665.04620,0.00311
3662.98602,0.00348
3660.92585,0.00378
3658.86568,0.00369
3656.80551,0.00349
3654.74534,0.00357
3652.68516,0.00371
3650.62499,0.00372
3648.56482,0.00411
3646.50465,0.00503
3644.44447,0.00577
3642.38430,0.00614
3640.32413,0.00627
3638.26396,0.00622
3636.20379,0.00619
3634.14361,0.00633
3632.08344,0.00662
3630.02327,0.00693
3627.96310,0.00697
3625.90293,0.00690
3623.84275,0.00720
3621.78258,0.00773
3619.72241,0.00809
3617.66224,0.00829
3615.60207,0.00850
3613.54189,0.00892
3611.48172,0.00963
3609.42155,0.01029
3607.36138,0.01070
3605.30120,0.01108
3603.24103,0.01138
3601.18086,0.01135
3599.12069,0.01128
3597.06052,0.01161
3595.00034,0.01220
3592.94017,0.01277
3590.88000,0.01338
3588.81983,0.01384
3586.75966,0.01410
3584.69948,0.01446
3582.63931,0.01498
3580.57914,0.01540
3578.51897,0.01561
3576.45879,0.01582
3574.39862,0.01610
3572.33845,0.01638
3570.27828,0.01678
3568.21811,0.01730
3566.15793,0.01763
3564.09776,0.01784
3562.03759,0.01816
3559.97742,0.01861
3557.91725,0.01905
3555.85707,0.01942
3553.79690,0.01972
3551.73673,0.02008
3549.67656,0.02058
3547.61639,0.02089
3545.55621,0.02075
3543.49604,0.02067
3541.43587,0.02103
3539.37570,0.02156
3537.31552,0.02202
3535.25535,0.02246
3533.19518,0.02298
3531.13501,0.02349
3529.07484,0.02395
3527.01466,0.02430
3524.95449,0.02450
3522.89432,0.02470
3520.83415,0.02509
3518.77398,0.02550
3516.71380,0.02578
3514.65363,0.02605
3512.59346,0.02638
3510.53329,0.02664
3508.47312,0.02692
3506.41294,0.02738
3504.35277,0.02782
3502.29260,0.02790
3500.23243,0.02782
3498.17225,0.02794
3496.11208,0.02833
3494.05191,0.02888
3491.99174,0.02937
3489.93157,0.02981
3487.87139,0.03022
3485.81122,0.03052
3483.75105,0.03060
3481.69088,0.03058
3479.63071,0.03078
3477.57053,0.03122
3475.51036,0.03170
3473.45019,0.03203
3471.39002,0.03219
3469.32984,0.03233
3467.26967,0.03271
3465.20950,0.03320
3463.14933,0.03338
3461.08916,0.03332
3459.02898,0.03346
3456.96881,0.03383
3454.90864,0.03420
3452.84847,0.03441
3450.78830,0.03458
3448.72812,0.03493
3446.66795,0.03532
3444.60778,0.03552
3442.54761,0.03552
3440.48744,0.03556
3438.42726,0.03572
3436.36709,0.03579
3434.30692,0.03589
3432.24675,0.03613
3430.18657,0.03644
3428.12640,0.03673
3426.06623,0.03698
3424.00606,0.03722
3421.94589,0.03737
3419.88571,0.03742
3417.82554,0.03761
3415.76537,0.03788
3413.70520,0.03799
3411.64503,0.03811
3409.58485,0.03839
3407.52468,0.03876
3405.46451,0.03906
3403.40434,0.03903
3401.34416,0.03890
3399.28399,0.03910
3397.22382,0.03929
3395.16365,0.03921
3393.10348,0.03904
3391.04330,0.03910
3388.98313,0.03954
3386.92296,0.04003
3384.86279,0.04017
3382.80262,0.04010
3380.74244,0.04012
3378.68227,0.04029
3376.62210,0.04057
3374.56193,0.04075
3372.50176,0.04077
3370.44158,0.04095
3368.38141,0.04127
3366.32124,0.04135
3364.26107,0.04127
3362.20089,0.04131
3360.14072,0.04132
3358.08055,0.04129
3356.02038,0.04140
3353.96021,0.04148
3351.90003,0.04154
3349.83986,0.04179
3347.77969,0.04189
3345.71952,0.04164
3343.65935,0.04160
3341.59917,0.04199
3339.53900,0.04238
3337.47883,0.04238
3335.41866,0.04216
3333.35849,0.04216
3331.29831,0.04233
3329.23814,0.04241
3327.17797,0.04226
3325.11780,0.04191
3323.05762,0.04171
3320.99745,0.04188
3318.93728,0.04223
3316.87711,0.04252
3314.81694,0.04259
3312.75676,0.04242
3310.69659,0.04227
3308.63642,0.04238
3306.57625,0.04259
3304.51608,0.04250
3302.45590,0.04227
3300.39573,0.04232
3298.33556,0.04262
3296.27539,0.04284
3294.21521,0.04276
3292.15504,0.04262
3290.09487,0.04276
3288.03470,0.04304
3285.97453,0.04315
3283.91435,0.04305
3281.85418,0.04300
3279.79401,0.04300
3277.73384,0.04295
3275.67367,0.04288
3273.61349,0.04275
3271.55332,0.04264
3269.49315,0.04273
3267.43298,0.04294
3265.37281,0.04305
3263.31263,0.04291
3261.25246,0.04268
3259.19229,0.04261
3257.13212,0.04270
3255.07194,0.04268
3253.01177,0.04255
3250.95160,0.04262
3248.89143,0.04293
3246.83126,0.04310
3244.77108,0.04287
3242.71091,0.04262
3240.65074,0.04267
3238.59057,0.04278
3236.53040,0.04269
3234.47022,0.04254
3232.41005,0.04251
3230.34988,0.04248
3228.28971,0.04241
3226.22954,0.04246
3224.16936,0.04252
3222.10919,0.04228
3220.04902,0.04188
3217.98885,0.04172
3215.92867,0.04177
3213.86850,0.04181
3211.80833,0.04189
3209.74816,0.04197
3207.68799,0.04188
3205.62781,0.04167
3203.56764,0.04141
3201.50747,0.04121
3199.44730,0.04108
3197.38713,0.04094
3195.32695,0.04076
3193.26678,0.04069
3191.20661,0.04071
3189.14644,0.04071
3187.08626,0.04075
3185.02609,0.04071
3182.96592,0.04039
3180.90575,0.03997
3178.84558,0.03969
3176.78540,0.03965
3174.72523,0.03974
3172.66506,0.03967
3170.60489,0.03945
3168.54472,0.03927
3166.48454,0.03915
3164.42437,0.03906
3162.36420,0.03907
3160.30403,0.03896
3158.24386,0.03869
3156.18368,0.03856
3154.12351,0.03856
3152.06334,0.03857
3150.00317,0.03845
3147.94299,0.03807
3145.88282,0.03773
3143.82265,0.03755
3141.76248,0.03739
3139.70231,0.03727
3137.64213,0.03717
3135.58196,0.03703
3133.52179,0.03688
3131.46162,0.03667
3129.40145,0.03641
3127.34127,0.03633
3125.28110,0.03641
3123.22093,0.03630
3121.16076,0.03599
3119.10058,0.03583
3117.04041,0.03592
3114.98024,0.03601
3112.92007,0.03575
3110.85990,0.03534
3108.79972,0.03510
3106.73955,0.03496
3104.67938,0.03461
3102.61921,0.03416
3100.55904,0.03398
3098.49886,0.03400
3096.43869,0.03387
3094.37852,0.03363
3092.31835,0.03347
3090.25818,0.03340
3088.19800,0.03333
3086.13783,0.03320
3084.07766,0.03309
3082.01749,0.03295
3079.95731,0.03274
3077.89714,0.03263
3075.83697,0.03260
3073.77680,0.03250
3071.71663,0.03224
3069.65645,0.03193
3067.59628,0.03171
3065.53611,0.03154
3063.47594,0.03131
3061.41577,0.03102
3059.35559,0.03075
3057.29542,0.03057
3055.23525,0.03053
3053.17508,0.03035
3051.11491,0.03001
3049.05473,0.02981
3046.99456,0.02975
3044.93439,0.02955
3042.87422,0.02922
3040.81404,0.02891
3038.75387,0.02871
3036.69370,0.02857
3034.63353,0.02847
3032.57336,0.02841
3030.51318,0.02831
3028.45301,0.02809
3026.39284,0.02789
3024.33267,0.02778
3022.27250,0.02763
3020.21232,0.02750
3018.15215,0.02744
3016.09198,0.02736
3014.03181,0.02724
3011.97163,0.02697
3009.91146,0.02657
3007.85129,0.02630
3005.79112,0.02611
3003.73095,0.02588
3001.67077,0.02559
2999.61060,0.02521
2997.55043,0.02509
2995.49026,0.02540
2993.43009,0.02555
2991.36991,0.02529
2989.30974,0.02500
2987.24957,0.02502
2985.18940,0.02515
2983.12923,0.02501
2981.06905,0.02476
2979.00888,0.02471
2976.94871,0.02481
2974.88854,0.02488
2972.82836,0.02483
2970.76819,0.02475
2968.70802,0.02472
2966.64785,0.02468
2964.58768,0.02464
2962.52750,0.02465
2960.46733,0.02474
2958.40716,0.02475
2956.34699,0.02468
2954.28682,0.02467
2952.22664,0.02468
2950.16647,0.02470
2948.10630,0.02475
2946.04613,0.02473
2943.98596,0.02462
2941.92578,0.02467
2939.86561,0.02484
2937.80544,0.02488
2935.74527,0.02480
2933.68509,0.02478
2931.62492,0.02479
2929.56475,0.02469
2927.50458,0.02454
2925.44441,0.02455
2923.38423,0.02460
2921.32406,0.02451
2919.26389,0.02442
2917.20372,0.02441
2915.14355,0.02425
2913.08337,0.02383
2911.02320,0.02339
2908.96303,0.02310
2906.90286,0.02305
2904.84268,0.02319
2902.78251,0.02324
2900.72234,0.02309
2898.66217,0.02286
2896.60200,0.02274
2894.54182,0.02276
2892.48165,0.02272
2890.42148,0.02256
2888.36131,0.02245
2886.30114,0.02243
2884.24096,0.02244
2882.18079,0.02246
2880.12062,0.02236
2878.06045,0.02215
2876.00028,0.02204
2873.94010,0.02195
2871.87993,0.02171
2869.81976,0.02148
2867.75959,0.02134
2865.69941,0.02118
2863.63924,0.02106
2861.57907,0.02102
2859.51890,0.02099
2857.45873,0.02091
2855.39855,0.02076
2853.33838,0.02067
2851.27821,0.02067
2849.21804,0.02064
2847.15787,0.02047
2845.09769,0.02013
2843.03752,0.01988
2840.97735,0.01982
2838.91718,0.01979
2836.85700,0.01964
2834.79683,0.01938
2832.73666,0.01914
2830.67649,0.01899
2828.61632,0.01878
2826.55614,0.01858
2824.49597,0.01849
2822.43580,0.01838
2820.37563,0.01827
2818.31546,0.01825
2816.25528,0.01826
2814.19511,0.01835
2812.13494,0.01849
2810.07477,0.01844
2808.01460,0.01822
2805.95442,0.01808
2803.89425,0.01796
2801.83408,0.01783
2799.77391,0.01781
2797.71373,0.01788
2795.65356,0.01784
2793.59339,0.01754
2791.53322,0.01718
2789.47305,0.01713
2787.41287,0.01714
2785.35270,0.01694
2783.29253,0.01675
2781.23236,0.01668
2779.17219,0.01665
2777.11201,0.01662
2775.05184,0.01653
2772.99167,0.01643
2770.93150,0.01645
2768.87133,0.01639
2766.81115,0.01620
2764.75098,0.01611
2762.69081,0.01610
2760.63064,0.01599
2758.57046,0.01584
2756.51029,0.01575
2754.45012,0.01575
2752.38995,0.01586
2750.32978,0.01596
2748.26960,0.01586
2746.20943,0.01560
2744.14926,0.01547
2742.08909,0.01544
2740.02892,0.01533
2737.96874,0.01528
2735.90857,0.01529
2733.84840,0.01517
2731.78823,0.01493
2729.72805,0.01476
2727.66788,0.01471
2725.60771,0.01467
2723.54754,0.01471
2721.48737,0.01483
2719.42719,0.01476
2717.36702,0.01445
2715.30685,0.01419
2713.24668,0.01413
2711.18651,0.01409
2709.12633,0.01405
2707.06616,0.01404
2705.00599,0.01407
2702.94582,0.01408
2700.88565,0.01393
2698.82547,0.01362
2696.76530,0.01341
2694.70513,0.01339
2692.64496,0.01336
2690.58478,0.01327
2688.52461,0.01325
2686.46444,0.01329
2684.40427,0.01317
2682.34410,0.01298
2680.28392,0.01288
2678.22375,0.01282
2676.16358,0.01280
2674.10341,0.01286
2672.04324,0.01276
2669.98306,0.01243
2667.92289,0.01221
2665.86272,0.01223
2663.80255,0.01229
2661.74238,0.01226
2659.68220,0.01217
2657.62203,0.01206
2655.56186,0.01207
2653.50169,0.01214
2651.44151,0.01202
2649.38134,0.01180
2647.32117,0.01168
2645.26100,0.01159
2643.20083,0.01142
2641.14065,0.01131
2639.08048,0.01130
2637.02031,0.01126
2634.96014,0.01112
2632.89997,0.01099
2630.83979,0.01097
2628.77962,0.01094
2626.71945,0.01076
2624.65928,0.01044
2622.59910,0.01028
2620.53893,0.01016
2618.47876,0.00995
2616.41859,0.00996
2614.35842,0.00999
2612.29824,0.00984
2610.23807,0.00982
2608.17790,0.00979
2606.11773,0.00949
2604.05756,0.00934
2601.99738,0.00961
2599.93721,0.00981
2597.87704,0.00960
2595.81687,0.00930
2593.75670,0.00919
2591.69652,0.00922
2589.63635,0.00924
2587.57618,0.00936
2585.51601,0.00962
2583.45583,0.00973
2581.39566,0.00949
2579.33549,0.00909
2577.27532,0.00875
2575.21515,0.00851
2573.15497,0.00841
2571.09480,0.00851
2569.03463,0.00864
2566.97446,0.00864
2564.91429,0.00849
2562.85411,0.00828
2560.79394,0.00828
2558.73377,0.00849
2556.67360,0.00865
2554.61342,0.00861
2552.55325,0.00850
2550.49308,0.00853
2548.43291,0.00868
2546.37274,0.00863
2544.31256,0.00848
2542.25239,0.00853
2540.19222,0.00853
2538.13205,0.00838
2536.07188,0.00833
2534.01170,0.00846
2531.95153,0.00861
2529.89136,0.00854
2527.83119,0.00836
2525.77102,0.00833
2523.71084,0.00849
2521.65067,0.00863
2519.59050,0.00849
2517.53033,0.00810
2515.47015,0.00779
2513.40998,0.00771
2511.34981,0.00785
2509.28964,0.00812
2507.22947,0.00821
2505.16929,0.00806
2503.10912,0.00795
2501.04895,0.00796
2498.98878,0.00798
2496.92861,0.00788
2494.86843,0.00778
2492.80826,0.00792
2490.74809,0.00821
2488.68792,0.00839
2486.62775,0.00840
2484.56757,0.00839
2482.50740,0.00863
2480.44723,0.00889
2478.38706,0.00884
2476.32688,0.00863
2474.26671,0.00841
2472.20654,0.00834
2470.14637,0.00847
2468.08620,0.00854
2466.02602,0.00846
2463.96585,0.00855
2461.90568,0.00885
2459.84551,0.00890
2457.78534,0.00863
2455.72516,0.00844
2453.66499,0.00842
2451.60482,0.00845
2449.54465,0.00843
2447.48447,0.00850
2445.42430,0.00870
2443.36413,0.00871
2441.30396,0.00852
2439.24379,0.00839
2437.18361,0.00840
2435.12344,0.00852
2433.06327,0.00859
2431.00310,0.00855
2428.94293,0.00857
2426.88275,0.00866
2424.82258,0.00866
2422.76241,0.00850
2420.70224,0.00827
2418.64207,0.00820
2416.58189,0.00820
2414.52172,0.00816
2412.46155,0.00801
2410.40138,0.00772
2408.34120,0.00757
2406.28103,0.00782
2404.22086,0.00827
2402.16069,0.00844
2400.10052,0.00836
2398.04034,0.00824
2395.98017,0.00809
2393.92000,0.00789
2391.85983,0.00772
2389.79966,0.00767
2387.73948,0.00779
2385.67931,0.00808
2383.61914,0.00839
2381.55897,0.00853
2379.49880,0.00847
2377.43862,0.00845
2375.37845,0.00862
2373.31828,0.00903
2371.25811,0.00917
2369.19793,0.00792
2367.13776,0.00521
2365.07759,0.00329
2363.01742,0.00323
2360.95725,0.00377
2358.89707,0.00366
2356.83690,0.00465
2354.77673,0.00623
2352.71656,0.00726
2350.65639,0.00865
2348.59621,0.00932
2346.53604,0.00779
2344.47587,0.00757
2342.41570,0.00808
2340.35552,0.00836
2338.29535,0.00857
2336.23518,0.00845
2334.17501,0.00783
2332.11484,0.00693
2330.05466,0.00664
2327.99449,0.00697
2325.93432,0.00770
2323.87415,0.00768
2321.81398,0.00740
2319.75380,0.00746
2317.69363,0.00825
2315.63346,0.00871
2313.57329,0.00851
2311.51312,0.00789
2309.45294,0.00728
2307.39277,0.00735
2305.33260,0.00785
2303.27243,0.00805
2301.21225,0.00781
2299.15208,0.00750
2297.09191,0.00718
2295.03174,0.00698
2292.97157,0.00699
2290.91139,0.00709
2288.85122,0.00723
2286.79105,0.00742
2284.73088,0.00753
2282.67071,0.00733
2280.61053,0.00691
2278.55036,0.00690
2276.49019,0.00722
2274.43002,0.00713
2272.36984,0.00669
2270.30967,0.00649
2268.24950,0.00639
2266.18933,0.00623
2264.12916,0.00615
2262.06898,0.00591
2260.00881,0.00539
2257.94864,0.00504
2255.88847,0.00493
2253.82830,0.00494
2251.76812,0.00504
2249.70795,0.00509
2247.64778,0.00513
2245.58761,0.00499
2243.52744,0.00473
2241.46726,0.00510
2239.40709,0.00566
2237.34692,0.00550
2235.28675,0.00531
2233.22657,0.00556
2231.16640,0.00584
2229.10623,0.00577
2227.04606,0.00522
2224.98589,0.00469
2222.92571,0.00448
2220.86554,0.00428
2218.80537,0.00412
2216.74520,0.00430
2214.68503,0.00484
2212.62485,0.00512
2210.56468,0.00481
2208.50451,0.00426
2206.44434,0.00395
2204.38417,0.00457
2202.32399,0.00526
2200.26382,0.00474
2198.20365,0.00447
2196.14348,0.00527
2194.08330,0.00573
2192.02313,0.00552
2189.96296,0.00479
2187.90279,0.00357
2185.84262,0.00268
2183.78244,0.00235
2181.72227,0.00248
2179.66210,0.00321
2177.60193,0.00394
2175.54176,0.00404
2173.48158,0.00400
2171.42141,0.00391
2169.36124,0.00323
2167.30107,0.00326
2165.24089,0.00481
2163.18072,0.00543
2161.12055,0.00381
2159.06038,0.00219
2157.00021,0.00156
2154.94003,0.00091
2152.87986,0.00059
2150.81969,0.00100
2148.75952,0.00153
2146.69935,0.00217
2144.63917,0.00298
2142.57900,0.00332
2140.51883,0.00324
2138.45866,0.00277
2136.39849,0.00206
2134.33831,0.00217
2132.27814,0.00291
2130.21797,0.00322
2128.15780,0.00320
2126.09762,0.00321
2124.03745,0.00302
2121.97728,0.00286
2119.91711,0.00312
2117.85694,0.00346
2115.79676,0.00353
2113.73659,0.00341
2111.67642,0.00339
2109.61625,0.00379
2107.55608,0.00440
2105.49590,0.00441
2103.43573,0.00370
2101.37556,0.00325
2099.31539,0.00320
2097.25521,0.00317
2095.19504,0.00342
2093.13487,0.00386
2091.07470,0.00405
2089.01453,0.00395
2086.95435,0.00352
2084.89418,0.00297
2082.83401,0.00288
2080.77384,0.00301
2078.71367,0.00259
2076.65349,0.00184
2074.59332,0.00173
2072.53315,0.00244
2070.47298,0.00301
2068.41281,0.00288
2066.35263,0.00253
2064.29246,0.00237
2062.23229,0.00229
2060.17212,0.00219
2058.11194,0.00217
2056.05177,0.00218
2053.99160,0.00241
2051.93143,0.00254
2049.87126,0.00224
2047.81108,0.00194
2045.75091,0.00190
2043.69074,0.00161
2041.63057,0.00075
2039.57040,0.00033
2037.51022,0.00109
2035.45005,0.00216
2033.38988,0.00207
2031.32971,0.00099
2029.26954,0.00044
2027.20936,0.00038
2025.14919,0.00022
2023.08902,0.00037
2021.02885,0.00071
2018.96867,0.00082
2016.90850,0.00125
2014.84833,0.00231
2012.78816,0.00318
2010.72799,0.00336
2008.66781,0.00282
2006.60764,0.00177
2004.54747,0.00099
2002.48730,0.00095
2000.42713,0.00122
1998.36695,0.00127
1996.30678,0.00139
1994.24661,0.00192
1992.18644,0.00225
1990.12626,0.00211
1988.06609,0.00181
1986.00592,0.00151
1983.94575,0.00152
1981.88558,0.00182
1979.82540,0.00185
1977.76523,0.00135
1975.70506,0.00067
1973.64489,0.00019
1971.58472,0.00018
1969.52454,0.00073
1967.46437,0.00099
1965.40420,0.00067
1963.34403,0.00065
1961.28386,0.00108
1959.22368,0.00147
1957.16351,0.00147
1955.10334,0.00081
1953.04317,0.00031
1950.98299,0.00085
1948.92282,0.00149
1946.86265,0.00143
1944.80248,0.00106
1942.74231,0.00067
1940.68213,0.00055
1938.62196,0.00057
1936.56179,0.00033
1934.50162,0.00035
1932.44145,0.00093
1930.38127,0.00140
1928.32110,0.00159
1926.26093,0.00161
1924.20076,0.00134
1922.14059,0.00104
1920.08041,0.00115
1918.02024,0.00160
1915.96007,0.00195
1913.89990,0.00189
1911.83972,0.00161
1909.77955,0.00137
1907.71938,0.00125
1905.65921,0.00119
1903.59904,0.00119
1901.53886,0.00147
1899.47869,0.00187
1897.41852,0.00191
1895.35835,0.00152
1893.29818,0.00108
1891.23800,0.00104
1889.17783,0.00136
1887.11766,0.00161
1885.05749,0.00154
1882.99731,0.00122
1880.93714,0.00099
1878.87697,0.00109
1876.81680,0.00129
1874.75663,0.00127
1872.69645,0.00109
1870.63628,0.00101
1868.57611,0.00111
1866.51594,0.00126
1864.45577,0.00139
1862.39559,0.00147
1860.33542,0.00145
1858.27525,0.00133
1856.21508,0.00129
1854.15491,0.00147
1852.09473,0.00171
1850.03456,0.00184
1847.97439,0.00179
1845.91422,0.00156
1843.85404,0.00137
1841.79387,0.00145
1839.73370,0.00159
1837.67353,0.00162
1835.61336,0.00167
1833.55318,0.00172
1831.49301,0.00149
1829.43284,0.00110
1827.37267,0.00111
1825.31250,0.00151
1823.25232,0.00186
1821.19215,0.00197
1819.13198,0.00200
1817.07181,0.00201
1815.01163,0.00193
1812.95146,0.00171
1810.89129,0.00153
1808.83112,0.00149
1806.77095,0.00151
1804.71077,0.00154
1802.65060,0.00156
1800.59043,0.00149
1798.53026,0.00140
1796.47009,0.00133
1794.40991,0.00133
1792.34974,0.00151
1790.28957,0.00192
1788.22940,0.00221
1786.16923,0.00208
1784.10905,0.00176
1782.04888,0.00159
1779.98871,0.00166
1777.92854,0.00186
1775.86836,0.00199
1773.80819,0.00198
1771.74802,0.00194
1769.68785,0.00201
1767.62768,0.00219
1765.56750,0.00241
1763.50733,0.00257
1761.44716,0.00261
1759.38699,0.00255
1757.32682,0.00254
1755.26664,0.00284
1753.20647,0.00337
1751.14630,0.00369
1749.08613,0.00357
1747.02596,0.00351
1744.96578,0.00383
1742.90561,0.00432
1740.84544,0.00467
1738.78527,0.00476
1736.72509,0.00459
1734.66492,0.00420
1732.60475,0.00401
1730.54458,0.00433
1728.48441,0.00480
1726.42423,0.00515
1724.36406,0.00540
1722.30389,0.00556
1720.24372,0.00554
1718.18355,0.00536
1716.12337,0.00530
1714.06320,0.00551
1712.00303,0.00579
1709.94286,0.00592
1707.88268,0.00580
1705.82251,0.00570
1703.76234,0.00591
1701.70217,0.00621
1699.64200,0.00636
1697.58182,0.00659
1695.52165,0.00710
1693.46148,0.00774
1691.40131,0.00820
1689.34114,0.00843
1687.28096,0.00867
1685.22079,0.00894
1683.16062,0.00926
1681.10045,0.00985
1679.04028,0.01058
1676.98010,0.01118
1674.91993,0.01154
1672.85976,0.01173
1670.79959,0.01190
1668.73941,0.01220
1666.67924,0.01273
1664.61907,0.01331
1662.55890,0.01378
1660.49873,0.01424
1658.43855,0.01467
1656.37838,0.01490
1654.31821,0.01486
1652.25804,0.01489
1650.19787,0.01513
1648.13769,0.01521
1646.07752,0.01524
1644.01735,0.01553
1641.95718,0.01590
1639.89701,0.01608
1637.83683,0.01588
1635.77666,0.01546
1633.71649,0.01544
1631.65632,0.01575
1629.59614,0.01589
1627.53597,0.01581
1625.47580,0.01563
1623.41563,0.01547
1621.35546,0.01557
1619.29528,0.01577
1617.23511,0.01559
1615.17494,0.01529
1613.11477,0.01535
1611.05460,0.01546
1608.99442,0.01534
1606.93425,0.01511
1604.87408,0.01488
1602.81391,0.01463
1600.75373,0.01435
1598.69356,0.01398
1596.63339,0.01352
1594.57322,0.01308
1592.51305,0.01269
1590.45287,0.01224
1588.39270,0.01170
1586.33253,0.01124
1584.27236,0.01087
1582.21219,0.01051
1580.15201,0.01013
1578.09184,0.00958
1576.03167,0.00879
1573.97150,0.00825
1571.91133,0.00805
1569.85115,0.00772
1567.79098,0.00729
1565.73081,0.00708
1563.67064,0.00706
1561.61046,0.00697
1559.55029,0.00638
1557.49012,0.00555
1555.42995,0.00531
1553.36978,0.00540
1551.30960,0.00542
1549.24943,0.00532
1547.18926,0.00515
1545.12909,0.00487
1543.06892,0.00443
1541.00874,0.00397
1538.94857,0.00377
1536.88840,0.00384
1534.82823,0.00382
1532.76805,0.00366
1530.70788,0.00370
1528.64771,0.00379
1526.58754,0.00364
1524.52737,0.00325
1522.46719,0.00275
1520.40702,0.00235
1518.34685,0.00211
1516.28668,0.00202
1514.22651,0.00218
1512.16633,0.00232
1510.10616,0.00201
1508.04599,0.00135
1505.98582,0.00119
1503.92565,0.00170
1501.86547,0.00212
1499.80530,0.00216
1497.74513,0.00198
1495.68496,0.00188
1493.62478,0.00199
1491.56461,0.00202
1489.50444,0.00183
1487.44427,0.00171
1485.38410,0.00187
1483.32392,0.00214
1481.26375,0.00242
1479.20358,0.00263
1477.14341,0.00268
1475.08324,0.00258
1473.02306,0.00260
1470.96289,0.00300
1468.90272,0.00353
1466.84255,0.00381
1464.78238,0.00383
1462.72220,0.00387
1460.66203,0.00392
1458.60186,0.00383
1456.54169,0.00390
1454.48151,0.00438
1452.42134,0.00480
1450.36117,0.00491
1448.30100,0.00487
1446.24083,0.00488
1444.18065,0.00496
1442.12048,0.00499
1440.06031,0.00496
1438.00014,0.00496
1435.93997,0.00499
1433.87979,0.00510
1431.81962,0.00531
1429.75945,0.00556
1427.69928,0.00578
1425.63910,0.00603
1423.57893,0.00631
1421.51876,0.00648
1419.45859,0.00643
1417.39842,0.00642
1415.33824,0.00661
1413.27807,0.00674
1411.21790,0.00672
1409.15773,0.00670
1407.09756,0.00664
1405.03738,0.00643
1402.97721,0.00619
1400.91704,0.00598
1398.85687,0.00567
1396.79670,0.00536
1394.73652,0.00522
1392.67635,0.00531
1390.61618,0.00540
1388.55601,0.00533
1386.49583,0.00525
1384.43566,0.00536
1382.37549,0.00556
1380.31532,0.00570
1378.25515,0.00568
1376.19497,0.00551
1374.13480,0.00529
1372.07463,0.00519
1370.01446,0.00521
1367.95429,0.00531
1365.89411,0.00536
1363.83394,0.00519
1361.77377,0.00484
1359.71360,0.00455
1357.65343,0.00440
1355.59325,0.00437
1353.53308,0.00429
1351.47291,0.00409
1349.41274,0.00392
1347.35256,0.00389
1345.29239,0.00395
1343.23222,0.00399
1341.17205,0.00390
1339.11188,0.00369
1337.05170,0.00361
1334.99153,0.00367
1332.93136,0.00367
1330.87119,0.00359
1328.81102,0.00353
1326.75084,0.00350
1324.69067,0.00348
1322.63050,0.00350
1320.57033,0.00353
1318.51015,0.00357
1316.44998,0.00354
1314.38981,0.00338
1312.32964,0.00324
1310.26947,0.00331
1308.20929,0.00346
1306.14912,0.00350
1304.08895,0.00343
1302.02878,0.00340
1299.96861,0.00344
1297.90843,0.00347
1295.84826,0.00343
1293.78809,0.00339
1291.72792,0.00339
1289.66775,0.00339
1287.60757,0.00336
1285.54740,0.00333
1283.48723,0.00339
1281.42706,0.00355
1279.36688,0.00370
1277.30671,0.00377
1275.24654,0.00381
1273.18637,0.00384
1271.12620,0.00383
1269.06602,0.00383
1267.00585,0.00392
1264.94568,0.00409
1262.88551,0.00419
1260.82534,0.00424
1258.76516,0.00432
1256.70499,0.00434
1254.64482,0.00430
1252.58465,0.00426
1250.52447,0.00418
1248.46430,0.00406
1246.40413,0.00395
1244.34396,0.00384
1242.28379,0.00376
1240.22361,0.00368
1238.16344,0.00347
1236.10327,0.00323
1234.04310,0.00312
1231.98293,0.00302
1229.92275,0.00280
1227.86258,0.00253
1225.80241,0.00230
1223.74224,0.00211
1221.68207,0.00190
1219.62189,0.00168
1217.56172,0.00143
1215.50155,0.00116
1213.44138,0.00094
1211.38120,0.00082
1209.32103,0.00070
1207.26086,0.00052
1205.20069,0.00035
1203.14052,0.00026
1201.08034,0.00025
1199.02017,0.00020
1196.96000,0.00013
1194.89983,0.00027
1192.83966,0.00054
1190.77948,0.00067
1188.71931,0.00070
1186.65914,0.00085
1184.59897,0.00125
1182.53880,0.00170
1180.47862,0.00211
1178.41845,0.00271
1176.35828,0.00341
1174.29811,0.00411
1172.23793,0.00488
1170.17776,0.00565
1168.11759,0.00642
1166.05742,0.00723
1163.99725,0.00797
1161.93707,0.00862
1159.87690,0.00923
1157.81673,0.00981
1155.75656,0.01039
1153.69639,0.01102
1151.63621,0.01164
1149.57604,0.01225
1147.51587,0.01290
1145.45570,0.01364
1143.39552,0.01442
1141.33535,0.01508
1139.27518,0.01567
1137.21501,0.01638
1135.15484,0.01717
1133.09466,0.01798
1131.03449,0.01890
1128.97432,0.01978
1126.91415,0.02049
1124.85398,0.02120
1122.79380,0.02199
1120.73363,0.02283
1118.67346,0.02372
1116.61329,0.02462
1114.55312,0.02553
1112.49294,0.02640
1110.43277,0.02732
1108.37260,0.02837
1106.31243,0.02939
1104.25225,0.03032
1102.19208,0.03128
1100.13191,0.03229
1098.07174,0.03329
1096.01157,0.03416
1093.95139,0.03494
1091.89122,0.03580
1089.83105,0.03676
1087.77088,0.03771
1085.71071,0.03866
1083.65053,0.03955
1081.59036,0.04045
1079.53019,0.04147
1077.47002,0.04246
1075.40985,0.04318
1073.34967,0.04352
1071.28950,0.04366
1069.22933,0.04386
1067.16916,0.04412
1065.10898,0.04433
1063.04881,0.04441
1060.98864,0.04437
1058.92847,0.04420
1056.86830,0.04387
1054.80812,0.04360
1052.74795,0.04345
1050.68778,0.04323
1048.62761,0.04287
1046.56744,0.04235
1044.50726,0.04171
1042.44709,0.04105
1040.38692,0.04032
1038.32675,0.03950
1036.26657,0.03882
1034.20640,0.03830
1032.14623,0.03773
1030.08606,0.03695
1028.02589,0.03604
1025.96571,0.03523
1023.90554,0.03452
1021.84537,0.03386
1019.78520,0.03320
1017.72503,0.03250
1015.66485,0.03178
1013.60468,0.03108
1011.54451,0.03042
1009.48434,0.02978
1007.42417,0.02908
1005.36399,0.02838
1003.30382,0.02785
1001.24365,0.02770
999.18348,0.02790
997.12330,0.02808
995.06313,0.02827
993.00296,0.02871
990.94279,0.02927
988.88262,0.02976
986.82244,0.03003
984.76227,0.02999
982.70210,0.02987
980.64193,0.02957
978.58176,0.02871
976.52158,0.02748
974.46141,0.02630
972.40124,0.02516
970.34107,0.02386
968.28089,0.02244
966.22072,0.02121
964.16055,0.02023
962.10038,0.01925
960.04021,0.01820
957.98003,0.01729
955.91986,0.01652
953.85969,0.01569
951.79952,0.01483
949.73935,0.01398
947.67917,0.01322
945.61900,0.01273
943.55883,0.01242
941.49866,0.01218
939.43849,0.01202
937.37831,0.01173
935.31814,0.01117
933.25797,0.01070
931.19780,0.01044
929.13762,0.01015
927.07745,0.00993
925.01728,0.00973
922.95711,0.00945
920.89694,0.00914
918.83676,0.00872
916.77659,0.00817
914.71642,0.00763
912.65625,0.00719
910.59608,0.00703
908.53590,0.00706
906.47573,0.00697
904.41556,0.00672
902.35539,0.00650
900.29522,0.00648
898.23504,0.00654
896.17487,0.00652
894.11470,0.00650
892.05453,0.00654
889.99435,0.00676
887.93418,0.00705
885.87401,0.00715
883.81384,0.00714
881.75367,0.00734
879.69349,0.00773
877.63332,0.00819
875.57315,0.00858
873.51298,0.00901
871.45281,0.00933
869.39263,0.00917
867.33246,0.00890
865.27229,0.00885
863.21212,0.00887
861.15194,0.00892
859.09177,0.00896
857.03160,0.00893
854.97143,0.00892
852.91126,0.00886
850.85108,0.00854
848.79091,0.00791
846.73074,0.00715
844.67057,0.00653
842.61040,0.00636
840.55022,0.00654
838.49005,0.00646
836.42988,0.00625
834.36971,0.00626
832.30954,0.00612
830.24936,0.00556
828.18919,0.00492
826.12902,0.00464
824.06885,0.00442
822.00867,0.00398
819.94850,0.00374
817.88833,0.00365
815.82816,0.00346
813.76799,0.00330
811.70781,0.00322
809.64764,0.00321
807.58747,0.00312
805.52730,0.00279
803.46713,0.00239
801.40695,0.00214
799.34678,0.00206
797.28661,0.00220
795.22644,0.00247
793.16627,0.00252
791.10609,0.00220
789.04592,0.00165
786.98575,0.00118
784.92558,0.00111
782.86540,0.00140
780.80523,0.00180
778.74506,0.00207
776.68489,0.00205
774.62472,0.00182
772.56454,0.00151
770.50437,0.00122
768.44420,0.00116
766.38403,0.00124
764.32386,0.00126
762.26368,0.00146
760.20351,0.00206
758.14334,0.00233
756.08317,0.00171
754.02299,0.00105
751.96282,0.00090
749.90265,0.00076
747.84248,0.00059
745.78231,0.00053
743.72213,0.00053
741.66196,0.00066
739.60179,0.00058
737.54162,0.00031
735.48145,0.00032
733.42127,0.00055
731.36110,0.00092
729.30093,0.00122
727.24076,0.00086
725.18059,0.00051
723.12041,0.00103
721.06024,0.00127
719.00007,0.00105
716.93990,0.00073
714.87972,0.00071
712.81955,0.00095
710.75938,0.00123
708.69921,0.00142
706.63904,0.00154
704.57886,0.00189
702.51869,0.00253
700.45852,0.00291
698.39835,0.00254
696.33818,0.00193
694.27800,0.00191
692.21783,0.00217
690.15766,0.00222
688.09749,0.00247
686.03731,0.00281
683.97714,0.00261
681.91697,0.00225
679.85680,0.00229
677.79663,0.00233
675.73645,0.00209
673.67628,0.00241
671.61611,0.00324
669.55594,0.00173
667.49577,0.00032
665.43559,0.00374
663.37542,0.00398
661.31525,0.00320
659.25508,0.00204
657.19491,0.00083
655.13473,0.00078
653.07456,0.00190
651.01439,0.00303
648.95422,0.00373
646.89404,0.00405
644.83387,0.00361
642.77370,0.00289
640.71353,0.00227
638.65336,0.00167
636.59318,0.00129
634.53301,0.00162
632.47284,0.00264
630.41267,0.00361
628.35250,0.00360
626.29232,0.00234
624.23215,0.00122
622.17198,0.00132
620.11181,0.00152
618.05164,0.00155
615.99146,0.00237
613.93129,0.00295
611.87112,0.00279
609.81095,0.00295
607.75077,0.00289
605.69060,0.00160
603.63043,0.00027
601.57026,0.00000
599.51009,0.00000
