3996.73391,0.00083
3994.67373,0.00057
3992.61356,0.00041
3990.55339,0.00047
3988.49322,0.00063
3986.43305,0.00073
3984.37287,0.00082
3982.31270,0.00083
3980.25253,0.00068
3978.19236,0.00059
3976.13219,0.00068
3974.07201,0.00076
3972.01184,0.00076
3969.95167,0.00071
3967.89150,0.00062
3965.83133,0.00056
3963.77115,0.00055
3961.71098,0.00056
3959.65081,0.00052
3957.59064,0.00039
3955.53046,0.00021
3953.47029,0.00004
3951.41012,0.00000
3949.34995,0.00013
3947.28978,0.00035
3945.22960,0.00052
3943.16943,0.00055
3941.10926,0.00041
3939.04909,0.00027
3936.98892,0.00030
3934.92874,0.00041
3932.86857,0.00054
3930.80840,0.00063
3928.74823,0.00047
3926.68805,0.00020
3924.62788,0.00020
3922.56771,0.00042
3920.50754,0.00056
3918.44737,0.00059
3916.38719,0.00063
3914.32702,0.00071
3912.26685,0.00073
3910.20668,0.00057
3908.14651,0.00036
3906.08633,0.00038
3904.02616,0.00047
3901.96599,0.00027
3899.90582,0.00004
3897.84565,0.00011
3895.78547,0.00024
3893.72530,0.00027
3891.66513,0.00029
3889.60496,0.00032
3887.54478,0.00038
3885.48461,0.00050
3883.42444,0.00060
3881.36427,0.00060
3879.30410,0.00051
3877.24392,0.00044
3875.18375,0.00040
3873.12358,0.00039
3871.06341,0.00057
3869.00324,0.00084
3866.94306,0.00086
3864.88289,0.00079
3862.82272,0.00084
3860.76255,0.00089
3858.70237,0.00085
3856.64220,0.00097
3854.58203,0.00135
3852.52186,0.00153
3850.46169,0.00122
3848.40151,0.00091
3846.34134,0.00087
3844.28117,0.00100
3842.22100,0.00119
3840.16083,0.00130
3838.10065,0.00128
3836.04048,0.00122
3833.98031,0.00121
3831.92014,0.00107
3829.85997,0.00072
3827.79979,0.00034
3825.73962,0.00020
3823.67945,0.00028
3821.61928,0.00034
3819.55910,0.00053
3817.49893,0.00085
3815.43876,0.00092
3813.37859,0.00076
3811.31842,0.00075
3809.25824,0.00093
3807.19807,0.00106
3805.13790,0.00102
3803.07773,0.00089
3801.01756,0.00081
3798.95738,0.00076
3796.89721,0.00066
3794.83704,0.00051
3792.77687,0.00042
3790.71670,0.00042
3788.65652,0.00038
3786.59635,0.00034
3784.53618,0.00047
3782.47601,0.00064
3780.41583,0.00070
3778.35566,0.00079
3776.29549,0.00093
3774.23532,0.00099
3772.17515,0.00093
3770.11497,0.00089
3768.05480,0.00096
3765.99463,0.00102
3763.93446,0.00109
3761.87429,0.00119
3759.81411,0.00115
3757.75394,0.00106
3755.69377,0.00105
3753.63360,0.00103
3751.57342,0.00082
3749.51325,0.00059
3747.45308,0.00060
3745.39291,0.00079
3743.33274,0.00099
3741.27256,0.00110
3739.21239,0.00099
3737.15222,0.00056
3735.09205,0.00016
3733.03188,0.00022
3730.97170,0.00046
3728.91153,0.00071
3726.85136,0.00093
3724.79119,0.00096
3722.73102,0.00081
3720.67084,0.00072
3718.61067,0.00093
3716.55050,0.00123
3714.49033,0.00117
3712.43015,0.00088
3710.36998,0.00092
3708.30981,0.00127
3706.24964,0.00155
3704.18947,0.00161
3702.12929,0.00134
3700.06912,0.00099
3698.00895,0.00096
3695.94878,0.00114
3693.88861,0.00124
3691.82843,0.00113
3689.76826,0.00112
3687.70809,0.00138
3685.64792,0.00162
3683.58775,0.00183
3681.52757,0.00207
3679.46740,0.00223
3677.40723,0.00232
3675.34706,0.00233
3673.28688,0.00227
3671.22671,0.00233
3669.16654,0.00232
3667.10637,0.00215
3665.04620,0.00224
3662.98602,0.00268
3660.92585,0.00292
3658.86568,0.00265
3656.80551,0.00241
3654.74534,0.00271
3652.68516,0.00308
3650.62499,0.00329
3648.56482,0.00376
3646.50465,0.00425
3644.44447,0.00440
3642.38430,0.00461
3640.32413,0.00505
3638.26396,0.00533
3636.20379,0.00533
3634.14361,0.00540
3632.08344,0.00563
3630.02327,0.00594
3627.96310,0.00627
3625.90293,0.00660
3623.84275,0.00696
3621.78258,0.00724
3619.72241,0.00731
3617.66224,0.00725
3615.60207,0.00737
3613.54189,0.00784
3611.48172,0.00855
3609.42155,0.00907
3607.36138,0.00933
3605.30120,0.00959
3603.24103,0.00978
3601.18086,0.00991
3599.12069,0.01021
3597.06052,0.01072
3595.00034,0.01106
3592.94017,0.01125
3590.88000,0.01152
3588.81983,0.01181
3586.75966,0.01223
3584.69948,0.01305
3582.63931,0.01380
3580.57914,0.01402
3578.51897,0.01395
3576.45879,0.01389
3574.39862,0.01386
3572.33845,0.01398
3570.27828,0.01432
3568.21811,0.01474
3566.15793,0.01511
3564.09776,0.01555
3562.03759,0.01613
3559.97742,0.01667
3557.91725,0.01708
3555.85707,0.01742
3553.79690,0.01776
3551.73673,0.01805
3549.67656,0.01825
3547.61639,0.01837
3545.55621,0.01850
3543.49604,0.01880
3541.43587,0.01927
3539.37570,0.01979
3537.31552,0.02024
3535.25535,0.02048
3533.19518,0.02057
3531.13501,0.02069
3529.07484,0.02098
3527.01466,0.02145
3524.95449,0.02187
3522.89432,0.02209
3520.83415,0.02224
3518.77398,0.02242
3516.71380,0.02270
3514.65363,0.02315
3512.59346,0.02371
3510.53329,0.02420
3508.47312,0.02449
3506.41294,0.02469
3504.35277,0.02496
3502.29260,0.02522
3500.23243,0.02527
3498.17225,0.02526
3496.11208,0.02555
3494.05191,0.02613
3491.99174,0.02656
3489.93157,0.02678
3487.87139,0.02695
3485.81122,0.02710
3483.75105,0.02716
3481.69088,0.02713
3479.63071,0.02733
3477.57053,0.02785
3475.51036,0.02834
3473.45019,0.02867
3471.39002,0.02891
3469.32984,0.02918
3467.26967,0.02951
3465.20950,0.02974
3463.14933,0.02977
3461.08916,0.02978
3459.02898,0.02998
3456.96881,0.03021
3454.90864,0.03045
3452.84847,0.03078
3450.78830,0.03108
3448.72812,0.03130
3446.66795,0.03165
3444.60778,0.03213
3442.54761,0.03239
3440.48744,0.03231
3438.42726,0.03229
3436.36709,0.03240
3434.30692,0.03256
3432.24675,0.03276
3430.18657,0.03296
3428.12640,0.03306
3426.06623,0.03324
3424.00606,0.03356
3421.94589,0.03384
3419.88571,0.03394
3417.82554,0.03396
3415.76537,0.03413
3413.70520,0.03436
3411.64503,0.03456
3409.58485,0.03479
3407.52468,0.03502
3405.46451,0.03522
3403.40434,0.03530
3401.34416,0.03529
3399.28399,0.03539
3397.22382,0.03548
3395.16365,0.03553
3393.10348,0.03547
3391.04330,0.03540
3388.98313,0.03567
3386.92296,0.03614
3384.86279,0.03629
3382.80262,0.03621
3380.74244,0.03625
3378.68227,0.03632
3376.62210,0.03641
3374.56193,0.03670
3372.50176,0.03716
3370.44158,0.03752
3368.38141,0.03760
3366.32124,0.03756
3364.26107,0.03757
3362.20089,0.03759
3360.14072,0.03748
3358.08055,0.03725
3356.02038,0.03716
3353.96021,0.03733
3351.90003,0.03764
3349.83986,0.03782
3347.77969,0.03781
3345.71952,0.03782
3343.65935,0.03807
3341.59917,0.03841
3339.53900,0.03851
3337.47883,0.03834
3335.41866,0.03822
3333.35849,0.03829
3331.29831,0.03844
3329.23814,0.03868
3327.17797,0.03877
3325.11780,0.03845
3323.05762,0.03813
3320.99745,0.03811
3318.93728,0.03820
3316.87711,0.03827
3314.81694,0.03840
3312.75676,0.03850
3310.69659,0.03848
3308.63642,0.03830
3306.57625,0.03807
3304.51608,0.03812
3302.45590,0.03844
3300.39573,0.03866
3298.33556,0.03868
3296.27539,0.03872
3294.21521,0.03884
3292.15504,0.03899
3290.09487,0.03908
3288.03470,0.03909
3285.97453,0.03909
3283.91435,0.03916
3281.85418,0.03923
3279.79401,0.03927
3277.73384,0.03935
3275.67367,0.03941
3273.61349,0.03928
3271.55332,0.03907
3269.49315,0.03905
3267.43298,0.03917
3265.37281,0.03915
3263.31263,0.03903
3261.25246,0.03899
3259.19229,0.03912
3257.13212,0.03937
3255.07194,0.03942
3253.01177,0.03912
3250.95160,0.03890
3248.89143,0.03909
3246.83126,0.03921
3244.77108,0.03898
3242.71091,0.03881
3240.65074,0.03891
3238.59057,0.03905
3236.53040,0.03911
3234.47022,0.03905
3232.41005,0.03883
3230.34988,0.03877
3228.28971,0.03896
3226.22954,0.03907
3224.16936,0.03893
3222.10919,0.03857
3220.04902,0.03819
3217.98885,0.03806
3215.92867,0.03815
3213.86850,0.03811
3211.80833,0.03795
3209.74816,0.03797
3207.68799,0.03816
3205.62781,0.03822
3203.56764,0.03803
3201.50747,0.03778
3199.44730,0.03764
3197.38713,0.03746
3195.32695,0.03725
3193.26678,0.03732
3191.20661,0.03753
3189.14644,0.03752
3187.08626,0.03732
3185.02609,0.03712
3182.96592,0.03689
3180.90575,0.03664
3178.84558,0.03650
3176.78540,0.03648
3174.72523,0.03648
3172.66506,0.03638
3170.60489,0.03616
3168.54472,0.03597
3166.48454,0.03584
3164.42437,0.03582
3162.36420,0.03596
3160.30403,0.03593
3158.24386,0.03560
3156.18368,0.03532
3154.12351,0.03527
3152.06334,0.03527
3150.00317,0.03521
3147.94299,0.03507
3145.88282,0.03490
3143.82265,0.03475
3141.76248,0.03459
3139.70231,0.03436
3137.64213,0.03412
3135.58196,0.03403
3133.52179,0.03400
3131.46162,0.03385
3129.40145,0.03366
3127.34127,0.03358
3125.28110,0.03352
3123.22093,0.03331
3121.16076,0.03300
3119.10058,0.03280
3117.04041,0.03282
3114.98024,0.03302
3112.92007,0.03308
3110.85990,0.03286
3108.79972,0.03256
3106.73955,0.03227
3104.67938,0.03197
3102.61921,0.03159
3100.55904,0.03141
3098.49886,0.03143
3096.43869,0.03129
3094.37852,0.03101
3092.31835,0.03082
3090.25818,0.03079
3088.19800,0.03077
3086.13783,0.03070
3084.07766,0.03067
3082.01749,0.03055
3079.95731,0.03030
3077.89714,0.03018
3075.83697,0.03016
3073.77680,0.03004
3071.71663,0.02987
3069.65645,0.02966
3067.59628,0.02931
3065.53611,0.02883
3063.47594,0.02845
3061.41577,0.02829
3059.35559,0.02830
3057.29542,0.02835
3055.23525,0.02831
3053.17508,0.02808
3051.11491,0.02774
3049.05473,0.02752
3046.99456,0.02739
3044.93439,0.02728
3042.87422,0.02710
3040.81404,0.02682
3038.75387,0.02672
3036.69370,0.02674
3034.63353,0.02660
3032.57336,0.02643
3030.51318,0.02636
3028.45301,0.02623
3026.39284,0.02599
3024.33267,0.02577
3022.27250,0.02562
3020.21232,0.02553
3018.15215,0.02539
3016.09198,0.02514
3014.03181,0.02489
3011.97163,0.02479
3009.91146,0.02484
3007.85129,0.02492
3005.79112,0.02477
3003.73095,0.02444
3001.67077,0.02411
2999.61060,0.02379
2997.55043,0.02369
2995.49026,0.02393
2993.43009,0.02409
2991.36991,0.02398
2989.30974,0.02380
2987.24957,0.02362
2985.18940,0.02341
2983.12923,0.02319
2981.06905,0.02320
2979.00888,0.02323
2976.94871,0.02307
2974.88854,0.02306
2972.82836,0.02316
2970.76819,0.02304
2968.70802,0.02288
2966.64785,0.02289
2964.58768,0.02285
2962.52750,0.02278
2960.46733,0.02294
2958.40716,0.02307
2956.34699,0.02302
2954.28682,0.02296
2952.22664,0.02283
2950.16647,0.02271
2948.10630,0.02276
2946.04613,0.02286
2943.98596,0.02285
2941.92578,0.02285
2939.86561,0.02293
2937.80544,0.02304
2935.74527,0.02317
2933.68509,0.02317
2931.62492,0.02298
2929.56475,0.02288
2927.50458,0.02297
2925.44441,0.02301
2923.38423,0.02288
2921.32406,0.02264
2919.26389,0.02254
2917.20372,0.02263
2915.14355,0.02260
2913.08337,0.02242
2911.02320,0.02213
2908.96303,0.02175
2906.90286,0.02153
2904.84268,0.02148
2902.78251,0.02137
2900.72234,0.02131
2898.66217,0.02130
2896.60200,0.02127
2894.54182,0.02125
2892.48165,0.02121
2890.42148,0.02114
2888.36131,0.02113
2886.30114,0.02114
2884.24096,0.02109
2882.18079,0.02098
2880.12062,0.02083
2878.06045,0.02066
2876.00028,0.02052
2873.94010,0.02053
2871.87993,0.02061
2869.81976,0.02054
2867.75959,0.02039
2865.69941,0.02025
2863.63924,0.02009
2861.57907,0.01989
2859.51890,0.01976
2857.45873,0.01979
2855.39855,0.01987
2853.33838,0.01987
2851.27821,0.01975
2849.21804,0.01956
2847.15787,0.01933
2845.09769,0.01906
2843.03752,0.01889
2840.97735,0.01885
2838.91718,0.01878
2836.85700,0.01866
2834.79683,0.01842
2832.73666,0.01816
2830.67649,0.01811
2828.61632,0.01809
2826.55614,0.01792
2824.49597,0.01773
2822.43580,0.01763
2820.37563,0.01758
2818.31546,0.01755
2816.25528,0.01754
2814.19511,0.01754
2812.13494,0.01749
2810.07477,0.01737
2808.01460,0.01722
2805.95442,0.01716
2803.89425,0.01715
2801.83408,0.01708
2799.77391,0.01707
2797.71373,0.01720
2795.65356,0.01722
2793.59339,0.01697
2791.53322,0.01667
2789.47305,0.01652
2787.41287,0.01650
2785.35270,0.01656
2783.29253,0.01659
2781.23236,0.01653
2779.17219,0.01639
2777.11201,0.01621
2775.05184,0.01602
2772.99167,0.01591
2770.93150,0.01588
2768.87133,0.01580
2766.81115,0.01573
2764.75098,0.01568
2762.69081,0.01554
2760.63064,0.01544
2758.57046,0.01543
2756.51029,0.01538
2754.45012,0.01536
2752.38995,0.01542
2750.32978,0.01544
2748.26960,0.01530
2746.20943,0.01513
2744.14926,0.01505
2742.08909,0.01494
2740.02892,0.01487
2737.96874,0.01490
2735.90857,0.01489
2733.84840,0.01479
2731.78823,0.01469
2729.72805,0.01459
2727.66788,0.01449
2725.60771,0.01447
2723.54754,0.01465
2721.48737,0.01480
2719.42719,0.01462
2717.36702,0.01428
2715.30685,0.01405
2713.24668,0.01403
2711.18651,0.01410
2709.12633,0.01409
2707.06616,0.01398
2705.00599,0.01387
2702.94582,0.01379
2700.88565,0.01371
2698.82547,0.01359
2696.76530,0.01339
2694.70513,0.01326
2692.64496,0.01328
2690.58478,0.01324
2688.52461,0.01311
2686.46444,0.01297
2684.40427,0.01284
2682.34410,0.01284
2680.28392,0.01294
2678.22375,0.01302
2676.16358,0.01300
2674.10341,0.01291
2672.04324,0.01268
2669.98306,0.01228
2667.92289,0.01207
2665.86272,0.01231
2663.80255,0.01263
2661.74238,0.01267
2659.68220,0.01249
2657.62203,0.01220
2655.56186,0.01197
2653.50169,0.01195
2651.44151,0.01200
2649.38134,0.01195
2647.32117,0.01180
2645.26100,0.01168
2643.20083,0.01168
2641.14065,0.01170
2639.08048,0.01158
2637.02031,0.01133
2634.96014,0.01115
2632.89997,0.01112
2630.83979,0.01115
2628.77962,0.01103
2626.71945,0.01073
2624.65928,0.01052
2622.59910,0.01049
2620.53893,0.01043
2618.47876,0.01036
2616.41859,0.01051
2614.35842,0.01062
2612.29824,0.01045
2610.23807,0.01025
2608.17790,0.01009
2606.11773,0.00989
2604.05756,0.00988
2601.99738,0.01009
2599.93721,0.01012
2597.87704,0.01000
2595.81687,0.01000
2593.75670,0.00990
2591.69652,0.00977
2589.63635,0.00982
2587.57618,0.00985
2585.51601,0.00987
2583.45583,0.00998
2581.39566,0.00987
2579.33549,0.00947
2577.27532,0.00915
2575.21515,0.00900
2573.15497,0.00910
2571.09480,0.00957
2569.03463,0.01000
2566.97446,0.01003
2564.91429,0.00959
2562.85411,0.00902
2560.79394,0.00879
2558.73377,0.00894
2556.67360,0.00920
2554.61342,0.00930
2552.55325,0.00925
2550.49308,0.00924
2548.43291,0.00930
2546.37274,0.00937
2544.31256,0.00935
2542.25239,0.00919
2540.19222,0.00901
2538.13205,0.00905
2536.07188,0.00927
2534.01170,0.00946
2531.95153,0.00969
2529.89136,0.00974
2527.83119,0.00942
2525.77102,0.00888
2523.71084,0.00855
2521.65067,0.00870
2519.59050,0.00888
2517.53033,0.00871
2515.47015,0.00848
2513.40998,0.00855
2511.34981,0.00881
2509.28964,0.00882
2507.22947,0.00862
2505.16929,0.00864
2503.10912,0.00892
2501.04895,0.00911
2498.98878,0.00896
2496.92861,0.00860
2494.86843,0.00849
2492.80826,0.00879
2490.74809,0.00912
2488.68792,0.00930
2486.62775,0.00943
2484.56757,0.00938
2482.50740,0.00930
2480.44723,0.00950
2478.38706,0.00971
2476.32688,0.00975
2474.26671,0.00967
2472.20654,0.00948
2470.14637,0.00927
2468.08620,0.00919
2466.02602,0.00936
2463.96585,0.00972
2461.90568,0.00992
2459.84551,0.00976
2457.78534,0.00962
2455.72516,0.00982
2453.66499,0.01007
2451.60482,0.01007
2449.54465,0.00978
2447.48447,0.00968
2445.42430,0.00994
2443.36413,0.00992
2441.30396,0.00953
2439.24379,0.00934
2437.18361,0.00965
2435.12344,0.00994
2433.06327,0.00976
2431.00310,0.00958
2428.94293,0.00969
2426.88275,0.00973
2424.82258,0.00958
2422.76241,0.00948
2420.70224,0.00951
2418.64207,0.00943
2416.58189,0.00917
2414.52172,0.00903
2412.46155,0.00905
2410.40138,0.00911
2408.34120,0.00919
2406.28103,0.00934
2404.22086,0.00964
2402.16069,0.00979
2400.10052,0.00959
2398.04034,0.00938
2395.98017,0.00922
2393.92000,0.00901
2391.85983,0.00880
2389.79966,0.00874
2387.73948,0.00892
2385.67931,0.00922
2383.61914,0.00943
2381.55897,0.00948
2379.49880,0.00950
2377.43862,0.00962
2375.37845,0.00988
2373.31828,0.00999
2371.25811,0.00975
2369.19793,0.00891
2367.13776,0.00727
2365.07759,0.00673
2363.01742,0.00880
2360.95725,0.01008
2358.89707,0.00944
2356.83690,0.00834
2354.77673,0.00836
2352.71656,0.00861
2350.65639,0.00747
2348.59621,0.00707
2346.53604,0.00912
2344.47587,0.00961
2342.41570,0.00879
2340.35552,0.00821
2338.29535,0.00820
2336.23518,0.00864
2334.17501,0.00888
2332.11484,0.00896
2330.05466,0.00893
2327.99449,0.00899
2325.93432,0.00879
2323.87415,0.00882
2321.81398,0.00890
2319.75380,0.00921
2317.69363,0.00932
2315.63346,0.00947
2313.57329,0.00956
2311.51312,0.00926
2309.45294,0.00879
2307.39277,0.00865
2305.33260,0.00884
2303.27243,0.00901
2301.21225,0.00918
2299.15208,0.00925
2297.09191,0.00918
2295.03174,0.00900
2292.97157,0.00860
2290.91139,0.00811
2288.85122,0.00796
2286.79105,0.00826
2284.73088,0.00871
2282.67071,0.00898
2280.61053,0.00889
2278.55036,0.00860
2276.49019,0.00830
2274.43002,0.00789
2272.36984,0.00770
2270.30967,0.00817
2268.24950,0.00866
2266.18933,0.00845
2264.12916,0.00799
2262.06898,0.00769
2260.00881,0.00736
2257.94864,0.00709
2255.88847,0.00717
2253.82830,0.00747
2251.76812,0.00741
2249.70795,0.00693
2247.64778,0.00672
2245.58761,0.00697
2243.52744,0.00711
2241.46726,0.00730
2239.40709,0.00771
2237.34692,0.00780
2235.28675,0.00752
2233.22657,0.00704
2231.16640,0.00668
2229.10623,0.00688
2227.04606,0.00716
2224.98589,0.00717
2222.92571,0.00719
2220.86554,0.00712
2218.80537,0.00674
2216.74520,0.00623
2214.68503,0.00587
2212.62485,0.00566
2210.56468,0.00585
2208.50451,0.00636
2206.44434,0.00636
2204.38417,0.00613
2202.32399,0.00627
2200.26382,0.00628
2198.20365,0.00607
2196.14348,0.00637
2194.08330,0.00719
2192.02313,0.00746
2189.96296,0.00660
2187.90279,0.00572
2185.84262,0.00598
2183.78244,0.00641
2181.72227,0.00628
2179.66210,0.00609
2177.60193,0.00572
2175.54176,0.00552
2173.48158,0.00599
2171.42141,0.00605
2169.36124,0.00521
2167.30107,0.00554
2165.24089,0.00718
2163.18072,0.00701
2161.12055,0.00490
2159.06038,0.00336
2157.00021,0.00293
2154.94003,0.00308
2152.87986,0.00338
2150.81969,0.00381
2148.75952,0.00448
2146.69935,0.00515
2144.63917,0.00569
2142.57900,0.00581
2140.51883,0.00586
2138.45866,0.00587
2136.39849,0.00518
2134.33831,0.00459
2132.27814,0.00466
2130.21797,0.00452
2128.15780,0.00412
2126.09762,0.00424
2124.03745,0.00475
2121.97728,0.00513
2119.91711,0.00543
2117.85694,0.00563
2115.79676,0.00543
2113.73659,0.00507
2111.67642,0.00502
2109.61625,0.00539
2107.55608,0.00572
2105.49590,0.00568
2103.43573,0.00556
2101.37556,0.00566
2099.31539,0.00534
2097.25521,0.00467
2095.19504,0.00464
2093.13487,0.00492
2091.07470,0.00494
2089.01453,0.00518
2086.95435,0.00543
2084.89418,0.00524
2082.83401,0.00511
2080.77384,0.00494
2078.71367,0.00435
2076.65349,0.00398
2074.59332,0.00420
2072.53315,0.00464
2070.47298,0.00509
2068.41281,0.00538
2066.35263,0.00524
2064.29246,0.00492
2062.23229,0.00487
2060.17212,0.00481
2058.11194,0.00430
2056.05177,0.00395
2053.99160,0.00415
2051.93143,0.00425
2049.87126,0.00413
2047.81108,0.00400
2045.75091,0.00368
2043.69074,0.00313
2041.63057,0.00270
2039.57040,0.00281
2037.51022,0.00307
2035.45005,0.00272
2033.38988,0.00193
2031.32971,0.00144
2029.26954,0.00202
2027.20936,0.00293
2025.14919,0.00285
2023.08902,0.00237
2021.02885,0.00279
2018.96867,0.00394
2016.90850,0.00513
2014.84833,0.00597
2012.78816,0.00591
2010.72799,0.00529
2008.66781,0.00446
2006.60764,0.00328
2004.54747,0.00246
2002.48730,0.00255
2000.42713,0.00295
1998.36695,0.00319
1996.30678,0.00365
1994.24661,0.00429
1992.18644,0.00487
1990.12626,0.00516
1988.06609,0.00454
1986.00592,0.00357
1983.94575,0.00348
1981.88558,0.00343
1979.82540,0.00237
1977.76523,0.00149
1975.70506,0.00187
1973.64489,0.00248
1971.58472,0.00212
1969.52454,0.00163
1967.46437,0.00174
1965.40420,0.00175
1963.34403,0.00171
1961.28386,0.00220
1959.22368,0.00291
1957.16351,0.00332
1955.10334,0.00324
1953.04317,0.00292
1950.98299,0.00315
1948.92282,0.00375
1946.86265,0.00388
1944.80248,0.00356
1942.74231,0.00307
1940.68213,0.00263
1938.62196,0.00229
1936.56179,0.00190
1934.50162,0.00198
1932.44145,0.00294
1930.38127,0.00391
1928.32110,0.00403
1926.26093,0.00377
1924.20076,0.00368
1922.14059,0.00369
1920.08041,0.00352
1918.02024,0.00326
1915.96007,0.00322
1913.89990,0.00318
1911.83972,0.00302
1909.77955,0.00308
1907.71938,0.00324
1905.65921,0.00313
1903.59904,0.00292
1901.53886,0.00314
1899.47869,0.00375
1897.41852,0.00404
1895.35835,0.00386
1893.29818,0.00372
1891.23800,0.00372
1889.17783,0.00357
1887.11766,0.00344
1885.05749,0.00341
1882.99731,0.00328
1880.93714,0.00315
1878.87697,0.00317
1876.81680,0.00319
1874.75663,0.00317
1872.69645,0.00320
1870.63628,0.00314
1868.57611,0.00287
1866.51594,0.00275
1864.45577,0.00303
1862.39559,0.00341
1860.33542,0.00355
1858.27525,0.00343
1856.21508,0.00324
1854.15491,0.00320
1852.09473,0.00339
1850.03456,0.00358
1847.97439,0.00351
1845.91422,0.00328
1843.85404,0.00317
1841.79387,0.00323
1839.73370,0.00333
1837.67353,0.00344
1835.61336,0.00362
1833.55318,0.00376
1831.49301,0.00365
1829.43284,0.00350
1827.37267,0.00368
1825.31250,0.00397
1823.25232,0.00395
1821.19215,0.00377
1819.13198,0.00379
1817.07181,0.00396
1815.01163,0.00400
1812.95146,0.00377
1810.89129,0.00348
1808.83112,0.00344
1806.77095,0.00352
1804.71077,0.00352
1802.65060,0.00351
1800.59043,0.00347
1798.53026,0.00335
1796.47009,0.00323
1794.40991,0.00322
1792.34974,0.00337
1790.28957,0.00367
1788.22940,0.00390
1786.16923,0.00386
1784.10905,0.00368
1782.04888,0.00361
1779.98871,0.00367
1777.92854,0.00382
1775.86836,0.00392
1773.80819,0.00383
1771.74802,0.00368
1769.68785,0.00374
1767.62768,0.00402
1765.56750,0.00440
1763.50733,0.00472
1761.44716,0.00482
1759.38699,0.00472
1757.32682,0.00462
1755.26664,0.00473
1753.20647,0.00501
1751.14630,0.00515
1749.08613,0.00508
1747.02596,0.00511
1744.96578,0.00540
1742.90561,0.00575
1740.84544,0.00592
1738.78527,0.00593
1736.72509,0.00589
1734.66492,0.00575
1732.60475,0.00576
1730.54458,0.00612
1728.48441,0.00651
1726.42423,0.00674
1724.36406,0.00689
1722.30389,0.00700
1720.24372,0.00698
1718.18355,0.00678
1716.12337,0.00660
1714.06320,0.00674
1712.00303,0.00707
1709.94286,0.00730
1707.88268,0.00727
1705.82251,0.00722
1703.76234,0.00745
1701.70217,0.00778
1699.64200,0.00796
1697.58182,0.00816
1695.52165,0.00852
1693.46148,0.00895
1691.40131,0.00930
1689.34114,0.00947
1687.28096,0.00963
1685.22079,0.00987
1683.16062,0.01028
1681.10045,0.01084
1679.04028,0.01139
1676.98010,0.01180
1674.91993,0.01199
1672.85976,0.01206
1670.79959,0.01215
1668.73941,0.01245
1666.67924,0.01294
1664.61907,0.01335
1662.55890,0.01364
1660.49873,0.01400
1658.43855,0.01442
1656.37838,0.01468
1654.31821,0.01474
1652.25804,0.01483
1650.19787,0.01495
1648.13769,0.01484
1646.07752,0.01471
1644.01735,0.01486
1641.95718,0.01511
1639.89701,0.01528
1637.83683,0.01524
1635.77666,0.01500
1633.71649,0.01503
1631.65632,0.01531
1629.59614,0.01544
1627.53597,0.01531
1625.47580,0.01510
1623.41563,0.01501
1621.35546,0.01516
1619.29528,0.01533
1617.23511,0.01514
1615.17494,0.01482
1613.11477,0.01477
1611.05460,0.01477
1608.99442,0.01460
1606.93425,0.01443
1604.87408,0.01430
1602.81391,0.01419
1600.75373,0.01408
1598.69356,0.01389
1596.63339,0.01354
1594.57322,0.01314
1592.51305,0.01279
1590.45287,0.01236
1588.39270,0.01181
1586.33253,0.01132
1584.27236,0.01099
1582.21219,0.01073
1580.15201,0.01048
1578.09184,0.01007
1576.03167,0.00939
1573.97150,0.00893
1571.91133,0.00887
1569.85115,0.00867
1567.79098,0.00822
1565.73081,0.00787
1563.67064,0.00779
1561.61046,0.00778
1559.55029,0.00735
1557.49012,0.00666
1555.42995,0.00651
1553.36978,0.00666
1551.30960,0.00675
1549.24943,0.00671
1547.18926,0.00656
1545.12909,0.00624
1543.06892,0.00573
1541.00874,0.00524
1538.94857,0.00511
1536.88840,0.00522
1534.82823,0.00516
1532.76805,0.00496
1530.70788,0.00503
1528.64771,0.00520
1526.58754,0.00506
1524.52737,0.00466
1522.46719,0.00427
1520.40702,0.00410
1518.34685,0.00409
1516.28668,0.00409
1514.22651,0.00413
1512.16633,0.00416
1510.10616,0.00394
1508.04599,0.00355
1505.98582,0.00344
1503.92565,0.00364
1501.86547,0.00379
1499.80530,0.00382
1497.74513,0.00373
1495.68496,0.00362
1493.62478,0.00360
1491.56461,0.00352
1489.50444,0.00333
1487.44427,0.00333
1485.38410,0.00362
1483.32392,0.00396
1481.26375,0.00416
1479.20358,0.00417
1477.14341,0.00401
1475.08324,0.00382
1473.02306,0.00390
1470.96289,0.00438
1468.90272,0.00489
1466.84255,0.00509
1464.78238,0.00508
1462.72220,0.00520
1460.66203,0.00541
1458.60186,0.00543
1456.54169,0.00542
1454.48151,0.00570
1452.42134,0.00599
1450.36117,0.00607
1448.30100,0.00602
1446.24083,0.00596
1444.18065,0.00597
1442.12048,0.00606
1440.06031,0.00615
1438.00014,0.00615
1435.93997,0.00605
1433.87979,0.00605
1431.81962,0.00618
1429.75945,0.00634
1427.69928,0.00656
1425.63910,0.00685
1423.57893,0.00709
1421.51876,0.00717
1419.45859,0.00715
1417.39842,0.00720
1415.33824,0.00738
1413.27807,0.00746
1411.21790,0.00740
1409.15773,0.00737
1407.09756,0.00732
1405.03738,0.00710
1402.97721,0.00686
1400.91704,0.00670
1398.85687,0.00655
1396.79670,0.00640
1394.73652,0.00634
1392.67635,0.00639
1390.61618,0.00647
1388.55601,0.00645
1386.49583,0.00641
1384.43566,0.00645
1382.37549,0.00651
1380.31532,0.00650
1378.25515,0.00642
1376.19497,0.00632
1374.13480,0.00621
1372.07463,0.00614
1370.01446,0.00620
1367.95429,0.00634
1365.89411,0.00640
1363.83394,0.00622
1361.77377,0.00587
1359.71360,0.00563
1357.65343,0.00557
1355.59325,0.00557
1353.53308,0.00548
1351.47291,0.00532
1349.41274,0.00520
1347.35256,0.00516
1345.29239,0.00515
1343.23222,0.00509
1341.17205,0.00493
1339.11188,0.00474
1337.05170,0.00467
1334.99153,0.00478
1332.93136,0.00496
1330.87119,0.00504
1328.81102,0.00497
1326.75084,0.00492
1324.69067,0.00489
1322.63050,0.00483
1320.57033,0.00482
1318.51015,0.00489
1316.44998,0.00495
1314.38981,0.00490
1312.32964,0.00478
1310.26947,0.00473
1308.20929,0.00478
1306.14912,0.00490
1304.08895,0.00495
1302.02878,0.00488
1299.96861,0.00481
1297.90843,0.00478
1295.84826,0.00477
1293.78809,0.00477
1291.72792,0.00476
1289.66775,0.00475
1287.60757,0.00474
1285.54740,0.00476
1283.48723,0.00489
1281.42706,0.00508
1279.36688,0.00517
1277.30671,0.00519
1275.24654,0.00524
1273.18637,0.00531
1271.12620,0.00530
1269.06602,0.00523
1267.00585,0.00522
1264.94568,0.00532
1262.88551,0.00544
1260.82534,0.00549
1258.76516,0.00555
1256.70499,0.00564
1254.64482,0.00568
1252.58465,0.00558
1250.52447,0.00539
1248.46430,0.00530
1246.40413,0.00533
1244.34396,0.00527
1242.28379,0.00516
1240.22361,0.00503
1238.16344,0.00479
1236.10327,0.00455
1234.04310,0.00446
1231.98293,0.00446
1229.92275,0.00435
1227.86258,0.00416
1225.80241,0.00402
1223.74224,0.00377
1221.68207,0.00341
1219.62189,0.00318
1217.56172,0.00310
1215.50155,0.00297
1213.44138,0.00278
1211.38120,0.00263
1209.32103,0.00252
1207.26086,0.00241
1205.20069,0.00225
1203.14052,0.00213
1201.08034,0.00210
1199.02017,0.00207
1196.96000,0.00209
1194.89983,0.00230
1192.83966,0.00256
1190.77948,0.00266
1188.71931,0.00276
1186.65914,0.00297
1184.59897,0.00329
1182.53880,0.00369
1180.47862,0.00416
1178.41845,0.00479
1176.35828,0.00546
1174.29811,0.00610
1172.23793,0.00677
1170.17776,0.00743
1168.11759,0.00806
1166.05742,0.00871
1163.99725,0.00931
1161.93707,0.00985
1159.87690,0.01046
1157.81673,0.01113
1155.75656,0.01170
1153.69639,0.01222
1151.63621,0.01284
1149.57604,0.01361
1147.51587,0.01431
1145.45570,0.01479
1143.39552,0.01526
1141.33535,0.01587
1139.27518,0.01653
1137.21501,0.01718
1135.15484,0.01788
1133.09466,0.01880
1131.03449,0.01982
1128.97432,0.02058
1126.91415,0.02115
1124.85398,0.02186
1122.79380,0.02273
1120.73363,0.02346
1118.67346,0.02409
1116.61329,0.02482
1114.55312,0.02569
1112.49294,0.02657
1110.43277,0.02747
1108.37260,0.02838
1106.31243,0.02921
1104.25225,0.03010
1102.19208,0.03108
1100.13191,0.03211
1098.07174,0.03308
1096.01157,0.03381
1093.95139,0.03444
1091.89122,0.03528
1089.83105,0.03617
1087.77088,0.03686
1085.71071,0.03756
1083.65053,0.03833
1081.59036,0.03900
1079.53019,0.03966
1077.47002,0.04035
1075.40985,0.04091
1073.34967,0.04130
1071.28950,0.04158
1069.22933,0.04182
1067.16916,0.04203
1065.10898,0.04215
1063.04881,0.04207
1060.98864,0.04191
1058.92847,0.04165
1056.86830,0.04119
1054.80812,0.04083
1052.74795,0.04062
1050.68778,0.04031
1048.62761,0.03983
1046.56744,0.03922
1044.50726,0.03855
1042.44709,0.03782
1040.38692,0.03706
1038.32675,0.03631
1036.26657,0.03571
1034.20640,0.03519
1032.14623,0.03450
1030.08606,0.03376
1028.02589,0.03316
1025.96571,0.03248
1023.90554,0.03172
1021.84537,0.03108
1019.78520,0.03052
1017.72503,0.02995
1015.66485,0.02935
1013.60468,0.02864
1011.54451,0.02788
1009.48434,0.02721
1007.42417,0.02668
1005.36399,0.02625
1003.30382,0.02603
1001.24365,0.02605
999.18348,0.02626
997.12330,0.02661
995.06313,0.02704
993.00296,0.02744
990.94279,0.02785
988.88262,0.02823
986.82244,0.02845
984.76227,0.02847
982.70210,0.02832
980.64193,0.02802
978.58176,0.02734
976.52158,0.02644
974.46141,0.02559
972.40124,0.02458
970.34107,0.02334
968.28089,0.02213
966.22072,0.02115
964.16055,0.02038
962.10038,0.01957
960.04021,0.01868
957.98003,0.01790
955.91986,0.01724
953.85969,0.01646
951.79952,0.01560
949.73935,0.01475
947.67917,0.01401
945.61900,0.01356
943.55883,0.01328
941.49866,0.01300
939.43849,0.01270
937.37831,0.01237
935.31814,0.01208
933.25797,0.01197
931.19780,0.01191
929.13762,0.01180
927.07745,0.01171
925.01728,0.01153
922.95711,0.01116
920.89694,0.01082
918.83676,0.01053
916.77659,0.01011
914.71642,0.00962
912.65625,0.00929
910.59608,0.00913
908.53590,0.00888
906.47573,0.00867
904.41556,0.00873
902.35539,0.00880
900.29522,0.00868
898.23504,0.00861
896.17487,0.00861
894.11470,0.00856
892.05453,0.00868
889.99435,0.00897
887.93418,0.00909
885.87401,0.00909
883.81384,0.00917
881.75367,0.00939
879.69349,0.00988
877.63332,0.01047
875.57315,0.01079
873.51298,0.01084
871.45281,0.01080
869.39263,0.01070
867.33246,0.01077
865.27229,0.01096
863.21212,0.01102
861.15194,0.01103
859.09177,0.01090
857.03160,0.01062
854.97143,0.01054
852.91126,0.01054
850.85108,0.01016
848.79091,0.00942
846.73074,0.00896
844.67057,0.00892
842.61040,0.00896
840.55022,0.00892
838.49005,0.00877
836.42988,0.00864
834.36971,0.00846
832.30954,0.00801
830.24936,0.00748
828.18919,0.00720
826.12902,0.00712
824.06885,0.00687
822.00867,0.00647
819.94850,0.00630
817.88833,0.00629
815.82816,0.00612
813.76799,0.00582
811.70781,0.00574
809.64764,0.00596
807.58747,0.00612
805.52730,0.00585
803.46713,0.00541
801.40695,0.00516
799.34678,0.00496
797.28661,0.00476
795.22644,0.00462
793.16627,0.00449
791.10609,0.00440
789.04592,0.00421
786.98575,0.00376
784.92558,0.00339
782.86540,0.00351
780.80523,0.00395
778.74506,0.00418
776.68489,0.00407
774.62472,0.00396
772.56454,0.00417
770.50437,0.00454
768.44420,0.00457
766.38403,0.00443
764.32386,0.00439
762.26368,0.00415
760.20351,0.00403
758.14334,0.00432
756.08317,0.00441
754.02299,0.00421
751.96282,0.00396
749.90265,0.00355
747.84248,0.00310
745.78231,0.00262
743.72213,0.00241
741.66196,0.00288
739.60179,0.00343
737.54162,0.00348
735.48145,0.00326
733.42127,0.00300
731.36110,0.00300
729.30093,0.00331
727.24076,0.00332
725.18059,0.00306
723.12041,0.00294
721.06024,0.00330
719.00007,0.00342
716.93990,0.00335
714.87972,0.00337
712.81955,0.00336
710.75938,0.00315
708.69921,0.00287
706.63904,0.00280
704.57886,0.00322
702.51869,0.00405
700.45852,0.00456
698.39835,0.00412
696.33818,0.00329
694.27800,0.00294
692.21783,0.00287
690.15766,0.00281
688.09749,0.00299
686.03731,0.00327
683.97714,0.00315
681.91697,0.00267
679.85680,0.00246
677.79663,0.00283
675.73645,0.00356
673.67628,0.00392
671.61611,0.00348
669.55594,0.00445
667.49577,0.00510
665.43559,0.00203
663.37542,0.00277
661.31525,0.00381
659.25508,0.00330
657.19491,0.00231
655.13473,0.00197
653.07456,0.00239
651.01439,0.00358
648.95422,0.00520
646.89404,0.00605
644.83387,0.00601
642.77370,0.00559
640.71353,0.00471
638.65336,0.00332
636.59318,0.00249
634.53301,0.00254
632.47284,0.00271
630.41267,0.00289
628.35250,0.00342
626.29232,0.00415
624.23215,0.00464
622.17198,0.00485
620.11181,0.00521
618.05164,0.00542
615.99146,0.00479
613.93129,0.00360
611.87112,0.00291
609.81095,0.00327
607.75077,0.00316
605.69060,0.00163
603.63043,0.00054
601.57026,0.00000
599.51009,0.00000
