Created as New Dataset,Sample 392 By Analyst Date Monday, February 10 2025
cm-1,%T
4000.00,130.38
3999.00,130.38
3998.00,130.38
3997.00,130.37
3996.00,130.37
3995.00,130.36
3994.00,130.35
3993.00,130.35
3992.00,130.34
3991.00,130.33
3990.00,130.32
3989.00,130.32
3988.00,130.31
3987.00,130.30
3986.00,130.29
3985.00,130.28
3984.00,130.28
3983.00,130.27
3982.00,130.26
3981.00,130.26
3980.00,130.25
3979.00,130.24
3978.00,130.23
3977.00,130.23
3976.00,130.22
3975.00,130.21
3974.00,130.21
3973.00,130.20
3972.00,130.20
3971.00,130.19
3970.00,130.19
3969.00,130.19
3968.00,130.18
3967.00,130.18
3966.00,130.18
3965.00,130.18
3964.00,130.18
3963.00,130.18
3962.00,130.18
3961.00,130.17
3960.00,130.17
3959.00,130.17
3958.00,130.17
3957.00,130.18
3956.00,130.18
3955.00,130.18
3954.00,130.18
3953.00,130.19
3952.00,130.19
3951.00,130.19
3950.00,130.19
3949.00,130.19
3948.00,130.19
3947.00,130.19
3946.00,130.19
3945.00,130.18
3944.00,130.18
3943.00,130.19
3942.00,130.18
3941.00,130.18
3940.00,130.17
3939.00,130.16
3938.00,130.16
3937.00,130.16
3936.00,130.15
3935.00,130.14
3934.00,130.13
3933.00,130.13
3932.00,130.13
3931.00,130.12
3930.00,130.12
3929.00,130.11
3928.00,130.11
3927.00,130.10
3926.00,130.09
3925.00,130.09
3924.00,130.08
3923.00,130.07
3922.00,130.06
3921.00,130.05
3920.00,130.05
3919.00,130.05
3918.00,130.04
3917.00,130.04
3916.00,130.03
3915.00,130.03
3914.00,130.03
3913.00,130.03
3912.00,130.03
3911.00,130.03
3910.00,130.03
3909.00,130.04
3908.00,130.04
3907.00,130.04
3906.00,130.04
3905.00,130.05
3904.00,130.05
3903.00,130.05
3902.00,130.05
3901.00,130.05
3900.00,130.05
3899.00,130.06
3898.00,130.07
3897.00,130.06
3896.00,130.06
3895.00,130.07
3894.00,130.07
3893.00,130.06
3892.00,130.06
3891.00,130.06
3890.00,130.07
3889.00,130.06
3888.00,130.04
3887.00,130.03
3886.00,130.05
3885.00,130.06
3884.00,130.06
3883.00,130.04
3882.00,130.03
3881.00,130.03
3880.00,130.04
3879.00,130.04
3878.00,130.02
3877.00,130.01
3876.00,130.00
3875.00,130.01
3874.00,130.03
3873.00,130.02
3872.00,130.00
3871.00,129.98
3870.00,129.99
3869.00,130.01
3868.00,130.01
3867.00,129.99
3866.00,129.98
3865.00,129.99
3864.00,130.00
3863.00,129.98
3862.00,129.96
3861.00,129.96
3860.00,129.97
3859.00,129.98
3858.00,130.00
3857.00,130.01
3856.00,130.02
3855.00,130.03
3854.00,130.03
3853.00,130.04
3852.00,130.03
3851.00,130.02
3850.00,130.00
3849.00,130.00
3848.00,130.00
3847.00,129.98
3846.00,129.96
3845.00,129.95
3844.00,129.95
3843.00,129.96
3842.00,129.96
3841.00,129.96
3840.00,129.96
3839.00,129.96
3838.00,129.96
3837.00,129.96
3836.00,129.96
3835.00,129.95
3834.00,129.94
3833.00,129.93
3832.00,129.92
3831.00,129.91
3830.00,129.90
3829.00,129.88
3828.00,129.86
3827.00,129.86
3826.00,129.87
3825.00,129.86
3824.00,129.85
3823.00,129.82
3822.00,129.82
3821.00,129.84
3820.00,129.85
3819.00,129.83
3818.00,129.80
3817.00,129.79
3816.00,129.80
3815.00,129.81
3814.00,129.79
3813.00,129.77
3812.00,129.77
3811.00,129.77
3810.00,129.77
3809.00,129.75
3808.00,129.74
3807.00,129.75
3806.00,129.77
3805.00,129.77
3804.00,129.75
3803.00,129.75
3802.00,129.76
3801.00,129.79
3800.00,129.78
3799.00,129.76
3798.00,129.74
3797.00,129.75
3796.00,129.75
3795.00,129.75
3794.00,129.73
3793.00,129.72
3792.00,129.72
3791.00,129.72
3790.00,129.73
3789.00,129.72
3788.00,129.72
3787.00,129.72
3786.00,129.72
3785.00,129.73
3784.00,129.73
3783.00,129.73
3782.00,129.72
3781.00,129.72
3780.00,129.72
3779.00,129.73
3778.00,129.73
3777.00,129.72
3776.00,129.71
3775.00,129.72
3774.00,129.72
3773.00,129.72
3772.00,129.71
3771.00,129.71
3770.00,129.72
3769.00,129.72
3768.00,129.72
3767.00,129.71
3766.00,129.70
3765.00,129.71
3764.00,129.72
3763.00,129.71
3762.00,129.70
3761.00,129.70
3760.00,129.70
3759.00,129.70
3758.00,129.69
3757.00,129.69
3756.00,129.69
3755.00,129.69
3754.00,129.69
3753.00,129.69
3752.00,129.69
3751.00,129.68
3750.00,129.68
3749.00,129.69
3748.00,129.70
3747.00,129.69
3746.00,129.66
3745.00,129.66
3744.00,129.68
3743.00,129.66
3742.00,129.62
3741.00,129.59
3740.00,129.58
3739.00,129.57
3738.00,129.55
3737.00,129.53
3736.00,129.53
3735.00,129.53
3734.00,129.52
3733.00,129.50
3732.00,129.50
3731.00,129.50
3730.00,129.49
3729.00,129.47
3728.00,129.45
3727.00,129.44
3726.00,129.44
3725.00,129.43
3724.00,129.42
3723.00,129.41
3722.00,129.42
3721.00,129.42
3720.00,129.41
3719.00,129.40
3718.00,129.40
3717.00,129.41
3716.00,129.41
3715.00,129.41
3714.00,129.41
3713.00,129.42
3712.00,129.43
3711.00,129.44
3710.00,129.44
3709.00,129.45
3708.00,129.46
3707.00,129.47
3706.00,129.49
3705.00,129.50
3704.00,129.51
3703.00,129.52
3702.00,129.54
3701.00,129.57
3700.00,129.59
3699.00,129.60
3698.00,129.62
3697.00,129.65
3696.00,129.68
3695.00,129.71
3694.00,129.74
3693.00,129.77
3692.00,129.80
3691.00,129.82
3690.00,129.84
3689.00,129.86
3688.00,129.88
3687.00,129.90
3686.00,129.91
3685.00,129.93
3684.00,129.94
3683.00,129.95
3682.00,129.95
3681.00,129.95
3680.00,129.96
3679.00,129.98
3678.00,129.98
3677.00,129.97
3676.00,129.98
3675.00,130.01
3674.00,130.01
3673.00,130.00
3672.00,129.98
3671.00,129.98
3670.00,129.99
3669.00,129.98
3668.00,129.95
3667.00,129.93
3666.00,129.92
3665.00,129.91
3664.00,129.89
3663.00,129.87
3662.00,129.86
3661.00,129.85
3660.00,129.84
3659.00,129.83
3658.00,129.81
3657.00,129.81
3656.00,129.81
3655.00,129.81
3654.00,129.80
3653.00,129.78
3652.00,129.77
3651.00,129.77
3650.00,129.77
3649.00,129.76
3648.00,129.74
3647.00,129.74
3646.00,129.74
3645.00,129.74
3644.00,129.73
3643.00,129.72
3642.00,129.71
3641.00,129.70
3640.00,129.69
3639.00,129.69
3638.00,129.69
3637.00,129.69
3636.00,129.69
3635.00,129.69
3634.00,129.70
3633.00,129.71
3632.00,129.72
3631.00,129.71
3630.00,129.72
3629.00,129.74
3628.00,129.75
3627.00,129.75
3626.00,129.75
3625.00,129.76
3624.00,129.78
3623.00,129.79
3622.00,129.79
3621.00,129.79
3620.00,129.79
3619.00,129.80
3618.00,129.81
3617.00,129.80
3616.00,129.79
3615.00,129.79
3614.00,129.79
3613.00,129.79
3612.00,129.79
3611.00,129.78
3610.00,129.77
3609.00,129.77
3608.00,129.77
3607.00,129.77
3606.00,129.76
3605.00,129.76
3604.00,129.76
3603.00,129.76
3602.00,129.76
3601.00,129.76
3600.00,129.76
3599.00,129.76
3598.00,129.76
3597.00,129.77
3596.00,129.77
3595.00,129.77
3594.00,129.78
3593.00,129.78
3592.00,129.78
3591.00,129.79
3590.00,129.79
3589.00,129.80
3588.00,129.80
3587.00,129.81
3586.00,129.81
3585.00,129.81
3584.00,129.82
3583.00,129.83
3582.00,129.84
3581.00,129.85
3580.00,129.86
3579.00,129.86
3578.00,129.87
3577.00,129.87
3576.00,129.88
3575.00,129.89
3574.00,129.89
3573.00,129.90
3572.00,129.91
3571.00,129.91
3570.00,129.92
3569.00,129.92
3568.00,129.93
3567.00,129.94
3566.00,129.95
3565.00,129.95
3564.00,129.95
3563.00,129.95
3562.00,129.96
3561.00,129.96
3560.00,129.96
3559.00,129.96
3558.00,129.97
3557.00,129.97
3556.00,129.97
3555.00,129.97
3554.00,129.97
3553.00,129.97
3552.00,129.97
3551.00,129.97
3550.00,129.97
3549.00,129.97
3548.00,129.96
3547.00,129.96
3546.00,129.96
3545.00,129.95
3544.00,129.96
3543.00,129.96
3542.00,129.96
3541.00,129.97
3540.00,129.97
3539.00,129.97
3538.00,129.97
3537.00,129.97
3536.00,129.97
3535.00,129.98
3534.00,129.98
3533.00,129.98
3532.00,129.99
3531.00,129.99
3530.00,130.00
3529.00,130.00
3528.00,130.00
3527.00,130.00
3526.00,129.99
3525.00,129.99
3524.00,129.99
3523.00,129.99
3522.00,129.99
3521.00,129.99
3520.00,129.99
3519.00,129.98
3518.00,129.98
3517.00,129.98
3516.00,129.97
3515.00,129.97
3514.00,129.96
3513.00,129.96
3512.00,129.96
3511.00,129.96
3510.00,129.95
3509.00,129.95
3508.00,129.94
3507.00,129.94
3506.00,129.93
3505.00,129.92
3504.00,129.92
3503.00,129.91
3502.00,129.91
3501.00,129.91
3500.00,129.91
3499.00,129.91
3498.00,129.91
3497.00,129.91
3496.00,129.91
3495.00,129.92
3494.00,129.92
3493.00,129.92
3492.00,129.92
3491.00,129.93
3490.00,129.93
3489.00,129.94
3488.00,129.95
3487.00,129.95
3486.00,129.96
3485.00,129.97
3484.00,129.98
3483.00,129.99
3482.00,130.00
3481.00,130.00
3480.00,130.01
3479.00,130.02
3478.00,130.03
3477.00,130.05
3476.00,130.06
3475.00,130.07
3474.00,130.08
3473.00,130.08
3472.00,130.09
3471.00,130.10
3470.00,130.10
3469.00,130.11
3468.00,130.12
3467.00,130.13
3466.00,130.14
3465.00,130.16
3464.00,130.17
3463.00,130.17
3462.00,130.18
3461.00,130.19
3460.00,130.19
3459.00,130.20
3458.00,130.21
3457.00,130.21
3456.00,130.22
3455.00,130.22
3454.00,130.23
3453.00,130.23
3452.00,130.24
3451.00,130.25
3450.00,130.25
3449.00,130.26
3448.00,130.26
3447.00,130.27
3446.00,130.27
3445.00,130.28
3444.00,130.29
3443.00,130.29
3442.00,130.30
3441.00,130.31
3440.00,130.31
3439.00,130.31
3438.00,130.31
3437.00,130.32
3436.00,130.32
3435.00,130.33
3434.00,130.34
3433.00,130.34
3432.00,130.35
3431.00,130.35
3430.00,130.35
3429.00,130.36
3428.00,130.36
3427.00,130.37
3426.00,130.37
3425.00,130.37
3424.00,130.37
3423.00,130.37
3422.00,130.36
3421.00,130.36
3420.00,130.35
3419.00,130.34
3418.00,130.33
3417.00,130.32
3416.00,130.31
3415.00,130.30
3414.00,130.28
3413.00,130.26
3412.00,130.25
3411.00,130.23
3410.00,130.21
3409.00,130.20
3408.00,130.18
3407.00,130.16
3406.00,130.14
3405.00,130.12
3404.00,130.09
3403.00,130.07
3402.00,130.04
3401.00,130.02
3400.00,130.01
3399.00,129.99
3398.00,129.98
3397.00,129.97
3396.00,129.96
3395.00,129.94
3394.00,129.92
3393.00,129.90
3392.00,129.89
3391.00,129.88
3390.00,129.87
3389.00,129.87
3388.00,129.86
3387.00,129.86
3386.00,129.85
3385.00,129.85
3384.00,129.84
3383.00,129.83
3382.00,129.83
3381.00,129.83
3380.00,129.82
3379.00,129.82
3378.00,129.82
3377.00,129.81
3376.00,129.81
3375.00,129.81
3374.00,129.81
3373.00,129.80
3372.00,129.80
3371.00,129.79
3370.00,129.79
3369.00,129.79
3368.00,129.79
3367.00,129.79
3366.00,129.79
3365.00,129.80
3364.00,129.80
3363.00,129.80
3362.00,129.79
3361.00,129.79
3360.00,129.79
3359.00,129.79
3358.00,129.79
3357.00,129.79
3356.00,129.78
3355.00,129.78
3354.00,129.78
3353.00,129.77
3352.00,129.77
3351.00,129.76
3350.00,129.76
3349.00,129.77
3348.00,129.77
3347.00,129.77
3346.00,129.77
3345.00,129.77
3344.00,129.77
3343.00,129.77
3342.00,129.77
3341.00,129.77
3340.00,129.77
3339.00,129.77
3338.00,129.77
3337.00,129.78
3336.00,129.79
3335.00,129.80
3334.00,129.81
3333.00,129.81
3332.00,129.82
3331.00,129.83
3330.00,129.83
3329.00,129.84
3328.00,129.84
3327.00,129.85
3326.00,129.86
3325.00,129.87
3324.00,129.88
3323.00,129.89
3322.00,129.90
3321.00,129.92
3320.00,129.93
3319.00,129.94
3318.00,129.95
3317.00,129.96
3316.00,129.98
3315.00,129.99
3314.00,130.00
3313.00,130.02
3312.00,130.04
3311.00,130.05
3310.00,130.07
3309.00,130.09
3308.00,130.11
3307.00,130.13
3306.00,130.15
3305.00,130.18
3304.00,130.19
3303.00,130.21
3302.00,130.21
3301.00,130.21
3300.00,130.20
3299.00,130.18
3298.00,130.16
3297.00,130.13
3296.00,130.10
3295.00,130.07
3294.00,130.04
3293.00,130.01
3292.00,129.98
3291.00,129.96
3290.00,129.94
3289.00,129.92
3288.00,129.90
3287.00,129.88
3286.00,129.86
3285.00,129.84
3284.00,129.82
3283.00,129.81
3282.00,129.79
3281.00,129.78
3280.00,129.77
3279.00,129.75
3278.00,129.74
3277.00,129.73
3276.00,129.72
3275.00,129.71
3274.00,129.70
3273.00,129.69
3272.00,129.69
3271.00,129.68
3270.00,129.68
3269.00,129.68
3268.00,129.68
3267.00,129.69
3266.00,129.69
3265.00,129.69
3264.00,129.69
3263.00,129.69
3262.00,129.69
3261.00,129.69
3260.00,129.69
3259.00,129.69
3258.00,129.69
3257.00,129.69
3256.00,129.69
3255.00,129.69
3254.00,129.69
3253.00,129.69
3252.00,129.69
3251.00,129.69
3250.00,129.69
3249.00,129.69
3248.00,129.68
3247.00,129.68
3246.00,129.68
3245.00,129.68
3244.00,129.69
3243.00,129.69
3242.00,129.69
3241.00,129.69
3240.00,129.69
3239.00,129.69
3238.00,129.69
3237.00,129.69
3236.00,129.68
3235.00,129.68
3234.00,129.68
3233.00,129.69
3232.00,129.70
3231.00,129.70
3230.00,129.71
3229.00,129.72
3228.00,129.72
3227.00,129.73
3226.00,129.74
3225.00,129.74
3224.00,129.75
3223.00,129.76
3222.00,129.77
3221.00,129.78
3220.00,129.79
3219.00,129.80
3218.00,129.81
3217.00,129.82
3216.00,129.83
3215.00,129.84
3214.00,129.85
3213.00,129.86
3212.00,129.87
3211.00,129.88
3210.00,129.89
3209.00,129.90
3208.00,129.90
3207.00,129.91
3206.00,129.92
3205.00,129.93
3204.00,129.94
3203.00,129.94
3202.00,129.95
3201.00,129.95
3200.00,129.95
3199.00,129.95
3198.00,129.95
3197.00,129.95
3196.00,129.95
3195.00,129.95
3194.00,129.95
3193.00,129.95
3192.00,129.94
3191.00,129.94
3190.00,129.94
3189.00,129.94
3188.00,129.94
3187.00,129.94
3186.00,129.94
3185.00,129.94
3184.00,129.94
3183.00,129.94
3182.00,129.94
3181.00,129.94
3180.00,129.95
3179.00,129.95
3178.00,129.94
3177.00,129.94
3176.00,129.94
3175.00,129.94
3174.00,129.93
3173.00,129.93
3172.00,129.93
3171.00,129.93
3170.00,129.93
3169.00,129.93
3168.00,129.93
3167.00,129.94
3166.00,129.94
3165.00,129.95
3164.00,129.95
3163.00,129.96
3162.00,129.97
3161.00,129.97
3160.00,129.98
3159.00,129.98
3158.00,129.98
3157.00,129.99
3156.00,129.99
3155.00,129.98
3154.00,129.98
3153.00,129.98
3152.00,129.98
3151.00,129.98
3150.00,129.98
3149.00,129.98
3148.00,129.98
3147.00,129.98
3146.00,129.98
3145.00,129.97
3144.00,129.97
3143.00,129.97
3142.00,129.97
3141.00,129.96
3140.00,129.96
3139.00,129.96
3138.00,129.96
3137.00,129.96
3136.00,129.96
3135.00,129.96
3134.00,129.96
3133.00,129.96
3132.00,129.96
3131.00,129.96
3130.00,129.96
3129.00,129.96
3128.00,129.97
3127.00,129.97
3126.00,129.98
3125.00,129.99
3124.00,129.99
3123.00,129.99
3122.00,129.99
3121.00,130.00
3120.00,130.00
3119.00,130.01
3118.00,130.02
3117.00,130.03
3116.00,130.05
3115.00,130.06
3114.00,130.08
3113.00,130.09
3112.00,130.11
3111.00,130.12
3110.00,130.13
3109.00,130.14
3108.00,130.16
3107.00,130.18
3106.00,130.19
3105.00,130.20
3104.00,130.21
3103.00,130.22
3102.00,130.22
3101.00,130.22
3100.00,130.23
3099.00,130.23
3098.00,130.23
3097.00,130.23
3096.00,130.24
3095.00,130.24
3094.00,130.24
3093.00,130.24
3092.00,130.24
3091.00,130.25
3090.00,130.25
3089.00,130.26
3088.00,130.27
3087.00,130.27
3086.00,130.28
3085.00,130.28
3084.00,130.29
3083.00,130.30
3082.00,130.30
3081.00,130.31
3080.00,130.31
3079.00,130.32
3078.00,130.32
3077.00,130.33
3076.00,130.34
3075.00,130.34
3074.00,130.35
3073.00,130.35
3072.00,130.35
3071.00,130.35
3070.00,130.35
3069.00,130.35
3068.00,130.35
3067.00,130.35
3066.00,130.35
3065.00,130.35
3064.00,130.36
3063.00,130.36
3062.00,130.37
3061.00,130.37
3060.00,130.37
3059.00,130.37
3058.00,130.37
3057.00,130.37
3056.00,130.37
3055.00,130.37
3054.00,130.37
3053.00,130.37
3052.00,130.37
3051.00,130.38
3050.00,130.38
3049.00,130.38
3048.00,130.38
3047.00,130.38
3046.00,130.38
3045.00,130.38
3044.00,130.38
3043.00,130.38
3042.00,130.38
3041.00,130.38
3040.00,130.38
3039.00,130.38
3038.00,130.38
3037.00,130.38
3036.00,130.38
3035.00,130.37
3034.00,130.37
3033.00,130.37
3032.00,130.36
3031.00,130.36
3030.00,130.36
3029.00,130.36
3028.00,130.35
3027.00,130.35
3026.00,130.35
3025.00,130.34
3024.00,130.34
3023.00,130.34
3022.00,130.34
3021.00,130.34
3020.00,130.33
3019.00,130.33
3018.00,130.33
3017.00,130.33
3016.00,130.33
3015.00,130.33
3014.00,130.33
3013.00,130.33
3012.00,130.33
3011.00,130.34
3010.00,130.34
3009.00,130.35
3008.00,130.35
3007.00,130.36
3006.00,130.36
3005.00,130.36
3004.00,130.36
3003.00,130.36
3002.00,130.36
3001.00,130.36
3000.00,130.36
2999.00,130.36
2998.00,130.36
2997.00,130.36
2996.00,130.36
2995.00,130.36
2994.00,130.36
2993.00,130.36
2992.00,130.36
2991.00,130.36
2990.00,130.36
2989.00,130.36
2988.00,130.36
2987.00,130.36
2986.00,130.36
2985.00,130.36
2984.00,130.36
2983.00,130.35
2982.00,130.35
2981.00,130.34
2980.00,130.34
2979.00,130.34
2978.00,130.34
2977.00,130.33
2976.00,130.33
2975.00,130.33
2974.00,130.32
2973.00,130.32
2972.00,130.32
2971.00,130.32
2970.00,130.32
2969.00,130.32
2968.00,130.32
2967.00,130.32
2966.00,130.32
2965.00,130.32
2964.00,130.32
2963.00,130.33
2962.00,130.33
2961.00,130.33
2960.00,130.34
2959.00,130.34
2958.00,130.35
2957.00,130.35
2956.00,130.35
2955.00,130.35
2954.00,130.35
2953.00,130.35
2952.00,130.36
2951.00,130.36
2950.00,130.36
2949.00,130.36
2948.00,130.36
2947.00,130.36
2946.00,130.36
2945.00,130.36
2944.00,130.36
2943.00,130.37
2942.00,130.37
2941.00,130.37
2940.00,130.37
2939.00,130.37
2938.00,130.37
2937.00,130.37
2936.00,130.37
2935.00,130.37
2934.00,130.37
2933.00,130.37
2932.00,130.36
2931.00,130.36
2930.00,130.36
2929.00,130.36
2928.00,130.36
2927.00,130.36
2926.00,130.36
2925.00,130.36
2924.00,130.36
2923.00,130.36
2922.00,130.36
2921.00,130.36
2920.00,130.36
2919.00,130.35
2918.00,130.35
2917.00,130.34
2916.00,130.33
2915.00,130.33
2914.00,130.32
2913.00,130.32
2912.00,130.31
2911.00,130.31
2910.00,130.31
2909.00,130.30
2908.00,130.30
2907.00,130.30
2906.00,130.30
2905.00,130.30
2904.00,130.31
2903.00,130.31
2902.00,130.31
2901.00,130.31
2900.00,130.32
2899.00,130.32
2898.00,130.33
2897.00,130.33
2896.00,130.33
2895.00,130.34
2894.00,130.34
2893.00,130.35
2892.00,130.35
2891.00,130.35
2890.00,130.35
2889.00,130.35
2888.00,130.35
2887.00,130.35
2886.00,130.35
2885.00,130.35
2884.00,130.35
2883.00,130.35
2882.00,130.34
2881.00,130.34
2880.00,130.34
2879.00,130.33
2878.00,130.33
2877.00,130.32
2876.00,130.32
2875.00,130.31
2874.00,130.30
2873.00,130.30
2872.00,130.30
2871.00,130.30
2870.00,130.29
2869.00,130.29
2868.00,130.29
2867.00,130.28
2866.00,130.28
2865.00,130.28
2864.00,130.28
2863.00,130.27
2862.00,130.27
2861.00,130.27
2860.00,130.28
2859.00,130.28
2858.00,130.28
2857.00,130.29
2856.00,130.29
2855.00,130.30
2854.00,130.31
2853.00,130.31
2852.00,130.32
2851.00,130.33
2850.00,130.33
2849.00,130.33
2848.00,130.34
2847.00,130.34
2846.00,130.34
2845.00,130.34
2844.00,130.34
2843.00,130.33
2842.00,130.33
2841.00,130.33
2840.00,130.33
2839.00,130.33
2838.00,130.33
2837.00,130.33
2836.00,130.33
2835.00,130.33
2834.00,130.33
2833.00,130.33
2832.00,130.32
2831.00,130.32
2830.00,130.32
2829.00,130.31
2828.00,130.31
2827.00,130.30
2826.00,130.30
2825.00,130.29
2824.00,130.29
2823.00,130.28
2822.00,130.27
2821.00,130.27
2820.00,130.26
2819.00,130.25
2818.00,130.25
2817.00,130.24
2816.00,130.24
2815.00,130.23
2814.00,130.23
2813.00,130.23
2812.00,130.22
2811.00,130.22
2810.00,130.22
2809.00,130.22
2808.00,130.22
2807.00,130.22
2806.00,130.22
2805.00,130.23
2804.00,130.23
2803.00,130.23
2802.00,130.23
2801.00,130.23
2800.00,130.24
2799.00,130.24
2798.00,130.24
2797.00,130.25
2796.00,130.25
2795.00,130.25
2794.00,130.25
2793.00,130.25
2792.00,130.26
2791.00,130.26
2790.00,130.26
2789.00,130.26
2788.00,130.26
2787.00,130.26
2786.00,130.26
2785.00,130.26
2784.00,130.25
2783.00,130.25
2782.00,130.25
2781.00,130.24
2780.00,130.24
2779.00,130.23
2778.00,130.23
2777.00,130.22
2776.00,130.22
2775.00,130.21
2774.00,130.21
2773.00,130.20
2772.00,130.20
2771.00,130.19
2770.00,130.19
2769.00,130.18
2768.00,130.18
2767.00,130.17
2766.00,130.17
2765.00,130.16
2764.00,130.16
2763.00,130.15
2762.00,130.15
2761.00,130.14
2760.00,130.14
2759.00,130.14
2758.00,130.14
2757.00,130.13
2756.00,130.13
2755.00,130.14
2754.00,130.14
2753.00,130.14
2752.00,130.14
2751.00,130.14
2750.00,130.14
2749.00,130.15
2748.00,130.15
2747.00,130.15
2746.00,130.16
2745.00,130.16
2744.00,130.17
2743.00,130.18
2742.00,130.18
2741.00,130.19
2740.00,130.19
2739.00,130.20
2738.00,130.20
2737.00,130.20
2736.00,130.20
2735.00,130.21
2734.00,130.21
2733.00,130.20
2732.00,130.20
2731.00,130.20
2730.00,130.20
2729.00,130.19
2728.00,130.18
2727.00,130.18
2726.00,130.17
2725.00,130.16
2724.00,130.15
2723.00,130.14
2722.00,130.13
2721.00,130.12
2720.00,130.11
2719.00,130.10
2718.00,130.09
2717.00,130.08
2716.00,130.08
2715.00,130.07
2714.00,130.06
2713.00,130.05
2712.00,130.05
2711.00,130.04
2710.00,130.03
2709.00,130.02
2708.00,130.02
2707.00,130.01
2706.00,130.00
2705.00,130.00
2704.00,130.00
2703.00,129.99
2702.00,129.99
2701.00,129.99
2700.00,129.99
2699.00,129.99
2698.00,129.99
2697.00,129.99
2696.00,129.99
2695.00,129.99
2694.00,129.99
2693.00,130.00
2692.00,130.00
2691.00,130.00
2690.00,130.01
2689.00,130.01
2688.00,130.01
2687.00,130.02
2686.00,130.02
2685.00,130.03
2684.00,130.04
2683.00,130.04
2682.00,130.04
2681.00,130.05
2680.00,130.05
2679.00,130.06
2678.00,130.06
2677.00,130.06
2676.00,130.07
2675.00,130.07
2674.00,130.07
2673.00,130.07
2672.00,130.06
2671.00,130.06
2670.00,130.05
2669.00,130.04
2668.00,130.04
2667.00,130.03
2666.00,130.02
2665.00,130.01
2664.00,129.99
2663.00,129.98
2662.00,129.97
2661.00,129.95
2660.00,129.94
2659.00,129.93
2658.00,129.92
2657.00,129.91
2656.00,129.90
2655.00,129.89
2654.00,129.88
2653.00,129.87
2652.00,129.86
2651.00,129.86
2650.00,129.85
2649.00,129.85
2648.00,129.84
2647.00,129.84
2646.00,129.83
2645.00,129.83
2644.00,129.83
2643.00,129.83
2642.00,129.83
2641.00,129.84
2640.00,129.84
2639.00,129.84
2638.00,129.84
2637.00,129.85
2636.00,129.85
2635.00,129.86
2634.00,129.86
2633.00,129.87
2632.00,129.87
2631.00,129.88
2630.00,129.88
2629.00,129.89
2628.00,129.89
2627.00,129.90
2626.00,129.90
2625.00,129.91
2624.00,129.91
2623.00,129.92
2622.00,129.92
2621.00,129.92
2620.00,129.93
2619.00,129.93
2618.00,129.93
2617.00,129.93
2616.00,129.93
2615.00,129.93
2614.00,129.93
2613.00,129.92
2612.00,129.92
2611.00,129.92
2610.00,129.92
2609.00,129.91
2608.00,129.91
2607.00,129.91
2606.00,129.90
2605.00,129.90
2604.00,129.89
2603.00,129.89
2602.00,129.88
2601.00,129.88
2600.00,129.88
2599.00,129.87
2598.00,129.87
2597.00,129.87
2596.00,129.87
2595.00,129.87
2594.00,129.87
2593.00,129.87
2592.00,129.87
2591.00,129.87
2590.00,129.87
2589.00,129.88
2588.00,129.88
2587.00,129.88
2586.00,129.89
2585.00,129.89
2584.00,129.89
2583.00,129.90
2582.00,129.90
2581.00,129.90
2580.00,129.91
2579.00,129.91
2578.00,129.91
2577.00,129.91
2576.00,129.91
2575.00,129.91
2574.00,129.91
2573.00,129.90
2572.00,129.90
2571.00,129.90
2570.00,129.90
2569.00,129.89
2568.00,129.89
2567.00,129.88
2566.00,129.87
2565.00,129.87
2564.00,129.86
2563.00,129.85
2562.00,129.85
2561.00,129.84
2560.00,129.83
2559.00,129.82
2558.00,129.81
2557.00,129.80
2556.00,129.79
2555.00,129.78
2554.00,129.77
2553.00,129.77
2552.00,129.76
2551.00,129.75
2550.00,129.74
2549.00,129.73
2548.00,129.72
2547.00,129.71
2546.00,129.70
2545.00,129.70
2544.00,129.69
2543.00,129.69
2542.00,129.68
2541.00,129.68
2540.00,129.68
2539.00,129.68
2538.00,129.68
2537.00,129.68
2536.00,129.68
2535.00,129.69
2534.00,129.69
2533.00,129.69
2532.00,129.70
2531.00,129.70
2530.00,129.71
2529.00,129.71
2528.00,129.71
2527.00,129.71
2526.00,129.71
2525.00,129.71
2524.00,129.71
2523.00,129.71
2522.00,129.70
2521.00,129.70
2520.00,129.69
2519.00,129.69
2518.00,129.68
2517.00,129.68
2516.00,129.67
2515.00,129.66
2514.00,129.65
2513.00,129.64
2512.00,129.63
2511.00,129.61
2510.00,129.60
2509.00,129.59
2508.00,129.58
2507.00,129.56
2506.00,129.55
2505.00,129.54
2504.00,129.53
2503.00,129.51
2502.00,129.50
2501.00,129.49
2500.00,129.48
2499.00,129.46
2498.00,129.45
2497.00,129.44
2496.00,129.44
2495.00,129.43
2494.00,129.42
2493.00,129.42
2492.00,129.41
2491.00,129.41
2490.00,129.40
2489.00,129.40
2488.00,129.40
2487.00,129.40
2486.00,129.40
2485.00,129.40
2484.00,129.40
2483.00,129.40
2482.00,129.40
2481.00,129.40
2480.00,129.39
2479.00,129.39
2478.00,129.39
2477.00,129.39
2476.00,129.39
2475.00,129.39
2474.00,129.39
2473.00,129.39
2472.00,129.39
2471.00,129.39
2470.00,129.39
2469.00,129.39
2468.00,129.39
2467.00,129.39
2466.00,129.38
2465.00,129.38
2464.00,129.38
2463.00,129.38
2462.00,129.37
2461.00,129.37
2460.00,129.37
2459.00,129.37
2458.00,129.36
2457.00,129.36
2456.00,129.35
2455.00,129.35
2454.00,129.35
2453.00,129.35
2452.00,129.34
2451.00,129.34
2450.00,129.34
2449.00,129.34
2448.00,129.35
2447.00,129.35
2446.00,129.35
2445.00,129.36
2444.00,129.36
2443.00,129.37
2442.00,129.37
2441.00,129.38
2440.00,129.39
2439.00,129.40
2438.00,129.40
2437.00,129.41
2436.00,129.42
2435.00,129.43
2434.00,129.44
2433.00,129.45
2432.00,129.47
2431.00,129.48
2430.00,129.49
2429.00,129.51
2428.00,129.52
2427.00,129.54
2426.00,129.55
2425.00,129.57
2424.00,129.58
2423.00,129.59
2422.00,129.61
2421.00,129.62
2420.00,129.63
2419.00,129.64
2418.00,129.65
2417.00,129.66
2416.00,129.67
2415.00,129.68
2414.00,129.68
2413.00,129.68
2412.00,129.68
2411.00,129.68
2410.00,129.68
2409.00,129.67
2408.00,129.67
2407.00,129.66
2406.00,129.65
2405.00,129.64
2404.00,129.63
2403.00,129.62
2402.00,129.61
2401.00,129.60
2400.00,129.59
2399.00,129.58
2398.00,129.56
2397.00,129.55
2396.00,129.54
2395.00,129.53
2394.00,129.52
2393.00,129.51
2392.00,129.51
2391.00,129.50
2390.00,129.49
2389.00,129.49
2388.00,129.49
2387.00,129.48
2386.00,129.48
2385.00,129.48
2384.00,129.48
2383.00,129.48
2382.00,129.48
2381.00,129.48
2380.00,129.48
2379.00,129.48
2378.00,129.48
2377.00,129.47
2376.00,129.47
2375.00,129.46
2374.00,129.46
2373.00,129.46
2372.00,129.45
2371.00,129.45
2370.00,129.44
2369.00,129.44
2368.00,129.43
2367.00,129.43
2366.00,129.42
2365.00,129.43
2364.00,129.43
2363.00,129.43
2362.00,129.42
2361.00,129.42
2360.00,129.42
2359.00,129.42
2358.00,129.42
2357.00,129.42
2356.00,129.43
2355.00,129.44
2354.00,129.44
2353.00,129.41
2352.00,129.36
2351.00,129.31
2350.00,129.29
2349.00,129.33
2348.00,129.38
2347.00,129.41
2346.00,129.39
2345.00,129.35
2344.00,129.33
2343.00,129.33
2342.00,129.34
2341.00,129.35
2340.00,129.36
2339.00,129.36
2338.00,129.37
2337.00,129.38
2336.00,129.39
2335.00,129.39
2334.00,129.40
2333.00,129.42
2332.00,129.42
2331.00,129.42
2330.00,129.41
2329.00,129.40
2328.00,129.39
2327.00,129.39
2326.00,129.38
2325.00,129.37
2324.00,129.36
2323.00,129.34
2322.00,129.33
2321.00,129.32
2320.00,129.31
2319.00,129.30
2318.00,129.29
2317.00,129.29
2316.00,129.29
2315.00,129.29
2314.00,129.29
2313.00,129.29
2312.00,129.29
2311.00,129.29
2310.00,129.29
2309.00,129.29
2308.00,129.29
2307.00,129.29
2306.00,129.29
2305.00,129.29
2304.00,129.29
2303.00,129.29
2302.00,129.29
2301.00,129.29
2300.00,129.28
2299.00,129.28
2298.00,129.28
2297.00,129.27
2296.00,129.27
2295.00,129.27
2294.00,129.26
2293.00,129.26
2292.00,129.26
2291.00,129.25
2290.00,129.25
2289.00,129.25
2288.00,129.25
2287.00,129.24
2286.00,129.24
2285.00,129.24
2284.00,129.23
2283.00,129.23
2282.00,129.23
2281.00,129.22
2280.00,129.22
2279.00,129.22
2278.00,129.22
2277.00,129.22
2276.00,129.22
2275.00,129.22
2274.00,129.23
2273.00,129.23
2272.00,129.23
2271.00,129.24
2270.00,129.25
2269.00,129.25
2268.00,129.26
2267.00,129.26
2266.00,129.27
2265.00,129.27
2264.00,129.28
2263.00,129.28
2262.00,129.29
2261.00,129.29
2260.00,129.30
2259.00,129.30
2258.00,129.30
2257.00,129.31
2256.00,129.31
2255.00,129.31
2254.00,129.31
2253.00,129.31
2252.00,129.31
2251.00,129.31
2250.00,129.31
2249.00,129.30
2248.00,129.30
2247.00,129.29
2246.00,129.29
2245.00,129.28
2244.00,129.27
2243.00,129.26
2242.00,129.25
2241.00,129.24
2240.00,129.23
2239.00,129.21
2238.00,129.20
2237.00,129.19
2236.00,129.17
2235.00,129.16
2234.00,129.15
2233.00,129.14
2232.00,129.13
2231.00,129.11
2230.00,129.10
2229.00,129.09
2228.00,129.08
2227.00,129.07
2226.00,129.06
2225.00,129.05
2224.00,129.04
2223.00,129.04
2222.00,129.04
2221.00,129.03
2220.00,129.03
2219.00,129.03
2218.00,129.04
2217.00,129.04
2216.00,129.04
2215.00,129.04
2214.00,129.05
2213.00,129.05
2212.00,129.05
2211.00,129.06
2210.00,129.06
2209.00,129.06
2208.00,129.06
2207.00,129.06
2206.00,129.06
2205.00,129.05
2204.00,129.05
2203.00,129.04
2202.00,129.04
2201.00,129.03
2200.00,129.02
2199.00,129.01
2198.00,129.00
2197.00,128.99
2196.00,128.98
2195.00,128.97
2194.00,128.96
2193.00,128.95
2192.00,128.94
2191.00,128.92
2190.00,128.91
2189.00,128.90
2188.00,128.89
2187.00,128.87
2186.00,128.86
2185.00,128.85
2184.00,128.84
2183.00,128.83
2182.00,128.83
2181.00,128.82
2180.00,128.81
2179.00,128.81
2178.00,128.81
2177.00,128.80
2176.00,128.80
2175.00,128.80
2174.00,128.80
2173.00,128.81
2172.00,128.81
2171.00,128.82
2170.00,128.83
2169.00,128.84
2168.00,128.85
2167.00,128.86
2166.00,128.87
2165.00,128.88
2164.00,128.89
2163.00,128.91
2162.00,128.92
2161.00,128.93
2160.00,128.94
2159.00,128.95
2158.00,128.96
2157.00,128.97
2156.00,128.98
2155.00,128.98
2154.00,128.99
2153.00,128.99
2152.00,128.99
2151.00,128.99
2150.00,128.99
2149.00,128.99
2148.00,128.99
2147.00,128.98
2146.00,128.98
2145.00,128.97
2144.00,128.96
2143.00,128.96
2142.00,128.95
2141.00,128.94
2140.00,128.93
2139.00,128.91
2138.00,128.90
2137.00,128.88
2136.00,128.87
2135.00,128.86
2134.00,128.84
2133.00,128.83
2132.00,128.82
2131.00,128.81
2130.00,128.80
2129.00,128.80
2128.00,128.79
2127.00,128.78
2126.00,128.78
2125.00,128.77
2124.00,128.77
2123.00,128.77
2122.00,128.77
2121.00,128.77
2120.00,128.77
2119.00,128.77
2118.00,128.77
2117.00,128.77
2116.00,128.78
2115.00,128.78
2114.00,128.78
2113.00,128.78
2112.00,128.79
2111.00,128.79
2110.00,128.80
2109.00,128.80
2108.00,128.81
2107.00,128.81
2106.00,128.81
2105.00,128.82
2104.00,128.82
2103.00,128.82
2102.00,128.83
2101.00,128.83
2100.00,128.83
2099.00,128.84
2098.00,128.84
2097.00,128.85
2096.00,128.85
2095.00,128.86
2094.00,128.86
2093.00,128.86
2092.00,128.86
2091.00,128.86
2090.00,128.87
2089.00,128.87
2088.00,128.87
2087.00,128.87
2086.00,128.86
2085.00,128.86
2084.00,128.86
2083.00,128.86
2082.00,128.86
2081.00,128.85
2080.00,128.85
2079.00,128.85
2078.00,128.84
2077.00,128.84
2076.00,128.83
2075.00,128.82
2074.00,128.82
2073.00,128.81
2072.00,128.81
2071.00,128.81
2070.00,128.80
2069.00,128.80
2068.00,128.79
2067.00,128.79
2066.00,128.79
2065.00,128.78
2064.00,128.78
2063.00,128.78
2062.00,128.77
2061.00,128.77
2060.00,128.77
2059.00,128.77
2058.00,128.77
2057.00,128.77
2056.00,128.77
2055.00,128.78
2054.00,128.78
2053.00,128.78
2052.00,128.79
2051.00,128.79
2050.00,128.80
2049.00,128.80
2048.00,128.81
2047.00,128.82
2046.00,128.82
2045.00,128.83
2044.00,128.84
2043.00,128.85
2042.00,128.86
2041.00,128.86
2040.00,128.87
2039.00,128.88
2038.00,128.88
2037.00,128.89
2036.00,128.90
2035.00,128.90
2034.00,128.90
2033.00,128.90
2032.00,128.90
2031.00,128.89
2030.00,128.88
2029.00,128.88
2028.00,128.87
2027.00,128.86
2026.00,128.85
2025.00,128.84
2024.00,128.82
2023.00,128.81
2022.00,128.80
2021.00,128.79
2020.00,128.78
2019.00,128.77
2018.00,128.76
2017.00,128.75
2016.00,128.74
2015.00,128.74
2014.00,128.73
2013.00,128.73
2012.00,128.73
2011.00,128.74
2010.00,128.74
2009.00,128.75
2008.00,128.76
2007.00,128.77
2006.00,128.78
2005.00,128.79
2004.00,128.81
2003.00,128.83
2002.00,128.84
2001.00,128.86
2000.00,128.88
1999.00,128.90
1998.00,128.92
1997.00,128.94
1996.00,128.96
1995.00,128.98
1994.00,129.00
1993.00,129.03
1992.00,129.05
1991.00,129.07
1990.00,129.09
1989.00,129.11
1988.00,129.13
1987.00,129.15
1986.00,129.17
1985.00,129.18
1984.00,129.20
1983.00,129.21
1982.00,129.23
1981.00,129.23
1980.00,129.24
1979.00,129.25
1978.00,129.25
1977.00,129.25
1976.00,129.24
1975.00,129.23
1974.00,129.22
1973.00,129.21
1972.00,129.19
1971.00,129.18
1970.00,129.16
1969.00,129.14
1968.00,129.13
1967.00,129.11
1966.00,129.10
1965.00,129.09
1964.00,129.09
1963.00,129.09
1962.00,129.10
1961.00,129.11
1960.00,129.13
1959.00,129.15
1958.00,129.18
1957.00,129.21
1956.00,129.24
1955.00,129.28
1954.00,129.31
1953.00,129.34
1952.00,129.37
1951.00,129.40
1950.00,129.42
1949.00,129.44
1948.00,129.46
1947.00,129.47
1946.00,129.48
1945.00,129.48
1944.00,129.48
1943.00,129.48
1942.00,129.47
1941.00,129.45
1940.00,129.42
1939.00,129.40
1938.00,129.37
1937.00,129.34
1936.00,129.31
1935.00,129.28
1934.00,129.25
1933.00,129.22
1932.00,129.20
1931.00,129.18
1930.00,129.15
1929.00,129.14
1928.00,129.12
1927.00,129.11
1926.00,129.10
1925.00,129.09
1924.00,129.09
1923.00,129.09
1922.00,129.08
1921.00,129.07
1920.00,129.07
1919.00,129.07
1918.00,129.07
1917.00,129.06
1916.00,129.06
1915.00,129.05
1914.00,129.04
1913.00,129.03
1912.00,129.02
1911.00,129.01
1910.00,129.00
1909.00,129.00
1908.00,128.99
1907.00,128.98
1906.00,128.98
1905.00,128.97
1904.00,128.97
1903.00,128.97
1902.00,128.97
1901.00,128.97
1900.00,128.97
1899.00,128.98
1898.00,128.99
1897.00,129.00
1896.00,129.01
1895.00,129.02
1894.00,129.03
1893.00,129.04
1892.00,129.05
1891.00,129.07
1890.00,129.08
1889.00,129.10
1888.00,129.11
1887.00,129.12
1886.00,129.13
1885.00,129.14
1884.00,129.16
1883.00,129.17
1882.00,129.19
1881.00,129.20
1880.00,129.22
1879.00,129.23
1878.00,129.24
1877.00,129.25
1876.00,129.26
1875.00,129.26
1874.00,129.26
1873.00,129.26
1872.00,129.26
1871.00,129.27
1870.00,129.26
1869.00,129.26
1868.00,129.25
1867.00,129.24
1866.00,129.22
1865.00,129.21
1864.00,129.21
1863.00,129.20
1862.00,129.20
1861.00,129.20
1860.00,129.20
1859.00,129.21
1858.00,129.21
1857.00,129.23
1856.00,129.25
1855.00,129.27
1854.00,129.29
1853.00,129.32
1852.00,129.34
1851.00,129.37
1850.00,129.40
1849.00,129.42
1848.00,129.45
1847.00,129.47
1846.00,129.49
1845.00,129.51
1844.00,129.53
1843.00,129.55
1842.00,129.56
1841.00,129.58
1840.00,129.59
1839.00,129.59
1838.00,129.59
1837.00,129.59
1836.00,129.60
1835.00,129.59
1834.00,129.59
1833.00,129.59
1832.00,129.59
1831.00,129.60
1830.00,129.60
1829.00,129.59
1828.00,129.59
1827.00,129.60
1826.00,129.60
1825.00,129.61
1824.00,129.61
1823.00,129.61
1822.00,129.62
1821.00,129.63
1820.00,129.64
1819.00,129.64
1818.00,129.65
1817.00,129.66
1816.00,129.66
1815.00,129.67
1814.00,129.67
1813.00,129.68
1812.00,129.69
1811.00,129.69
1810.00,129.70
1809.00,129.70
1808.00,129.71
1807.00,129.72
1806.00,129.72
1805.00,129.73
1804.00,129.74
1803.00,129.76
1802.00,129.77
1801.00,129.78
1800.00,129.79
1799.00,129.80
1798.00,129.81
1797.00,129.82
1796.00,129.83
1795.00,129.85
1794.00,129.86
1793.00,129.88
1792.00,129.91
1791.00,129.93
1790.00,129.94
1789.00,129.95
1788.00,129.97
1787.00,129.98
1786.00,129.99
1785.00,130.00
1784.00,130.01
1783.00,130.02
1782.00,130.03
1781.00,130.04
1780.00,130.05
1779.00,130.05
1778.00,130.05
1777.00,130.05
1776.00,130.05
1775.00,130.05
1774.00,130.05
1773.00,130.05
1772.00,130.05
1771.00,130.05
1770.00,130.05
1769.00,130.05
1768.00,130.04
1767.00,130.03
1766.00,130.02
1765.00,130.02
1764.00,130.01
1763.00,130.01
1762.00,130.00
1761.00,129.99
1760.00,129.98
1759.00,129.97
1758.00,129.97
1757.00,129.96
1756.00,129.95
1755.00,129.94
1754.00,129.93
1753.00,129.92
1752.00,129.91
1751.00,129.91
1750.00,129.92
1749.00,129.93
1748.00,129.94
1747.00,129.94
1746.00,129.94
1745.00,129.95
1744.00,129.95
1743.00,129.95
1742.00,129.96
1741.00,129.97
1740.00,129.98
1739.00,129.98
1738.00,129.98
1737.00,129.98
1736.00,129.99
1735.00,129.99
1734.00,129.99
1733.00,129.99
1732.00,130.01
1731.00,130.03
1730.00,130.04
1729.00,130.04
1728.00,130.04
1727.00,130.05
1726.00,130.05
1725.00,130.05
1724.00,130.06
1723.00,130.05
1722.00,130.05
1721.00,130.05
1720.00,130.05
1719.00,130.05
1718.00,130.04
1717.00,130.03
1716.00,130.04
1715.00,130.04
1714.00,130.04
1713.00,130.04
1712.00,130.03
1711.00,130.02
1710.00,130.01
1709.00,130.00
1708.00,130.00
1707.00,130.00
1706.00,129.99
1705.00,129.99
1704.00,129.98
1703.00,129.98
1702.00,129.97
1701.00,129.97
1700.00,129.96
1699.00,129.95
1698.00,129.95
1697.00,129.96
1696.00,129.96
1695.00,129.96
1694.00,129.96
1693.00,129.96
1692.00,129.96
1691.00,129.95
1690.00,129.95
1689.00,129.95
1688.00,129.95
1687.00,129.95
1686.00,129.96
1685.00,129.97
1684.00,129.97
1683.00,129.98
1682.00,129.99
1681.00,130.00
1680.00,130.00
1679.00,129.99
1678.00,129.99
1677.00,129.99
1676.00,129.99
1675.00,129.99
1674.00,129.99
1673.00,129.99
1672.00,129.99
1671.00,129.99
1670.00,129.99
1669.00,129.99
1668.00,129.99
1667.00,129.99
1666.00,129.99
1665.00,129.98
1664.00,129.97
1663.00,129.96
1662.00,129.95
1661.00,129.94
1660.00,129.93
1659.00,129.92
1658.00,129.90
1657.00,129.89
1656.00,129.88
1655.00,129.88
1654.00,129.87
1653.00,129.87
1652.00,129.86
1651.00,129.86
1650.00,129.86
1649.00,129.86
1648.00,129.84
1647.00,129.83
1646.00,129.83
1645.00,129.83
1644.00,129.84
1643.00,129.85
1642.00,129.86
1641.00,129.86
1640.00,129.87
1639.00,129.87
1638.00,129.88
1637.00,129.88
1636.00,129.88
1635.00,129.89
1634.00,129.90
1633.00,129.91
1632.00,129.91
1631.00,129.90
1630.00,129.90
1629.00,129.90
1628.00,129.90
1627.00,129.90
1626.00,129.91
1625.00,129.91
1624.00,129.91
1623.00,129.91
1622.00,129.91
1621.00,129.92
1620.00,129.92
1619.00,129.92
1618.00,129.92
1617.00,129.93
1616.00,129.93
1615.00,129.94
1614.00,129.94
1613.00,129.95
1612.00,129.94
1611.00,129.94
1610.00,129.94
1609.00,129.96
1608.00,129.97
1607.00,129.97
1606.00,129.98
1605.00,129.98
1604.00,129.97
1603.00,129.96
1602.00,129.96
1601.00,129.95
1600.00,129.95
1599.00,129.94
1598.00,129.93
1597.00,129.93
1596.00,129.92
1595.00,129.91
1594.00,129.90
1593.00,129.90
1592.00,129.90
1591.00,129.89
1590.00,129.89
1589.00,129.90
1588.00,129.90
1587.00,129.90
1586.00,129.90
1585.00,129.91
1584.00,129.91
1583.00,129.92
1582.00,129.93
1581.00,129.94
1580.00,129.94
1579.00,129.95
1578.00,129.96
1577.00,129.96
1576.00,129.96
1575.00,129.97
1574.00,129.98
1573.00,129.99
1572.00,129.99
1571.00,129.98
1570.00,129.98
1569.00,129.98
1568.00,129.97
1567.00,129.97
1566.00,129.97
1565.00,129.97
1564.00,129.96
1563.00,129.95
1562.00,129.95
1561.00,129.95
1560.00,129.94
1559.00,129.92
1558.00,129.92
1557.00,129.92
1556.00,129.92
1555.00,129.91
1554.00,129.90
1553.00,129.90
1552.00,129.89
1551.00,129.89
1550.00,129.89
1549.00,129.88
1548.00,129.87
1547.00,129.87
1546.00,129.88
1545.00,129.89
1544.00,129.89
1543.00,129.90
1542.00,129.90
1541.00,129.90
1540.00,129.90
1539.00,129.91
1538.00,129.90
1537.00,129.90
1536.00,129.89
1535.00,129.87
1534.00,129.86
1533.00,129.85
1532.00,129.84
1531.00,129.84
1530.00,129.83
1529.00,129.83
1528.00,129.84
1527.00,129.84
1526.00,129.83
1525.00,129.83
1524.00,129.83
1523.00,129.84
1522.00,129.84
1521.00,129.85
1520.00,129.86
1519.00,129.87
1518.00,129.89
1517.00,129.89
1516.00,129.89
1515.00,129.89
1514.00,129.89
1513.00,129.89
1512.00,129.90
1511.00,129.91
1510.00,129.92
1509.00,129.92
1508.00,129.92
1507.00,129.93
1506.00,129.93
1505.00,129.93
1504.00,129.94
1503.00,129.94
1502.00,129.93
1501.00,129.92
1500.00,129.91
1499.00,129.90
1498.00,129.90
1497.00,129.89
1496.00,129.89
1495.00,129.89
1494.00,129.88
1493.00,129.88
1492.00,129.88
1491.00,129.89
1490.00,129.88
1489.00,129.88
1488.00,129.89
1487.00,129.89
1486.00,129.89
1485.00,129.89
1484.00,129.90
1483.00,129.90
1482.00,129.90
1481.00,129.89
1480.00,129.90
1479.00,129.90
1478.00,129.90
1477.00,129.91
1476.00,129.92
1475.00,129.92
1474.00,129.92
1473.00,129.93
1472.00,129.94
1471.00,129.95
1470.00,129.96
1469.00,129.97
1468.00,129.98
1467.00,129.99
1466.00,129.99
1465.00,129.99
1464.00,129.99
1463.00,130.00
1462.00,130.00
1461.00,130.00
1460.00,130.00
1459.00,130.01
1458.00,130.01
1457.00,130.00
1456.00,130.00
1455.00,130.00
1454.00,130.00
1453.00,129.99
1452.00,129.98
1451.00,129.98
1450.00,129.97
1449.00,129.97
1448.00,129.97
1447.00,129.97
1446.00,129.96
1445.00,129.95
1444.00,129.94
1443.00,129.93
1442.00,129.93
1441.00,129.92
1440.00,129.91
1439.00,129.90
1438.00,129.90
1437.00,129.89
1436.00,129.88
1435.00,129.88
1434.00,129.88
1433.00,129.87
1432.00,129.87
1431.00,129.87
1430.00,129.87
1429.00,129.87
1428.00,129.87
1427.00,129.87
1426.00,129.87
1425.00,129.87
1424.00,129.87
1423.00,129.88
1422.00,129.89
1421.00,129.90
1420.00,129.91
1419.00,129.92
1418.00,129.92
1417.00,129.93
1416.00,129.93
1415.00,129.94
1414.00,129.95
1413.00,129.96
1412.00,129.96
1411.00,129.96
1410.00,129.96
1409.00,129.96
1408.00,129.96
1407.00,129.97
1406.00,129.97
1405.00,129.97
1404.00,129.97
1403.00,129.97
1402.00,129.97
1401.00,129.97
1400.00,129.97
1399.00,129.96
1398.00,129.97
1397.00,129.97
1396.00,129.96
1395.00,129.96
1394.00,129.96
1393.00,129.96
1392.00,129.95
1391.00,129.94
1390.00,129.94
1389.00,129.94
1388.00,129.94
1387.00,129.93
1386.00,129.93
1385.00,129.92
1384.00,129.91
1383.00,129.91
1382.00,129.90
1381.00,129.90
1380.00,129.90
1379.00,129.90
1378.00,129.90
1377.00,129.90
1376.00,129.90
1375.00,129.90
1374.00,129.90
1373.00,129.90
1372.00,129.91
1371.00,129.91
1370.00,129.91
1369.00,129.91
1368.00,129.91
1367.00,129.92
1366.00,129.92
1365.00,129.92
1364.00,129.93
1363.00,129.94
1362.00,129.95
1361.00,129.95
1360.00,129.96
1359.00,129.96
1358.00,129.96
1357.00,129.96
1356.00,129.96
1355.00,129.96
1354.00,129.96
1353.00,129.97
1352.00,129.97
1351.00,129.97
1350.00,129.97
1349.00,129.97
1348.00,129.96
1347.00,129.96
1346.00,129.96
1345.00,129.96
1344.00,129.96
1343.00,129.95
1342.00,129.95
1341.00,129.94
1340.00,129.94
1339.00,129.94
1338.00,129.94
1337.00,129.93
1336.00,129.92
1335.00,129.92
1334.00,129.91
1333.00,129.91
1332.00,129.91
1331.00,129.90
1330.00,129.90
1329.00,129.89
1328.00,129.89
1327.00,129.89
1326.00,129.89
1325.00,129.89
1324.00,129.89
1323.00,129.89
1322.00,129.89
1321.00,129.89
1320.00,129.90
1319.00,129.90
1318.00,129.91
1317.00,129.92
1316.00,129.92
1315.00,129.93
1314.00,129.93
1313.00,129.94
1312.00,129.94
1311.00,129.95
1310.00,129.95
1309.00,129.96
1308.00,129.96
1307.00,129.97
1306.00,129.97
1305.00,129.98
1304.00,129.98
1303.00,129.98
1302.00,129.98
1301.00,129.98
1300.00,129.98
1299.00,129.98
1298.00,129.98
1297.00,129.98
1296.00,129.98
1295.00,129.97
1294.00,129.97
1293.00,129.96
1292.00,129.96
1291.00,129.95
1290.00,129.94
1289.00,129.94
1288.00,129.93
1287.00,129.92
1286.00,129.91
1285.00,129.91
1284.00,129.90
1283.00,129.90
1282.00,129.89
1281.00,129.89
1280.00,129.88
1279.00,129.87
1278.00,129.87
1277.00,129.86
1276.00,129.86
1275.00,129.86
1274.00,129.86
1273.00,129.86
1272.00,129.86
1271.00,129.86
1270.00,129.86
1269.00,129.86
1268.00,129.86
1267.00,129.86
1266.00,129.87
1265.00,129.88
1264.00,129.89
1263.00,129.91
1262.00,129.92
1261.00,129.92
1260.00,129.93
1259.00,129.94
1258.00,129.95
1257.00,129.95
1256.00,129.95
1255.00,129.95
1254.00,129.95
1253.00,129.94
1252.00,129.94
1251.00,129.94
1250.00,129.94
1249.00,129.94
1248.00,129.94
1247.00,129.95
1246.00,129.94
1245.00,129.94
1244.00,129.94
1243.00,129.93
1242.00,129.93
1241.00,129.93
1240.00,129.93
1239.00,129.93
1238.00,129.92
1237.00,129.92
1236.00,129.91
1235.00,129.90
1234.00,129.90
1233.00,129.89
1232.00,129.88
1231.00,129.87
1230.00,129.87
1229.00,129.87
1228.00,129.86
1227.00,129.85
1226.00,129.84
1225.00,129.83
1224.00,129.83
1223.00,129.82
1222.00,129.82
1221.00,129.82
1220.00,129.81
1219.00,129.81
1218.00,129.80
1217.00,129.80
1216.00,129.80
1215.00,129.80
1214.00,129.80
1213.00,129.81
1212.00,129.81
1211.00,129.81
1210.00,129.81
1209.00,129.82
1208.00,129.82
1207.00,129.82
1206.00,129.83
1205.00,129.83
1204.00,129.84
1203.00,129.85
1202.00,129.85
1201.00,129.86
1200.00,129.86
1199.00,129.86
1198.00,129.86
1197.00,129.87
1196.00,129.87
1195.00,129.88
1194.00,129.88
1193.00,129.88
1192.00,129.88
1191.00,129.88
1190.00,129.87
1189.00,129.87
1188.00,129.87
1187.00,129.87
1186.00,129.87
1185.00,129.87
1184.00,129.86
1183.00,129.85
1182.00,129.85
1181.00,129.84
1180.00,129.83
1179.00,129.83
1178.00,129.82
1177.00,129.82
1176.00,129.81
1175.00,129.81
1174.00,129.80
1173.00,129.79
1172.00,129.78
1171.00,129.78
1170.00,129.78
1169.00,129.77
1168.00,129.77
1167.00,129.77
1166.00,129.77
1165.00,129.76
1164.00,129.76
1163.00,129.76
1162.00,129.75
1161.00,129.76
1160.00,129.76
1159.00,129.76
1158.00,129.77
1157.00,129.76
1156.00,129.76
1155.00,129.77
1154.00,129.77
1153.00,129.77
1152.00,129.78
1151.00,129.79
1150.00,129.79
1149.00,129.79
1148.00,129.80
1147.00,129.80
1146.00,129.81
1145.00,129.81
1144.00,129.81
1143.00,129.82
1142.00,129.82
1141.00,129.82
1140.00,129.82
1139.00,129.82
1138.00,129.82
1137.00,129.82
1136.00,129.82
1135.00,129.82
1134.00,129.82
1133.00,129.82
1132.00,129.82
1131.00,129.81
1130.00,129.80
1129.00,129.80
1128.00,129.79
1127.00,129.79
1126.00,129.79
1125.00,129.78
1124.00,129.78
1123.00,129.77
1122.00,129.77
1121.00,129.76
1120.00,129.76
1119.00,129.76
1118.00,129.76
1117.00,129.76
1116.00,129.75
1115.00,129.75
1114.00,129.75
1113.00,129.75
1112.00,129.75
1111.00,129.75
1110.00,129.75
1109.00,129.76
1108.00,129.76
1107.00,129.76
1106.00,129.76
1105.00,129.77
1104.00,129.77
1103.00,129.78
1102.00,129.78
1101.00,129.79
1100.00,129.79
1099.00,129.80
1098.00,129.80
1097.00,129.80
1096.00,129.80
1095.00,129.80
1094.00,129.80
1093.00,129.81
1092.00,129.81
1091.00,129.81
1090.00,129.81
1089.00,129.81
1088.00,129.81
1087.00,129.81
1086.00,129.80
1085.00,129.80
1084.00,129.80
1083.00,129.79
1082.00,129.79
1081.00,129.78
1080.00,129.77
1079.00,129.76
1078.00,129.76
1077.00,129.75
1076.00,129.74
1075.00,129.73
1074.00,129.73
1073.00,129.72
1072.00,129.72
1071.00,129.71
1070.00,129.70
1069.00,129.69
1068.00,129.68
1067.00,129.67
1066.00,129.67
1065.00,129.67
1064.00,129.67
1063.00,129.66
1062.00,129.66
1061.00,129.65
1060.00,129.65
1059.00,129.65
1058.00,129.65
1057.00,129.65
1056.00,129.66
1055.00,129.66
1054.00,129.65
1053.00,129.65
1052.00,129.65
1051.00,129.65
1050.00,129.66
1049.00,129.67
1048.00,129.68
1047.00,129.70
1046.00,129.71
1045.00,129.73
1044.00,129.73
1043.00,129.74
1042.00,129.75
1041.00,129.75
1040.00,129.76
1039.00,129.77
1038.00,129.78
1037.00,129.79
1036.00,129.80
1035.00,129.80
1034.00,129.80
1033.00,129.80
1032.00,129.80
1031.00,129.81
1030.00,129.82
1029.00,129.83
1028.00,129.84
1027.00,129.84
1026.00,129.84
1025.00,129.84
1024.00,129.84
1023.00,129.84
1022.00,129.85
1021.00,129.85
1020.00,129.86
1019.00,129.86
1018.00,129.86
1017.00,129.86
1016.00,129.86
1015.00,129.86
1014.00,129.85
1013.00,129.85
1012.00,129.85
1011.00,129.86
1010.00,129.86
1009.00,129.86
1008.00,129.86
1007.00,129.86
1006.00,129.86
1005.00,129.85
1004.00,129.86
1003.00,129.87
1002.00,129.88
1001.00,129.89
1000.00,129.89
999.00,129.89
998.00,129.89
997.00,129.90
996.00,129.91
995.00,129.92
994.00,129.93
993.00,129.94
992.00,129.95
991.00,129.95
990.00,129.96
989.00,129.96
988.00,129.97
987.00,129.97
986.00,129.98
985.00,129.99
984.00,130.00
983.00,130.01
982.00,130.02
981.00,130.02
980.00,130.02
979.00,130.02
978.00,130.02
977.00,130.03
976.00,130.04
975.00,130.04
974.00,130.04
973.00,130.04
972.00,130.03
971.00,130.02
970.00,130.02
969.00,130.03
968.00,130.03
967.00,130.03
966.00,130.03
965.00,130.03
964.00,130.02
963.00,130.02
962.00,130.02
961.00,130.02
960.00,130.02
959.00,130.02
958.00,130.03
957.00,130.03
956.00,130.03
955.00,130.03
954.00,130.03
953.00,130.03
952.00,130.03
951.00,130.03
950.00,130.04
949.00,130.06
948.00,130.07
947.00,130.07
946.00,130.08
945.00,130.07
944.00,130.08
943.00,130.08
942.00,130.09
941.00,130.11
940.00,130.12
939.00,130.12
938.00,130.13
937.00,130.13
936.00,130.14
935.00,130.15
934.00,130.16
933.00,130.16
932.00,130.17
931.00,130.18
930.00,130.18
929.00,130.19
928.00,130.19
927.00,130.19
926.00,130.18
925.00,130.18
924.00,130.19
923.00,130.19
922.00,130.20
921.00,130.20
920.00,130.20
919.00,130.19
918.00,130.18
917.00,130.17
916.00,130.17
915.00,130.17
914.00,130.17
913.00,130.17
912.00,130.17
911.00,130.17
910.00,130.16
909.00,130.16
908.00,130.15
907.00,130.16
906.00,130.16
905.00,130.16
904.00,130.17
903.00,130.17
902.00,130.17
901.00,130.17
900.00,130.17
899.00,130.17
898.00,130.18
897.00,130.18
896.00,130.19
895.00,130.20
894.00,130.21
893.00,130.21
892.00,130.22
891.00,130.22
890.00,130.22
889.00,130.23
888.00,130.24
887.00,130.25
886.00,130.26
885.00,130.27
884.00,130.27
883.00,130.28
882.00,130.28
881.00,130.29
880.00,130.29
879.00,130.30
878.00,130.30
877.00,130.31
876.00,130.31
875.00,130.31
874.00,130.31
873.00,130.31
872.00,130.31
871.00,130.31
870.00,130.32
869.00,130.32
868.00,130.32
867.00,130.32
866.00,130.31
865.00,130.31
864.00,130.30
863.00,130.30
862.00,130.29
861.00,130.30
860.00,130.30
859.00,130.29
858.00,130.29
857.00,130.28
856.00,130.28
855.00,130.28
854.00,130.28
853.00,130.28
852.00,130.28
851.00,130.29
850.00,130.28
849.00,130.28
848.00,130.28
847.00,130.28
846.00,130.28
845.00,130.29
844.00,130.29
843.00,130.29
842.00,130.30
841.00,130.31
840.00,130.31
839.00,130.31
838.00,130.31
837.00,130.32
836.00,130.32
835.00,130.32
834.00,130.33
833.00,130.33
832.00,130.34
831.00,130.34
830.00,130.34
829.00,130.33
828.00,130.33
827.00,130.33
826.00,130.34
825.00,130.35
824.00,130.35
823.00,130.35
822.00,130.35
821.00,130.36
820.00,130.36
819.00,130.37
818.00,130.37
817.00,130.37
816.00,130.37
815.00,130.36
814.00,130.36
813.00,130.36
812.00,130.36
811.00,130.36
810.00,130.36
809.00,130.36
808.00,130.37
807.00,130.37
806.00,130.37
805.00,130.37
804.00,130.37
803.00,130.37
802.00,130.37
801.00,130.37
800.00,130.38
799.00,130.38
798.00,130.39
797.00,130.39
796.00,130.38
795.00,130.38
794.00,130.38
793.00,130.38
792.00,130.38
791.00,130.38
790.00,130.37
789.00,130.37
788.00,130.36
787.00,130.36
786.00,130.37
785.00,130.37
784.00,130.37
783.00,130.37
782.00,130.37
781.00,130.37
780.00,130.37
779.00,130.37
778.00,130.38
777.00,130.38
776.00,130.38
775.00,130.38
774.00,130.38
773.00,130.38
772.00,130.38
771.00,130.38
770.00,130.38
769.00,130.38
768.00,130.38
767.00,130.37
766.00,130.37
765.00,130.37
764.00,130.36
763.00,130.36
762.00,130.35
761.00,130.34
760.00,130.34
759.00,130.34
758.00,130.34
757.00,130.34
756.00,130.34
755.00,130.33
754.00,130.33
753.00,130.32
752.00,130.31
751.00,130.31
750.00,130.31
749.00,130.30
748.00,130.30
747.00,130.30
746.00,130.30
745.00,130.30
744.00,130.30
743.00,130.30
742.00,130.29
741.00,130.29
740.00,130.29
739.00,130.29
738.00,130.30
737.00,130.30
736.00,130.31
735.00,130.31
734.00,130.31
733.00,130.32
732.00,130.32
731.00,130.33
730.00,130.34
729.00,130.34
728.00,130.33
727.00,130.33
726.00,130.34
725.00,130.34
724.00,130.35
723.00,130.36
722.00,130.36
721.00,130.36
720.00,130.36
719.00,130.35
718.00,130.35
717.00,130.36
716.00,130.36
715.00,130.36
714.00,130.35
713.00,130.35
712.00,130.34
711.00,130.34
710.00,130.34
709.00,130.33
708.00,130.33
707.00,130.32
706.00,130.32
705.00,130.32
704.00,130.32
703.00,130.32
702.00,130.32
701.00,130.31
700.00,130.29
699.00,130.29
698.00,130.29
697.00,130.29
696.00,130.29
695.00,130.29
694.00,130.28
693.00,130.27
692.00,130.26
691.00,130.25
690.00,130.25
689.00,130.25
688.00,130.25
687.00,130.25
686.00,130.25
685.00,130.25
684.00,130.25
683.00,130.25
682.00,130.25
681.00,130.24
680.00,130.25
679.00,130.25
678.00,130.25
677.00,130.26
676.00,130.26
675.00,130.26
674.00,130.26
673.00,130.26
672.00,130.26
671.00,130.28
670.00,130.32
669.00,130.33
668.00,130.31
667.00,130.28
666.00,130.26
665.00,130.26
664.00,130.26
663.00,130.27
662.00,130.26
661.00,130.26
660.00,130.25
659.00,130.24
658.00,130.23
657.00,130.22
656.00,130.21
655.00,130.21
654.00,130.20
653.00,130.20
652.00,130.20
651.00,130.20
650.00,130.20
649.00,130.19
648.00,130.18
647.00,130.17
646.00,130.17
645.00,130.17
644.00,130.17
643.00,130.18
642.00,130.18
641.00,130.18
640.00,130.17
639.00,130.16
638.00,130.15
637.00,130.15
636.00,130.16
635.00,130.16
634.00,130.16
633.00,130.16
632.00,130.16
631.00,130.16
630.00,130.16
629.00,130.16
628.00,130.16
627.00,130.16
626.00,130.16
625.00,130.16
624.00,130.16
623.00,130.17
622.00,130.16
621.00,130.15
620.00,130.15
619.00,130.15
618.00,130.16
617.00,130.17
616.00,130.17
615.00,130.17
614.00,130.16
613.00,130.15
612.00,130.14
611.00,130.14
610.00,130.15
609.00,130.15
608.00,130.15
607.00,130.14
606.00,130.13
605.00,130.12
604.00,130.12
603.00,130.12
602.00,130.12
601.00,130.13
600.00,130.13
599.00,130.13
598.00,130.13
597.00,130.14
596.00,130.14
595.00,130.13
594.00,130.12
593.00,130.11
592.00,130.11
591.00,130.11
590.00,130.12
589.00,130.12
588.00,130.11
587.00,130.10
586.00,130.09
585.00,130.09
584.00,130.09
583.00,130.09
582.00,130.09
581.00,130.09
580.00,130.08
579.00,130.07
578.00,130.07
577.00,130.07
576.00,130.07
575.00,130.07
574.00,130.07
573.00,130.07
572.00,130.07
571.00,130.06
570.00,130.05
569.00,130.05
568.00,130.04
567.00,130.03
566.00,130.03
565.00,130.04
564.00,130.05
563.00,130.05
562.00,130.05
561.00,130.04
560.00,130.03
559.00,130.02
558.00,130.03
557.00,130.03
556.00,130.04
555.00,130.04
554.00,130.04
553.00,130.03
552.00,130.02
551.00,130.01
550.00,130.02
549.00,130.03
548.00,130.04
547.00,130.05
546.00,130.05
545.00,130.05
544.00,130.05
543.00,130.05
542.00,130.04
541.00,130.04
540.00,130.04
539.00,130.04
538.00,130.05
537.00,130.06
536.00,130.07
535.00,130.07
534.00,130.07
533.00,130.08
532.00,130.08
531.00,130.10
530.00,130.11
529.00,130.12
528.00,130.13
527.00,130.13
526.00,130.15
525.00,130.16
524.00,130.18
523.00,130.20
522.00,130.23
521.00,130.24
520.00,130.26
519.00,130.26
518.00,130.27
517.00,130.28
516.00,130.29
515.00,130.29
514.00,130.30
513.00,130.31
512.00,130.32
511.00,130.34
510.00,130.34
509.00,130.34
508.00,130.34
507.00,130.34
506.00,130.35
505.00,130.37
504.00,130.39
503.00,130.39
502.00,130.39
501.00,130.38
500.00,130.38
