Created as New Dataset,Sample 396 By Analyst Date Monday, February 10 2025
cm-1,%T
4000.00,105.14
3999.00,105.14
3998.00,105.14
3997.00,105.14
3996.00,105.13
3995.00,105.13
3994.00,105.13
3993.00,105.13
3992.00,105.12
3991.00,105.12
3990.00,105.12
3989.00,105.12
3988.00,105.12
3987.00,105.12
3986.00,105.12
3985.00,105.11
3984.00,105.11
3983.00,105.11
3982.00,105.11
3981.00,105.11
3980.00,105.11
3979.00,105.11
3978.00,105.11
3977.00,105.11
3976.00,105.11
3975.00,105.11
3974.00,105.11
3973.00,105.11
3972.00,105.11
3971.00,105.11
3970.00,105.12
3969.00,105.12
3968.00,105.12
3967.00,105.12
3966.00,105.12
3965.00,105.12
3964.00,105.12
3963.00,105.12
3962.00,105.12
3961.00,105.12
3960.00,105.12
3959.00,105.12
3958.00,105.12
3957.00,105.13
3956.00,105.13
3955.00,105.13
3954.00,105.13
3953.00,105.13
3952.00,105.13
3951.00,105.13
3950.00,105.12
3949.00,105.12
3948.00,105.12
3947.00,105.12
3946.00,105.12
3945.00,105.12
3944.00,105.12
3943.00,105.12
3942.00,105.12
3941.00,105.12
3940.00,105.11
3939.00,105.11
3938.00,105.11
3937.00,105.11
3936.00,105.11
3935.00,105.11
3934.00,105.10
3933.00,105.10
3932.00,105.10
3931.00,105.10
3930.00,105.10
3929.00,105.10
3928.00,105.10
3927.00,105.10
3926.00,105.10
3925.00,105.10
3924.00,105.10
3923.00,105.10
3922.00,105.09
3921.00,105.09
3920.00,105.09
3919.00,105.09
3918.00,105.09
3917.00,105.09
3916.00,105.09
3915.00,105.09
3914.00,105.09
3913.00,105.09
3912.00,105.10
3911.00,105.10
3910.00,105.10
3909.00,105.10
3908.00,105.10
3907.00,105.09
3906.00,105.09
3905.00,105.09
3904.00,105.08
3903.00,105.07
3902.00,105.07
3901.00,105.06
3900.00,105.07
3899.00,105.07
3898.00,105.07
3897.00,105.07
3896.00,105.08
3895.00,105.08
3894.00,105.08
3893.00,105.08
3892.00,105.08
3891.00,105.08
3890.00,105.08
3889.00,105.08
3888.00,105.07
3887.00,105.07
3886.00,105.07
3885.00,105.07
3884.00,105.06
3883.00,105.06
3882.00,105.06
3881.00,105.06
3880.00,105.07
3879.00,105.07
3878.00,105.06
3877.00,105.06
3876.00,105.06
3875.00,105.06
3874.00,105.06
3873.00,105.06
3872.00,105.06
3871.00,105.05
3870.00,105.05
3869.00,105.05
3868.00,105.05
3867.00,105.04
3866.00,105.04
3865.00,105.05
3864.00,105.06
3863.00,105.06
3862.00,105.06
3861.00,105.06
3860.00,105.07
3859.00,105.07
3858.00,105.07
3857.00,105.07
3856.00,105.07
3855.00,105.07
3854.00,105.06
3853.00,105.05
3852.00,105.05
3851.00,105.04
3850.00,105.05
3849.00,105.06
3848.00,105.07
3847.00,105.07
3846.00,105.08
3845.00,105.08
3844.00,105.08
3843.00,105.08
3842.00,105.08
3841.00,105.07
3840.00,105.06
3839.00,105.06
3838.00,105.05
3837.00,105.05
3836.00,105.05
3835.00,105.05
3834.00,105.05
3833.00,105.05
3832.00,105.05
3831.00,105.06
3830.00,105.06
3829.00,105.06
3828.00,105.06
3827.00,105.06
3826.00,105.06
3825.00,105.05
3824.00,105.04
3823.00,105.04
3822.00,105.03
3821.00,105.03
3820.00,105.03
3819.00,105.02
3818.00,105.02
3817.00,105.02
3816.00,105.02
3815.00,105.03
3814.00,105.03
3813.00,105.03
3812.00,105.04
3811.00,105.04
3810.00,105.04
3809.00,105.04
3808.00,105.04
3807.00,105.04
3806.00,105.04
3805.00,105.03
3804.00,105.03
3803.00,105.02
3802.00,105.03
3801.00,105.03
3800.00,105.03
3799.00,105.03
3798.00,105.03
3797.00,105.04
3796.00,105.05
3795.00,105.05
3794.00,105.06
3793.00,105.06
3792.00,105.06
3791.00,105.07
3790.00,105.07
3789.00,105.07
3788.00,105.07
3787.00,105.07
3786.00,105.07
3785.00,105.07
3784.00,105.06
3783.00,105.06
3782.00,105.06
3781.00,105.06
3780.00,105.06
3779.00,105.06
3778.00,105.06
3777.00,105.05
3776.00,105.05
3775.00,105.05
3774.00,105.05
3773.00,105.05
3772.00,105.05
3771.00,105.05
3770.00,105.05
3769.00,105.04
3768.00,105.04
3767.00,105.04
3766.00,105.04
3765.00,105.04
3764.00,105.04
3763.00,105.04
3762.00,105.04
3761.00,105.04
3760.00,105.04
3759.00,105.04
3758.00,105.04
3757.00,105.04
3756.00,105.04
3755.00,105.03
3754.00,105.03
3753.00,105.02
3752.00,105.01
3751.00,105.01
3750.00,105.00
3749.00,105.00
3748.00,105.00
3747.00,104.99
3746.00,104.99
3745.00,105.00
3744.00,105.00
3743.00,105.00
3742.00,105.00
3741.00,105.00
3740.00,105.00
3739.00,105.00
3738.00,105.00
3737.00,104.99
3736.00,105.00
3735.00,105.00
3734.00,105.00
3733.00,105.00
3732.00,105.00
3731.00,105.00
3730.00,105.00
3729.00,105.00
3728.00,105.00
3727.00,105.00
3726.00,105.00
3725.00,105.00
3724.00,105.00
3723.00,105.00
3722.00,105.00
3721.00,105.00
3720.00,105.00
3719.00,105.00
3718.00,105.00
3717.00,105.00
3716.00,105.00
3715.00,104.99
3714.00,104.98
3713.00,104.98
3712.00,104.98
3711.00,104.98
3710.00,104.98
3709.00,104.98
3708.00,104.99
3707.00,105.00
3706.00,105.00
3705.00,105.01
3704.00,105.02
3703.00,105.02
3702.00,105.03
3701.00,105.04
3700.00,105.04
3699.00,105.04
3698.00,105.04
3697.00,105.05
3696.00,105.05
3695.00,105.05
3694.00,105.05
3693.00,105.05
3692.00,105.05
3691.00,105.05
3690.00,105.05
3689.00,105.05
3688.00,105.05
3687.00,105.05
3686.00,105.06
3685.00,105.06
3684.00,105.06
3683.00,105.07
3682.00,105.07
3681.00,105.07
3680.00,105.07
3679.00,105.07
3678.00,105.06
3677.00,105.05
3676.00,105.04
3675.00,105.04
3674.00,105.04
3673.00,105.03
3672.00,105.02
3671.00,105.02
3670.00,105.03
3669.00,105.04
3668.00,105.04
3667.00,105.05
3666.00,105.05
3665.00,105.06
3664.00,105.06
3663.00,105.06
3662.00,105.07
3661.00,105.07
3660.00,105.07
3659.00,105.06
3658.00,105.06
3657.00,105.06
3656.00,105.05
3655.00,105.05
3654.00,105.04
3653.00,105.03
3652.00,105.03
3651.00,105.02
3650.00,105.02
3649.00,105.02
3648.00,105.01
3647.00,105.02
3646.00,105.02
3645.00,105.03
3644.00,105.04
3643.00,105.04
3642.00,105.05
3641.00,105.06
3640.00,105.06
3639.00,105.06
3638.00,105.06
3637.00,105.06
3636.00,105.06
3635.00,105.05
3634.00,105.05
3633.00,105.05
3632.00,105.04
3631.00,105.03
3630.00,105.03
3629.00,105.02
3628.00,105.02
3627.00,105.02
3626.00,105.02
3625.00,105.02
3624.00,105.03
3623.00,105.03
3622.00,105.03
3621.00,105.04
3620.00,105.04
3619.00,105.04
3618.00,105.03
3617.00,105.03
3616.00,105.02
3615.00,105.02
3614.00,105.02
3613.00,105.02
3612.00,105.02
3611.00,105.01
3610.00,105.01
3609.00,105.01
3608.00,105.02
3607.00,105.02
3606.00,105.02
3605.00,105.03
3604.00,105.03
3603.00,105.03
3602.00,105.04
3601.00,105.04
3600.00,105.04
3599.00,105.04
3598.00,105.04
3597.00,105.05
3596.00,105.05
3595.00,105.05
3594.00,105.05
3593.00,105.05
3592.00,105.05
3591.00,105.05
3590.00,105.05
3589.00,105.05
3588.00,105.05
3587.00,105.06
3586.00,105.06
3585.00,105.06
3584.00,105.06
3583.00,105.07
3582.00,105.07
3581.00,105.07
3580.00,105.08
3579.00,105.08
3578.00,105.08
3577.00,105.08
3576.00,105.08
3575.00,105.08
3574.00,105.08
3573.00,105.08
3572.00,105.08
3571.00,105.08
3570.00,105.07
3569.00,105.07
3568.00,105.06
3567.00,105.06
3566.00,105.06
3565.00,105.06
3564.00,105.06
3563.00,105.06
3562.00,105.07
3561.00,105.07
3560.00,105.07
3559.00,105.07
3558.00,105.08
3557.00,105.08
3556.00,105.08
3555.00,105.08
3554.00,105.08
3553.00,105.08
3552.00,105.08
3551.00,105.08
3550.00,105.07
3549.00,105.07
3548.00,105.07
3547.00,105.07
3546.00,105.07
3545.00,105.07
3544.00,105.08
3543.00,105.08
3542.00,105.08
3541.00,105.08
3540.00,105.08
3539.00,105.08
3538.00,105.08
3537.00,105.09
3536.00,105.09
3535.00,105.09
3534.00,105.09
3533.00,105.09
3532.00,105.09
3531.00,105.09
3530.00,105.09
3529.00,105.09
3528.00,105.09
3527.00,105.08
3526.00,105.08
3525.00,105.08
3524.00,105.08
3523.00,105.08
3522.00,105.08
3521.00,105.09
3520.00,105.09
3519.00,105.09
3518.00,105.09
3517.00,105.09
3516.00,105.08
3515.00,105.08
3514.00,105.08
3513.00,105.08
3512.00,105.08
3511.00,105.08
3510.00,105.07
3509.00,105.07
3508.00,105.07
3507.00,105.07
3506.00,105.07
3505.00,105.07
3504.00,105.07
3503.00,105.07
3502.00,105.07
3501.00,105.07
3500.00,105.07
3499.00,105.07
3498.00,105.07
3497.00,105.07
3496.00,105.08
3495.00,105.08
3494.00,105.08
3493.00,105.08
3492.00,105.08
3491.00,105.09
3490.00,105.09
3489.00,105.09
3488.00,105.09
3487.00,105.10
3486.00,105.10
3485.00,105.10
3484.00,105.10
3483.00,105.10
3482.00,105.10
3481.00,105.11
3480.00,105.11
3479.00,105.11
3478.00,105.11
3477.00,105.11
3476.00,105.12
3475.00,105.12
3474.00,105.12
3473.00,105.12
3472.00,105.12
3471.00,105.12
3470.00,105.12
3469.00,105.12
3468.00,105.12
3467.00,105.12
3466.00,105.12
3465.00,105.12
3464.00,105.12
3463.00,105.12
3462.00,105.11
3461.00,105.11
3460.00,105.11
3459.00,105.11
3458.00,105.11
3457.00,105.11
3456.00,105.11
3455.00,105.11
3454.00,105.11
3453.00,105.11
3452.00,105.10
3451.00,105.10
3450.00,105.10
3449.00,105.10
3448.00,105.10
3447.00,105.10
3446.00,105.10
3445.00,105.10
3444.00,105.10
3443.00,105.10
3442.00,105.11
3441.00,105.11
3440.00,105.11
3439.00,105.11
3438.00,105.11
3437.00,105.11
3436.00,105.12
3435.00,105.12
3434.00,105.12
3433.00,105.12
3432.00,105.13
3431.00,105.13
3430.00,105.13
3429.00,105.13
3428.00,105.13
3427.00,105.13
3426.00,105.13
3425.00,105.13
3424.00,105.13
3423.00,105.13
3422.00,105.13
3421.00,105.13
3420.00,105.13
3419.00,105.13
3418.00,105.13
3417.00,105.13
3416.00,105.13
3415.00,105.12
3414.00,105.12
3413.00,105.12
3412.00,105.12
3411.00,105.12
3410.00,105.11
3409.00,105.11
3408.00,105.11
3407.00,105.10
3406.00,105.10
3405.00,105.10
3404.00,105.10
3403.00,105.09
3402.00,105.09
3401.00,105.09
3400.00,105.09
3399.00,105.08
3398.00,105.08
3397.00,105.08
3396.00,105.08
3395.00,105.08
3394.00,105.08
3393.00,105.07
3392.00,105.07
3391.00,105.08
3390.00,105.08
3389.00,105.08
3388.00,105.08
3387.00,105.08
3386.00,105.08
3385.00,105.08
3384.00,105.08
3383.00,105.08
3382.00,105.08
3381.00,105.08
3380.00,105.08
3379.00,105.09
3378.00,105.09
3377.00,105.09
3376.00,105.09
3375.00,105.09
3374.00,105.09
3373.00,105.09
3372.00,105.09
3371.00,105.09
3370.00,105.09
3369.00,105.09
3368.00,105.09
3367.00,105.09
3366.00,105.08
3365.00,105.08
3364.00,105.08
3363.00,105.08
3362.00,105.08
3361.00,105.08
3360.00,105.07
3359.00,105.07
3358.00,105.07
3357.00,105.07
3356.00,105.06
3355.00,105.06
3354.00,105.06
3353.00,105.06
3352.00,105.06
3351.00,105.05
3350.00,105.05
3349.00,105.05
3348.00,105.05
3347.00,105.05
3346.00,105.05
3345.00,105.05
3344.00,105.05
3343.00,105.05
3342.00,105.05
3341.00,105.05
3340.00,105.05
3339.00,105.05
3338.00,105.05
3337.00,105.06
3336.00,105.06
3335.00,105.06
3334.00,105.06
3333.00,105.07
3332.00,105.07
3331.00,105.07
3330.00,105.07
3329.00,105.08
3328.00,105.08
3327.00,105.08
3326.00,105.08
3325.00,105.09
3324.00,105.09
3323.00,105.09
3322.00,105.09
3321.00,105.10
3320.00,105.10
3319.00,105.10
3318.00,105.10
3317.00,105.10
3316.00,105.10
3315.00,105.10
3314.00,105.10
3313.00,105.11
3312.00,105.11
3311.00,105.11
3310.00,105.11
3309.00,105.11
3308.00,105.11
3307.00,105.12
3306.00,105.12
3305.00,105.12
3304.00,105.12
3303.00,105.12
3302.00,105.12
3301.00,105.12
3300.00,105.11
3299.00,105.11
3298.00,105.10
3297.00,105.10
3296.00,105.10
3295.00,105.10
3294.00,105.09
3293.00,105.09
3292.00,105.09
3291.00,105.09
3290.00,105.08
3289.00,105.08
3288.00,105.08
3287.00,105.08
3286.00,105.08
3285.00,105.07
3284.00,105.07
3283.00,105.07
3282.00,105.07
3281.00,105.07
3280.00,105.07
3279.00,105.07
3278.00,105.07
3277.00,105.07
3276.00,105.07
3275.00,105.07
3274.00,105.07
3273.00,105.07
3272.00,105.07
3271.00,105.07
3270.00,105.07
3269.00,105.07
3268.00,105.07
3267.00,105.07
3266.00,105.07
3265.00,105.07
3264.00,105.07
3263.00,105.07
3262.00,105.07
3261.00,105.06
3260.00,105.06
3259.00,105.06
3258.00,105.06
3257.00,105.06
3256.00,105.06
3255.00,105.06
3254.00,105.06
3253.00,105.06
3252.00,105.06
3251.00,105.06
3250.00,105.06
3249.00,105.05
3248.00,105.05
3247.00,105.05
3246.00,105.05
3245.00,105.05
3244.00,105.05
3243.00,105.05
3242.00,105.05
3241.00,105.05
3240.00,105.05
3239.00,105.05
3238.00,105.05
3237.00,105.05
3236.00,105.05
3235.00,105.05
3234.00,105.05
3233.00,105.05
3232.00,105.06
3231.00,105.06
3230.00,105.06
3229.00,105.06
3228.00,105.06
3227.00,105.07
3226.00,105.07
3225.00,105.07
3224.00,105.07
3223.00,105.07
3222.00,105.08
3221.00,105.08
3220.00,105.08
3219.00,105.08
3218.00,105.09
3217.00,105.09
3216.00,105.09
3215.00,105.09
3214.00,105.10
3213.00,105.10
3212.00,105.10
3211.00,105.10
3210.00,105.10
3209.00,105.10
3208.00,105.10
3207.00,105.10
3206.00,105.10
3205.00,105.10
3204.00,105.10
3203.00,105.10
3202.00,105.10
3201.00,105.10
3200.00,105.10
3199.00,105.10
3198.00,105.10
3197.00,105.10
3196.00,105.09
3195.00,105.09
3194.00,105.09
3193.00,105.09
3192.00,105.09
3191.00,105.09
3190.00,105.09
3189.00,105.09
3188.00,105.08
3187.00,105.08
3186.00,105.08
3185.00,105.08
3184.00,105.08
3183.00,105.08
3182.00,105.08
3181.00,105.08
3180.00,105.08
3179.00,105.08
3178.00,105.08
3177.00,105.08
3176.00,105.08
3175.00,105.08
3174.00,105.08
3173.00,105.08
3172.00,105.08
3171.00,105.08
3170.00,105.08
3169.00,105.08
3168.00,105.08
3167.00,105.09
3166.00,105.09
3165.00,105.09
3164.00,105.09
3163.00,105.09
3162.00,105.09
3161.00,105.09
3160.00,105.10
3159.00,105.10
3158.00,105.10
3157.00,105.10
3156.00,105.10
3155.00,105.10
3154.00,105.10
3153.00,105.10
3152.00,105.10
3151.00,105.10
3150.00,105.10
3149.00,105.10
3148.00,105.10
3147.00,105.10
3146.00,105.09
3145.00,105.09
3144.00,105.09
3143.00,105.09
3142.00,105.09
3141.00,105.09
3140.00,105.09
3139.00,105.09
3138.00,105.08
3137.00,105.08
3136.00,105.08
3135.00,105.08
3134.00,105.08
3133.00,105.08
3132.00,105.08
3131.00,105.08
3130.00,105.08
3129.00,105.08
3128.00,105.08
3127.00,105.08
3126.00,105.08
3125.00,105.09
3124.00,105.09
3123.00,105.09
3122.00,105.09
3121.00,105.09
3120.00,105.10
3119.00,105.10
3118.00,105.10
3117.00,105.10
3116.00,105.11
3115.00,105.11
3114.00,105.11
3113.00,105.12
3112.00,105.12
3111.00,105.12
3110.00,105.12
3109.00,105.13
3108.00,105.13
3107.00,105.13
3106.00,105.13
3105.00,105.13
3104.00,105.13
3103.00,105.13
3102.00,105.13
3101.00,105.13
3100.00,105.13
3099.00,105.13
3098.00,105.13
3097.00,105.13
3096.00,105.13
3095.00,105.13
3094.00,105.13
3093.00,105.12
3092.00,105.12
3091.00,105.12
3090.00,105.12
3089.00,105.12
3088.00,105.11
3087.00,105.11
3086.00,105.11
3085.00,105.11
3084.00,105.11
3083.00,105.11
3082.00,105.10
3081.00,105.10
3080.00,105.10
3079.00,105.11
3078.00,105.11
3077.00,105.11
3076.00,105.11
3075.00,105.11
3074.00,105.11
3073.00,105.11
3072.00,105.11
3071.00,105.11
3070.00,105.11
3069.00,105.11
3068.00,105.11
3067.00,105.11
3066.00,105.12
3065.00,105.12
3064.00,105.12
3063.00,105.12
3062.00,105.13
3061.00,105.13
3060.00,105.13
3059.00,105.13
3058.00,105.13
3057.00,105.13
3056.00,105.13
3055.00,105.14
3054.00,105.14
3053.00,105.14
3052.00,105.14
3051.00,105.14
3050.00,105.14
3049.00,105.14
3048.00,105.14
3047.00,105.14
3046.00,105.14
3045.00,105.14
3044.00,105.14
3043.00,105.14
3042.00,105.14
3041.00,105.14
3040.00,105.14
3039.00,105.13
3038.00,105.13
3037.00,105.13
3036.00,105.13
3035.00,105.13
3034.00,105.12
3033.00,105.12
3032.00,105.12
3031.00,105.12
3030.00,105.12
3029.00,105.12
3028.00,105.12
3027.00,105.12
3026.00,105.12
3025.00,105.12
3024.00,105.12
3023.00,105.11
3022.00,105.11
3021.00,105.12
3020.00,105.12
3019.00,105.12
3018.00,105.12
3017.00,105.12
3016.00,105.12
3015.00,105.12
3014.00,105.12
3013.00,105.13
3012.00,105.13
3011.00,105.13
3010.00,105.13
3009.00,105.13
3008.00,105.14
3007.00,105.14
3006.00,105.14
3005.00,105.14
3004.00,105.14
3003.00,105.14
3002.00,105.14
3001.00,105.14
3000.00,105.14
2999.00,105.14
2998.00,105.14
2997.00,105.14
2996.00,105.14
2995.00,105.14
2994.00,105.13
2993.00,105.13
2992.00,105.13
2991.00,105.13
2990.00,105.13
2989.00,105.13
2988.00,105.12
2987.00,105.12
2986.00,105.12
2985.00,105.12
2984.00,105.12
2983.00,105.11
2982.00,105.11
2981.00,105.11
2980.00,105.11
2979.00,105.11
2978.00,105.11
2977.00,105.11
2976.00,105.11
2975.00,105.10
2974.00,105.10
2973.00,105.11
2972.00,105.11
2971.00,105.11
2970.00,105.11
2969.00,105.11
2968.00,105.11
2967.00,105.11
2966.00,105.11
2965.00,105.11
2964.00,105.12
2963.00,105.12
2962.00,105.12
2961.00,105.12
2960.00,105.12
2959.00,105.12
2958.00,105.13
2957.00,105.13
2956.00,105.13
2955.00,105.13
2954.00,105.13
2953.00,105.13
2952.00,105.13
2951.00,105.13
2950.00,105.13
2949.00,105.13
2948.00,105.13
2947.00,105.14
2946.00,105.14
2945.00,105.14
2944.00,105.14
2943.00,105.14
2942.00,105.14
2941.00,105.14
2940.00,105.13
2939.00,105.13
2938.00,105.13
2937.00,105.13
2936.00,105.13
2935.00,105.13
2934.00,105.13
2933.00,105.13
2932.00,105.12
2931.00,105.12
2930.00,105.12
2929.00,105.12
2928.00,105.12
2927.00,105.12
2926.00,105.11
2925.00,105.11
2924.00,105.11
2923.00,105.11
2922.00,105.11
2921.00,105.11
2920.00,105.11
2919.00,105.11
2918.00,105.11
2917.00,105.11
2916.00,105.11
2915.00,105.11
2914.00,105.11
2913.00,105.11
2912.00,105.11
2911.00,105.11
2910.00,105.11
2909.00,105.11
2908.00,105.11
2907.00,105.11
2906.00,105.11
2905.00,105.12
2904.00,105.12
2903.00,105.12
2902.00,105.12
2901.00,105.12
2900.00,105.12
2899.00,105.12
2898.00,105.12
2897.00,105.12
2896.00,105.12
2895.00,105.12
2894.00,105.12
2893.00,105.12
2892.00,105.12
2891.00,105.12
2890.00,105.13
2889.00,105.13
2888.00,105.13
2887.00,105.13
2886.00,105.13
2885.00,105.12
2884.00,105.12
2883.00,105.12
2882.00,105.12
2881.00,105.12
2880.00,105.12
2879.00,105.12
2878.00,105.12
2877.00,105.11
2876.00,105.11
2875.00,105.11
2874.00,105.11
2873.00,105.11
2872.00,105.11
2871.00,105.10
2870.00,105.10
2869.00,105.10
2868.00,105.10
2867.00,105.10
2866.00,105.10
2865.00,105.10
2864.00,105.10
2863.00,105.10
2862.00,105.10
2861.00,105.10
2860.00,105.10
2859.00,105.10
2858.00,105.10
2857.00,105.11
2856.00,105.11
2855.00,105.11
2854.00,105.11
2853.00,105.12
2852.00,105.12
2851.00,105.12
2850.00,105.13
2849.00,105.13
2848.00,105.13
2847.00,105.13
2846.00,105.13
2845.00,105.13
2844.00,105.14
2843.00,105.14
2842.00,105.14
2841.00,105.14
2840.00,105.14
2839.00,105.14
2838.00,105.14
2837.00,105.14
2836.00,105.14
2835.00,105.14
2834.00,105.14
2833.00,105.14
2832.00,105.14
2831.00,105.14
2830.00,105.14
2829.00,105.14
2828.00,105.13
2827.00,105.13
2826.00,105.13
2825.00,105.13
2824.00,105.12
2823.00,105.12
2822.00,105.12
2821.00,105.11
2820.00,105.11
2819.00,105.11
2818.00,105.11
2817.00,105.11
2816.00,105.10
2815.00,105.10
2814.00,105.10
2813.00,105.10
2812.00,105.10
2811.00,105.10
2810.00,105.10
2809.00,105.09
2808.00,105.09
2807.00,105.09
2806.00,105.10
2805.00,105.10
2804.00,105.10
2803.00,105.10
2802.00,105.10
2801.00,105.10
2800.00,105.11
2799.00,105.11
2798.00,105.11
2797.00,105.11
2796.00,105.11
2795.00,105.12
2794.00,105.12
2793.00,105.12
2792.00,105.12
2791.00,105.12
2790.00,105.13
2789.00,105.13
2788.00,105.13
2787.00,105.13
2786.00,105.13
2785.00,105.13
2784.00,105.13
2783.00,105.13
2782.00,105.13
2781.00,105.13
2780.00,105.13
2779.00,105.13
2778.00,105.13
2777.00,105.12
2776.00,105.12
2775.00,105.12
2774.00,105.12
2773.00,105.12
2772.00,105.11
2771.00,105.11
2770.00,105.11
2769.00,105.11
2768.00,105.11
2767.00,105.11
2766.00,105.11
2765.00,105.10
2764.00,105.10
2763.00,105.10
2762.00,105.10
2761.00,105.10
2760.00,105.10
2759.00,105.10
2758.00,105.10
2757.00,105.10
2756.00,105.10
2755.00,105.10
2754.00,105.10
2753.00,105.10
2752.00,105.11
2751.00,105.11
2750.00,105.11
2749.00,105.11
2748.00,105.11
2747.00,105.12
2746.00,105.12
2745.00,105.12
2744.00,105.12
2743.00,105.13
2742.00,105.13
2741.00,105.13
2740.00,105.13
2739.00,105.13
2738.00,105.13
2737.00,105.14
2736.00,105.14
2735.00,105.14
2734.00,105.14
2733.00,105.14
2732.00,105.14
2731.00,105.13
2730.00,105.13
2729.00,105.13
2728.00,105.13
2727.00,105.13
2726.00,105.13
2725.00,105.12
2724.00,105.12
2723.00,105.12
2722.00,105.11
2721.00,105.11
2720.00,105.10
2719.00,105.10
2718.00,105.10
2717.00,105.09
2716.00,105.09
2715.00,105.09
2714.00,105.09
2713.00,105.08
2712.00,105.08
2711.00,105.08
2710.00,105.08
2709.00,105.08
2708.00,105.08
2707.00,105.07
2706.00,105.07
2705.00,105.07
2704.00,105.07
2703.00,105.08
2702.00,105.08
2701.00,105.08
2700.00,105.08
2699.00,105.08
2698.00,105.08
2697.00,105.08
2696.00,105.09
2695.00,105.09
2694.00,105.09
2693.00,105.09
2692.00,105.09
2691.00,105.10
2690.00,105.10
2689.00,105.10
2688.00,105.10
2687.00,105.11
2686.00,105.11
2685.00,105.11
2684.00,105.11
2683.00,105.12
2682.00,105.12
2681.00,105.12
2680.00,105.12
2679.00,105.12
2678.00,105.12
2677.00,105.12
2676.00,105.12
2675.00,105.12
2674.00,105.12
2673.00,105.12
2672.00,105.12
2671.00,105.12
2670.00,105.11
2669.00,105.11
2668.00,105.11
2667.00,105.11
2666.00,105.11
2665.00,105.10
2664.00,105.10
2663.00,105.10
2662.00,105.10
2661.00,105.09
2660.00,105.09
2659.00,105.09
2658.00,105.09
2657.00,105.08
2656.00,105.08
2655.00,105.08
2654.00,105.08
2653.00,105.08
2652.00,105.08
2651.00,105.08
2650.00,105.08
2649.00,105.08
2648.00,105.08
2647.00,105.08
2646.00,105.08
2645.00,105.08
2644.00,105.08
2643.00,105.08
2642.00,105.08
2641.00,105.08
2640.00,105.09
2639.00,105.09
2638.00,105.09
2637.00,105.09
2636.00,105.09
2635.00,105.09
2634.00,105.09
2633.00,105.09
2632.00,105.09
2631.00,105.10
2630.00,105.10
2629.00,105.10
2628.00,105.10
2627.00,105.10
2626.00,105.10
2625.00,105.10
2624.00,105.10
2623.00,105.09
2622.00,105.09
2621.00,105.09
2620.00,105.09
2619.00,105.09
2618.00,105.09
2617.00,105.09
2616.00,105.09
2615.00,105.09
2614.00,105.09
2613.00,105.09
2612.00,105.08
2611.00,105.08
2610.00,105.08
2609.00,105.08
2608.00,105.08
2607.00,105.08
2606.00,105.08
2605.00,105.08
2604.00,105.07
2603.00,105.07
2602.00,105.07
2601.00,105.07
2600.00,105.07
2599.00,105.07
2598.00,105.07
2597.00,105.07
2596.00,105.07
2595.00,105.08
2594.00,105.08
2593.00,105.08
2592.00,105.08
2591.00,105.08
2590.00,105.08
2589.00,105.08
2588.00,105.09
2587.00,105.09
2586.00,105.09
2585.00,105.10
2584.00,105.10
2583.00,105.10
2582.00,105.10
2581.00,105.10
2580.00,105.11
2579.00,105.11
2578.00,105.11
2577.00,105.11
2576.00,105.11
2575.00,105.11
2574.00,105.11
2573.00,105.11
2572.00,105.11
2571.00,105.11
2570.00,105.11
2569.00,105.11
2568.00,105.11
2567.00,105.11
2566.00,105.11
2565.00,105.11
2564.00,105.10
2563.00,105.10
2562.00,105.10
2561.00,105.10
2560.00,105.10
2559.00,105.09
2558.00,105.09
2557.00,105.09
2556.00,105.08
2555.00,105.08
2554.00,105.08
2553.00,105.08
2552.00,105.07
2551.00,105.07
2550.00,105.07
2549.00,105.07
2548.00,105.06
2547.00,105.06
2546.00,105.06
2545.00,105.06
2544.00,105.06
2543.00,105.05
2542.00,105.05
2541.00,105.05
2540.00,105.05
2539.00,105.05
2538.00,105.06
2537.00,105.06
2536.00,105.06
2535.00,105.06
2534.00,105.06
2533.00,105.06
2532.00,105.06
2531.00,105.07
2530.00,105.07
2529.00,105.07
2528.00,105.07
2527.00,105.07
2526.00,105.08
2525.00,105.08
2524.00,105.08
2523.00,105.08
2522.00,105.08
2521.00,105.08
2520.00,105.08
2519.00,105.08
2518.00,105.08
2517.00,105.08
2516.00,105.08
2515.00,105.08
2514.00,105.08
2513.00,105.07
2512.00,105.07
2511.00,105.07
2510.00,105.07
2509.00,105.06
2508.00,105.06
2507.00,105.06
2506.00,105.06
2505.00,105.05
2504.00,105.05
2503.00,105.05
2502.00,105.05
2501.00,105.05
2500.00,105.04
2499.00,105.04
2498.00,105.04
2497.00,105.04
2496.00,105.04
2495.00,105.04
2494.00,105.03
2493.00,105.03
2492.00,105.03
2491.00,105.03
2490.00,105.03
2489.00,105.03
2488.00,105.04
2487.00,105.04
2486.00,105.04
2485.00,105.04
2484.00,105.04
2483.00,105.04
2482.00,105.04
2481.00,105.04
2480.00,105.05
2479.00,105.05
2478.00,105.05
2477.00,105.05
2476.00,105.05
2475.00,105.06
2474.00,105.06
2473.00,105.06
2472.00,105.06
2471.00,105.06
2470.00,105.06
2469.00,105.06
2468.00,105.06
2467.00,105.06
2466.00,105.06
2465.00,105.06
2464.00,105.06
2463.00,105.06
2462.00,105.06
2461.00,105.06
2460.00,105.06
2459.00,105.05
2458.00,105.05
2457.00,105.05
2456.00,105.04
2455.00,105.04
2454.00,105.04
2453.00,105.04
2452.00,105.03
2451.00,105.03
2450.00,105.03
2449.00,105.02
2448.00,105.02
2447.00,105.02
2446.00,105.02
2445.00,105.02
2444.00,105.02
2443.00,105.02
2442.00,105.02
2441.00,105.02
2440.00,105.02
2439.00,105.02
2438.00,105.02
2437.00,105.02
2436.00,105.02
2435.00,105.02
2434.00,105.03
2433.00,105.03
2432.00,105.03
2431.00,105.04
2430.00,105.04
2429.00,105.04
2428.00,105.05
2427.00,105.05
2426.00,105.05
2425.00,105.06
2424.00,105.06
2423.00,105.07
2422.00,105.07
2421.00,105.07
2420.00,105.08
2419.00,105.08
2418.00,105.08
2417.00,105.08
2416.00,105.09
2415.00,105.09
2414.00,105.09
2413.00,105.09
2412.00,105.09
2411.00,105.09
2410.00,105.09
2409.00,105.09
2408.00,105.08
2407.00,105.08
2406.00,105.08
2405.00,105.08
2404.00,105.08
2403.00,105.08
2402.00,105.07
2401.00,105.07
2400.00,105.07
2399.00,105.06
2398.00,105.06
2397.00,105.06
2396.00,105.06
2395.00,105.06
2394.00,105.05
2393.00,105.05
2392.00,105.05
2391.00,105.05
2390.00,105.05
2389.00,105.04
2388.00,105.04
2387.00,105.04
2386.00,105.03
2385.00,105.03
2384.00,105.02
2383.00,105.02
2382.00,105.02
2381.00,105.01
2380.00,105.01
2379.00,105.01
2378.00,105.01
2377.00,105.01
2376.00,105.01
2375.00,105.01
2374.00,105.01
2373.00,105.01
2372.00,105.01
2371.00,105.00
2370.00,105.00
2369.00,105.00
2368.00,104.99
2367.00,104.99
2366.00,104.99
2365.00,104.99
2364.00,104.99
2363.00,104.99
2362.00,104.99
2361.00,104.98
2360.00,104.98
2359.00,104.98
2358.00,104.98
2357.00,104.98
2356.00,104.97
2355.00,104.97
2354.00,104.97
2353.00,104.98
2352.00,104.98
2351.00,104.99
2350.00,104.98
2349.00,104.97
2348.00,104.96
2347.00,104.95
2346.00,104.95
2345.00,104.96
2344.00,104.97
2343.00,104.97
2342.00,104.96
2341.00,104.96
2340.00,104.96
2339.00,104.96
2338.00,104.97
2337.00,104.97
2336.00,104.97
2335.00,104.97
2334.00,104.96
2333.00,104.96
2332.00,104.96
2331.00,104.97
2330.00,104.97
2329.00,104.97
2328.00,104.97
2327.00,104.97
2326.00,104.96
2325.00,104.96
2324.00,104.96
2323.00,104.96
2322.00,104.97
2321.00,104.97
2320.00,104.98
2319.00,104.98
2318.00,104.98
2317.00,104.98
2316.00,104.99
2315.00,104.99
2314.00,104.99
2313.00,105.00
2312.00,105.00
2311.00,105.00
2310.00,105.01
2309.00,105.01
2308.00,105.02
2307.00,105.02
2306.00,105.02
2305.00,105.03
2304.00,105.03
2303.00,105.03
2302.00,105.03
2301.00,105.03
2300.00,105.03
2299.00,105.03
2298.00,105.03
2297.00,105.03
2296.00,105.03
2295.00,105.03
2294.00,105.03
2293.00,105.03
2292.00,105.03
2291.00,105.03
2290.00,105.03
2289.00,105.03
2288.00,105.02
2287.00,105.02
2286.00,105.02
2285.00,105.02
2284.00,105.02
2283.00,105.02
2282.00,105.01
2281.00,105.01
2280.00,105.01
2279.00,105.01
2278.00,105.01
2277.00,105.01
2276.00,105.01
2275.00,105.01
2274.00,105.01
2273.00,105.01
2272.00,105.01
2271.00,105.01
2270.00,105.01
2269.00,105.02
2268.00,105.02
2267.00,105.02
2266.00,105.02
2265.00,105.02
2264.00,105.03
2263.00,105.03
2262.00,105.03
2261.00,105.03
2260.00,105.03
2259.00,105.04
2258.00,105.04
2257.00,105.04
2256.00,105.04
2255.00,105.04
2254.00,105.04
2253.00,105.04
2252.00,105.04
2251.00,105.04
2250.00,105.04
2249.00,105.04
2248.00,105.04
2247.00,105.04
2246.00,105.04
2245.00,105.04
2244.00,105.03
2243.00,105.03
2242.00,105.03
2241.00,105.03
2240.00,105.02
2239.00,105.02
2238.00,105.02
2237.00,105.02
2236.00,105.01
2235.00,105.01
2234.00,105.01
2233.00,105.01
2232.00,105.00
2231.00,105.00
2230.00,105.00
2229.00,105.00
2228.00,105.00
2227.00,105.00
2226.00,105.00
2225.00,105.00
2224.00,105.00
2223.00,105.00
2222.00,105.00
2221.00,105.00
2220.00,105.00
2219.00,105.00
2218.00,105.00
2217.00,105.00
2216.00,105.01
2215.00,105.01
2214.00,105.01
2213.00,105.01
2212.00,105.01
2211.00,105.02
2210.00,105.02
2209.00,105.02
2208.00,105.02
2207.00,105.02
2206.00,105.03
2205.00,105.03
2204.00,105.03
2203.00,105.03
2202.00,105.03
2201.00,105.03
2200.00,105.03
2199.00,105.03
2198.00,105.02
2197.00,105.02
2196.00,105.02
2195.00,105.02
2194.00,105.02
2193.00,105.01
2192.00,105.01
2191.00,105.01
2190.00,105.00
2189.00,105.00
2188.00,104.99
2187.00,104.99
2186.00,104.98
2185.00,104.98
2184.00,104.98
2183.00,104.98
2182.00,104.97
2181.00,104.97
2180.00,104.97
2179.00,104.96
2178.00,104.96
2177.00,104.96
2176.00,104.96
2175.00,104.96
2174.00,104.96
2173.00,104.96
2172.00,104.96
2171.00,104.96
2170.00,104.97
2169.00,104.97
2168.00,104.97
2167.00,104.97
2166.00,104.97
2165.00,104.98
2164.00,104.98
2163.00,104.98
2162.00,104.99
2161.00,104.99
2160.00,104.99
2159.00,105.00
2158.00,105.00
2157.00,105.00
2156.00,105.01
2155.00,105.01
2154.00,105.01
2153.00,105.01
2152.00,105.01
2151.00,105.01
2150.00,105.01
2149.00,105.02
2148.00,105.02
2147.00,105.02
2146.00,105.02
2145.00,105.02
2144.00,105.01
2143.00,105.01
2142.00,105.01
2141.00,105.01
2140.00,105.01
2139.00,105.01
2138.00,105.00
2137.00,105.00
2136.00,105.00
2135.00,105.00
2134.00,104.99
2133.00,104.99
2132.00,104.99
2131.00,104.98
2130.00,104.98
2129.00,104.98
2128.00,104.98
2127.00,104.97
2126.00,104.97
2125.00,104.97
2124.00,104.97
2123.00,104.97
2122.00,104.97
2121.00,104.97
2120.00,104.97
2119.00,104.97
2118.00,104.97
2117.00,104.97
2116.00,104.97
2115.00,104.97
2114.00,104.98
2113.00,104.98
2112.00,104.98
2111.00,104.98
2110.00,104.98
2109.00,104.98
2108.00,104.99
2107.00,104.99
2106.00,104.99
2105.00,104.99
2104.00,104.99
2103.00,104.99
2102.00,105.00
2101.00,105.00
2100.00,105.00
2099.00,105.00
2098.00,105.00
2097.00,105.00
2096.00,105.00
2095.00,105.00
2094.00,105.00
2093.00,105.00
2092.00,105.00
2091.00,105.00
2090.00,105.00
2089.00,105.00
2088.00,105.00
2087.00,104.99
2086.00,104.99
2085.00,104.99
2084.00,104.99
2083.00,104.99
2082.00,104.99
2081.00,104.98
2080.00,104.98
2079.00,104.98
2078.00,104.98
2077.00,104.98
2076.00,104.98
2075.00,104.98
2074.00,104.97
2073.00,104.97
2072.00,104.97
2071.00,104.97
2070.00,104.97
2069.00,104.96
2068.00,104.96
2067.00,104.96
2066.00,104.96
2065.00,104.96
2064.00,104.97
2063.00,104.97
2062.00,104.97
2061.00,104.97
2060.00,104.97
2059.00,104.97
2058.00,104.97
2057.00,104.98
2056.00,104.98
2055.00,104.98
2054.00,104.98
2053.00,104.98
2052.00,104.99
2051.00,104.99
2050.00,104.99
2049.00,104.99
2048.00,105.00
2047.00,105.00
2046.00,105.00
2045.00,105.00
2044.00,105.01
2043.00,105.01
2042.00,105.01
2041.00,105.01
2040.00,105.01
2039.00,105.01
2038.00,105.01
2037.00,105.01
2036.00,105.01
2035.00,105.01
2034.00,105.01
2033.00,105.01
2032.00,105.01
2031.00,105.01
2030.00,105.01
2029.00,105.00
2028.00,105.00
2027.00,105.00
2026.00,104.99
2025.00,104.99
2024.00,104.99
2023.00,104.99
2022.00,104.98
2021.00,104.98
2020.00,104.98
2019.00,104.98
2018.00,104.97
2017.00,104.97
2016.00,104.97
2015.00,104.97
2014.00,104.96
2013.00,104.96
2012.00,104.96
2011.00,104.96
2010.00,104.96
2009.00,104.96
2008.00,104.96
2007.00,104.97
2006.00,104.97
2005.00,104.97
2004.00,104.97
2003.00,104.98
2002.00,104.98
2001.00,104.98
2000.00,104.99
1999.00,104.99
1998.00,105.00
1997.00,105.00
1996.00,105.00
1995.00,105.01
1994.00,105.01
1993.00,105.02
1992.00,105.02
1991.00,105.02
1990.00,105.03
1989.00,105.03
1988.00,105.03
1987.00,105.03
1986.00,105.03
1985.00,105.04
1984.00,105.04
1983.00,105.04
1982.00,105.04
1981.00,105.04
1980.00,105.04
1979.00,105.04
1978.00,105.04
1977.00,105.04
1976.00,105.03
1975.00,105.03
1974.00,105.03
1973.00,105.03
1972.00,105.02
1971.00,105.02
1970.00,105.02
1969.00,105.01
1968.00,105.01
1967.00,105.01
1966.00,105.01
1965.00,105.00
1964.00,105.00
1963.00,105.00
1962.00,105.00
1961.00,105.01
1960.00,105.01
1959.00,105.01
1958.00,105.01
1957.00,105.01
1956.00,105.02
1955.00,105.02
1954.00,105.03
1953.00,105.03
1952.00,105.04
1951.00,105.04
1950.00,105.05
1949.00,105.05
1948.00,105.05
1947.00,105.06
1946.00,105.06
1945.00,105.06
1944.00,105.07
1943.00,105.07
1942.00,105.07
1941.00,105.07
1940.00,105.07
1939.00,105.06
1938.00,105.06
1937.00,105.06
1936.00,105.06
1935.00,105.06
1934.00,105.05
1933.00,105.05
1932.00,105.05
1931.00,105.04
1930.00,105.04
1929.00,105.03
1928.00,105.03
1927.00,105.03
1926.00,105.02
1925.00,105.02
1924.00,105.02
1923.00,105.02
1922.00,105.01
1921.00,105.01
1920.00,105.01
1919.00,105.00
1918.00,105.00
1917.00,105.00
1916.00,105.00
1915.00,104.99
1914.00,104.99
1913.00,104.99
1912.00,104.99
1911.00,104.99
1910.00,104.99
1909.00,104.99
1908.00,104.99
1907.00,104.98
1906.00,104.98
1905.00,104.98
1904.00,104.98
1903.00,104.99
1902.00,104.99
1901.00,104.99
1900.00,104.99
1899.00,104.99
1898.00,104.99
1897.00,105.00
1896.00,105.00
1895.00,105.00
1894.00,105.01
1893.00,105.01
1892.00,105.01
1891.00,105.02
1890.00,105.02
1889.00,105.02
1888.00,105.03
1887.00,105.03
1886.00,105.03
1885.00,105.03
1884.00,105.04
1883.00,105.04
1882.00,105.04
1881.00,105.04
1880.00,105.05
1879.00,105.05
1878.00,105.05
1877.00,105.05
1876.00,105.05
1875.00,105.05
1874.00,105.05
1873.00,105.05
1872.00,105.04
1871.00,105.04
1870.00,105.04
1869.00,105.04
1868.00,105.04
1867.00,105.03
1866.00,105.03
1865.00,105.03
1864.00,105.02
1863.00,105.02
1862.00,105.02
1861.00,105.02
1860.00,105.02
1859.00,105.02
1858.00,105.02
1857.00,105.02
1856.00,105.02
1855.00,105.02
1854.00,105.03
1853.00,105.03
1852.00,105.03
1851.00,105.03
1850.00,105.04
1849.00,105.04
1848.00,105.04
1847.00,105.05
1846.00,105.05
1845.00,105.05
1844.00,105.06
1843.00,105.06
1842.00,105.06
1841.00,105.06
1840.00,105.06
1839.00,105.06
1838.00,105.07
1837.00,105.07
1836.00,105.07
1835.00,105.07
1834.00,105.07
1833.00,105.07
1832.00,105.07
1831.00,105.08
1830.00,105.08
1829.00,105.08
1828.00,105.08
1827.00,105.08
1826.00,105.07
1825.00,105.08
1824.00,105.08
1823.00,105.08
1822.00,105.08
1821.00,105.08
1820.00,105.08
1819.00,105.08
1818.00,105.08
1817.00,105.08
1816.00,105.08
1815.00,105.08
1814.00,105.07
1813.00,105.07
1812.00,105.07
1811.00,105.07
1810.00,105.07
1809.00,105.07
1808.00,105.07
1807.00,105.07
1806.00,105.07
1805.00,105.07
1804.00,105.07
1803.00,105.07
1802.00,105.07
1801.00,105.07
1800.00,105.07
1799.00,105.07
1798.00,105.07
1797.00,105.07
1796.00,105.07
1795.00,105.08
1794.00,105.08
1793.00,105.08
1792.00,105.09
1791.00,105.09
1790.00,105.09
1789.00,105.09
1788.00,105.10
1787.00,105.10
1786.00,105.11
1785.00,105.11
1784.00,105.11
1783.00,105.12
1782.00,105.12
1781.00,105.12
1780.00,105.12
1779.00,105.13
1778.00,105.13
1777.00,105.13
1776.00,105.13
1775.00,105.13
1774.00,105.13
1773.00,105.12
1772.00,105.12
1771.00,105.12
1770.00,105.12
1769.00,105.12
1768.00,105.11
1767.00,105.11
1766.00,105.11
1765.00,105.11
1764.00,105.11
1763.00,105.11
1762.00,105.11
1761.00,105.10
1760.00,105.10
1759.00,105.09
1758.00,105.09
1757.00,105.08
1756.00,105.08
1755.00,105.08
1754.00,105.07
1753.00,105.06
1752.00,105.06
1751.00,105.06
1750.00,105.06
1749.00,105.06
1748.00,105.06
1747.00,105.06
1746.00,105.06
1745.00,105.06
1744.00,105.07
1743.00,105.07
1742.00,105.07
1741.00,105.08
1740.00,105.08
1739.00,105.08
1738.00,105.08
1737.00,105.08
1736.00,105.08
1735.00,105.08
1734.00,105.08
1733.00,105.08
1732.00,105.08
1731.00,105.09
1730.00,105.09
1729.00,105.10
1728.00,105.10
1727.00,105.11
1726.00,105.11
1725.00,105.11
1724.00,105.11
1723.00,105.11
1722.00,105.12
1721.00,105.11
1720.00,105.11
1719.00,105.11
1718.00,105.11
1717.00,105.10
1716.00,105.10
1715.00,105.10
1714.00,105.10
1713.00,105.10
1712.00,105.10
1711.00,105.10
1710.00,105.10
1709.00,105.10
1708.00,105.10
1707.00,105.09
1706.00,105.09
1705.00,105.09
1704.00,105.09
1703.00,105.09
1702.00,105.08
1701.00,105.07
1700.00,105.07
1699.00,105.07
1698.00,105.07
1697.00,105.06
1696.00,105.06
1695.00,105.07
1694.00,105.07
1693.00,105.07
1692.00,105.07
1691.00,105.07
1690.00,105.08
1689.00,105.08
1688.00,105.08
1687.00,105.08
1686.00,105.08
1685.00,105.08
1684.00,105.09
1683.00,105.09
1682.00,105.09
1681.00,105.09
1680.00,105.09
1679.00,105.09
1678.00,105.10
1677.00,105.10
1676.00,105.10
1675.00,105.10
1674.00,105.10
1673.00,105.10
1672.00,105.10
1671.00,105.09
1670.00,105.10
1669.00,105.10
1668.00,105.10
1667.00,105.10
1666.00,105.10
1665.00,105.10
1664.00,105.10
1663.00,105.10
1662.00,105.10
1661.00,105.10
1660.00,105.09
1659.00,105.09
1658.00,105.09
1657.00,105.09
1656.00,105.09
1655.00,105.09
1654.00,105.08
1653.00,105.08
1652.00,105.07
1651.00,105.06
1650.00,105.06
1649.00,105.06
1648.00,105.06
1647.00,105.06
1646.00,105.06
1645.00,105.06
1644.00,105.06
1643.00,105.06
1642.00,105.06
1641.00,105.06
1640.00,105.06
1639.00,105.07
1638.00,105.07
1637.00,105.07
1636.00,105.07
1635.00,105.07
1634.00,105.07
1633.00,105.07
1632.00,105.08
1631.00,105.08
1630.00,105.08
1629.00,105.09
1628.00,105.09
1627.00,105.09
1626.00,105.09
1625.00,105.09
1624.00,105.09
1623.00,105.09
1622.00,105.10
1621.00,105.10
1620.00,105.10
1619.00,105.10
1618.00,105.10
1617.00,105.10
1616.00,105.10
1615.00,105.10
1614.00,105.10
1613.00,105.10
1612.00,105.10
1611.00,105.10
1610.00,105.10
1609.00,105.10
1608.00,105.10
1607.00,105.10
1606.00,105.10
1605.00,105.10
1604.00,105.10
1603.00,105.10
1602.00,105.10
1601.00,105.10
1600.00,105.09
1599.00,105.09
1598.00,105.09
1597.00,105.09
1596.00,105.09
1595.00,105.08
1594.00,105.08
1593.00,105.08
1592.00,105.08
1591.00,105.08
1590.00,105.07
1589.00,105.07
1588.00,105.07
1587.00,105.07
1586.00,105.08
1585.00,105.08
1584.00,105.08
1583.00,105.08
1582.00,105.08
1581.00,105.08
1580.00,105.09
1579.00,105.09
1578.00,105.09
1577.00,105.10
1576.00,105.10
1575.00,105.10
1574.00,105.10
1573.00,105.10
1572.00,105.10
1571.00,105.11
1570.00,105.11
1569.00,105.11
1568.00,105.11
1567.00,105.11
1566.00,105.11
1565.00,105.11
1564.00,105.11
1563.00,105.12
1562.00,105.12
1561.00,105.11
1560.00,105.11
1559.00,105.10
1558.00,105.10
1557.00,105.10
1556.00,105.09
1555.00,105.09
1554.00,105.09
1553.00,105.09
1552.00,105.09
1551.00,105.09
1550.00,105.09
1549.00,105.09
1548.00,105.09
1547.00,105.09
1546.00,105.08
1545.00,105.08
1544.00,105.08
1543.00,105.09
1542.00,105.08
1541.00,105.08
1540.00,105.08
1539.00,105.08
1538.00,105.08
1537.00,105.08
1536.00,105.08
1535.00,105.08
1534.00,105.08
1533.00,105.08
1532.00,105.08
1531.00,105.08
1530.00,105.08
1529.00,105.08
1528.00,105.08
1527.00,105.08
1526.00,105.08
1525.00,105.08
1524.00,105.08
1523.00,105.08
1522.00,105.08
1521.00,105.09
1520.00,105.09
1519.00,105.09
1518.00,105.09
1517.00,105.09
1516.00,105.10
1515.00,105.10
1514.00,105.10
1513.00,105.10
1512.00,105.10
1511.00,105.10
1510.00,105.10
1509.00,105.10
1508.00,105.10
1507.00,105.10
1506.00,105.10
1505.00,105.09
1504.00,105.09
1503.00,105.09
1502.00,105.09
1501.00,105.09
1500.00,105.09
1499.00,105.08
1498.00,105.07
1497.00,105.06
1496.00,105.05
1495.00,105.05
1494.00,105.05
1493.00,105.05
1492.00,105.05
1491.00,105.05
1490.00,105.05
1489.00,105.06
1488.00,105.06
1487.00,105.06
1486.00,105.06
1485.00,105.07
1484.00,105.07
1483.00,105.07
1482.00,105.07
1481.00,105.07
1480.00,105.08
1479.00,105.08
1478.00,105.07
1477.00,105.08
1476.00,105.08
1475.00,105.08
1474.00,105.08
1473.00,105.08
1472.00,105.08
1471.00,105.09
1470.00,105.09
1469.00,105.09
1468.00,105.10
1467.00,105.10
1466.00,105.10
1465.00,105.10
1464.00,105.11
1463.00,105.11
1462.00,105.11
1461.00,105.11
1460.00,105.11
1459.00,105.11
1458.00,105.11
1457.00,105.10
1456.00,105.09
1455.00,105.09
1454.00,105.09
1453.00,105.09
1452.00,105.09
1451.00,105.10
1450.00,105.10
1449.00,105.10
1448.00,105.10
1447.00,105.10
1446.00,105.10
1445.00,105.10
1444.00,105.10
1443.00,105.10
1442.00,105.09
1441.00,105.09
1440.00,105.09
1439.00,105.08
1438.00,105.08
1437.00,105.07
1436.00,105.07
1435.00,105.07
1434.00,105.07
1433.00,105.07
1432.00,105.07
1431.00,105.07
1430.00,105.07
1429.00,105.07
1428.00,105.07
1427.00,105.07
1426.00,105.07
1425.00,105.07
1424.00,105.07
1423.00,105.07
1422.00,105.07
1421.00,105.07
1420.00,105.07
1419.00,105.08
1418.00,105.08
1417.00,105.08
1416.00,105.08
1415.00,105.09
1414.00,105.10
1413.00,105.10
1412.00,105.10
1411.00,105.10
1410.00,105.10
1409.00,105.11
1408.00,105.10
1407.00,105.10
1406.00,105.10
1405.00,105.10
1404.00,105.10
1403.00,105.10
1402.00,105.10
1401.00,105.10
1400.00,105.10
1399.00,105.10
1398.00,105.10
1397.00,105.10
1396.00,105.10
1395.00,105.10
1394.00,105.11
1393.00,105.11
1392.00,105.10
1391.00,105.10
1390.00,105.10
1389.00,105.10
1388.00,105.10
1387.00,105.09
1386.00,105.09
1385.00,105.09
1384.00,105.09
1383.00,105.08
1382.00,105.08
1381.00,105.08
1380.00,105.08
1379.00,105.08
1378.00,105.08
1377.00,105.08
1376.00,105.08
1375.00,105.07
1374.00,105.07
1373.00,105.08
1372.00,105.08
1371.00,105.08
1370.00,105.08
1369.00,105.08
1368.00,105.08
1367.00,105.08
1366.00,105.08
1365.00,105.08
1364.00,105.09
1363.00,105.09
1362.00,105.09
1361.00,105.09
1360.00,105.09
1359.00,105.09
1358.00,105.09
1357.00,105.09
1356.00,105.10
1355.00,105.10
1354.00,105.10
1353.00,105.10
1352.00,105.10
1351.00,105.10
1350.00,105.10
1349.00,105.10
1348.00,105.10
1347.00,105.10
1346.00,105.10
1345.00,105.10
1344.00,105.10
1343.00,105.10
1342.00,105.10
1341.00,105.09
1340.00,105.09
1339.00,105.09
1338.00,105.09
1337.00,105.09
1336.00,105.09
1335.00,105.08
1334.00,105.08
1333.00,105.08
1332.00,105.08
1331.00,105.08
1330.00,105.07
1329.00,105.07
1328.00,105.07
1327.00,105.07
1326.00,105.07
1325.00,105.07
1324.00,105.07
1323.00,105.07
1322.00,105.07
1321.00,105.07
1320.00,105.07
1319.00,105.07
1318.00,105.07
1317.00,105.07
1316.00,105.07
1315.00,105.07
1314.00,105.07
1313.00,105.07
1312.00,105.08
1311.00,105.08
1310.00,105.08
1309.00,105.08
1308.00,105.09
1307.00,105.09
1306.00,105.09
1305.00,105.09
1304.00,105.09
1303.00,105.09
1302.00,105.09
1301.00,105.10
1300.00,105.10
1299.00,105.10
1298.00,105.10
1297.00,105.10
1296.00,105.10
1295.00,105.10
1294.00,105.10
1293.00,105.09
1292.00,105.09
1291.00,105.09
1290.00,105.09
1289.00,105.09
1288.00,105.08
1287.00,105.08
1286.00,105.08
1285.00,105.07
1284.00,105.07
1283.00,105.07
1282.00,105.06
1281.00,105.06
1280.00,105.06
1279.00,105.06
1278.00,105.05
1277.00,105.05
1276.00,105.05
1275.00,105.05
1274.00,105.05
1273.00,105.04
1272.00,105.04
1271.00,105.04
1270.00,105.04
1269.00,105.04
1268.00,105.04
1267.00,105.04
1266.00,105.04
1265.00,105.04
1264.00,105.04
1263.00,105.04
1262.00,105.05
1261.00,105.05
1260.00,105.05
1259.00,105.05
1258.00,105.06
1257.00,105.06
1256.00,105.06
1255.00,105.06
1254.00,105.06
1253.00,105.06
1252.00,105.07
1251.00,105.07
1250.00,105.07
1249.00,105.07
1248.00,105.07
1247.00,105.07
1246.00,105.07
1245.00,105.08
1244.00,105.08
1243.00,105.08
1242.00,105.08
1241.00,105.08
1240.00,105.08
1239.00,105.07
1238.00,105.07
1237.00,105.07
1236.00,105.07
1235.00,105.07
1234.00,105.06
1233.00,105.06
1232.00,105.06
1231.00,105.06
1230.00,105.05
1229.00,105.05
1228.00,105.04
1227.00,105.04
1226.00,105.04
1225.00,105.04
1224.00,105.03
1223.00,105.03
1222.00,105.03
1221.00,105.03
1220.00,105.03
1219.00,105.02
1218.00,105.02
1217.00,105.02
1216.00,105.02
1215.00,105.02
1214.00,105.02
1213.00,105.02
1212.00,105.01
1211.00,105.01
1210.00,105.01
1209.00,105.01
1208.00,105.02
1207.00,105.02
1206.00,105.02
1205.00,105.02
1204.00,105.02
1203.00,105.02
1202.00,105.03
1201.00,105.03
1200.00,105.03
1199.00,105.03
1198.00,105.04
1197.00,105.04
1196.00,105.04
1195.00,105.04
1194.00,105.04
1193.00,105.04
1192.00,105.05
1191.00,105.05
1190.00,105.05
1189.00,105.05
1188.00,105.05
1187.00,105.05
1186.00,105.05
1185.00,105.05
1184.00,105.05
1183.00,105.05
1182.00,105.04
1181.00,105.04
1180.00,105.04
1179.00,105.04
1178.00,105.03
1177.00,105.03
1176.00,105.03
1175.00,105.03
1174.00,105.02
1173.00,105.02
1172.00,105.02
1171.00,105.02
1170.00,105.02
1169.00,105.02
1168.00,105.01
1167.00,105.01
1166.00,105.01
1165.00,105.01
1164.00,105.01
1163.00,105.01
1162.00,105.01
1161.00,105.01
1160.00,105.01
1159.00,105.00
1158.00,105.01
1157.00,105.01
1156.00,105.01
1155.00,105.01
1154.00,105.01
1153.00,105.01
1152.00,105.01
1151.00,105.02
1150.00,105.02
1149.00,105.02
1148.00,105.02
1147.00,105.02
1146.00,105.02
1145.00,105.03
1144.00,105.03
1143.00,105.03
1142.00,105.03
1141.00,105.04
1140.00,105.04
1139.00,105.04
1138.00,105.04
1137.00,105.04
1136.00,105.04
1135.00,105.04
1134.00,105.04
1133.00,105.04
1132.00,105.04
1131.00,105.04
1130.00,105.04
1129.00,105.04
1128.00,105.04
1127.00,105.04
1126.00,105.03
1125.00,105.03
1124.00,105.03
1123.00,105.03
1122.00,105.03
1121.00,105.03
1120.00,105.02
1119.00,105.02
1118.00,105.02
1117.00,105.02
1116.00,105.02
1115.00,105.01
1114.00,105.01
1113.00,105.01
1112.00,105.01
1111.00,105.01
1110.00,105.01
1109.00,105.01
1108.00,105.01
1107.00,105.02
1106.00,105.02
1105.00,105.02
1104.00,105.02
1103.00,105.02
1102.00,105.02
1101.00,105.02
1100.00,105.03
1099.00,105.03
1098.00,105.03
1097.00,105.04
1096.00,105.04
1095.00,105.04
1094.00,105.04
1093.00,105.04
1092.00,105.05
1091.00,105.05
1090.00,105.05
1089.00,105.05
1088.00,105.05
1087.00,105.06
1086.00,105.06
1085.00,105.06
1084.00,105.06
1083.00,105.06
1082.00,105.06
1081.00,105.06
1080.00,105.06
1079.00,105.06
1078.00,105.06
1077.00,105.05
1076.00,105.05
1075.00,105.05
1074.00,105.05
1073.00,105.05
1072.00,105.05
1071.00,105.05
1070.00,105.05
1069.00,105.04
1068.00,105.04
1067.00,105.04
1066.00,105.04
1065.00,105.04
1064.00,105.04
1063.00,105.04
1062.00,105.04
1061.00,105.03
1060.00,105.03
1059.00,105.03
1058.00,105.03
1057.00,105.03
1056.00,105.03
1055.00,105.03
1054.00,105.03
1053.00,105.03
1052.00,105.02
1051.00,105.02
1050.00,105.02
1049.00,105.02
1048.00,105.03
1047.00,105.04
1046.00,105.04
1045.00,105.05
1044.00,105.05
1043.00,105.06
1042.00,105.06
1041.00,105.06
1040.00,105.07
1039.00,105.07
1038.00,105.07
1037.00,105.07
1036.00,105.08
1035.00,105.08
1034.00,105.08
1033.00,105.08
1032.00,105.08
1031.00,105.08
1030.00,105.09
1029.00,105.09
1028.00,105.09
1027.00,105.09
1026.00,105.09
1025.00,105.09
1024.00,105.09
1023.00,105.09
1022.00,105.09
1021.00,105.09
1020.00,105.09
1019.00,105.09
1018.00,105.09
1017.00,105.09
1016.00,105.09
1015.00,105.09
1014.00,105.09
1013.00,105.09
1012.00,105.09
1011.00,105.09
1010.00,105.08
1009.00,105.08
1008.00,105.08
1007.00,105.08
1006.00,105.08
1005.00,105.08
1004.00,105.08
1003.00,105.08
1002.00,105.08
1001.00,105.08
1000.00,105.08
999.00,105.08
998.00,105.08
997.00,105.08
996.00,105.08
995.00,105.08
994.00,105.08
993.00,105.09
992.00,105.09
991.00,105.09
990.00,105.10
989.00,105.10
988.00,105.10
987.00,105.10
986.00,105.11
985.00,105.11
984.00,105.11
983.00,105.11
982.00,105.11
981.00,105.11
980.00,105.12
979.00,105.12
978.00,105.12
977.00,105.12
976.00,105.12
975.00,105.12
974.00,105.12
973.00,105.12
972.00,105.12
971.00,105.12
970.00,105.12
969.00,105.12
968.00,105.12
967.00,105.12
966.00,105.12
965.00,105.12
964.00,105.12
963.00,105.11
962.00,105.11
961.00,105.11
960.00,105.11
959.00,105.11
958.00,105.11
957.00,105.11
956.00,105.11
955.00,105.11
954.00,105.11
953.00,105.11
952.00,105.10
951.00,105.10
950.00,105.10
949.00,105.10
948.00,105.10
947.00,105.10
946.00,105.11
945.00,105.11
944.00,105.11
943.00,105.11
942.00,105.12
941.00,105.12
940.00,105.12
939.00,105.12
938.00,105.12
937.00,105.12
936.00,105.13
935.00,105.13
934.00,105.13
933.00,105.13
932.00,105.13
931.00,105.13
930.00,105.13
929.00,105.13
928.00,105.14
927.00,105.14
926.00,105.14
925.00,105.14
924.00,105.14
923.00,105.14
922.00,105.14
921.00,105.14
920.00,105.14
919.00,105.14
918.00,105.14
917.00,105.13
916.00,105.13
915.00,105.13
914.00,105.13
913.00,105.13
912.00,105.12
911.00,105.12
910.00,105.12
909.00,105.12
908.00,105.11
907.00,105.11
906.00,105.11
905.00,105.11
904.00,105.10
903.00,105.10
902.00,105.10
901.00,105.10
900.00,105.10
899.00,105.10
898.00,105.10
897.00,105.10
896.00,105.10
895.00,105.10
894.00,105.10
893.00,105.10
892.00,105.10
891.00,105.10
890.00,105.10
889.00,105.10
888.00,105.10
887.00,105.10
886.00,105.10
885.00,105.10
884.00,105.10
883.00,105.10
882.00,105.10
881.00,105.11
880.00,105.11
879.00,105.11
878.00,105.11
877.00,105.11
876.00,105.11
875.00,105.11
874.00,105.11
873.00,105.11
872.00,105.11
871.00,105.11
870.00,105.11
869.00,105.11
868.00,105.11
867.00,105.11
866.00,105.11
865.00,105.11
864.00,105.11
863.00,105.11
862.00,105.11
861.00,105.11
860.00,105.11
859.00,105.10
858.00,105.10
857.00,105.10
856.00,105.10
855.00,105.10
854.00,105.10
853.00,105.09
852.00,105.09
851.00,105.09
850.00,105.09
849.00,105.09
848.00,105.09
847.00,105.09
846.00,105.09
845.00,105.09
844.00,105.09
843.00,105.08
842.00,105.08
841.00,105.08
840.00,105.08
839.00,105.08
838.00,105.08
837.00,105.08
836.00,105.08
835.00,105.08
834.00,105.08
833.00,105.08
832.00,105.08
831.00,105.08
830.00,105.08
829.00,105.08
828.00,105.07
827.00,105.07
826.00,105.07
825.00,105.08
824.00,105.08
823.00,105.08
822.00,105.08
821.00,105.09
820.00,105.09
819.00,105.09
818.00,105.10
817.00,105.10
816.00,105.10
815.00,105.10
814.00,105.10
813.00,105.10
812.00,105.10
811.00,105.10
810.00,105.10
809.00,105.10
808.00,105.10
807.00,105.10
806.00,105.11
805.00,105.11
804.00,105.11
803.00,105.11
802.00,105.11
801.00,105.11
800.00,105.11
799.00,105.11
798.00,105.11
797.00,105.11
796.00,105.11
795.00,105.11
794.00,105.10
793.00,105.10
792.00,105.11
791.00,105.11
790.00,105.10
789.00,105.10
788.00,105.10
787.00,105.10
786.00,105.10
785.00,105.10
784.00,105.10
783.00,105.11
782.00,105.11
781.00,105.10
780.00,105.10
779.00,105.10
778.00,105.10
777.00,105.11
776.00,105.11
775.00,105.11
774.00,105.11
773.00,105.11
772.00,105.11
771.00,105.11
770.00,105.11
769.00,105.11
768.00,105.11
767.00,105.11
766.00,105.11
765.00,105.11
764.00,105.11
763.00,105.11
762.00,105.11
761.00,105.11
760.00,105.11
759.00,105.11
758.00,105.11
757.00,105.10
756.00,105.10
755.00,105.10
754.00,105.10
753.00,105.10
752.00,105.10
751.00,105.10
750.00,105.10
749.00,105.10
748.00,105.09
747.00,105.09
746.00,105.09
745.00,105.09
744.00,105.08
743.00,105.08
742.00,105.08
741.00,105.08
740.00,105.08
739.00,105.08
738.00,105.08
737.00,105.08
736.00,105.08
735.00,105.08
734.00,105.08
733.00,105.08
732.00,105.08
731.00,105.08
730.00,105.08
729.00,105.08
728.00,105.08
727.00,105.08
726.00,105.08
725.00,105.09
724.00,105.09
723.00,105.09
722.00,105.09
721.00,105.09
720.00,105.09
719.00,105.10
718.00,105.10
717.00,105.10
716.00,105.10
715.00,105.10
714.00,105.10
713.00,105.10
712.00,105.10
711.00,105.10
710.00,105.10
709.00,105.10
708.00,105.09
707.00,105.09
706.00,105.09
705.00,105.09
704.00,105.09
703.00,105.09
702.00,105.09
701.00,105.08
700.00,105.08
699.00,105.07
698.00,105.07
697.00,105.07
696.00,105.08
695.00,105.08
694.00,105.08
693.00,105.07
692.00,105.07
691.00,105.06
690.00,105.06
689.00,105.05
688.00,105.05
687.00,105.05
686.00,105.05
685.00,105.05
684.00,105.06
683.00,105.06
682.00,105.06
681.00,105.06
680.00,105.06
679.00,105.06
678.00,105.06
677.00,105.06
676.00,105.06
675.00,105.06
674.00,105.06
673.00,105.07
672.00,105.07
671.00,105.08
670.00,105.10
669.00,105.13
668.00,105.16
667.00,105.15
666.00,105.12
665.00,105.10
664.00,105.09
663.00,105.09
662.00,105.08
661.00,105.08
660.00,105.08
659.00,105.08
658.00,105.08
657.00,105.08
656.00,105.08
655.00,105.08
654.00,105.08
653.00,105.08
652.00,105.07
651.00,105.07
650.00,105.07
649.00,105.07
648.00,105.07
647.00,105.07
646.00,105.06
645.00,105.06
644.00,105.06
643.00,105.05
642.00,105.05
641.00,105.05
640.00,105.06
639.00,105.06
638.00,105.06
637.00,105.06
636.00,105.06
635.00,105.06
634.00,105.06
633.00,105.06
632.00,105.06
631.00,105.05
630.00,105.05
629.00,105.05
628.00,105.05
627.00,105.05
626.00,105.05
625.00,105.06
624.00,105.06
623.00,105.07
622.00,105.07
621.00,105.07
620.00,105.07
619.00,105.07
618.00,105.07
617.00,105.07
616.00,105.07
615.00,105.08
614.00,105.08
613.00,105.08
612.00,105.08
611.00,105.08
610.00,105.08
609.00,105.08
608.00,105.08
607.00,105.08
606.00,105.08
605.00,105.08
604.00,105.08
603.00,105.08
602.00,105.08
601.00,105.08
600.00,105.09
599.00,105.09
598.00,105.09
597.00,105.09
596.00,105.09
595.00,105.10
594.00,105.10
593.00,105.09
592.00,105.09
591.00,105.08
590.00,105.08
589.00,105.08
588.00,105.08
587.00,105.08
586.00,105.09
585.00,105.09
584.00,105.09
583.00,105.09
582.00,105.09
581.00,105.09
580.00,105.08
579.00,105.08
578.00,105.08
577.00,105.09
576.00,105.10
575.00,105.10
574.00,105.11
573.00,105.11
572.00,105.11
571.00,105.11
570.00,105.10
569.00,105.10
568.00,105.10
567.00,105.11
566.00,105.11
565.00,105.11
564.00,105.11
563.00,105.11
562.00,105.11
561.00,105.12
560.00,105.12
559.00,105.12
558.00,105.12
557.00,105.12
556.00,105.12
555.00,105.13
554.00,105.13
553.00,105.13
552.00,105.12
551.00,105.12
550.00,105.13
549.00,105.13
548.00,105.13
547.00,105.13
546.00,105.13
545.00,105.13
544.00,105.13
543.00,105.14
542.00,105.14
541.00,105.14
540.00,105.14
539.00,105.14
538.00,105.13
537.00,105.13
536.00,105.13
535.00,105.13
534.00,105.14
533.00,105.15
532.00,105.14
531.00,105.14
530.00,105.13
529.00,105.13
528.00,105.13
527.00,105.13
526.00,105.13
525.00,105.13
524.00,105.13
523.00,105.14
522.00,105.14
521.00,105.15
520.00,105.15
519.00,105.15
518.00,105.14
517.00,105.14
516.00,105.14
515.00,105.14
514.00,105.14
513.00,105.14
512.00,105.14
511.00,105.14
510.00,105.14
509.00,105.13
508.00,105.13
507.00,105.13
506.00,105.13
505.00,105.14
504.00,105.14
503.00,105.15
502.00,105.15
501.00,105.14
500.00,105.13
