Created as New Dataset,Sample 396 By Analyst Date Monday, February 10 2025
cm-1,%T
4000.00,104.85
3999.00,104.85
3998.00,104.85
3997.00,104.85
3996.00,104.84
3995.00,104.84
3994.00,104.84
3993.00,104.84
3992.00,104.84
3991.00,104.83
3990.00,104.83
3989.00,104.83
3988.00,104.83
3987.00,104.83
3986.00,104.83
3985.00,104.83
3984.00,104.82
3983.00,104.82
3982.00,104.82
3981.00,104.82
3980.00,104.82
3979.00,104.82
3978.00,104.82
3977.00,104.82
3976.00,104.82
3975.00,104.82
3974.00,104.83
3973.00,104.83
3972.00,104.83
3971.00,104.83
3970.00,104.83
3969.00,104.83
3968.00,104.83
3967.00,104.83
3966.00,104.83
3965.00,104.84
3964.00,104.84
3963.00,104.84
3962.00,104.84
3961.00,104.84
3960.00,104.84
3959.00,104.84
3958.00,104.84
3957.00,104.84
3956.00,104.84
3955.00,104.85
3954.00,104.85
3953.00,104.85
3952.00,104.85
3951.00,104.84
3950.00,104.84
3949.00,104.84
3948.00,104.84
3947.00,104.84
3946.00,104.84
3945.00,104.84
3944.00,104.84
3943.00,104.84
3942.00,104.84
3941.00,104.84
3940.00,104.83
3939.00,104.83
3938.00,104.83
3937.00,104.83
3936.00,104.83
3935.00,104.83
3934.00,104.83
3933.00,104.83
3932.00,104.82
3931.00,104.82
3930.00,104.82
3929.00,104.82
3928.00,104.82
3927.00,104.82
3926.00,104.82
3925.00,104.82
3924.00,104.82
3923.00,104.82
3922.00,104.82
3921.00,104.82
3920.00,104.82
3919.00,104.82
3918.00,104.82
3917.00,104.81
3916.00,104.82
3915.00,104.82
3914.00,104.82
3913.00,104.82
3912.00,104.82
3911.00,104.83
3910.00,104.83
3909.00,104.83
3908.00,104.83
3907.00,104.82
3906.00,104.82
3905.00,104.81
3904.00,104.81
3903.00,104.80
3902.00,104.80
3901.00,104.79
3900.00,104.79
3899.00,104.80
3898.00,104.80
3897.00,104.80
3896.00,104.81
3895.00,104.81
3894.00,104.81
3893.00,104.81
3892.00,104.81
3891.00,104.82
3890.00,104.81
3889.00,104.81
3888.00,104.80
3887.00,104.80
3886.00,104.80
3885.00,104.80
3884.00,104.80
3883.00,104.79
3882.00,104.79
3881.00,104.79
3880.00,104.80
3879.00,104.80
3878.00,104.80
3877.00,104.80
3876.00,104.79
3875.00,104.80
3874.00,104.80
3873.00,104.80
3872.00,104.79
3871.00,104.78
3870.00,104.78
3869.00,104.79
3868.00,104.78
3867.00,104.78
3866.00,104.78
3865.00,104.79
3864.00,104.79
3863.00,104.80
3862.00,104.80
3861.00,104.80
3860.00,104.80
3859.00,104.81
3858.00,104.81
3857.00,104.81
3856.00,104.81
3855.00,104.81
3854.00,104.80
3853.00,104.79
3852.00,104.79
3851.00,104.78
3850.00,104.79
3849.00,104.80
3848.00,104.81
3847.00,104.81
3846.00,104.82
3845.00,104.82
3844.00,104.82
3843.00,104.82
3842.00,104.82
3841.00,104.81
3840.00,104.81
3839.00,104.80
3838.00,104.80
3837.00,104.79
3836.00,104.79
3835.00,104.79
3834.00,104.79
3833.00,104.79
3832.00,104.80
3831.00,104.80
3830.00,104.80
3829.00,104.80
3828.00,104.80
3827.00,104.80
3826.00,104.80
3825.00,104.80
3824.00,104.79
3823.00,104.78
3822.00,104.78
3821.00,104.78
3820.00,104.78
3819.00,104.77
3818.00,104.76
3817.00,104.76
3816.00,104.77
3815.00,104.77
3814.00,104.77
3813.00,104.78
3812.00,104.78
3811.00,104.79
3810.00,104.79
3809.00,104.79
3808.00,104.79
3807.00,104.79
3806.00,104.79
3805.00,104.78
3804.00,104.78
3803.00,104.77
3802.00,104.78
3801.00,104.78
3800.00,104.78
3799.00,104.78
3798.00,104.78
3797.00,104.79
3796.00,104.80
3795.00,104.80
3794.00,104.81
3793.00,104.81
3792.00,104.81
3791.00,104.82
3790.00,104.82
3789.00,104.82
3788.00,104.82
3787.00,104.82
3786.00,104.82
3785.00,104.82
3784.00,104.82
3783.00,104.82
3782.00,104.81
3781.00,104.81
3780.00,104.81
3779.00,104.81
3778.00,104.81
3777.00,104.81
3776.00,104.81
3775.00,104.81
3774.00,104.81
3773.00,104.81
3772.00,104.80
3771.00,104.80
3770.00,104.80
3769.00,104.80
3768.00,104.80
3767.00,104.80
3766.00,104.80
3765.00,104.80
3764.00,104.80
3763.00,104.80
3762.00,104.80
3761.00,104.80
3760.00,104.80
3759.00,104.80
3758.00,104.80
3757.00,104.80
3756.00,104.80
3755.00,104.79
3754.00,104.79
3753.00,104.78
3752.00,104.77
3751.00,104.77
3750.00,104.76
3749.00,104.76
3748.00,104.76
3747.00,104.75
3746.00,104.75
3745.00,104.76
3744.00,104.76
3743.00,104.76
3742.00,104.76
3741.00,104.76
3740.00,104.77
3739.00,104.77
3738.00,104.76
3737.00,104.76
3736.00,104.76
3735.00,104.76
3734.00,104.76
3733.00,104.76
3732.00,104.76
3731.00,104.76
3730.00,104.76
3729.00,104.76
3728.00,104.76
3727.00,104.76
3726.00,104.77
3725.00,104.77
3724.00,104.76
3723.00,104.76
3722.00,104.77
3721.00,104.77
3720.00,104.77
3719.00,104.77
3718.00,104.77
3717.00,104.77
3716.00,104.76
3715.00,104.76
3714.00,104.75
3713.00,104.75
3712.00,104.74
3711.00,104.74
3710.00,104.75
3709.00,104.75
3708.00,104.76
3707.00,104.76
3706.00,104.77
3705.00,104.78
3704.00,104.78
3703.00,104.79
3702.00,104.80
3701.00,104.81
3700.00,104.81
3699.00,104.81
3698.00,104.81
3697.00,104.82
3696.00,104.82
3695.00,104.82
3694.00,104.82
3693.00,104.82
3692.00,104.82
3691.00,104.83
3690.00,104.83
3689.00,104.83
3688.00,104.83
3687.00,104.83
3686.00,104.83
3685.00,104.83
3684.00,104.84
3683.00,104.84
3682.00,104.84
3681.00,104.85
3680.00,104.85
3679.00,104.84
3678.00,104.83
3677.00,104.82
3676.00,104.82
3675.00,104.82
3674.00,104.81
3673.00,104.80
3672.00,104.80
3671.00,104.80
3670.00,104.81
3669.00,104.81
3668.00,104.82
3667.00,104.82
3666.00,104.83
3665.00,104.83
3664.00,104.84
3663.00,104.84
3662.00,104.84
3661.00,104.84
3660.00,104.84
3659.00,104.84
3658.00,104.84
3657.00,104.83
3656.00,104.83
3655.00,104.83
3654.00,104.82
3653.00,104.81
3652.00,104.81
3651.00,104.80
3650.00,104.80
3649.00,104.80
3648.00,104.80
3647.00,104.80
3646.00,104.80
3645.00,104.81
3644.00,104.82
3643.00,104.82
3642.00,104.83
3641.00,104.84
3640.00,104.84
3639.00,104.84
3638.00,104.84
3637.00,104.84
3636.00,104.84
3635.00,104.84
3634.00,104.83
3633.00,104.83
3632.00,104.82
3631.00,104.82
3630.00,104.81
3629.00,104.81
3628.00,104.81
3627.00,104.80
3626.00,104.80
3625.00,104.81
3624.00,104.81
3623.00,104.82
3622.00,104.82
3621.00,104.82
3620.00,104.82
3619.00,104.82
3618.00,104.82
3617.00,104.81
3616.00,104.81
3615.00,104.80
3614.00,104.80
3613.00,104.80
3612.00,104.80
3611.00,104.80
3610.00,104.80
3609.00,104.80
3608.00,104.80
3607.00,104.81
3606.00,104.81
3605.00,104.82
3604.00,104.82
3603.00,104.82
3602.00,104.83
3601.00,104.83
3600.00,104.83
3599.00,104.83
3598.00,104.83
3597.00,104.84
3596.00,104.84
3595.00,104.84
3594.00,104.84
3593.00,104.84
3592.00,104.84
3591.00,104.84
3590.00,104.84
3589.00,104.84
3588.00,104.84
3587.00,104.85
3586.00,104.85
3585.00,104.85
3584.00,104.86
3583.00,104.86
3582.00,104.86
3581.00,104.87
3580.00,104.87
3579.00,104.87
3578.00,104.88
3577.00,104.88
3576.00,104.88
3575.00,104.88
3574.00,104.88
3573.00,104.88
3572.00,104.88
3571.00,104.87
3570.00,104.87
3569.00,104.86
3568.00,104.86
3567.00,104.86
3566.00,104.86
3565.00,104.86
3564.00,104.86
3563.00,104.86
3562.00,104.86
3561.00,104.87
3560.00,104.87
3559.00,104.87
3558.00,104.87
3557.00,104.87
3556.00,104.88
3555.00,104.88
3554.00,104.88
3553.00,104.88
3552.00,104.88
3551.00,104.88
3550.00,104.87
3549.00,104.87
3548.00,104.87
3547.00,104.87
3546.00,104.87
3545.00,104.87
3544.00,104.88
3543.00,104.88
3542.00,104.88
3541.00,104.88
3540.00,104.88
3539.00,104.89
3538.00,104.89
3537.00,104.89
3536.00,104.89
3535.00,104.89
3534.00,104.89
3533.00,104.89
3532.00,104.89
3531.00,104.89
3530.00,104.89
3529.00,104.89
3528.00,104.89
3527.00,104.89
3526.00,104.89
3525.00,104.89
3524.00,104.89
3523.00,104.89
3522.00,104.89
3521.00,104.89
3520.00,104.89
3519.00,104.89
3518.00,104.89
3517.00,104.89
3516.00,104.89
3515.00,104.89
3514.00,104.89
3513.00,104.89
3512.00,104.88
3511.00,104.88
3510.00,104.88
3509.00,104.88
3508.00,104.88
3507.00,104.88
3506.00,104.88
3505.00,104.88
3504.00,104.88
3503.00,104.88
3502.00,104.88
3501.00,104.88
3500.00,104.88
3499.00,104.88
3498.00,104.88
3497.00,104.88
3496.00,104.89
3495.00,104.89
3494.00,104.89
3493.00,104.89
3492.00,104.90
3491.00,104.90
3490.00,104.90
3489.00,104.90
3488.00,104.91
3487.00,104.91
3486.00,104.91
3485.00,104.91
3484.00,104.91
3483.00,104.91
3482.00,104.92
3481.00,104.92
3480.00,104.92
3479.00,104.92
3478.00,104.93
3477.00,104.93
3476.00,104.93
3475.00,104.93
3474.00,104.93
3473.00,104.93
3472.00,104.94
3471.00,104.94
3470.00,104.94
3469.00,104.94
3468.00,104.94
3467.00,104.94
3466.00,104.94
3465.00,104.94
3464.00,104.93
3463.00,104.93
3462.00,104.93
3461.00,104.93
3460.00,104.93
3459.00,104.93
3458.00,104.93
3457.00,104.93
3456.00,104.93
3455.00,104.93
3454.00,104.93
3453.00,104.92
3452.00,104.92
3451.00,104.92
3450.00,104.92
3449.00,104.92
3448.00,104.92
3447.00,104.92
3446.00,104.92
3445.00,104.92
3444.00,104.92
3443.00,104.92
3442.00,104.93
3441.00,104.93
3440.00,104.93
3439.00,104.93
3438.00,104.93
3437.00,104.94
3436.00,104.94
3435.00,104.94
3434.00,104.94
3433.00,104.95
3432.00,104.95
3431.00,104.95
3430.00,104.95
3429.00,104.95
3428.00,104.96
3427.00,104.96
3426.00,104.96
3425.00,104.96
3424.00,104.96
3423.00,104.96
3422.00,104.96
3421.00,104.96
3420.00,104.96
3419.00,104.96
3418.00,104.96
3417.00,104.95
3416.00,104.95
3415.00,104.95
3414.00,104.95
3413.00,104.95
3412.00,104.95
3411.00,104.94
3410.00,104.94
3409.00,104.94
3408.00,104.94
3407.00,104.93
3406.00,104.93
3405.00,104.93
3404.00,104.92
3403.00,104.92
3402.00,104.92
3401.00,104.92
3400.00,104.92
3399.00,104.91
3398.00,104.91
3397.00,104.91
3396.00,104.91
3395.00,104.91
3394.00,104.91
3393.00,104.91
3392.00,104.91
3391.00,104.91
3390.00,104.91
3389.00,104.91
3388.00,104.91
3387.00,104.91
3386.00,104.91
3385.00,104.91
3384.00,104.91
3383.00,104.92
3382.00,104.92
3381.00,104.92
3380.00,104.92
3379.00,104.92
3378.00,104.92
3377.00,104.92
3376.00,104.92
3375.00,104.93
3374.00,104.92
3373.00,104.92
3372.00,104.92
3371.00,104.93
3370.00,104.93
3369.00,104.92
3368.00,104.92
3367.00,104.92
3366.00,104.92
3365.00,104.92
3364.00,104.92
3363.00,104.92
3362.00,104.92
3361.00,104.91
3360.00,104.91
3359.00,104.91
3358.00,104.91
3357.00,104.90
3356.00,104.90
3355.00,104.90
3354.00,104.90
3353.00,104.90
3352.00,104.90
3351.00,104.89
3350.00,104.89
3349.00,104.89
3348.00,104.89
3347.00,104.89
3346.00,104.89
3345.00,104.89
3344.00,104.89
3343.00,104.89
3342.00,104.89
3341.00,104.89
3340.00,104.89
3339.00,104.89
3338.00,104.90
3337.00,104.90
3336.00,104.90
3335.00,104.90
3334.00,104.91
3333.00,104.91
3332.00,104.91
3331.00,104.92
3330.00,104.92
3329.00,104.92
3328.00,104.92
3327.00,104.93
3326.00,104.93
3325.00,104.93
3324.00,104.93
3323.00,104.94
3322.00,104.94
3321.00,104.94
3320.00,104.94
3319.00,104.95
3318.00,104.95
3317.00,104.95
3316.00,104.95
3315.00,104.95
3314.00,104.95
3313.00,104.95
3312.00,104.95
3311.00,104.96
3310.00,104.96
3309.00,104.96
3308.00,104.96
3307.00,104.96
3306.00,104.97
3305.00,104.97
3304.00,104.97
3303.00,104.97
3302.00,104.97
3301.00,104.97
3300.00,104.96
3299.00,104.96
3298.00,104.96
3297.00,104.95
3296.00,104.95
3295.00,104.95
3294.00,104.94
3293.00,104.94
3292.00,104.94
3291.00,104.94
3290.00,104.93
3289.00,104.93
3288.00,104.93
3287.00,104.93
3286.00,104.93
3285.00,104.93
3284.00,104.93
3283.00,104.93
3282.00,104.93
3281.00,104.92
3280.00,104.92
3279.00,104.92
3278.00,104.92
3277.00,104.92
3276.00,104.92
3275.00,104.92
3274.00,104.92
3273.00,104.93
3272.00,104.93
3271.00,104.93
3270.00,104.93
3269.00,104.93
3268.00,104.93
3267.00,104.93
3266.00,104.93
3265.00,104.93
3264.00,104.93
3263.00,104.92
3262.00,104.92
3261.00,104.92
3260.00,104.92
3259.00,104.92
3258.00,104.92
3257.00,104.92
3256.00,104.92
3255.00,104.92
3254.00,104.92
3253.00,104.92
3252.00,104.92
3251.00,104.92
3250.00,104.92
3249.00,104.91
3248.00,104.91
3247.00,104.91
3246.00,104.91
3245.00,104.91
3244.00,104.91
3243.00,104.91
3242.00,104.91
3241.00,104.91
3240.00,104.91
3239.00,104.91
3238.00,104.91
3237.00,104.91
3236.00,104.91
3235.00,104.91
3234.00,104.91
3233.00,104.92
3232.00,104.92
3231.00,104.92
3230.00,104.92
3229.00,104.93
3228.00,104.93
3227.00,104.93
3226.00,104.93
3225.00,104.94
3224.00,104.94
3223.00,104.94
3222.00,104.94
3221.00,104.95
3220.00,104.95
3219.00,104.95
3218.00,104.95
3217.00,104.96
3216.00,104.96
3215.00,104.96
3214.00,104.96
3213.00,104.96
3212.00,104.97
3211.00,104.97
3210.00,104.97
3209.00,104.97
3208.00,104.97
3207.00,104.97
3206.00,104.97
3205.00,104.97
3204.00,104.97
3203.00,104.97
3202.00,104.97
3201.00,104.97
3200.00,104.97
3199.00,104.97
3198.00,104.97
3197.00,104.97
3196.00,104.97
3195.00,104.96
3194.00,104.96
3193.00,104.96
3192.00,104.96
3191.00,104.96
3190.00,104.96
3189.00,104.96
3188.00,104.96
3187.00,104.95
3186.00,104.95
3185.00,104.95
3184.00,104.95
3183.00,104.95
3182.00,104.95
3181.00,104.95
3180.00,104.95
3179.00,104.95
3178.00,104.95
3177.00,104.95
3176.00,104.95
3175.00,104.95
3174.00,104.95
3173.00,104.95
3172.00,104.96
3171.00,104.96
3170.00,104.96
3169.00,104.96
3168.00,104.96
3167.00,104.96
3166.00,104.96
3165.00,104.96
3164.00,104.97
3163.00,104.97
3162.00,104.97
3161.00,104.97
3160.00,104.97
3159.00,104.98
3158.00,104.98
3157.00,104.98
3156.00,104.98
3155.00,104.98
3154.00,104.98
3153.00,104.98
3152.00,104.98
3151.00,104.98
3150.00,104.98
3149.00,104.98
3148.00,104.98
3147.00,104.98
3146.00,104.97
3145.00,104.97
3144.00,104.97
3143.00,104.97
3142.00,104.97
3141.00,104.97
3140.00,104.97
3139.00,104.97
3138.00,104.97
3137.00,104.97
3136.00,104.97
3135.00,104.96
3134.00,104.96
3133.00,104.96
3132.00,104.96
3131.00,104.97
3130.00,104.97
3129.00,104.97
3128.00,104.97
3127.00,104.97
3126.00,104.97
3125.00,104.97
3124.00,104.97
3123.00,104.98
3122.00,104.98
3121.00,104.98
3120.00,104.98
3119.00,104.98
3118.00,104.99
3117.00,104.99
3116.00,104.99
3115.00,105.00
3114.00,105.00
3113.00,105.00
3112.00,105.01
3111.00,105.01
3110.00,105.01
3109.00,105.02
3108.00,105.02
3107.00,105.02
3106.00,105.02
3105.00,105.02
3104.00,105.02
3103.00,105.02
3102.00,105.02
3101.00,105.02
3100.00,105.02
3099.00,105.02
3098.00,105.02
3097.00,105.02
3096.00,105.02
3095.00,105.02
3094.00,105.02
3093.00,105.02
3092.00,105.02
3091.00,105.01
3090.00,105.01
3089.00,105.01
3088.00,105.01
3087.00,105.01
3086.00,105.00
3085.00,105.00
3084.00,105.00
3083.00,105.00
3082.00,105.00
3081.00,105.00
3080.00,105.00
3079.00,105.00
3078.00,105.00
3077.00,105.00
3076.00,105.00
3075.00,105.00
3074.00,105.00
3073.00,105.00
3072.00,105.00
3071.00,105.01
3070.00,105.01
3069.00,105.01
3068.00,105.01
3067.00,105.01
3066.00,105.01
3065.00,105.01
3064.00,105.02
3063.00,105.02
3062.00,105.02
3061.00,105.03
3060.00,105.03
3059.00,105.03
3058.00,105.03
3057.00,105.03
3056.00,105.03
3055.00,105.03
3054.00,105.04
3053.00,105.04
3052.00,105.04
3051.00,105.04
3050.00,105.04
3049.00,105.04
3048.00,105.04
3047.00,105.04
3046.00,105.04
3045.00,105.04
3044.00,105.04
3043.00,105.04
3042.00,105.04
3041.00,105.04
3040.00,105.04
3039.00,105.04
3038.00,105.03
3037.00,105.03
3036.00,105.03
3035.00,105.03
3034.00,105.03
3033.00,105.02
3032.00,105.02
3031.00,105.02
3030.00,105.02
3029.00,105.02
3028.00,105.02
3027.00,105.02
3026.00,105.02
3025.00,105.02
3024.00,105.02
3023.00,105.02
3022.00,105.02
3021.00,105.02
3020.00,105.02
3019.00,105.02
3018.00,105.02
3017.00,105.02
3016.00,105.03
3015.00,105.03
3014.00,105.03
3013.00,105.03
3012.00,105.03
3011.00,105.04
3010.00,105.04
3009.00,105.04
3008.00,105.04
3007.00,105.04
3006.00,105.04
3005.00,105.04
3004.00,105.04
3003.00,105.05
3002.00,105.05
3001.00,105.05
3000.00,105.05
2999.00,105.05
2998.00,105.05
2997.00,105.05
2996.00,105.04
2995.00,105.04
2994.00,105.04
2993.00,105.04
2992.00,105.04
2991.00,105.04
2990.00,105.03
2989.00,105.03
2988.00,105.03
2987.00,105.03
2986.00,105.03
2985.00,105.03
2984.00,105.02
2983.00,105.02
2982.00,105.02
2981.00,105.02
2980.00,105.02
2979.00,105.02
2978.00,105.02
2977.00,105.02
2976.00,105.01
2975.00,105.01
2974.00,105.01
2973.00,105.01
2972.00,105.02
2971.00,105.02
2970.00,105.02
2969.00,105.02
2968.00,105.02
2967.00,105.02
2966.00,105.02
2965.00,105.02
2964.00,105.03
2963.00,105.03
2962.00,105.03
2961.00,105.03
2960.00,105.03
2959.00,105.03
2958.00,105.04
2957.00,105.04
2956.00,105.04
2955.00,105.04
2954.00,105.04
2953.00,105.04
2952.00,105.04
2951.00,105.04
2950.00,105.04
2949.00,105.05
2948.00,105.05
2947.00,105.05
2946.00,105.05
2945.00,105.05
2944.00,105.05
2943.00,105.05
2942.00,105.05
2941.00,105.05
2940.00,105.05
2939.00,105.05
2938.00,105.05
2937.00,105.04
2936.00,105.04
2935.00,105.04
2934.00,105.04
2933.00,105.04
2932.00,105.04
2931.00,105.04
2930.00,105.03
2929.00,105.03
2928.00,105.03
2927.00,105.03
2926.00,105.03
2925.00,105.03
2924.00,105.03
2923.00,105.03
2922.00,105.02
2921.00,105.02
2920.00,105.02
2919.00,105.02
2918.00,105.02
2917.00,105.02
2916.00,105.02
2915.00,105.03
2914.00,105.03
2913.00,105.03
2912.00,105.03
2911.00,105.03
2910.00,105.03
2909.00,105.03
2908.00,105.03
2907.00,105.03
2906.00,105.03
2905.00,105.03
2904.00,105.03
2903.00,105.03
2902.00,105.03
2901.00,105.03
2900.00,105.03
2899.00,105.04
2898.00,105.04
2897.00,105.04
2896.00,105.04
2895.00,105.04
2894.00,105.04
2893.00,105.04
2892.00,105.04
2891.00,105.04
2890.00,105.04
2889.00,105.04
2888.00,105.04
2887.00,105.04
2886.00,105.04
2885.00,105.04
2884.00,105.04
2883.00,105.04
2882.00,105.04
2881.00,105.04
2880.00,105.04
2879.00,105.04
2878.00,105.04
2877.00,105.03
2876.00,105.03
2875.00,105.03
2874.00,105.03
2873.00,105.03
2872.00,105.03
2871.00,105.02
2870.00,105.02
2869.00,105.02
2868.00,105.02
2867.00,105.02
2866.00,105.02
2865.00,105.02
2864.00,105.02
2863.00,105.02
2862.00,105.02
2861.00,105.02
2860.00,105.02
2859.00,105.02
2858.00,105.03
2857.00,105.03
2856.00,105.03
2855.00,105.03
2854.00,105.04
2853.00,105.04
2852.00,105.04
2851.00,105.05
2850.00,105.05
2849.00,105.05
2848.00,105.05
2847.00,105.05
2846.00,105.06
2845.00,105.06
2844.00,105.06
2843.00,105.06
2842.00,105.06
2841.00,105.06
2840.00,105.06
2839.00,105.06
2838.00,105.07
2837.00,105.07
2836.00,105.07
2835.00,105.07
2834.00,105.07
2833.00,105.06
2832.00,105.06
2831.00,105.06
2830.00,105.06
2829.00,105.06
2828.00,105.06
2827.00,105.06
2826.00,105.05
2825.00,105.05
2824.00,105.05
2823.00,105.05
2822.00,105.04
2821.00,105.04
2820.00,105.04
2819.00,105.03
2818.00,105.03
2817.00,105.03
2816.00,105.03
2815.00,105.03
2814.00,105.02
2813.00,105.02
2812.00,105.02
2811.00,105.02
2810.00,105.02
2809.00,105.02
2808.00,105.02
2807.00,105.02
2806.00,105.02
2805.00,105.02
2804.00,105.02
2803.00,105.02
2802.00,105.03
2801.00,105.03
2800.00,105.03
2799.00,105.03
2798.00,105.03
2797.00,105.04
2796.00,105.04
2795.00,105.04
2794.00,105.05
2793.00,105.05
2792.00,105.05
2791.00,105.05
2790.00,105.05
2789.00,105.05
2788.00,105.05
2787.00,105.05
2786.00,105.05
2785.00,105.06
2784.00,105.06
2783.00,105.06
2782.00,105.06
2781.00,105.05
2780.00,105.05
2779.00,105.05
2778.00,105.05
2777.00,105.05
2776.00,105.05
2775.00,105.05
2774.00,105.05
2773.00,105.04
2772.00,105.04
2771.00,105.04
2770.00,105.04
2769.00,105.04
2768.00,105.04
2767.00,105.03
2766.00,105.03
2765.00,105.03
2764.00,105.03
2763.00,105.03
2762.00,105.03
2761.00,105.03
2760.00,105.03
2759.00,105.03
2758.00,105.03
2757.00,105.03
2756.00,105.03
2755.00,105.03
2754.00,105.03
2753.00,105.03
2752.00,105.03
2751.00,105.04
2750.00,105.04
2749.00,105.04
2748.00,105.04
2747.00,105.04
2746.00,105.05
2745.00,105.05
2744.00,105.05
2743.00,105.05
2742.00,105.06
2741.00,105.06
2740.00,105.06
2739.00,105.06
2738.00,105.06
2737.00,105.06
2736.00,105.07
2735.00,105.07
2734.00,105.07
2733.00,105.07
2732.00,105.06
2731.00,105.06
2730.00,105.06
2729.00,105.06
2728.00,105.06
2727.00,105.06
2726.00,105.05
2725.00,105.05
2724.00,105.05
2723.00,105.04
2722.00,105.04
2721.00,105.04
2720.00,105.03
2719.00,105.03
2718.00,105.03
2717.00,105.02
2716.00,105.02
2715.00,105.02
2714.00,105.01
2713.00,105.01
2712.00,105.01
2711.00,105.01
2710.00,105.01
2709.00,105.01
2708.00,105.00
2707.00,105.00
2706.00,105.00
2705.00,105.00
2704.00,105.00
2703.00,105.00
2702.00,105.01
2701.00,105.01
2700.00,105.01
2699.00,105.01
2698.00,105.01
2697.00,105.01
2696.00,105.01
2695.00,105.02
2694.00,105.02
2693.00,105.02
2692.00,105.02
2691.00,105.03
2690.00,105.03
2689.00,105.03
2688.00,105.03
2687.00,105.04
2686.00,105.04
2685.00,105.04
2684.00,105.04
2683.00,105.05
2682.00,105.05
2681.00,105.05
2680.00,105.05
2679.00,105.05
2678.00,105.05
2677.00,105.05
2676.00,105.05
2675.00,105.05
2674.00,105.05
2673.00,105.05
2672.00,105.05
2671.00,105.05
2670.00,105.04
2669.00,105.04
2668.00,105.04
2667.00,105.04
2666.00,105.04
2665.00,105.04
2664.00,105.03
2663.00,105.03
2662.00,105.03
2661.00,105.02
2660.00,105.02
2659.00,105.02
2658.00,105.02
2657.00,105.02
2656.00,105.01
2655.00,105.01
2654.00,105.01
2653.00,105.01
2652.00,105.01
2651.00,105.01
2650.00,105.01
2649.00,105.01
2648.00,105.01
2647.00,105.01
2646.00,105.01
2645.00,105.01
2644.00,105.01
2643.00,105.01
2642.00,105.02
2641.00,105.02
2640.00,105.02
2639.00,105.02
2638.00,105.02
2637.00,105.02
2636.00,105.02
2635.00,105.02
2634.00,105.02
2633.00,105.03
2632.00,105.03
2631.00,105.03
2630.00,105.03
2629.00,105.03
2628.00,105.03
2627.00,105.03
2626.00,105.03
2625.00,105.03
2624.00,105.03
2623.00,105.03
2622.00,105.03
2621.00,105.03
2620.00,105.03
2619.00,105.03
2618.00,105.02
2617.00,105.02
2616.00,105.02
2615.00,105.02
2614.00,105.02
2613.00,105.02
2612.00,105.02
2611.00,105.02
2610.00,105.02
2609.00,105.01
2608.00,105.01
2607.00,105.01
2606.00,105.01
2605.00,105.01
2604.00,105.01
2603.00,105.01
2602.00,105.01
2601.00,105.01
2600.00,105.01
2599.00,105.01
2598.00,105.01
2597.00,105.01
2596.00,105.01
2595.00,105.01
2594.00,105.01
2593.00,105.01
2592.00,105.01
2591.00,105.01
2590.00,105.02
2589.00,105.02
2588.00,105.02
2587.00,105.02
2586.00,105.03
2585.00,105.03
2584.00,105.03
2583.00,105.03
2582.00,105.04
2581.00,105.04
2580.00,105.04
2579.00,105.04
2578.00,105.04
2577.00,105.04
2576.00,105.05
2575.00,105.05
2574.00,105.05
2573.00,105.05
2572.00,105.05
2571.00,105.05
2570.00,105.05
2569.00,105.05
2568.00,105.05
2567.00,105.04
2566.00,105.04
2565.00,105.04
2564.00,105.04
2563.00,105.04
2562.00,105.03
2561.00,105.03
2560.00,105.03
2559.00,105.03
2558.00,105.02
2557.00,105.02
2556.00,105.02
2555.00,105.02
2554.00,105.01
2553.00,105.01
2552.00,105.01
2551.00,105.01
2550.00,105.00
2549.00,105.00
2548.00,105.00
2547.00,105.00
2546.00,105.00
2545.00,104.99
2544.00,104.99
2543.00,104.99
2542.00,104.99
2541.00,104.99
2540.00,104.99
2539.00,104.99
2538.00,104.99
2537.00,104.99
2536.00,104.99
2535.00,104.99
2534.00,105.00
2533.00,105.00
2532.00,105.00
2531.00,105.00
2530.00,105.00
2529.00,105.01
2528.00,105.01
2527.00,105.01
2526.00,105.01
2525.00,105.01
2524.00,105.01
2523.00,105.02
2522.00,105.02
2521.00,105.02
2520.00,105.02
2519.00,105.02
2518.00,105.02
2517.00,105.02
2516.00,105.02
2515.00,105.01
2514.00,105.01
2513.00,105.01
2512.00,105.01
2511.00,105.01
2510.00,105.00
2509.00,105.00
2508.00,105.00
2507.00,105.00
2506.00,104.99
2505.00,104.99
2504.00,104.99
2503.00,104.99
2502.00,104.98
2501.00,104.98
2500.00,104.98
2499.00,104.98
2498.00,104.98
2497.00,104.98
2496.00,104.97
2495.00,104.97
2494.00,104.97
2493.00,104.97
2492.00,104.97
2491.00,104.97
2490.00,104.97
2489.00,104.97
2488.00,104.97
2487.00,104.97
2486.00,104.98
2485.00,104.98
2484.00,104.98
2483.00,104.98
2482.00,104.98
2481.00,104.98
2480.00,104.99
2479.00,104.99
2478.00,104.99
2477.00,104.99
2476.00,104.99
2475.00,104.99
2474.00,105.00
2473.00,105.00
2472.00,105.00
2471.00,105.00
2470.00,105.00
2469.00,105.00
2468.00,105.00
2467.00,105.00
2466.00,105.00
2465.00,105.00
2464.00,105.00
2463.00,105.00
2462.00,105.00
2461.00,105.00
2460.00,104.99
2459.00,104.99
2458.00,104.99
2457.00,104.99
2456.00,104.98
2455.00,104.98
2454.00,104.98
2453.00,104.98
2452.00,104.97
2451.00,104.97
2450.00,104.97
2449.00,104.96
2448.00,104.96
2447.00,104.96
2446.00,104.96
2445.00,104.96
2444.00,104.96
2443.00,104.95
2442.00,104.96
2441.00,104.96
2440.00,104.96
2439.00,104.96
2438.00,104.96
2437.00,104.96
2436.00,104.96
2435.00,104.96
2434.00,104.97
2433.00,104.97
2432.00,104.97
2431.00,104.98
2430.00,104.98
2429.00,104.98
2428.00,104.99
2427.00,104.99
2426.00,104.99
2425.00,105.00
2424.00,105.00
2423.00,105.01
2422.00,105.01
2421.00,105.01
2420.00,105.02
2419.00,105.02
2418.00,105.02
2417.00,105.02
2416.00,105.03
2415.00,105.03
2414.00,105.03
2413.00,105.03
2412.00,105.03
2411.00,105.03
2410.00,105.03
2409.00,105.03
2408.00,105.03
2407.00,105.02
2406.00,105.02
2405.00,105.02
2404.00,105.02
2403.00,105.02
2402.00,105.01
2401.00,105.01
2400.00,105.01
2399.00,105.01
2398.00,105.00
2397.00,105.00
2396.00,105.00
2395.00,105.00
2394.00,104.99
2393.00,104.99
2392.00,104.99
2391.00,104.99
2390.00,104.99
2389.00,104.98
2388.00,104.98
2387.00,104.98
2386.00,104.98
2385.00,104.97
2384.00,104.97
2383.00,104.96
2382.00,104.96
2381.00,104.96
2380.00,104.96
2379.00,104.96
2378.00,104.96
2377.00,104.96
2376.00,104.96
2375.00,104.96
2374.00,104.95
2373.00,104.95
2372.00,104.95
2371.00,104.95
2370.00,104.94
2369.00,104.94
2368.00,104.94
2367.00,104.94
2366.00,104.93
2365.00,104.93
2364.00,104.93
2363.00,104.93
2362.00,104.93
2361.00,104.93
2360.00,104.92
2359.00,104.92
2358.00,104.92
2357.00,104.92
2356.00,104.92
2355.00,104.92
2354.00,104.92
2353.00,104.92
2352.00,104.93
2351.00,104.93
2350.00,104.93
2349.00,104.92
2348.00,104.90
2347.00,104.90
2346.00,104.90
2345.00,104.90
2344.00,104.91
2343.00,104.91
2342.00,104.91
2341.00,104.91
2340.00,104.91
2339.00,104.91
2338.00,104.91
2337.00,104.91
2336.00,104.91
2335.00,104.91
2334.00,104.91
2333.00,104.91
2332.00,104.91
2331.00,104.91
2330.00,104.91
2329.00,104.91
2328.00,104.91
2327.00,104.91
2326.00,104.91
2325.00,104.90
2324.00,104.91
2323.00,104.91
2322.00,104.91
2321.00,104.92
2320.00,104.92
2319.00,104.92
2318.00,104.93
2317.00,104.93
2316.00,104.93
2315.00,104.93
2314.00,104.94
2313.00,104.94
2312.00,104.94
2311.00,104.95
2310.00,104.95
2309.00,104.96
2308.00,104.96
2307.00,104.97
2306.00,104.97
2305.00,104.97
2304.00,104.97
2303.00,104.97
2302.00,104.97
2301.00,104.98
2300.00,104.98
2299.00,104.98
2298.00,104.98
2297.00,104.98
2296.00,104.98
2295.00,104.98
2294.00,104.98
2293.00,104.97
2292.00,104.97
2291.00,104.97
2290.00,104.97
2289.00,104.97
2288.00,104.97
2287.00,104.97
2286.00,104.97
2285.00,104.97
2284.00,104.96
2283.00,104.96
2282.00,104.96
2281.00,104.96
2280.00,104.96
2279.00,104.96
2278.00,104.96
2277.00,104.96
2276.00,104.96
2275.00,104.96
2274.00,104.96
2273.00,104.96
2272.00,104.96
2271.00,104.96
2270.00,104.96
2269.00,104.96
2268.00,104.97
2267.00,104.97
2266.00,104.97
2265.00,104.97
2264.00,104.97
2263.00,104.98
2262.00,104.98
2261.00,104.98
2260.00,104.98
2259.00,104.98
2258.00,104.98
2257.00,104.99
2256.00,104.99
2255.00,104.99
2254.00,104.99
2253.00,104.99
2252.00,104.99
2251.00,104.99
2250.00,104.99
2249.00,104.99
2248.00,104.99
2247.00,104.99
2246.00,104.98
2245.00,104.98
2244.00,104.98
2243.00,104.98
2242.00,104.98
2241.00,104.98
2240.00,104.97
2239.00,104.97
2238.00,104.97
2237.00,104.96
2236.00,104.96
2235.00,104.96
2234.00,104.96
2233.00,104.95
2232.00,104.95
2231.00,104.95
2230.00,104.95
2229.00,104.95
2228.00,104.95
2227.00,104.95
2226.00,104.95
2225.00,104.94
2224.00,104.94
2223.00,104.94
2222.00,104.94
2221.00,104.95
2220.00,104.95
2219.00,104.95
2218.00,104.95
2217.00,104.95
2216.00,104.95
2215.00,104.96
2214.00,104.96
2213.00,104.96
2212.00,104.96
2211.00,104.97
2210.00,104.97
2209.00,104.97
2208.00,104.97
2207.00,104.97
2206.00,104.97
2205.00,104.98
2204.00,104.98
2203.00,104.98
2202.00,104.98
2201.00,104.98
2200.00,104.98
2199.00,104.98
2198.00,104.97
2197.00,104.97
2196.00,104.97
2195.00,104.97
2194.00,104.97
2193.00,104.96
2192.00,104.96
2191.00,104.96
2190.00,104.95
2189.00,104.95
2188.00,104.94
2187.00,104.94
2186.00,104.93
2185.00,104.93
2184.00,104.93
2183.00,104.93
2182.00,104.92
2181.00,104.92
2180.00,104.92
2179.00,104.91
2178.00,104.91
2177.00,104.91
2176.00,104.91
2175.00,104.91
2174.00,104.91
2173.00,104.91
2172.00,104.91
2171.00,104.91
2170.00,104.92
2169.00,104.92
2168.00,104.92
2167.00,104.92
2166.00,104.92
2165.00,104.93
2164.00,104.93
2163.00,104.94
2162.00,104.94
2161.00,104.94
2160.00,104.94
2159.00,104.95
2158.00,104.95
2157.00,104.95
2156.00,104.96
2155.00,104.96
2154.00,104.96
2153.00,104.96
2152.00,104.97
2151.00,104.97
2150.00,104.97
2149.00,104.97
2148.00,104.97
2147.00,104.97
2146.00,104.97
2145.00,104.97
2144.00,104.97
2143.00,104.96
2142.00,104.96
2141.00,104.96
2140.00,104.96
2139.00,104.96
2138.00,104.96
2137.00,104.95
2136.00,104.95
2135.00,104.95
2134.00,104.94
2133.00,104.94
2132.00,104.94
2131.00,104.94
2130.00,104.93
2129.00,104.93
2128.00,104.93
2127.00,104.93
2126.00,104.93
2125.00,104.92
2124.00,104.92
2123.00,104.92
2122.00,104.92
2121.00,104.92
2120.00,104.92
2119.00,104.92
2118.00,104.92
2117.00,104.92
2116.00,104.93
2115.00,104.93
2114.00,104.93
2113.00,104.93
2112.00,104.93
2111.00,104.93
2110.00,104.94
2109.00,104.94
2108.00,104.94
2107.00,104.94
2106.00,104.94
2105.00,104.94
2104.00,104.95
2103.00,104.95
2102.00,104.95
2101.00,104.95
2100.00,104.95
2099.00,104.95
2098.00,104.95
2097.00,104.95
2096.00,104.95
2095.00,104.95
2094.00,104.95
2093.00,104.95
2092.00,104.95
2091.00,104.95
2090.00,104.95
2089.00,104.95
2088.00,104.95
2087.00,104.95
2086.00,104.95
2085.00,104.95
2084.00,104.94
2083.00,104.94
2082.00,104.94
2081.00,104.94
2080.00,104.94
2079.00,104.93
2078.00,104.93
2077.00,104.93
2076.00,104.93
2075.00,104.93
2074.00,104.93
2073.00,104.93
2072.00,104.93
2071.00,104.92
2070.00,104.92
2069.00,104.92
2068.00,104.92
2067.00,104.92
2066.00,104.92
2065.00,104.92
2064.00,104.92
2063.00,104.92
2062.00,104.92
2061.00,104.92
2060.00,104.93
2059.00,104.93
2058.00,104.93
2057.00,104.93
2056.00,104.93
2055.00,104.93
2054.00,104.94
2053.00,104.94
2052.00,104.94
2051.00,104.94
2050.00,104.95
2049.00,104.95
2048.00,104.95
2047.00,104.95
2046.00,104.96
2045.00,104.96
2044.00,104.96
2043.00,104.96
2042.00,104.97
2041.00,104.97
2040.00,104.97
2039.00,104.97
2038.00,104.97
2037.00,104.97
2036.00,104.97
2035.00,104.97
2034.00,104.97
2033.00,104.97
2032.00,104.97
2031.00,104.96
2030.00,104.96
2029.00,104.96
2028.00,104.96
2027.00,104.95
2026.00,104.95
2025.00,104.95
2024.00,104.95
2023.00,104.94
2022.00,104.94
2021.00,104.94
2020.00,104.93
2019.00,104.93
2018.00,104.93
2017.00,104.93
2016.00,104.93
2015.00,104.92
2014.00,104.92
2013.00,104.92
2012.00,104.92
2011.00,104.92
2010.00,104.92
2009.00,104.92
2008.00,104.92
2007.00,104.92
2006.00,104.93
2005.00,104.93
2004.00,104.93
2003.00,104.94
2002.00,104.94
2001.00,104.94
2000.00,104.95
1999.00,104.95
1998.00,104.95
1997.00,104.96
1996.00,104.96
1995.00,104.97
1994.00,104.97
1993.00,104.97
1992.00,104.98
1991.00,104.98
1990.00,104.98
1989.00,104.99
1988.00,104.99
1987.00,104.99
1986.00,104.99
1985.00,104.99
1984.00,105.00
1983.00,105.00
1982.00,105.00
1981.00,105.00
1980.00,105.00
1979.00,105.00
1978.00,105.00
1977.00,104.99
1976.00,104.99
1975.00,104.99
1974.00,104.99
1973.00,104.98
1972.00,104.98
1971.00,104.98
1970.00,104.98
1969.00,104.97
1968.00,104.97
1967.00,104.97
1966.00,104.96
1965.00,104.96
1964.00,104.96
1963.00,104.96
1962.00,104.96
1961.00,104.97
1960.00,104.97
1959.00,104.97
1958.00,104.97
1957.00,104.97
1956.00,104.98
1955.00,104.98
1954.00,104.99
1953.00,104.99
1952.00,105.00
1951.00,105.00
1950.00,105.01
1949.00,105.01
1948.00,105.01
1947.00,105.02
1946.00,105.02
1945.00,105.02
1944.00,105.03
1943.00,105.03
1942.00,105.03
1941.00,105.03
1940.00,105.03
1939.00,105.02
1938.00,105.02
1937.00,105.02
1936.00,105.02
1935.00,105.02
1934.00,105.01
1933.00,105.01
1932.00,105.01
1931.00,105.00
1930.00,105.00
1929.00,105.00
1928.00,104.99
1927.00,104.99
1926.00,104.98
1925.00,104.98
1924.00,104.98
1923.00,104.98
1922.00,104.97
1921.00,104.97
1920.00,104.97
1919.00,104.96
1918.00,104.96
1917.00,104.96
1916.00,104.96
1915.00,104.96
1914.00,104.95
1913.00,104.95
1912.00,104.95
1911.00,104.95
1910.00,104.95
1909.00,104.95
1908.00,104.95
1907.00,104.95
1906.00,104.94
1905.00,104.94
1904.00,104.95
1903.00,104.95
1902.00,104.95
1901.00,104.95
1900.00,104.95
1899.00,104.95
1898.00,104.96
1897.00,104.96
1896.00,104.96
1895.00,104.96
1894.00,104.97
1893.00,104.97
1892.00,104.97
1891.00,104.98
1890.00,104.98
1889.00,104.99
1888.00,104.99
1887.00,104.99
1886.00,104.99
1885.00,104.99
1884.00,105.00
1883.00,105.00
1882.00,105.00
1881.00,105.01
1880.00,105.01
1879.00,105.01
1878.00,105.01
1877.00,105.01
1876.00,105.01
1875.00,105.01
1874.00,105.01
1873.00,105.01
1872.00,105.01
1871.00,105.00
1870.00,105.00
1869.00,105.00
1868.00,105.00
1867.00,105.00
1866.00,104.99
1865.00,104.99
1864.00,104.99
1863.00,104.99
1862.00,104.98
1861.00,104.98
1860.00,104.98
1859.00,104.98
1858.00,104.98
1857.00,104.98
1856.00,104.99
1855.00,104.99
1854.00,104.99
1853.00,104.99
1852.00,105.00
1851.00,105.00
1850.00,105.00
1849.00,105.00
1848.00,105.01
1847.00,105.01
1846.00,105.01
1845.00,105.02
1844.00,105.02
1843.00,105.02
1842.00,105.02
1841.00,105.02
1840.00,105.02
1839.00,105.03
1838.00,105.03
1837.00,105.03
1836.00,105.03
1835.00,105.04
1834.00,105.04
1833.00,105.04
1832.00,105.04
1831.00,105.04
1830.00,105.04
1829.00,105.04
1828.00,105.04
1827.00,105.04
1826.00,105.04
1825.00,105.04
1824.00,105.04
1823.00,105.04
1822.00,105.04
1821.00,105.04
1820.00,105.04
1819.00,105.04
1818.00,105.04
1817.00,105.04
1816.00,105.04
1815.00,105.04
1814.00,105.04
1813.00,105.04
1812.00,105.04
1811.00,105.04
1810.00,105.03
1809.00,105.03
1808.00,105.03
1807.00,105.03
1806.00,105.03
1805.00,105.03
1804.00,105.03
1803.00,105.03
1802.00,105.03
1801.00,105.03
1800.00,105.03
1799.00,105.03
1798.00,105.04
1797.00,105.04
1796.00,105.04
1795.00,105.04
1794.00,105.05
1793.00,105.05
1792.00,105.05
1791.00,105.06
1790.00,105.06
1789.00,105.06
1788.00,105.06
1787.00,105.07
1786.00,105.07
1785.00,105.07
1784.00,105.08
1783.00,105.08
1782.00,105.08
1781.00,105.09
1780.00,105.09
1779.00,105.09
1778.00,105.09
1777.00,105.09
1776.00,105.09
1775.00,105.09
1774.00,105.09
1773.00,105.09
1772.00,105.09
1771.00,105.09
1770.00,105.09
1769.00,105.08
1768.00,105.08
1767.00,105.08
1766.00,105.08
1765.00,105.08
1764.00,105.08
1763.00,105.07
1762.00,105.07
1761.00,105.07
1760.00,105.06
1759.00,105.06
1758.00,105.05
1757.00,105.05
1756.00,105.05
1755.00,105.04
1754.00,105.04
1753.00,105.03
1752.00,105.02
1751.00,105.02
1750.00,105.02
1749.00,105.03
1748.00,105.03
1747.00,105.03
1746.00,105.03
1745.00,105.03
1744.00,105.03
1743.00,105.04
1742.00,105.04
1741.00,105.04
1740.00,105.04
1739.00,105.05
1738.00,105.05
1737.00,105.05
1736.00,105.05
1735.00,105.04
1734.00,105.05
1733.00,105.05
1732.00,105.05
1731.00,105.06
1730.00,105.06
1729.00,105.07
1728.00,105.07
1727.00,105.08
1726.00,105.08
1725.00,105.08
1724.00,105.08
1723.00,105.08
1722.00,105.08
1721.00,105.08
1720.00,105.08
1719.00,105.08
1718.00,105.08
1717.00,105.07
1716.00,105.07
1715.00,105.07
1714.00,105.07
1713.00,105.07
1712.00,105.07
1711.00,105.07
1710.00,105.07
1709.00,105.07
1708.00,105.07
1707.00,105.06
1706.00,105.06
1705.00,105.06
1704.00,105.06
1703.00,105.06
1702.00,105.05
1701.00,105.04
1700.00,105.04
1699.00,105.04
1698.00,105.04
1697.00,105.03
1696.00,105.03
1695.00,105.04
1694.00,105.04
1693.00,105.04
1692.00,105.04
1691.00,105.04
1690.00,105.05
1689.00,105.05
1688.00,105.05
1687.00,105.05
1686.00,105.05
1685.00,105.05
1684.00,105.06
1683.00,105.06
1682.00,105.06
1681.00,105.06
1680.00,105.06
1679.00,105.06
1678.00,105.07
1677.00,105.07
1676.00,105.07
1675.00,105.07
1674.00,105.07
1673.00,105.07
1672.00,105.07
1671.00,105.06
1670.00,105.07
1669.00,105.07
1668.00,105.07
1667.00,105.07
1666.00,105.07
1665.00,105.07
1664.00,105.07
1663.00,105.07
1662.00,105.07
1661.00,105.07
1660.00,105.06
1659.00,105.06
1658.00,105.06
1657.00,105.06
1656.00,105.06
1655.00,105.06
1654.00,105.05
1653.00,105.05
1652.00,105.05
1651.00,105.04
1650.00,105.03
1649.00,105.03
1648.00,105.03
1647.00,105.03
1646.00,105.03
1645.00,105.03
1644.00,105.03
1643.00,105.03
1642.00,105.03
1641.00,105.03
1640.00,105.04
1639.00,105.04
1638.00,105.04
1637.00,105.04
1636.00,105.04
1635.00,105.05
1634.00,105.05
1633.00,105.05
1632.00,105.05
1631.00,105.05
1630.00,105.05
1629.00,105.06
1628.00,105.06
1627.00,105.06
1626.00,105.07
1625.00,105.07
1624.00,105.07
1623.00,105.07
1622.00,105.07
1621.00,105.07
1620.00,105.08
1619.00,105.08
1618.00,105.07
1617.00,105.08
1616.00,105.08
1615.00,105.07
1614.00,105.07
1613.00,105.07
1612.00,105.07
1611.00,105.07
1610.00,105.08
1609.00,105.08
1608.00,105.08
1607.00,105.08
1606.00,105.08
1605.00,105.07
1604.00,105.07
1603.00,105.07
1602.00,105.07
1601.00,105.07
1600.00,105.07
1599.00,105.06
1598.00,105.06
1597.00,105.06
1596.00,105.06
1595.00,105.06
1594.00,105.05
1593.00,105.05
1592.00,105.05
1591.00,105.05
1590.00,105.05
1589.00,105.05
1588.00,105.05
1587.00,105.05
1586.00,105.05
1585.00,105.05
1584.00,105.05
1583.00,105.05
1582.00,105.06
1581.00,105.06
1580.00,105.06
1579.00,105.07
1578.00,105.07
1577.00,105.07
1576.00,105.07
1575.00,105.07
1574.00,105.07
1573.00,105.08
1572.00,105.08
1571.00,105.08
1570.00,105.09
1569.00,105.09
1568.00,105.09
1567.00,105.08
1566.00,105.08
1565.00,105.09
1564.00,105.09
1563.00,105.09
1562.00,105.09
1561.00,105.09
1560.00,105.08
1559.00,105.08
1558.00,105.08
1557.00,105.07
1556.00,105.07
1555.00,105.06
1554.00,105.06
1553.00,105.07
1552.00,105.07
1551.00,105.07
1550.00,105.07
1549.00,105.07
1548.00,105.07
1547.00,105.06
1546.00,105.06
1545.00,105.06
1544.00,105.06
1543.00,105.06
1542.00,105.06
1541.00,105.05
1540.00,105.05
1539.00,105.05
1538.00,105.05
1537.00,105.05
1536.00,105.05
1535.00,105.05
1534.00,105.05
1533.00,105.06
1532.00,105.06
1531.00,105.05
1530.00,105.05
1529.00,105.05
1528.00,105.06
1527.00,105.06
1526.00,105.06
1525.00,105.06
1524.00,105.06
1523.00,105.06
1522.00,105.06
1521.00,105.06
1520.00,105.07
1519.00,105.07
1518.00,105.07
1517.00,105.07
1516.00,105.07
1515.00,105.08
1514.00,105.08
1513.00,105.07
1512.00,105.08
1511.00,105.08
1510.00,105.08
1509.00,105.08
1508.00,105.07
1507.00,105.07
1506.00,105.07
1505.00,105.07
1504.00,105.07
1503.00,105.07
1502.00,105.07
1501.00,105.07
1500.00,105.06
1499.00,105.06
1498.00,105.05
1497.00,105.04
1496.00,105.03
1495.00,105.03
1494.00,105.02
1493.00,105.02
1492.00,105.02
1491.00,105.03
1490.00,105.03
1489.00,105.03
1488.00,105.04
1487.00,105.04
1486.00,105.04
1485.00,105.04
1484.00,105.05
1483.00,105.05
1482.00,105.05
1481.00,105.05
1480.00,105.05
1479.00,105.05
1478.00,105.05
1477.00,105.05
1476.00,105.06
1475.00,105.06
1474.00,105.05
1473.00,105.05
1472.00,105.06
1471.00,105.06
1470.00,105.07
1469.00,105.07
1468.00,105.08
1467.00,105.08
1466.00,105.08
1465.00,105.08
1464.00,105.08
1463.00,105.08
1462.00,105.09
1461.00,105.09
1460.00,105.09
1459.00,105.09
1458.00,105.08
1457.00,105.08
1456.00,105.07
1455.00,105.07
1454.00,105.07
1453.00,105.07
1452.00,105.07
1451.00,105.08
1450.00,105.08
1449.00,105.08
1448.00,105.08
1447.00,105.08
1446.00,105.08
1445.00,105.08
1444.00,105.08
1443.00,105.08
1442.00,105.07
1441.00,105.07
1440.00,105.07
1439.00,105.06
1438.00,105.06
1437.00,105.05
1436.00,105.05
1435.00,105.05
1434.00,105.05
1433.00,105.05
1432.00,105.05
1431.00,105.05
1430.00,105.05
1429.00,105.05
1428.00,105.05
1427.00,105.05
1426.00,105.05
1425.00,105.05
1424.00,105.05
1423.00,105.05
1422.00,105.05
1421.00,105.05
1420.00,105.05
1419.00,105.06
1418.00,105.06
1417.00,105.06
1416.00,105.07
1415.00,105.07
1414.00,105.08
1413.00,105.08
1412.00,105.08
1411.00,105.08
1410.00,105.09
1409.00,105.09
1408.00,105.09
1407.00,105.08
1406.00,105.08
1405.00,105.08
1404.00,105.08
1403.00,105.08
1402.00,105.08
1401.00,105.08
1400.00,105.08
1399.00,105.08
1398.00,105.08
1397.00,105.08
1396.00,105.08
1395.00,105.09
1394.00,105.09
1393.00,105.09
1392.00,105.08
1391.00,105.08
1390.00,105.08
1389.00,105.08
1388.00,105.08
1387.00,105.08
1386.00,105.07
1385.00,105.07
1384.00,105.07
1383.00,105.07
1382.00,105.07
1381.00,105.06
1380.00,105.06
1379.00,105.06
1378.00,105.06
1377.00,105.06
1376.00,105.06
1375.00,105.06
1374.00,105.06
1373.00,105.06
1372.00,105.06
1371.00,105.06
1370.00,105.06
1369.00,105.06
1368.00,105.06
1367.00,105.06
1366.00,105.07
1365.00,105.07
1364.00,105.07
1363.00,105.07
1362.00,105.07
1361.00,105.07
1360.00,105.07
1359.00,105.07
1358.00,105.08
1357.00,105.08
1356.00,105.08
1355.00,105.08
1354.00,105.08
1353.00,105.08
1352.00,105.08
1351.00,105.08
1350.00,105.09
1349.00,105.09
1348.00,105.08
1347.00,105.08
1346.00,105.08
1345.00,105.08
1344.00,105.08
1343.00,105.08
1342.00,105.08
1341.00,105.08
1340.00,105.08
1339.00,105.08
1338.00,105.07
1337.00,105.07
1336.00,105.07
1335.00,105.07
1334.00,105.06
1333.00,105.06
1332.00,105.06
1331.00,105.06
1330.00,105.06
1329.00,105.06
1328.00,105.06
1327.00,105.05
1326.00,105.05
1325.00,105.05
1324.00,105.05
1323.00,105.05
1322.00,105.05
1321.00,105.05
1320.00,105.05
1319.00,105.05
1318.00,105.05
1317.00,105.05
1316.00,105.06
1315.00,105.06
1314.00,105.06
1313.00,105.06
1312.00,105.06
1311.00,105.06
1310.00,105.06
1309.00,105.07
1308.00,105.07
1307.00,105.07
1306.00,105.08
1305.00,105.08
1304.00,105.08
1303.00,105.08
1302.00,105.08
1301.00,105.08
1300.00,105.08
1299.00,105.08
1298.00,105.08
1297.00,105.08
1296.00,105.08
1295.00,105.08
1294.00,105.08
1293.00,105.08
1292.00,105.08
1291.00,105.08
1290.00,105.07
1289.00,105.07
1288.00,105.07
1287.00,105.07
1286.00,105.06
1285.00,105.06
1284.00,105.06
1283.00,105.05
1282.00,105.05
1281.00,105.05
1280.00,105.04
1279.00,105.04
1278.00,105.04
1277.00,105.04
1276.00,105.04
1275.00,105.03
1274.00,105.03
1273.00,105.03
1272.00,105.03
1271.00,105.03
1270.00,105.03
1269.00,105.03
1268.00,105.03
1267.00,105.03
1266.00,105.03
1265.00,105.03
1264.00,105.03
1263.00,105.03
1262.00,105.03
1261.00,105.04
1260.00,105.04
1259.00,105.04
1258.00,105.04
1257.00,105.05
1256.00,105.05
1255.00,105.05
1254.00,105.05
1253.00,105.05
1252.00,105.05
1251.00,105.05
1250.00,105.05
1249.00,105.06
1248.00,105.06
1247.00,105.06
1246.00,105.06
1245.00,105.06
1244.00,105.06
1243.00,105.06
1242.00,105.06
1241.00,105.06
1240.00,105.06
1239.00,105.06
1238.00,105.06
1237.00,105.06
1236.00,105.06
1235.00,105.05
1234.00,105.05
1233.00,105.05
1232.00,105.05
1231.00,105.04
1230.00,105.04
1229.00,105.04
1228.00,105.03
1227.00,105.03
1226.00,105.03
1225.00,105.03
1224.00,105.02
1223.00,105.02
1222.00,105.02
1221.00,105.02
1220.00,105.01
1219.00,105.01
1218.00,105.01
1217.00,105.01
1216.00,105.01
1215.00,105.00
1214.00,105.00
1213.00,105.00
1212.00,105.00
1211.00,105.00
1210.00,105.00
1209.00,105.00
1208.00,105.01
1207.00,105.01
1206.00,105.01
1205.00,105.01
1204.00,105.01
1203.00,105.01
1202.00,105.02
1201.00,105.02
1200.00,105.02
1199.00,105.02
1198.00,105.03
1197.00,105.03
1196.00,105.03
1195.00,105.03
1194.00,105.03
1193.00,105.03
1192.00,105.04
1191.00,105.04
1190.00,105.04
1189.00,105.04
1188.00,105.04
1187.00,105.04
1186.00,105.04
1185.00,105.04
1184.00,105.04
1183.00,105.04
1182.00,105.03
1181.00,105.03
1180.00,105.03
1179.00,105.03
1178.00,105.02
1177.00,105.02
1176.00,105.02
1175.00,105.02
1174.00,105.01
1173.00,105.01
1172.00,105.01
1171.00,105.01
1170.00,105.01
1169.00,105.01
1168.00,105.00
1167.00,105.00
1166.00,105.00
1165.00,105.00
1164.00,105.00
1163.00,105.00
1162.00,105.00
1161.00,105.00
1160.00,105.00
1159.00,105.00
1158.00,105.00
1157.00,105.00
1156.00,105.00
1155.00,105.00
1154.00,105.00
1153.00,105.00
1152.00,105.01
1151.00,105.01
1150.00,105.01
1149.00,105.01
1148.00,105.01
1147.00,105.01
1146.00,105.02
1145.00,105.02
1144.00,105.02
1143.00,105.02
1142.00,105.03
1141.00,105.03
1140.00,105.03
1139.00,105.03
1138.00,105.03
1137.00,105.03
1136.00,105.03
1135.00,105.03
1134.00,105.03
1133.00,105.03
1132.00,105.03
1131.00,105.03
1130.00,105.03
1129.00,105.03
1128.00,105.03
1127.00,105.03
1126.00,105.03
1125.00,105.02
1124.00,105.02
1123.00,105.02
1122.00,105.02
1121.00,105.02
1120.00,105.02
1119.00,105.01
1118.00,105.01
1117.00,105.01
1116.00,105.01
1115.00,105.01
1114.00,105.01
1113.00,105.00
1112.00,105.00
1111.00,105.00
1110.00,105.00
1109.00,105.01
1108.00,105.01
1107.00,105.01
1106.00,105.01
1105.00,105.01
1104.00,105.01
1103.00,105.01
1102.00,105.01
1101.00,105.02
1100.00,105.02
1099.00,105.02
1098.00,105.03
1097.00,105.03
1096.00,105.03
1095.00,105.03
1094.00,105.03
1093.00,105.04
1092.00,105.04
1091.00,105.04
1090.00,105.04
1089.00,105.05
1088.00,105.05
1087.00,105.05
1086.00,105.05
1085.00,105.05
1084.00,105.05
1083.00,105.05
1082.00,105.06
1081.00,105.06
1080.00,105.05
1079.00,105.05
1078.00,105.05
1077.00,105.05
1076.00,105.05
1075.00,105.05
1074.00,105.05
1073.00,105.05
1072.00,105.04
1071.00,105.04
1070.00,105.04
1069.00,105.04
1068.00,105.04
1067.00,105.04
1066.00,105.04
1065.00,105.04
1064.00,105.04
1063.00,105.03
1062.00,105.03
1061.00,105.03
1060.00,105.03
1059.00,105.03
1058.00,105.03
1057.00,105.03
1056.00,105.03
1055.00,105.03
1054.00,105.03
1053.00,105.02
1052.00,105.02
1051.00,105.02
1050.00,105.02
1049.00,105.02
1048.00,105.03
1047.00,105.03
1046.00,105.04
1045.00,105.04
1044.00,105.05
1043.00,105.05
1042.00,105.06
1041.00,105.06
1040.00,105.06
1039.00,105.07
1038.00,105.07
1037.00,105.07
1036.00,105.07
1035.00,105.07
1034.00,105.07
1033.00,105.08
1032.00,105.08
1031.00,105.08
1030.00,105.08
1029.00,105.08
1028.00,105.08
1027.00,105.09
1026.00,105.09
1025.00,105.09
1024.00,105.09
1023.00,105.09
1022.00,105.09
1021.00,105.09
1020.00,105.09
1019.00,105.09
1018.00,105.09
1017.00,105.09
1016.00,105.09
1015.00,105.09
1014.00,105.09
1013.00,105.09
1012.00,105.08
1011.00,105.08
1010.00,105.08
1009.00,105.08
1008.00,105.08
1007.00,105.08
1006.00,105.08
1005.00,105.08
1004.00,105.08
1003.00,105.08
1002.00,105.08
1001.00,105.08
1000.00,105.08
999.00,105.08
998.00,105.08
997.00,105.08
996.00,105.08
995.00,105.08
994.00,105.08
993.00,105.09
992.00,105.09
991.00,105.09
990.00,105.09
989.00,105.10
988.00,105.10
987.00,105.10
986.00,105.10
985.00,105.10
984.00,105.11
983.00,105.11
982.00,105.11
981.00,105.11
980.00,105.11
979.00,105.11
978.00,105.12
977.00,105.12
976.00,105.12
975.00,105.12
974.00,105.12
973.00,105.12
972.00,105.12
971.00,105.12
970.00,105.12
969.00,105.12
968.00,105.12
967.00,105.12
966.00,105.12
965.00,105.12
964.00,105.11
963.00,105.11
962.00,105.11
961.00,105.11
960.00,105.11
959.00,105.11
958.00,105.11
957.00,105.11
956.00,105.11
955.00,105.11
954.00,105.11
953.00,105.10
952.00,105.10
951.00,105.10
950.00,105.10
949.00,105.10
948.00,105.10
947.00,105.10
946.00,105.11
945.00,105.11
944.00,105.11
943.00,105.11
942.00,105.11
941.00,105.12
940.00,105.12
939.00,105.12
938.00,105.12
937.00,105.12
936.00,105.13
935.00,105.13
934.00,105.13
933.00,105.13
932.00,105.13
931.00,105.13
930.00,105.13
929.00,105.13
928.00,105.14
927.00,105.14
926.00,105.14
925.00,105.14
924.00,105.14
923.00,105.14
922.00,105.14
921.00,105.14
920.00,105.14
919.00,105.14
918.00,105.13
917.00,105.13
916.00,105.13
915.00,105.13
914.00,105.12
913.00,105.12
912.00,105.12
911.00,105.12
910.00,105.11
909.00,105.11
908.00,105.11
907.00,105.10
906.00,105.10
905.00,105.10
904.00,105.10
903.00,105.09
902.00,105.09
901.00,105.09
900.00,105.09
899.00,105.09
898.00,105.08
897.00,105.08
896.00,105.08
895.00,105.08
894.00,105.08
893.00,105.08
892.00,105.08
891.00,105.09
890.00,105.09
889.00,105.09
888.00,105.09
887.00,105.09
886.00,105.09
885.00,105.08
884.00,105.08
883.00,105.09
882.00,105.09
881.00,105.09
880.00,105.09
879.00,105.09
878.00,105.09
877.00,105.09
876.00,105.09
875.00,105.08
874.00,105.08
873.00,105.08
872.00,105.08
871.00,105.09
870.00,105.09
869.00,105.09
868.00,105.09
867.00,105.09
866.00,105.09
865.00,105.09
864.00,105.09
863.00,105.08
862.00,105.08
861.00,105.08
860.00,105.08
859.00,105.08
858.00,105.08
857.00,105.07
856.00,105.07
855.00,105.07
854.00,105.07
853.00,105.06
852.00,105.06
851.00,105.06
850.00,105.06
849.00,105.06
848.00,105.05
847.00,105.05
846.00,105.05
845.00,105.05
844.00,105.05
843.00,105.05
842.00,105.05
841.00,105.05
840.00,105.04
839.00,105.04
838.00,105.04
837.00,105.04
836.00,105.04
835.00,105.04
834.00,105.04
833.00,105.04
832.00,105.04
831.00,105.04
830.00,105.04
829.00,105.03
828.00,105.03
827.00,105.03
826.00,105.03
825.00,105.03
824.00,105.03
823.00,105.04
822.00,105.04
821.00,105.04
820.00,105.05
819.00,105.05
818.00,105.05
817.00,105.05
816.00,105.05
815.00,105.05
814.00,105.05
813.00,105.05
812.00,105.05
811.00,105.05
810.00,105.05
809.00,105.05
808.00,105.05
807.00,105.06
806.00,105.06
805.00,105.06
804.00,105.06
803.00,105.06
802.00,105.06
801.00,105.06
800.00,105.06
799.00,105.06
798.00,105.05
797.00,105.05
796.00,105.05
795.00,105.05
794.00,105.05
793.00,105.05
792.00,105.05
791.00,105.05
790.00,105.05
789.00,105.05
788.00,105.04
787.00,105.04
786.00,105.04
785.00,105.04
784.00,105.04
783.00,105.05
782.00,105.04
781.00,105.04
780.00,105.04
779.00,105.04
778.00,105.04
777.00,105.04
776.00,105.04
775.00,105.04
774.00,105.05
773.00,105.05
772.00,105.05
771.00,105.05
770.00,105.05
769.00,105.05
768.00,105.04
767.00,105.04
766.00,105.04
765.00,105.05
764.00,105.04
763.00,105.04
762.00,105.04
761.00,105.04
760.00,105.04
759.00,105.04
758.00,105.03
757.00,105.03
756.00,105.03
755.00,105.03
754.00,105.03
753.00,105.02
752.00,105.02
751.00,105.02
750.00,105.02
749.00,105.02
748.00,105.02
747.00,105.02
746.00,105.01
745.00,105.01
744.00,105.01
743.00,105.00
742.00,105.00
741.00,105.00
740.00,105.00
739.00,105.00
738.00,105.00
737.00,105.00
736.00,105.00
735.00,105.00
734.00,105.00
733.00,105.00
732.00,105.00
731.00,105.00
730.00,105.00
729.00,105.00
728.00,105.00
727.00,105.00
726.00,105.00
725.00,105.00
724.00,105.00
723.00,105.00
722.00,105.00
721.00,105.00
720.00,105.00
719.00,105.01
718.00,105.01
717.00,105.01
716.00,105.01
715.00,105.01
714.00,105.01
713.00,105.01
712.00,105.01
711.00,105.01
710.00,105.01
709.00,105.01
708.00,105.00
707.00,105.00
706.00,105.00
705.00,104.99
704.00,104.99
703.00,104.99
702.00,104.99
701.00,104.99
700.00,104.98
699.00,104.98
698.00,104.98
697.00,104.98
696.00,104.98
695.00,104.98
694.00,104.98
693.00,104.98
692.00,104.97
691.00,104.97
690.00,104.96
689.00,104.95
688.00,104.95
687.00,104.95
686.00,104.95
685.00,104.95
684.00,104.95
683.00,104.95
682.00,104.95
681.00,104.95
680.00,104.95
679.00,104.96
678.00,104.96
677.00,104.96
676.00,104.96
675.00,104.96
674.00,104.96
673.00,104.96
672.00,104.96
671.00,104.97
670.00,104.99
669.00,105.02
668.00,105.05
667.00,105.04
666.00,105.01
665.00,104.99
664.00,104.98
663.00,104.97
662.00,104.97
661.00,104.97
660.00,104.97
659.00,104.96
658.00,104.97
657.00,104.97
656.00,104.97
655.00,104.96
654.00,104.96
653.00,104.96
652.00,104.96
651.00,104.96
650.00,104.95
649.00,104.95
648.00,104.95
647.00,104.95
646.00,104.95
645.00,104.94
644.00,104.94
643.00,104.93
642.00,104.93
641.00,104.93
640.00,104.94
639.00,104.94
638.00,104.94
637.00,104.94
636.00,104.94
635.00,104.94
634.00,104.94
633.00,104.93
632.00,104.93
631.00,104.93
630.00,104.93
629.00,104.93
628.00,104.93
627.00,104.93
626.00,104.93
625.00,104.93
624.00,104.93
623.00,104.94
622.00,104.94
621.00,104.94
620.00,104.94
619.00,104.94
618.00,104.94
617.00,104.94
616.00,104.94
615.00,104.94
614.00,104.95
613.00,104.95
612.00,104.95
611.00,104.95
610.00,104.95
609.00,104.95
608.00,104.95
607.00,104.94
606.00,104.94
605.00,104.94
604.00,104.94
603.00,104.94
602.00,104.94
601.00,104.95
600.00,104.95
599.00,104.95
598.00,104.95
597.00,104.95
596.00,104.95
595.00,104.95
594.00,104.95
593.00,104.95
592.00,104.94
591.00,104.94
590.00,104.93
589.00,104.93
588.00,104.94
587.00,104.94
586.00,104.94
585.00,104.95
584.00,104.95
583.00,104.95
582.00,104.95
581.00,104.94
580.00,104.94
579.00,104.93
578.00,104.94
577.00,104.94
576.00,104.95
575.00,104.95
574.00,104.96
573.00,104.96
572.00,104.96
571.00,104.95
570.00,104.95
569.00,104.95
568.00,104.95
567.00,104.95
566.00,104.95
565.00,104.95
564.00,104.95
563.00,104.95
562.00,104.96
561.00,104.96
560.00,104.96
559.00,104.96
558.00,104.96
557.00,104.96
556.00,104.96
555.00,104.97
554.00,104.97
553.00,104.97
552.00,104.96
551.00,104.96
550.00,104.97
549.00,104.97
548.00,104.97
547.00,104.97
546.00,104.97
545.00,104.97
544.00,104.97
543.00,104.97
542.00,104.98
541.00,104.98
540.00,104.98
539.00,104.97
538.00,104.97
537.00,104.96
536.00,104.96
535.00,104.97
534.00,104.97
533.00,104.98
532.00,104.98
531.00,104.97
530.00,104.96
529.00,104.96
528.00,104.96
527.00,104.96
526.00,104.96
525.00,104.96
524.00,104.96
523.00,104.97
522.00,104.97
521.00,104.97
520.00,104.97
519.00,104.97
518.00,104.97
517.00,104.96
516.00,104.96
515.00,104.96
514.00,104.96
513.00,104.96
512.00,104.95
511.00,104.95
510.00,104.94
509.00,104.94
508.00,104.93
507.00,104.93
506.00,104.93
505.00,104.93
504.00,104.94
503.00,104.94
502.00,104.94
501.00,104.93
500.00,104.92
