Created as New Dataset,Sample 392 By Analyst Date Monday, February 10 2025
cm-1,%T
4000.00,129.44
3999.00,129.44
3998.00,129.43
3997.00,129.43
3996.00,129.42
3995.00,129.42
3994.00,129.41
3993.00,129.41
3992.00,129.40
3991.00,129.39
3990.00,129.39
3989.00,129.38
3988.00,129.37
3987.00,129.36
3986.00,129.36
3985.00,129.35
3984.00,129.34
3983.00,129.34
3982.00,129.33
3981.00,129.32
3980.00,129.32
3979.00,129.31
3978.00,129.30
3977.00,129.30
3976.00,129.29
3975.00,129.29
3974.00,129.28
3973.00,129.28
3972.00,129.27
3971.00,129.27
3970.00,129.26
3969.00,129.26
3968.00,129.26
3967.00,129.25
3966.00,129.25
3965.00,129.25
3964.00,129.25
3963.00,129.25
3962.00,129.25
3961.00,129.25
3960.00,129.25
3959.00,129.25
3958.00,129.25
3957.00,129.26
3956.00,129.26
3955.00,129.26
3954.00,129.27
3953.00,129.27
3952.00,129.27
3951.00,129.27
3950.00,129.27
3949.00,129.27
3948.00,129.27
3947.00,129.27
3946.00,129.27
3945.00,129.27
3944.00,129.27
3943.00,129.27
3942.00,129.27
3941.00,129.27
3940.00,129.26
3939.00,129.25
3938.00,129.25
3937.00,129.25
3936.00,129.25
3935.00,129.24
3934.00,129.23
3933.00,129.22
3932.00,129.22
3931.00,129.22
3930.00,129.21
3929.00,129.21
3928.00,129.20
3927.00,129.20
3926.00,129.19
3925.00,129.19
3924.00,129.18
3923.00,129.17
3922.00,129.16
3921.00,129.15
3920.00,129.15
3919.00,129.15
3918.00,129.14
3917.00,129.14
3916.00,129.14
3915.00,129.14
3914.00,129.13
3913.00,129.13
3912.00,129.13
3911.00,129.14
3910.00,129.14
3909.00,129.14
3908.00,129.15
3907.00,129.15
3906.00,129.15
3905.00,129.16
3904.00,129.16
3903.00,129.16
3902.00,129.16
3901.00,129.16
3900.00,129.16
3899.00,129.17
3898.00,129.18
3897.00,129.18
3896.00,129.18
3895.00,129.18
3894.00,129.18
3893.00,129.18
3892.00,129.18
3891.00,129.18
3890.00,129.18
3889.00,129.17
3888.00,129.16
3887.00,129.15
3886.00,129.17
3885.00,129.18
3884.00,129.18
3883.00,129.16
3882.00,129.15
3881.00,129.16
3880.00,129.17
3879.00,129.16
3878.00,129.15
3877.00,129.13
3876.00,129.13
3875.00,129.14
3874.00,129.16
3873.00,129.15
3872.00,129.13
3871.00,129.11
3870.00,129.12
3869.00,129.14
3868.00,129.14
3867.00,129.12
3866.00,129.11
3865.00,129.12
3864.00,129.13
3863.00,129.12
3862.00,129.10
3861.00,129.09
3860.00,129.10
3859.00,129.11
3858.00,129.13
3857.00,129.15
3856.00,129.16
3855.00,129.16
3854.00,129.17
3853.00,129.18
3852.00,129.17
3851.00,129.15
3850.00,129.14
3849.00,129.14
3848.00,129.14
3847.00,129.12
3846.00,129.11
3845.00,129.10
3844.00,129.10
3843.00,129.10
3842.00,129.11
3841.00,129.11
3840.00,129.10
3839.00,129.11
3838.00,129.11
3837.00,129.11
3836.00,129.10
3835.00,129.10
3834.00,129.09
3833.00,129.08
3832.00,129.07
3831.00,129.06
3830.00,129.05
3829.00,129.03
3828.00,129.01
3827.00,129.01
3826.00,129.02
3825.00,129.02
3824.00,129.00
3823.00,128.98
3822.00,128.98
3821.00,129.00
3820.00,129.01
3819.00,128.99
3818.00,128.96
3817.00,128.95
3816.00,128.96
3815.00,128.97
3814.00,128.95
3813.00,128.93
3812.00,128.93
3811.00,128.94
3810.00,128.93
3809.00,128.91
3808.00,128.90
3807.00,128.91
3806.00,128.93
3805.00,128.93
3804.00,128.92
3803.00,128.91
3802.00,128.93
3801.00,128.95
3800.00,128.95
3799.00,128.93
3798.00,128.91
3797.00,128.92
3796.00,128.92
3795.00,128.92
3794.00,128.90
3793.00,128.89
3792.00,128.89
3791.00,128.90
3790.00,128.90
3789.00,128.90
3788.00,128.90
3787.00,128.90
3786.00,128.90
3785.00,128.90
3784.00,128.91
3783.00,128.91
3782.00,128.90
3781.00,128.90
3780.00,128.90
3779.00,128.91
3778.00,128.91
3777.00,128.90
3776.00,128.89
3775.00,128.90
3774.00,128.91
3773.00,128.90
3772.00,128.90
3771.00,128.89
3770.00,128.90
3769.00,128.91
3768.00,128.90
3767.00,128.89
3766.00,128.89
3765.00,128.90
3764.00,128.90
3763.00,128.90
3762.00,128.89
3761.00,128.88
3760.00,128.89
3759.00,128.89
3758.00,128.88
3757.00,128.88
3756.00,128.89
3755.00,128.89
3754.00,128.88
3753.00,128.88
3752.00,128.88
3751.00,128.87
3750.00,128.88
3749.00,128.89
3748.00,128.90
3747.00,128.88
3746.00,128.86
3745.00,128.86
3744.00,128.87
3743.00,128.86
3742.00,128.82
3741.00,128.79
3740.00,128.78
3739.00,128.77
3738.00,128.75
3737.00,128.73
3736.00,128.73
3735.00,128.73
3734.00,128.72
3733.00,128.71
3732.00,128.71
3731.00,128.71
3730.00,128.70
3729.00,128.68
3728.00,128.66
3727.00,128.65
3726.00,128.65
3725.00,128.64
3724.00,128.63
3723.00,128.63
3722.00,128.63
3721.00,128.63
3720.00,128.62
3719.00,128.62
3718.00,128.62
3717.00,128.62
3716.00,128.62
3715.00,128.63
3714.00,128.63
3713.00,128.64
3712.00,128.65
3711.00,128.66
3710.00,128.66
3709.00,128.67
3708.00,128.68
3707.00,128.70
3706.00,128.71
3705.00,128.72
3704.00,128.73
3703.00,128.74
3702.00,128.77
3701.00,128.79
3700.00,128.81
3699.00,128.83
3698.00,128.85
3697.00,128.88
3696.00,128.91
3695.00,128.94
3694.00,128.96
3693.00,128.99
3692.00,129.03
3691.00,129.05
3690.00,129.07
3689.00,129.09
3688.00,129.11
3687.00,129.13
3686.00,129.14
3685.00,129.15
3684.00,129.17
3683.00,129.18
3682.00,129.18
3681.00,129.18
3680.00,129.20
3679.00,129.21
3678.00,129.21
3677.00,129.20
3676.00,129.21
3675.00,129.24
3674.00,129.25
3673.00,129.24
3672.00,129.22
3671.00,129.22
3670.00,129.23
3669.00,129.22
3668.00,129.19
3667.00,129.17
3666.00,129.16
3665.00,129.15
3664.00,129.13
3663.00,129.12
3662.00,129.10
3661.00,129.09
3660.00,129.08
3659.00,129.07
3658.00,129.06
3657.00,129.05
3656.00,129.06
3655.00,129.06
3654.00,129.05
3653.00,129.03
3652.00,129.02
3651.00,129.02
3650.00,129.02
3649.00,129.01
3648.00,128.99
3647.00,128.99
3646.00,128.99
3645.00,128.99
3644.00,128.98
3643.00,128.97
3642.00,128.96
3641.00,128.96
3640.00,128.95
3639.00,128.94
3638.00,128.94
3637.00,128.95
3636.00,128.94
3635.00,128.95
3634.00,128.96
3633.00,128.97
3632.00,128.98
3631.00,128.97
3630.00,128.98
3629.00,129.00
3628.00,129.01
3627.00,129.01
3626.00,129.01
3625.00,129.02
3624.00,129.04
3623.00,129.05
3622.00,129.05
3621.00,129.05
3620.00,129.06
3619.00,129.07
3618.00,129.07
3617.00,129.07
3616.00,129.06
3615.00,129.06
3614.00,129.06
3613.00,129.06
3612.00,129.06
3611.00,129.05
3610.00,129.04
3609.00,129.04
3608.00,129.04
3607.00,129.04
3606.00,129.04
3605.00,129.04
3604.00,129.04
3603.00,129.04
3602.00,129.04
3601.00,129.03
3600.00,129.04
3599.00,129.04
3598.00,129.04
3597.00,129.04
3596.00,129.05
3595.00,129.05
3594.00,129.06
3593.00,129.06
3592.00,129.06
3591.00,129.07
3590.00,129.07
3589.00,129.08
3588.00,129.09
3587.00,129.09
3586.00,129.10
3585.00,129.10
3584.00,129.11
3583.00,129.12
3582.00,129.13
3581.00,129.14
3580.00,129.14
3579.00,129.15
3578.00,129.16
3577.00,129.16
3576.00,129.17
3575.00,129.18
3574.00,129.18
3573.00,129.19
3572.00,129.20
3571.00,129.20
3570.00,129.21
3569.00,129.21
3568.00,129.22
3567.00,129.23
3566.00,129.24
3565.00,129.24
3564.00,129.25
3563.00,129.25
3562.00,129.25
3561.00,129.26
3560.00,129.26
3559.00,129.26
3558.00,129.26
3557.00,129.27
3556.00,129.27
3555.00,129.27
3554.00,129.27
3553.00,129.27
3552.00,129.27
3551.00,129.27
3550.00,129.27
3549.00,129.27
3548.00,129.27
3547.00,129.26
3546.00,129.26
3545.00,129.26
3544.00,129.26
3543.00,129.27
3542.00,129.27
3541.00,129.28
3540.00,129.28
3539.00,129.28
3538.00,129.28
3537.00,129.28
3536.00,129.28
3535.00,129.29
3534.00,129.29
3533.00,129.30
3532.00,129.30
3531.00,129.31
3530.00,129.31
3529.00,129.31
3528.00,129.31
3527.00,129.31
3526.00,129.31
3525.00,129.31
3524.00,129.31
3523.00,129.31
3522.00,129.31
3521.00,129.31
3520.00,129.31
3519.00,129.30
3518.00,129.30
3517.00,129.30
3516.00,129.29
3515.00,129.29
3514.00,129.29
3513.00,129.28
3512.00,129.28
3511.00,129.28
3510.00,129.28
3509.00,129.27
3508.00,129.27
3507.00,129.26
3506.00,129.26
3505.00,129.25
3504.00,129.25
3503.00,129.24
3502.00,129.24
3501.00,129.24
3500.00,129.24
3499.00,129.24
3498.00,129.24
3497.00,129.24
3496.00,129.24
3495.00,129.25
3494.00,129.25
3493.00,129.26
3492.00,129.26
3491.00,129.26
3490.00,129.27
3489.00,129.27
3488.00,129.28
3487.00,129.29
3486.00,129.30
3485.00,129.31
3484.00,129.32
3483.00,129.33
3482.00,129.34
3481.00,129.34
3480.00,129.35
3479.00,129.36
3478.00,129.38
3477.00,129.39
3476.00,129.40
3475.00,129.41
3474.00,129.42
3473.00,129.43
3472.00,129.44
3471.00,129.44
3470.00,129.45
3469.00,129.45
3468.00,129.46
3467.00,129.48
3466.00,129.49
3465.00,129.50
3464.00,129.51
3463.00,129.52
3462.00,129.53
3461.00,129.54
3460.00,129.54
3459.00,129.55
3458.00,129.56
3457.00,129.56
3456.00,129.57
3455.00,129.58
3454.00,129.58
3453.00,129.59
3452.00,129.59
3451.00,129.60
3450.00,129.61
3449.00,129.61
3448.00,129.62
3447.00,129.62
3446.00,129.63
3445.00,129.64
3444.00,129.65
3443.00,129.65
3442.00,129.66
3441.00,129.67
3440.00,129.67
3439.00,129.67
3438.00,129.68
3437.00,129.68
3436.00,129.69
3435.00,129.69
3434.00,129.70
3433.00,129.71
3432.00,129.71
3431.00,129.72
3430.00,129.72
3429.00,129.73
3428.00,129.73
3427.00,129.74
3426.00,129.74
3425.00,129.74
3424.00,129.74
3423.00,129.74
3422.00,129.73
3421.00,129.73
3420.00,129.72
3419.00,129.71
3418.00,129.71
3417.00,129.70
3416.00,129.68
3415.00,129.67
3414.00,129.65
3413.00,129.64
3412.00,129.62
3411.00,129.61
3410.00,129.59
3409.00,129.57
3408.00,129.56
3407.00,129.54
3406.00,129.52
3405.00,129.50
3404.00,129.48
3403.00,129.45
3402.00,129.43
3401.00,129.41
3400.00,129.39
3399.00,129.38
3398.00,129.37
3397.00,129.36
3396.00,129.34
3395.00,129.33
3394.00,129.31
3393.00,129.29
3392.00,129.28
3391.00,129.27
3390.00,129.26
3389.00,129.26
3388.00,129.26
3387.00,129.25
3386.00,129.24
3385.00,129.24
3384.00,129.23
3383.00,129.23
3382.00,129.23
3381.00,129.22
3380.00,129.22
3379.00,129.22
3378.00,129.21
3377.00,129.21
3376.00,129.21
3375.00,129.21
3374.00,129.21
3373.00,129.20
3372.00,129.20
3371.00,129.19
3370.00,129.19
3369.00,129.19
3368.00,129.19
3367.00,129.19
3366.00,129.20
3365.00,129.20
3364.00,129.20
3363.00,129.20
3362.00,129.20
3361.00,129.20
3360.00,129.20
3359.00,129.20
3358.00,129.19
3357.00,129.19
3356.00,129.19
3355.00,129.19
3354.00,129.19
3353.00,129.18
3352.00,129.18
3351.00,129.17
3350.00,129.18
3349.00,129.18
3348.00,129.18
3347.00,129.18
3346.00,129.18
3345.00,129.18
3344.00,129.18
3343.00,129.18
3342.00,129.18
3341.00,129.18
3340.00,129.18
3339.00,129.19
3338.00,129.19
3337.00,129.20
3336.00,129.21
3335.00,129.22
3334.00,129.23
3333.00,129.23
3332.00,129.24
3331.00,129.25
3330.00,129.26
3329.00,129.26
3328.00,129.27
3327.00,129.28
3326.00,129.28
3325.00,129.29
3324.00,129.31
3323.00,129.32
3322.00,129.33
3321.00,129.34
3320.00,129.36
3319.00,129.37
3318.00,129.38
3317.00,129.39
3316.00,129.40
3315.00,129.42
3314.00,129.43
3313.00,129.45
3312.00,129.47
3311.00,129.49
3310.00,129.50
3309.00,129.52
3308.00,129.54
3307.00,129.57
3306.00,129.59
3305.00,129.61
3304.00,129.63
3303.00,129.64
3302.00,129.65
3301.00,129.65
3300.00,129.64
3299.00,129.62
3298.00,129.60
3297.00,129.57
3296.00,129.54
3295.00,129.51
3294.00,129.48
3293.00,129.45
3292.00,129.43
3291.00,129.41
3290.00,129.38
3289.00,129.36
3288.00,129.34
3287.00,129.32
3286.00,129.30
3285.00,129.29
3284.00,129.27
3283.00,129.25
3282.00,129.24
3281.00,129.23
3280.00,129.22
3279.00,129.20
3278.00,129.19
3277.00,129.19
3276.00,129.18
3275.00,129.17
3274.00,129.16
3273.00,129.15
3272.00,129.14
3271.00,129.14
3270.00,129.14
3269.00,129.14
3268.00,129.14
3267.00,129.14
3266.00,129.14
3265.00,129.14
3264.00,129.15
3263.00,129.15
3262.00,129.15
3261.00,129.15
3260.00,129.15
3259.00,129.15
3258.00,129.15
3257.00,129.15
3256.00,129.15
3255.00,129.15
3254.00,129.15
3253.00,129.16
3252.00,129.16
3251.00,129.16
3250.00,129.15
3249.00,129.15
3248.00,129.15
3247.00,129.15
3246.00,129.15
3245.00,129.15
3244.00,129.16
3243.00,129.16
3242.00,129.16
3241.00,129.16
3240.00,129.16
3239.00,129.16
3238.00,129.16
3237.00,129.16
3236.00,129.16
3235.00,129.16
3234.00,129.16
3233.00,129.16
3232.00,129.17
3231.00,129.18
3230.00,129.19
3229.00,129.20
3228.00,129.20
3227.00,129.21
3226.00,129.22
3225.00,129.22
3224.00,129.23
3223.00,129.24
3222.00,129.25
3221.00,129.26
3220.00,129.27
3219.00,129.28
3218.00,129.29
3217.00,129.30
3216.00,129.31
3215.00,129.32
3214.00,129.34
3213.00,129.35
3212.00,129.36
3211.00,129.37
3210.00,129.37
3209.00,129.38
3208.00,129.39
3207.00,129.40
3206.00,129.41
3205.00,129.42
3204.00,129.43
3203.00,129.43
3202.00,129.44
3201.00,129.44
3200.00,129.44
3199.00,129.45
3198.00,129.45
3197.00,129.45
3196.00,129.45
3195.00,129.45
3194.00,129.44
3193.00,129.44
3192.00,129.44
3191.00,129.44
3190.00,129.44
3189.00,129.44
3188.00,129.44
3187.00,129.44
3186.00,129.44
3185.00,129.44
3184.00,129.44
3183.00,129.44
3182.00,129.45
3181.00,129.45
3180.00,129.45
3179.00,129.45
3178.00,129.45
3177.00,129.45
3176.00,129.45
3175.00,129.44
3174.00,129.44
3173.00,129.44
3172.00,129.44
3171.00,129.44
3170.00,129.44
3169.00,129.44
3168.00,129.44
3167.00,129.45
3166.00,129.45
3165.00,129.46
3164.00,129.47
3163.00,129.47
3162.00,129.48
3161.00,129.49
3160.00,129.49
3159.00,129.50
3158.00,129.50
3157.00,129.50
3156.00,129.50
3155.00,129.50
3154.00,129.50
3153.00,129.50
3152.00,129.50
3151.00,129.50
3150.00,129.50
3149.00,129.50
3148.00,129.50
3147.00,129.50
3146.00,129.50
3145.00,129.50
3144.00,129.50
3143.00,129.49
3142.00,129.49
3141.00,129.49
3140.00,129.48
3139.00,129.48
3138.00,129.48
3137.00,129.48
3136.00,129.49
3135.00,129.49
3134.00,129.49
3133.00,129.49
3132.00,129.49
3131.00,129.49
3130.00,129.49
3129.00,129.50
3128.00,129.50
3127.00,129.51
3126.00,129.51
3125.00,129.52
3124.00,129.52
3123.00,129.53
3122.00,129.53
3121.00,129.53
3120.00,129.54
3119.00,129.55
3118.00,129.56
3117.00,129.57
3116.00,129.58
3115.00,129.60
3114.00,129.62
3113.00,129.63
3112.00,129.65
3111.00,129.66
3110.00,129.67
3109.00,129.69
3108.00,129.70
3107.00,129.72
3106.00,129.73
3105.00,129.75
3104.00,129.76
3103.00,129.76
3102.00,129.77
3101.00,129.77
3100.00,129.77
3099.00,129.78
3098.00,129.78
3097.00,129.78
3096.00,129.78
3095.00,129.79
3094.00,129.79
3093.00,129.79
3092.00,129.79
3091.00,129.80
3090.00,129.81
3089.00,129.81
3088.00,129.82
3087.00,129.82
3086.00,129.83
3085.00,129.84
3084.00,129.85
3083.00,129.85
3082.00,129.86
3081.00,129.87
3080.00,129.87
3079.00,129.88
3078.00,129.88
3077.00,129.89
3076.00,129.90
3075.00,129.90
3074.00,129.91
3073.00,129.91
3072.00,129.91
3071.00,129.91
3070.00,129.91
3069.00,129.91
3068.00,129.91
3067.00,129.91
3066.00,129.92
3065.00,129.92
3064.00,129.92
3063.00,129.93
3062.00,129.93
3061.00,129.94
3060.00,129.94
3059.00,129.94
3058.00,129.94
3057.00,129.94
3056.00,129.94
3055.00,129.94
3054.00,129.94
3053.00,129.95
3052.00,129.95
3051.00,129.95
3050.00,129.95
3049.00,129.95
3048.00,129.96
3047.00,129.96
3046.00,129.96
3045.00,129.95
3044.00,129.95
3043.00,129.95
3042.00,129.96
3041.00,129.96
3040.00,129.96
3039.00,129.96
3038.00,129.96
3037.00,129.96
3036.00,129.95
3035.00,129.95
3034.00,129.95
3033.00,129.95
3032.00,129.94
3031.00,129.94
3030.00,129.94
3029.00,129.94
3028.00,129.94
3027.00,129.93
3026.00,129.93
3025.00,129.92
3024.00,129.92
3023.00,129.92
3022.00,129.92
3021.00,129.92
3020.00,129.92
3019.00,129.92
3018.00,129.91
3017.00,129.91
3016.00,129.91
3015.00,129.91
3014.00,129.91
3013.00,129.91
3012.00,129.92
3011.00,129.92
3010.00,129.93
3009.00,129.93
3008.00,129.94
3007.00,129.94
3006.00,129.94
3005.00,129.94
3004.00,129.95
3003.00,129.95
3002.00,129.95
3001.00,129.95
3000.00,129.95
2999.00,129.95
2998.00,129.95
2997.00,129.95
2996.00,129.95
2995.00,129.95
2994.00,129.95
2993.00,129.95
2992.00,129.95
2991.00,129.95
2990.00,129.95
2989.00,129.95
2988.00,129.95
2987.00,129.95
2986.00,129.95
2985.00,129.95
2984.00,129.95
2983.00,129.94
2982.00,129.94
2981.00,129.93
2980.00,129.93
2979.00,129.93
2978.00,129.93
2977.00,129.92
2976.00,129.92
2975.00,129.92
2974.00,129.92
2973.00,129.91
2972.00,129.91
2971.00,129.91
2970.00,129.91
2969.00,129.91
2968.00,129.91
2967.00,129.91
2966.00,129.91
2965.00,129.91
2964.00,129.92
2963.00,129.92
2962.00,129.92
2961.00,129.93
2960.00,129.93
2959.00,129.94
2958.00,129.94
2957.00,129.94
2956.00,129.95
2955.00,129.95
2954.00,129.95
2953.00,129.95
2952.00,129.95
2951.00,129.95
2950.00,129.96
2949.00,129.96
2948.00,129.96
2947.00,129.96
2946.00,129.96
2945.00,129.96
2944.00,129.96
2943.00,129.96
2942.00,129.97
2941.00,129.97
2940.00,129.97
2939.00,129.97
2938.00,129.97
2937.00,129.97
2936.00,129.97
2935.00,129.97
2934.00,129.97
2933.00,129.97
2932.00,129.96
2931.00,129.96
2930.00,129.96
2929.00,129.96
2928.00,129.96
2927.00,129.96
2926.00,129.96
2925.00,129.96
2924.00,129.96
2923.00,129.96
2922.00,129.96
2921.00,129.96
2920.00,129.96
2919.00,129.95
2918.00,129.95
2917.00,129.94
2916.00,129.94
2915.00,129.93
2914.00,129.92
2913.00,129.92
2912.00,129.92
2911.00,129.91
2910.00,129.91
2909.00,129.91
2908.00,129.91
2907.00,129.91
2906.00,129.91
2905.00,129.91
2904.00,129.91
2903.00,129.91
2902.00,129.92
2901.00,129.92
2900.00,129.92
2899.00,129.93
2898.00,129.93
2897.00,129.93
2896.00,129.94
2895.00,129.94
2894.00,129.95
2893.00,129.95
2892.00,129.96
2891.00,129.96
2890.00,129.96
2889.00,129.96
2888.00,129.96
2887.00,129.96
2886.00,129.96
2885.00,129.96
2884.00,129.96
2883.00,129.95
2882.00,129.95
2881.00,129.95
2880.00,129.94
2879.00,129.94
2878.00,129.94
2877.00,129.93
2876.00,129.93
2875.00,129.92
2874.00,129.91
2873.00,129.91
2872.00,129.91
2871.00,129.91
2870.00,129.90
2869.00,129.90
2868.00,129.90
2867.00,129.89
2866.00,129.89
2865.00,129.89
2864.00,129.89
2863.00,129.89
2862.00,129.89
2861.00,129.89
2860.00,129.89
2859.00,129.89
2858.00,129.90
2857.00,129.90
2856.00,129.91
2855.00,129.91
2854.00,129.92
2853.00,129.93
2852.00,129.94
2851.00,129.94
2850.00,129.95
2849.00,129.95
2848.00,129.95
2847.00,129.95
2846.00,129.95
2845.00,129.95
2844.00,129.95
2843.00,129.95
2842.00,129.95
2841.00,129.95
2840.00,129.94
2839.00,129.94
2838.00,129.94
2837.00,129.95
2836.00,129.95
2835.00,129.95
2834.00,129.94
2833.00,129.94
2832.00,129.94
2831.00,129.94
2830.00,129.94
2829.00,129.93
2828.00,129.93
2827.00,129.92
2826.00,129.92
2825.00,129.91
2824.00,129.91
2823.00,129.90
2822.00,129.89
2821.00,129.89
2820.00,129.88
2819.00,129.87
2818.00,129.87
2817.00,129.86
2816.00,129.86
2815.00,129.86
2814.00,129.85
2813.00,129.85
2812.00,129.85
2811.00,129.84
2810.00,129.84
2809.00,129.84
2808.00,129.84
2807.00,129.85
2806.00,129.85
2805.00,129.85
2804.00,129.85
2803.00,129.85
2802.00,129.86
2801.00,129.86
2800.00,129.86
2799.00,129.86
2798.00,129.87
2797.00,129.87
2796.00,129.87
2795.00,129.88
2794.00,129.88
2793.00,129.88
2792.00,129.88
2791.00,129.88
2790.00,129.88
2789.00,129.88
2788.00,129.88
2787.00,129.89
2786.00,129.89
2785.00,129.88
2784.00,129.88
2783.00,129.88
2782.00,129.88
2781.00,129.87
2780.00,129.87
2779.00,129.86
2778.00,129.86
2777.00,129.85
2776.00,129.85
2775.00,129.84
2774.00,129.84
2773.00,129.83
2772.00,129.83
2771.00,129.82
2770.00,129.82
2769.00,129.81
2768.00,129.81
2767.00,129.80
2766.00,129.80
2765.00,129.79
2764.00,129.79
2763.00,129.78
2762.00,129.78
2761.00,129.78
2760.00,129.77
2759.00,129.77
2758.00,129.77
2757.00,129.77
2756.00,129.77
2755.00,129.77
2754.00,129.77
2753.00,129.77
2752.00,129.77
2751.00,129.77
2750.00,129.78
2749.00,129.78
2748.00,129.78
2747.00,129.79
2746.00,129.79
2745.00,129.80
2744.00,129.80
2743.00,129.81
2742.00,129.82
2741.00,129.82
2740.00,129.83
2739.00,129.83
2738.00,129.83
2737.00,129.84
2736.00,129.84
2735.00,129.84
2734.00,129.84
2733.00,129.84
2732.00,129.84
2731.00,129.84
2730.00,129.83
2729.00,129.83
2728.00,129.82
2727.00,129.81
2726.00,129.81
2725.00,129.80
2724.00,129.79
2723.00,129.78
2722.00,129.77
2721.00,129.76
2720.00,129.75
2719.00,129.74
2718.00,129.73
2717.00,129.73
2716.00,129.72
2715.00,129.71
2714.00,129.70
2713.00,129.69
2712.00,129.69
2711.00,129.68
2710.00,129.67
2709.00,129.66
2708.00,129.66
2707.00,129.65
2706.00,129.65
2705.00,129.64
2704.00,129.64
2703.00,129.64
2702.00,129.63
2701.00,129.63
2700.00,129.63
2699.00,129.63
2698.00,129.63
2697.00,129.63
2696.00,129.63
2695.00,129.63
2694.00,129.64
2693.00,129.64
2692.00,129.64
2691.00,129.65
2690.00,129.65
2689.00,129.65
2688.00,129.66
2687.00,129.66
2686.00,129.67
2685.00,129.68
2684.00,129.68
2683.00,129.69
2682.00,129.69
2681.00,129.70
2680.00,129.70
2679.00,129.70
2678.00,129.71
2677.00,129.71
2676.00,129.72
2675.00,129.72
2674.00,129.72
2673.00,129.71
2672.00,129.71
2671.00,129.71
2670.00,129.70
2669.00,129.69
2668.00,129.69
2667.00,129.68
2666.00,129.67
2665.00,129.66
2664.00,129.64
2663.00,129.63
2662.00,129.62
2661.00,129.61
2660.00,129.59
2659.00,129.58
2658.00,129.57
2657.00,129.56
2656.00,129.55
2655.00,129.54
2654.00,129.53
2653.00,129.52
2652.00,129.51
2651.00,129.51
2650.00,129.50
2649.00,129.50
2648.00,129.49
2647.00,129.49
2646.00,129.49
2645.00,129.49
2644.00,129.49
2643.00,129.49
2642.00,129.49
2641.00,129.49
2640.00,129.50
2639.00,129.50
2638.00,129.50
2637.00,129.50
2636.00,129.51
2635.00,129.51
2634.00,129.52
2633.00,129.52
2632.00,129.53
2631.00,129.53
2630.00,129.54
2629.00,129.54
2628.00,129.55
2627.00,129.55
2626.00,129.56
2625.00,129.56
2624.00,129.57
2623.00,129.57
2622.00,129.58
2621.00,129.58
2620.00,129.58
2619.00,129.59
2618.00,129.59
2617.00,129.59
2616.00,129.59
2615.00,129.59
2614.00,129.59
2613.00,129.58
2612.00,129.58
2611.00,129.58
2610.00,129.58
2609.00,129.57
2608.00,129.57
2607.00,129.57
2606.00,129.56
2605.00,129.56
2604.00,129.55
2603.00,129.55
2602.00,129.55
2601.00,129.54
2600.00,129.54
2599.00,129.54
2598.00,129.53
2597.00,129.53
2596.00,129.53
2595.00,129.53
2594.00,129.53
2593.00,129.53
2592.00,129.53
2591.00,129.54
2590.00,129.54
2589.00,129.54
2588.00,129.55
2587.00,129.55
2586.00,129.55
2585.00,129.56
2584.00,129.56
2583.00,129.56
2582.00,129.57
2581.00,129.57
2580.00,129.57
2579.00,129.57
2578.00,129.58
2577.00,129.58
2576.00,129.58
2575.00,129.58
2574.00,129.57
2573.00,129.57
2572.00,129.57
2571.00,129.57
2570.00,129.56
2569.00,129.56
2568.00,129.56
2567.00,129.55
2566.00,129.54
2565.00,129.54
2564.00,129.53
2563.00,129.52
2562.00,129.52
2561.00,129.51
2560.00,129.50
2559.00,129.49
2558.00,129.48
2557.00,129.47
2556.00,129.47
2555.00,129.46
2554.00,129.45
2553.00,129.44
2552.00,129.43
2551.00,129.42
2550.00,129.41
2549.00,129.40
2548.00,129.39
2547.00,129.38
2546.00,129.38
2545.00,129.37
2544.00,129.37
2543.00,129.36
2542.00,129.36
2541.00,129.35
2540.00,129.35
2539.00,129.35
2538.00,129.35
2537.00,129.36
2536.00,129.36
2535.00,129.36
2534.00,129.37
2533.00,129.37
2532.00,129.37
2531.00,129.38
2530.00,129.38
2529.00,129.38
2528.00,129.39
2527.00,129.39
2526.00,129.39
2525.00,129.39
2524.00,129.39
2523.00,129.38
2522.00,129.38
2521.00,129.38
2520.00,129.37
2519.00,129.37
2518.00,129.36
2517.00,129.35
2516.00,129.35
2515.00,129.34
2514.00,129.33
2513.00,129.32
2512.00,129.31
2511.00,129.29
2510.00,129.28
2509.00,129.27
2508.00,129.26
2507.00,129.25
2506.00,129.23
2505.00,129.22
2504.00,129.21
2503.00,129.19
2502.00,129.18
2501.00,129.17
2500.00,129.16
2499.00,129.15
2498.00,129.14
2497.00,129.13
2496.00,129.12
2495.00,129.11
2494.00,129.10
2493.00,129.10
2492.00,129.10
2491.00,129.09
2490.00,129.09
2489.00,129.09
2488.00,129.09
2487.00,129.08
2486.00,129.08
2485.00,129.08
2484.00,129.09
2483.00,129.09
2482.00,129.08
2481.00,129.08
2480.00,129.08
2479.00,129.08
2478.00,129.08
2477.00,129.08
2476.00,129.07
2475.00,129.07
2474.00,129.07
2473.00,129.08
2472.00,129.08
2471.00,129.08
2470.00,129.07
2469.00,129.07
2468.00,129.07
2467.00,129.07
2466.00,129.07
2465.00,129.07
2464.00,129.07
2463.00,129.07
2462.00,129.06
2461.00,129.06
2460.00,129.06
2459.00,129.06
2458.00,129.05
2457.00,129.05
2456.00,129.05
2455.00,129.04
2454.00,129.04
2453.00,129.04
2452.00,129.04
2451.00,129.04
2450.00,129.04
2449.00,129.04
2448.00,129.04
2447.00,129.04
2446.00,129.04
2445.00,129.05
2444.00,129.05
2443.00,129.06
2442.00,129.07
2441.00,129.07
2440.00,129.08
2439.00,129.09
2438.00,129.10
2437.00,129.11
2436.00,129.12
2435.00,129.13
2434.00,129.14
2433.00,129.15
2432.00,129.16
2431.00,129.17
2430.00,129.19
2429.00,129.20
2428.00,129.22
2427.00,129.23
2426.00,129.25
2425.00,129.26
2424.00,129.28
2423.00,129.29
2422.00,129.30
2421.00,129.32
2420.00,129.33
2419.00,129.34
2418.00,129.35
2417.00,129.36
2416.00,129.37
2415.00,129.37
2414.00,129.38
2413.00,129.38
2412.00,129.38
2411.00,129.38
2410.00,129.38
2409.00,129.37
2408.00,129.37
2407.00,129.36
2406.00,129.35
2405.00,129.34
2404.00,129.33
2403.00,129.32
2402.00,129.31
2401.00,129.30
2400.00,129.29
2399.00,129.28
2398.00,129.26
2397.00,129.25
2396.00,129.24
2395.00,129.23
2394.00,129.22
2393.00,129.22
2392.00,129.21
2391.00,129.20
2390.00,129.20
2389.00,129.19
2388.00,129.19
2387.00,129.19
2386.00,129.19
2385.00,129.19
2384.00,129.19
2383.00,129.19
2382.00,129.19
2381.00,129.19
2380.00,129.19
2379.00,129.18
2378.00,129.18
2377.00,129.18
2376.00,129.17
2375.00,129.17
2374.00,129.17
2373.00,129.16
2372.00,129.16
2371.00,129.16
2370.00,129.15
2369.00,129.15
2368.00,129.14
2367.00,129.13
2366.00,129.13
2365.00,129.13
2364.00,129.13
2363.00,129.13
2362.00,129.13
2361.00,129.13
2360.00,129.12
2359.00,129.12
2358.00,129.13
2357.00,129.13
2356.00,129.14
2355.00,129.15
2354.00,129.15
2353.00,129.12
2352.00,129.07
2351.00,129.02
2350.00,129.00
2349.00,129.04
2348.00,129.09
2347.00,129.12
2346.00,129.10
2345.00,129.07
2344.00,129.04
2343.00,129.05
2342.00,129.05
2341.00,129.06
2340.00,129.07
2339.00,129.08
2338.00,129.09
2337.00,129.09
2336.00,129.10
2335.00,129.11
2334.00,129.12
2333.00,129.13
2332.00,129.14
2331.00,129.13
2330.00,129.13
2329.00,129.12
2328.00,129.11
2327.00,129.10
2326.00,129.10
2325.00,129.09
2324.00,129.07
2323.00,129.06
2322.00,129.05
2321.00,129.03
2320.00,129.02
2319.00,129.01
2318.00,129.01
2317.00,129.01
2316.00,129.01
2315.00,129.01
2314.00,129.01
2313.00,129.01
2312.00,129.01
2311.00,129.01
2310.00,129.01
2309.00,129.01
2308.00,129.01
2307.00,129.01
2306.00,129.01
2305.00,129.01
2304.00,129.01
2303.00,129.01
2302.00,129.01
2301.00,129.01
2300.00,129.00
2299.00,129.00
2298.00,129.00
2297.00,128.99
2296.00,128.99
2295.00,128.99
2294.00,128.98
2293.00,128.98
2292.00,128.98
2291.00,128.97
2290.00,128.97
2289.00,128.97
2288.00,128.97
2287.00,128.97
2286.00,128.96
2285.00,128.96
2284.00,128.96
2283.00,128.95
2282.00,128.95
2281.00,128.95
2280.00,128.95
2279.00,128.94
2278.00,128.94
2277.00,128.94
2276.00,128.94
2275.00,128.95
2274.00,128.95
2273.00,128.96
2272.00,128.96
2271.00,128.97
2270.00,128.97
2269.00,128.98
2268.00,128.98
2267.00,128.99
2266.00,129.00
2265.00,129.00
2264.00,129.01
2263.00,129.01
2262.00,129.01
2261.00,129.02
2260.00,129.02
2259.00,129.03
2258.00,129.03
2257.00,129.03
2256.00,129.04
2255.00,129.04
2254.00,129.04
2253.00,129.04
2252.00,129.04
2251.00,129.04
2250.00,129.03
2249.00,129.03
2248.00,129.03
2247.00,129.02
2246.00,129.02
2245.00,129.01
2244.00,129.00
2243.00,128.99
2242.00,128.98
2241.00,128.97
2240.00,128.96
2239.00,128.95
2238.00,128.93
2237.00,128.92
2236.00,128.91
2235.00,128.89
2234.00,128.88
2233.00,128.87
2232.00,128.86
2231.00,128.85
2230.00,128.84
2229.00,128.83
2228.00,128.81
2227.00,128.80
2226.00,128.79
2225.00,128.79
2224.00,128.78
2223.00,128.77
2222.00,128.77
2221.00,128.77
2220.00,128.77
2219.00,128.77
2218.00,128.77
2217.00,128.77
2216.00,128.78
2215.00,128.78
2214.00,128.78
2213.00,128.79
2212.00,128.79
2211.00,128.79
2210.00,128.80
2209.00,128.80
2208.00,128.80
2207.00,128.80
2206.00,128.79
2205.00,128.79
2204.00,128.79
2203.00,128.78
2202.00,128.78
2201.00,128.77
2200.00,128.76
2199.00,128.75
2198.00,128.74
2197.00,128.73
2196.00,128.72
2195.00,128.71
2194.00,128.70
2193.00,128.69
2192.00,128.68
2191.00,128.66
2190.00,128.65
2189.00,128.64
2188.00,128.63
2187.00,128.62
2186.00,128.61
2185.00,128.60
2184.00,128.59
2183.00,128.58
2182.00,128.57
2181.00,128.56
2180.00,128.56
2179.00,128.55
2178.00,128.55
2177.00,128.55
2176.00,128.55
2175.00,128.55
2174.00,128.55
2173.00,128.55
2172.00,128.56
2171.00,128.56
2170.00,128.57
2169.00,128.58
2168.00,128.59
2167.00,128.60
2166.00,128.61
2165.00,128.63
2164.00,128.64
2163.00,128.65
2162.00,128.66
2161.00,128.68
2160.00,128.69
2159.00,128.70
2158.00,128.71
2157.00,128.72
2156.00,128.72
2155.00,128.73
2154.00,128.73
2153.00,128.74
2152.00,128.74
2151.00,128.74
2150.00,128.74
2149.00,128.74
2148.00,128.74
2147.00,128.73
2146.00,128.73
2145.00,128.72
2144.00,128.71
2143.00,128.71
2142.00,128.70
2141.00,128.69
2140.00,128.68
2139.00,128.66
2138.00,128.65
2137.00,128.64
2136.00,128.62
2135.00,128.61
2134.00,128.60
2133.00,128.58
2132.00,128.57
2131.00,128.57
2130.00,128.56
2129.00,128.55
2128.00,128.54
2127.00,128.54
2126.00,128.53
2125.00,128.53
2124.00,128.53
2123.00,128.52
2122.00,128.52
2121.00,128.52
2120.00,128.52
2119.00,128.52
2118.00,128.53
2117.00,128.53
2116.00,128.53
2115.00,128.53
2114.00,128.54
2113.00,128.54
2112.00,128.54
2111.00,128.55
2110.00,128.55
2109.00,128.56
2108.00,128.56
2107.00,128.57
2106.00,128.57
2105.00,128.57
2104.00,128.58
2103.00,128.58
2102.00,128.58
2101.00,128.59
2100.00,128.59
2099.00,128.60
2098.00,128.60
2097.00,128.61
2096.00,128.61
2095.00,128.61
2094.00,128.62
2093.00,128.62
2092.00,128.62
2091.00,128.62
2090.00,128.63
2089.00,128.63
2088.00,128.63
2087.00,128.63
2086.00,128.63
2085.00,128.62
2084.00,128.62
2083.00,128.62
2082.00,128.62
2081.00,128.62
2080.00,128.61
2079.00,128.61
2078.00,128.60
2077.00,128.60
2076.00,128.59
2075.00,128.59
2074.00,128.58
2073.00,128.58
2072.00,128.57
2071.00,128.57
2070.00,128.57
2069.00,128.56
2068.00,128.56
2067.00,128.56
2066.00,128.55
2065.00,128.55
2064.00,128.55
2063.00,128.54
2062.00,128.54
2061.00,128.54
2060.00,128.54
2059.00,128.54
2058.00,128.54
2057.00,128.54
2056.00,128.54
2055.00,128.54
2054.00,128.55
2053.00,128.55
2052.00,128.56
2051.00,128.56
2050.00,128.57
2049.00,128.57
2048.00,128.58
2047.00,128.58
2046.00,128.59
2045.00,128.60
2044.00,128.61
2043.00,128.62
2042.00,128.63
2041.00,128.63
2040.00,128.64
2039.00,128.65
2038.00,128.65
2037.00,128.66
2036.00,128.67
2035.00,128.67
2034.00,128.67
2033.00,128.67
2032.00,128.67
2031.00,128.66
2030.00,128.65
2029.00,128.65
2028.00,128.64
2027.00,128.63
2026.00,128.62
2025.00,128.61
2024.00,128.60
2023.00,128.58
2022.00,128.57
2021.00,128.56
2020.00,128.55
2019.00,128.54
2018.00,128.53
2017.00,128.52
2016.00,128.52
2015.00,128.51
2014.00,128.51
2013.00,128.51
2012.00,128.51
2011.00,128.51
2010.00,128.52
2009.00,128.52
2008.00,128.53
2007.00,128.55
2006.00,128.56
2005.00,128.57
2004.00,128.59
2003.00,128.60
2002.00,128.62
2001.00,128.64
2000.00,128.66
1999.00,128.68
1998.00,128.70
1997.00,128.72
1996.00,128.74
1995.00,128.76
1994.00,128.78
1993.00,128.81
1992.00,128.83
1991.00,128.85
1990.00,128.87
1989.00,128.89
1988.00,128.91
1987.00,128.93
1986.00,128.95
1985.00,128.96
1984.00,128.98
1983.00,128.99
1982.00,129.00
1981.00,129.01
1980.00,129.02
1979.00,129.03
1978.00,129.03
1977.00,129.03
1976.00,129.02
1975.00,129.01
1974.00,129.00
1973.00,128.99
1972.00,128.97
1971.00,128.96
1970.00,128.94
1969.00,128.92
1968.00,128.91
1967.00,128.89
1966.00,128.88
1965.00,128.87
1964.00,128.87
1963.00,128.87
1962.00,128.88
1961.00,128.89
1960.00,128.91
1959.00,128.93
1958.00,128.96
1957.00,128.99
1956.00,129.03
1955.00,129.06
1954.00,129.09
1953.00,129.12
1952.00,129.15
1951.00,129.18
1950.00,129.21
1949.00,129.23
1948.00,129.24
1947.00,129.26
1946.00,129.26
1945.00,129.27
1944.00,129.27
1943.00,129.27
1942.00,129.25
1941.00,129.23
1940.00,129.21
1939.00,129.19
1938.00,129.16
1937.00,129.13
1936.00,129.10
1935.00,129.07
1934.00,129.04
1933.00,129.01
1932.00,128.99
1931.00,128.96
1930.00,128.94
1929.00,128.93
1928.00,128.91
1927.00,128.90
1926.00,128.89
1925.00,128.88
1924.00,128.88
1923.00,128.88
1922.00,128.87
1921.00,128.86
1920.00,128.86
1919.00,128.86
1918.00,128.86
1917.00,128.85
1916.00,128.85
1915.00,128.84
1914.00,128.83
1913.00,128.82
1912.00,128.82
1911.00,128.81
1910.00,128.80
1909.00,128.79
1908.00,128.78
1907.00,128.78
1906.00,128.77
1905.00,128.77
1904.00,128.76
1903.00,128.76
1902.00,128.76
1901.00,128.76
1900.00,128.77
1899.00,128.78
1898.00,128.78
1897.00,128.79
1896.00,128.80
1895.00,128.81
1894.00,128.82
1893.00,128.83
1892.00,128.85
1891.00,128.86
1890.00,128.88
1889.00,128.89
1888.00,128.91
1887.00,128.92
1886.00,128.93
1885.00,128.94
1884.00,128.96
1883.00,128.97
1882.00,128.98
1881.00,129.00
1880.00,129.01
1879.00,129.03
1878.00,129.04
1877.00,129.05
1876.00,129.05
1875.00,129.06
1874.00,129.06
1873.00,129.06
1872.00,129.06
1871.00,129.07
1870.00,129.06
1869.00,129.06
1868.00,129.05
1867.00,129.04
1866.00,129.02
1865.00,129.01
1864.00,129.01
1863.00,129.00
1862.00,129.00
1861.00,129.00
1860.00,129.00
1859.00,129.01
1858.00,129.02
1857.00,129.03
1856.00,129.05
1855.00,129.07
1854.00,129.10
1853.00,129.12
1852.00,129.15
1851.00,129.17
1850.00,129.20
1849.00,129.23
1848.00,129.25
1847.00,129.27
1846.00,129.30
1845.00,129.32
1844.00,129.34
1843.00,129.36
1842.00,129.37
1841.00,129.38
1840.00,129.39
1839.00,129.40
1838.00,129.40
1837.00,129.40
1836.00,129.40
1835.00,129.40
1834.00,129.40
1833.00,129.40
1832.00,129.40
1831.00,129.40
1830.00,129.40
1829.00,129.40
1828.00,129.40
1827.00,129.40
1826.00,129.41
1825.00,129.41
1824.00,129.42
1823.00,129.42
1822.00,129.43
1821.00,129.44
1820.00,129.44
1819.00,129.45
1818.00,129.46
1817.00,129.47
1816.00,129.47
1815.00,129.48
1814.00,129.48
1813.00,129.49
1812.00,129.50
1811.00,129.50
1810.00,129.51
1809.00,129.51
1808.00,129.52
1807.00,129.53
1806.00,129.54
1805.00,129.54
1804.00,129.56
1803.00,129.57
1802.00,129.58
1801.00,129.59
1800.00,129.60
1799.00,129.62
1798.00,129.63
1797.00,129.64
1796.00,129.65
1795.00,129.66
1794.00,129.68
1793.00,129.70
1792.00,129.72
1791.00,129.74
1790.00,129.76
1789.00,129.77
1788.00,129.78
1787.00,129.79
1786.00,129.80
1785.00,129.81
1784.00,129.83
1783.00,129.84
1782.00,129.85
1781.00,129.86
1780.00,129.86
1779.00,129.86
1778.00,129.87
1777.00,129.87
1776.00,129.87
1775.00,129.87
1774.00,129.87
1773.00,129.87
1772.00,129.87
1771.00,129.87
1770.00,129.87
1769.00,129.86
1768.00,129.86
1767.00,129.85
1766.00,129.84
1765.00,129.84
1764.00,129.83
1763.00,129.83
1762.00,129.82
1761.00,129.80
1760.00,129.80
1759.00,129.79
1758.00,129.79
1757.00,129.78
1756.00,129.77
1755.00,129.76
1754.00,129.75
1753.00,129.74
1752.00,129.74
1751.00,129.74
1750.00,129.74
1749.00,129.75
1748.00,129.76
1747.00,129.76
1746.00,129.77
1745.00,129.77
1744.00,129.77
1743.00,129.78
1742.00,129.79
1741.00,129.79
1740.00,129.80
1739.00,129.80
1738.00,129.80
1737.00,129.81
1736.00,129.81
1735.00,129.81
1734.00,129.81
1733.00,129.82
1732.00,129.83
1731.00,129.85
1730.00,129.87
1729.00,129.87
1728.00,129.87
1727.00,129.87
1726.00,129.88
1725.00,129.88
1724.00,129.88
1723.00,129.88
1722.00,129.88
1721.00,129.88
1720.00,129.88
1719.00,129.88
1718.00,129.86
1717.00,129.86
1716.00,129.86
1715.00,129.87
1714.00,129.87
1713.00,129.86
1712.00,129.86
1711.00,129.85
1710.00,129.84
1709.00,129.83
1708.00,129.83
1707.00,129.83
1706.00,129.82
1705.00,129.82
1704.00,129.81
1703.00,129.81
1702.00,129.80
1701.00,129.80
1700.00,129.79
1699.00,129.78
1698.00,129.78
1697.00,129.79
1696.00,129.79
1695.00,129.79
1694.00,129.79
1693.00,129.79
1692.00,129.79
1691.00,129.79
1690.00,129.78
1689.00,129.78
1688.00,129.78
1687.00,129.78
1686.00,129.79
1685.00,129.80
1684.00,129.81
1683.00,129.82
1682.00,129.83
1681.00,129.83
1680.00,129.83
1679.00,129.82
1678.00,129.82
1677.00,129.82
1676.00,129.82
1675.00,129.82
1674.00,129.83
1673.00,129.83
1672.00,129.83
1671.00,129.83
1670.00,129.83
1669.00,129.83
1668.00,129.83
1667.00,129.83
1666.00,129.82
1665.00,129.82
1664.00,129.81
1663.00,129.80
1662.00,129.79
1661.00,129.78
1660.00,129.77
1659.00,129.75
1658.00,129.74
1657.00,129.73
1656.00,129.72
1655.00,129.72
1654.00,129.71
1653.00,129.71
1652.00,129.70
1651.00,129.70
1650.00,129.71
1649.00,129.70
1648.00,129.68
1647.00,129.67
1646.00,129.67
1645.00,129.67
1644.00,129.69
1643.00,129.70
1642.00,129.70
1641.00,129.71
1640.00,129.71
1639.00,129.72
1638.00,129.72
1637.00,129.72
1636.00,129.73
1635.00,129.74
1634.00,129.75
1633.00,129.75
1632.00,129.75
1631.00,129.75
1630.00,129.74
1629.00,129.74
1628.00,129.74
1627.00,129.75
1626.00,129.75
1625.00,129.76
1624.00,129.76
1623.00,129.76
1622.00,129.76
1621.00,129.76
1620.00,129.77
1619.00,129.77
1618.00,129.77
1617.00,129.77
1616.00,129.78
1615.00,129.78
1614.00,129.79
1613.00,129.79
1612.00,129.79
1611.00,129.79
1610.00,129.79
1609.00,129.80
1608.00,129.81
1607.00,129.82
1606.00,129.83
1605.00,129.83
1604.00,129.82
1603.00,129.81
1602.00,129.81
1601.00,129.80
1600.00,129.80
1599.00,129.79
1598.00,129.78
1597.00,129.78
1596.00,129.77
1595.00,129.76
1594.00,129.76
1593.00,129.75
1592.00,129.75
1591.00,129.74
1590.00,129.75
1589.00,129.75
1588.00,129.75
1587.00,129.75
1586.00,129.76
1585.00,129.76
1584.00,129.77
1583.00,129.77
1582.00,129.78
1581.00,129.79
1580.00,129.80
1579.00,129.80
1578.00,129.81
1577.00,129.82
1576.00,129.82
1575.00,129.82
1574.00,129.83
1573.00,129.84
1572.00,129.84
1571.00,129.84
1570.00,129.84
1569.00,129.84
1568.00,129.83
1567.00,129.83
1566.00,129.83
1565.00,129.82
1564.00,129.82
1563.00,129.81
1562.00,129.81
1561.00,129.81
1560.00,129.80
1559.00,129.78
1558.00,129.77
1557.00,129.78
1556.00,129.78
1555.00,129.77
1554.00,129.76
1553.00,129.75
1552.00,129.75
1551.00,129.75
1550.00,129.75
1549.00,129.74
1548.00,129.73
1547.00,129.73
1546.00,129.74
1545.00,129.75
1544.00,129.76
1543.00,129.76
1542.00,129.76
1541.00,129.76
1540.00,129.77
1539.00,129.77
1538.00,129.76
1537.00,129.76
1536.00,129.75
1535.00,129.73
1534.00,129.72
1533.00,129.71
1532.00,129.70
1531.00,129.70
1530.00,129.70
1529.00,129.70
1528.00,129.70
1527.00,129.70
1526.00,129.70
1525.00,129.70
1524.00,129.70
1523.00,129.70
1522.00,129.71
1521.00,129.71
1520.00,129.73
1519.00,129.74
1518.00,129.75
1517.00,129.76
1516.00,129.76
1515.00,129.76
1514.00,129.76
1513.00,129.76
1512.00,129.77
1511.00,129.78
1510.00,129.78
1509.00,129.79
1508.00,129.79
1507.00,129.79
1506.00,129.79
1505.00,129.80
1504.00,129.80
1503.00,129.81
1502.00,129.80
1501.00,129.79
1500.00,129.78
1499.00,129.77
1498.00,129.77
1497.00,129.76
1496.00,129.76
1495.00,129.76
1494.00,129.75
1493.00,129.75
1492.00,129.76
1491.00,129.76
1490.00,129.75
1489.00,129.75
1488.00,129.76
1487.00,129.76
1486.00,129.76
1485.00,129.76
1484.00,129.77
1483.00,129.77
1482.00,129.77
1481.00,129.77
1480.00,129.77
1479.00,129.77
1478.00,129.78
1477.00,129.78
1476.00,129.79
1475.00,129.80
1474.00,129.80
1473.00,129.80
1472.00,129.81
1471.00,129.82
1470.00,129.84
1469.00,129.85
1468.00,129.85
1467.00,129.86
1466.00,129.87
1465.00,129.87
1464.00,129.87
1463.00,129.87
1462.00,129.87
1461.00,129.87
1460.00,129.88
1459.00,129.88
1458.00,129.88
1457.00,129.88
1456.00,129.87
1455.00,129.88
1454.00,129.88
1453.00,129.87
1452.00,129.86
1451.00,129.85
1450.00,129.85
1449.00,129.85
1448.00,129.85
1447.00,129.85
1446.00,129.84
1445.00,129.83
1444.00,129.82
1443.00,129.81
1442.00,129.80
1441.00,129.80
1440.00,129.79
1439.00,129.78
1438.00,129.78
1437.00,129.77
1436.00,129.76
1435.00,129.76
1434.00,129.76
1433.00,129.75
1432.00,129.75
1431.00,129.75
1430.00,129.75
1429.00,129.75
1428.00,129.75
1427.00,129.75
1426.00,129.75
1425.00,129.75
1424.00,129.76
1423.00,129.76
1422.00,129.78
1421.00,129.79
1420.00,129.79
1419.00,129.80
1418.00,129.81
1417.00,129.81
1416.00,129.82
1415.00,129.83
1414.00,129.84
1413.00,129.84
1412.00,129.84
1411.00,129.85
1410.00,129.85
1409.00,129.85
1408.00,129.85
1407.00,129.85
1406.00,129.86
1405.00,129.86
1404.00,129.86
1403.00,129.86
1402.00,129.86
1401.00,129.86
1400.00,129.85
1399.00,129.85
1398.00,129.85
1397.00,129.85
1396.00,129.85
1395.00,129.85
1394.00,129.85
1393.00,129.84
1392.00,129.84
1391.00,129.83
1390.00,129.83
1389.00,129.83
1388.00,129.83
1387.00,129.82
1386.00,129.82
1385.00,129.81
1384.00,129.80
1383.00,129.80
1382.00,129.79
1381.00,129.79
1380.00,129.79
1379.00,129.79
1378.00,129.79
1377.00,129.79
1376.00,129.79
1375.00,129.79
1374.00,129.79
1373.00,129.80
1372.00,129.80
1371.00,129.80
1370.00,129.80
1369.00,129.81
1368.00,129.81
1367.00,129.81
1366.00,129.81
1365.00,129.82
1364.00,129.82
1363.00,129.83
1362.00,129.84
1361.00,129.85
1360.00,129.85
1359.00,129.85
1358.00,129.85
1357.00,129.85
1356.00,129.85
1355.00,129.85
1354.00,129.86
1353.00,129.86
1352.00,129.87
1351.00,129.87
1350.00,129.87
1349.00,129.86
1348.00,129.86
1347.00,129.86
1346.00,129.86
1345.00,129.86
1344.00,129.85
1343.00,129.85
1342.00,129.85
1341.00,129.84
1340.00,129.84
1339.00,129.84
1338.00,129.84
1337.00,129.83
1336.00,129.82
1335.00,129.82
1334.00,129.81
1333.00,129.81
1332.00,129.81
1331.00,129.80
1330.00,129.80
1329.00,129.79
1328.00,129.79
1327.00,129.79
1326.00,129.79
1325.00,129.79
1324.00,129.79
1323.00,129.79
1322.00,129.80
1321.00,129.80
1320.00,129.80
1319.00,129.80
1318.00,129.81
1317.00,129.82
1316.00,129.83
1315.00,129.83
1314.00,129.84
1313.00,129.84
1312.00,129.84
1311.00,129.85
1310.00,129.86
1309.00,129.86
1308.00,129.87
1307.00,129.87
1306.00,129.88
1305.00,129.88
1304.00,129.88
1303.00,129.88
1302.00,129.89
1301.00,129.89
1300.00,129.89
1299.00,129.89
1298.00,129.89
1297.00,129.89
1296.00,129.88
1295.00,129.88
1294.00,129.87
1293.00,129.87
1292.00,129.86
1291.00,129.86
1290.00,129.85
1289.00,129.85
1288.00,129.84
1287.00,129.83
1286.00,129.82
1285.00,129.82
1284.00,129.81
1283.00,129.81
1282.00,129.80
1281.00,129.80
1280.00,129.79
1279.00,129.78
1278.00,129.78
1277.00,129.77
1276.00,129.77
1275.00,129.77
1274.00,129.77
1273.00,129.77
1272.00,129.77
1271.00,129.77
1270.00,129.77
1269.00,129.77
1268.00,129.77
1267.00,129.78
1266.00,129.78
1265.00,129.79
1264.00,129.81
1263.00,129.82
1262.00,129.83
1261.00,129.84
1260.00,129.84
1259.00,129.85
1258.00,129.86
1257.00,129.86
1256.00,129.87
1255.00,129.87
1254.00,129.86
1253.00,129.86
1252.00,129.86
1251.00,129.86
1250.00,129.86
1249.00,129.86
1248.00,129.86
1247.00,129.86
1246.00,129.86
1245.00,129.86
1244.00,129.85
1243.00,129.85
1242.00,129.85
1241.00,129.85
1240.00,129.85
1239.00,129.84
1238.00,129.84
1237.00,129.84
1236.00,129.83
1235.00,129.82
1234.00,129.81
1233.00,129.81
1232.00,129.80
1231.00,129.79
1230.00,129.79
1229.00,129.79
1228.00,129.78
1227.00,129.77
1226.00,129.76
1225.00,129.75
1224.00,129.75
1223.00,129.74
1222.00,129.74
1221.00,129.74
1220.00,129.73
1219.00,129.73
1218.00,129.73
1217.00,129.72
1216.00,129.72
1215.00,129.72
1214.00,129.72
1213.00,129.73
1212.00,129.73
1211.00,129.73
1210.00,129.74
1209.00,129.74
1208.00,129.74
1207.00,129.75
1206.00,129.75
1205.00,129.76
1204.00,129.76
1203.00,129.77
1202.00,129.78
1201.00,129.78
1200.00,129.79
1199.00,129.79
1198.00,129.79
1197.00,129.79
1196.00,129.80
1195.00,129.80
1194.00,129.81
1193.00,129.81
1192.00,129.81
1191.00,129.80
1190.00,129.80
1189.00,129.80
1188.00,129.80
1187.00,129.80
1186.00,129.80
1185.00,129.79
1184.00,129.79
1183.00,129.78
1182.00,129.77
1181.00,129.77
1180.00,129.76
1179.00,129.75
1178.00,129.75
1177.00,129.75
1176.00,129.74
1175.00,129.74
1174.00,129.73
1173.00,129.72
1172.00,129.71
1171.00,129.71
1170.00,129.71
1169.00,129.70
1168.00,129.70
1167.00,129.70
1166.00,129.70
1165.00,129.70
1164.00,129.69
1163.00,129.69
1162.00,129.69
1161.00,129.69
1160.00,129.69
1159.00,129.70
1158.00,129.70
1157.00,129.70
1156.00,129.70
1155.00,129.70
1154.00,129.70
1153.00,129.71
1152.00,129.71
1151.00,129.72
1150.00,129.72
1149.00,129.73
1148.00,129.73
1147.00,129.74
1146.00,129.74
1145.00,129.75
1144.00,129.75
1143.00,129.75
1142.00,129.76
1141.00,129.76
1140.00,129.76
1139.00,129.76
1138.00,129.76
1137.00,129.76
1136.00,129.76
1135.00,129.76
1134.00,129.76
1133.00,129.76
1132.00,129.75
1131.00,129.75
1130.00,129.74
1129.00,129.73
1128.00,129.73
1127.00,129.73
1126.00,129.72
1125.00,129.72
1124.00,129.72
1123.00,129.71
1122.00,129.71
1121.00,129.70
1120.00,129.70
1119.00,129.70
1118.00,129.70
1117.00,129.70
1116.00,129.70
1115.00,129.69
1114.00,129.69
1113.00,129.69
1112.00,129.69
1111.00,129.69
1110.00,129.70
1109.00,129.70
1108.00,129.70
1107.00,129.70
1106.00,129.71
1105.00,129.71
1104.00,129.72
1103.00,129.72
1102.00,129.73
1101.00,129.73
1100.00,129.74
1099.00,129.74
1098.00,129.75
1097.00,129.75
1096.00,129.75
1095.00,129.75
1094.00,129.75
1093.00,129.75
1092.00,129.76
1091.00,129.76
1090.00,129.76
1089.00,129.76
1088.00,129.76
1087.00,129.75
1086.00,129.75
1085.00,129.75
1084.00,129.74
1083.00,129.74
1082.00,129.74
1081.00,129.73
1080.00,129.72
1079.00,129.71
1078.00,129.70
1077.00,129.69
1076.00,129.69
1075.00,129.68
1074.00,129.67
1073.00,129.67
1072.00,129.66
1071.00,129.66
1070.00,129.65
1069.00,129.64
1068.00,129.63
1067.00,129.62
1066.00,129.62
1065.00,129.62
1064.00,129.62
1063.00,129.62
1062.00,129.61
1061.00,129.61
1060.00,129.60
1059.00,129.60
1058.00,129.60
1057.00,129.61
1056.00,129.61
1055.00,129.61
1054.00,129.61
1053.00,129.60
1052.00,129.60
1051.00,129.61
1050.00,129.61
1049.00,129.62
1048.00,129.64
1047.00,129.65
1046.00,129.67
1045.00,129.68
1044.00,129.69
1043.00,129.69
1042.00,129.70
1041.00,129.71
1040.00,129.71
1039.00,129.72
1038.00,129.74
1037.00,129.75
1036.00,129.75
1035.00,129.75
1034.00,129.75
1033.00,129.76
1032.00,129.76
1031.00,129.77
1030.00,129.78
1029.00,129.79
1028.00,129.80
1027.00,129.80
1026.00,129.80
1025.00,129.80
1024.00,129.80
1023.00,129.80
1022.00,129.80
1021.00,129.81
1020.00,129.82
1019.00,129.82
1018.00,129.82
1017.00,129.82
1016.00,129.82
1015.00,129.82
1014.00,129.81
1013.00,129.81
1012.00,129.81
1011.00,129.82
1010.00,129.82
1009.00,129.82
1008.00,129.82
1007.00,129.82
1006.00,129.82
1005.00,129.82
1004.00,129.82
1003.00,129.83
1002.00,129.84
1001.00,129.85
1000.00,129.85
999.00,129.85
998.00,129.86
997.00,129.86
996.00,129.87
995.00,129.88
994.00,129.90
993.00,129.91
992.00,129.91
991.00,129.92
990.00,129.92
989.00,129.93
988.00,129.93
987.00,129.94
986.00,129.95
985.00,129.96
984.00,129.97
983.00,129.98
982.00,129.98
981.00,129.98
980.00,129.98
979.00,129.98
978.00,129.99
977.00,130.00
976.00,130.00
975.00,130.01
974.00,130.01
973.00,130.00
972.00,130.00
971.00,129.99
970.00,129.99
969.00,129.99
968.00,130.00
967.00,130.00
966.00,130.00
965.00,130.00
964.00,129.99
963.00,129.99
962.00,129.99
961.00,129.99
960.00,129.99
959.00,129.99
958.00,130.00
957.00,130.00
956.00,130.00
955.00,130.00
954.00,130.00
953.00,130.00
952.00,130.00
951.00,130.00
950.00,130.02
949.00,130.03
948.00,130.04
947.00,130.05
946.00,130.05
945.00,130.05
944.00,130.05
943.00,130.06
942.00,130.07
941.00,130.08
940.00,130.09
939.00,130.10
938.00,130.10
937.00,130.11
936.00,130.11
935.00,130.12
934.00,130.13
933.00,130.14
932.00,130.15
931.00,130.15
930.00,130.16
929.00,130.16
928.00,130.16
927.00,130.16
926.00,130.16
925.00,130.16
924.00,130.16
923.00,130.17
922.00,130.17
921.00,130.18
920.00,130.17
919.00,130.17
918.00,130.16
917.00,130.15
916.00,130.15
915.00,130.15
914.00,130.15
913.00,130.15
912.00,130.15
911.00,130.15
910.00,130.14
909.00,130.14
908.00,130.13
907.00,130.14
906.00,130.14
905.00,130.14
904.00,130.15
903.00,130.15
902.00,130.15
901.00,130.15
900.00,130.15
899.00,130.15
898.00,130.16
897.00,130.17
896.00,130.17
895.00,130.18
894.00,130.19
893.00,130.19
892.00,130.20
891.00,130.20
890.00,130.21
889.00,130.22
888.00,130.22
887.00,130.23
886.00,130.24
885.00,130.25
884.00,130.26
883.00,130.26
882.00,130.27
881.00,130.27
880.00,130.28
879.00,130.28
878.00,130.29
877.00,130.29
876.00,130.29
875.00,130.30
874.00,130.30
873.00,130.30
872.00,130.30
871.00,130.30
870.00,130.30
869.00,130.30
868.00,130.30
867.00,130.30
866.00,130.30
865.00,130.30
864.00,130.29
863.00,130.28
862.00,130.28
861.00,130.28
860.00,130.28
859.00,130.28
858.00,130.28
857.00,130.27
856.00,130.27
855.00,130.27
854.00,130.27
853.00,130.27
852.00,130.27
851.00,130.28
850.00,130.28
849.00,130.27
848.00,130.27
847.00,130.27
846.00,130.27
845.00,130.28
844.00,130.28
843.00,130.29
842.00,130.29
841.00,130.30
840.00,130.30
839.00,130.31
838.00,130.31
837.00,130.31
836.00,130.31
835.00,130.32
834.00,130.32
833.00,130.33
832.00,130.33
831.00,130.33
830.00,130.33
829.00,130.33
828.00,130.33
827.00,130.33
826.00,130.34
825.00,130.34
824.00,130.34
823.00,130.35
822.00,130.35
821.00,130.35
820.00,130.36
819.00,130.37
818.00,130.37
817.00,130.37
816.00,130.36
815.00,130.36
814.00,130.36
813.00,130.36
812.00,130.36
811.00,130.36
810.00,130.36
809.00,130.36
808.00,130.36
807.00,130.37
806.00,130.37
805.00,130.37
804.00,130.37
803.00,130.37
802.00,130.37
801.00,130.37
800.00,130.38
799.00,130.38
798.00,130.39
797.00,130.39
796.00,130.38
795.00,130.38
794.00,130.38
793.00,130.37
792.00,130.37
791.00,130.37
790.00,130.37
789.00,130.36
788.00,130.36
787.00,130.36
786.00,130.36
785.00,130.36
784.00,130.36
783.00,130.36
782.00,130.36
781.00,130.36
780.00,130.36
779.00,130.36
778.00,130.37
777.00,130.37
776.00,130.37
775.00,130.37
774.00,130.37
773.00,130.37
772.00,130.37
771.00,130.37
770.00,130.37
769.00,130.36
768.00,130.36
767.00,130.36
766.00,130.35
765.00,130.35
764.00,130.34
763.00,130.34
762.00,130.33
761.00,130.32
760.00,130.32
759.00,130.31
758.00,130.32
757.00,130.32
756.00,130.31
755.00,130.31
754.00,130.30
753.00,130.29
752.00,130.28
751.00,130.28
750.00,130.28
749.00,130.27
748.00,130.26
747.00,130.26
746.00,130.26
745.00,130.26
744.00,130.26
743.00,130.26
742.00,130.25
741.00,130.25
740.00,130.25
739.00,130.25
738.00,130.26
737.00,130.26
736.00,130.26
735.00,130.26
734.00,130.27
733.00,130.27
732.00,130.28
731.00,130.28
730.00,130.29
729.00,130.29
728.00,130.28
727.00,130.28
726.00,130.28
725.00,130.29
724.00,130.30
723.00,130.30
722.00,130.30
721.00,130.30
720.00,130.30
719.00,130.30
718.00,130.30
717.00,130.30
716.00,130.30
715.00,130.29
714.00,130.29
713.00,130.28
712.00,130.28
711.00,130.28
710.00,130.27
709.00,130.27
708.00,130.26
707.00,130.25
706.00,130.25
705.00,130.25
704.00,130.25
703.00,130.25
702.00,130.24
701.00,130.23
700.00,130.22
699.00,130.21
698.00,130.21
697.00,130.21
696.00,130.21
695.00,130.21
694.00,130.20
693.00,130.19
692.00,130.18
691.00,130.17
690.00,130.17
689.00,130.17
688.00,130.17
687.00,130.16
686.00,130.16
685.00,130.16
684.00,130.16
683.00,130.16
682.00,130.16
681.00,130.15
680.00,130.15
679.00,130.16
678.00,130.16
677.00,130.16
676.00,130.16
675.00,130.16
674.00,130.16
673.00,130.16
672.00,130.16
671.00,130.19
670.00,130.22
669.00,130.23
668.00,130.21
667.00,130.18
666.00,130.16
665.00,130.15
664.00,130.16
663.00,130.16
662.00,130.16
661.00,130.15
660.00,130.14
659.00,130.13
658.00,130.12
657.00,130.11
656.00,130.10
655.00,130.10
654.00,130.09
653.00,130.09
652.00,130.08
651.00,130.08
650.00,130.08
649.00,130.07
648.00,130.06
647.00,130.05
646.00,130.05
645.00,130.05
644.00,130.05
643.00,130.06
642.00,130.06
641.00,130.05
640.00,130.04
639.00,130.03
638.00,130.02
637.00,130.03
636.00,130.03
635.00,130.03
634.00,130.03
633.00,130.03
632.00,130.03
631.00,130.03
630.00,130.03
629.00,130.03
628.00,130.02
627.00,130.02
626.00,130.02
625.00,130.03
624.00,130.03
623.00,130.03
622.00,130.02
621.00,130.01
620.00,130.01
619.00,130.01
618.00,130.01
617.00,130.02
616.00,130.03
615.00,130.02
614.00,130.02
613.00,130.00
612.00,129.99
611.00,129.99
610.00,130.00
609.00,130.00
608.00,130.00
607.00,129.99
606.00,129.98
605.00,129.97
604.00,129.96
603.00,129.96
602.00,129.97
601.00,129.97
600.00,129.97
599.00,129.97
598.00,129.97
597.00,129.98
596.00,129.97
595.00,129.97
594.00,129.96
593.00,129.95
592.00,129.95
591.00,129.95
590.00,129.95
589.00,129.95
588.00,129.95
587.00,129.93
586.00,129.92
585.00,129.92
584.00,129.92
583.00,129.92
582.00,129.92
581.00,129.91
580.00,129.90
579.00,129.89
578.00,129.89
577.00,129.89
576.00,129.89
575.00,129.89
574.00,129.89
573.00,129.89
572.00,129.88
571.00,129.88
570.00,129.87
569.00,129.86
568.00,129.85
567.00,129.84
566.00,129.85
565.00,129.85
564.00,129.86
563.00,129.87
562.00,129.86
561.00,129.85
560.00,129.84
559.00,129.83
558.00,129.83
557.00,129.84
556.00,129.85
555.00,129.85
554.00,129.84
553.00,129.83
552.00,129.82
551.00,129.81
550.00,129.82
549.00,129.83
548.00,129.84
547.00,129.85
546.00,129.84
545.00,129.84
544.00,129.84
543.00,129.84
542.00,129.84
541.00,129.83
540.00,129.83
539.00,129.83
538.00,129.84
537.00,129.85
536.00,129.86
535.00,129.86
534.00,129.86
533.00,129.86
532.00,129.87
531.00,129.88
530.00,129.89
529.00,129.90
528.00,129.91
527.00,129.92
526.00,129.93
525.00,129.94
524.00,129.96
523.00,129.98
522.00,130.00
521.00,130.02
520.00,130.03
519.00,130.04
518.00,130.05
517.00,130.05
516.00,130.06
515.00,130.06
514.00,130.07
513.00,130.08
512.00,130.09
511.00,130.11
510.00,130.11
509.00,130.11
508.00,130.10
507.00,130.10
506.00,130.12
505.00,130.14
504.00,130.15
503.00,130.15
502.00,130.15
501.00,130.14
500.00,130.13
