3996.73391,0.00038
3994.67373,0.00034
3992.61356,0.00031
3990.55339,0.00024
3988.49322,0.00009
3986.43305,0.00000
3984.37287,0.00002
3982.31270,0.00012
3980.25253,0.00019
3978.19236,0.00029
3976.13219,0.00052
3974.07201,0.00064
3972.01184,0.00051
3969.95167,0.00034
3967.89150,0.00022
3965.83133,0.00019
3963.77115,0.00043
3961.71098,0.00084
3959.65081,0.00092
3957.59064,0.00064
3955.53046,0.00044
3953.47029,0.00052
3951.41012,0.00081
3949.34995,0.00123
3947.28978,0.00145
3945.22960,0.00118
3943.16943,0.00080
3941.10926,0.00062
3939.04909,0.00045
3936.98892,0.00042
3934.92874,0.00080
3932.86857,0.00127
3930.80840,0.00138
3928.74823,0.00116
3926.68805,0.00086
3924.62788,0.00071
3922.56771,0.00094
3920.50754,0.00123
3918.44737,0.00113
3916.38719,0.00095
3914.32702,0.00099
3912.26685,0.00092
3910.20668,0.00058
3908.14651,0.00035
3906.08633,0.00063
3904.02616,0.00126
3901.96599,0.00145
3899.90582,0.00109
3897.84565,0.00071
3895.78547,0.00061
3893.72530,0.00093
3891.66513,0.00152
3889.60496,0.00168
3887.54478,0.00131
3885.48461,0.00115
3883.42444,0.00144
3881.36427,0.00173
3879.30410,0.00191
3877.24392,0.00200
3875.18375,0.00198
3873.12358,0.00172
3871.06341,0.00109
3869.00324,0.00043
3866.94306,0.00014
3864.88289,0.00017
3862.82272,0.00044
3860.76255,0.00081
3858.70237,0.00097
3856.64220,0.00073
3854.58203,0.00028
3852.52186,0.00021
3850.46169,0.00052
3848.40151,0.00095
3846.34134,0.00132
3844.28117,0.00140
3842.22100,0.00125
3840.16083,0.00111
3838.10065,0.00104
3836.04048,0.00102
3833.98031,0.00104
3831.92014,0.00108
3829.85997,0.00106
3827.79979,0.00106
3825.73962,0.00111
3823.67945,0.00112
3821.61928,0.00111
3819.55910,0.00121
3817.49893,0.00131
3815.43876,0.00142
3813.37859,0.00163
3811.31842,0.00165
3809.25824,0.00138
3807.19807,0.00114
3805.13790,0.00106
3803.07773,0.00112
3801.01756,0.00156
3798.95738,0.00194
3796.89721,0.00188
3794.83704,0.00182
3792.77687,0.00190
3790.71670,0.00180
3788.65652,0.00148
3786.59635,0.00144
3784.53618,0.00180
3782.47601,0.00193
3780.41583,0.00165
3778.35566,0.00153
3776.29549,0.00175
3774.23532,0.00187
3772.17515,0.00170
3770.11497,0.00156
3768.05480,0.00160
3765.99463,0.00166
3763.93446,0.00162
3761.87429,0.00131
3759.81411,0.00083
3757.75394,0.00060
3755.69377,0.00062
3753.63360,0.00079
3751.57342,0.00143
3749.51325,0.00221
3747.45308,0.00217
3745.39291,0.00197
3743.33274,0.00236
3741.27256,0.00265
3739.21239,0.00249
3737.15222,0.00242
3735.09205,0.00270
3733.03188,0.00291
3730.97170,0.00273
3728.91153,0.00223
3726.85136,0.00165
3724.79119,0.00145
3722.73102,0.00177
3720.67084,0.00211
3718.61067,0.00208
3716.55050,0.00157
3714.49033,0.00102
3712.43015,0.00125
3710.36998,0.00213
3708.30981,0.00251
3706.24964,0.00236
3704.18947,0.00248
3702.12929,0.00283
3700.06912,0.00295
3698.00895,0.00287
3695.94878,0.00264
3693.88861,0.00222
3691.82843,0.00184
3689.76826,0.00189
3687.70809,0.00209
3685.64792,0.00203
3683.58775,0.00191
3681.52757,0.00193
3679.46740,0.00184
3677.40723,0.00176
3675.34706,0.00222
3673.28688,0.00312
3671.22671,0.00384
3669.16654,0.00437
3667.10637,0.00451
3665.04620,0.00430
3662.98602,0.00424
3660.92585,0.00451
3658.86568,0.00473
3656.80551,0.00486
3654.74534,0.00516
3652.68516,0.00554
3650.62499,0.00612
3648.56482,0.00719
3646.50465,0.00808
3644.44447,0.00816
3642.38430,0.00796
3640.32413,0.00827
3638.26396,0.00904
3636.20379,0.00974
3634.14361,0.01007
3632.08344,0.00994
3630.02327,0.00996
3627.96310,0.01104
3625.90293,0.01240
3623.84275,0.01274
3621.78258,0.01231
3619.72241,0.01215
3617.66224,0.01284
3615.60207,0.01395
3613.54189,0.01499
3611.48172,0.01592
3609.42155,0.01671
3607.36138,0.01738
3605.30120,0.01790
3603.24103,0.01819
3601.18086,0.01844
3599.12069,0.01903
3597.06052,0.02003
3595.00034,0.02094
3592.94017,0.02161
3590.88000,0.02207
3588.81983,0.02248
3586.75966,0.02294
3584.69948,0.02327
3582.63931,0.02350
3580.57914,0.02404
3578.51897,0.02498
3576.45879,0.02585
3574.39862,0.02646
3572.33845,0.02705
3570.27828,0.02764
3568.21811,0.02817
3566.15793,0.02859
3564.09776,0.02874
3562.03759,0.02873
3559.97742,0.02893
3557.91725,0.02955
3555.85707,0.03041
3553.79690,0.03112
3551.73673,0.03156
3549.67656,0.03209
3547.61639,0.03289
3545.55621,0.03381
3543.49604,0.03463
3541.43587,0.03510
3539.37570,0.03536
3537.31552,0.03604
3535.25535,0.03733
3533.19518,0.03851
3531.13501,0.03895
3529.07484,0.03888
3527.01466,0.03886
3524.95449,0.03918
3522.89432,0.03979
3520.83415,0.04034
3518.77398,0.04073
3516.71380,0.04133
3514.65363,0.04217
3512.59346,0.04283
3510.53329,0.04326
3508.47312,0.04371
3506.41294,0.04409
3504.35277,0.04427
3502.29260,0.04462
3500.23243,0.04542
3498.17225,0.04625
3496.11208,0.04675
3494.05191,0.04702
3491.99174,0.04749
3489.93157,0.04818
3487.87139,0.04867
3485.81122,0.04887
3483.75105,0.04909
3481.69088,0.04962
3479.63071,0.05027
3477.57053,0.05058
3475.51036,0.05064
3473.45019,0.05096
3471.39002,0.05147
3469.32984,0.05182
3467.26967,0.05231
3465.20950,0.05300
3463.14933,0.05359
3461.08916,0.05407
3459.02898,0.05452
3456.96881,0.05486
3454.90864,0.05512
3452.84847,0.05529
3450.78830,0.05531
3448.72812,0.05558
3446.66795,0.05625
3444.60778,0.05687
3442.54761,0.05742
3440.48744,0.05812
3438.42726,0.05855
3436.36709,0.05856
3434.30692,0.05872
3432.24675,0.05921
3430.18657,0.05969
3428.12640,0.06009
3426.06623,0.06047
3424.00606,0.06086
3421.94589,0.06102
3419.88571,0.06086
3417.82554,0.06097
3415.76537,0.06146
3413.70520,0.06207
3411.64503,0.06263
3409.58485,0.06285
3407.52468,0.06287
3405.46451,0.06306
3403.40434,0.06342
3401.34416,0.06376
3399.28399,0.06391
3397.22382,0.06404
3395.16365,0.06457
3393.10348,0.06508
3391.04330,0.06512
3388.98313,0.06495
3386.92296,0.06493
3384.86279,0.06512
3382.80262,0.06543
3380.74244,0.06589
3378.68227,0.06640
3376.62210,0.06663
3374.56193,0.06667
3372.50176,0.06682
3370.44158,0.06682
3368.38141,0.06683
3366.32124,0.06712
3364.26107,0.06732
3362.20089,0.06753
3360.14072,0.06792
3358.08055,0.06813
3356.02038,0.06817
3353.96021,0.06822
3351.90003,0.06827
3349.83986,0.06800
3347.77969,0.06737
3345.71952,0.06713
3343.65935,0.06764
3341.59917,0.06828
3339.53900,0.06845
3337.47883,0.06822
3335.41866,0.06804
3333.35849,0.06808
3331.29831,0.06810
3329.23814,0.06819
3327.17797,0.06848
3325.11780,0.06852
3323.05762,0.06844
3320.99745,0.06863
3318.93728,0.06881
3316.87711,0.06877
3314.81694,0.06872
3312.75676,0.06877
3310.69659,0.06876
3308.63642,0.06860
3306.57625,0.06846
3304.51608,0.06855
3302.45590,0.06885
3300.39573,0.06910
3298.33556,0.06921
3296.27539,0.06913
3294.21521,0.06887
3292.15504,0.06867
3290.09487,0.06868
3288.03470,0.06889
3285.97453,0.06924
3283.91435,0.06948
3281.85418,0.06931
3279.79401,0.06909
3277.73384,0.06951
3275.67367,0.07024
3273.61349,0.07049
3271.55332,0.07025
3269.49315,0.06971
3267.43298,0.06919
3265.37281,0.06905
3263.31263,0.06917
3261.25246,0.06948
3259.19229,0.06995
3257.13212,0.07004
3255.07194,0.06965
3253.01177,0.06938
3250.95160,0.06945
3248.89143,0.06957
3246.83126,0.06957
3244.77108,0.06943
3242.71091,0.06935
3240.65074,0.06957
3238.59057,0.06986
3236.53040,0.06980
3234.47022,0.06924
3232.41005,0.06872
3230.34988,0.06873
3228.28971,0.06894
3226.22954,0.06905
3224.16936,0.06888
3222.10919,0.06835
3220.04902,0.06792
3217.98885,0.06785
3215.92867,0.06776
3213.86850,0.06762
3211.80833,0.06761
3209.74816,0.06756
3207.68799,0.06746
3205.62781,0.06751
3203.56764,0.06745
3201.50747,0.06715
3199.44730,0.06707
3197.38713,0.06722
3195.32695,0.06711
3193.26678,0.06665
3191.20661,0.06624
3189.14644,0.06619
3187.08626,0.06628
3185.02609,0.06623
3182.96592,0.06600
3180.90575,0.06555
3178.84558,0.06518
3176.78540,0.06515
3174.72523,0.06518
3172.66506,0.06512
3170.60489,0.06497
3168.54472,0.06471
3166.48454,0.06436
3164.42437,0.06379
3162.36420,0.06313
3160.30403,0.06278
3158.24386,0.06290
3156.18368,0.06308
3154.12351,0.06287
3152.06334,0.06251
3150.00317,0.06239
3147.94299,0.06243
3145.88282,0.06242
3143.82265,0.06237
3141.76248,0.06206
3139.70231,0.06138
3137.64213,0.06078
3135.58196,0.06044
3133.52179,0.06010
3131.46162,0.05991
3129.40145,0.05999
3127.34127,0.06005
3125.28110,0.05988
3123.22093,0.05950
3121.16076,0.05913
3119.10058,0.05890
3117.04041,0.05856
3114.98024,0.05815
3112.92007,0.05792
3110.85990,0.05786
3108.79972,0.05779
3106.73955,0.05749
3104.67938,0.05692
3102.61921,0.05641
3100.55904,0.05626
3098.49886,0.05636
3096.43869,0.05629
3094.37852,0.05591
3092.31835,0.05544
3090.25818,0.05501
3088.19800,0.05468
3086.13783,0.05447
3084.07766,0.05435
3082.01749,0.05408
3079.95731,0.05355
3077.89714,0.05306
3075.83697,0.05286
3073.77680,0.05276
3071.71663,0.05257
3069.65645,0.05233
3067.59628,0.05191
3065.53611,0.05141
3063.47594,0.05123
3061.41577,0.05121
3059.35559,0.05099
3057.29542,0.05061
3055.23525,0.05015
3053.17508,0.04970
3051.11491,0.04942
3049.05473,0.04927
3046.99456,0.04910
3044.93439,0.04882
3042.87422,0.04845
3040.81404,0.04816
3038.75387,0.04810
3036.69370,0.04816
3034.63353,0.04797
3032.57336,0.04744
3030.51318,0.04689
3028.45301,0.04635
3026.39284,0.04576
3024.33267,0.04535
3022.27250,0.04513
3020.21232,0.04477
3018.15215,0.04436
3016.09198,0.04394
3014.03181,0.04357
3011.97163,0.04353
3009.91146,0.04363
3007.85129,0.04356
3005.79112,0.04329
3003.73095,0.04294
3001.67077,0.04242
2999.61060,0.04174
2997.55043,0.04131
2995.49026,0.04138
2993.43009,0.04157
2991.36991,0.04141
2989.30974,0.04096
2987.24957,0.04042
2985.18940,0.04007
2983.12923,0.04018
2981.06905,0.04045
2979.00888,0.04048
2976.94871,0.04024
2974.88854,0.03994
2972.82836,0.03981
2970.76819,0.03967
2968.70802,0.03934
2966.64785,0.03902
2964.58768,0.03888
2962.52750,0.03897
2960.46733,0.03917
2958.40716,0.03922
2956.34699,0.03929
2954.28682,0.03935
2952.22664,0.03925
2950.16647,0.03917
2948.10630,0.03908
2946.04613,0.03904
2943.98596,0.03921
2941.92578,0.03944
2939.86561,0.03939
2937.80544,0.03913
2935.74527,0.03886
2933.68509,0.03861
2931.62492,0.03846
2929.56475,0.03848
2927.50458,0.03861
2925.44441,0.03870
2923.38423,0.03869
2921.32406,0.03854
2919.26389,0.03828
2917.20372,0.03802
2915.14355,0.03768
2913.08337,0.03737
2911.02320,0.03729
2908.96303,0.03719
2906.90286,0.03676
2904.84268,0.03627
2902.78251,0.03601
2900.72234,0.03598
2898.66217,0.03606
2896.60200,0.03603
2894.54182,0.03582
2892.48165,0.03554
2890.42148,0.03535
2888.36131,0.03530
2886.30114,0.03521
2884.24096,0.03509
2882.18079,0.03496
2880.12062,0.03473
2878.06045,0.03442
2876.00028,0.03423
2873.94010,0.03421
2871.87993,0.03410
2869.81976,0.03382
2867.75959,0.03358
2865.69941,0.03339
2863.63924,0.03332
2861.57907,0.03341
2859.51890,0.03331
2857.45873,0.03298
2855.39855,0.03282
2853.33838,0.03276
2851.27821,0.03244
2849.21804,0.03195
2847.15787,0.03158
2845.09769,0.03149
2843.03752,0.03151
2840.97735,0.03118
2838.91718,0.03076
2836.85700,0.03070
2834.79683,0.03069
2832.73666,0.03058
2830.67649,0.03055
2828.61632,0.03038
2826.55614,0.02989
2824.49597,0.02949
2822.43580,0.02932
2820.37563,0.02920
2818.31546,0.02914
2816.25528,0.02906
2814.19511,0.02885
2812.13494,0.02872
2810.07477,0.02867
2808.01460,0.02848
2805.95442,0.02817
2803.89425,0.02786
2801.83408,0.02769
2799.77391,0.02757
2797.71373,0.02749
2795.65356,0.02754
2793.59339,0.02745
2791.53322,0.02721
2789.47305,0.02713
2787.41287,0.02711
2785.35270,0.02704
2783.29253,0.02700
2781.23236,0.02696
2779.17219,0.02675
2777.11201,0.02637
2775.05184,0.02607
2772.99167,0.02600
2770.93150,0.02592
2768.87133,0.02589
2766.81115,0.02608
2764.75098,0.02602
2762.69081,0.02554
2760.63064,0.02515
2758.57046,0.02505
2756.51029,0.02496
2754.45012,0.02487
2752.38995,0.02488
2750.32978,0.02477
2748.26960,0.02446
2746.20943,0.02417
2744.14926,0.02403
2742.08909,0.02399
2740.02892,0.02413
2737.96874,0.02428
2735.90857,0.02404
2733.84840,0.02359
2731.78823,0.02334
2729.72805,0.02318
2727.66788,0.02297
2725.60771,0.02279
2723.54754,0.02275
2721.48737,0.02277
2719.42719,0.02266
2717.36702,0.02252
2715.30685,0.02237
2713.24668,0.02224
2711.18651,0.02217
2709.12633,0.02202
2707.06616,0.02176
2705.00599,0.02152
2702.94582,0.02131
2700.88565,0.02114
2698.82547,0.02115
2696.76530,0.02108
2694.70513,0.02072
2692.64496,0.02037
2690.58478,0.02028
2688.52461,0.02037
2686.46444,0.02042
2684.40427,0.02041
2682.34410,0.02028
2680.28392,0.01991
2678.22375,0.01955
2676.16358,0.01939
2674.10341,0.01944
2672.04324,0.01953
2669.98306,0.01952
2667.92289,0.01921
2665.86272,0.01879
2663.80255,0.01870
2661.74238,0.01880
2659.68220,0.01885
2657.62203,0.01889
2655.56186,0.01866
2653.50169,0.01820
2651.44151,0.01790
2649.38134,0.01769
2647.32117,0.01743
2645.26100,0.01725
2643.20083,0.01709
2641.14065,0.01686
2639.08048,0.01675
2637.02031,0.01695
2634.96014,0.01724
2632.89997,0.01726
2630.83979,0.01704
2628.77962,0.01685
2626.71945,0.01666
2624.65928,0.01631
2622.59910,0.01600
2620.53893,0.01574
2618.47876,0.01541
2616.41859,0.01520
2614.35842,0.01513
2612.29824,0.01509
2610.23807,0.01513
2608.17790,0.01526
2606.11773,0.01511
2604.05756,0.01455
2601.99738,0.01423
2599.93721,0.01443
2597.87704,0.01450
2595.81687,0.01409
2593.75670,0.01367
2591.69652,0.01355
2589.63635,0.01357
2587.57618,0.01372
2585.51601,0.01391
2583.45583,0.01395
2581.39566,0.01381
2579.33549,0.01372
2577.27532,0.01376
2575.21515,0.01365
2573.15497,0.01362
2571.09480,0.01381
2569.03463,0.01359
2566.97446,0.01324
2564.91429,0.01335
2562.85411,0.01333
2560.79394,0.01316
2558.73377,0.01362
2556.67360,0.01404
2554.61342,0.01343
2552.55325,0.01272
2550.49308,0.01262
2548.43291,0.01274
2546.37274,0.01278
2544.31256,0.01274
2542.25239,0.01277
2540.19222,0.01308
2538.13205,0.01347
2536.07188,0.01356
2534.01170,0.01343
2531.95153,0.01354
2529.89136,0.01370
2527.83119,0.01336
2525.77102,0.01302
2523.71084,0.01312
2521.65067,0.01321
2519.59050,0.01297
2517.53033,0.01284
2515.47015,0.01317
2513.40998,0.01349
2511.34981,0.01344
2509.28964,0.01318
2507.22947,0.01308
2505.16929,0.01338
2503.10912,0.01352
2501.04895,0.01339
2498.98878,0.01357
2496.92861,0.01391
2494.86843,0.01388
2492.80826,0.01358
2490.74809,0.01351
2488.68792,0.01357
2486.62775,0.01345
2484.56757,0.01328
2482.50740,0.01323
2480.44723,0.01354
2478.38706,0.01398
2476.32688,0.01403
2474.26671,0.01380
2472.20654,0.01336
2470.14637,0.01293
2468.08620,0.01296
2466.02602,0.01322
2463.96585,0.01321
2461.90568,0.01314
2459.84551,0.01337
2457.78534,0.01376
2455.72516,0.01413
2453.66499,0.01436
2451.60482,0.01442
2449.54465,0.01443
2447.48447,0.01426
2445.42430,0.01402
2443.36413,0.01406
2441.30396,0.01402
2439.24379,0.01365
2437.18361,0.01375
2435.12344,0.01434
2433.06327,0.01436
2431.00310,0.01395
2428.94293,0.01375
2426.88275,0.01359
2424.82258,0.01350
2422.76241,0.01367
2420.70224,0.01390
2418.64207,0.01402
2416.58189,0.01411
2414.52172,0.01419
2412.46155,0.01397
2410.40138,0.01356
2408.34120,0.01343
2406.28103,0.01364
2404.22086,0.01397
2402.16069,0.01401
2400.10052,0.01377
2398.04034,0.01370
2395.98017,0.01372
2393.92000,0.01363
2391.85983,0.01341
2389.79966,0.01321
2387.73948,0.01312
2385.67931,0.01314
2383.61914,0.01321
2381.55897,0.01328
2379.49880,0.01346
2377.43862,0.01375
2375.37845,0.01389
2373.31828,0.01276
2371.25811,0.01060
2369.19793,0.00967
2367.13776,0.01062
2365.07759,0.01205
2363.01742,0.01310
2360.95725,0.01160
2358.89707,0.00981
2356.83690,0.00916
2354.77673,0.01053
2352.71656,0.01258
2350.65639,0.01189
2348.59621,0.01094
2346.53604,0.01336
2344.47587,0.01351
2342.41570,0.01272
2340.35552,0.01234
2338.29535,0.01209
2336.23518,0.01250
2334.17501,0.01291
2332.11484,0.01325
2330.05466,0.01335
2327.99449,0.01354
2325.93432,0.01327
2323.87415,0.01349
2321.81398,0.01368
2319.75380,0.01395
2317.69363,0.01331
2315.63346,0.01290
2313.57329,0.01306
2311.51312,0.01316
2309.45294,0.01316
2307.39277,0.01324
2305.33260,0.01331
2303.27243,0.01321
2301.21225,0.01297
2299.15208,0.01260
2297.09191,0.01259
2295.03174,0.01274
2292.97157,0.01249
2290.91139,0.01224
2288.85122,0.01253
2286.79105,0.01297
2284.73088,0.01304
2282.67071,0.01284
2280.61053,0.01269
2278.55036,0.01254
2276.49019,0.01239
2274.43002,0.01235
2272.36984,0.01224
2270.30967,0.01175
2268.24950,0.01082
2266.18933,0.00996
2264.12916,0.00981
2262.06898,0.01016
2260.00881,0.01029
2257.94864,0.00979
2255.88847,0.00920
2253.82830,0.00925
2251.76812,0.00958
2249.70795,0.00952
2247.64778,0.00919
2245.58761,0.00913
2243.52744,0.00955
2241.46726,0.00997
2239.40709,0.00963
2237.34692,0.00876
2235.28675,0.00879
2233.22657,0.00937
2231.16640,0.00906
2229.10623,0.00941
2227.04606,0.01051
2224.98589,0.01028
2222.92571,0.00944
2220.86554,0.00897
2218.80537,0.00865
2216.74520,0.00840
2214.68503,0.00812
2212.62485,0.00827
2210.56468,0.00915
2208.50451,0.00976
2206.44434,0.00964
2204.38417,0.00945
2202.32399,0.00912
2200.26382,0.00844
2198.20365,0.00766
2196.14348,0.00716
2194.08330,0.00748
2192.02313,0.00803
2189.96296,0.00774
2187.90279,0.00683
2185.84262,0.00575
2183.78244,0.00539
2181.72227,0.00651
2179.66210,0.00771
2177.60193,0.00736
2175.54176,0.00648
2173.48158,0.00618
2171.42141,0.00594
2169.36124,0.00537
2167.30107,0.00463
2165.24089,0.00462
2163.18072,0.00543
2161.12055,0.00517
2159.06038,0.00285
2157.00021,0.00114
2154.94003,0.00235
2152.87986,0.00421
2150.81969,0.00504
2148.75952,0.00585
2146.69935,0.00617
2144.63917,0.00577
2142.57900,0.00647
2140.51883,0.00727
2138.45866,0.00629
2136.39849,0.00508
2134.33831,0.00504
2132.27814,0.00579
2130.21797,0.00665
2128.15780,0.00667
2126.09762,0.00609
2124.03745,0.00593
2121.97728,0.00613
2119.91711,0.00651
2117.85694,0.00702
2115.79676,0.00756
2113.73659,0.00786
2111.67642,0.00750
2109.61625,0.00706
2107.55608,0.00702
2105.49590,0.00690
2103.43573,0.00677
2101.37556,0.00711
2099.31539,0.00723
2097.25521,0.00657
2095.19504,0.00576
2093.13487,0.00559
2091.07470,0.00583
2089.01453,0.00616
2086.95435,0.00672
2084.89418,0.00713
2082.83401,0.00700
2080.77384,0.00660
2078.71367,0.00589
2076.65349,0.00497
2074.59332,0.00467
2072.53315,0.00511
2070.47298,0.00569
2068.41281,0.00645
2066.35263,0.00738
2064.29246,0.00763
2062.23229,0.00671
2060.17212,0.00570
2058.11194,0.00563
2056.05177,0.00627
2053.99160,0.00684
2051.93143,0.00647
2049.87126,0.00509
2047.81108,0.00362
2045.75091,0.00288
2043.69074,0.00317
2041.63057,0.00365
2039.57040,0.00342
2037.51022,0.00275
2035.45005,0.00249
2033.38988,0.00292
2031.32971,0.00374
2029.26954,0.00471
2027.20936,0.00492
2025.14919,0.00387
2023.08902,0.00234
2021.02885,0.00111
2018.96867,0.00065
2016.90850,0.00125
2014.84833,0.00261
2012.78816,0.00352
2010.72799,0.00372
2008.66781,0.00353
2006.60764,0.00270
2004.54747,0.00177
2002.48730,0.00154
2000.42713,0.00205
1998.36695,0.00264
1996.30678,0.00237
1994.24661,0.00211
1992.18644,0.00343
1990.12626,0.00505
1988.06609,0.00511
1986.00592,0.00429
1983.94575,0.00375
1981.88558,0.00356
1979.82540,0.00320
1977.76523,0.00259
1975.70506,0.00223
1973.64489,0.00213
1971.58472,0.00166
1969.52454,0.00131
1967.46437,0.00230
1965.40420,0.00309
1963.34403,0.00239
1961.28386,0.00198
1959.22368,0.00216
1957.16351,0.00196
1955.10334,0.00162
1953.04317,0.00144
1950.98299,0.00143
1948.92282,0.00154
1946.86265,0.00130
1944.80248,0.00075
1942.74231,0.00067
1940.68213,0.00111
1938.62196,0.00160
1936.56179,0.00193
1934.50162,0.00194
1932.44145,0.00173
1930.38127,0.00146
1928.32110,0.00130
1926.26093,0.00159
1924.20076,0.00230
1922.14059,0.00290
1920.08041,0.00321
1918.02024,0.00344
1915.96007,0.00339
1913.89990,0.00316
1911.83972,0.00339
1909.77955,0.00398
1907.71938,0.00419
1905.65921,0.00390
1903.59904,0.00380
1901.53886,0.00392
1899.47869,0.00367
1897.41852,0.00328
1895.35835,0.00325
1893.29818,0.00341
1891.23800,0.00358
1889.17783,0.00376
1887.11766,0.00374
1885.05749,0.00353
1882.99731,0.00331
1880.93714,0.00313
1878.87697,0.00287
1876.81680,0.00253
1874.75663,0.00228
1872.69645,0.00205
1870.63628,0.00192
1868.57611,0.00225
1866.51594,0.00288
1864.45577,0.00323
1862.39559,0.00330
1860.33542,0.00342
1858.27525,0.00368
1856.21508,0.00376
1854.15491,0.00363
1852.09473,0.00355
1850.03456,0.00339
1847.97439,0.00287
1845.91422,0.00231
1843.85404,0.00238
1841.79387,0.00284
1839.73370,0.00299
1837.67353,0.00304
1835.61336,0.00328
1833.55318,0.00344
1831.49301,0.00355
1829.43284,0.00377
1827.37267,0.00371
1825.31250,0.00332
1823.25232,0.00311
1821.19215,0.00322
1819.13198,0.00343
1817.07181,0.00364
1815.01163,0.00377
1812.95146,0.00364
1810.89129,0.00338
1808.83112,0.00345
1806.77095,0.00383
1804.71077,0.00411
1802.65060,0.00419
1800.59043,0.00416
1798.53026,0.00385
1796.47009,0.00325
1794.40991,0.00282
1792.34974,0.00298
1790.28957,0.00353
1788.22940,0.00397
1786.16923,0.00413
1784.10905,0.00402
1782.04888,0.00388
1779.98871,0.00396
1777.92854,0.00406
1775.86836,0.00385
1773.80819,0.00351
1771.74802,0.00349
1769.68785,0.00396
1767.62768,0.00457
1765.56750,0.00483
1763.50733,0.00466
1761.44716,0.00445
1759.38699,0.00468
1757.32682,0.00529
1755.26664,0.00577
1753.20647,0.00588
1751.14630,0.00589
1749.08613,0.00612
1747.02596,0.00653
1744.96578,0.00688
1742.90561,0.00707
1740.84544,0.00724
1738.78527,0.00743
1736.72509,0.00738
1734.66492,0.00727
1732.60475,0.00752
1730.54458,0.00795
1728.48441,0.00842
1726.42423,0.00896
1724.36406,0.00945
1722.30389,0.00958
1720.24372,0.00915
1718.18355,0.00867
1716.12337,0.00899
1714.06320,0.00979
1712.00303,0.01031
1709.94286,0.01049
1707.88268,0.01057
1705.82251,0.01074
1703.76234,0.01098
1701.70217,0.01133
1699.64200,0.01203
1697.58182,0.01300
1695.52165,0.01399
1693.46148,0.01466
1691.40131,0.01489
1689.34114,0.01496
1687.28096,0.01511
1685.22079,0.01564
1683.16062,0.01673
1681.10045,0.01766
1679.04028,0.01821
1676.98010,0.01872
1674.91993,0.01933
1672.85976,0.01981
1670.79959,0.02032
1668.73941,0.02127
1666.67924,0.02225
1664.61907,0.02281
1662.55890,0.02329
1660.49873,0.02388
1658.43855,0.02427
1656.37838,0.02418
1654.31821,0.02389
1652.25804,0.02421
1650.19787,0.02471
1648.13769,0.02474
1646.07752,0.02485
1644.01735,0.02537
1641.95718,0.02579
1639.89701,0.02579
1637.83683,0.02535
1635.77666,0.02493
1633.71649,0.02495
1631.65632,0.02495
1629.59614,0.02455
1627.53597,0.02405
1625.47580,0.02377
1623.41563,0.02369
1621.35546,0.02372
1619.29528,0.02370
1617.23511,0.02355
1615.17494,0.02345
1613.11477,0.02345
1611.05460,0.02336
1608.99442,0.02294
1606.93425,0.02223
1604.87408,0.02154
1602.81391,0.02114
1600.75373,0.02092
1598.69356,0.02048
1596.63339,0.01971
1594.57322,0.01886
1592.51305,0.01806
1590.45287,0.01726
1588.39270,0.01652
1586.33253,0.01593
1584.27236,0.01539
1582.21219,0.01482
1580.15201,0.01420
1578.09184,0.01360
1576.03167,0.01314
1573.97150,0.01281
1571.91133,0.01233
1569.85115,0.01167
1567.79098,0.01105
1565.73081,0.01055
1563.67064,0.00998
1561.61046,0.00919
1559.55029,0.00855
1557.49012,0.00854
1555.42995,0.00855
1553.36978,0.00832
1551.30960,0.00812
1549.24943,0.00799
1547.18926,0.00768
1545.12909,0.00699
1543.06892,0.00605
1541.00874,0.00545
1538.94857,0.00566
1536.88840,0.00606
1534.82823,0.00613
1532.76805,0.00600
1530.70788,0.00578
1528.64771,0.00542
1526.58754,0.00505
1524.52737,0.00479
1522.46719,0.00462
1520.40702,0.00459
1518.34685,0.00450
1516.28668,0.00431
1514.22651,0.00436
1512.16633,0.00459
1510.10616,0.00446
1508.04599,0.00365
1505.98582,0.00297
1503.92565,0.00310
1501.86547,0.00338
1499.80530,0.00343
1497.74513,0.00338
1495.68496,0.00341
1493.62478,0.00336
1491.56461,0.00312
1489.50444,0.00310
1487.44427,0.00351
1485.38410,0.00384
1483.32392,0.00375
1481.26375,0.00359
1479.20358,0.00373
1477.14341,0.00395
1475.08324,0.00396
1473.02306,0.00410
1470.96289,0.00469
1468.90272,0.00511
1466.84255,0.00522
1464.78238,0.00559
1462.72220,0.00606
1460.66203,0.00607
1458.60186,0.00590
1456.54169,0.00609
1454.48151,0.00633
1452.42134,0.00633
1450.36117,0.00621
1448.30100,0.00620
1446.24083,0.00645
1444.18065,0.00677
1442.12048,0.00680
1440.06031,0.00649
1438.00014,0.00615
1435.93997,0.00616
1433.87979,0.00640
1431.81962,0.00657
1429.75945,0.00676
1427.69928,0.00714
1425.63910,0.00758
1423.57893,0.00786
1421.51876,0.00797
1419.45859,0.00811
1417.39842,0.00838
1415.33824,0.00850
1413.27807,0.00842
1411.21790,0.00844
1409.15773,0.00848
1407.09756,0.00828
1405.03738,0.00788
1402.97721,0.00756
1400.91704,0.00736
1398.85687,0.00713
1396.79670,0.00680
1394.73652,0.00655
1392.67635,0.00651
1390.61618,0.00652
1388.55601,0.00651
1386.49583,0.00658
1384.43566,0.00669
1382.37549,0.00675
1380.31532,0.00674
1378.25515,0.00671
1376.19497,0.00668
1374.13480,0.00666
1372.07463,0.00663
1370.01446,0.00652
1367.95429,0.00634
1365.89411,0.00614
1363.83394,0.00602
1361.77377,0.00607
1359.71360,0.00615
1357.65343,0.00608
1355.59325,0.00584
1353.53308,0.00544
1351.47291,0.00501
1349.41274,0.00483
1347.35256,0.00489
1345.29239,0.00495
1343.23222,0.00493
1341.17205,0.00484
1339.11188,0.00474
1337.05170,0.00470
1334.99153,0.00469
1332.93136,0.00466
1330.87119,0.00461
1328.81102,0.00457
1326.75084,0.00452
1324.69067,0.00449
1322.63050,0.00449
1320.57033,0.00441
1318.51015,0.00428
1316.44998,0.00420
1314.38981,0.00424
1312.32964,0.00433
1310.26947,0.00438
1308.20929,0.00439
1306.14912,0.00441
1304.08895,0.00446
1302.02878,0.00456
1299.96861,0.00463
1297.90843,0.00458
1295.84826,0.00442
1293.78809,0.00426
1291.72792,0.00429
1289.66775,0.00448
1287.60757,0.00470
1285.54740,0.00491
1283.48723,0.00509
1281.42706,0.00525
1279.36688,0.00539
1277.30671,0.00546
1275.24654,0.00548
1273.18637,0.00541
1271.12620,0.00534
1269.06602,0.00550
1267.00585,0.00578
1264.94568,0.00584
1262.88551,0.00574
1260.82534,0.00568
1258.76516,0.00563
1256.70499,0.00561
1254.64482,0.00567
1252.58465,0.00575
1250.52447,0.00579
1248.46430,0.00582
1246.40413,0.00577
1244.34396,0.00558
1242.28379,0.00527
1240.22361,0.00498
1238.16344,0.00480
1236.10327,0.00465
1234.04310,0.00446
1231.98293,0.00421
1229.92275,0.00394
1227.86258,0.00367
1225.80241,0.00333
1223.74224,0.00289
1221.68207,0.00243
1219.62189,0.00209
1217.56172,0.00198
1215.50155,0.00191
1213.44138,0.00168
1211.38120,0.00145
1209.32103,0.00134
1207.26086,0.00113
1205.20069,0.00084
1203.14052,0.00084
1201.08034,0.00110
1199.02017,0.00118
1196.96000,0.00104
1194.89983,0.00106
1192.83966,0.00132
1190.77948,0.00175
1188.71931,0.00229
1186.65914,0.00273
1184.59897,0.00315
1182.53880,0.00386
1180.47862,0.00485
1178.41845,0.00596
1176.35828,0.00705
1174.29811,0.00798
1172.23793,0.00897
1170.17776,0.01023
1168.11759,0.01158
1166.05742,0.01293
1163.99725,0.01411
1161.93707,0.01493
1159.87690,0.01565
1157.81673,0.01656
1155.75656,0.01765
1153.69639,0.01875
1151.63621,0.01980
1149.57604,0.02079
1147.51587,0.02183
1145.45570,0.02295
1143.39552,0.02397
1141.33535,0.02503
1139.27518,0.02624
1137.21501,0.02753
1135.15484,0.02892
1133.09466,0.03020
1131.03449,0.03144
1128.97432,0.03296
1126.91415,0.03466
1124.85398,0.03625
1122.79380,0.03772
1120.73363,0.03912
1118.67346,0.04059
1116.61329,0.04233
1114.55312,0.04415
1112.49294,0.04578
1110.43277,0.04758
1108.37260,0.04966
1106.31243,0.05149
1104.25225,0.05304
1102.19208,0.05462
1100.13191,0.05625
1098.07174,0.05783
1096.01157,0.05946
1093.95139,0.06121
1091.89122,0.06313
1089.83105,0.06499
1087.77088,0.06654
1085.71071,0.06789
1083.65053,0.06908
1081.59036,0.07023
1079.53019,0.07152
1077.47002,0.07272
1075.40985,0.07362
1073.34967,0.07434
1071.28950,0.07490
1069.22933,0.07538
1067.16916,0.07580
1065.10898,0.07606
1063.04881,0.07629
1060.98864,0.07641
1058.92847,0.07609
1056.86830,0.07539
1054.80812,0.07455
1052.74795,0.07369
1050.68778,0.07276
1048.62761,0.07164
1046.56744,0.07039
1044.50726,0.06919
1042.44709,0.06782
1040.38692,0.06610
1038.32675,0.06441
1036.26657,0.06307
1034.20640,0.06184
1032.14623,0.06054
1030.08606,0.05918
1028.02589,0.05769
1025.96571,0.05620
1023.90554,0.05486
1021.84537,0.05357
1019.78520,0.05225
1017.72503,0.05089
1015.66485,0.04962
1013.60468,0.04859
1011.54451,0.04753
1009.48434,0.04651
1007.42417,0.04590
1005.36399,0.04533
1003.30382,0.04484
1001.24365,0.04503
999.18348,0.04574
997.12330,0.04658
995.06313,0.04753
993.00296,0.04845
990.94279,0.04918
988.88262,0.04984
986.82244,0.05063
984.76227,0.05111
982.70210,0.05084
980.64193,0.05012
978.58176,0.04930
976.52158,0.04815
974.46141,0.04643
972.40124,0.04440
970.34107,0.04216
968.28089,0.03969
966.22072,0.03730
964.16055,0.03523
962.10038,0.03345
960.04021,0.03182
957.98003,0.03030
955.91986,0.02877
953.85969,0.02709
951.79952,0.02568
949.73935,0.02482
947.67917,0.02409
945.61900,0.02332
943.55883,0.02260
941.49866,0.02203
939.43849,0.02178
937.37831,0.02177
935.31814,0.02161
933.25797,0.02128
931.19780,0.02089
929.13762,0.02054
927.07745,0.02021
925.01728,0.01981
922.95711,0.01932
920.89694,0.01865
918.83676,0.01782
916.77659,0.01699
914.71642,0.01633
912.65625,0.01575
910.59608,0.01520
908.53590,0.01468
906.47573,0.01416
904.41556,0.01358
902.35539,0.01306
900.29522,0.01310
898.23504,0.01360
896.17487,0.01400
894.11470,0.01414
892.05453,0.01410
889.99435,0.01436
887.93418,0.01514
885.87401,0.01597
883.81384,0.01648
881.75367,0.01671
879.69349,0.01703
877.63332,0.01723
875.57315,0.01725
873.51298,0.01762
871.45281,0.01817
869.39263,0.01852
867.33246,0.01865
865.27229,0.01866
863.21212,0.01866
861.15194,0.01863
859.09177,0.01866
857.03160,0.01868
854.97143,0.01851
852.91126,0.01817
850.85108,0.01772
848.79091,0.01715
846.73074,0.01652
844.67057,0.01588
842.61040,0.01525
840.55022,0.01462
838.49005,0.01414
836.42988,0.01397
834.36971,0.01366
832.30954,0.01285
830.24936,0.01184
828.18919,0.01089
826.12902,0.01026
824.06885,0.00996
822.00867,0.00964
819.94850,0.00908
817.88833,0.00851
815.82816,0.00809
813.76799,0.00789
811.70781,0.00805
809.64764,0.00828
807.58747,0.00783
805.52730,0.00684
803.46713,0.00618
801.40695,0.00591
799.34678,0.00559
797.28661,0.00509
795.22644,0.00448
793.16627,0.00412
791.10609,0.00422
789.04592,0.00438
786.98575,0.00456
784.92558,0.00520
782.86540,0.00574
780.80523,0.00556
778.74506,0.00525
776.68489,0.00491
774.62472,0.00420
772.56454,0.00357
770.50437,0.00371
768.44420,0.00454
766.38403,0.00515
764.32386,0.00524
762.26368,0.00469
760.20351,0.00362
758.14334,0.00310
756.08317,0.00309
754.02299,0.00291
751.96282,0.00281
749.90265,0.00295
747.84248,0.00293
745.78231,0.00246
743.72213,0.00214
741.66196,0.00220
739.60179,0.00216
737.54162,0.00240
735.48145,0.00307
733.42127,0.00343
731.36110,0.00341
729.30093,0.00339
727.24076,0.00309
725.18059,0.00235
723.12041,0.00175
721.06024,0.00232
719.00007,0.00300
716.93990,0.00381
714.87972,0.00466
712.81955,0.00506
710.75938,0.00513
708.69921,0.00508
706.63904,0.00495
704.57886,0.00478
702.51869,0.00454
700.45852,0.00421
698.39835,0.00399
696.33818,0.00387
694.27800,0.00378
692.21783,0.00389
690.15766,0.00407
688.09749,0.00383
686.03731,0.00276
683.97714,0.00152
681.91697,0.00139
679.85680,0.00219
677.79663,0.00282
675.73645,0.00307
673.67628,0.00250
671.61611,0.00118
669.55594,0.00390
667.49577,0.00677
665.43559,0.00114
663.37542,0.00183
661.31525,0.00344
659.25508,0.00360
657.19491,0.00350
655.13473,0.00348
653.07456,0.00267
651.01439,0.00164
648.95422,0.00208
646.89404,0.00350
644.83387,0.00462
642.77370,0.00521
640.71353,0.00597
638.65336,0.00673
636.59318,0.00675
634.53301,0.00557
632.47284,0.00343
630.41267,0.00153
628.35250,0.00098
626.29232,0.00151
624.23215,0.00333
622.17198,0.00527
620.11181,0.00592
618.05164,0.00655
615.99146,0.00810
613.93129,0.00910
611.87112,0.00732
609.81095,0.00416
607.75077,0.00200
605.69060,0.00017
603.63043,0.00000
601.57026,0.00075
599.51009,0.00000
