3996.73391,0.00175
3994.67373,0.00158
3992.61356,0.00143
3990.55339,0.00121
3988.49322,0.00101
3986.43305,0.00094
3984.37287,0.00108
3982.31270,0.00130
3980.25253,0.00139
3978.19236,0.00144
3976.13219,0.00143
3974.07201,0.00099
3972.01184,0.00037
3969.95167,0.00008
3967.89150,0.00000
3965.83133,0.00002
3963.77115,0.00034
3961.71098,0.00067
3959.65081,0.00069
3957.59064,0.00068
3955.53046,0.00083
3953.47029,0.00080
3951.41012,0.00062
3949.34995,0.00085
3947.28978,0.00142
3945.22960,0.00167
3943.16943,0.00165
3941.10926,0.00167
3939.04909,0.00160
3936.98892,0.00164
3934.92874,0.00194
3932.86857,0.00221
3930.80840,0.00204
3928.74823,0.00148
3926.68805,0.00098
3924.62788,0.00085
3922.56771,0.00083
3920.50754,0.00085
3918.44737,0.00112
3916.38719,0.00122
3914.32702,0.00080
3912.26685,0.00051
3910.20668,0.00084
3908.14651,0.00139
3906.08633,0.00171
3904.02616,0.00181
3901.96599,0.00181
3899.90582,0.00166
3897.84565,0.00130
3895.78547,0.00106
3893.72530,0.00112
3891.66513,0.00112
3889.60496,0.00083
3887.54478,0.00071
3885.48461,0.00094
3883.42444,0.00123
3881.36427,0.00130
3879.30410,0.00110
3877.24392,0.00081
3875.18375,0.00067
3873.12358,0.00073
3871.06341,0.00096
3869.00324,0.00128
3866.94306,0.00148
3864.88289,0.00133
3862.82272,0.00098
3860.76255,0.00078
3858.70237,0.00100
3856.64220,0.00161
3854.58203,0.00212
3852.52186,0.00203
3850.46169,0.00169
3848.40151,0.00138
3846.34134,0.00105
3844.28117,0.00080
3842.22100,0.00068
3840.16083,0.00040
3838.10065,0.00000
3836.04048,-0.00000
3833.98031,0.00036
3831.92014,0.00077
3829.85997,0.00119
3827.79979,0.00158
3825.73962,0.00165
3823.67945,0.00131
3821.61928,0.00093
3819.55910,0.00088
3817.49893,0.00082
3815.43876,0.00050
3813.37859,0.00035
3811.31842,0.00065
3809.25824,0.00106
3807.19807,0.00108
3805.13790,0.00062
3803.07773,0.00016
3801.01756,0.00010
3798.95738,0.00045
3796.89721,0.00074
3794.83704,0.00065
3792.77687,0.00045
3790.71670,0.00056
3788.65652,0.00094
3786.59635,0.00116
3784.53618,0.00104
3782.47601,0.00084
3780.41583,0.00064
3778.35566,0.00031
3776.29549,0.00011
3774.23532,0.00043
3772.17515,0.00108
3770.11497,0.00142
3768.05480,0.00118
3765.99463,0.00086
3763.93446,0.00094
3761.87429,0.00142
3759.81411,0.00164
3757.75394,0.00113
3755.69377,0.00063
3753.63360,0.00081
3751.57342,0.00108
3749.51325,0.00113
3747.45308,0.00144
3745.39291,0.00171
3743.33274,0.00142
3741.27256,0.00097
3739.21239,0.00088
3737.15222,0.00086
3735.09205,0.00071
3733.03188,0.00094
3730.97170,0.00122
3728.91153,0.00099
3726.85136,0.00067
3724.79119,0.00060
3722.73102,0.00066
3720.67084,0.00079
3718.61067,0.00106
3716.55050,0.00133
3714.49033,0.00149
3712.43015,0.00146
3710.36998,0.00108
3708.30981,0.00081
3706.24964,0.00096
3704.18947,0.00126
3702.12929,0.00133
3700.06912,0.00123
3698.00895,0.00124
3695.94878,0.00139
3693.88861,0.00170
3691.82843,0.00205
3689.76826,0.00213
3687.70809,0.00186
3685.64792,0.00166
3683.58775,0.00157
3681.52757,0.00163
3679.46740,0.00197
3677.40723,0.00247
3675.34706,0.00283
3673.28688,0.00289
3671.22671,0.00283
3669.16654,0.00299
3667.10637,0.00339
3665.04620,0.00376
3662.98602,0.00384
3660.92585,0.00376
3658.86568,0.00385
3656.80551,0.00412
3654.74534,0.00431
3652.68516,0.00436
3650.62499,0.00450
3648.56482,0.00499
3646.50465,0.00542
3644.44447,0.00558
3642.38430,0.00593
3640.32413,0.00669
3638.26396,0.00761
3636.20379,0.00838
3634.14361,0.00897
3632.08344,0.00943
3630.02327,0.00990
3627.96310,0.01041
3625.90293,0.01083
3623.84275,0.01124
3621.78258,0.01192
3619.72241,0.01266
3617.66224,0.01292
3615.60207,0.01275
3613.54189,0.01279
3611.48172,0.01362
3609.42155,0.01479
3607.36138,0.01560
3605.30120,0.01600
3603.24103,0.01629
3601.18086,0.01692
3599.12069,0.01787
3597.06052,0.01854
3595.00034,0.01873
3592.94017,0.01889
3590.88000,0.01936
3588.81983,0.02013
3586.75966,0.02074
3584.69948,0.02095
3582.63931,0.02108
3580.57914,0.02140
3578.51897,0.02203
3576.45879,0.02279
3574.39862,0.02338
3572.33845,0.02365
3570.27828,0.02376
3568.21811,0.02412
3566.15793,0.02486
3564.09776,0.02565
3562.03759,0.02624
3559.97742,0.02659
3557.91725,0.02688
3555.85707,0.02741
3553.79690,0.02824
3551.73673,0.02899
3549.67656,0.02937
3547.61639,0.02952
3545.55621,0.02969
3543.49604,0.03003
3541.43587,0.03051
3539.37570,0.03112
3537.31552,0.03190
3535.25535,0.03265
3533.19518,0.03326
3531.13501,0.03378
3529.07484,0.03419
3527.01466,0.03467
3524.95449,0.03531
3522.89432,0.03589
3520.83415,0.03636
3518.77398,0.03680
3516.71380,0.03722
3514.65363,0.03759
3512.59346,0.03792
3510.53329,0.03829
3508.47312,0.03878
3506.41294,0.03939
3504.35277,0.04000
3502.29260,0.04055
3500.23243,0.04096
3498.17225,0.04130
3496.11208,0.04172
3494.05191,0.04217
3491.99174,0.04260
3489.93157,0.04311
3487.87139,0.04359
3485.81122,0.04386
3483.75105,0.04414
3481.69088,0.04477
3479.63071,0.04540
3477.57053,0.04568
3475.51036,0.04586
3473.45019,0.04613
3471.39002,0.04632
3469.32984,0.04653
3467.26967,0.04710
3465.20950,0.04799
3463.14933,0.04868
3461.08916,0.04903
3459.02898,0.04931
3456.96881,0.04964
3454.90864,0.04999
3452.84847,0.05041
3450.78830,0.05088
3448.72812,0.05117
3446.66795,0.05120
3444.60778,0.05107
3442.54761,0.05114
3440.48744,0.05176
3438.42726,0.05242
3436.36709,0.05273
3434.30692,0.05300
3432.24675,0.05333
3430.18657,0.05370
3428.12640,0.05417
3426.06623,0.05448
3424.00606,0.05446
3421.94589,0.05457
3419.88571,0.05511
3417.82554,0.05563
3415.76537,0.05582
3413.70520,0.05603
3411.64503,0.05658
3409.58485,0.05697
3407.52468,0.05682
3405.46451,0.05672
3403.40434,0.05690
3401.34416,0.05699
3399.28399,0.05721
3397.22382,0.05772
3395.16365,0.05817
3393.10348,0.05834
3391.04330,0.05837
3388.98313,0.05841
3386.92296,0.05859
3384.86279,0.05890
3382.80262,0.05919
3380.74244,0.05939
3378.68227,0.05968
3376.62210,0.06012
3374.56193,0.06047
3372.50176,0.06069
3370.44158,0.06093
3368.38141,0.06096
3366.32124,0.06071
3364.26107,0.06047
3362.20089,0.06039
3360.14072,0.06067
3358.08055,0.06107
3356.02038,0.06095
3353.96021,0.06074
3351.90003,0.06126
3349.83986,0.06198
3347.77969,0.06208
3345.71952,0.06180
3343.65935,0.06181
3341.59917,0.06203
3339.53900,0.06211
3337.47883,0.06228
3335.41866,0.06262
3333.35849,0.06281
3331.29831,0.06279
3329.23814,0.06267
3327.17797,0.06261
3325.11780,0.06273
3323.05762,0.06283
3320.99745,0.06280
3318.93728,0.06283
3316.87711,0.06288
3314.81694,0.06273
3312.75676,0.06263
3310.69659,0.06267
3308.63642,0.06257
3306.57625,0.06254
3304.51608,0.06271
3302.45590,0.06286
3300.39573,0.06312
3298.33556,0.06351
3296.27539,0.06355
3294.21521,0.06336
3292.15504,0.06354
3290.09487,0.06382
3288.03470,0.06376
3285.97453,0.06366
3283.91435,0.06372
3281.85418,0.06358
3279.79401,0.06329
3277.73384,0.06343
3275.67367,0.06397
3273.61349,0.06431
3271.55332,0.06428
3269.49315,0.06424
3267.43298,0.06424
3265.37281,0.06416
3263.31263,0.06410
3261.25246,0.06412
3259.19229,0.06405
3257.13212,0.06402
3255.07194,0.06413
3253.01177,0.06404
3250.95160,0.06378
3248.89143,0.06362
3246.83126,0.06388
3244.77108,0.06442
3242.71091,0.06470
3240.65074,0.06475
3238.59057,0.06486
3236.53040,0.06485
3234.47022,0.06455
3232.41005,0.06410
3230.34988,0.06364
3228.28971,0.06347
3226.22954,0.06365
3224.16936,0.06383
3222.10919,0.06383
3220.04902,0.06380
3217.98885,0.06380
3215.92867,0.06379
3213.86850,0.06384
3211.80833,0.06384
3209.74816,0.06377
3207.68799,0.06365
3205.62781,0.06340
3203.56764,0.06315
3201.50747,0.06310
3199.44730,0.06305
3197.38713,0.06272
3195.32695,0.06238
3193.26678,0.06241
3191.20661,0.06267
3189.14644,0.06263
3187.08626,0.06216
3185.02609,0.06166
3182.96592,0.06150
3180.90575,0.06155
3178.84558,0.06145
3176.78540,0.06127
3174.72523,0.06113
3172.66506,0.06092
3170.60489,0.06081
3168.54472,0.06097
3166.48454,0.06116
3164.42437,0.06099
3162.36420,0.06027
3160.30403,0.05967
3158.24386,0.05967
3156.18368,0.05983
3154.12351,0.05993
3152.06334,0.05990
3150.00317,0.05944
3147.94299,0.05871
3145.88282,0.05833
3143.82265,0.05828
3141.76248,0.05814
3139.70231,0.05801
3137.64213,0.05804
3135.58196,0.05800
3133.52179,0.05778
3131.46162,0.05751
3129.40145,0.05727
3127.34127,0.05707
3125.28110,0.05692
3123.22093,0.05668
3121.16076,0.05619
3119.10058,0.05562
3117.04041,0.05524
3114.98024,0.05518
3112.92007,0.05532
3110.85990,0.05542
3108.79972,0.05511
3106.73955,0.05448
3104.67938,0.05395
3102.61921,0.05361
3100.55904,0.05345
3098.49886,0.05334
3096.43869,0.05325
3094.37852,0.05319
3092.31835,0.05298
3090.25818,0.05262
3088.19800,0.05231
3086.13783,0.05205
3084.07766,0.05187
3082.01749,0.05181
3079.95731,0.05167
3077.89714,0.05145
3075.83697,0.05126
3073.77680,0.05095
3071.71663,0.05042
3069.65645,0.04992
3067.59628,0.04963
3065.53611,0.04946
3063.47594,0.04926
3061.41577,0.04894
3059.35559,0.04850
3057.29542,0.04816
3055.23525,0.04812
3053.17508,0.04814
3051.11491,0.04783
3049.05473,0.04731
3046.99456,0.04704
3044.93439,0.04693
3042.87422,0.04663
3040.81404,0.04625
3038.75387,0.04598
3036.69370,0.04570
3034.63353,0.04537
3032.57336,0.04507
3030.51318,0.04475
3028.45301,0.04433
3026.39284,0.04400
3024.33267,0.04384
3022.27250,0.04351
3020.21232,0.04306
3018.15215,0.04272
3016.09198,0.04235
3014.03181,0.04209
3011.97163,0.04202
3009.91146,0.04174
3007.85129,0.04116
3005.79112,0.04063
3003.73095,0.04029
3001.67077,0.04018
2999.61060,0.04030
2997.55043,0.04044
2995.49026,0.04028
2993.43009,0.03999
2991.36991,0.03979
2989.30974,0.03948
2987.24957,0.03905
2985.18940,0.03883
2983.12923,0.03880
2981.06905,0.03857
2979.00888,0.03818
2976.94871,0.03796
2974.88854,0.03780
2972.82836,0.03765
2970.76819,0.03771
2968.70802,0.03793
2966.64785,0.03794
2964.58768,0.03749
2962.52750,0.03698
2960.46733,0.03688
2958.40716,0.03706
2956.34699,0.03712
2954.28682,0.03680
2952.22664,0.03634
2950.16647,0.03610
2948.10630,0.03613
2946.04613,0.03624
2943.98596,0.03626
2941.92578,0.03631
2939.86561,0.03636
2937.80544,0.03619
2935.74527,0.03602
2933.68509,0.03614
2931.62492,0.03632
2929.56475,0.03631
2927.50458,0.03611
2925.44441,0.03593
2923.38423,0.03573
2921.32406,0.03528
2919.26389,0.03477
2917.20372,0.03448
2915.14355,0.03438
2913.08337,0.03425
2911.02320,0.03408
2908.96303,0.03391
2906.90286,0.03381
2904.84268,0.03372
2902.78251,0.03337
2900.72234,0.03302
2898.66217,0.03302
2896.60200,0.03311
2894.54182,0.03294
2892.48165,0.03273
2890.42148,0.03269
2888.36131,0.03260
2886.30114,0.03253
2884.24096,0.03258
2882.18079,0.03234
2880.12062,0.03185
2878.06045,0.03178
2876.00028,0.03206
2873.94010,0.03221
2871.87993,0.03215
2869.81976,0.03188
2867.75959,0.03147
2865.69941,0.03116
2863.63924,0.03101
2861.57907,0.03086
2859.51890,0.03070
2857.45873,0.03059
2855.39855,0.03053
2853.33838,0.03056
2851.27821,0.03059
2849.21804,0.03041
2847.15787,0.03018
2845.09769,0.02998
2843.03752,0.02975
2840.97735,0.02950
2838.91718,0.02920
2836.85700,0.02893
2834.79683,0.02867
2832.73666,0.02837
2830.67649,0.02816
2828.61632,0.02795
2826.55614,0.02768
2824.49597,0.02748
2822.43580,0.02753
2820.37563,0.02765
2818.31546,0.02759
2816.25528,0.02736
2814.19511,0.02704
2812.13494,0.02687
2810.07477,0.02686
2808.01460,0.02673
2805.95442,0.02642
2803.89425,0.02611
2801.83408,0.02599
2799.77391,0.02598
2797.71373,0.02599
2795.65356,0.02590
2793.59339,0.02573
2791.53322,0.02570
2789.47305,0.02572
2787.41287,0.02568
2785.35270,0.02560
2783.29253,0.02550
2781.23236,0.02537
2779.17219,0.02503
2777.11201,0.02460
2775.05184,0.02444
2772.99167,0.02440
2770.93150,0.02412
2768.87133,0.02388
2766.81115,0.02392
2764.75098,0.02384
2762.69081,0.02369
2760.63064,0.02372
2758.57046,0.02360
2756.51029,0.02321
2754.45012,0.02292
2752.38995,0.02290
2750.32978,0.02291
2748.26960,0.02273
2746.20943,0.02261
2744.14926,0.02268
2742.08909,0.02265
2740.02892,0.02252
2737.96874,0.02233
2735.90857,0.02198
2733.84840,0.02174
2731.78823,0.02182
2729.72805,0.02189
2727.66788,0.02167
2725.60771,0.02139
2723.54754,0.02133
2721.48737,0.02135
2719.42719,0.02122
2717.36702,0.02095
2715.30685,0.02067
2713.24668,0.02054
2711.18651,0.02056
2709.12633,0.02058
2707.06616,0.02045
2705.00599,0.02017
2702.94582,0.01986
2700.88565,0.01963
2698.82547,0.01952
2696.76530,0.01940
2694.70513,0.01923
2692.64496,0.01908
2690.58478,0.01896
2688.52461,0.01889
2686.46444,0.01875
2684.40427,0.01854
2682.34410,0.01840
2680.28392,0.01835
2678.22375,0.01827
2676.16358,0.01797
2674.10341,0.01769
2672.04324,0.01770
2669.98306,0.01776
2667.92289,0.01764
2665.86272,0.01740
2663.80255,0.01714
2661.74238,0.01690
2659.68220,0.01673
2657.62203,0.01655
2655.56186,0.01616
2653.50169,0.01584
2651.44151,0.01584
2649.38134,0.01593
2647.32117,0.01591
2645.26100,0.01583
2643.20083,0.01566
2641.14065,0.01535
2639.08048,0.01491
2637.02031,0.01456
2634.96014,0.01450
2632.89997,0.01446
2630.83979,0.01434
2628.77962,0.01441
2626.71945,0.01457
2624.65928,0.01451
2622.59910,0.01433
2620.53893,0.01413
2618.47876,0.01395
2616.41859,0.01383
2614.35842,0.01369
2612.29824,0.01354
2610.23807,0.01346
2608.17790,0.01342
2606.11773,0.01336
2604.05756,0.01313
2601.99738,0.01274
2599.93721,0.01268
2597.87704,0.01304
2595.81687,0.01327
2593.75670,0.01313
2591.69652,0.01290
2589.63635,0.01280
2587.57618,0.01256
2585.51601,0.01222
2583.45583,0.01224
2581.39566,0.01236
2579.33549,0.01235
2577.27532,0.01240
2575.21515,0.01238
2573.15497,0.01218
2571.09480,0.01194
2569.03463,0.01196
2566.97446,0.01223
2564.91429,0.01246
2562.85411,0.01276
2560.79394,0.01299
2558.73377,0.01265
2556.67360,0.01208
2554.61342,0.01196
2552.55325,0.01211
2550.49308,0.01215
2548.43291,0.01204
2546.37274,0.01220
2544.31256,0.01259
2542.25239,0.01270
2540.19222,0.01265
2538.13205,0.01259
2536.07188,0.01246
2534.01170,0.01242
2531.95153,0.01266
2529.89136,0.01288
2527.83119,0.01287
2525.77102,0.01278
2523.71084,0.01242
2521.65067,0.01188
2519.59050,0.01179
2517.53033,0.01210
2515.47015,0.01222
2513.40998,0.01203
2511.34981,0.01178
2509.28964,0.01174
2507.22947,0.01194
2505.16929,0.01211
2503.10912,0.01219
2501.04895,0.01245
2498.98878,0.01264
2496.92861,0.01252
2494.86843,0.01251
2492.80826,0.01265
2490.74809,0.01259
2488.68792,0.01252
2486.62775,0.01266
2484.56757,0.01291
2482.50740,0.01333
2480.44723,0.01372
2478.38706,0.01360
2476.32688,0.01324
2474.26671,0.01303
2472.20654,0.01280
2470.14637,0.01284
2468.08620,0.01312
2466.02602,0.01312
2463.96585,0.01289
2461.90568,0.01283
2459.84551,0.01301
2457.78534,0.01325
2455.72516,0.01348
2453.66499,0.01346
2451.60482,0.01318
2449.54465,0.01327
2447.48447,0.01347
2445.42430,0.01332
2443.36413,0.01299
2441.30396,0.01281
2439.24379,0.01274
2437.18361,0.01263
2435.12344,0.01275
2433.06327,0.01331
2431.00310,0.01393
2428.94293,0.01411
2426.88275,0.01381
2424.82258,0.01337
2422.76241,0.01301
2420.70224,0.01302
2418.64207,0.01347
2416.58189,0.01366
2414.52172,0.01336
2412.46155,0.01323
2410.40138,0.01372
2408.34120,0.01431
2406.28103,0.01440
2404.22086,0.01406
2402.16069,0.01372
2400.10052,0.01355
2398.04034,0.01342
2395.98017,0.01339
2393.92000,0.01343
2391.85983,0.01358
2389.79966,0.01380
2387.73948,0.01384
2385.67931,0.01365
2383.61914,0.01369
2381.55897,0.01404
2379.49880,0.01425
2377.43862,0.01411
2375.37845,0.01387
2373.31828,0.01309
2371.25811,0.01206
2369.19793,0.01164
2367.13776,0.01073
2365.07759,0.00981
2363.01742,0.01098
2360.95725,0.01174
2358.89707,0.01329
2356.83690,0.01529
2354.77673,0.01586
2352.71656,0.01487
2350.65639,0.01226
2348.59621,0.01100
2346.53604,0.01308
2344.47587,0.01240
2342.41570,0.01079
2340.35552,0.01065
2338.29535,0.01103
2336.23518,0.01099
2334.17501,0.01014
2332.11484,0.00989
2330.05466,0.01114
2327.99449,0.01330
2325.93432,0.01416
2323.87415,0.01423
2321.81398,0.01389
2319.75380,0.01365
2317.69363,0.01267
2315.63346,0.01212
2313.57329,0.01224
2311.51312,0.01242
2309.45294,0.01255
2307.39277,0.01260
2305.33260,0.01268
2303.27243,0.01284
2301.21225,0.01287
2299.15208,0.01254
2297.09191,0.01244
2295.03174,0.01262
2292.97157,0.01250
2290.91139,0.01215
2288.85122,0.01186
2286.79105,0.01155
2284.73088,0.01116
2282.67071,0.01086
2280.61053,0.01075
2278.55036,0.01060
2276.49019,0.01030
2274.43002,0.01014
2272.36984,0.01010
2270.30967,0.00983
2268.24950,0.00955
2266.18933,0.00978
2264.12916,0.01013
2262.06898,0.00982
2260.00881,0.00913
2257.94864,0.00873
2255.88847,0.00851
2253.82830,0.00813
2251.76812,0.00796
2249.70795,0.00830
2247.64778,0.00879
2245.58761,0.00877
2243.52744,0.00838
2241.46726,0.00798
2239.40709,0.00797
2237.34692,0.00863
2235.28675,0.00906
2233.22657,0.00877
2231.16640,0.00877
2229.10623,0.00910
2227.04606,0.00868
2224.98589,0.00794
2222.92571,0.00806
2220.86554,0.00891
2218.80537,0.00915
2216.74520,0.00827
2214.68503,0.00750
2212.62485,0.00766
2210.56468,0.00876
2208.50451,0.01018
2206.44434,0.01040
2204.38417,0.00912
2202.32399,0.00757
2200.26382,0.00632
2198.20365,0.00587
2196.14348,0.00698
2194.08330,0.00853
2192.02313,0.00884
2189.96296,0.00772
2187.90279,0.00661
2185.84262,0.00692
2183.78244,0.00771
2181.72227,0.00754
2179.66210,0.00644
2177.60193,0.00509
2175.54176,0.00470
2173.48158,0.00582
2171.42141,0.00714
2169.36124,0.00712
2167.30107,0.00545
2165.24089,0.00342
2163.18072,0.00235
2161.12055,0.00195
2159.06038,0.00208
2157.00021,0.00332
2154.94003,0.00404
2152.87986,0.00301
2150.81969,0.00234
2148.75952,0.00311
2146.69935,0.00450
2144.63917,0.00546
2142.57900,0.00526
2140.51883,0.00504
2138.45866,0.00525
2136.39849,0.00511
2134.33831,0.00510
2132.27814,0.00553
2130.21797,0.00581
2128.15780,0.00586
2126.09762,0.00605
2124.03745,0.00608
2121.97728,0.00575
2119.91711,0.00571
2117.85694,0.00595
2115.79676,0.00584
2113.73659,0.00515
2111.67642,0.00474
2109.61625,0.00559
2107.55608,0.00668
2105.49590,0.00681
2103.43573,0.00599
2101.37556,0.00476
2099.31539,0.00410
2097.25521,0.00412
2095.19504,0.00412
2093.13487,0.00390
2091.07470,0.00410
2089.01453,0.00464
2086.95435,0.00487
2084.89418,0.00531
2082.83401,0.00629
2080.77384,0.00671
2078.71367,0.00602
2076.65349,0.00516
2074.59332,0.00495
2072.53315,0.00507
2070.47298,0.00519
2068.41281,0.00534
2066.35263,0.00509
2064.29246,0.00442
2062.23229,0.00391
2060.17212,0.00335
2058.11194,0.00302
2056.05177,0.00374
2053.99160,0.00460
2051.93143,0.00482
2049.87126,0.00473
2047.81108,0.00477
2045.75091,0.00496
2043.69074,0.00449
2041.63057,0.00334
2039.57040,0.00250
2037.51022,0.00204
2035.45005,0.00203
2033.38988,0.00195
2031.32971,0.00089
2029.26954,0.00000
2027.20936,0.00029
2025.14919,0.00110
2023.08902,0.00161
2021.02885,0.00151
2018.96867,0.00118
2016.90850,0.00101
2014.84833,0.00112
2012.78816,0.00152
2010.72799,0.00181
2008.66781,0.00160
2006.60764,0.00143
2004.54747,0.00184
2002.48730,0.00224
2000.42713,0.00242
1998.36695,0.00254
1996.30678,0.00230
1994.24661,0.00235
1992.18644,0.00297
1990.12626,0.00327
1988.06609,0.00237
1986.00592,0.00096
1983.94575,0.00093
1981.88558,0.00168
1979.82540,0.00148
1977.76523,0.00133
1975.70506,0.00237
1973.64489,0.00272
1971.58472,0.00111
1969.52454,0.00023
1967.46437,0.00136
1965.40420,0.00169
1963.34403,0.00103
1961.28386,0.00133
1959.22368,0.00255
1957.16351,0.00340
1955.10334,0.00276
1953.04317,0.00117
1950.98299,0.00042
1948.92282,0.00084
1946.86265,0.00144
1944.80248,0.00178
1942.74231,0.00171
1940.68213,0.00135
1938.62196,0.00147
1936.56179,0.00195
1934.50162,0.00213
1932.44145,0.00231
1930.38127,0.00291
1928.32110,0.00346
1926.26093,0.00341
1924.20076,0.00302
1922.14059,0.00290
1920.08041,0.00345
1918.02024,0.00403
1915.96007,0.00377
1913.89990,0.00304
1911.83972,0.00234
1909.77955,0.00176
1907.71938,0.00141
1905.65921,0.00134
1903.59904,0.00153
1901.53886,0.00203
1899.47869,0.00255
1897.41852,0.00280
1895.35835,0.00267
1893.29818,0.00213
1891.23800,0.00151
1889.17783,0.00151
1887.11766,0.00229
1885.05749,0.00312
1882.99731,0.00344
1880.93714,0.00324
1878.87697,0.00283
1876.81680,0.00263
1874.75663,0.00261
1872.69645,0.00243
1870.63628,0.00213
1868.57611,0.00218
1866.51594,0.00259
1864.45577,0.00279
1862.39559,0.00283
1860.33542,0.00301
1858.27525,0.00316
1856.21508,0.00307
1854.15491,0.00296
1852.09473,0.00299
1850.03456,0.00296
1847.97439,0.00272
1845.91422,0.00241
1843.85404,0.00225
1841.79387,0.00239
1839.73370,0.00273
1837.67353,0.00300
1835.61336,0.00313
1833.55318,0.00329
1831.49301,0.00348
1829.43284,0.00342
1827.37267,0.00320
1825.31250,0.00316
1823.25232,0.00326
1821.19215,0.00329
1819.13198,0.00323
1817.07181,0.00325
1815.01163,0.00337
1812.95146,0.00340
1810.89129,0.00342
1808.83112,0.00348
1806.77095,0.00340
1804.71077,0.00326
1802.65060,0.00333
1800.59043,0.00355
1798.53026,0.00359
1796.47009,0.00348
1794.40991,0.00351
1792.34974,0.00372
1790.28957,0.00392
1788.22940,0.00394
1786.16923,0.00387
1784.10905,0.00393
1782.04888,0.00410
1779.98871,0.00403
1777.92854,0.00374
1775.86836,0.00362
1773.80819,0.00377
1771.74802,0.00401
1769.68785,0.00422
1767.62768,0.00429
1765.56750,0.00423
1763.50733,0.00418
1761.44716,0.00428
1759.38699,0.00448
1757.32682,0.00469
1755.26664,0.00495
1753.20647,0.00530
1751.14630,0.00568
1749.08613,0.00592
1747.02596,0.00591
1744.96578,0.00576
1742.90561,0.00571
1740.84544,0.00581
1738.78527,0.00595
1736.72509,0.00605
1734.66492,0.00624
1732.60475,0.00674
1730.54458,0.00721
1728.48441,0.00740
1726.42423,0.00754
1724.36406,0.00779
1722.30389,0.00805
1720.24372,0.00815
1718.18355,0.00810
1716.12337,0.00822
1714.06320,0.00872
1712.00303,0.00922
1709.94286,0.00951
1707.88268,0.00971
1705.82251,0.01004
1703.76234,0.01045
1701.70217,0.01083
1699.64200,0.01130
1697.58182,0.01201
1695.52165,0.01265
1693.46148,0.01297
1691.40131,0.01310
1689.34114,0.01319
1687.28096,0.01324
1685.22079,0.01349
1683.16062,0.01434
1681.10045,0.01533
1679.04028,0.01586
1676.98010,0.01613
1674.91993,0.01664
1672.85976,0.01734
1670.79959,0.01788
1668.73941,0.01839
1666.67924,0.01900
1664.61907,0.01950
1662.55890,0.01985
1660.49873,0.02016
1658.43855,0.02045
1656.37838,0.02074
1654.31821,0.02093
1652.25804,0.02079
1650.19787,0.02043
1648.13769,0.02027
1646.07752,0.02052
1644.01735,0.02086
1641.95718,0.02095
1639.89701,0.02086
1637.83683,0.02057
1635.77666,0.02001
1633.71649,0.01963
1631.65632,0.01954
1629.59614,0.01937
1627.53597,0.01897
1625.47580,0.01849
1623.41563,0.01803
1621.35546,0.01768
1619.29528,0.01738
1617.23511,0.01709
1615.17494,0.01696
1613.11477,0.01695
1611.05460,0.01679
1608.99442,0.01635
1606.93425,0.01580
1604.87408,0.01542
1602.81391,0.01519
1600.75373,0.01494
1598.69356,0.01453
1596.63339,0.01396
1594.57322,0.01332
1592.51305,0.01282
1590.45287,0.01252
1588.39270,0.01223
1586.33253,0.01179
1584.27236,0.01126
1582.21219,0.01076
1580.15201,0.01034
1578.09184,0.00995
1576.03167,0.00946
1573.97150,0.00895
1571.91133,0.00868
1569.85115,0.00852
1567.79098,0.00820
1565.73081,0.00770
1563.67064,0.00720
1561.61046,0.00680
1559.55029,0.00641
1557.49012,0.00626
1555.42995,0.00628
1553.36978,0.00613
1551.30960,0.00587
1549.24943,0.00573
1547.18926,0.00576
1545.12909,0.00579
1543.06892,0.00559
1541.00874,0.00517
1538.94857,0.00473
1536.88840,0.00449
1534.82823,0.00441
1532.76805,0.00431
1530.70788,0.00419
1528.64771,0.00417
1526.58754,0.00414
1524.52737,0.00391
1522.46719,0.00338
1520.40702,0.00276
1518.34685,0.00244
1516.28668,0.00259
1514.22651,0.00282
1512.16633,0.00275
1510.10616,0.00250
1508.04599,0.00217
1505.98582,0.00187
1503.92565,0.00176
1501.86547,0.00175
1499.80530,0.00177
1497.74513,0.00191
1495.68496,0.00213
1493.62478,0.00234
1491.56461,0.00248
1489.50444,0.00247
1487.44427,0.00236
1485.38410,0.00227
1483.32392,0.00223
1481.26375,0.00226
1479.20358,0.00235
1477.14341,0.00241
1475.08324,0.00247
1473.02306,0.00273
1470.96289,0.00297
1468.90272,0.00297
1466.84255,0.00291
1464.78238,0.00293
1462.72220,0.00291
1460.66203,0.00280
1458.60186,0.00279
1456.54169,0.00304
1454.48151,0.00329
1452.42134,0.00330
1450.36117,0.00332
1448.30100,0.00342
1446.24083,0.00333
1444.18065,0.00311
1442.12048,0.00298
1440.06031,0.00290
1438.00014,0.00283
1435.93997,0.00283
1433.87979,0.00282
1431.81962,0.00281
1429.75945,0.00291
1427.69928,0.00306
1425.63910,0.00326
1423.57893,0.00343
1421.51876,0.00343
1419.45859,0.00337
1417.39842,0.00350
1415.33824,0.00365
1413.27807,0.00364
1411.21790,0.00355
1409.15773,0.00338
1407.09756,0.00317
1405.03738,0.00305
1402.97721,0.00297
1400.91704,0.00275
1398.85687,0.00258
1396.79670,0.00265
1394.73652,0.00274
1392.67635,0.00265
1390.61618,0.00255
1388.55601,0.00245
1386.49583,0.00237
1384.43566,0.00239
1382.37549,0.00255
1380.31532,0.00276
1378.25515,0.00292
1376.19497,0.00297
1374.13480,0.00293
1372.07463,0.00282
1370.01446,0.00271
1367.95429,0.00267
1365.89411,0.00265
1363.83394,0.00249
1361.77377,0.00223
1359.71360,0.00209
1357.65343,0.00202
1355.59325,0.00191
1353.53308,0.00180
1351.47291,0.00171
1349.41274,0.00162
1347.35256,0.00159
1345.29239,0.00166
1343.23222,0.00183
1341.17205,0.00200
1339.11188,0.00201
1337.05170,0.00187
1334.99153,0.00174
1332.93136,0.00170
1330.87119,0.00172
1328.81102,0.00176
1326.75084,0.00178
1324.69067,0.00174
1322.63050,0.00170
1320.57033,0.00176
1318.51015,0.00187
1316.44998,0.00192
1314.38981,0.00189
1312.32964,0.00189
1310.26947,0.00193
1308.20929,0.00196
1306.14912,0.00200
1304.08895,0.00206
1302.02878,0.00213
1299.96861,0.00223
1297.90843,0.00243
1295.84826,0.00268
1293.78809,0.00271
1291.72792,0.00249
1289.66775,0.00237
1287.60757,0.00249
1285.54740,0.00261
1283.48723,0.00265
1281.42706,0.00275
1279.36688,0.00290
1277.30671,0.00290
1275.24654,0.00282
1273.18637,0.00291
1271.12620,0.00308
1269.06602,0.00317
1267.00585,0.00332
1264.94568,0.00354
1262.88551,0.00367
1260.82534,0.00363
1258.76516,0.00352
1256.70499,0.00353
1254.64482,0.00360
1252.58465,0.00347
1250.52447,0.00318
1248.46430,0.00315
1246.40413,0.00334
1244.34396,0.00332
1242.28379,0.00295
1240.22361,0.00259
1238.16344,0.00241
1236.10327,0.00229
1234.04310,0.00219
1231.98293,0.00203
1229.92275,0.00176
1227.86258,0.00157
1225.80241,0.00149
1223.74224,0.00128
1221.68207,0.00090
1219.62189,0.00060
1217.56172,0.00055
1215.50155,0.00070
1213.44138,0.00075
1211.38120,0.00053
1209.32103,0.00023
1207.26086,0.00005
1205.20069,0.00000
1203.14052,0.00011
1201.08034,0.00034
1199.02017,0.00048
1196.96000,0.00061
1194.89983,0.00083
1192.83966,0.00107
1190.77948,0.00142
1188.71931,0.00191
1186.65914,0.00247
1184.59897,0.00308
1182.53880,0.00374
1180.47862,0.00442
1178.41845,0.00518
1176.35828,0.00622
1174.29811,0.00737
1172.23793,0.00842
1170.17776,0.00930
1168.11759,0.01005
1166.05742,0.01092
1163.99725,0.01207
1161.93707,0.01325
1159.87690,0.01425
1157.81673,0.01516
1155.75656,0.01605
1153.69639,0.01682
1151.63621,0.01752
1149.57604,0.01837
1147.51587,0.01947
1145.45570,0.02070
1143.39552,0.02197
1141.33535,0.02335
1139.27518,0.02472
1137.21501,0.02596
1135.15484,0.02729
1133.09466,0.02880
1131.03449,0.03024
1128.97432,0.03155
1126.91415,0.03295
1124.85398,0.03447
1122.79380,0.03603
1120.73363,0.03758
1118.67346,0.03912
1116.61329,0.04072
1114.55312,0.04236
1112.49294,0.04399
1110.43277,0.04561
1108.37260,0.04724
1106.31243,0.04882
1104.25225,0.05038
1102.19208,0.05198
1100.13191,0.05339
1098.07174,0.05470
1096.01157,0.05621
1093.95139,0.05765
1091.89122,0.05883
1089.83105,0.05989
1087.77088,0.06099
1085.71071,0.06231
1083.65053,0.06374
1081.59036,0.06502
1079.53019,0.06616
1077.47002,0.06716
1075.40985,0.06797
1073.34967,0.06861
1071.28950,0.06898
1069.22933,0.06917
1067.16916,0.06941
1065.10898,0.06939
1063.04881,0.06895
1060.98864,0.06838
1058.92847,0.06782
1056.86830,0.06723
1054.80812,0.06650
1052.74795,0.06553
1050.68778,0.06440
1048.62761,0.06316
1046.56744,0.06151
1044.50726,0.05947
1042.44709,0.05758
1040.38692,0.05606
1038.32675,0.05471
1036.26657,0.05328
1034.20640,0.05170
1032.14623,0.05012
1030.08606,0.04854
1028.02589,0.04693
1025.96571,0.04554
1023.90554,0.04449
1021.84537,0.04361
1019.78520,0.04247
1017.72503,0.04106
1015.66485,0.03997
1013.60468,0.03921
1011.54451,0.03848
1009.48434,0.03790
1007.42417,0.03773
1005.36399,0.03780
1003.30382,0.03784
1001.24365,0.03803
999.18348,0.03878
997.12330,0.04001
995.06313,0.04137
993.00296,0.04250
990.94279,0.04341
988.88262,0.04435
986.82244,0.04522
984.76227,0.04576
982.70210,0.04580
980.64193,0.04540
978.58176,0.04477
976.52158,0.04389
974.46141,0.04273
972.40124,0.04130
970.34107,0.03940
968.28089,0.03729
966.22072,0.03544
964.16055,0.03367
962.10038,0.03180
960.04021,0.03016
957.98003,0.02876
955.91986,0.02727
953.85969,0.02581
951.79952,0.02488
949.73935,0.02461
947.67917,0.02440
945.61900,0.02400
943.55883,0.02364
941.49866,0.02329
939.43849,0.02277
937.37831,0.02225
935.31814,0.02205
933.25797,0.02213
931.19780,0.02212
929.13762,0.02190
927.07745,0.02160
925.01728,0.02130
922.95711,0.02090
920.89694,0.02037
918.83676,0.01977
916.77659,0.01922
914.71642,0.01876
912.65625,0.01814
910.59608,0.01731
908.53590,0.01676
906.47573,0.01660
904.41556,0.01661
902.35539,0.01681
900.29522,0.01703
898.23504,0.01690
896.17487,0.01665
894.11470,0.01674
892.05453,0.01701
889.99435,0.01716
887.93418,0.01720
885.87401,0.01753
883.81384,0.01845
881.75367,0.01930
879.69349,0.01947
877.63332,0.01963
875.57315,0.02023
873.51298,0.02077
871.45281,0.02112
869.39263,0.02165
867.33246,0.02222
865.27229,0.02264
863.21212,0.02272
861.15194,0.02251
859.09177,0.02233
857.03160,0.02188
854.97143,0.02108
852.91126,0.02018
850.85108,0.01944
848.79091,0.01922
846.73074,0.01916
844.67057,0.01858
842.61040,0.01767
840.55022,0.01678
838.49005,0.01616
836.42988,0.01575
834.36971,0.01528
832.30954,0.01466
830.24936,0.01365
828.18919,0.01260
826.12902,0.01186
824.06885,0.01102
822.00867,0.01030
819.94850,0.01010
817.88833,0.01007
815.82816,0.00980
813.76799,0.00927
811.70781,0.00872
809.64764,0.00842
807.58747,0.00822
805.52730,0.00768
803.46713,0.00696
801.40695,0.00664
799.34678,0.00676
797.28661,0.00672
795.22644,0.00631
793.16627,0.00605
791.10609,0.00599
789.04592,0.00582
786.98575,0.00583
784.92558,0.00634
782.86540,0.00681
780.80523,0.00665
778.74506,0.00630
776.68489,0.00599
774.62472,0.00544
772.56454,0.00467
770.50437,0.00382
768.44420,0.00338
766.38403,0.00379
764.32386,0.00466
762.26368,0.00535
760.20351,0.00552
758.14334,0.00492
756.08317,0.00376
754.02299,0.00274
751.96282,0.00262
749.90265,0.00349
747.84248,0.00426
745.78231,0.00401
743.72213,0.00313
741.66196,0.00258
739.60179,0.00246
737.54162,0.00307
735.48145,0.00443
733.42127,0.00511
731.36110,0.00419
729.30093,0.00284
727.24076,0.00256
725.18059,0.00281
723.12041,0.00293
721.06024,0.00356
719.00007,0.00366
716.93990,0.00341
714.87972,0.00332
712.81955,0.00354
710.75938,0.00400
708.69921,0.00426
706.63904,0.00427
704.57886,0.00422
702.51869,0.00409
700.45852,0.00386
698.39835,0.00370
696.33818,0.00366
694.27800,0.00327
692.21783,0.00238
690.15766,0.00189
688.09749,0.00213
686.03731,0.00237
683.97714,0.00246
681.91697,0.00270
679.85680,0.00270
677.79663,0.00250
675.73645,0.00283
673.67628,0.00273
671.61611,0.00143
669.55594,0.00385
667.49577,0.00676
665.43559,0.00190
663.37542,0.00288
661.31525,0.00452
659.25508,0.00448
657.19491,0.00373
655.13473,0.00353
653.07456,0.00402
651.01439,0.00470
648.95422,0.00543
646.89404,0.00606
644.83387,0.00624
642.77370,0.00476
640.71353,0.00267
638.65336,0.00233
636.59318,0.00409
634.53301,0.00652
632.47284,0.00780
630.41267,0.00648
628.35250,0.00293
626.29232,0.00000
624.23215,0.00013
622.17198,0.00120
620.11181,0.00170
618.05164,0.00279
615.99146,0.00443
613.93129,0.00529
611.87112,0.00484
609.81095,0.00403
607.75077,0.00337
605.69060,0.00239
603.63043,0.00103
601.57026,-0.00007
599.51009,0.00000
