3996.73391,0.00146
3994.67373,0.00144
3992.61356,0.00123
3990.55339,0.00080
3988.49322,0.00066
3986.43305,0.00091
3984.37287,0.00107
3982.31270,0.00089
3980.25253,0.00085
3978.19236,0.00114
3976.13219,0.00139
3974.07201,0.00120
3972.01184,0.00053
3969.95167,0.00000
3967.89150,0.00009
3965.83133,0.00044
3963.77115,0.00055
3961.71098,0.00043
3959.65081,0.00044
3957.59064,0.00082
3955.53046,0.00149
3953.47029,0.00204
3951.41012,0.00229
3949.34995,0.00245
3947.28978,0.00260
3945.22960,0.00216
3943.16943,0.00131
3941.10926,0.00098
3939.04909,0.00088
3936.98892,0.00090
3934.92874,0.00113
3932.86857,0.00139
3930.80840,0.00185
3928.74823,0.00191
3926.68805,0.00110
3924.62788,0.00056
3922.56771,0.00096
3920.50754,0.00126
3918.44737,0.00137
3916.38719,0.00165
3914.32702,0.00167
3912.26685,0.00137
3910.20668,0.00141
3908.14651,0.00154
3906.08633,0.00121
3904.02616,0.00128
3901.96599,0.00187
3899.90582,0.00181
3897.84565,0.00201
3895.78547,0.00236
3893.72530,0.00168
3891.66513,0.00100
3889.60496,0.00163
3887.54478,0.00149
3885.48461,0.00099
3883.42444,0.00163
3881.36427,0.00141
3879.30410,0.00142
3877.24392,0.00187
3875.18375,0.00136
3873.12358,0.00113
3871.06341,0.00083
3869.00324,0.00126
3866.94306,0.00213
3864.88289,0.00167
3862.82272,0.00152
3860.76255,0.00211
3858.70237,0.00274
3856.64220,0.00230
3854.58203,0.00037
3852.52186,0.00010
3850.46169,0.00179
3848.40151,0.00239
3846.34134,0.00183
3844.28117,0.00126
3842.22100,0.00139
3840.16083,0.00119
3838.10065,0.00098
3836.04048,0.00176
3833.98031,0.00209
3831.92014,0.00169
3829.85997,0.00173
3827.79979,0.00187
3825.73962,0.00217
3823.67945,0.00175
3821.61928,0.00064
3819.55910,0.00143
3817.49893,0.00133
3815.43876,0.00055
3813.37859,0.00133
3811.31842,0.00189
3809.25824,0.00141
3807.19807,0.00108
3805.13790,0.00181
3803.07773,0.00093
3801.01756,0.00000
3798.95738,0.00114
3796.89721,0.00173
3794.83704,0.00208
3792.77687,0.00209
3790.71670,0.00161
3788.65652,0.00136
3786.59635,0.00099
3784.53618,0.00079
3782.47601,0.00102
3780.41583,0.00078
3778.35566,0.00095
3776.29549,0.00171
3774.23532,0.00201
3772.17515,0.00169
3770.11497,0.00128
3768.05480,0.00134
3765.99463,0.00126
3763.93446,0.00169
3761.87429,0.00197
3759.81411,0.00157
3757.75394,0.00182
3755.69377,0.00242
3753.63360,0.00181
3751.57342,0.00077
3749.51325,0.00180
3747.45308,0.00286
3745.39291,0.00150
3743.33274,0.00152
3741.27256,0.00308
3739.21239,0.00320
3737.15222,0.00212
3735.09205,0.00130
3733.03188,0.00162
3730.97170,0.00267
3728.91153,0.00301
3726.85136,0.00235
3724.79119,0.00201
3722.73102,0.00167
3720.67084,0.00134
3718.61067,0.00172
3716.55050,0.00245
3714.49033,0.00212
3712.43015,0.00082
3710.36998,0.00070
3708.30981,0.00186
3706.24964,0.00266
3704.18947,0.00223
3702.12929,0.00153
3700.06912,0.00210
3698.00895,0.00282
3695.94878,0.00292
3693.88861,0.00286
3691.82843,0.00233
3689.76826,0.00197
3687.70809,0.00290
3685.64792,0.00375
3683.58775,0.00336
3681.52757,0.00289
3679.46740,0.00284
3677.40723,0.00219
3675.34706,0.00209
3673.28688,0.00362
3671.22671,0.00269
3669.16654,0.00192
3667.10637,0.00365
3665.04620,0.00474
3662.98602,0.00490
3660.92585,0.00519
3658.86568,0.00515
3656.80551,0.00495
3654.74534,0.00609
3652.68516,0.00632
3650.62499,0.00457
3648.56482,0.00461
3646.50465,0.00678
3644.44447,0.00804
3642.38430,0.00814
3640.32413,0.00847
3638.26396,0.00899
3636.20379,0.00936
3634.14361,0.00995
3632.08344,0.01032
3630.02327,0.00929
3627.96310,0.00980
3625.90293,0.01256
3623.84275,0.01427
3621.78258,0.01438
3619.72241,0.01392
3617.66224,0.01444
3615.60207,0.01503
3613.54189,0.01508
3611.48172,0.01576
3609.42155,0.01640
3607.36138,0.01698
3605.30120,0.01795
3603.24103,0.01834
3601.18086,0.01841
3599.12069,0.01900
3597.06052,0.01951
3595.00034,0.01999
3592.94017,0.02130
3590.88000,0.02222
3588.81983,0.02176
3586.75966,0.02181
3584.69948,0.02291
3582.63931,0.02341
3580.57914,0.02360
3578.51897,0.02437
3576.45879,0.02552
3574.39862,0.02660
3572.33845,0.02720
3570.27828,0.02672
3568.21811,0.02573
3566.15793,0.02648
3564.09776,0.02864
3562.03759,0.02981
3559.97742,0.03003
3557.91725,0.03025
3555.85707,0.03062
3553.79690,0.03101
3551.73673,0.03170
3549.67656,0.03244
3547.61639,0.03256
3545.55621,0.03266
3543.49604,0.03341
3541.43587,0.03418
3539.37570,0.03441
3537.31552,0.03457
3535.25535,0.03534
3533.19518,0.03621
3531.13501,0.03660
3529.07484,0.03721
3527.01466,0.03834
3524.95449,0.03920
3522.89432,0.03964
3520.83415,0.04020
3518.77398,0.04079
3516.71380,0.04122
3514.65363,0.04137
3512.59346,0.04153
3510.53329,0.04201
3508.47312,0.04301
3506.41294,0.04397
3504.35277,0.04406
3502.29260,0.04422
3500.23243,0.04502
3498.17225,0.04570
3496.11208,0.04605
3494.05191,0.04634
3491.99174,0.04671
3489.93157,0.04728
3487.87139,0.04789
3485.81122,0.04828
3483.75105,0.04846
3481.69088,0.04895
3479.63071,0.04999
3477.57053,0.05075
3475.51036,0.05083
3473.45019,0.05097
3471.39002,0.05140
3469.32984,0.05184
3467.26967,0.05249
3465.20950,0.05338
3463.14933,0.05384
3461.08916,0.05384
3459.02898,0.05390
3456.96881,0.05412
3454.90864,0.05445
3452.84847,0.05514
3450.78830,0.05620
3448.72812,0.05685
3446.66795,0.05700
3444.60778,0.05713
3442.54761,0.05731
3440.48744,0.05768
3438.42726,0.05787
3436.36709,0.05794
3434.30692,0.05826
3432.24675,0.05890
3430.18657,0.05974
3428.12640,0.06035
3426.06623,0.06057
3424.00606,0.06069
3421.94589,0.06078
3419.88571,0.06087
3417.82554,0.06102
3415.76537,0.06132
3413.70520,0.06173
3411.64503,0.06214
3409.58485,0.06255
3407.52468,0.06266
3405.46451,0.06248
3403.40434,0.06249
3401.34416,0.06283
3399.28399,0.06337
3397.22382,0.06381
3395.16365,0.06392
3393.10348,0.06391
3391.04330,0.06409
3388.98313,0.06422
3386.92296,0.06427
3384.86279,0.06451
3382.80262,0.06480
3380.74244,0.06499
3378.68227,0.06516
3376.62210,0.06524
3374.56193,0.06537
3372.50176,0.06567
3370.44158,0.06596
3368.38141,0.06618
3366.32124,0.06640
3364.26107,0.06653
3362.20089,0.06658
3360.14072,0.06684
3358.08055,0.06714
3356.02038,0.06728
3353.96021,0.06752
3351.90003,0.06787
3349.83986,0.06816
3347.77969,0.06796
3345.71952,0.06734
3343.65935,0.06723
3341.59917,0.06781
3339.53900,0.06830
3337.47883,0.06823
3335.41866,0.06790
3333.35849,0.06774
3331.29831,0.06767
3329.23814,0.06770
3327.17797,0.06802
3325.11780,0.06835
3323.05762,0.06852
3320.99745,0.06850
3318.93728,0.06829
3316.87711,0.06829
3314.81694,0.06851
3312.75676,0.06876
3310.69659,0.06901
3308.63642,0.06909
3306.57625,0.06905
3304.51608,0.06891
3302.45590,0.06877
3300.39573,0.06898
3298.33556,0.06936
3296.27539,0.06937
3294.21521,0.06929
3292.15504,0.06945
3290.09487,0.06964
3288.03470,0.06975
3285.97453,0.06979
3283.91435,0.06957
3281.85418,0.06910
3279.79401,0.06877
3277.73384,0.06874
3275.67367,0.06894
3273.61349,0.06930
3271.55332,0.06968
3269.49315,0.06981
3267.43298,0.06972
3265.37281,0.06965
3263.31263,0.06985
3261.25246,0.07018
3259.19229,0.07020
3257.13212,0.06997
3255.07194,0.06974
3253.01177,0.06956
3250.95160,0.06941
3248.89143,0.06948
3246.83126,0.06983
3244.77108,0.07023
3242.71091,0.07048
3240.65074,0.07056
3238.59057,0.07031
3236.53040,0.06994
3234.47022,0.06988
3232.41005,0.06993
3230.34988,0.06976
3228.28971,0.06954
3226.22954,0.06945
3224.16936,0.06937
3222.10919,0.06920
3220.04902,0.06901
3217.98885,0.06898
3215.92867,0.06924
3213.86850,0.06953
3211.80833,0.06946
3209.74816,0.06891
3207.68799,0.06834
3205.62781,0.06814
3203.56764,0.06826
3201.50747,0.06833
3199.44730,0.06811
3197.38713,0.06786
3195.32695,0.06789
3193.26678,0.06804
3191.20661,0.06802
3189.14644,0.06778
3187.08626,0.06731
3185.02609,0.06687
3182.96592,0.06678
3180.90575,0.06683
3178.84558,0.06668
3176.78540,0.06648
3174.72523,0.06631
3172.66506,0.06615
3170.60489,0.06603
3168.54472,0.06583
3166.48454,0.06581
3164.42437,0.06595
3162.36420,0.06575
3160.30403,0.06522
3158.24386,0.06479
3156.18368,0.06474
3154.12351,0.06502
3152.06334,0.06521
3150.00317,0.06488
3147.94299,0.06408
3145.88282,0.06335
3143.82265,0.06295
3141.76248,0.06268
3139.70231,0.06249
3137.64213,0.06235
3135.58196,0.06215
3133.52179,0.06210
3131.46162,0.06217
3129.40145,0.06195
3127.34127,0.06147
3125.28110,0.06113
3123.22093,0.06096
3121.16076,0.06073
3119.10058,0.06031
3117.04041,0.05989
3114.98024,0.05972
3112.92007,0.05965
3110.85990,0.05944
3108.79972,0.05915
3106.73955,0.05882
3104.67938,0.05843
3102.61921,0.05809
3100.55904,0.05798
3098.49886,0.05799
3096.43869,0.05785
3094.37852,0.05758
3092.31835,0.05727
3090.25818,0.05691
3088.19800,0.05649
3086.13783,0.05610
3084.07766,0.05583
3082.01749,0.05575
3079.95731,0.05563
3077.89714,0.05522
3075.83697,0.05473
3073.77680,0.05443
3071.71663,0.05430
3069.65645,0.05419
3067.59628,0.05391
3065.53611,0.05339
3063.47594,0.05278
3061.41577,0.05224
3059.35559,0.05202
3057.29542,0.05224
3055.23525,0.05249
3053.17508,0.05231
3051.11491,0.05179
3049.05473,0.05125
3046.99456,0.05083
3044.93439,0.05057
3042.87422,0.05032
3040.81404,0.05009
3038.75387,0.04993
3036.69370,0.04953
3034.63353,0.04897
3032.57336,0.04869
3030.51318,0.04859
3028.45301,0.04825
3026.39284,0.04786
3024.33267,0.04765
3022.27250,0.04725
3020.21232,0.04666
3018.15215,0.04624
3016.09198,0.04585
3014.03181,0.04538
3011.97163,0.04507
3009.91146,0.04489
3007.85129,0.04469
3005.79112,0.04436
3003.73095,0.04394
3001.67077,0.04368
2999.61060,0.04363
2997.55043,0.04341
2995.49026,0.04293
2993.43009,0.04259
2991.36991,0.04258
2989.30974,0.04258
2987.24957,0.04230
2985.18940,0.04199
2983.12923,0.04189
2981.06905,0.04171
2979.00888,0.04142
2976.94871,0.04137
2974.88854,0.04130
2972.82836,0.04087
2970.76819,0.04055
2968.70802,0.04067
2966.64785,0.04081
2964.58768,0.04052
2962.52750,0.04013
2960.46733,0.04006
2958.40716,0.04009
2956.34699,0.03989
2954.28682,0.03949
2952.22664,0.03918
2950.16647,0.03910
2948.10630,0.03926
2946.04613,0.03944
2943.98596,0.03943
2941.92578,0.03931
2939.86561,0.03919
2937.80544,0.03909
2935.74527,0.03890
2933.68509,0.03871
2931.62492,0.03863
2929.56475,0.03857
2927.50458,0.03849
2925.44441,0.03829
2923.38423,0.03789
2921.32406,0.03749
2919.26389,0.03736
2917.20372,0.03732
2915.14355,0.03705
2913.08337,0.03674
2911.02320,0.03661
2908.96303,0.03654
2906.90286,0.03645
2904.84268,0.03628
2902.78251,0.03586
2900.72234,0.03550
2898.66217,0.03556
2896.60200,0.03562
2894.54182,0.03541
2892.48165,0.03503
2890.42148,0.03464
2888.36131,0.03455
2886.30114,0.03475
2884.24096,0.03487
2882.18079,0.03467
2880.12062,0.03436
2878.06045,0.03426
2876.00028,0.03432
2873.94010,0.03427
2871.87993,0.03409
2869.81976,0.03382
2867.75959,0.03351
2865.69941,0.03328
2863.63924,0.03315
2861.57907,0.03301
2859.51890,0.03284
2857.45873,0.03264
2855.39855,0.03231
2853.33838,0.03203
2851.27821,0.03200
2849.21804,0.03198
2847.15787,0.03183
2845.09769,0.03167
2843.03752,0.03154
2840.97735,0.03137
2838.91718,0.03114
2836.85700,0.03080
2834.79683,0.03040
2832.73666,0.03015
2830.67649,0.03003
2828.61632,0.02982
2826.55614,0.02956
2824.49597,0.02944
2822.43580,0.02933
2820.37563,0.02910
2818.31546,0.02891
2816.25528,0.02880
2814.19511,0.02856
2812.13494,0.02831
2810.07477,0.02819
2808.01460,0.02810
2805.95442,0.02795
2803.89425,0.02776
2801.83408,0.02766
2799.77391,0.02766
2797.71373,0.02759
2795.65356,0.02747
2793.59339,0.02734
2791.53322,0.02707
2789.47305,0.02679
2787.41287,0.02671
2785.35270,0.02671
2783.29253,0.02668
2781.23236,0.02661
2779.17219,0.02637
2777.11201,0.02599
2775.05184,0.02567
2772.99167,0.02550
2770.93150,0.02547
2768.87133,0.02555
2766.81115,0.02549
2764.75098,0.02514
2762.69081,0.02486
2760.63064,0.02485
2758.57046,0.02477
2756.51029,0.02454
2754.45012,0.02441
2752.38995,0.02437
2750.32978,0.02426
2748.26960,0.02399
2746.20943,0.02373
2744.14926,0.02365
2742.08909,0.02370
2740.02892,0.02379
2737.96874,0.02366
2735.90857,0.02330
2733.84840,0.02313
2731.78823,0.02319
2729.72805,0.02308
2727.66788,0.02275
2725.60771,0.02243
2723.54754,0.02228
2721.48737,0.02227
2719.42719,0.02210
2717.36702,0.02183
2715.30685,0.02163
2713.24668,0.02143
2711.18651,0.02129
2709.12633,0.02124
2707.06616,0.02129
2705.00599,0.02128
2702.94582,0.02101
2700.88565,0.02069
2698.82547,0.02043
2696.76530,0.02013
2694.70513,0.02000
2692.64496,0.02006
2690.58478,0.02010
2688.52461,0.02007
2686.46444,0.01992
2684.40427,0.01966
2682.34410,0.01946
2680.28392,0.01938
2678.22375,0.01925
2676.16358,0.01894
2674.10341,0.01857
2672.04324,0.01852
2669.98306,0.01863
2667.92289,0.01848
2665.86272,0.01824
2663.80255,0.01811
2661.74238,0.01793
2659.68220,0.01781
2657.62203,0.01770
2655.56186,0.01732
2653.50169,0.01701
2651.44151,0.01715
2649.38134,0.01734
2647.32117,0.01712
2645.26100,0.01662
2643.20083,0.01621
2641.14065,0.01588
2639.08048,0.01560
2637.02031,0.01549
2634.96014,0.01544
2632.89997,0.01518
2630.83979,0.01485
2628.77962,0.01495
2626.71945,0.01529
2624.65928,0.01519
2622.59910,0.01495
2620.53893,0.01482
2618.47876,0.01442
2616.41859,0.01410
2614.35842,0.01421
2612.29824,0.01437
2610.23807,0.01429
2608.17790,0.01404
2606.11773,0.01373
2604.05756,0.01337
2601.99738,0.01296
2599.93721,0.01281
2597.87704,0.01316
2595.81687,0.01356
2593.75670,0.01349
2591.69652,0.01320
2589.63635,0.01311
2587.57618,0.01295
2585.51601,0.01267
2583.45583,0.01271
2581.39566,0.01274
2579.33549,0.01266
2577.27532,0.01295
2575.21515,0.01319
2573.15497,0.01299
2571.09480,0.01284
2569.03463,0.01299
2566.97446,0.01297
2564.91429,0.01274
2562.85411,0.01272
2560.79394,0.01286
2558.73377,0.01278
2556.67360,0.01265
2554.61342,0.01278
2552.55325,0.01304
2550.49308,0.01316
2548.43291,0.01301
2546.37274,0.01280
2544.31256,0.01273
2542.25239,0.01272
2540.19222,0.01260
2538.13205,0.01248
2536.07188,0.01254
2534.01170,0.01277
2531.95153,0.01306
2529.89136,0.01323
2527.83119,0.01319
2525.77102,0.01310
2523.71084,0.01291
2521.65067,0.01247
2519.59050,0.01222
2517.53033,0.01241
2515.47015,0.01251
2513.40998,0.01240
2511.34981,0.01237
2509.28964,0.01254
2507.22947,0.01263
2505.16929,0.01250
2503.10912,0.01253
2501.04895,0.01290
2498.98878,0.01326
2496.92861,0.01331
2494.86843,0.01330
2492.80826,0.01346
2490.74809,0.01355
2488.68792,0.01338
2486.62775,0.01322
2484.56757,0.01339
2482.50740,0.01362
2480.44723,0.01354
2478.38706,0.01327
2476.32688,0.01309
2474.26671,0.01308
2472.20654,0.01310
2470.14637,0.01317
2468.08620,0.01331
2466.02602,0.01340
2463.96585,0.01356
2461.90568,0.01368
2459.84551,0.01343
2457.78534,0.01314
2455.72516,0.01334
2453.66499,0.01353
2451.60482,0.01326
2449.54465,0.01326
2447.48447,0.01362
2445.42430,0.01369
2443.36413,0.01361
2441.30396,0.01363
2439.24379,0.01350
2437.18361,0.01327
2435.12344,0.01347
2433.06327,0.01402
2431.00310,0.01438
2428.94293,0.01438
2426.88275,0.01409
2424.82258,0.01378
2422.76241,0.01362
2420.70224,0.01341
2418.64207,0.01330
2416.58189,0.01349
2414.52172,0.01383
2412.46155,0.01402
2410.40138,0.01410
2408.34120,0.01432
2406.28103,0.01451
2404.22086,0.01440
2402.16069,0.01415
2400.10052,0.01395
2398.04034,0.01380
2395.98017,0.01383
2393.92000,0.01401
2391.85983,0.01420
2389.79966,0.01429
2387.73948,0.01409
2385.67931,0.01375
2383.61914,0.01373
2381.55897,0.01411
2379.49880,0.01439
2377.43862,0.01415
2375.37845,0.01357
2373.31828,0.01327
2371.25811,0.01362
2369.19793,0.01433
2367.13776,0.01455
2365.07759,0.01427
2363.01742,0.01389
2360.95725,0.01291
2358.89707,0.01197
2356.83690,0.01254
2354.77673,0.01386
2352.71656,0.01442
2350.65639,0.01442
2348.59621,0.01440
2346.53604,0.01398
2344.47587,0.01305
2342.41570,0.01251
2340.35552,0.01284
2338.29535,0.01326
2336.23518,0.01313
2334.17501,0.01266
2332.11484,0.01254
2330.05466,0.01322
2327.99449,0.01435
2325.93432,0.01512
2323.87415,0.01507
2321.81398,0.01428
2319.75380,0.01357
2317.69363,0.01333
2315.63346,0.01340
2313.57329,0.01372
2311.51312,0.01409
2309.45294,0.01408
2307.39277,0.01380
2305.33260,0.01386
2303.27243,0.01418
2301.21225,0.01394
2299.15208,0.01300
2297.09191,0.01223
2295.03174,0.01215
2292.97157,0.01247
2290.91139,0.01280
2288.85122,0.01281
2286.79105,0.01246
2284.73088,0.01217
2282.67071,0.01192
2280.61053,0.01143
2278.55036,0.01073
2276.49019,0.01036
2274.43002,0.01063
2272.36984,0.01087
2270.30967,0.01038
2268.24950,0.00969
2266.18933,0.00963
2264.12916,0.01012
2262.06898,0.01070
2260.00881,0.01104
2257.94864,0.01079
2255.88847,0.01034
2253.82830,0.01038
2251.76812,0.01032
2249.70795,0.00978
2247.64778,0.00935
2245.58761,0.00889
2243.52744,0.00814
2241.46726,0.00741
2239.40709,0.00754
2237.34692,0.00860
2235.28675,0.00934
2233.22657,0.00961
2231.16640,0.00986
2229.10623,0.00977
2227.04606,0.00932
2224.98589,0.00913
2222.92571,0.00980
2220.86554,0.01038
2218.80537,0.00967
2216.74520,0.00861
2214.68503,0.00845
2212.62485,0.00892
2210.56468,0.00955
2208.50451,0.01008
2206.44434,0.00969
2204.38417,0.00844
2202.32399,0.00791
2200.26382,0.00824
2198.20365,0.00840
2196.14348,0.00830
2194.08330,0.00831
2192.02313,0.00897
2189.96296,0.00964
2187.90279,0.00894
2185.84262,0.00754
2183.78244,0.00645
2181.72227,0.00581
2179.66210,0.00583
2177.60193,0.00534
2175.54176,0.00450
2173.48158,0.00511
2171.42141,0.00630
2169.36124,0.00636
2167.30107,0.00595
2165.24089,0.00574
2163.18072,0.00442
2161.12055,0.00208
2159.06038,0.00144
2157.00021,0.00220
2154.94003,0.00187
2152.87986,0.00191
2150.81969,0.00362
2148.75952,0.00446
2146.69935,0.00425
2144.63917,0.00448
2142.57900,0.00461
2140.51883,0.00464
2138.45866,0.00483
2136.39849,0.00492
2134.33831,0.00486
2132.27814,0.00496
2130.21797,0.00523
2128.15780,0.00529
2126.09762,0.00567
2124.03745,0.00635
2121.97728,0.00619
2119.91711,0.00566
2117.85694,0.00580
2115.79676,0.00611
2113.73659,0.00587
2111.67642,0.00526
2109.61625,0.00528
2107.55608,0.00607
2105.49590,0.00656
2103.43573,0.00597
2101.37556,0.00485
2099.31539,0.00443
2097.25521,0.00481
2095.19504,0.00541
2093.13487,0.00565
2091.07470,0.00553
2089.01453,0.00537
2086.95435,0.00498
2084.89418,0.00449
2082.83401,0.00442
2080.77384,0.00449
2078.71367,0.00429
2076.65349,0.00440
2074.59332,0.00510
2072.53315,0.00531
2070.47298,0.00476
2068.41281,0.00444
2066.35263,0.00419
2064.29246,0.00379
2062.23229,0.00383
2060.17212,0.00390
2058.11194,0.00407
2056.05177,0.00482
2053.99160,0.00542
2051.93143,0.00506
2049.87126,0.00381
2047.81108,0.00307
2045.75091,0.00334
2043.69074,0.00348
2041.63057,0.00352
2039.57040,0.00365
2037.51022,0.00339
2035.45005,0.00353
2033.38988,0.00407
2031.32971,0.00332
2029.26954,0.00166
2027.20936,0.00071
2025.14919,0.00113
2023.08902,0.00215
2021.02885,0.00274
2018.96867,0.00269
2016.90850,0.00222
2014.84833,0.00226
2012.78816,0.00252
2010.72799,0.00238
2008.66781,0.00255
2006.60764,0.00280
2004.54747,0.00257
2002.48730,0.00255
2000.42713,0.00286
1998.36695,0.00289
1996.30678,0.00309
1994.24661,0.00352
1992.18644,0.00334
1990.12626,0.00288
1988.06609,0.00212
1986.00592,0.00146
1983.94575,0.00160
1981.88558,0.00154
1979.82540,0.00039
1977.76523,0.00000
1975.70506,0.00147
1973.64489,0.00235
1971.58472,0.00192
1969.52454,0.00250
1967.46437,0.00381
1965.40420,0.00356
1963.34403,0.00191
1961.28386,0.00072
1959.22368,0.00091
1957.16351,0.00213
1955.10334,0.00303
1953.04317,0.00261
1950.98299,0.00172
1948.92282,0.00177
1946.86265,0.00232
1944.80248,0.00202
1942.74231,0.00142
1940.68213,0.00198
1938.62196,0.00238
1936.56179,0.00170
1934.50162,0.00114
1932.44145,0.00156
1930.38127,0.00259
1928.32110,0.00349
1926.26093,0.00395
1924.20076,0.00369
1922.14059,0.00336
1920.08041,0.00349
1918.02024,0.00389
1915.96007,0.00433
1913.89990,0.00366
1911.83972,0.00241
1909.77955,0.00178
1907.71938,0.00198
1905.65921,0.00245
1903.59904,0.00288
1901.53886,0.00327
1899.47869,0.00328
1897.41852,0.00294
1895.35835,0.00289
1893.29818,0.00314
1891.23800,0.00267
1889.17783,0.00241
1887.11766,0.00343
1885.05749,0.00439
1882.99731,0.00457
1880.93714,0.00397
1878.87697,0.00307
1876.81680,0.00281
1874.75663,0.00327
1872.69645,0.00359
1870.63628,0.00297
1868.57611,0.00244
1866.51594,0.00317
1864.45577,0.00378
1862.39559,0.00346
1860.33542,0.00287
1858.27525,0.00253
1856.21508,0.00269
1854.15491,0.00320
1852.09473,0.00369
1850.03456,0.00384
1847.97439,0.00361
1845.91422,0.00279
1843.85404,0.00221
1841.79387,0.00303
1839.73370,0.00374
1837.67353,0.00385
1835.61336,0.00404
1833.55318,0.00410
1831.49301,0.00346
1829.43284,0.00318
1827.37267,0.00370
1825.31250,0.00386
1823.25232,0.00425
1821.19215,0.00453
1819.13198,0.00410
1817.07181,0.00371
1815.01163,0.00376
1812.95146,0.00361
1810.89129,0.00343
1808.83112,0.00384
1806.77095,0.00433
1804.71077,0.00440
1802.65060,0.00401
1800.59043,0.00379
1798.53026,0.00434
1796.47009,0.00485
1794.40991,0.00426
1792.34974,0.00343
1790.28957,0.00417
1788.22940,0.00494
1786.16923,0.00460
1784.10905,0.00436
1782.04888,0.00435
1779.98871,0.00448
1777.92854,0.00511
1775.86836,0.00543
1773.80819,0.00477
1771.74802,0.00441
1769.68785,0.00504
1767.62768,0.00531
1765.56750,0.00534
1763.50733,0.00483
1761.44716,0.00471
1759.38699,0.00538
1757.32682,0.00558
1755.26664,0.00629
1753.20647,0.00673
1751.14630,0.00612
1749.08613,0.00601
1747.02596,0.00648
1744.96578,0.00672
1742.90561,0.00663
1740.84544,0.00656
1738.78527,0.00733
1736.72509,0.00760
1734.66492,0.00628
1732.60475,0.00693
1730.54458,0.00832
1728.48441,0.00867
1726.42423,0.00885
1724.36406,0.00899
1722.30389,0.00945
1720.24372,0.00901
1718.18355,0.00749
1716.12337,0.00794
1714.06320,0.00987
1712.00303,0.01117
1709.94286,0.01134
1707.88268,0.01073
1705.82251,0.01073
1703.76234,0.01213
1701.70217,0.01210
1699.64200,0.01173
1697.58182,0.01264
1695.52165,0.01351
1693.46148,0.01524
1691.40131,0.01579
1689.34114,0.01582
1687.28096,0.01595
1685.22079,0.01464
1683.16062,0.01538
1681.10045,0.01827
1679.04028,0.01953
1676.98010,0.01907
1674.91993,0.01913
1672.85976,0.02036
1670.79959,0.02012
1668.73941,0.02037
1666.67924,0.02206
1664.61907,0.02210
1662.55890,0.02147
1660.49873,0.02269
1658.43855,0.02431
1656.37838,0.02407
1654.31821,0.02168
1652.25804,0.02236
1650.19787,0.02501
1648.13769,0.02361
1646.07752,0.02226
1644.01735,0.02370
1641.95718,0.02446
1639.89701,0.02396
1637.83683,0.02218
1635.77666,0.02034
1633.71649,0.02157
1631.65632,0.02285
1629.59614,0.02211
1627.53597,0.02140
1625.47580,0.02098
1623.41563,0.02028
1621.35546,0.02067
1619.29528,0.02013
1617.23511,0.01814
1615.17494,0.01828
1613.11477,0.01929
1611.05460,0.01886
1608.99442,0.01797
1606.93425,0.01756
1604.87408,0.01731
1602.81391,0.01701
1600.75373,0.01686
1598.69356,0.01660
1596.63339,0.01592
1594.57322,0.01524
1592.51305,0.01481
1590.45287,0.01429
1588.39270,0.01365
1586.33253,0.01305
1584.27236,0.01254
1582.21219,0.01226
1580.15201,0.01199
1578.09184,0.01063
1576.03167,0.00954
1573.97150,0.01077
1571.91133,0.01070
1569.85115,0.00899
1567.79098,0.00898
1565.73081,0.00944
1563.67064,0.00977
1561.61046,0.00854
1559.55029,0.00538
1557.49012,0.00655
1555.42995,0.00848
1553.36978,0.00822
1551.30960,0.00751
1549.24943,0.00732
1547.18926,0.00748
1545.12909,0.00695
1543.06892,0.00591
1541.00874,0.00424
1538.94857,0.00473
1536.88840,0.00685
1534.82823,0.00609
1532.76805,0.00484
1530.70788,0.00547
1528.64771,0.00543
1526.58754,0.00509
1524.52737,0.00524
1522.46719,0.00442
1520.40702,0.00392
1518.34685,0.00361
1516.28668,0.00308
1514.22651,0.00377
1512.16633,0.00449
1510.10616,0.00392
1508.04599,0.00138
1505.98582,0.00084
1503.92565,0.00330
1501.86547,0.00396
1499.80530,0.00267
1497.74513,0.00162
1495.68496,0.00243
1493.62478,0.00374
1491.56461,0.00304
1489.50444,0.00181
1487.44427,0.00218
1485.38410,0.00297
1483.32392,0.00301
1481.26375,0.00287
1479.20358,0.00324
1477.14341,0.00324
1475.08324,0.00252
1473.02306,0.00194
1470.96289,0.00318
1468.90272,0.00445
1466.84255,0.00371
1464.78238,0.00305
1462.72220,0.00423
1460.66203,0.00455
1458.60186,0.00253
1456.54169,0.00184
1454.48151,0.00378
1452.42134,0.00451
1450.36117,0.00385
1448.30100,0.00320
1446.24083,0.00330
1444.18065,0.00359
1442.12048,0.00374
1440.06031,0.00370
1438.00014,0.00270
1435.93997,0.00242
1433.87979,0.00350
1431.81962,0.00353
1429.75945,0.00324
1427.69928,0.00382
1425.63910,0.00419
1423.57893,0.00451
1421.51876,0.00452
1419.45859,0.00364
1417.39842,0.00401
1415.33824,0.00481
1413.27807,0.00456
1411.21790,0.00412
1409.15773,0.00409
1407.09756,0.00378
1405.03738,0.00337
1402.97721,0.00364
1400.91704,0.00357
1398.85687,0.00322
1396.79670,0.00324
1394.73652,0.00319
1392.67635,0.00359
1390.61618,0.00369
1388.55601,0.00285
1386.49583,0.00249
1384.43566,0.00291
1382.37549,0.00307
1380.31532,0.00312
1378.25515,0.00337
1376.19497,0.00331
1374.13480,0.00304
1372.07463,0.00322
1370.01446,0.00321
1367.95429,0.00315
1365.89411,0.00321
1363.83394,0.00264
1361.77377,0.00226
1359.71360,0.00256
1357.65343,0.00262
1355.59325,0.00239
1353.53308,0.00223
1351.47291,0.00213
1349.41274,0.00196
1347.35256,0.00184
1345.29239,0.00196
1343.23222,0.00229
1341.17205,0.00225
1339.11188,0.00195
1337.05170,0.00196
1334.99153,0.00197
1332.93136,0.00189
1330.87119,0.00189
1328.81102,0.00193
1326.75084,0.00189
1324.69067,0.00181
1322.63050,0.00175
1320.57033,0.00163
1318.51015,0.00166
1316.44998,0.00195
1314.38981,0.00213
1312.32964,0.00216
1310.26947,0.00215
1308.20929,0.00203
1306.14912,0.00200
1304.08895,0.00206
1302.02878,0.00212
1299.96861,0.00214
1297.90843,0.00212
1295.84826,0.00220
1293.78809,0.00233
1291.72792,0.00242
1289.66775,0.00251
1287.60757,0.00268
1285.54740,0.00282
1283.48723,0.00279
1281.42706,0.00276
1279.36688,0.00284
1277.30671,0.00291
1275.24654,0.00302
1273.18637,0.00319
1271.12620,0.00339
1269.06602,0.00356
1267.00585,0.00360
1264.94568,0.00359
1262.88551,0.00370
1260.82534,0.00386
1258.76516,0.00394
1256.70499,0.00395
1254.64482,0.00390
1252.58465,0.00369
1250.52447,0.00331
1248.46430,0.00314
1246.40413,0.00324
1244.34396,0.00323
1242.28379,0.00292
1240.22361,0.00258
1238.16344,0.00243
1236.10327,0.00236
1234.04310,0.00224
1231.98293,0.00195
1229.92275,0.00158
1227.86258,0.00144
1225.80241,0.00152
1223.74224,0.00141
1221.68207,0.00106
1219.62189,0.00081
1217.56172,0.00079
1215.50155,0.00083
1213.44138,0.00074
1211.38120,0.00043
1209.32103,0.00011
1207.26086,0.00000
1205.20069,-0.00007
1203.14052,-0.00014
1201.08034,-0.00004
1199.02017,0.00004
1196.96000,0.00004
1194.89983,0.00022
1192.83966,0.00066
1190.77948,0.00109
1188.71931,0.00139
1186.65914,0.00179
1184.59897,0.00245
1182.53880,0.00331
1180.47862,0.00417
1178.41845,0.00495
1176.35828,0.00583
1174.29811,0.00703
1172.23793,0.00827
1170.17776,0.00919
1168.11759,0.01001
1166.05742,0.01097
1163.99725,0.01216
1161.93707,0.01341
1159.87690,0.01447
1157.81673,0.01529
1155.75656,0.01624
1153.69639,0.01738
1151.63621,0.01837
1149.57604,0.01933
1147.51587,0.02049
1145.45570,0.02165
1143.39552,0.02290
1141.33535,0.02438
1139.27518,0.02590
1137.21501,0.02720
1135.15484,0.02836
1133.09466,0.02970
1131.03449,0.03128
1128.97432,0.03285
1126.91415,0.03431
1124.85398,0.03583
1122.79380,0.03746
1120.73363,0.03923
1118.67346,0.04108
1116.61329,0.04278
1114.55312,0.04431
1112.49294,0.04610
1110.43277,0.04824
1108.37260,0.05032
1106.31243,0.05210
1104.25225,0.05377
1102.19208,0.05564
1100.13191,0.05745
1098.07174,0.05899
1096.01157,0.06049
1093.95139,0.06199
1091.89122,0.06339
1089.83105,0.06471
1087.77088,0.06590
1085.71071,0.06699
1083.65053,0.06820
1081.59036,0.06958
1079.53019,0.07088
1077.47002,0.07193
1075.40985,0.07279
1073.34967,0.07347
1071.28950,0.07384
1069.22933,0.07416
1067.16916,0.07448
1065.10898,0.07447
1063.04881,0.07416
1060.98864,0.07361
1058.92847,0.07284
1056.86830,0.07202
1054.80812,0.07113
1052.74795,0.07007
1050.68778,0.06879
1048.62761,0.06736
1046.56744,0.06575
1044.50726,0.06386
1042.44709,0.06182
1040.38692,0.05979
1038.32675,0.05793
1036.26657,0.05642
1034.20640,0.05498
1032.14623,0.05336
1030.08606,0.05171
1028.02589,0.05008
1025.96571,0.04851
1023.90554,0.04718
1021.84537,0.04594
1019.78520,0.04454
1017.72503,0.04317
1015.66485,0.04209
1013.60468,0.04129
1011.54451,0.04055
1009.48434,0.03992
1007.42417,0.03958
1005.36399,0.03968
1003.30382,0.04003
1001.24365,0.04028
999.18348,0.04071
997.12330,0.04184
995.06313,0.04336
993.00296,0.04488
990.94279,0.04626
988.88262,0.04733
986.82244,0.04809
984.76227,0.04869
982.70210,0.04892
980.64193,0.04846
978.58176,0.04740
976.52158,0.04593
974.46141,0.04418
972.40124,0.04226
970.34107,0.04017
968.28089,0.03810
966.22072,0.03616
964.16055,0.03406
962.10038,0.03185
960.04021,0.02996
957.98003,0.02850
955.91986,0.02710
953.85969,0.02588
951.79952,0.02515
949.73935,0.02457
947.67917,0.02373
945.61900,0.02305
943.55883,0.02288
941.49866,0.02272
939.43849,0.02218
937.37831,0.02160
935.31814,0.02142
933.25797,0.02154
931.19780,0.02146
929.13762,0.02111
927.07745,0.02075
925.01728,0.02048
922.95711,0.02017
920.89694,0.01944
918.83676,0.01851
916.77659,0.01779
914.71642,0.01705
912.65625,0.01626
910.59608,0.01567
908.53590,0.01534
906.47573,0.01530
904.41556,0.01541
902.35539,0.01543
900.29522,0.01530
898.23504,0.01514
896.17487,0.01501
894.11470,0.01509
892.05453,0.01538
889.99435,0.01551
887.93418,0.01540
885.87401,0.01559
883.81384,0.01656
881.75367,0.01775
879.69349,0.01833
877.63332,0.01860
875.57315,0.01922
873.51298,0.01985
871.45281,0.02029
869.39263,0.02072
867.33246,0.02120
865.27229,0.02193
863.21212,0.02243
861.15194,0.02209
859.09177,0.02131
857.03160,0.02058
854.97143,0.02007
852.91126,0.01965
850.85108,0.01904
848.79091,0.01834
846.73074,0.01757
844.67057,0.01683
842.61040,0.01642
840.55022,0.01609
838.49005,0.01573
836.42988,0.01521
834.36971,0.01444
832.30954,0.01384
830.24936,0.01316
828.18919,0.01217
826.12902,0.01113
824.06885,0.00996
822.00867,0.00896
819.94850,0.00838
817.88833,0.00823
815.82816,0.00828
813.76799,0.00789
811.70781,0.00714
809.64764,0.00650
807.58747,0.00595
805.52730,0.00539
803.46713,0.00514
801.40695,0.00510
799.34678,0.00465
797.28661,0.00395
795.22644,0.00364
793.16627,0.00386
791.10609,0.00437
789.04592,0.00460
786.98575,0.00446
784.92558,0.00452
782.86540,0.00474
780.80523,0.00461
778.74506,0.00412
776.68489,0.00355
774.62472,0.00314
772.56454,0.00294
770.50437,0.00259
768.44420,0.00197
766.38403,0.00173
764.32386,0.00181
762.26368,0.00155
760.20351,0.00130
758.14334,0.00137
756.08317,0.00145
754.02299,0.00141
751.96282,0.00123
749.90265,0.00137
747.84248,0.00195
745.78231,0.00216
743.72213,0.00196
741.66196,0.00155
739.60179,0.00105
737.54162,0.00120
735.48145,0.00183
733.42127,0.00204
731.36110,0.00152
729.30093,0.00059
727.24076,0.00021
725.18059,0.00080
723.12041,0.00134
721.06024,0.00119
719.00007,0.00091
716.93990,0.00141
714.87972,0.00265
712.81955,0.00342
710.75938,0.00303
708.69921,0.00228
706.63904,0.00221
704.57886,0.00277
702.51869,0.00316
700.45852,0.00312
698.39835,0.00284
696.33818,0.00235
694.27800,0.00163
692.21783,0.00101
690.15766,0.00102
688.09749,0.00136
686.03731,0.00101
683.97714,0.00019
681.91697,0.00005
679.85680,0.00043
677.79663,0.00059
675.73645,0.00109
673.67628,0.00250
671.61611,0.00384
669.55594,0.00362
667.49577,0.00170
665.43559,0.00047
663.37542,0.00109
661.31525,0.00270
659.25508,0.00414
657.19491,0.00464
655.13473,0.00459
653.07456,0.00480
651.01439,0.00513
648.95422,0.00486
646.89404,0.00408
644.83387,0.00316
642.77370,0.00190
640.71353,0.00111
638.65336,0.00194
636.59318,0.00382
634.53301,0.00539
632.47284,0.00595
630.41267,0.00538
628.35250,0.00360
626.29232,0.00132
624.23215,0.00017
622.17198,0.00067
620.11181,0.00316
618.05164,0.00584
615.99146,0.00663
613.93129,0.00551
611.87112,0.00325
609.81095,0.00242
607.75077,0.00373
605.69060,0.00421
603.63043,0.00303
601.57026,0.00134
599.51009,0.00000
