3996.73391,0.00000
3994.67373,0.00012
3992.61356,0.00042
3990.55339,0.00067
3988.49322,0.00071
3986.43305,0.00049
3984.37287,0.00029
3982.31270,0.00049
3980.25253,0.00084
3978.19236,0.00072
3976.13219,0.00031
3974.07201,0.00022
3972.01184,0.00043
3969.95167,0.00050
3967.89150,0.00052
3965.83133,0.00074
3963.77115,0.00091
3961.71098,0.00078
3959.65081,0.00056
3957.59064,0.00046
3955.53046,0.00062
3953.47029,0.00103
3951.41012,0.00131
3949.34995,0.00128
3947.28978,0.00131
3945.22960,0.00148
3943.16943,0.00143
3941.10926,0.00100
3939.04909,0.00044
3936.98892,0.00023
3934.92874,0.00064
3932.86857,0.00120
3930.80840,0.00138
3928.74823,0.00139
3926.68805,0.00158
3924.62788,0.00176
3922.56771,0.00161
3920.50754,0.00116
3918.44737,0.00075
3916.38719,0.00071
3914.32702,0.00078
3912.26685,0.00063
3910.20668,0.00065
3908.14651,0.00103
3906.08633,0.00139
3904.02616,0.00143
3901.96599,0.00131
3899.90582,0.00137
3897.84565,0.00156
3895.78547,0.00167
3893.72530,0.00159
3891.66513,0.00127
3889.60496,0.00082
3887.54478,0.00054
3885.48461,0.00067
3883.42444,0.00114
3881.36427,0.00160
3879.30410,0.00175
3877.24392,0.00158
3875.18375,0.00134
3873.12358,0.00127
3871.06341,0.00157
3869.00324,0.00188
3866.94306,0.00175
3864.88289,0.00132
3862.82272,0.00090
3860.76255,0.00076
3858.70237,0.00105
3856.64220,0.00173
3854.58203,0.00247
3852.52186,0.00257
3850.46169,0.00196
3848.40151,0.00155
3846.34134,0.00157
3844.28117,0.00162
3842.22100,0.00147
3840.16083,0.00127
3838.10065,0.00114
3836.04048,0.00096
3833.98031,0.00077
3831.92014,0.00090
3829.85997,0.00126
3827.79979,0.00147
3825.73962,0.00156
3823.67945,0.00164
3821.61928,0.00168
3819.55910,0.00160
3817.49893,0.00125
3815.43876,0.00089
3813.37859,0.00088
3811.31842,0.00076
3809.25824,0.00026
3807.19807,0.00000
3805.13790,0.00031
3803.07773,0.00073
3801.01756,0.00099
3798.95738,0.00114
3796.89721,0.00121
3794.83704,0.00128
3792.77687,0.00136
3790.71670,0.00139
3788.65652,0.00127
3786.59635,0.00116
3784.53618,0.00141
3782.47601,0.00192
3780.41583,0.00203
3778.35566,0.00143
3776.29549,0.00077
3774.23532,0.00055
3772.17515,0.00058
3770.11497,0.00071
3768.05480,0.00083
3765.99463,0.00076
3763.93446,0.00069
3761.87429,0.00080
3759.81411,0.00087
3757.75394,0.00077
3755.69377,0.00070
3753.63360,0.00092
3751.57342,0.00154
3749.51325,0.00218
3747.45308,0.00244
3745.39291,0.00226
3743.33274,0.00153
3741.27256,0.00073
3739.21239,0.00063
3737.15222,0.00118
3735.09205,0.00158
3733.03188,0.00115
3730.97170,0.00058
3728.91153,0.00081
3726.85136,0.00159
3724.79119,0.00233
3722.73102,0.00270
3720.67084,0.00248
3718.61067,0.00179
3716.55050,0.00139
3714.49033,0.00148
3712.43015,0.00164
3710.36998,0.00176
3708.30981,0.00191
3706.24964,0.00185
3704.18947,0.00131
3702.12929,0.00064
3700.06912,0.00050
3698.00895,0.00104
3695.94878,0.00175
3693.88861,0.00193
3691.82843,0.00166
3689.76826,0.00162
3687.70809,0.00184
3685.64792,0.00172
3683.58775,0.00134
3681.52757,0.00126
3679.46740,0.00150
3677.40723,0.00154
3675.34706,0.00136
3673.28688,0.00156
3671.22671,0.00210
3669.16654,0.00263
3667.10637,0.00288
3665.04620,0.00300
3662.98602,0.00328
3660.92585,0.00376
3658.86568,0.00409
3656.80551,0.00394
3654.74534,0.00350
3652.68516,0.00357
3650.62499,0.00456
3648.56482,0.00567
3646.50465,0.00582
3644.44447,0.00570
3642.38430,0.00597
3640.32413,0.00646
3638.26396,0.00686
3636.20379,0.00710
3634.14361,0.00738
3632.08344,0.00785
3630.02327,0.00843
3627.96310,0.00887
3625.90293,0.00890
3623.84275,0.00894
3621.78258,0.00948
3619.72241,0.01046
3617.66224,0.01141
3615.60207,0.01186
3613.54189,0.01201
3611.48172,0.01204
3609.42155,0.01201
3607.36138,0.01230
3605.30120,0.01312
3603.24103,0.01425
3601.18086,0.01526
3599.12069,0.01562
3597.06052,0.01535
3595.00034,0.01528
3592.94017,0.01576
3590.88000,0.01656
3588.81983,0.01736
3586.75966,0.01785
3584.69948,0.01780
3582.63931,0.01773
3580.57914,0.01802
3578.51897,0.01846
3576.45879,0.01892
3574.39862,0.01944
3572.33845,0.01977
3570.27828,0.01992
3568.21811,0.02029
3566.15793,0.02093
3564.09776,0.02139
3562.03759,0.02162
3559.97742,0.02178
3557.91725,0.02197
3555.85707,0.02252
3553.79690,0.02342
3551.73673,0.02414
3549.67656,0.02454
3547.61639,0.02502
3545.55621,0.02571
3543.49604,0.02631
3541.43587,0.02667
3539.37570,0.02681
3537.31552,0.02682
3535.25535,0.02689
3533.19518,0.02736
3531.13501,0.02826
3529.07484,0.02930
3527.01466,0.03013
3524.95449,0.03051
3522.89432,0.03042
3520.83415,0.03030
3518.77398,0.03049
3516.71380,0.03101
3514.65363,0.03173
3512.59346,0.03226
3510.53329,0.03237
3508.47312,0.03234
3506.41294,0.03242
3504.35277,0.03270
3502.29260,0.03312
3500.23243,0.03334
3498.17225,0.03329
3496.11208,0.03346
3494.05191,0.03401
3491.99174,0.03484
3489.93157,0.03591
3487.87139,0.03673
3485.81122,0.03685
3483.75105,0.03666
3481.69088,0.03660
3479.63071,0.03685
3477.57053,0.03733
3475.51036,0.03772
3473.45019,0.03789
3471.39002,0.03807
3469.32984,0.03848
3467.26967,0.03912
3465.20950,0.03972
3463.14933,0.04008
3461.08916,0.04015
3459.02898,0.04011
3456.96881,0.04040
3454.90864,0.04098
3452.84847,0.04145
3450.78830,0.04164
3448.72812,0.04178
3446.66795,0.04216
3444.60778,0.04256
3442.54761,0.04271
3440.48744,0.04279
3438.42726,0.04313
3436.36709,0.04366
3434.30692,0.04398
3432.24675,0.04420
3430.18657,0.04460
3428.12640,0.04499
3426.06623,0.04528
3424.00606,0.04552
3421.94589,0.04555
3419.88571,0.04538
3417.82554,0.04556
3415.76537,0.04622
3413.70520,0.04663
3411.64503,0.04650
3409.58485,0.04627
3407.52468,0.04622
3405.46451,0.04659
3403.40434,0.04734
3401.34416,0.04807
3399.28399,0.04854
3397.22382,0.04876
3395.16365,0.04869
3393.10348,0.04859
3391.04330,0.04883
3388.98313,0.04919
3386.92296,0.04935
3384.86279,0.04938
3382.80262,0.04947
3380.74244,0.04952
3378.68227,0.04943
3376.62210,0.04940
3374.56193,0.04955
3372.50176,0.04994
3370.44158,0.05066
3368.38141,0.05133
3366.32124,0.05140
3364.26107,0.05094
3362.20089,0.05059
3360.14072,0.05061
3358.08055,0.05073
3356.02038,0.05103
3353.96021,0.05143
3351.90003,0.05150
3349.83986,0.05134
3347.77969,0.05149
3345.71952,0.05189
3343.65935,0.05203
3341.59917,0.05186
3339.53900,0.05177
3337.47883,0.05189
3335.41866,0.05228
3333.35849,0.05283
3331.29831,0.05300
3329.23814,0.05261
3327.17797,0.05221
3325.11780,0.05215
3323.05762,0.05219
3320.99745,0.05218
3318.93728,0.05239
3316.87711,0.05272
3314.81694,0.05287
3312.75676,0.05281
3310.69659,0.05264
3308.63642,0.05246
3306.57625,0.05236
3304.51608,0.05246
3302.45590,0.05279
3300.39573,0.05298
3298.33556,0.05280
3296.27539,0.05252
3294.21521,0.05259
3292.15504,0.05300
3290.09487,0.05326
3288.03470,0.05325
3285.97453,0.05331
3283.91435,0.05343
3281.85418,0.05345
3279.79401,0.05336
3277.73384,0.05334
3275.67367,0.05357
3273.61349,0.05380
3271.55332,0.05377
3269.49315,0.05361
3267.43298,0.05357
3265.37281,0.05370
3263.31263,0.05383
3261.25246,0.05385
3259.19229,0.05385
3257.13212,0.05384
3255.07194,0.05376
3253.01177,0.05363
3250.95160,0.05355
3248.89143,0.05372
3246.83126,0.05416
3244.77108,0.05445
3242.71091,0.05435
3240.65074,0.05415
3238.59057,0.05391
3236.53040,0.05371
3234.47022,0.05386
3232.41005,0.05422
3230.34988,0.05441
3228.28971,0.05422
3226.22954,0.05378
3224.16936,0.05352
3222.10919,0.05343
3220.04902,0.05337
3217.98885,0.05346
3215.92867,0.05368
3213.86850,0.05371
3211.80833,0.05362
3209.74816,0.05370
3207.68799,0.05368
3205.62781,0.05348
3203.56764,0.05328
3201.50747,0.05310
3199.44730,0.05306
3197.38713,0.05307
3195.32695,0.05299
3193.26678,0.05301
3191.20661,0.05304
3189.14644,0.05287
3187.08626,0.05265
3185.02609,0.05256
3182.96592,0.05261
3180.90575,0.05257
3178.84558,0.05224
3176.78540,0.05200
3174.72523,0.05201
3172.66506,0.05187
3170.60489,0.05158
3168.54472,0.05134
3166.48454,0.05105
3164.42437,0.05073
3162.36420,0.05074
3160.30403,0.05102
3158.24386,0.05107
3156.18368,0.05078
3154.12351,0.05044
3152.06334,0.05025
3150.00317,0.05019
3147.94299,0.05008
3145.88282,0.04982
3143.82265,0.04959
3141.76248,0.04965
3139.70231,0.04972
3137.64213,0.04938
3135.58196,0.04887
3133.52179,0.04866
3131.46162,0.04875
3129.40145,0.04887
3127.34127,0.04890
3125.28110,0.04864
3123.22093,0.04810
3121.16076,0.04783
3119.10058,0.04786
3117.04041,0.04769
3114.98024,0.04722
3112.92007,0.04691
3110.85990,0.04706
3108.79972,0.04718
3106.73955,0.04685
3104.67938,0.04648
3102.61921,0.04632
3100.55904,0.04612
3098.49886,0.04576
3096.43869,0.04542
3094.37852,0.04520
3092.31835,0.04496
3090.25818,0.04467
3088.19800,0.04445
3086.13783,0.04418
3084.07766,0.04383
3082.01749,0.04369
3079.95731,0.04380
3077.89714,0.04369
3075.83697,0.04328
3073.77680,0.04292
3071.71663,0.04265
3069.65645,0.04239
3067.59628,0.04217
3065.53611,0.04202
3063.47594,0.04188
3061.41577,0.04175
3059.35559,0.04160
3057.29542,0.04130
3055.23525,0.04098
3053.17508,0.04089
3051.11491,0.04097
3049.05473,0.04085
3046.99456,0.04042
3044.93439,0.03993
3042.87422,0.03957
3040.81404,0.03939
3038.75387,0.03939
3036.69370,0.03939
3034.63353,0.03913
3032.57336,0.03849
3030.51318,0.03776
3028.45301,0.03735
3026.39284,0.03722
3024.33267,0.03720
3022.27250,0.03722
3020.21232,0.03731
3018.15215,0.03736
3016.09198,0.03719
3014.03181,0.03675
3011.97163,0.03625
3009.91146,0.03607
3007.85129,0.03605
3005.79112,0.03576
3003.73095,0.03532
3001.67077,0.03504
2999.61060,0.03483
2997.55043,0.03452
2995.49026,0.03425
2993.43009,0.03423
2991.36991,0.03428
2989.30974,0.03402
2987.24957,0.03359
2985.18940,0.03336
2983.12923,0.03326
2981.06905,0.03311
2979.00888,0.03293
2976.94871,0.03276
2974.88854,0.03259
2972.82836,0.03251
2970.76819,0.03242
2968.70802,0.03234
2966.64785,0.03236
2964.58768,0.03237
2962.52750,0.03223
2960.46733,0.03212
2958.40716,0.03208
2956.34699,0.03195
2954.28682,0.03186
2952.22664,0.03197
2950.16647,0.03197
2948.10630,0.03172
2946.04613,0.03161
2943.98596,0.03168
2941.92578,0.03155
2939.86561,0.03133
2937.80544,0.03128
2935.74527,0.03129
2933.68509,0.03105
2931.62492,0.03090
2929.56475,0.03108
2927.50458,0.03104
2925.44441,0.03073
2923.38423,0.03059
2921.32406,0.03045
2919.26389,0.03025
2917.20372,0.03026
2915.14355,0.03039
2913.08337,0.03041
2911.02320,0.03030
2908.96303,0.03012
2906.90286,0.02985
2904.84268,0.02946
2902.78251,0.02903
2900.72234,0.02880
2898.66217,0.02887
2896.60200,0.02891
2894.54182,0.02864
2892.48165,0.02836
2890.42148,0.02822
2888.36131,0.02805
2886.30114,0.02809
2884.24096,0.02832
2882.18079,0.02835
2880.12062,0.02812
2878.06045,0.02774
2876.00028,0.02734
2873.94010,0.02730
2871.87993,0.02754
2869.81976,0.02766
2867.75959,0.02757
2865.69941,0.02741
2863.63924,0.02717
2861.57907,0.02689
2859.51890,0.02678
2857.45873,0.02665
2855.39855,0.02633
2853.33838,0.02608
2851.27821,0.02594
2849.21804,0.02576
2847.15787,0.02561
2845.09769,0.02552
2843.03752,0.02540
2840.97735,0.02531
2838.91718,0.02515
2836.85700,0.02490
2834.79683,0.02486
2832.73666,0.02496
2830.67649,0.02493
2828.61632,0.02479
2826.55614,0.02460
2824.49597,0.02442
2822.43580,0.02434
2820.37563,0.02437
2818.31546,0.02413
2816.25528,0.02372
2814.19511,0.02359
2812.13494,0.02370
2810.07477,0.02388
2808.01460,0.02391
2805.95442,0.02367
2803.89425,0.02328
2801.83408,0.02292
2799.77391,0.02264
2797.71373,0.02245
2795.65356,0.02228
2793.59339,0.02222
2791.53322,0.02241
2789.47305,0.02265
2787.41287,0.02257
2785.35270,0.02225
2783.29253,0.02207
2781.23236,0.02197
2779.17219,0.02188
2777.11201,0.02188
2775.05184,0.02174
2772.99167,0.02128
2770.93150,0.02086
2768.87133,0.02089
2766.81115,0.02111
2764.75098,0.02132
2762.69081,0.02153
2760.63064,0.02147
2758.57046,0.02102
2756.51029,0.02049
2754.45012,0.02015
2752.38995,0.01995
2750.32978,0.01986
2748.26960,0.01997
2746.20943,0.02010
2744.14926,0.02005
2742.08909,0.01988
2740.02892,0.01963
2737.96874,0.01947
2735.90857,0.01946
2733.84840,0.01947
2731.78823,0.01933
2729.72805,0.01906
2727.66788,0.01899
2725.60771,0.01909
2723.54754,0.01899
2721.48737,0.01870
2719.42719,0.01850
2717.36702,0.01844
2715.30685,0.01825
2713.24668,0.01799
2711.18651,0.01797
2709.12633,0.01796
2707.06616,0.01780
2705.00599,0.01773
2702.94582,0.01775
2700.88565,0.01771
2698.82547,0.01763
2696.76530,0.01757
2694.70513,0.01757
2692.64496,0.01742
2690.58478,0.01704
2688.52461,0.01671
2686.46444,0.01657
2684.40427,0.01654
2682.34410,0.01650
2680.28392,0.01636
2678.22375,0.01621
2676.16358,0.01615
2674.10341,0.01617
2672.04324,0.01607
2669.98306,0.01568
2667.92289,0.01535
2665.86272,0.01530
2663.80255,0.01518
2661.74238,0.01498
2659.68220,0.01496
2657.62203,0.01506
2655.56186,0.01505
2653.50169,0.01488
2651.44151,0.01474
2649.38134,0.01466
2647.32117,0.01450
2645.26100,0.01429
2643.20083,0.01417
2641.14065,0.01397
2639.08048,0.01361
2637.02031,0.01340
2634.96014,0.01339
2632.89997,0.01343
2630.83979,0.01351
2628.77962,0.01341
2626.71945,0.01315
2624.65928,0.01293
2622.59910,0.01276
2620.53893,0.01263
2618.47876,0.01250
2616.41859,0.01239
2614.35842,0.01228
2612.29824,0.01214
2610.23807,0.01207
2608.17790,0.01206
2606.11773,0.01190
2604.05756,0.01177
2601.99738,0.01194
2599.93721,0.01210
2597.87704,0.01193
2595.81687,0.01160
2593.75670,0.01144
2591.69652,0.01140
2589.63635,0.01140
2587.57618,0.01154
2585.51601,0.01157
2583.45583,0.01147
2581.39566,0.01152
2579.33549,0.01163
2577.27532,0.01148
2575.21515,0.01092
2573.15497,0.01037
2571.09480,0.01054
2569.03463,0.01134
2566.97446,0.01194
2564.91429,0.01175
2562.85411,0.01111
2560.79394,0.01070
2558.73377,0.01065
2556.67360,0.01084
2554.61342,0.01113
2552.55325,0.01107
2550.49308,0.01071
2548.43291,0.01059
2546.37274,0.01051
2544.31256,0.01012
2542.25239,0.00971
2540.19222,0.00972
2538.13205,0.01001
2536.07188,0.01009
2534.01170,0.00986
2531.95153,0.00990
2529.89136,0.01031
2527.83119,0.01053
2525.77102,0.01061
2523.71084,0.01076
2521.65067,0.01083
2519.59050,0.01078
2517.53033,0.01082
2515.47015,0.01095
2513.40998,0.01107
2511.34981,0.01096
2509.28964,0.01063
2507.22947,0.01053
2505.16929,0.01064
2503.10912,0.01070
2501.04895,0.01084
2498.98878,0.01093
2496.92861,0.01095
2494.86843,0.01130
2492.80826,0.01196
2490.74809,0.01219
2488.68792,0.01210
2486.62775,0.01220
2484.56757,0.01207
2482.50740,0.01162
2480.44723,0.01153
2478.38706,0.01172
2476.32688,0.01165
2474.26671,0.01150
2472.20654,0.01156
2470.14637,0.01166
2468.08620,0.01171
2466.02602,0.01189
2463.96585,0.01216
2461.90568,0.01228
2459.84551,0.01221
2457.78534,0.01200
2455.72516,0.01199
2453.66499,0.01238
2451.60482,0.01284
2449.54465,0.01283
2447.48447,0.01236
2445.42430,0.01195
2443.36413,0.01193
2441.30396,0.01220
2439.24379,0.01249
2437.18361,0.01265
2435.12344,0.01270
2433.06327,0.01245
2431.00310,0.01209
2428.94293,0.01200
2426.88275,0.01200
2424.82258,0.01193
2422.76241,0.01203
2420.70224,0.01220
2418.64207,0.01208
2416.58189,0.01163
2414.52172,0.01125
2412.46155,0.01145
2410.40138,0.01197
2408.34120,0.01213
2406.28103,0.01203
2404.22086,0.01188
2402.16069,0.01163
2400.10052,0.01160
2398.04034,0.01191
2395.98017,0.01224
2393.92000,0.01230
2391.85983,0.01222
2389.79966,0.01225
2387.73948,0.01233
2385.67931,0.01235
2383.61914,0.01246
2381.55897,0.01280
2379.49880,0.01309
2377.43862,0.01299
2375.37845,0.01239
2373.31828,0.01192
2371.25811,0.01158
2369.19793,0.01046
2367.13776,0.00893
2365.07759,0.00802
2363.01742,0.00728
2360.95725,0.00778
2358.89707,0.00942
2356.83690,0.01113
2354.77673,0.01091
2352.71656,0.01000
2350.65639,0.01138
2348.59621,0.01303
2346.53604,0.01208
2344.47587,0.01160
2342.41570,0.01174
2340.35552,0.01255
2338.29535,0.01352
2336.23518,0.01368
2334.17501,0.01298
2332.11484,0.01200
2330.05466,0.01216
2327.99449,0.01286
2325.93432,0.01308
2323.87415,0.01255
2321.81398,0.01253
2319.75380,0.01270
2317.69363,0.01267
2315.63346,0.01239
2313.57329,0.01236
2311.51312,0.01229
2309.45294,0.01180
2307.39277,0.01128
2305.33260,0.01119
2303.27243,0.01142
2301.21225,0.01125
2299.15208,0.01068
2297.09191,0.01029
2295.03174,0.01042
2292.97157,0.01072
2290.91139,0.01083
2288.85122,0.01083
2286.79105,0.01086
2284.73088,0.01082
2282.67071,0.01080
2280.61053,0.01078
2278.55036,0.01059
2276.49019,0.01052
2274.43002,0.01076
2272.36984,0.01089
2270.30967,0.01056
2268.24950,0.01008
2266.18933,0.00975
2264.12916,0.00939
2262.06898,0.00895
2260.00881,0.00877
2257.94864,0.00882
2255.88847,0.00909
2253.82830,0.00980
2251.76812,0.01018
2249.70795,0.00976
2247.64778,0.00944
2245.58761,0.00933
2243.52744,0.00886
2241.46726,0.00855
2239.40709,0.00856
2237.34692,0.00869
2235.28675,0.00885
2233.22657,0.00859
2231.16640,0.00821
2229.10623,0.00813
2227.04606,0.00745
2224.98589,0.00609
2222.92571,0.00560
2220.86554,0.00636
2218.80537,0.00735
2216.74520,0.00805
2214.68503,0.00864
2212.62485,0.00846
2210.56468,0.00721
2208.50451,0.00604
2206.44434,0.00588
2204.38417,0.00590
2202.32399,0.00489
2200.26382,0.00398
2198.20365,0.00450
2196.14348,0.00546
2194.08330,0.00610
2192.02313,0.00661
2189.96296,0.00680
2187.90279,0.00687
2185.84262,0.00712
2183.78244,0.00679
2181.72227,0.00614
2179.66210,0.00616
2177.60193,0.00664
2175.54176,0.00715
2173.48158,0.00684
2171.42141,0.00526
2169.36124,0.00369
2167.30107,0.00419
2165.24089,0.00646
2163.18072,0.00694
2161.12055,0.00491
2159.06038,0.00363
2157.00021,0.00413
2154.94003,0.00481
2152.87986,0.00469
2150.81969,0.00380
2148.75952,0.00279
2146.69935,0.00265
2144.63917,0.00363
2142.57900,0.00432
2140.51883,0.00387
2138.45866,0.00365
2136.39849,0.00399
2134.33831,0.00391
2132.27814,0.00355
2130.21797,0.00337
2128.15780,0.00370
2126.09762,0.00418
2124.03745,0.00416
2121.97728,0.00407
2119.91711,0.00464
2117.85694,0.00581
2115.79676,0.00635
2113.73659,0.00548
2111.67642,0.00447
2109.61625,0.00445
2107.55608,0.00495
2105.49590,0.00506
2103.43573,0.00455
2101.37556,0.00424
2099.31539,0.00458
2097.25521,0.00504
2095.19504,0.00540
2093.13487,0.00587
2091.07470,0.00593
2089.01453,0.00501
2086.95435,0.00404
2084.89418,0.00401
2082.83401,0.00434
2080.77384,0.00424
2078.71367,0.00395
2076.65349,0.00350
2074.59332,0.00290
2072.53315,0.00300
2070.47298,0.00385
2068.41281,0.00463
2066.35263,0.00450
2064.29246,0.00334
2062.23229,0.00265
2060.17212,0.00300
2058.11194,0.00362
2056.05177,0.00410
2053.99160,0.00420
2051.93143,0.00387
2049.87126,0.00294
2047.81108,0.00200
2045.75091,0.00229
2043.69074,0.00356
2041.63057,0.00380
2039.57040,0.00236
2037.51022,0.00089
2035.45005,0.00068
2033.38988,0.00117
2031.32971,0.00131
2029.26954,0.00154
2027.20936,0.00157
2025.14919,0.00040
2023.08902,0.00000
2021.02885,0.00166
2018.96867,0.00289
2016.90850,0.00300
2014.84833,0.00301
2012.78816,0.00241
2010.72799,0.00133
2008.66781,0.00087
2006.60764,0.00111
2004.54747,0.00139
2002.48730,0.00139
2000.42713,0.00135
1998.36695,0.00167
1996.30678,0.00211
1994.24661,0.00250
1992.18644,0.00282
1990.12626,0.00275
1988.06609,0.00240
1986.00592,0.00165
1983.94575,0.00102
1981.88558,0.00144
1979.82540,0.00192
1977.76523,0.00217
1975.70506,0.00246
1973.64489,0.00237
1971.58472,0.00315
1969.52454,0.00434
1967.46437,0.00410
1965.40420,0.00289
1963.34403,0.00174
1961.28386,0.00079
1959.22368,0.00010
1957.16351,0.00000
1955.10334,0.00066
1953.04317,0.00133
1950.98299,0.00113
1948.92282,0.00081
1946.86265,0.00118
1944.80248,0.00165
1942.74231,0.00155
1940.68213,0.00135
1938.62196,0.00181
1936.56179,0.00266
1934.50162,0.00283
1932.44145,0.00216
1930.38127,0.00178
1928.32110,0.00218
1926.26093,0.00257
1924.20076,0.00234
1922.14059,0.00197
1920.08041,0.00205
1918.02024,0.00226
1915.96007,0.00220
1913.89990,0.00196
1911.83972,0.00164
1909.77955,0.00162
1907.71938,0.00225
1905.65921,0.00297
1903.59904,0.00299
1901.53886,0.00240
1899.47869,0.00192
1897.41852,0.00178
1895.35835,0.00143
1893.29818,0.00090
1891.23800,0.00091
1889.17783,0.00157
1887.11766,0.00217
1885.05749,0.00233
1882.99731,0.00241
1880.93714,0.00260
1878.87697,0.00264
1876.81680,0.00264
1874.75663,0.00271
1872.69645,0.00256
1870.63628,0.00219
1868.57611,0.00195
1866.51594,0.00206
1864.45577,0.00245
1862.39559,0.00285
1860.33542,0.00297
1858.27525,0.00281
1856.21508,0.00261
1854.15491,0.00261
1852.09473,0.00290
1850.03456,0.00309
1847.97439,0.00279
1845.91422,0.00231
1843.85404,0.00218
1841.79387,0.00240
1839.73370,0.00283
1837.67353,0.00326
1835.61336,0.00329
1833.55318,0.00296
1831.49301,0.00269
1829.43284,0.00266
1827.37267,0.00263
1825.31250,0.00267
1823.25232,0.00298
1821.19215,0.00315
1819.13198,0.00281
1817.07181,0.00232
1815.01163,0.00220
1812.95146,0.00246
1810.89129,0.00275
1808.83112,0.00288
1806.77095,0.00290
1804.71077,0.00288
1802.65060,0.00290
1800.59043,0.00296
1798.53026,0.00290
1796.47009,0.00271
1794.40991,0.00260
1792.34974,0.00270
1790.28957,0.00288
1788.22940,0.00297
1786.16923,0.00303
1784.10905,0.00312
1782.04888,0.00326
1779.98871,0.00347
1777.92854,0.00370
1775.86836,0.00376
1773.80819,0.00367
1771.74802,0.00359
1769.68785,0.00357
1767.62768,0.00360
1765.56750,0.00374
1763.50733,0.00392
1761.44716,0.00405
1759.38699,0.00425
1757.32682,0.00445
1755.26664,0.00448
1753.20647,0.00457
1751.14630,0.00497
1749.08613,0.00539
1747.02596,0.00546
1744.96578,0.00540
1742.90561,0.00553
1740.84544,0.00586
1738.78527,0.00610
1736.72509,0.00611
1734.66492,0.00621
1732.60475,0.00666
1730.54458,0.00708
1728.48441,0.00725
1726.42423,0.00726
1724.36406,0.00724
1722.30389,0.00733
1720.24372,0.00756
1718.18355,0.00803
1716.12337,0.00868
1714.06320,0.00920
1712.00303,0.00947
1709.94286,0.00967
1707.88268,0.00991
1705.82251,0.01016
1703.76234,0.01036
1701.70217,0.01074
1699.64200,0.01137
1697.58182,0.01188
1695.52165,0.01226
1693.46148,0.01254
1691.40131,0.01270
1689.34114,0.01276
1687.28096,0.01277
1685.22079,0.01311
1683.16062,0.01385
1681.10045,0.01437
1679.04028,0.01461
1676.98010,0.01488
1674.91993,0.01522
1672.85976,0.01551
1670.79959,0.01596
1668.73941,0.01651
1666.67924,0.01678
1664.61907,0.01689
1662.55890,0.01709
1660.49873,0.01719
1658.43855,0.01713
1656.37838,0.01709
1654.31821,0.01730
1652.25804,0.01769
1650.19787,0.01788
1648.13769,0.01800
1646.07752,0.01810
1644.01735,0.01788
1641.95718,0.01749
1639.89701,0.01724
1637.83683,0.01720
1635.77666,0.01725
1633.71649,0.01716
1631.65632,0.01692
1629.59614,0.01668
1627.53597,0.01649
1625.47580,0.01638
1623.41563,0.01629
1621.35546,0.01599
1619.29528,0.01549
1617.23511,0.01517
1615.17494,0.01507
1613.11477,0.01489
1611.05460,0.01472
1608.99442,0.01460
1606.93425,0.01431
1604.87408,0.01376
1602.81391,0.01318
1600.75373,0.01281
1598.69356,0.01257
1596.63339,0.01221
1594.57322,0.01169
1592.51305,0.01118
1590.45287,0.01068
1588.39270,0.01019
1586.33253,0.00973
1584.27236,0.00926
1582.21219,0.00879
1580.15201,0.00842
1578.09184,0.00820
1576.03167,0.00804
1573.97150,0.00775
1571.91133,0.00736
1569.85115,0.00698
1567.79098,0.00663
1565.73081,0.00634
1563.67064,0.00605
1561.61046,0.00576
1559.55029,0.00560
1557.49012,0.00546
1555.42995,0.00517
1553.36978,0.00490
1551.30960,0.00471
1549.24943,0.00445
1547.18926,0.00425
1545.12909,0.00430
1543.06892,0.00454
1541.00874,0.00453
1538.94857,0.00406
1536.88840,0.00357
1534.82823,0.00338
1532.76805,0.00337
1530.70788,0.00328
1528.64771,0.00306
1526.58754,0.00280
1524.52737,0.00256
1522.46719,0.00250
1520.40702,0.00257
1518.34685,0.00258
1516.28668,0.00244
1514.22651,0.00220
1512.16633,0.00205
1510.10616,0.00201
1508.04599,0.00212
1505.98582,0.00229
1503.92565,0.00208
1501.86547,0.00162
1499.80530,0.00135
1497.74513,0.00127
1495.68496,0.00102
1493.62478,0.00073
1491.56461,0.00078
1489.50444,0.00109
1487.44427,0.00119
1485.38410,0.00101
1483.32392,0.00084
1481.26375,0.00084
1479.20358,0.00086
1477.14341,0.00086
1475.08324,0.00104
1473.02306,0.00144
1470.96289,0.00167
1468.90272,0.00157
1466.84255,0.00147
1464.78238,0.00154
1462.72220,0.00163
1460.66203,0.00177
1458.60186,0.00230
1456.54169,0.00296
1454.48151,0.00299
1452.42134,0.00269
1450.36117,0.00253
1448.30100,0.00246
1446.24083,0.00233
1444.18065,0.00216
1442.12048,0.00191
1440.06031,0.00169
1438.00014,0.00169
1435.93997,0.00170
1433.87979,0.00144
1431.81962,0.00118
1429.75945,0.00113
1427.69928,0.00116
1425.63910,0.00123
1423.57893,0.00138
1421.51876,0.00152
1419.45859,0.00165
1417.39842,0.00172
1415.33824,0.00163
1413.27807,0.00147
1411.21790,0.00135
1409.15773,0.00136
1407.09756,0.00147
1405.03738,0.00148
1402.97721,0.00133
1400.91704,0.00130
1398.85687,0.00148
1396.79670,0.00168
1394.73652,0.00174
1392.67635,0.00160
1390.61618,0.00140
1388.55601,0.00134
1386.49583,0.00134
1384.43566,0.00128
1382.37549,0.00137
1380.31532,0.00171
1378.25515,0.00208
1376.19497,0.00240
1374.13480,0.00268
1372.07463,0.00280
1370.01446,0.00275
1367.95429,0.00263
1365.89411,0.00240
1363.83394,0.00212
1361.77377,0.00194
1359.71360,0.00194
1357.65343,0.00202
1355.59325,0.00204
1353.53308,0.00199
1351.47291,0.00198
1349.41274,0.00196
1347.35256,0.00182
1345.29239,0.00164
1343.23222,0.00161
1341.17205,0.00181
1339.11188,0.00209
1337.05170,0.00218
1334.99153,0.00210
1332.93136,0.00207
1330.87119,0.00204
1328.81102,0.00184
1326.75084,0.00162
1324.69067,0.00148
1322.63050,0.00140
1320.57033,0.00143
1318.51015,0.00150
1316.44998,0.00140
1314.38981,0.00118
1312.32964,0.00110
1310.26947,0.00116
1308.20929,0.00121
1306.14912,0.00121
1304.08895,0.00113
1302.02878,0.00100
1299.96861,0.00098
1297.90843,0.00106
1295.84826,0.00106
1293.78809,0.00103
1291.72792,0.00116
1289.66775,0.00145
1287.60757,0.00166
1285.54740,0.00166
1283.48723,0.00151
1281.42706,0.00138
1279.36688,0.00133
1277.30671,0.00130
1275.24654,0.00131
1273.18637,0.00142
1271.12620,0.00163
1269.06602,0.00180
1267.00585,0.00183
1264.94568,0.00168
1262.88551,0.00147
1260.82534,0.00153
1258.76516,0.00183
1256.70499,0.00200
1254.64482,0.00182
1252.58465,0.00151
1250.52447,0.00130
1248.46430,0.00127
1246.40413,0.00128
1244.34396,0.00123
1242.28379,0.00119
1240.22361,0.00117
1238.16344,0.00108
1236.10327,0.00095
1234.04310,0.00089
1231.98293,0.00097
1229.92275,0.00105
1227.86258,0.00105
1225.80241,0.00103
1223.74224,0.00099
1221.68207,0.00082
1219.62189,0.00057
1217.56172,0.00044
1215.50155,0.00038
1213.44138,0.00027
1211.38120,0.00010
1209.32103,0.00000
1207.26086,0.00004
1205.20069,0.00009
1203.14052,0.00007
1201.08034,0.00010
1199.02017,0.00021
1196.96000,0.00025
1194.89983,0.00035
1192.83966,0.00073
1190.77948,0.00113
1188.71931,0.00143
1186.65914,0.00179
1184.59897,0.00221
1182.53880,0.00269
1180.47862,0.00329
1178.41845,0.00409
1176.35828,0.00506
1174.29811,0.00603
1172.23793,0.00696
1170.17776,0.00780
1168.11759,0.00850
1166.05742,0.00910
1163.99725,0.00978
1161.93707,0.01052
1159.87690,0.01118
1157.81673,0.01192
1155.75656,0.01282
1153.69639,0.01382
1151.63621,0.01494
1149.57604,0.01598
1147.51587,0.01673
1145.45570,0.01736
1143.39552,0.01832
1141.33535,0.01964
1139.27518,0.02085
1137.21501,0.02176
1135.15484,0.02265
1133.09466,0.02370
1131.03449,0.02484
1128.97432,0.02596
1126.91415,0.02717
1124.85398,0.02850
1122.79380,0.02963
1120.73363,0.03062
1118.67346,0.03171
1116.61329,0.03293
1114.55312,0.03415
1112.49294,0.03536
1110.43277,0.03669
1108.37260,0.03802
1106.31243,0.03929
1104.25225,0.04080
1102.19208,0.04254
1100.13191,0.04411
1098.07174,0.04544
1096.01157,0.04675
1093.95139,0.04791
1091.89122,0.04890
1089.83105,0.05002
1087.77088,0.05126
1085.71071,0.05231
1083.65053,0.05319
1081.59036,0.05416
1079.53019,0.05537
1077.47002,0.05665
1075.40985,0.05771
1073.34967,0.05844
1071.28950,0.05898
1069.22933,0.05937
1067.16916,0.05954
1065.10898,0.05971
1063.04881,0.05981
1060.98864,0.05957
1058.92847,0.05924
1056.86830,0.05890
1054.80812,0.05853
1052.74795,0.05806
1050.68778,0.05734
1048.62761,0.05662
1046.56744,0.05598
1044.50726,0.05491
1042.44709,0.05333
1040.38692,0.05194
1038.32675,0.05107
1036.26657,0.05010
1034.20640,0.04878
1032.14623,0.04773
1030.08606,0.04696
1028.02589,0.04585
1025.96571,0.04447
1023.90554,0.04315
1021.84537,0.04205
1019.78520,0.04128
1017.72503,0.04058
1015.66485,0.03962
1013.60468,0.03857
1011.54451,0.03778
1009.48434,0.03727
1007.42417,0.03712
1005.36399,0.03721
1003.30382,0.03709
1001.24365,0.03713
999.18348,0.03760
997.12330,0.03812
995.06313,0.03878
993.00296,0.03970
990.94279,0.04053
988.88262,0.04103
986.82244,0.04138
984.76227,0.04175
982.70210,0.04200
980.64193,0.04201
978.58176,0.04170
976.52158,0.04099
974.46141,0.03986
972.40124,0.03832
970.34107,0.03665
968.28089,0.03517
966.22072,0.03381
964.16055,0.03228
962.10038,0.03073
960.04021,0.02953
957.98003,0.02854
955.91986,0.02727
953.85969,0.02599
951.79952,0.02528
949.73935,0.02490
947.67917,0.02436
945.61900,0.02388
943.55883,0.02377
941.49866,0.02381
939.43849,0.02373
937.37831,0.02352
935.31814,0.02327
933.25797,0.02308
931.19780,0.02322
929.13762,0.02358
927.07745,0.02354
925.01728,0.02292
922.95711,0.02215
920.89694,0.02151
918.83676,0.02093
916.77659,0.02031
914.71642,0.01965
912.65625,0.01887
910.59608,0.01813
908.53590,0.01764
906.47573,0.01718
904.41556,0.01661
902.35539,0.01636
900.29522,0.01647
898.23504,0.01649
896.17487,0.01644
894.11470,0.01648
892.05453,0.01651
889.99435,0.01649
887.93418,0.01662
885.87401,0.01700
883.81384,0.01752
881.75367,0.01820
879.69349,0.01911
877.63332,0.02012
875.57315,0.02086
873.51298,0.02090
871.45281,0.02043
869.39263,0.02033
867.33246,0.02095
865.27229,0.02162
863.21212,0.02152
861.15194,0.02109
859.09177,0.02111
857.03160,0.02099
854.97143,0.02037
852.91126,0.01980
850.85108,0.01931
848.79091,0.01883
846.73074,0.01837
844.67057,0.01757
842.61040,0.01651
840.55022,0.01579
838.49005,0.01546
836.42988,0.01514
834.36971,0.01445
832.30954,0.01326
830.24936,0.01207
828.18919,0.01151
826.12902,0.01124
824.06885,0.01099
822.00867,0.01092
819.94850,0.01052
817.88833,0.00964
815.82816,0.00904
813.76799,0.00876
811.70781,0.00837
809.64764,0.00822
807.58747,0.00839
805.52730,0.00836
803.46713,0.00823
801.40695,0.00815
799.34678,0.00785
797.28661,0.00729
795.22644,0.00695
793.16627,0.00699
791.10609,0.00673
789.04592,0.00663
786.98575,0.00718
784.92558,0.00733
782.86540,0.00686
780.80523,0.00643
778.74506,0.00605
776.68489,0.00553
774.62472,0.00498
772.56454,0.00496
770.50437,0.00530
768.44420,0.00514
766.38403,0.00473
764.32386,0.00498
762.26368,0.00569
760.20351,0.00590
758.14334,0.00539
756.08317,0.00483
754.02299,0.00451
751.96282,0.00425
749.90265,0.00418
747.84248,0.00404
745.78231,0.00351
743.72213,0.00339
741.66196,0.00384
739.60179,0.00390
737.54162,0.00340
735.48145,0.00310
733.42127,0.00360
731.36110,0.00414
729.30093,0.00363
727.24076,0.00317
725.18059,0.00372
723.12041,0.00366
721.06024,0.00264
719.00007,0.00250
716.93990,0.00337
714.87972,0.00418
712.81955,0.00431
710.75938,0.00403
708.69921,0.00402
706.63904,0.00425
704.57886,0.00420
702.51869,0.00398
700.45852,0.00389
698.39835,0.00389
696.33818,0.00392
694.27800,0.00401
692.21783,0.00377
690.15766,0.00317
688.09749,0.00307
686.03731,0.00372
683.97714,0.00405
681.91697,0.00353
679.85680,0.00287
677.79663,0.00254
675.73645,0.00245
673.67628,0.00327
671.61611,0.00490
669.55594,0.00360
667.49577,0.00135
665.43559,0.00369
663.37542,0.00341
661.31525,0.00293
659.25508,0.00313
657.19491,0.00334
655.13473,0.00286
653.07456,0.00166
651.01439,0.00044
648.95422,0.00000
646.89404,0.00032
644.83387,0.00059
642.77370,0.00112
640.71353,0.00267
638.65336,0.00435
636.59318,0.00421
634.53301,0.00214
632.47284,0.00058
630.41267,0.00085
628.35250,0.00093
626.29232,-0.00057
624.23215,-0.00028
622.17198,0.00208
620.11181,0.00193
618.05164,-0.00058
615.99146,-0.00097
613.93129,0.00092
611.87112,0.00311
609.81095,0.00511
607.75077,0.00532
605.69060,0.00240
603.63043,-0.00101
601.57026,-0.00171
599.51009,0.00000
