3996.73391,0.00000
3994.67373,0.00011
3992.61356,0.00029
3990.55339,0.00032
3988.49322,0.00027
3986.43305,0.00034
3984.37287,0.00062
3982.31270,0.00092
3980.25253,0.00091
3978.19236,0.00061
3976.13219,0.00036
3974.07201,0.00051
3972.01184,0.00091
3969.95167,0.00112
3967.89150,0.00113
3965.83133,0.00118
3963.77115,0.00118
3961.71098,0.00102
3959.65081,0.00082
3957.59064,0.00074
3955.53046,0.00074
3953.47029,0.00077
3951.41012,0.00078
3949.34995,0.00074
3947.28978,0.00079
3945.22960,0.00097
3943.16943,0.00105
3941.10926,0.00097
3939.04909,0.00084
3936.98892,0.00083
3934.92874,0.00092
3932.86857,0.00086
3930.80840,0.00065
3928.74823,0.00075
3926.68805,0.00137
3924.62788,0.00195
3922.56771,0.00203
3920.50754,0.00192
3918.44737,0.00196
3916.38719,0.00195
3914.32702,0.00162
3912.26685,0.00113
3910.20668,0.00083
3908.14651,0.00083
3906.08633,0.00102
3904.02616,0.00132
3901.96599,0.00163
3899.90582,0.00182
3897.84565,0.00177
3895.78547,0.00160
3893.72530,0.00141
3891.66513,0.00111
3889.60496,0.00080
3887.54478,0.00074
3885.48461,0.00085
3883.42444,0.00111
3881.36427,0.00169
3879.30410,0.00234
3877.24392,0.00238
3875.18375,0.00161
3873.12358,0.00049
3871.06341,0.00000
3869.00324,0.00034
3866.94306,0.00077
3864.88289,0.00096
3862.82272,0.00103
3860.76255,0.00114
3858.70237,0.00143
3856.64220,0.00194
3854.58203,0.00267
3852.52186,0.00304
3850.46169,0.00248
3848.40151,0.00176
3846.34134,0.00136
3844.28117,0.00117
3842.22100,0.00102
3840.16083,0.00092
3838.10065,0.00099
3836.04048,0.00110
3833.98031,0.00101
3831.92014,0.00096
3829.85997,0.00112
3827.79979,0.00140
3825.73962,0.00177
3823.67945,0.00221
3821.61928,0.00253
3819.55910,0.00241
3817.49893,0.00179
3815.43876,0.00128
3813.37859,0.00123
3811.31842,0.00111
3809.25824,0.00066
3807.19807,0.00038
3805.13790,0.00069
3803.07773,0.00122
3801.01756,0.00148
3798.95738,0.00124
3796.89721,0.00075
3794.83704,0.00067
3792.77687,0.00113
3790.71670,0.00164
3788.65652,0.00182
3786.59635,0.00172
3784.53618,0.00158
3782.47601,0.00156
3780.41583,0.00159
3778.35566,0.00145
3776.29549,0.00118
3774.23532,0.00097
3772.17515,0.00086
3770.11497,0.00085
3768.05480,0.00076
3765.99463,0.00043
3763.93446,0.00021
3761.87429,0.00037
3759.81411,0.00068
3757.75394,0.00085
3755.69377,0.00094
3753.63360,0.00116
3751.57342,0.00154
3749.51325,0.00182
3747.45308,0.00162
3745.39291,0.00117
3743.33274,0.00098
3741.27256,0.00103
3739.21239,0.00128
3737.15222,0.00177
3735.09205,0.00196
3733.03188,0.00138
3730.97170,0.00058
3728.91153,0.00034
3726.85136,0.00067
3724.79119,0.00128
3722.73102,0.00201
3720.67084,0.00240
3718.61067,0.00218
3716.55050,0.00176
3714.49033,0.00157
3712.43015,0.00158
3710.36998,0.00161
3708.30981,0.00163
3706.24964,0.00166
3704.18947,0.00163
3702.12929,0.00141
3700.06912,0.00105
3698.00895,0.00083
3695.94878,0.00070
3693.88861,0.00034
3691.82843,0.00000
3689.76826,0.00051
3687.70809,0.00172
3685.64792,0.00231
3683.58775,0.00193
3681.52757,0.00139
3679.46740,0.00143
3677.40723,0.00205
3675.34706,0.00240
3673.28688,0.00186
3671.22671,0.00140
3669.16654,0.00189
3667.10637,0.00258
3665.04620,0.00289
3662.98602,0.00315
3660.92585,0.00335
3658.86568,0.00326
3656.80551,0.00314
3654.74534,0.00334
3652.68516,0.00386
3650.62499,0.00461
3648.56482,0.00524
3646.50465,0.00525
3644.44447,0.00504
3642.38430,0.00517
3640.32413,0.00577
3638.26396,0.00638
3636.20379,0.00671
3634.14361,0.00714
3632.08344,0.00773
3630.02327,0.00812
3627.96310,0.00839
3625.90293,0.00859
3623.84275,0.00874
3621.78258,0.00925
3619.72241,0.01023
3617.66224,0.01103
3615.60207,0.01121
3613.54189,0.01113
3611.48172,0.01128
3609.42155,0.01162
3607.36138,0.01211
3605.30120,0.01279
3603.24103,0.01346
3601.18086,0.01394
3599.12069,0.01409
3597.06052,0.01394
3595.00034,0.01396
3592.94017,0.01448
3590.88000,0.01513
3588.81983,0.01564
3586.75966,0.01601
3584.69948,0.01629
3582.63931,0.01652
3580.57914,0.01679
3578.51897,0.01712
3576.45879,0.01747
3574.39862,0.01782
3572.33845,0.01815
3570.27828,0.01843
3568.21811,0.01868
3566.15793,0.01898
3564.09776,0.01944
3562.03759,0.01990
3559.97742,0.02017
3557.91725,0.02045
3555.85707,0.02102
3553.79690,0.02162
3551.73673,0.02188
3549.67656,0.02200
3547.61639,0.02249
3545.55621,0.02321
3543.49604,0.02351
3541.43587,0.02342
3539.37570,0.02360
3537.31552,0.02421
3535.25535,0.02489
3533.19518,0.02531
3531.13501,0.02556
3529.07484,0.02598
3527.01466,0.02661
3524.95449,0.02711
3522.89432,0.02737
3520.83415,0.02751
3518.77398,0.02759
3516.71380,0.02783
3514.65363,0.02836
3512.59346,0.02898
3510.53329,0.02938
3508.47312,0.02949
3506.41294,0.02938
3504.35277,0.02926
3502.29260,0.02947
3500.23243,0.03011
3498.17225,0.03089
3496.11208,0.03155
3494.05191,0.03201
3491.99174,0.03228
3489.93157,0.03252
3487.87139,0.03301
3485.81122,0.03361
3483.75105,0.03386
3481.69088,0.03379
3479.63071,0.03386
3477.57053,0.03428
3475.51036,0.03476
3473.45019,0.03506
3471.39002,0.03517
3469.32984,0.03513
3467.26967,0.03515
3465.20950,0.03544
3463.14933,0.03592
3461.08916,0.03627
3459.02898,0.03657
3456.96881,0.03731
3454.90864,0.03807
3452.84847,0.03822
3450.78830,0.03803
3448.72812,0.03785
3446.66795,0.03783
3444.60778,0.03807
3442.54761,0.03855
3440.48744,0.03905
3438.42726,0.03936
3436.36709,0.03966
3434.30692,0.03998
3432.24675,0.04014
3430.18657,0.04039
3428.12640,0.04071
3426.06623,0.04083
3424.00606,0.04092
3421.94589,0.04096
3419.88571,0.04091
3417.82554,0.04098
3415.76537,0.04134
3413.70520,0.04190
3411.64503,0.04253
3409.58485,0.04295
3407.52468,0.04293
3405.46451,0.04288
3403.40434,0.04317
3401.34416,0.04361
3399.28399,0.04388
3397.22382,0.04396
3395.16365,0.04394
3393.10348,0.04406
3391.04330,0.04445
3388.98313,0.04469
3386.92296,0.04455
3384.86279,0.04442
3382.80262,0.04465
3380.74244,0.04506
3378.68227,0.04534
3376.62210,0.04546
3374.56193,0.04550
3372.50176,0.04571
3370.44158,0.04617
3368.38141,0.04649
3366.32124,0.04634
3364.26107,0.04599
3362.20089,0.04588
3360.14072,0.04607
3358.08055,0.04634
3356.02038,0.04643
3353.96021,0.04621
3351.90003,0.04597
3349.83986,0.04599
3347.77969,0.04611
3345.71952,0.04629
3343.65935,0.04661
3341.59917,0.04684
3339.53900,0.04676
3337.47883,0.04668
3335.41866,0.04694
3333.35849,0.04734
3331.29831,0.04759
3329.23814,0.04766
3327.17797,0.04757
3325.11780,0.04747
3323.05762,0.04747
3320.99745,0.04753
3318.93728,0.04763
3316.87711,0.04778
3314.81694,0.04791
3312.75676,0.04794
3310.69659,0.04785
3308.63642,0.04768
3306.57625,0.04756
3304.51608,0.04763
3302.45590,0.04780
3300.39573,0.04785
3298.33556,0.04776
3296.27539,0.04780
3294.21521,0.04808
3292.15504,0.04823
3290.09487,0.04818
3288.03470,0.04842
3285.97453,0.04885
3283.91435,0.04879
3281.85418,0.04844
3279.79401,0.04837
3277.73384,0.04844
3275.67367,0.04860
3273.61349,0.04891
3271.55332,0.04921
3269.49315,0.04926
3267.43298,0.04906
3265.37281,0.04881
3263.31263,0.04867
3261.25246,0.04870
3259.19229,0.04895
3257.13212,0.04930
3255.07194,0.04950
3253.01177,0.04938
3250.95160,0.04900
3248.89143,0.04873
3246.83126,0.04880
3244.77108,0.04899
3242.71091,0.04922
3240.65074,0.04938
3238.59057,0.04921
3236.53040,0.04904
3234.47022,0.04921
3232.41005,0.04941
3230.34988,0.04935
3228.28971,0.04893
3226.22954,0.04859
3224.16936,0.04876
3222.10919,0.04893
3220.04902,0.04878
3217.98885,0.04867
3215.92867,0.04863
3213.86850,0.04855
3211.80833,0.04861
3209.74816,0.04872
3207.68799,0.04863
3205.62781,0.04848
3203.56764,0.04852
3201.50747,0.04862
3199.44730,0.04853
3197.38713,0.04836
3195.32695,0.04828
3193.26678,0.04831
3191.20661,0.04838
3189.14644,0.04834
3187.08626,0.04815
3185.02609,0.04802
3182.96592,0.04808
3180.90575,0.04803
3178.84558,0.04785
3176.78540,0.04783
3174.72523,0.04768
3172.66506,0.04718
3170.60489,0.04685
3168.54472,0.04674
3166.48454,0.04645
3164.42437,0.04607
3162.36420,0.04607
3160.30403,0.04638
3158.24386,0.04657
3156.18368,0.04642
3154.12351,0.04602
3152.06334,0.04567
3150.00317,0.04567
3147.94299,0.04587
3145.88282,0.04578
3143.82265,0.04547
3141.76248,0.04544
3139.70231,0.04563
3137.64213,0.04553
3135.58196,0.04501
3133.52179,0.04445
3131.46162,0.04424
3129.40145,0.04429
3127.34127,0.04426
3125.28110,0.04403
3123.22093,0.04368
3121.16076,0.04347
3119.10058,0.04346
3117.04041,0.04344
3114.98024,0.04319
3112.92007,0.04285
3110.85990,0.04288
3108.79972,0.04308
3106.73955,0.04278
3104.67938,0.04230
3102.61921,0.04213
3100.55904,0.04212
3098.49886,0.04192
3096.43869,0.04148
3094.37852,0.04106
3092.31835,0.04081
3090.25818,0.04064
3088.19800,0.04054
3086.13783,0.04034
3084.07766,0.04000
3082.01749,0.03980
3079.95731,0.03992
3077.89714,0.03998
3075.83697,0.03978
3073.77680,0.03955
3071.71663,0.03917
3069.65645,0.03876
3067.59628,0.03863
3065.53611,0.03861
3063.47594,0.03855
3061.41577,0.03855
3059.35559,0.03847
3057.29542,0.03820
3055.23525,0.03783
3053.17508,0.03749
3051.11491,0.03728
3049.05473,0.03722
3046.99456,0.03702
3044.93439,0.03664
3042.87422,0.03633
3040.81404,0.03617
3038.75387,0.03611
3036.69370,0.03604
3034.63353,0.03577
3032.57336,0.03530
3030.51318,0.03479
3028.45301,0.03438
3026.39284,0.03408
3024.33267,0.03382
3022.27250,0.03372
3020.21232,0.03396
3018.15215,0.03427
3016.09198,0.03420
3014.03181,0.03372
3011.97163,0.03325
3009.91146,0.03315
3007.85129,0.03323
3005.79112,0.03306
3003.73095,0.03257
3001.67077,0.03208
2999.61060,0.03185
2997.55043,0.03174
2995.49026,0.03156
2993.43009,0.03134
2991.36991,0.03117
2989.30974,0.03097
2987.24957,0.03073
2985.18940,0.03054
2983.12923,0.03038
2981.06905,0.03037
2979.00888,0.03051
2976.94871,0.03033
2974.88854,0.02981
2972.82836,0.02945
2970.76819,0.02941
2968.70802,0.02940
2966.64785,0.02939
2964.58768,0.02934
2962.52750,0.02920
2960.46733,0.02914
2958.40716,0.02932
2956.34699,0.02940
2954.28682,0.02922
2952.22664,0.02916
2950.16647,0.02927
2948.10630,0.02925
2946.04613,0.02925
2943.98596,0.02925
2941.92578,0.02902
2939.86561,0.02884
2937.80544,0.02879
2935.74527,0.02850
2933.68509,0.02803
2931.62492,0.02785
2929.56475,0.02793
2927.50458,0.02788
2925.44441,0.02785
2923.38423,0.02801
2921.32406,0.02799
2919.26389,0.02770
2917.20372,0.02744
2915.14355,0.02722
2913.08337,0.02699
2911.02320,0.02690
2908.96303,0.02693
2906.90286,0.02697
2904.84268,0.02688
2902.78251,0.02665
2900.72234,0.02650
2898.66217,0.02651
2896.60200,0.02637
2894.54182,0.02605
2892.48165,0.02591
2890.42148,0.02600
2888.36131,0.02600
2886.30114,0.02582
2884.24096,0.02571
2882.18079,0.02570
2880.12062,0.02567
2878.06045,0.02550
2876.00028,0.02522
2873.94010,0.02507
2871.87993,0.02515
2869.81976,0.02520
2867.75959,0.02507
2865.69941,0.02480
2863.63924,0.02441
2861.57907,0.02408
2859.51890,0.02399
2857.45873,0.02407
2855.39855,0.02419
2853.33838,0.02410
2851.27821,0.02378
2849.21804,0.02351
2847.15787,0.02345
2845.09769,0.02341
2843.03752,0.02328
2840.97735,0.02313
2838.91718,0.02297
2836.85700,0.02286
2834.79683,0.02277
2832.73666,0.02258
2830.67649,0.02241
2828.61632,0.02239
2826.55614,0.02236
2824.49597,0.02235
2822.43580,0.02229
2820.37563,0.02208
2818.31546,0.02175
2816.25528,0.02143
2814.19511,0.02146
2812.13494,0.02171
2810.07477,0.02181
2808.01460,0.02170
2805.95442,0.02149
2803.89425,0.02134
2801.83408,0.02121
2799.77391,0.02103
2797.71373,0.02082
2795.65356,0.02073
2793.59339,0.02081
2791.53322,0.02086
2789.47305,0.02079
2787.41287,0.02065
2785.35270,0.02052
2783.29253,0.02046
2781.23236,0.02028
2779.17219,0.02008
2777.11201,0.02018
2775.05184,0.02012
2772.99167,0.01959
2770.93150,0.01913
2768.87133,0.01912
2766.81115,0.01930
2764.75098,0.01948
2762.69081,0.01964
2760.63064,0.01954
2758.57046,0.01921
2756.51029,0.01894
2754.45012,0.01878
2752.38995,0.01857
2750.32978,0.01840
2748.26960,0.01843
2746.20943,0.01838
2744.14926,0.01815
2742.08909,0.01809
2740.02892,0.01811
2737.96874,0.01793
2735.90857,0.01771
2733.84840,0.01774
2731.78823,0.01780
2729.72805,0.01765
2727.66788,0.01747
2725.60771,0.01739
2723.54754,0.01734
2721.48737,0.01712
2719.42719,0.01682
2717.36702,0.01662
2715.30685,0.01645
2713.24668,0.01634
2711.18651,0.01643
2709.12633,0.01655
2707.06616,0.01644
2705.00599,0.01626
2702.94582,0.01617
2700.88565,0.01614
2698.82547,0.01608
2696.76530,0.01600
2694.70513,0.01591
2692.64496,0.01569
2690.58478,0.01542
2688.52461,0.01530
2686.46444,0.01527
2684.40427,0.01530
2682.34410,0.01537
2680.28392,0.01528
2678.22375,0.01512
2676.16358,0.01492
2674.10341,0.01464
2672.04324,0.01444
2669.98306,0.01431
2667.92289,0.01425
2665.86272,0.01422
2663.80255,0.01412
2661.74238,0.01401
2659.68220,0.01391
2657.62203,0.01390
2655.56186,0.01396
2653.50169,0.01382
2651.44151,0.01353
2649.38134,0.01329
2647.32117,0.01306
2645.26100,0.01279
2643.20083,0.01259
2641.14065,0.01255
2639.08048,0.01261
2637.02031,0.01264
2634.96014,0.01262
2632.89997,0.01259
2630.83979,0.01247
2628.77962,0.01221
2626.71945,0.01204
2624.65928,0.01204
2622.59910,0.01187
2620.53893,0.01156
2618.47876,0.01141
2616.41859,0.01138
2614.35842,0.01136
2612.29824,0.01140
2610.23807,0.01132
2608.17790,0.01109
2606.11773,0.01093
2604.05756,0.01097
2601.99738,0.01122
2599.93721,0.01134
2597.87704,0.01108
2595.81687,0.01065
2593.75670,0.01046
2591.69652,0.01049
2589.63635,0.01046
2587.57618,0.01050
2585.51601,0.01062
2583.45583,0.01055
2581.39566,0.01048
2579.33549,0.01052
2577.27532,0.01039
2575.21515,0.01009
2573.15497,0.00987
2571.09480,0.01006
2569.03463,0.01051
2566.97446,0.01080
2564.91429,0.01093
2562.85411,0.01096
2560.79394,0.01084
2558.73377,0.01054
2556.67360,0.01022
2554.61342,0.01019
2552.55325,0.01030
2550.49308,0.01026
2548.43291,0.01020
2546.37274,0.01027
2544.31256,0.01024
2542.25239,0.00996
2540.19222,0.00973
2538.13205,0.00971
2536.07188,0.00972
2534.01170,0.00973
2531.95153,0.01008
2529.89136,0.01045
2527.83119,0.01021
2525.77102,0.00997
2523.71084,0.01021
2521.65067,0.01044
2519.59050,0.01055
2517.53033,0.01089
2515.47015,0.01131
2513.40998,0.01124
2511.34981,0.01069
2509.28964,0.01002
2507.22947,0.00976
2505.16929,0.00998
2503.10912,0.01005
2501.04895,0.01003
2498.98878,0.01030
2496.92861,0.01072
2494.86843,0.01100
2492.80826,0.01115
2490.74809,0.01124
2488.68792,0.01143
2486.62775,0.01157
2484.56757,0.01150
2482.50740,0.01133
2480.44723,0.01121
2478.38706,0.01112
2476.32688,0.01074
2474.26671,0.01046
2472.20654,0.01069
2470.14637,0.01095
2468.08620,0.01096
2466.02602,0.01108
2463.96585,0.01135
2461.90568,0.01160
2459.84551,0.01186
2457.78534,0.01197
2455.72516,0.01201
2453.66499,0.01209
2451.60482,0.01214
2449.54465,0.01200
2447.48447,0.01163
2445.42430,0.01157
2443.36413,0.01186
2441.30396,0.01187
2439.24379,0.01153
2437.18361,0.01141
2435.12344,0.01164
2433.06327,0.01164
2431.00310,0.01157
2428.94293,0.01194
2426.88275,0.01226
2424.82258,0.01213
2422.76241,0.01186
2420.70224,0.01184
2418.64207,0.01204
2416.58189,0.01200
2414.52172,0.01168
2412.46155,0.01150
2410.40138,0.01153
2408.34120,0.01170
2406.28103,0.01170
2404.22086,0.01143
2402.16069,0.01147
2400.10052,0.01183
2398.04034,0.01214
2395.98017,0.01236
2393.92000,0.01241
2391.85983,0.01228
2389.79966,0.01223
2387.73948,0.01223
2385.67931,0.01203
2383.61914,0.01188
2381.55897,0.01201
2379.49880,0.01203
2377.43862,0.01163
2375.37845,0.01118
2373.31828,0.01103
2371.25811,0.01165
2369.19793,0.01257
2367.13776,0.01182
2365.07759,0.00929
2363.01742,0.00691
2360.95725,0.00556
2358.89707,0.00736
2356.83690,0.01013
2354.77673,0.01139
2352.71656,0.01185
2350.65639,0.01106
2348.59621,0.01041
2346.53604,0.01151
2344.47587,0.01126
2342.41570,0.01162
2340.35552,0.01362
2338.29535,0.01531
2336.23518,0.01588
2334.17501,0.01481
2332.11484,0.01311
2330.05466,0.01252
2327.99449,0.01330
2325.93432,0.01381
2323.87415,0.01411
2321.81398,0.01384
2319.75380,0.01293
2317.69363,0.01183
2315.63346,0.01159
2313.57329,0.01186
2311.51312,0.01198
2309.45294,0.01161
2307.39277,0.01097
2305.33260,0.01099
2303.27243,0.01173
2301.21225,0.01220
2299.15208,0.01180
2297.09191,0.01120
2295.03174,0.01080
2292.97157,0.01062
2290.91139,0.01087
2288.85122,0.01126
2286.79105,0.01133
2284.73088,0.01130
2282.67071,0.01135
2280.61053,0.01120
2278.55036,0.01075
2276.49019,0.01038
2274.43002,0.01040
2272.36984,0.01054
2270.30967,0.01035
2268.24950,0.00999
2266.18933,0.00963
2264.12916,0.00902
2262.06898,0.00826
2260.00881,0.00790
2257.94864,0.00796
2255.88847,0.00823
2253.82830,0.00886
2251.76812,0.00939
2249.70795,0.00921
2247.64778,0.00900
2245.58761,0.00939
2243.52744,0.00998
2241.46726,0.01022
2239.40709,0.00991
2237.34692,0.00941
2235.28675,0.00868
2233.22657,0.00747
2231.16640,0.00670
2229.10623,0.00669
2227.04606,0.00640
2224.98589,0.00611
2222.92571,0.00662
2220.86554,0.00719
2218.80537,0.00766
2216.74520,0.00832
2214.68503,0.00859
2212.62485,0.00798
2210.56468,0.00657
2208.50451,0.00567
2206.44434,0.00623
2204.38417,0.00695
2202.32399,0.00667
2200.26382,0.00590
2198.20365,0.00572
2196.14348,0.00607
2194.08330,0.00607
2192.02313,0.00593
2189.96296,0.00636
2187.90279,0.00723
2185.84262,0.00785
2183.78244,0.00738
2181.72227,0.00625
2179.66210,0.00575
2177.60193,0.00609
2175.54176,0.00653
2173.48158,0.00647
2171.42141,0.00594
2169.36124,0.00555
2167.30107,0.00608
2165.24089,0.00709
2163.18072,0.00724
2161.12055,0.00581
2159.06038,0.00375
2157.00021,0.00301
2154.94003,0.00413
2152.87986,0.00537
2150.81969,0.00488
2148.75952,0.00366
2146.69935,0.00322
2144.63917,0.00351
2142.57900,0.00377
2140.51883,0.00381
2138.45866,0.00445
2136.39849,0.00527
2134.33831,0.00500
2132.27814,0.00418
2130.21797,0.00382
2128.15780,0.00407
2126.09762,0.00460
2124.03745,0.00455
2121.97728,0.00400
2119.91711,0.00388
2117.85694,0.00419
2115.79676,0.00428
2113.73659,0.00435
2111.67642,0.00483
2109.61625,0.00504
2107.55608,0.00473
2105.49590,0.00441
2103.43573,0.00405
2101.37556,0.00381
2099.31539,0.00385
2097.25521,0.00406
2095.19504,0.00461
2093.13487,0.00528
2091.07470,0.00534
2089.01453,0.00488
2086.95435,0.00471
2084.89418,0.00482
2082.83401,0.00491
2080.77384,0.00483
2078.71367,0.00455
2076.65349,0.00431
2074.59332,0.00413
2072.53315,0.00397
2070.47298,0.00386
2068.41281,0.00384
2066.35263,0.00398
2064.29246,0.00418
2062.23229,0.00445
2060.17212,0.00461
2058.11194,0.00440
2056.05177,0.00440
2053.99160,0.00509
2051.93143,0.00543
2049.87126,0.00463
2047.81108,0.00394
2045.75091,0.00446
2043.69074,0.00519
2041.63057,0.00504
2039.57040,0.00395
2037.51022,0.00281
2035.45005,0.00324
2033.38988,0.00436
2031.32971,0.00422
2029.26954,0.00356
2027.20936,0.00305
2025.14919,0.00210
2023.08902,0.00163
2021.02885,0.00264
2018.96867,0.00371
2016.90850,0.00383
2014.84833,0.00360
2012.78816,0.00307
2010.72799,0.00228
2008.66781,0.00193
2006.60764,0.00228
2004.54747,0.00258
2002.48730,0.00213
2000.42713,0.00184
1998.36695,0.00234
1996.30678,0.00290
1994.24661,0.00316
1992.18644,0.00274
1990.12626,0.00241
1988.06609,0.00342
1986.00592,0.00455
1983.94575,0.00474
1981.88558,0.00459
1979.82540,0.00445
1977.76523,0.00443
1975.70506,0.00409
1973.64489,0.00351
1971.58472,0.00403
1969.52454,0.00533
1967.46437,0.00560
1965.40420,0.00375
1963.34403,0.00101
1961.28386,0.00000
1959.22368,0.00071
1957.16351,0.00125
1955.10334,0.00149
1953.04317,0.00221
1950.98299,0.00275
1948.92282,0.00253
1946.86265,0.00206
1944.80248,0.00177
1942.74231,0.00190
1940.68213,0.00267
1938.62196,0.00341
1936.56179,0.00354
1934.50162,0.00360
1932.44145,0.00410
1930.38127,0.00467
1928.32110,0.00456
1926.26093,0.00379
1924.20076,0.00323
1922.14059,0.00320
1920.08041,0.00342
1918.02024,0.00333
1915.96007,0.00272
1913.89990,0.00218
1911.83972,0.00219
1909.77955,0.00290
1907.71938,0.00399
1905.65921,0.00449
1903.59904,0.00395
1901.53886,0.00295
1899.47869,0.00241
1897.41852,0.00258
1895.35835,0.00281
1893.29818,0.00262
1891.23800,0.00242
1889.17783,0.00265
1887.11766,0.00311
1885.05749,0.00349
1882.99731,0.00370
1880.93714,0.00377
1878.87697,0.00365
1876.81680,0.00345
1874.75663,0.00329
1872.69645,0.00312
1870.63628,0.00311
1868.57611,0.00353
1866.51594,0.00401
1864.45577,0.00424
1862.39559,0.00432
1860.33542,0.00421
1858.27525,0.00383
1856.21508,0.00345
1854.15491,0.00341
1852.09473,0.00353
1850.03456,0.00342
1847.97439,0.00318
1845.91422,0.00309
1843.85404,0.00319
1841.79387,0.00351
1839.73370,0.00393
1837.67353,0.00409
1835.61336,0.00383
1833.55318,0.00339
1831.49301,0.00321
1829.43284,0.00338
1827.37267,0.00352
1825.31250,0.00355
1823.25232,0.00365
1821.19215,0.00357
1819.13198,0.00321
1817.07181,0.00297
1815.01163,0.00307
1812.95146,0.00334
1810.89129,0.00356
1808.83112,0.00363
1806.77095,0.00361
1804.71077,0.00361
1802.65060,0.00359
1800.59043,0.00351
1798.53026,0.00346
1796.47009,0.00350
1794.40991,0.00351
1792.34974,0.00356
1790.28957,0.00374
1788.22940,0.00391
1786.16923,0.00399
1784.10905,0.00404
1782.04888,0.00409
1779.98871,0.00415
1777.92854,0.00421
1775.86836,0.00422
1773.80819,0.00420
1771.74802,0.00417
1769.68785,0.00413
1767.62768,0.00412
1765.56750,0.00421
1763.50733,0.00440
1761.44716,0.00467
1759.38699,0.00491
1757.32682,0.00495
1755.26664,0.00497
1753.20647,0.00517
1751.14630,0.00540
1749.08613,0.00548
1747.02596,0.00557
1744.96578,0.00572
1742.90561,0.00583
1740.84544,0.00604
1738.78527,0.00631
1736.72509,0.00643
1734.66492,0.00657
1732.60475,0.00687
1730.54458,0.00712
1728.48441,0.00728
1726.42423,0.00739
1724.36406,0.00748
1722.30389,0.00751
1720.24372,0.00755
1718.18355,0.00783
1716.12337,0.00836
1714.06320,0.00882
1712.00303,0.00908
1709.94286,0.00921
1707.88268,0.00936
1705.82251,0.00956
1703.76234,0.00987
1701.70217,0.01033
1699.64200,0.01060
1697.58182,0.01050
1695.52165,0.01066
1693.46148,0.01117
1691.40131,0.01160
1689.34114,0.01185
1687.28096,0.01202
1685.22079,0.01234
1683.16062,0.01291
1681.10045,0.01330
1679.04028,0.01340
1676.98010,0.01355
1674.91993,0.01396
1672.85976,0.01442
1670.79959,0.01481
1668.73941,0.01511
1666.67924,0.01525
1664.61907,0.01528
1662.55890,0.01535
1660.49873,0.01549
1658.43855,0.01563
1656.37838,0.01574
1654.31821,0.01583
1652.25804,0.01598
1650.19787,0.01614
1648.13769,0.01610
1646.07752,0.01593
1644.01735,0.01579
1641.95718,0.01567
1639.89701,0.01554
1637.83683,0.01544
1635.77666,0.01533
1633.71649,0.01504
1631.65632,0.01467
1629.59614,0.01445
1627.53597,0.01438
1625.47580,0.01427
1623.41563,0.01398
1621.35546,0.01353
1619.29528,0.01315
1617.23511,0.01300
1615.17494,0.01293
1613.11477,0.01273
1611.05460,0.01252
1608.99442,0.01236
1606.93425,0.01217
1604.87408,0.01182
1602.81391,0.01132
1600.75373,0.01086
1598.69356,0.01055
1596.63339,0.01033
1594.57322,0.01010
1592.51305,0.00975
1590.45287,0.00922
1588.39270,0.00874
1586.33253,0.00845
1584.27236,0.00812
1582.21219,0.00771
1580.15201,0.00744
1578.09184,0.00731
1576.03167,0.00711
1573.97150,0.00674
1571.91133,0.00632
1569.85115,0.00593
1567.79098,0.00572
1565.73081,0.00571
1563.67064,0.00569
1561.61046,0.00560
1559.55029,0.00553
1557.49012,0.00536
1555.42995,0.00501
1553.36978,0.00472
1551.30960,0.00461
1549.24943,0.00457
1547.18926,0.00449
1545.12909,0.00438
1543.06892,0.00428
1541.00874,0.00404
1538.94857,0.00370
1536.88840,0.00353
1534.82823,0.00360
1532.76805,0.00365
1530.70788,0.00350
1528.64771,0.00326
1526.58754,0.00297
1524.52737,0.00262
1522.46719,0.00237
1520.40702,0.00232
1518.34685,0.00236
1516.28668,0.00236
1514.22651,0.00234
1512.16633,0.00232
1510.10616,0.00225
1508.04599,0.00223
1505.98582,0.00240
1503.92565,0.00232
1501.86547,0.00198
1499.80530,0.00167
1497.74513,0.00150
1495.68496,0.00134
1493.62478,0.00117
1491.56461,0.00114
1489.50444,0.00130
1487.44427,0.00143
1485.38410,0.00134
1483.32392,0.00130
1481.26375,0.00142
1479.20358,0.00149
1477.14341,0.00145
1475.08324,0.00158
1473.02306,0.00190
1470.96289,0.00197
1468.90272,0.00170
1466.84255,0.00144
1464.78238,0.00131
1462.72220,0.00133
1460.66203,0.00153
1458.60186,0.00197
1456.54169,0.00247
1454.48151,0.00261
1452.42134,0.00251
1450.36117,0.00242
1448.30100,0.00229
1446.24083,0.00210
1444.18065,0.00193
1442.12048,0.00180
1440.06031,0.00171
1438.00014,0.00160
1435.93997,0.00136
1433.87979,0.00104
1431.81962,0.00086
1429.75945,0.00082
1427.69928,0.00078
1425.63910,0.00075
1423.57893,0.00087
1421.51876,0.00118
1419.45859,0.00156
1417.39842,0.00170
1415.33824,0.00156
1413.27807,0.00138
1411.21790,0.00128
1409.15773,0.00121
1407.09756,0.00111
1405.03738,0.00089
1402.97721,0.00063
1400.91704,0.00061
1398.85687,0.00089
1396.79670,0.00121
1394.73652,0.00131
1392.67635,0.00117
1390.61618,0.00106
1388.55601,0.00106
1386.49583,0.00100
1384.43566,0.00088
1382.37549,0.00093
1380.31532,0.00116
1378.25515,0.00140
1376.19497,0.00158
1374.13480,0.00172
1372.07463,0.00177
1370.01446,0.00175
1367.95429,0.00170
1365.89411,0.00156
1363.83394,0.00136
1361.77377,0.00127
1359.71360,0.00128
1357.65343,0.00127
1355.59325,0.00121
1353.53308,0.00120
1351.47291,0.00130
1349.41274,0.00145
1347.35256,0.00146
1345.29239,0.00129
1343.23222,0.00108
1341.17205,0.00109
1339.11188,0.00136
1337.05170,0.00155
1334.99153,0.00145
1332.93136,0.00135
1330.87119,0.00139
1328.81102,0.00136
1326.75084,0.00124
1324.69067,0.00115
1322.63050,0.00112
1320.57033,0.00122
1318.51015,0.00145
1316.44998,0.00154
1314.38981,0.00135
1312.32964,0.00112
1310.26947,0.00104
1308.20929,0.00114
1306.14912,0.00129
1304.08895,0.00125
1302.02878,0.00112
1299.96861,0.00105
1297.90843,0.00109
1295.84826,0.00119
1293.78809,0.00127
1291.72792,0.00137
1289.66775,0.00150
1287.60757,0.00161
1285.54740,0.00163
1283.48723,0.00159
1281.42706,0.00158
1279.36688,0.00156
1277.30671,0.00145
1275.24654,0.00137
1273.18637,0.00138
1271.12620,0.00148
1269.06602,0.00166
1267.00585,0.00187
1264.94568,0.00192
1262.88551,0.00188
1260.82534,0.00194
1258.76516,0.00199
1256.70499,0.00188
1254.64482,0.00166
1252.58465,0.00140
1250.52447,0.00122
1248.46430,0.00120
1246.40413,0.00124
1244.34396,0.00126
1242.28379,0.00130
1240.22361,0.00129
1238.16344,0.00114
1236.10327,0.00091
1234.04310,0.00082
1231.98293,0.00084
1229.92275,0.00087
1227.86258,0.00083
1225.80241,0.00067
1223.74224,0.00051
1221.68207,0.00038
1219.62189,0.00029
1217.56172,0.00021
1215.50155,0.00008
1213.44138,0.00000
1211.38120,0.00001
1209.32103,0.00002
1207.26086,0.00003
1205.20069,0.00013
1203.14052,0.00018
1201.08034,0.00011
1199.02017,0.00022
1196.96000,0.00051
1194.89983,0.00067
1192.83966,0.00085
1190.77948,0.00123
1188.71931,0.00163
1186.65914,0.00192
1184.59897,0.00225
1182.53880,0.00276
1180.47862,0.00335
1178.41845,0.00390
1176.35828,0.00447
1174.29811,0.00522
1172.23793,0.00620
1170.17776,0.00720
1168.11759,0.00799
1166.05742,0.00856
1163.99725,0.00909
1161.93707,0.00965
1159.87690,0.01020
1157.81673,0.01097
1155.75656,0.01187
1153.69639,0.01251
1151.63621,0.01314
1149.57604,0.01413
1147.51587,0.01515
1145.45570,0.01589
1143.39552,0.01655
1141.33535,0.01732
1139.27518,0.01813
1137.21501,0.01896
1135.15484,0.01985
1133.09466,0.02085
1131.03449,0.02196
1128.97432,0.02308
1126.91415,0.02411
1124.85398,0.02518
1122.79380,0.02640
1120.73363,0.02765
1118.67346,0.02870
1116.61329,0.02952
1114.55312,0.03039
1112.49294,0.03141
1110.43277,0.03259
1108.37260,0.03382
1106.31243,0.03496
1104.25225,0.03622
1102.19208,0.03764
1100.13191,0.03885
1098.07174,0.03986
1096.01157,0.04105
1093.95139,0.04217
1091.89122,0.04290
1089.83105,0.04368
1087.77088,0.04479
1085.71071,0.04570
1083.65053,0.04628
1081.59036,0.04690
1079.53019,0.04757
1077.47002,0.04841
1075.40985,0.04943
1073.34967,0.05027
1071.28950,0.05070
1069.22933,0.05072
1067.16916,0.05072
1065.10898,0.05101
1063.04881,0.05112
1060.98864,0.05083
1058.92847,0.05047
1056.86830,0.05008
1054.80812,0.04962
1052.74795,0.04908
1050.68778,0.04828
1048.62761,0.04736
1046.56744,0.04654
1044.50726,0.04560
1042.44709,0.04451
1040.38692,0.04344
1038.32675,0.04241
1036.26657,0.04127
1034.20640,0.03996
1032.14623,0.03884
1030.08606,0.03796
1028.02589,0.03701
1025.96571,0.03603
1023.90554,0.03512
1021.84537,0.03422
1019.78520,0.03328
1017.72503,0.03242
1015.66485,0.03171
1013.60468,0.03110
1011.54451,0.03068
1009.48434,0.03042
1007.42417,0.03034
1005.36399,0.03048
1003.30382,0.03065
1001.24365,0.03095
999.18348,0.03145
997.12330,0.03203
995.06313,0.03278
993.00296,0.03363
990.94279,0.03443
988.88262,0.03513
986.82244,0.03558
984.76227,0.03578
982.70210,0.03593
980.64193,0.03602
978.58176,0.03569
976.52158,0.03505
974.46141,0.03417
972.40124,0.03284
970.34107,0.03129
968.28089,0.02995
966.22072,0.02888
964.16055,0.02786
962.10038,0.02684
960.04021,0.02595
957.98003,0.02507
955.91986,0.02395
953.85969,0.02267
951.79952,0.02179
949.73935,0.02164
947.67917,0.02178
945.61900,0.02180
943.55883,0.02164
941.49866,0.02143
939.43849,0.02111
937.37831,0.02077
935.31814,0.02079
933.25797,0.02077
931.19780,0.02047
929.13762,0.02047
927.07745,0.02061
925.01728,0.02037
922.95711,0.02000
920.89694,0.01971
918.83676,0.01921
916.77659,0.01842
914.71642,0.01763
912.65625,0.01700
910.59608,0.01654
908.53590,0.01621
906.47573,0.01587
904.41556,0.01564
902.35539,0.01572
900.29522,0.01570
898.23504,0.01536
896.17487,0.01521
894.11470,0.01529
892.05453,0.01525
889.99435,0.01524
887.93418,0.01545
885.87401,0.01584
883.81384,0.01628
881.75367,0.01659
879.69349,0.01699
877.63332,0.01790
875.57315,0.01882
873.51298,0.01901
871.45281,0.01892
869.39263,0.01911
867.33246,0.01936
865.27229,0.01932
863.21212,0.01919
861.15194,0.01942
859.09177,0.01977
857.03160,0.01968
854.97143,0.01914
852.91126,0.01848
850.85108,0.01811
848.79091,0.01806
846.73074,0.01766
844.67057,0.01667
842.61040,0.01573
840.55022,0.01501
838.49005,0.01436
836.42988,0.01406
834.36971,0.01377
832.30954,0.01290
830.24936,0.01197
828.18919,0.01157
826.12902,0.01126
824.06885,0.01089
822.00867,0.01072
819.94850,0.01037
817.88833,0.00973
815.82816,0.00919
813.76799,0.00874
811.70781,0.00839
809.64764,0.00819
807.58747,0.00817
805.52730,0.00818
803.46713,0.00787
801.40695,0.00744
799.34678,0.00731
797.28661,0.00721
795.22644,0.00691
793.16627,0.00687
791.10609,0.00712
789.04592,0.00696
786.98575,0.00632
784.92558,0.00591
782.86540,0.00580
780.80523,0.00589
778.74506,0.00615
776.68489,0.00594
774.62472,0.00533
772.56454,0.00521
770.50437,0.00554
768.44420,0.00536
766.38403,0.00465
764.32386,0.00425
762.26368,0.00434
760.20351,0.00470
758.14334,0.00520
756.08317,0.00561
754.02299,0.00522
751.96282,0.00404
749.90265,0.00315
747.84248,0.00315
745.78231,0.00356
743.72213,0.00377
741.66196,0.00373
739.60179,0.00352
737.54162,0.00298
735.48145,0.00220
733.42127,0.00224
731.36110,0.00334
729.30093,0.00396
727.24076,0.00376
725.18059,0.00364
723.12041,0.00334
721.06024,0.00303
719.00007,0.00262
716.93990,0.00262
714.87972,0.00314
712.81955,0.00366
710.75938,0.00405
708.69921,0.00427
706.63904,0.00398
704.57886,0.00330
702.51869,0.00296
700.45852,0.00302
698.39835,0.00286
696.33818,0.00254
694.27800,0.00249
692.21783,0.00260
690.15766,0.00269
688.09749,0.00248
686.03731,0.00192
683.97714,0.00154
681.91697,0.00161
679.85680,0.00182
677.79663,0.00207
675.73645,0.00230
673.67628,0.00205
671.61611,0.00159
669.55594,0.00379
667.49577,0.00536
665.43559,0.00167
663.37542,0.00158
661.31525,0.00323
659.25508,0.00452
657.19491,0.00445
655.13473,0.00335
653.07456,0.00237
651.01439,0.00188
648.95422,0.00167
646.89404,0.00144
644.83387,0.00130
642.77370,0.00181
640.71353,0.00391
638.65336,0.00675
636.59318,0.00765
634.53301,0.00595
632.47284,0.00420
630.41267,0.00361
628.35250,0.00265
626.29232,0.00075
624.23215,0.00000
622.17198,0.00090
620.11181,0.00242
618.05164,0.00235
615.99146,0.00164
613.93129,0.00162
611.87112,0.00133
609.81095,0.00130
607.75077,0.00188
605.69060,0.00159
603.63043,0.00058
601.57026,0.00006
599.51009,0.00000
