3996.73391,0.00055
3994.67373,0.00055
3992.61356,0.00060
3990.55339,0.00077
3988.49322,0.00100
3986.43305,0.00097
3984.37287,0.00080
3982.31270,0.00075
3980.25253,0.00057
3978.19236,0.00020
3976.13219,0.00000
3974.07201,0.00020
3972.01184,0.00059
3969.95167,0.00075
3967.89150,0.00069
3965.83133,0.00074
3963.77115,0.00095
3961.71098,0.00100
3959.65081,0.00079
3957.59064,0.00069
3955.53046,0.00090
3953.47029,0.00114
3951.41012,0.00109
3949.34995,0.00092
3947.28978,0.00103
3945.22960,0.00126
3943.16943,0.00123
3941.10926,0.00100
3939.04909,0.00079
3936.98892,0.00077
3934.92874,0.00089
3932.86857,0.00099
3930.80840,0.00103
3928.74823,0.00120
3926.68805,0.00148
3924.62788,0.00158
3922.56771,0.00134
3920.50754,0.00108
3918.44737,0.00112
3916.38719,0.00133
3914.32702,0.00119
3912.26685,0.00061
3910.20668,0.00018
3908.14651,0.00015
3906.08633,0.00041
3904.02616,0.00097
3901.96599,0.00149
3899.90582,0.00159
3897.84565,0.00125
3895.78547,0.00080
3893.72530,0.00065
3891.66513,0.00072
3889.60496,0.00060
3887.54478,0.00031
3885.48461,0.00020
3883.42444,0.00043
3881.36427,0.00102
3879.30410,0.00167
3877.24392,0.00168
3875.18375,0.00102
3873.12358,0.00033
3871.06341,0.00019
3869.00324,0.00055
3866.94306,0.00087
3864.88289,0.00089
3862.82272,0.00077
3860.76255,0.00081
3858.70237,0.00099
3856.64220,0.00107
3854.58203,0.00122
3852.52186,0.00179
3850.46169,0.00197
3848.40151,0.00145
3846.34134,0.00087
3844.28117,0.00053
3842.22100,0.00025
3840.16083,0.00000
3838.10065,0.00015
3836.04048,0.00065
3833.98031,0.00096
3831.92014,0.00103
3829.85997,0.00099
3827.79979,0.00087
3825.73962,0.00082
3823.67945,0.00086
3821.61928,0.00099
3819.55910,0.00125
3817.49893,0.00111
3815.43876,0.00073
3813.37859,0.00067
3811.31842,0.00080
3809.25824,0.00084
3807.19807,0.00076
3805.13790,0.00052
3803.07773,0.00035
3801.01756,0.00043
3798.95738,0.00037
3796.89721,0.00025
3794.83704,0.00051
3792.77687,0.00096
3790.71670,0.00129
3788.65652,0.00144
3786.59635,0.00134
3784.53618,0.00116
3782.47601,0.00114
3780.41583,0.00126
3778.35566,0.00139
3776.29549,0.00128
3774.23532,0.00091
3772.17515,0.00058
3770.11497,0.00077
3768.05480,0.00117
3765.99463,0.00107
3763.93446,0.00069
3761.87429,0.00048
3759.81411,0.00059
3757.75394,0.00097
3755.69377,0.00123
3753.63360,0.00128
3751.57342,0.00148
3749.51325,0.00165
3747.45308,0.00122
3745.39291,0.00065
3743.33274,0.00051
3741.27256,0.00051
3739.21239,0.00068
3737.15222,0.00128
3735.09205,0.00171
3733.03188,0.00127
3730.97170,0.00052
3728.91153,0.00036
3726.85136,0.00085
3724.79119,0.00152
3722.73102,0.00198
3720.67084,0.00195
3718.61067,0.00151
3716.55050,0.00114
3714.49033,0.00096
3712.43015,0.00075
3710.36998,0.00084
3708.30981,0.00134
3706.24964,0.00149
3704.18947,0.00122
3702.12929,0.00106
3700.06912,0.00120
3698.00895,0.00140
3695.94878,0.00138
3693.88861,0.00090
3691.82843,0.00010
3689.76826,0.00000
3687.70809,0.00104
3685.64792,0.00185
3683.58775,0.00171
3681.52757,0.00138
3679.46740,0.00149
3677.40723,0.00172
3675.34706,0.00177
3673.28688,0.00188
3671.22671,0.00214
3669.16654,0.00269
3667.10637,0.00324
3665.04620,0.00350
3662.98602,0.00361
3660.92585,0.00367
3658.86568,0.00369
3656.80551,0.00369
3654.74534,0.00380
3652.68516,0.00410
3650.62499,0.00477
3648.56482,0.00584
3646.50465,0.00669
3644.44447,0.00698
3642.38430,0.00706
3640.32413,0.00740
3638.26396,0.00783
3636.20379,0.00794
3634.14361,0.00801
3632.08344,0.00816
3630.02327,0.00845
3627.96310,0.00928
3625.90293,0.01007
3623.84275,0.01032
3621.78258,0.01057
3619.72241,0.01134
3617.66224,0.01236
3615.60207,0.01279
3613.54189,0.01280
3611.48172,0.01303
3609.42155,0.01357
3607.36138,0.01451
3605.30120,0.01548
3603.24103,0.01586
3601.18086,0.01588
3599.12069,0.01594
3597.06052,0.01636
3595.00034,0.01713
3592.94017,0.01783
3590.88000,0.01812
3588.81983,0.01822
3586.75966,0.01851
3584.69948,0.01906
3582.63931,0.01957
3580.57914,0.01996
3578.51897,0.02042
3576.45879,0.02115
3574.39862,0.02190
3572.33845,0.02214
3570.27828,0.02194
3568.21811,0.02213
3566.15793,0.02320
3564.09776,0.02427
3562.03759,0.02468
3559.97742,0.02488
3557.91725,0.02541
3555.85707,0.02615
3553.79690,0.02664
3551.73673,0.02687
3549.67656,0.02720
3547.61639,0.02779
3545.55621,0.02852
3543.49604,0.02904
3541.43587,0.02923
3539.37570,0.02945
3537.31552,0.03005
3535.25535,0.03082
3533.19518,0.03139
3531.13501,0.03173
3529.07484,0.03233
3527.01466,0.03323
3524.95449,0.03365
3522.89432,0.03360
3520.83415,0.03371
3518.77398,0.03399
3516.71380,0.03438
3514.65363,0.03492
3512.59346,0.03550
3510.53329,0.03618
3508.47312,0.03676
3506.41294,0.03698
3504.35277,0.03729
3502.29260,0.03795
3500.23243,0.03828
3498.17225,0.03816
3496.11208,0.03834
3494.05191,0.03907
3491.99174,0.03998
3489.93157,0.04076
3487.87139,0.04124
3485.81122,0.04135
3483.75105,0.04135
3481.69088,0.04151
3479.63071,0.04184
3477.57053,0.04238
3475.51036,0.04298
3473.45019,0.04330
3471.39002,0.04328
3469.32984,0.04320
3467.26967,0.04343
3465.20950,0.04406
3463.14933,0.04472
3461.08916,0.04522
3459.02898,0.04573
3456.96881,0.04645
3454.90864,0.04709
3452.84847,0.04744
3450.78830,0.04760
3448.72812,0.04768
3446.66795,0.04770
3444.60778,0.04778
3442.54761,0.04800
3440.48744,0.04831
3438.42726,0.04845
3436.36709,0.04875
3434.30692,0.04944
3432.24675,0.04995
3430.18657,0.05006
3428.12640,0.05016
3426.06623,0.05042
3424.00606,0.05073
3421.94589,0.05093
3419.88571,0.05106
3417.82554,0.05131
3415.76537,0.05186
3413.70520,0.05255
3411.64503,0.05306
3409.58485,0.05319
3407.52468,0.05318
3405.46451,0.05348
3403.40434,0.05397
3401.34416,0.05436
3399.28399,0.05462
3397.22382,0.05477
3395.16365,0.05493
3393.10348,0.05523
3391.04330,0.05554
3388.98313,0.05549
3386.92296,0.05519
3384.86279,0.05515
3382.80262,0.05566
3380.74244,0.05629
3378.68227,0.05663
3376.62210,0.05661
3374.56193,0.05618
3372.50176,0.05590
3370.44158,0.05631
3368.38141,0.05697
3366.32124,0.05726
3364.26107,0.05713
3362.20089,0.05711
3360.14072,0.05742
3358.08055,0.05775
3356.02038,0.05783
3353.96021,0.05778
3351.90003,0.05782
3349.83986,0.05797
3347.77969,0.05811
3345.71952,0.05818
3343.65935,0.05815
3341.59917,0.05797
3339.53900,0.05784
3337.47883,0.05812
3335.41866,0.05872
3333.35849,0.05914
3331.29831,0.05920
3329.23814,0.05918
3327.17797,0.05916
3325.11780,0.05900
3323.05762,0.05893
3320.99745,0.05900
3318.93728,0.05907
3316.87711,0.05927
3314.81694,0.05961
3312.75676,0.05995
3310.69659,0.06009
3308.63642,0.05988
3306.57625,0.05956
3304.51608,0.05957
3302.45590,0.05987
3300.39573,0.06006
3298.33556,0.06007
3296.27539,0.06020
3294.21521,0.06063
3292.15504,0.06090
3290.09487,0.06075
3288.03470,0.06057
3285.97453,0.06055
3283.91435,0.06039
3281.85418,0.06029
3279.79401,0.06055
3277.73384,0.06080
3275.67367,0.06088
3273.61349,0.06095
3271.55332,0.06113
3269.49315,0.06113
3267.43298,0.06076
3265.37281,0.06045
3263.31263,0.06049
3261.25246,0.06058
3259.19229,0.06068
3257.13212,0.06089
3255.07194,0.06096
3253.01177,0.06081
3250.95160,0.06056
3248.89143,0.06034
3246.83126,0.06037
3244.77108,0.06055
3242.71091,0.06072
3240.65074,0.06084
3238.59057,0.06080
3236.53040,0.06067
3234.47022,0.06065
3232.41005,0.06077
3230.34988,0.06098
3228.28971,0.06109
3226.22954,0.06101
3224.16936,0.06095
3222.10919,0.06093
3220.04902,0.06077
3217.98885,0.06071
3215.92867,0.06086
3213.86850,0.06079
3211.80833,0.06036
3209.74816,0.05990
3207.68799,0.05961
3205.62781,0.05957
3203.56764,0.05971
3201.50747,0.05977
3199.44730,0.05981
3197.38713,0.05989
3195.32695,0.05985
3193.26678,0.05967
3191.20661,0.05946
3189.14644,0.05928
3187.08626,0.05923
3185.02609,0.05935
3182.96592,0.05944
3180.90575,0.05925
3178.84558,0.05893
3176.78540,0.05875
3174.72523,0.05855
3172.66506,0.05823
3170.60489,0.05791
3168.54472,0.05776
3166.48454,0.05776
3164.42437,0.05761
3162.36420,0.05738
3160.30403,0.05737
3158.24386,0.05757
3156.18368,0.05763
3154.12351,0.05730
3152.06334,0.05690
3150.00317,0.05681
3147.94299,0.05675
3145.88282,0.05634
3143.82265,0.05600
3141.76248,0.05600
3139.70231,0.05610
3137.64213,0.05605
3135.58196,0.05569
3133.52179,0.05516
3131.46162,0.05473
3129.40145,0.05453
3127.34127,0.05445
3125.28110,0.05423
3123.22093,0.05388
3121.16076,0.05359
3119.10058,0.05346
3117.04041,0.05326
3114.98024,0.05299
3112.92007,0.05292
3110.85990,0.05304
3108.79972,0.05304
3106.73955,0.05284
3104.67938,0.05252
3102.61921,0.05207
3100.55904,0.05154
3098.49886,0.05111
3096.43869,0.05088
3094.37852,0.05085
3092.31835,0.05084
3090.25818,0.05074
3088.19800,0.05050
3086.13783,0.04999
3084.07766,0.04936
3082.01749,0.04909
3079.95731,0.04914
3077.89714,0.04901
3075.83697,0.04863
3073.77680,0.04838
3071.71663,0.04823
3069.65645,0.04794
3067.59628,0.04773
3065.53611,0.04762
3063.47594,0.04731
3061.41577,0.04700
3059.35559,0.04687
3057.29542,0.04661
3055.23525,0.04616
3053.17508,0.04584
3051.11491,0.04575
3049.05473,0.04576
3046.99456,0.04561
3044.93439,0.04531
3042.87422,0.04499
3040.81404,0.04464
3038.75387,0.04435
3036.69370,0.04412
3034.63353,0.04373
3032.57336,0.04319
3030.51318,0.04260
3028.45301,0.04215
3026.39284,0.04212
3024.33267,0.04224
3022.27250,0.04220
3020.21232,0.04208
3018.15215,0.04177
3016.09198,0.04116
3014.03181,0.04061
3011.97163,0.04043
3009.91146,0.04056
3007.85129,0.04061
3005.79112,0.04018
3003.73095,0.03961
3001.67077,0.03937
2999.61060,0.03930
2997.55043,0.03899
2995.49026,0.03847
2993.43009,0.03815
2991.36991,0.03803
2989.30974,0.03781
2987.24957,0.03762
2985.18940,0.03752
2983.12923,0.03737
2981.06905,0.03736
2979.00888,0.03747
2976.94871,0.03743
2974.88854,0.03717
2972.82836,0.03690
2970.76819,0.03679
2968.70802,0.03669
2966.64785,0.03667
2964.58768,0.03679
2962.52750,0.03685
2960.46733,0.03679
2958.40716,0.03677
2956.34699,0.03682
2954.28682,0.03695
2952.22664,0.03713
2950.16647,0.03710
2948.10630,0.03692
2946.04613,0.03700
2943.98596,0.03715
2941.92578,0.03687
2939.86561,0.03645
2937.80544,0.03633
2935.74527,0.03625
2933.68509,0.03604
2931.62492,0.03605
2929.56475,0.03612
2927.50458,0.03584
2925.44441,0.03550
2923.38423,0.03532
2921.32406,0.03512
2919.26389,0.03499
2917.20372,0.03507
2915.14355,0.03511
2913.08337,0.03499
2911.02320,0.03466
2908.96303,0.03431
2906.90286,0.03417
2904.84268,0.03414
2902.78251,0.03399
2900.72234,0.03373
2898.66217,0.03357
2896.60200,0.03352
2894.54182,0.03345
2892.48165,0.03332
2890.42148,0.03320
2888.36131,0.03309
2886.30114,0.03310
2884.24096,0.03320
2882.18079,0.03309
2880.12062,0.03281
2878.06045,0.03256
2876.00028,0.03239
2873.94010,0.03251
2871.87993,0.03266
2869.81976,0.03245
2867.75959,0.03198
2865.69941,0.03160
2863.63924,0.03148
2861.57907,0.03151
2859.51890,0.03152
2857.45873,0.03137
2855.39855,0.03109
2853.33838,0.03089
2851.27821,0.03073
2849.21804,0.03047
2847.15787,0.03025
2845.09769,0.03014
2843.03752,0.03006
2840.97735,0.02989
2838.91718,0.02950
2836.85700,0.02920
2834.79683,0.02932
2832.73666,0.02949
2830.67649,0.02944
2828.61632,0.02925
2826.55614,0.02895
2824.49597,0.02873
2822.43580,0.02877
2820.37563,0.02872
2818.31546,0.02840
2816.25528,0.02811
2814.19511,0.02803
2812.13494,0.02800
2810.07477,0.02802
2808.01460,0.02801
2805.95442,0.02780
2803.89425,0.02752
2801.83408,0.02727
2799.77391,0.02699
2797.71373,0.02677
2795.65356,0.02673
2793.59339,0.02677
2791.53322,0.02669
2789.47305,0.02668
2787.41287,0.02676
2785.35270,0.02670
2783.29253,0.02653
2781.23236,0.02629
2779.17219,0.02602
2777.11201,0.02597
2775.05184,0.02588
2772.99167,0.02546
2770.93150,0.02513
2768.87133,0.02508
2766.81115,0.02504
2764.75098,0.02504
2762.69081,0.02511
2760.63064,0.02507
2758.57046,0.02496
2756.51029,0.02487
2754.45012,0.02475
2752.38995,0.02442
2750.32978,0.02402
2748.26960,0.02389
2746.20943,0.02393
2744.14926,0.02385
2742.08909,0.02372
2740.02892,0.02353
2737.96874,0.02324
2735.90857,0.02316
2733.84840,0.02342
2731.78823,0.02357
2729.72805,0.02334
2727.66788,0.02301
2725.60771,0.02288
2723.54754,0.02286
2721.48737,0.02265
2719.42719,0.02233
2717.36702,0.02213
2715.30685,0.02196
2713.24668,0.02181
2711.18651,0.02181
2709.12633,0.02193
2707.06616,0.02192
2705.00599,0.02173
2702.94582,0.02153
2700.88565,0.02141
2698.82547,0.02127
2696.76530,0.02109
2694.70513,0.02091
2692.64496,0.02064
2690.58478,0.02037
2688.52461,0.02029
2686.46444,0.02025
2684.40427,0.02009
2682.34410,0.01993
2680.28392,0.01987
2678.22375,0.01987
2676.16358,0.01976
2674.10341,0.01954
2672.04324,0.01931
2669.98306,0.01897
2667.92289,0.01859
2665.86272,0.01842
2663.80255,0.01847
2661.74238,0.01857
2659.68220,0.01845
2657.62203,0.01819
2655.56186,0.01808
2653.50169,0.01792
2651.44151,0.01768
2649.38134,0.01751
2647.32117,0.01738
2645.26100,0.01720
2643.20083,0.01696
2641.14065,0.01669
2639.08048,0.01653
2637.02031,0.01650
2634.96014,0.01652
2632.89997,0.01658
2630.83979,0.01652
2628.77962,0.01620
2626.71945,0.01589
2624.65928,0.01573
2622.59910,0.01565
2620.53893,0.01562
2618.47876,0.01555
2616.41859,0.01545
2614.35842,0.01548
2612.29824,0.01541
2610.23807,0.01503
2608.17790,0.01469
2606.11773,0.01464
2604.05756,0.01466
2601.99738,0.01461
2599.93721,0.01445
2597.87704,0.01419
2595.81687,0.01406
2593.75670,0.01412
2591.69652,0.01413
2589.63635,0.01409
2587.57618,0.01417
2585.51601,0.01412
2583.45583,0.01385
2581.39566,0.01372
2579.33549,0.01372
2577.27532,0.01349
2575.21515,0.01305
2573.15497,0.01291
2571.09480,0.01325
2569.03463,0.01369
2566.97446,0.01394
2564.91429,0.01384
2562.85411,0.01339
2560.79394,0.01323
2558.73377,0.01331
2556.67360,0.01325
2554.61342,0.01335
2552.55325,0.01347
2550.49308,0.01323
2548.43291,0.01289
2546.37274,0.01274
2544.31256,0.01264
2542.25239,0.01253
2540.19222,0.01254
2538.13205,0.01259
2536.07188,0.01248
2534.01170,0.01250
2531.95153,0.01288
2529.89136,0.01308
2527.83119,0.01285
2525.77102,0.01273
2523.71084,0.01303
2521.65067,0.01352
2519.59050,0.01370
2517.53033,0.01335
2515.47015,0.01302
2513.40998,0.01301
2511.34981,0.01293
2509.28964,0.01277
2507.22947,0.01310
2505.16929,0.01371
2503.10912,0.01366
2501.04895,0.01321
2498.98878,0.01309
2496.92861,0.01341
2494.86843,0.01380
2492.80826,0.01421
2490.74809,0.01462
2488.68792,0.01457
2486.62775,0.01407
2484.56757,0.01356
2482.50740,0.01320
2480.44723,0.01313
2478.38706,0.01349
2476.32688,0.01370
2474.26671,0.01341
2472.20654,0.01315
2470.14637,0.01333
2468.08620,0.01372
2466.02602,0.01408
2463.96585,0.01424
2461.90568,0.01420
2459.84551,0.01423
2457.78534,0.01428
2455.72516,0.01440
2453.66499,0.01471
2451.60482,0.01501
2449.54465,0.01507
2447.48447,0.01490
2445.42430,0.01469
2443.36413,0.01465
2441.30396,0.01476
2439.24379,0.01474
2437.18361,0.01461
2435.12344,0.01453
2433.06327,0.01431
2431.00310,0.01423
2428.94293,0.01456
2426.88275,0.01476
2424.82258,0.01449
2422.76241,0.01418
2420.70224,0.01428
2418.64207,0.01450
2416.58189,0.01446
2414.52172,0.01425
2412.46155,0.01417
2410.40138,0.01428
2408.34120,0.01421
2406.28103,0.01397
2404.22086,0.01372
2402.16069,0.01347
2400.10052,0.01353
2398.04034,0.01400
2395.98017,0.01456
2393.92000,0.01476
2391.85983,0.01453
2389.79966,0.01427
2387.73948,0.01425
2385.67931,0.01431
2383.61914,0.01442
2381.55897,0.01442
2379.49880,0.01394
2377.43862,0.01321
2375.37845,0.01314
2373.31828,0.01390
2371.25811,0.01493
2369.19793,0.01524
2367.13776,0.01378
2365.07759,0.01168
2363.01742,0.01027
2360.95725,0.00835
2358.89707,0.00869
2356.83690,0.01177
2354.77673,0.01386
2352.71656,0.01366
2350.65639,0.01182
2348.59621,0.01094
2346.53604,0.01285
2344.47587,0.01438
2342.41570,0.01599
2340.35552,0.01741
2338.29535,0.01737
2336.23518,0.01603
2334.17501,0.01409
2332.11484,0.01284
2330.05466,0.01323
2327.99449,0.01466
2325.93432,0.01479
2323.87415,0.01439
2321.81398,0.01443
2319.75380,0.01437
2317.69363,0.01344
2315.63346,0.01315
2313.57329,0.01375
2311.51312,0.01390
2309.45294,0.01330
2307.39277,0.01273
2305.33260,0.01266
2303.27243,0.01285
2301.21225,0.01293
2299.15208,0.01276
2297.09191,0.01281
2295.03174,0.01300
2292.97157,0.01284
2290.91139,0.01247
2288.85122,0.01229
2286.79105,0.01243
2284.73088,0.01278
2282.67071,0.01309
2280.61053,0.01319
2278.55036,0.01283
2276.49019,0.01219
2274.43002,0.01164
2272.36984,0.01133
2270.30967,0.01126
2268.24950,0.01132
2266.18933,0.01117
2264.12916,0.01081
2262.06898,0.01054
2260.00881,0.01035
2257.94864,0.00995
2255.88847,0.00990
2253.82830,0.01056
2251.76812,0.01101
2249.70795,0.01083
2247.64778,0.01066
2245.58761,0.01065
2243.52744,0.01062
2241.46726,0.01037
2239.40709,0.00998
2237.34692,0.00994
2235.28675,0.01025
2233.22657,0.01023
2231.16640,0.00978
2229.10623,0.00964
2227.04606,0.00950
2224.98589,0.00895
2222.92571,0.00878
2220.86554,0.00911
2218.80537,0.00925
2216.74520,0.00897
2214.68503,0.00841
2212.62485,0.00773
2210.56468,0.00721
2208.50451,0.00690
2206.44434,0.00647
2204.38417,0.00604
2202.32399,0.00572
2200.26382,0.00562
2198.20365,0.00637
2196.14348,0.00728
2194.08330,0.00733
2192.02313,0.00680
2189.96296,0.00631
2187.90279,0.00652
2185.84262,0.00719
2183.78244,0.00696
2181.72227,0.00596
2179.66210,0.00537
2177.60193,0.00491
2175.54176,0.00470
2173.48158,0.00484
2171.42141,0.00470
2169.36124,0.00491
2167.30107,0.00558
2165.24089,0.00595
2163.18072,0.00530
2161.12055,0.00295
2159.06038,0.00073
2157.00021,0.00072
2154.94003,0.00244
2152.87986,0.00404
2150.81969,0.00376
2148.75952,0.00298
2146.69935,0.00353
2144.63917,0.00436
2142.57900,0.00440
2140.51883,0.00421
2138.45866,0.00483
2136.39849,0.00577
2134.33831,0.00565
2132.27814,0.00447
2130.21797,0.00348
2128.15780,0.00366
2126.09762,0.00453
2124.03745,0.00524
2121.97728,0.00546
2119.91711,0.00514
2117.85694,0.00488
2115.79676,0.00498
2113.73659,0.00470
2111.67642,0.00423
2109.61625,0.00447
2107.55608,0.00494
2105.49590,0.00507
2103.43573,0.00516
2101.37556,0.00515
2099.31539,0.00480
2097.25521,0.00448
2095.19504,0.00477
2093.13487,0.00553
2091.07470,0.00578
2089.01453,0.00560
2086.95435,0.00602
2084.89418,0.00654
2082.83401,0.00611
2080.77384,0.00561
2078.71367,0.00566
2076.65349,0.00547
2074.59332,0.00499
2072.53315,0.00495
2070.47298,0.00528
2068.41281,0.00515
2066.35263,0.00417
2064.29246,0.00334
2062.23229,0.00376
2060.17212,0.00436
2058.11194,0.00389
2056.05177,0.00299
2053.99160,0.00263
2051.93143,0.00265
2049.87126,0.00237
2047.81108,0.00171
2045.75091,0.00140
2043.69074,0.00234
2041.63057,0.00317
2039.57040,0.00258
2037.51022,0.00244
2035.45005,0.00334
2033.38988,0.00328
2031.32971,0.00217
2029.26954,0.00198
2027.20936,0.00237
2025.14919,0.00172
2023.08902,0.00132
2021.02885,0.00219
2018.96867,0.00247
2016.90850,0.00186
2014.84833,0.00180
2012.78816,0.00206
2010.72799,0.00200
2008.66781,0.00205
2006.60764,0.00227
2004.54747,0.00257
2002.48730,0.00312
2000.42713,0.00375
1998.36695,0.00419
1996.30678,0.00426
1994.24661,0.00358
1992.18644,0.00231
1990.12626,0.00195
1988.06609,0.00278
1986.00592,0.00324
1983.94575,0.00322
1981.88558,0.00351
1979.82540,0.00386
1977.76523,0.00377
1975.70506,0.00320
1973.64489,0.00298
1971.58472,0.00346
1969.52454,0.00314
1967.46437,0.00174
1965.40420,0.00079
1963.34403,0.00069
1961.28386,0.00034
1959.22368,0.00000
1957.16351,0.00103
1955.10334,0.00281
1953.04317,0.00355
1950.98299,0.00312
1948.92282,0.00243
1946.86265,0.00201
1944.80248,0.00181
1942.74231,0.00177
1940.68213,0.00207
1938.62196,0.00256
1936.56179,0.00307
1934.50162,0.00360
1932.44145,0.00399
1930.38127,0.00425
1928.32110,0.00412
1926.26093,0.00329
1924.20076,0.00250
1922.14059,0.00278
1920.08041,0.00366
1918.02024,0.00375
1915.96007,0.00281
1913.89990,0.00168
1911.83972,0.00128
1909.77955,0.00201
1907.71938,0.00319
1905.65921,0.00370
1903.59904,0.00352
1901.53886,0.00335
1899.47869,0.00346
1897.41852,0.00356
1895.35835,0.00333
1893.29818,0.00281
1891.23800,0.00261
1889.17783,0.00299
1887.11766,0.00337
1885.05749,0.00356
1882.99731,0.00374
1880.93714,0.00373
1878.87697,0.00351
1876.81680,0.00348
1874.75663,0.00379
1872.69645,0.00402
1870.63628,0.00398
1868.57611,0.00392
1866.51594,0.00394
1864.45577,0.00402
1862.39559,0.00408
1860.33542,0.00409
1858.27525,0.00390
1856.21508,0.00351
1854.15491,0.00340
1852.09473,0.00380
1850.03456,0.00417
1847.97439,0.00403
1845.91422,0.00348
1843.85404,0.00302
1841.79387,0.00310
1839.73370,0.00368
1837.67353,0.00431
1835.61336,0.00455
1833.55318,0.00436
1831.49301,0.00408
1829.43284,0.00402
1827.37267,0.00410
1825.31250,0.00427
1823.25232,0.00446
1821.19215,0.00444
1819.13198,0.00420
1817.07181,0.00399
1815.01163,0.00383
1812.95146,0.00362
1810.89129,0.00355
1808.83112,0.00383
1806.77095,0.00416
1804.71077,0.00417
1802.65060,0.00403
1800.59043,0.00408
1798.53026,0.00429
1796.47009,0.00430
1794.40991,0.00399
1792.34974,0.00377
1790.28957,0.00401
1788.22940,0.00428
1786.16923,0.00425
1784.10905,0.00414
1782.04888,0.00430
1779.98871,0.00470
1777.92854,0.00491
1775.86836,0.00463
1773.80819,0.00423
1771.74802,0.00429
1769.68785,0.00476
1767.62768,0.00510
1765.56750,0.00528
1763.50733,0.00547
1761.44716,0.00566
1759.38699,0.00575
1757.32682,0.00587
1755.26664,0.00612
1753.20647,0.00632
1751.14630,0.00642
1749.08613,0.00660
1747.02596,0.00685
1744.96578,0.00699
1742.90561,0.00706
1740.84544,0.00731
1738.78527,0.00762
1736.72509,0.00771
1734.66492,0.00783
1732.60475,0.00837
1730.54458,0.00894
1728.48441,0.00924
1726.42423,0.00938
1724.36406,0.00949
1722.30389,0.00958
1720.24372,0.00956
1718.18355,0.00960
1716.12337,0.01009
1714.06320,0.01085
1712.00303,0.01135
1709.94286,0.01152
1707.88268,0.01164
1705.82251,0.01182
1703.76234,0.01195
1701.70217,0.01204
1699.64200,0.01224
1697.58182,0.01261
1695.52165,0.01333
1693.46148,0.01415
1691.40131,0.01451
1689.34114,0.01441
1687.28096,0.01407
1685.22079,0.01400
1683.16062,0.01469
1681.10045,0.01555
1679.04028,0.01596
1676.98010,0.01609
1674.91993,0.01632
1672.85976,0.01661
1670.79959,0.01693
1668.73941,0.01754
1666.67924,0.01815
1664.61907,0.01846
1662.55890,0.01868
1660.49873,0.01893
1658.43855,0.01901
1656.37838,0.01882
1654.31821,0.01855
1652.25804,0.01861
1650.19787,0.01875
1648.13769,0.01875
1646.07752,0.01909
1644.01735,0.01960
1641.95718,0.01961
1639.89701,0.01914
1637.83683,0.01874
1635.77666,0.01886
1633.71649,0.01923
1631.65632,0.01922
1629.59614,0.01895
1627.53597,0.01879
1625.47580,0.01878
1623.41563,0.01869
1621.35546,0.01833
1619.29528,0.01779
1617.23511,0.01755
1615.17494,0.01777
1613.11477,0.01783
1611.05460,0.01755
1608.99442,0.01731
1606.93425,0.01720
1604.87408,0.01695
1602.81391,0.01641
1600.75373,0.01580
1598.69356,0.01523
1596.63339,0.01470
1594.57322,0.01425
1592.51305,0.01387
1590.45287,0.01342
1588.39270,0.01284
1586.33253,0.01222
1584.27236,0.01166
1582.21219,0.01123
1580.15201,0.01079
1578.09184,0.01019
1576.03167,0.00961
1573.97150,0.00918
1571.91133,0.00866
1569.85115,0.00815
1567.79098,0.00795
1565.73081,0.00791
1563.67064,0.00775
1561.61046,0.00729
1559.55029,0.00663
1557.49012,0.00629
1555.42995,0.00626
1553.36978,0.00619
1551.30960,0.00597
1549.24943,0.00565
1547.18926,0.00530
1545.12909,0.00496
1543.06892,0.00467
1541.00874,0.00456
1538.94857,0.00465
1536.88840,0.00461
1534.82823,0.00441
1532.76805,0.00424
1530.70788,0.00408
1528.64771,0.00387
1526.58754,0.00358
1524.52737,0.00310
1522.46719,0.00265
1520.40702,0.00270
1518.34685,0.00301
1516.28668,0.00315
1514.22651,0.00315
1512.16633,0.00298
1510.10616,0.00247
1508.04599,0.00203
1505.98582,0.00246
1503.92565,0.00297
1501.86547,0.00295
1499.80530,0.00273
1497.74513,0.00248
1495.68496,0.00220
1493.62478,0.00199
1491.56461,0.00183
1489.50444,0.00183
1487.44427,0.00206
1485.38410,0.00228
1483.32392,0.00245
1481.26375,0.00273
1479.20358,0.00293
1477.14341,0.00284
1475.08324,0.00279
1473.02306,0.00311
1470.96289,0.00345
1468.90272,0.00351
1466.84255,0.00353
1464.78238,0.00368
1462.72220,0.00381
1460.66203,0.00374
1458.60186,0.00374
1456.54169,0.00425
1454.48151,0.00481
1452.42134,0.00495
1450.36117,0.00481
1448.30100,0.00467
1446.24083,0.00467
1444.18065,0.00463
1442.12048,0.00439
1440.06031,0.00404
1438.00014,0.00373
1435.93997,0.00349
1433.87979,0.00334
1431.81962,0.00332
1429.75945,0.00345
1427.69928,0.00356
1425.63910,0.00354
1423.57893,0.00357
1421.51876,0.00374
1419.45859,0.00395
1417.39842,0.00414
1415.33824,0.00422
1413.27807,0.00415
1411.21790,0.00401
1409.15773,0.00384
1407.09756,0.00371
1405.03738,0.00371
1402.97721,0.00378
1400.91704,0.00381
1398.85687,0.00384
1396.79670,0.00382
1394.73652,0.00379
1392.67635,0.00383
1390.61618,0.00388
1388.55601,0.00392
1386.49583,0.00403
1384.43566,0.00420
1382.37549,0.00441
1380.31532,0.00464
1378.25515,0.00475
1376.19497,0.00476
1374.13480,0.00489
1372.07463,0.00511
1370.01446,0.00524
1367.95429,0.00526
1365.89411,0.00511
1363.83394,0.00483
1361.77377,0.00462
1359.71360,0.00450
1357.65343,0.00438
1355.59325,0.00425
1353.53308,0.00419
1351.47291,0.00431
1349.41274,0.00456
1347.35256,0.00466
1345.29239,0.00457
1343.23222,0.00443
1341.17205,0.00433
1339.11188,0.00435
1337.05170,0.00444
1334.99153,0.00448
1332.93136,0.00453
1330.87119,0.00458
1328.81102,0.00442
1326.75084,0.00413
1324.69067,0.00398
1322.63050,0.00390
1320.57033,0.00381
1318.51015,0.00381
1316.44998,0.00382
1314.38981,0.00368
1312.32964,0.00353
1310.26947,0.00357
1308.20929,0.00373
1306.14912,0.00378
1304.08895,0.00369
1302.02878,0.00369
1299.96861,0.00383
1297.90843,0.00384
1295.84826,0.00363
1293.78809,0.00350
1291.72792,0.00364
1289.66775,0.00398
1287.60757,0.00426
1285.54740,0.00423
1283.48723,0.00399
1281.42706,0.00382
1279.36688,0.00378
1277.30671,0.00375
1275.24654,0.00372
1273.18637,0.00382
1271.12620,0.00411
1269.06602,0.00444
1267.00585,0.00462
1264.94568,0.00455
1262.88551,0.00431
1260.82534,0.00421
1258.76516,0.00435
1256.70499,0.00446
1254.64482,0.00433
1252.58465,0.00401
1250.52447,0.00370
1248.46430,0.00352
1246.40413,0.00344
1244.34396,0.00349
1242.28379,0.00353
1240.22361,0.00345
1238.16344,0.00338
1236.10327,0.00337
1234.04310,0.00334
1231.98293,0.00332
1229.92275,0.00341
1227.86258,0.00347
1225.80241,0.00336
1223.74224,0.00324
1221.68207,0.00308
1219.62189,0.00285
1217.56172,0.00270
1215.50155,0.00256
1213.44138,0.00236
1211.38120,0.00219
1209.32103,0.00204
1207.26086,0.00197
1205.20069,0.00207
1203.14052,0.00225
1201.08034,0.00240
1199.02017,0.00263
1196.96000,0.00287
1194.89983,0.00308
1192.83966,0.00329
1190.77948,0.00352
1188.71931,0.00401
1186.65914,0.00477
1184.59897,0.00541
1182.53880,0.00595
1180.47862,0.00664
1178.41845,0.00750
1176.35828,0.00851
1174.29811,0.00965
1172.23793,0.01072
1170.17776,0.01161
1168.11759,0.01253
1166.05742,0.01345
1163.99725,0.01431
1161.93707,0.01522
1159.87690,0.01610
1157.81673,0.01695
1155.75656,0.01788
1153.69639,0.01882
1151.63621,0.01980
1149.57604,0.02084
1147.51587,0.02183
1145.45570,0.02280
1143.39552,0.02394
1141.33535,0.02520
1139.27518,0.02646
1137.21501,0.02771
1135.15484,0.02890
1133.09466,0.03014
1131.03449,0.03143
1128.97432,0.03256
1126.91415,0.03365
1124.85398,0.03495
1122.79380,0.03630
1120.73363,0.03756
1118.67346,0.03877
1116.61329,0.04004
1114.55312,0.04140
1112.49294,0.04280
1110.43277,0.04414
1108.37260,0.04536
1106.31243,0.04662
1104.25225,0.04818
1102.19208,0.04996
1100.13191,0.05154
1098.07174,0.05284
1096.01157,0.05414
1093.95139,0.05542
1091.89122,0.05649
1089.83105,0.05753
1087.77088,0.05888
1085.71071,0.06018
1083.65053,0.06098
1081.59036,0.06166
1079.53019,0.06275
1077.47002,0.06415
1075.40985,0.06532
1073.34967,0.06613
1071.28950,0.06677
1069.22933,0.06702
1067.16916,0.06698
1065.10898,0.06713
1063.04881,0.06729
1060.98864,0.06717
1058.92847,0.06695
1056.86830,0.06669
1054.80812,0.06626
1052.74795,0.06569
1050.68778,0.06505
1048.62761,0.06437
1046.56744,0.06354
1044.50726,0.06243
1042.44709,0.06107
1040.38692,0.05968
1038.32675,0.05850
1036.26657,0.05725
1034.20640,0.05579
1032.14623,0.05462
1030.08606,0.05380
1028.02589,0.05273
1025.96571,0.05140
1023.90554,0.05013
1021.84537,0.04893
1019.78520,0.04772
1017.72503,0.04654
1015.66485,0.04551
1013.60468,0.04471
1011.54451,0.04408
1009.48434,0.04357
1007.42417,0.04329
1005.36399,0.04322
1003.30382,0.04320
1001.24365,0.04336
999.18348,0.04371
997.12330,0.04416
995.06313,0.04480
993.00296,0.04560
990.94279,0.04641
988.88262,0.04705
986.82244,0.04740
984.76227,0.04761
982.70210,0.04794
980.64193,0.04808
978.58176,0.04753
976.52158,0.04658
974.46141,0.04534
972.40124,0.04364
970.34107,0.04202
968.28089,0.04067
966.22072,0.03905
964.16055,0.03718
962.10038,0.03551
960.04021,0.03419
957.98003,0.03299
955.91986,0.03176
953.85969,0.03052
951.79952,0.02951
949.73935,0.02895
947.67917,0.02861
945.61900,0.02822
943.55883,0.02800
941.49866,0.02802
939.43849,0.02802
937.37831,0.02799
935.31814,0.02790
933.25797,0.02767
931.19780,0.02763
929.13762,0.02771
927.07745,0.02752
925.01728,0.02719
922.95711,0.02668
920.89694,0.02582
918.83676,0.02487
916.77659,0.02413
914.71642,0.02345
912.65625,0.02269
910.59608,0.02203
908.53590,0.02155
906.47573,0.02115
904.41556,0.02084
902.35539,0.02070
900.29522,0.02057
898.23504,0.02036
896.17487,0.02023
894.11470,0.02028
892.05453,0.02047
889.99435,0.02072
887.93418,0.02102
885.87401,0.02143
883.81384,0.02193
881.75367,0.02246
879.69349,0.02322
877.63332,0.02426
875.57315,0.02493
873.51298,0.02495
871.45281,0.02488
869.39263,0.02492
867.33246,0.02498
865.27229,0.02500
863.21212,0.02488
861.15194,0.02464
859.09177,0.02431
857.03160,0.02373
854.97143,0.02316
852.91126,0.02299
850.85108,0.02300
848.79091,0.02277
846.73074,0.02209
844.67057,0.02104
842.61040,0.01999
840.55022,0.01924
838.49005,0.01882
836.42988,0.01844
834.36971,0.01770
832.30954,0.01656
830.24936,0.01557
828.18919,0.01515
826.12902,0.01464
824.06885,0.01369
822.00867,0.01290
819.94850,0.01250
817.88833,0.01231
815.82816,0.01223
813.76799,0.01219
811.70781,0.01199
809.64764,0.01150
807.58747,0.01105
805.52730,0.01103
803.46713,0.01121
801.40695,0.01107
799.34678,0.01051
797.28661,0.00986
795.22644,0.00937
793.16627,0.00922
791.10609,0.00932
789.04592,0.00934
786.98575,0.00924
784.92558,0.00879
782.86540,0.00821
780.80523,0.00818
778.74506,0.00822
776.68489,0.00768
774.62472,0.00707
772.56454,0.00711
770.50437,0.00759
768.44420,0.00779
766.38403,0.00760
764.32386,0.00743
762.26368,0.00734
760.20351,0.00714
758.14334,0.00684
756.08317,0.00673
754.02299,0.00685
751.96282,0.00674
749.90265,0.00645
747.84248,0.00640
745.78231,0.00627
743.72213,0.00595
741.66196,0.00582
739.60179,0.00542
737.54162,0.00456
735.48145,0.00398
733.42127,0.00406
731.36110,0.00422
729.30093,0.00392
727.24076,0.00403
725.18059,0.00493
723.12041,0.00509
721.06024,0.00473
719.00007,0.00442
716.93990,0.00464
714.87972,0.00507
712.81955,0.00526
710.75938,0.00515
708.69921,0.00505
706.63904,0.00510
704.57886,0.00487
702.51869,0.00436
700.45852,0.00415
698.39835,0.00421
696.33818,0.00419
694.27800,0.00414
692.21783,0.00434
690.15766,0.00467
688.09749,0.00486
686.03731,0.00503
683.97714,0.00475
681.91697,0.00381
679.85680,0.00344
677.79663,0.00418
675.73645,0.00496
673.67628,0.00468
671.61611,0.00382
669.55594,0.00602
667.49577,0.00838
665.43559,0.00541
663.37542,0.00524
661.31525,0.00609
659.25508,0.00657
657.19491,0.00613
655.13473,0.00525
653.07456,0.00492
651.01439,0.00449
648.95422,0.00354
646.89404,0.00285
644.83387,0.00283
642.77370,0.00310
640.71353,0.00380
638.65336,0.00499
636.59318,0.00565
634.53301,0.00487
632.47284,0.00401
630.41267,0.00392
628.35250,0.00323
626.29232,0.00218
624.23215,0.00333
622.17198,0.00533
620.11181,0.00618
618.05164,0.00677
615.99146,0.00818
613.93129,0.00902
611.87112,0.00867
609.81095,0.00733
607.75077,0.00503
605.69060,0.00210
603.63043,0.00000
601.57026,-0.00098
599.51009,0.00000
