3996.73391,0.00092
3994.67373,0.00072
3992.61356,0.00060
3990.55339,0.00069
3988.49322,0.00075
3986.43305,0.00061
3984.37287,0.00050
3982.31270,0.00062
3980.25253,0.00089
3978.19236,0.00104
3976.13219,0.00099
3974.07201,0.00100
3972.01184,0.00115
3969.95167,0.00106
3967.89150,0.00055
3965.83133,0.00004
3963.77115,0.00000
3961.71098,0.00042
3959.65081,0.00098
3957.59064,0.00127
3955.53046,0.00110
3953.47029,0.00068
3951.41012,0.00041
3949.34995,0.00051
3947.28978,0.00073
3945.22960,0.00072
3943.16943,0.00059
3941.10926,0.00057
3939.04909,0.00065
3936.98892,0.00067
3934.92874,0.00056
3932.86857,0.00031
3930.80840,0.00019
3928.74823,0.00049
3926.68805,0.00088
3924.62788,0.00096
3922.56771,0.00073
3920.50754,0.00055
3918.44737,0.00058
3916.38719,0.00063
3914.32702,0.00063
3912.26685,0.00081
3910.20668,0.00100
3908.14651,0.00102
3906.08633,0.00093
3904.02616,0.00072
3901.96599,0.00050
3899.90582,0.00040
3897.84565,0.00049
3895.78547,0.00091
3893.72530,0.00145
3891.66513,0.00165
3889.60496,0.00160
3887.54478,0.00157
3885.48461,0.00125
3883.42444,0.00058
3881.36427,0.00000
3879.30410,0.00008
3877.24392,0.00105
3875.18375,0.00198
3873.12358,0.00208
3871.06341,0.00168
3869.00324,0.00126
3866.94306,0.00103
3864.88289,0.00096
3862.82272,0.00096
3860.76255,0.00103
3858.70237,0.00129
3856.64220,0.00174
3854.58203,0.00188
3852.52186,0.00128
3850.46169,0.00082
3848.40151,0.00103
3846.34134,0.00146
3844.28117,0.00165
3842.22100,0.00153
3840.16083,0.00123
3838.10065,0.00083
3836.04048,0.00053
3833.98031,0.00056
3831.92014,0.00081
3829.85997,0.00105
3827.79979,0.00108
3825.73962,0.00104
3823.67945,0.00120
3821.61928,0.00147
3819.55910,0.00173
3817.49893,0.00181
3815.43876,0.00149
3813.37859,0.00123
3811.31842,0.00134
3809.25824,0.00151
3807.19807,0.00156
3805.13790,0.00138
3803.07773,0.00076
3801.01756,0.00003
3798.95738,0.00000
3796.89721,0.00032
3794.83704,0.00035
3792.77687,0.00046
3790.71670,0.00092
3788.65652,0.00125
3786.59635,0.00125
3784.53618,0.00128
3782.47601,0.00148
3780.41583,0.00157
3778.35566,0.00145
3776.29549,0.00143
3774.23532,0.00170
3772.17515,0.00200
3770.11497,0.00185
3768.05480,0.00124
3765.99463,0.00075
3763.93446,0.00080
3761.87429,0.00107
3759.81411,0.00090
3757.75394,0.00044
3755.69377,0.00035
3753.63360,0.00050
3751.57342,0.00049
3749.51325,0.00042
3747.45308,0.00039
3745.39291,0.00018
3743.33274,0.00000
3741.27256,0.00056
3739.21239,0.00148
3737.15222,0.00177
3735.09205,0.00118
3733.03188,0.00063
3730.97170,0.00063
3728.91153,0.00088
3726.85136,0.00108
3724.79119,0.00117
3722.73102,0.00111
3720.67084,0.00089
3718.61067,0.00081
3716.55050,0.00101
3714.49033,0.00132
3712.43015,0.00138
3710.36998,0.00101
3708.30981,0.00069
3706.24964,0.00097
3704.18947,0.00158
3702.12929,0.00175
3700.06912,0.00146
3698.00895,0.00134
3695.94878,0.00148
3693.88861,0.00170
3691.82843,0.00189
3689.76826,0.00182
3687.70809,0.00147
3685.64792,0.00117
3683.58775,0.00108
3681.52757,0.00124
3679.46740,0.00172
3677.40723,0.00226
3675.34706,0.00243
3673.28688,0.00252
3671.22671,0.00272
3669.16654,0.00233
3667.10637,0.00163
3665.04620,0.00147
3662.98602,0.00170
3660.92585,0.00200
3658.86568,0.00239
3656.80551,0.00279
3654.74534,0.00291
3652.68516,0.00274
3650.62499,0.00240
3648.56482,0.00208
3646.50465,0.00226
3644.44447,0.00299
3642.38430,0.00361
3640.32413,0.00373
3638.26396,0.00381
3636.20379,0.00420
3634.14361,0.00446
3632.08344,0.00436
3630.02327,0.00423
3627.96310,0.00451
3625.90293,0.00532
3623.84275,0.00610
3621.78258,0.00643
3619.72241,0.00641
3617.66224,0.00638
3615.60207,0.00637
3613.54189,0.00612
3611.48172,0.00578
3609.42155,0.00579
3607.36138,0.00629
3605.30120,0.00698
3603.24103,0.00743
3601.18086,0.00763
3599.12069,0.00793
3597.06052,0.00834
3595.00034,0.00838
3592.94017,0.00811
3590.88000,0.00806
3588.81983,0.00818
3586.75966,0.00828
3584.69948,0.00860
3582.63931,0.00915
3580.57914,0.00973
3578.51897,0.01027
3576.45879,0.01067
3574.39862,0.01086
3572.33845,0.01097
3570.27828,0.01126
3568.21811,0.01167
3566.15793,0.01184
3564.09776,0.01179
3562.03759,0.01184
3559.97742,0.01210
3557.91725,0.01250
3555.85707,0.01280
3553.79690,0.01286
3551.73673,0.01292
3549.67656,0.01308
3547.61639,0.01321
3545.55621,0.01342
3543.49604,0.01389
3541.43587,0.01427
3539.37570,0.01439
3537.31552,0.01468
3535.25535,0.01535
3533.19518,0.01591
3531.13501,0.01606
3529.07484,0.01609
3527.01466,0.01618
3524.95449,0.01627
3522.89432,0.01627
3520.83415,0.01624
3518.77398,0.01631
3516.71380,0.01649
3514.65363,0.01670
3512.59346,0.01679
3510.53329,0.01663
3508.47312,0.01656
3506.41294,0.01686
3504.35277,0.01731
3502.29260,0.01782
3500.23243,0.01826
3498.17225,0.01845
3496.11208,0.01873
3494.05191,0.01916
3491.99174,0.01934
3489.93157,0.01935
3487.87139,0.01953
3485.81122,0.01971
3483.75105,0.01978
3481.69088,0.02007
3479.63071,0.02074
3477.57053,0.02133
3475.51036,0.02138
3473.45019,0.02118
3471.39002,0.02109
3469.32984,0.02105
3467.26967,0.02111
3465.20950,0.02138
3463.14933,0.02163
3461.08916,0.02172
3459.02898,0.02214
3456.96881,0.02287
3454.90864,0.02302
3452.84847,0.02270
3450.78830,0.02264
3448.72812,0.02279
3446.66795,0.02288
3444.60778,0.02300
3442.54761,0.02314
3440.48744,0.02318
3438.42726,0.02342
3436.36709,0.02402
3434.30692,0.02441
3432.24675,0.02440
3430.18657,0.02439
3428.12640,0.02447
3426.06623,0.02459
3424.00606,0.02476
3421.94589,0.02508
3419.88571,0.02557
3417.82554,0.02590
3415.76537,0.02584
3413.70520,0.02552
3411.64503,0.02527
3409.58485,0.02539
3407.52468,0.02565
3405.46451,0.02576
3403.40434,0.02597
3401.34416,0.02631
3399.28399,0.02655
3397.22382,0.02676
3395.16365,0.02709
3393.10348,0.02741
3391.04330,0.02756
3388.98313,0.02776
3386.92296,0.02801
3384.86279,0.02792
3382.80262,0.02744
3380.74244,0.02705
3378.68227,0.02705
3376.62210,0.02738
3374.56193,0.02780
3372.50176,0.02805
3370.44158,0.02811
3368.38141,0.02818
3366.32124,0.02830
3364.26107,0.02844
3362.20089,0.02876
3360.14072,0.02894
3358.08055,0.02866
3356.02038,0.02825
3353.96021,0.02810
3351.90003,0.02822
3349.83986,0.02849
3347.77969,0.02881
3345.71952,0.02896
3343.65935,0.02890
3341.59917,0.02884
3339.53900,0.02899
3337.47883,0.02952
3335.41866,0.03000
3333.35849,0.02994
3331.29831,0.02956
3329.23814,0.02938
3327.17797,0.02955
3325.11780,0.02977
3323.05762,0.02979
3320.99745,0.02974
3318.93728,0.02974
3316.87711,0.02987
3314.81694,0.03009
3312.75676,0.03018
3310.69659,0.03024
3308.63642,0.03044
3306.57625,0.03068
3304.51608,0.03064
3302.45590,0.03029
3300.39573,0.03013
3298.33556,0.03030
3296.27539,0.03044
3294.21521,0.03043
3292.15504,0.03044
3290.09487,0.03060
3288.03470,0.03075
3285.97453,0.03061
3283.91435,0.03043
3281.85418,0.03061
3279.79401,0.03090
3277.73384,0.03105
3275.67367,0.03114
3273.61349,0.03101
3271.55332,0.03076
3269.49315,0.03083
3267.43298,0.03114
3265.37281,0.03139
3263.31263,0.03158
3261.25246,0.03166
3259.19229,0.03156
3257.13212,0.03132
3255.07194,0.03117
3253.01177,0.03129
3250.95160,0.03163
3248.89143,0.03171
3246.83126,0.03126
3244.77108,0.03089
3242.71091,0.03092
3240.65074,0.03083
3238.59057,0.03051
3236.53040,0.03052
3234.47022,0.03093
3232.41005,0.03130
3230.34988,0.03151
3228.28971,0.03173
3226.22954,0.03187
3224.16936,0.03188
3222.10919,0.03193
3220.04902,0.03200
3217.98885,0.03186
3215.92867,0.03158
3213.86850,0.03143
3211.80833,0.03145
3209.74816,0.03135
3207.68799,0.03111
3205.62781,0.03103
3203.56764,0.03118
3201.50747,0.03129
3199.44730,0.03114
3197.38713,0.03100
3195.32695,0.03109
3193.26678,0.03112
3191.20661,0.03100
3189.14644,0.03101
3187.08626,0.03114
3185.02609,0.03113
3182.96592,0.03113
3180.90575,0.03131
3178.84558,0.03129
3176.78540,0.03102
3174.72523,0.03091
3172.66506,0.03085
3170.60489,0.03068
3168.54472,0.03054
3166.48454,0.03038
3164.42437,0.03024
3162.36420,0.03027
3160.30403,0.03040
3158.24386,0.03052
3156.18368,0.03065
3154.12351,0.03073
3152.06334,0.03065
3150.00317,0.03044
3147.94299,0.03029
3145.88282,0.03030
3143.82265,0.03023
3141.76248,0.03013
3139.70231,0.03017
3137.64213,0.03007
3135.58196,0.02973
3133.52179,0.02947
3131.46162,0.02939
3129.40145,0.02928
3127.34127,0.02912
3125.28110,0.02911
3123.22093,0.02928
3121.16076,0.02937
3119.10058,0.02909
3117.04041,0.02857
3114.98024,0.02838
3112.92007,0.02857
3110.85990,0.02863
3108.79972,0.02843
3106.73955,0.02824
3104.67938,0.02803
3102.61921,0.02789
3100.55904,0.02797
3098.49886,0.02799
3096.43869,0.02777
3094.37852,0.02749
3092.31835,0.02727
3090.25818,0.02712
3088.19800,0.02714
3086.13783,0.02721
3084.07766,0.02713
3082.01749,0.02697
3079.95731,0.02680
3077.89714,0.02674
3075.83697,0.02681
3073.77680,0.02676
3071.71663,0.02651
3069.65645,0.02636
3067.59628,0.02642
3065.53611,0.02643
3063.47594,0.02624
3061.41577,0.02592
3059.35559,0.02558
3057.29542,0.02535
3055.23525,0.02531
3053.17508,0.02529
3051.11491,0.02514
3049.05473,0.02491
3046.99456,0.02486
3044.93439,0.02491
3042.87422,0.02478
3040.81404,0.02464
3038.75387,0.02466
3036.69370,0.02456
3034.63353,0.02425
3032.57336,0.02398
3030.51318,0.02379
3028.45301,0.02370
3026.39284,0.02372
3024.33267,0.02365
3022.27250,0.02351
3020.21232,0.02325
3018.15215,0.02277
3016.09198,0.02240
3014.03181,0.02245
3011.97163,0.02271
3009.91146,0.02284
3007.85129,0.02270
3005.79112,0.02246
3003.73095,0.02230
3001.67077,0.02216
2999.61060,0.02195
2997.55043,0.02178
2995.49026,0.02169
2993.43009,0.02158
2991.36991,0.02157
2989.30974,0.02169
2987.24957,0.02160
2985.18940,0.02124
2983.12923,0.02103
2981.06905,0.02097
2979.00888,0.02083
2976.94871,0.02057
2974.88854,0.02039
2972.82836,0.02055
2970.76819,0.02083
2968.70802,0.02078
2966.64785,0.02048
2964.58768,0.02050
2962.52750,0.02083
2960.46733,0.02089
2958.40716,0.02065
2956.34699,0.02052
2954.28682,0.02048
2952.22664,0.02049
2950.16647,0.02068
2948.10630,0.02082
2946.04613,0.02076
2943.98596,0.02066
2941.92578,0.02061
2939.86561,0.02061
2937.80544,0.02065
2935.74527,0.02071
2933.68509,0.02073
2931.62492,0.02067
2929.56475,0.02047
2927.50458,0.02028
2925.44441,0.02039
2923.38423,0.02066
2921.32406,0.02067
2919.26389,0.02042
2917.20372,0.02018
2915.14355,0.02002
2913.08337,0.01988
2911.02320,0.01973
2908.96303,0.01957
2906.90286,0.01944
2904.84268,0.01940
2902.78251,0.01939
2900.72234,0.01931
2898.66217,0.01909
2896.60200,0.01894
2894.54182,0.01902
2892.48165,0.01901
2890.42148,0.01891
2888.36131,0.01897
2886.30114,0.01903
2884.24096,0.01904
2882.18079,0.01912
2880.12062,0.01912
2878.06045,0.01901
2876.00028,0.01898
2873.94010,0.01905
2871.87993,0.01900
2869.81976,0.01864
2867.75959,0.01830
2865.69941,0.01826
2863.63924,0.01825
2861.57907,0.01810
2859.51890,0.01808
2857.45873,0.01820
2855.39855,0.01811
2853.33838,0.01792
2851.27821,0.01798
2849.21804,0.01810
2847.15787,0.01794
2845.09769,0.01760
2843.03752,0.01740
2840.97735,0.01737
2838.91718,0.01736
2836.85700,0.01725
2834.79683,0.01703
2832.73666,0.01684
2830.67649,0.01672
2828.61632,0.01659
2826.55614,0.01655
2824.49597,0.01665
2822.43580,0.01669
2820.37563,0.01665
2818.31546,0.01656
2816.25528,0.01635
2814.19511,0.01609
2812.13494,0.01597
2810.07477,0.01606
2808.01460,0.01617
2805.95442,0.01630
2803.89425,0.01632
2801.83408,0.01613
2799.77391,0.01589
2797.71373,0.01565
2795.65356,0.01550
2793.59339,0.01551
2791.53322,0.01550
2789.47305,0.01546
2787.41287,0.01545
2785.35270,0.01539
2783.29253,0.01533
2781.23236,0.01536
2779.17219,0.01537
2777.11201,0.01534
2775.05184,0.01524
2772.99167,0.01498
2770.93150,0.01477
2768.87133,0.01485
2766.81115,0.01497
2764.75098,0.01499
2762.69081,0.01486
2760.63064,0.01461
2758.57046,0.01456
2756.51029,0.01474
2754.45012,0.01480
2752.38995,0.01470
2750.32978,0.01461
2748.26960,0.01455
2746.20943,0.01446
2744.14926,0.01434
2742.08909,0.01435
2740.02892,0.01432
2737.96874,0.01422
2735.90857,0.01416
2733.84840,0.01409
2731.78823,0.01396
2729.72805,0.01372
2727.66788,0.01348
2725.60771,0.01344
2723.54754,0.01338
2721.48737,0.01317
2719.42719,0.01316
2717.36702,0.01336
2715.30685,0.01341
2713.24668,0.01323
2711.18651,0.01300
2709.12633,0.01293
2707.06616,0.01287
2705.00599,0.01266
2702.94582,0.01254
2700.88565,0.01251
2698.82547,0.01229
2696.76530,0.01212
2694.70513,0.01224
2692.64496,0.01240
2690.58478,0.01234
2688.52461,0.01218
2686.46444,0.01210
2684.40427,0.01202
2682.34410,0.01188
2680.28392,0.01185
2678.22375,0.01204
2676.16358,0.01213
2674.10341,0.01187
2672.04324,0.01141
2669.98306,0.01122
2667.92289,0.01131
2665.86272,0.01141
2663.80255,0.01141
2661.74238,0.01122
2659.68220,0.01102
2657.62203,0.01093
2655.56186,0.01092
2653.50169,0.01102
2651.44151,0.01108
2649.38134,0.01097
2647.32117,0.01073
2645.26100,0.01053
2643.20083,0.01046
2641.14065,0.01045
2639.08048,0.01033
2637.02031,0.00999
2634.96014,0.00973
2632.89997,0.00985
2630.83979,0.01007
2628.77962,0.01014
2626.71945,0.01019
2624.65928,0.01022
2622.59910,0.01010
2620.53893,0.00991
2618.47876,0.00971
2616.41859,0.00947
2614.35842,0.00949
2612.29824,0.00963
2610.23807,0.00939
2608.17790,0.00905
2606.11773,0.00907
2604.05756,0.00913
2601.99738,0.00901
2599.93721,0.00899
2597.87704,0.00905
2595.81687,0.00890
2593.75670,0.00860
2591.69652,0.00849
2589.63635,0.00878
2587.57618,0.00913
2585.51601,0.00906
2583.45583,0.00885
2581.39566,0.00881
2579.33549,0.00871
2577.27532,0.00857
2575.21515,0.00854
2573.15497,0.00850
2571.09480,0.00852
2569.03463,0.00858
2566.97446,0.00859
2564.91429,0.00866
2562.85411,0.00866
2560.79394,0.00851
2558.73377,0.00846
2556.67360,0.00822
2554.61342,0.00778
2552.55325,0.00777
2550.49308,0.00807
2548.43291,0.00824
2546.37274,0.00831
2544.31256,0.00826
2542.25239,0.00798
2540.19222,0.00777
2538.13205,0.00797
2536.07188,0.00824
2534.01170,0.00820
2531.95153,0.00800
2529.89136,0.00778
2527.83119,0.00757
2525.77102,0.00765
2523.71084,0.00800
2521.65067,0.00813
2519.59050,0.00803
2517.53033,0.00802
2515.47015,0.00812
2513.40998,0.00809
2511.34981,0.00797
2509.28964,0.00796
2507.22947,0.00819
2505.16929,0.00869
2503.10912,0.00902
2501.04895,0.00879
2498.98878,0.00842
2496.92861,0.00837
2494.86843,0.00848
2492.80826,0.00845
2490.74809,0.00824
2488.68792,0.00806
2486.62775,0.00839
2484.56757,0.00892
2482.50740,0.00897
2480.44723,0.00887
2478.38706,0.00890
2476.32688,0.00879
2474.26671,0.00859
2472.20654,0.00855
2470.14637,0.00858
2468.08620,0.00867
2466.02602,0.00889
2463.96585,0.00896
2461.90568,0.00870
2459.84551,0.00857
2457.78534,0.00886
2455.72516,0.00919
2453.66499,0.00934
2451.60482,0.00945
2449.54465,0.00946
2447.48447,0.00926
2445.42430,0.00921
2443.36413,0.00924
2441.30396,0.00907
2439.24379,0.00897
2437.18361,0.00885
2435.12344,0.00843
2433.06327,0.00816
2431.00310,0.00839
2428.94293,0.00875
2426.88275,0.00873
2424.82258,0.00852
2422.76241,0.00865
2420.70224,0.00901
2418.64207,0.00911
2416.58189,0.00900
2414.52172,0.00900
2412.46155,0.00910
2410.40138,0.00912
2408.34120,0.00900
2406.28103,0.00881
2404.22086,0.00874
2402.16069,0.00872
2400.10052,0.00872
2398.04034,0.00895
2395.98017,0.00928
2393.92000,0.00914
2391.85983,0.00862
2389.79966,0.00841
2387.73948,0.00857
2385.67931,0.00870
2383.61914,0.00868
2381.55897,0.00854
2379.49880,0.00838
2377.43862,0.00847
2375.37845,0.00895
2373.31828,0.00961
2371.25811,0.01021
2369.19793,0.01036
2367.13776,0.00965
2365.07759,0.00861
2363.01742,0.00831
2360.95725,0.00886
2358.89707,0.00954
2356.83690,0.00990
2354.77673,0.00936
2352.71656,0.00829
2350.65639,0.00810
2348.59621,0.00869
2346.53604,0.00872
2344.47587,0.00767
2342.41570,0.00664
2340.35552,0.00675
2338.29535,0.00790
2336.23518,0.00884
2334.17501,0.00870
2332.11484,0.00821
2330.05466,0.00808
2327.99449,0.00811
2325.93432,0.00807
2323.87415,0.00799
2321.81398,0.00803
2319.75380,0.00835
2317.69363,0.00884
2315.63346,0.00921
2313.57329,0.00924
2311.51312,0.00896
2309.45294,0.00874
2307.39277,0.00877
2305.33260,0.00873
2303.27243,0.00843
2301.21225,0.00821
2299.15208,0.00837
2297.09191,0.00853
2295.03174,0.00830
2292.97157,0.00803
2290.91139,0.00806
2288.85122,0.00820
2286.79105,0.00839
2284.73088,0.00861
2282.67071,0.00870
2280.61053,0.00872
2278.55036,0.00887
2276.49019,0.00908
2274.43002,0.00896
2272.36984,0.00826
2270.30967,0.00731
2268.24950,0.00659
2266.18933,0.00623
2264.12916,0.00626
2262.06898,0.00669
2260.00881,0.00731
2257.94864,0.00773
2255.88847,0.00755
2253.82830,0.00692
2251.76812,0.00630
2249.70795,0.00599
2247.64778,0.00613
2245.58761,0.00640
2243.52744,0.00652
2241.46726,0.00660
2239.40709,0.00683
2237.34692,0.00699
2235.28675,0.00703
2233.22657,0.00717
2231.16640,0.00696
2229.10623,0.00594
2227.04606,0.00524
2224.98589,0.00567
2222.92571,0.00607
2220.86554,0.00592
2218.80537,0.00570
2216.74520,0.00570
2214.68503,0.00614
2212.62485,0.00666
2210.56468,0.00663
2208.50451,0.00595
2206.44434,0.00544
2204.38417,0.00557
2202.32399,0.00521
2200.26382,0.00438
2198.20365,0.00452
2196.14348,0.00480
2194.08330,0.00440
2192.02313,0.00452
2189.96296,0.00534
2187.90279,0.00613
2185.84262,0.00607
2183.78244,0.00497
2181.72227,0.00436
2179.66210,0.00466
2177.60193,0.00444
2175.54176,0.00419
2173.48158,0.00493
2171.42141,0.00579
2169.36124,0.00630
2167.30107,0.00683
2165.24089,0.00739
2163.18072,0.00701
2161.12055,0.00469
2159.06038,0.00173
2157.00021,0.00082
2154.94003,0.00162
2152.87986,0.00214
2150.81969,0.00229
2148.75952,0.00264
2146.69935,0.00322
2144.63917,0.00378
2142.57900,0.00350
2140.51883,0.00247
2138.45866,0.00203
2136.39849,0.00217
2134.33831,0.00227
2132.27814,0.00262
2130.21797,0.00313
2128.15780,0.00357
2126.09762,0.00396
2124.03745,0.00402
2121.97728,0.00385
2119.91711,0.00370
2117.85694,0.00373
2115.79676,0.00422
2113.73659,0.00453
2111.67642,0.00426
2109.61625,0.00434
2107.55608,0.00479
2105.49590,0.00469
2103.43573,0.00411
2101.37556,0.00403
2099.31539,0.00456
2097.25521,0.00460
2095.19504,0.00406
2093.13487,0.00365
2091.07470,0.00326
2089.01453,0.00328
2086.95435,0.00385
2084.89418,0.00399
2082.83401,0.00361
2080.77384,0.00320
2078.71367,0.00267
2076.65349,0.00222
2074.59332,0.00238
2072.53315,0.00307
2070.47298,0.00394
2068.41281,0.00463
2066.35263,0.00471
2064.29246,0.00420
2062.23229,0.00375
2060.17212,0.00381
2058.11194,0.00427
2056.05177,0.00455
2053.99160,0.00420
2051.93143,0.00365
2049.87126,0.00353
2047.81108,0.00371
2045.75091,0.00391
2043.69074,0.00433
2041.63057,0.00512
2039.57040,0.00550
2037.51022,0.00512
2035.45005,0.00420
2033.38988,0.00237
2031.32971,0.00027
2029.26954,0.00000
2027.20936,0.00135
2025.14919,0.00214
2023.08902,0.00216
2021.02885,0.00200
2018.96867,0.00210
2016.90850,0.00283
2014.84833,0.00336
2012.78816,0.00285
2010.72799,0.00161
2008.66781,0.00077
2006.60764,0.00098
2004.54747,0.00123
2002.48730,0.00050
2000.42713,-0.00033
1998.36695,-0.00013
1996.30678,0.00092
1994.24661,0.00208
1992.18644,0.00308
1990.12626,0.00396
1988.06609,0.00409
1986.00592,0.00356
1983.94575,0.00353
1981.88558,0.00429
1979.82540,0.00472
1977.76523,0.00342
1975.70506,0.00119
1973.64489,0.00000
1971.58472,0.00004
1969.52454,0.00043
1967.46437,0.00042
1965.40420,0.00030
1963.34403,0.00056
1961.28386,0.00060
1959.22368,0.00073
1957.16351,0.00169
1955.10334,0.00252
1953.04317,0.00235
1950.98299,0.00161
1948.92282,0.00109
1946.86265,0.00126
1944.80248,0.00169
1942.74231,0.00181
1940.68213,0.00175
1938.62196,0.00161
1936.56179,0.00129
1934.50162,0.00089
1932.44145,0.00070
1930.38127,0.00105
1928.32110,0.00185
1926.26093,0.00249
1924.20076,0.00262
1922.14059,0.00227
1920.08041,0.00165
1918.02024,0.00124
1915.96007,0.00136
1913.89990,0.00176
1911.83972,0.00211
1909.77955,0.00202
1907.71938,0.00164
1905.65921,0.00175
1903.59904,0.00229
1901.53886,0.00229
1899.47869,0.00162
1897.41852,0.00129
1895.35835,0.00169
1893.29818,0.00215
1891.23800,0.00215
1889.17783,0.00190
1887.11766,0.00174
1885.05749,0.00168
1882.99731,0.00176
1880.93714,0.00200
1878.87697,0.00223
1876.81680,0.00222
1874.75663,0.00200
1872.69645,0.00174
1870.63628,0.00149
1868.57611,0.00139
1866.51594,0.00162
1864.45577,0.00191
1862.39559,0.00209
1860.33542,0.00221
1858.27525,0.00218
1856.21508,0.00203
1854.15491,0.00191
1852.09473,0.00181
1850.03456,0.00163
1847.97439,0.00146
1845.91422,0.00139
1843.85404,0.00159
1841.79387,0.00210
1839.73370,0.00258
1837.67353,0.00266
1835.61336,0.00228
1833.55318,0.00180
1831.49301,0.00168
1829.43284,0.00194
1827.37267,0.00220
1825.31250,0.00231
1823.25232,0.00243
1821.19215,0.00253
1819.13198,0.00243
1817.07181,0.00216
1815.01163,0.00201
1812.95146,0.00203
1810.89129,0.00204
1808.83112,0.00213
1806.77095,0.00236
1804.71077,0.00257
1802.65060,0.00265
1800.59043,0.00260
1798.53026,0.00253
1796.47009,0.00242
1794.40991,0.00235
1792.34974,0.00243
1790.28957,0.00259
1788.22940,0.00261
1786.16923,0.00253
1784.10905,0.00248
1782.04888,0.00245
1779.98871,0.00245
1777.92854,0.00248
1775.86836,0.00250
1773.80819,0.00246
1771.74802,0.00243
1769.68785,0.00257
1767.62768,0.00275
1765.56750,0.00274
1763.50733,0.00266
1761.44716,0.00281
1759.38699,0.00309
1757.32682,0.00327
1755.26664,0.00334
1753.20647,0.00329
1751.14630,0.00300
1749.08613,0.00276
1747.02596,0.00306
1744.96578,0.00366
1742.90561,0.00411
1740.84544,0.00431
1738.78527,0.00429
1736.72509,0.00408
1734.66492,0.00383
1732.60475,0.00377
1730.54458,0.00393
1728.48441,0.00414
1726.42423,0.00439
1724.36406,0.00475
1722.30389,0.00498
1720.24372,0.00491
1718.18355,0.00471
1716.12337,0.00489
1714.06320,0.00538
1712.00303,0.00557
1709.94286,0.00540
1707.88268,0.00526
1705.82251,0.00544
1703.76234,0.00578
1701.70217,0.00597
1699.64200,0.00611
1697.58182,0.00638
1695.52165,0.00685
1693.46148,0.00730
1691.40131,0.00745
1689.34114,0.00742
1687.28096,0.00745
1685.22079,0.00771
1683.16062,0.00819
1681.10045,0.00853
1679.04028,0.00869
1676.98010,0.00877
1674.91993,0.00877
1672.85976,0.00880
1670.79959,0.00913
1668.73941,0.00958
1666.67924,0.00964
1664.61907,0.00950
1662.55890,0.00968
1660.49873,0.01005
1658.43855,0.01017
1656.37838,0.01017
1654.31821,0.01044
1652.25804,0.01076
1650.19787,0.01064
1648.13769,0.01047
1646.07752,0.01051
1644.01735,0.01038
1641.95718,0.01005
1639.89701,0.00987
1637.83683,0.00994
1635.77666,0.01020
1633.71649,0.01045
1631.65632,0.01046
1629.59614,0.01032
1627.53597,0.01019
1625.47580,0.01007
1623.41563,0.01001
1621.35546,0.01005
1619.29528,0.01012
1617.23511,0.01021
1615.17494,0.01022
1613.11477,0.00995
1611.05460,0.00950
1608.99442,0.00916
1606.93425,0.00905
1604.87408,0.00906
1602.81391,0.00897
1600.75373,0.00866
1598.69356,0.00831
1596.63339,0.00806
1594.57322,0.00787
1592.51305,0.00771
1590.45287,0.00749
1588.39270,0.00712
1586.33253,0.00670
1584.27236,0.00635
1582.21219,0.00609
1580.15201,0.00585
1578.09184,0.00553
1576.03167,0.00521
1573.97150,0.00500
1571.91133,0.00477
1569.85115,0.00452
1567.79098,0.00441
1565.73081,0.00433
1563.67064,0.00409
1561.61046,0.00363
1559.55029,0.00310
1557.49012,0.00289
1555.42995,0.00298
1553.36978,0.00314
1551.30960,0.00320
1549.24943,0.00304
1547.18926,0.00280
1545.12909,0.00252
1543.06892,0.00201
1541.00874,0.00155
1538.94857,0.00171
1536.88840,0.00202
1534.82823,0.00198
1532.76805,0.00171
1530.70788,0.00152
1528.64771,0.00142
1526.58754,0.00130
1524.52737,0.00105
1522.46719,0.00079
1520.40702,0.00078
1518.34685,0.00097
1516.28668,0.00111
1514.22651,0.00108
1512.16633,0.00091
1510.10616,0.00056
1508.04599,0.00013
1505.98582,0.00009
1503.92565,0.00042
1501.86547,0.00061
1499.80530,0.00060
1497.74513,0.00061
1495.68496,0.00075
1493.62478,0.00083
1491.56461,0.00070
1489.50444,0.00050
1487.44427,0.00047
1485.38410,0.00060
1483.32392,0.00078
1481.26375,0.00096
1479.20358,0.00107
1477.14341,0.00106
1475.08324,0.00094
1473.02306,0.00084
1470.96289,0.00098
1468.90272,0.00122
1466.84255,0.00139
1464.78238,0.00152
1462.72220,0.00155
1460.66203,0.00145
1458.60186,0.00143
1456.54169,0.00172
1454.48151,0.00195
1452.42134,0.00191
1450.36117,0.00178
1448.30100,0.00174
1446.24083,0.00184
1444.18065,0.00197
1442.12048,0.00193
1440.06031,0.00168
1438.00014,0.00140
1435.93997,0.00137
1433.87979,0.00159
1431.81962,0.00177
1429.75945,0.00181
1427.69928,0.00177
1425.63910,0.00171
1423.57893,0.00161
1421.51876,0.00151
1419.45859,0.00154
1417.39842,0.00174
1415.33824,0.00191
1413.27807,0.00202
1411.21790,0.00210
1409.15773,0.00206
1407.09756,0.00189
1405.03738,0.00176
1402.97721,0.00183
1400.91704,0.00191
1398.85687,0.00180
1396.79670,0.00157
1394.73652,0.00149
1392.67635,0.00156
1390.61618,0.00160
1388.55601,0.00161
1386.49583,0.00174
1384.43566,0.00193
1382.37549,0.00202
1380.31532,0.00205
1378.25515,0.00209
1376.19497,0.00217
1374.13480,0.00228
1372.07463,0.00241
1370.01446,0.00253
1367.95429,0.00259
1365.89411,0.00256
1363.83394,0.00248
1361.77377,0.00239
1359.71360,0.00227
1357.65343,0.00214
1355.59325,0.00199
1353.53308,0.00195
1351.47291,0.00206
1349.41274,0.00212
1347.35256,0.00202
1345.29239,0.00187
1343.23222,0.00175
1341.17205,0.00167
1339.11188,0.00166
1337.05170,0.00165
1334.99153,0.00156
1332.93136,0.00147
1330.87119,0.00149
1328.81102,0.00156
1326.75084,0.00155
1324.69067,0.00147
1322.63050,0.00142
1320.57033,0.00151
1318.51015,0.00166
1316.44998,0.00170
1314.38981,0.00164
1312.32964,0.00159
1310.26947,0.00159
1308.20929,0.00156
1306.14912,0.00150
1304.08895,0.00143
1302.02878,0.00137
1299.96861,0.00139
1297.90843,0.00155
1295.84826,0.00177
1293.78809,0.00190
1291.72792,0.00198
1289.66775,0.00202
1287.60757,0.00199
1285.54740,0.00193
1283.48723,0.00192
1281.42706,0.00192
1279.36688,0.00187
1277.30671,0.00185
1275.24654,0.00189
1273.18637,0.00194
1271.12620,0.00197
1269.06602,0.00197
1267.00585,0.00197
1264.94568,0.00196
1262.88551,0.00202
1260.82534,0.00218
1258.76516,0.00232
1256.70499,0.00228
1254.64482,0.00210
1252.58465,0.00195
1250.52447,0.00188
1248.46430,0.00176
1246.40413,0.00162
1244.34396,0.00158
1242.28379,0.00150
1240.22361,0.00128
1238.16344,0.00105
1236.10327,0.00093
1234.04310,0.00084
1231.98293,0.00080
1229.92275,0.00095
1227.86258,0.00110
1225.80241,0.00099
1223.74224,0.00080
1221.68207,0.00068
1219.62189,0.00063
1217.56172,0.00052
1215.50155,0.00033
1213.44138,0.00020
1211.38120,0.00019
1209.32103,0.00021
1207.26086,0.00014
1205.20069,0.00000
1203.14052,-0.00004
1201.08034,0.00005
1199.02017,0.00026
1196.96000,0.00057
1194.89983,0.00088
1192.83966,0.00116
1190.77948,0.00140
1188.71931,0.00165
1186.65914,0.00193
1184.59897,0.00223
1182.53880,0.00266
1180.47862,0.00322
1178.41845,0.00388
1176.35828,0.00464
1174.29811,0.00542
1172.23793,0.00605
1170.17776,0.00651
1168.11759,0.00697
1166.05742,0.00755
1163.99725,0.00812
1161.93707,0.00858
1159.87690,0.00909
1157.81673,0.00973
1155.75656,0.01030
1153.69639,0.01079
1151.63621,0.01123
1149.57604,0.01170
1147.51587,0.01228
1145.45570,0.01300
1143.39552,0.01390
1141.33535,0.01494
1139.27518,0.01582
1137.21501,0.01648
1135.15484,0.01721
1133.09466,0.01806
1131.03449,0.01875
1128.97432,0.01924
1126.91415,0.01968
1124.85398,0.02026
1122.79380,0.02101
1120.73363,0.02171
1118.67346,0.02222
1116.61329,0.02285
1114.55312,0.02382
1112.49294,0.02480
1110.43277,0.02551
1108.37260,0.02625
1106.31243,0.02723
1104.25225,0.02827
1102.19208,0.02917
1100.13191,0.02987
1098.07174,0.03053
1096.01157,0.03136
1093.95139,0.03220
1091.89122,0.03294
1089.83105,0.03374
1087.77088,0.03450
1085.71071,0.03518
1083.65053,0.03592
1081.59036,0.03673
1079.53019,0.03755
1077.47002,0.03833
1075.40985,0.03891
1073.34967,0.03940
1071.28950,0.03986
1069.22933,0.04020
1067.16916,0.04061
1065.10898,0.04102
1063.04881,0.04126
1060.98864,0.04151
1058.92847,0.04190
1056.86830,0.04214
1054.80812,0.04196
1052.74795,0.04160
1050.68778,0.04143
1048.62761,0.04138
1046.56744,0.04110
1044.50726,0.04051
1042.44709,0.03984
1040.38692,0.03922
1038.32675,0.03856
1036.26657,0.03787
1034.20640,0.03717
1032.14623,0.03637
1030.08606,0.03549
1028.02589,0.03482
1025.96571,0.03431
1023.90554,0.03371
1021.84537,0.03306
1019.78520,0.03240
1017.72503,0.03166
1015.66485,0.03088
1013.60468,0.03018
1011.54451,0.02958
1009.48434,0.02916
1007.42417,0.02903
1005.36399,0.02901
1003.30382,0.02891
1001.24365,0.02865
999.18348,0.02846
997.12330,0.02876
995.06313,0.02936
993.00296,0.02969
990.94279,0.02977
988.88262,0.03013
986.82244,0.03086
984.76227,0.03144
982.70210,0.03162
980.64193,0.03153
978.58176,0.03124
976.52158,0.03059
974.46141,0.02969
972.40124,0.02883
970.34107,0.02796
968.28089,0.02704
966.22072,0.02609
964.16055,0.02502
962.10038,0.02405
960.04021,0.02326
957.98003,0.02231
955.91986,0.02139
953.85969,0.02086
951.79952,0.02049
949.73935,0.01992
947.67917,0.01934
945.61900,0.01909
943.55883,0.01911
941.49866,0.01910
939.43849,0.01900
937.37831,0.01902
935.31814,0.01907
933.25797,0.01902
931.19780,0.01910
929.13762,0.01943
927.07745,0.01947
925.01728,0.01903
922.95711,0.01865
920.89694,0.01837
918.83676,0.01771
916.77659,0.01706
914.71642,0.01684
912.65625,0.01655
910.59608,0.01609
908.53590,0.01556
906.47573,0.01481
904.41556,0.01426
902.35539,0.01418
900.29522,0.01413
898.23504,0.01396
896.17487,0.01399
894.11470,0.01412
892.05453,0.01423
889.99435,0.01463
887.93418,0.01515
885.87401,0.01525
883.81384,0.01520
881.75367,0.01545
879.69349,0.01604
877.63332,0.01660
875.57315,0.01675
873.51298,0.01657
871.45281,0.01638
869.39263,0.01633
867.33246,0.01641
865.27229,0.01664
863.21212,0.01674
861.15194,0.01661
859.09177,0.01666
857.03160,0.01680
854.97143,0.01644
852.91126,0.01568
850.85108,0.01513
848.79091,0.01503
846.73074,0.01490
844.67057,0.01438
842.61040,0.01376
840.55022,0.01310
838.49005,0.01245
836.42988,0.01195
834.36971,0.01161
832.30954,0.01153
830.24936,0.01164
828.18919,0.01145
826.12902,0.01076
824.06885,0.01000
822.00867,0.00952
819.94850,0.00915
817.88833,0.00887
815.82816,0.00892
813.76799,0.00901
811.70781,0.00869
809.64764,0.00812
807.58747,0.00772
805.52730,0.00739
803.46713,0.00702
801.40695,0.00673
799.34678,0.00687
797.28661,0.00742
795.22644,0.00737
793.16627,0.00657
791.10609,0.00589
789.04592,0.00554
786.98575,0.00531
784.92558,0.00531
782.86540,0.00555
780.80523,0.00573
778.74506,0.00572
776.68489,0.00558
774.62472,0.00537
772.56454,0.00521
770.50437,0.00515
768.44420,0.00509
766.38403,0.00501
764.32386,0.00483
762.26368,0.00461
760.20351,0.00432
758.14334,0.00398
756.08317,0.00408
754.02299,0.00440
751.96282,0.00438
749.90265,0.00445
747.84248,0.00470
745.78231,0.00475
743.72213,0.00458
741.66196,0.00439
739.60179,0.00424
737.54162,0.00396
735.48145,0.00353
733.42127,0.00333
731.36110,0.00337
729.30093,0.00330
727.24076,0.00307
725.18059,0.00286
723.12041,0.00272
721.06024,0.00258
719.00007,0.00264
716.93990,0.00286
714.87972,0.00309
712.81955,0.00321
710.75938,0.00308
708.69921,0.00280
706.63904,0.00264
704.57886,0.00280
702.51869,0.00285
700.45852,0.00223
698.39835,0.00145
696.33818,0.00132
694.27800,0.00173
692.21783,0.00179
690.15766,0.00113
688.09749,0.00052
686.03731,0.00091
683.97714,0.00238
681.91697,0.00383
679.85680,0.00391
677.79663,0.00261
675.73645,0.00144
673.67628,0.00146
671.61611,0.00181
669.55594,0.00132
667.49577,0.00046
665.43559,0.00074
663.37542,0.00195
661.31525,0.00269
659.25508,0.00232
657.19491,0.00151
655.13473,0.00116
653.07456,0.00136
651.01439,0.00171
648.95422,0.00205
646.89404,0.00207
644.83387,0.00163
642.77370,0.00161
640.71353,0.00233
638.65336,0.00287
636.59318,0.00322
634.53301,0.00387
632.47284,0.00436
630.41267,0.00450
628.35250,0.00413
626.29232,0.00272
624.23215,0.00143
622.17198,0.00178
620.11181,0.00291
618.05164,0.00308
615.99146,0.00221
613.93129,0.00225
611.87112,0.00306
609.81095,0.00335
607.75077,0.00273
605.69060,0.00112
603.63043,0.00000
601.57026,-0.00084
599.51009,0.00000
