3996.73391,0.00029
3994.67373,0.00035
3992.61356,0.00037
3990.55339,0.00042
3988.49322,0.00039
3986.43305,0.00037
3984.37287,0.00044
3982.31270,0.00054
3980.25253,0.00057
3978.19236,0.00045
3976.13219,0.00035
3974.07201,0.00052
3972.01184,0.00086
3969.95167,0.00088
3967.89150,0.00046
3965.83133,0.00004
3963.77115,0.00000
3961.71098,0.00036
3959.65081,0.00093
3957.59064,0.00140
3955.53046,0.00138
3953.47029,0.00085
3951.41012,0.00024
3949.34995,0.00005
3947.28978,0.00037
3945.22960,0.00068
3943.16943,0.00061
3941.10926,0.00043
3939.04909,0.00046
3936.98892,0.00067
3934.92874,0.00076
3932.86857,0.00050
3930.80840,0.00010
3928.74823,0.00018
3926.68805,0.00068
3924.62788,0.00096
3922.56771,0.00089
3920.50754,0.00087
3918.44737,0.00090
3916.38719,0.00080
3914.32702,0.00078
3912.26685,0.00097
3910.20668,0.00122
3908.14651,0.00153
3906.08633,0.00183
3904.02616,0.00179
3901.96599,0.00143
3899.90582,0.00096
3897.84565,0.00072
3895.78547,0.00094
3893.72530,0.00128
3891.66513,0.00132
3889.60496,0.00140
3887.54478,0.00164
3885.48461,0.00143
3883.42444,0.00072
3881.36427,0.00027
3879.30410,0.00047
3877.24392,0.00120
3875.18375,0.00184
3873.12358,0.00190
3871.06341,0.00156
3869.00324,0.00118
3866.94306,0.00107
3864.88289,0.00113
3862.82272,0.00120
3860.76255,0.00135
3858.70237,0.00161
3856.64220,0.00195
3854.58203,0.00205
3852.52186,0.00156
3850.46169,0.00111
3848.40151,0.00127
3846.34134,0.00166
3844.28117,0.00169
3842.22100,0.00143
3840.16083,0.00128
3838.10065,0.00116
3836.04048,0.00103
3833.98031,0.00093
3831.92014,0.00086
3829.85997,0.00092
3827.79979,0.00094
3825.73962,0.00103
3823.67945,0.00156
3821.61928,0.00202
3819.55910,0.00180
3817.49893,0.00131
3815.43876,0.00087
3813.37859,0.00083
3811.31842,0.00128
3809.25824,0.00154
3807.19807,0.00118
3805.13790,0.00066
3803.07773,0.00028
3801.01756,0.00000
3798.95738,0.00041
3796.89721,0.00115
3794.83704,0.00137
3792.77687,0.00134
3790.71670,0.00144
3788.65652,0.00157
3786.59635,0.00164
3784.53618,0.00174
3782.47601,0.00193
3780.41583,0.00190
3778.35566,0.00165
3776.29549,0.00176
3774.23532,0.00228
3772.17515,0.00250
3770.11497,0.00215
3768.05480,0.00177
3765.99463,0.00169
3763.93446,0.00179
3761.87429,0.00182
3759.81411,0.00146
3757.75394,0.00112
3755.69377,0.00122
3753.63360,0.00139
3751.57342,0.00127
3749.51325,0.00099
3747.45308,0.00106
3745.39291,0.00136
3743.33274,0.00143
3741.27256,0.00158
3739.21239,0.00188
3737.15222,0.00186
3735.09205,0.00134
3733.03188,0.00086
3730.97170,0.00099
3728.91153,0.00142
3726.85136,0.00181
3724.79119,0.00225
3722.73102,0.00245
3720.67084,0.00214
3718.61067,0.00164
3716.55050,0.00151
3714.49033,0.00163
3712.43015,0.00124
3710.36998,0.00054
3708.30981,0.00049
3706.24964,0.00108
3704.18947,0.00150
3702.12929,0.00123
3700.06912,0.00084
3698.00895,0.00112
3695.94878,0.00172
3693.88861,0.00199
3691.82843,0.00186
3689.76826,0.00146
3687.70809,0.00116
3685.64792,0.00121
3683.58775,0.00139
3681.52757,0.00154
3679.46740,0.00180
3677.40723,0.00204
3675.34706,0.00200
3673.28688,0.00227
3671.22671,0.00280
3669.16654,0.00246
3667.10637,0.00164
3665.04620,0.00141
3662.98602,0.00169
3660.92585,0.00205
3658.86568,0.00231
3656.80551,0.00250
3654.74534,0.00253
3652.68516,0.00235
3650.62499,0.00192
3648.56482,0.00142
3646.50465,0.00135
3644.44447,0.00197
3642.38430,0.00280
3640.32413,0.00319
3638.26396,0.00331
3636.20379,0.00364
3634.14361,0.00399
3632.08344,0.00396
3630.02327,0.00342
3627.96310,0.00311
3625.90293,0.00384
3623.84275,0.00477
3621.78258,0.00492
3619.72241,0.00444
3617.66224,0.00418
3615.60207,0.00450
3613.54189,0.00501
3611.48172,0.00516
3609.42155,0.00521
3607.36138,0.00560
3605.30120,0.00602
3603.24103,0.00617
3601.18086,0.00627
3599.12069,0.00650
3597.06052,0.00653
3595.00034,0.00624
3592.94017,0.00597
3590.88000,0.00596
3588.81983,0.00587
3586.75966,0.00580
3584.69948,0.00628
3582.63931,0.00704
3580.57914,0.00766
3578.51897,0.00803
3576.45879,0.00815
3574.39862,0.00829
3572.33845,0.00879
3570.27828,0.00957
3568.21811,0.01011
3566.15793,0.00992
3564.09776,0.00931
3562.03759,0.00898
3559.97742,0.00911
3557.91725,0.00948
3555.85707,0.00977
3553.79690,0.00986
3551.73673,0.00989
3549.67656,0.00985
3547.61639,0.00966
3545.55621,0.00986
3543.49604,0.01068
3541.43587,0.01128
3539.37570,0.01133
3537.31552,0.01136
3535.25535,0.01155
3533.19518,0.01175
3531.13501,0.01203
3529.07484,0.01237
3527.01466,0.01256
3524.95449,0.01252
3522.89432,0.01222
3520.83415,0.01195
3518.77398,0.01212
3516.71380,0.01255
3514.65363,0.01283
3512.59346,0.01295
3510.53329,0.01299
3508.47312,0.01307
3506.41294,0.01340
3504.35277,0.01374
3502.29260,0.01378
3500.23243,0.01368
3498.17225,0.01370
3496.11208,0.01380
3494.05191,0.01397
3491.99174,0.01418
3489.93157,0.01438
3487.87139,0.01458
3485.81122,0.01486
3483.75105,0.01516
3481.69088,0.01529
3479.63071,0.01530
3477.57053,0.01544
3475.51036,0.01573
3473.45019,0.01596
3471.39002,0.01606
3469.32984,0.01604
3467.26967,0.01603
3465.20950,0.01617
3463.14933,0.01638
3461.08916,0.01652
3459.02898,0.01675
3456.96881,0.01716
3454.90864,0.01725
3452.84847,0.01680
3450.78830,0.01655
3448.72812,0.01689
3446.66795,0.01737
3444.60778,0.01751
3442.54761,0.01737
3440.48744,0.01729
3438.42726,0.01743
3436.36709,0.01771
3434.30692,0.01789
3432.24675,0.01785
3430.18657,0.01793
3428.12640,0.01829
3426.06623,0.01853
3424.00606,0.01863
3421.94589,0.01892
3419.88571,0.01930
3417.82554,0.01948
3415.76537,0.01937
3413.70520,0.01901
3411.64503,0.01878
3409.58485,0.01905
3407.52468,0.01938
3405.46451,0.01938
3403.40434,0.01944
3401.34416,0.01956
3399.28399,0.01952
3397.22382,0.01960
3395.16365,0.01988
3393.10348,0.02002
3391.04330,0.01997
3388.98313,0.02007
3386.92296,0.02029
3384.86279,0.02028
3382.80262,0.01993
3380.74244,0.01967
3378.68227,0.01992
3376.62210,0.02048
3374.56193,0.02067
3372.50176,0.02054
3370.44158,0.02064
3368.38141,0.02096
3366.32124,0.02115
3364.26107,0.02120
3362.20089,0.02120
3360.14072,0.02099
3358.08055,0.02071
3356.02038,0.02056
3353.96021,0.02058
3351.90003,0.02075
3349.83986,0.02101
3347.77969,0.02136
3345.71952,0.02161
3343.65935,0.02162
3341.59917,0.02161
3339.53900,0.02170
3337.47883,0.02184
3335.41866,0.02191
3333.35849,0.02172
3331.29831,0.02150
3329.23814,0.02162
3327.17797,0.02185
3325.11780,0.02194
3323.05762,0.02215
3320.99745,0.02240
3318.93728,0.02228
3316.87711,0.02215
3314.81694,0.02225
3312.75676,0.02223
3310.69659,0.02210
3308.63642,0.02203
3306.57625,0.02189
3304.51608,0.02180
3302.45590,0.02188
3300.39573,0.02215
3298.33556,0.02246
3296.27539,0.02257
3294.21521,0.02250
3292.15504,0.02239
3290.09487,0.02246
3288.03470,0.02281
3285.97453,0.02305
3283.91435,0.02294
3281.85418,0.02280
3279.79401,0.02282
3277.73384,0.02296
3275.67367,0.02309
3273.61349,0.02298
3271.55332,0.02266
3269.49315,0.02250
3267.43298,0.02283
3265.37281,0.02343
3263.31263,0.02378
3261.25246,0.02374
3259.19229,0.02364
3257.13212,0.02355
3255.07194,0.02332
3253.01177,0.02301
3250.95160,0.02288
3248.89143,0.02283
3246.83126,0.02273
3244.77108,0.02289
3242.71091,0.02316
3240.65074,0.02303
3238.59057,0.02267
3236.53040,0.02264
3234.47022,0.02294
3232.41005,0.02322
3230.34988,0.02347
3228.28971,0.02375
3226.22954,0.02386
3224.16936,0.02371
3222.10919,0.02354
3220.04902,0.02349
3217.98885,0.02353
3215.92867,0.02364
3213.86850,0.02372
3211.80833,0.02355
3209.74816,0.02317
3207.68799,0.02283
3205.62781,0.02269
3203.56764,0.02288
3201.50747,0.02325
3199.44730,0.02333
3197.38713,0.02313
3195.32695,0.02306
3193.26678,0.02309
3191.20661,0.02315
3189.14644,0.02326
3187.08626,0.02330
3185.02609,0.02327
3182.96592,0.02328
3180.90575,0.02320
3178.84558,0.02299
3176.78540,0.02302
3174.72523,0.02336
3172.66506,0.02348
3170.60489,0.02324
3168.54472,0.02297
3166.48454,0.02274
3164.42437,0.02257
3162.36420,0.02257
3160.30403,0.02269
3158.24386,0.02275
3156.18368,0.02267
3154.12351,0.02259
3152.06334,0.02264
3150.00317,0.02268
3147.94299,0.02259
3145.88282,0.02248
3143.82265,0.02240
3141.76248,0.02242
3139.70231,0.02246
3137.64213,0.02226
3135.58196,0.02200
3133.52179,0.02206
3131.46162,0.02213
3129.40145,0.02186
3127.34127,0.02158
3125.28110,0.02165
3123.22093,0.02197
3121.16076,0.02211
3119.10058,0.02181
3117.04041,0.02128
3114.98024,0.02096
3112.92007,0.02108
3110.85990,0.02140
3108.79972,0.02152
3106.73955,0.02133
3104.67938,0.02099
3102.61921,0.02067
3100.55904,0.02061
3098.49886,0.02079
3096.43869,0.02079
3094.37852,0.02048
3092.31835,0.02024
3090.25818,0.02021
3088.19800,0.02017
3086.13783,0.02011
3084.07766,0.02016
3082.01749,0.02022
3079.95731,0.02018
3077.89714,0.02017
3075.83697,0.02016
3073.77680,0.02008
3071.71663,0.01990
3069.65645,0.01975
3067.59628,0.01985
3065.53611,0.02003
3063.47594,0.01999
3061.41577,0.01970
3059.35559,0.01922
3057.29542,0.01875
3055.23525,0.01862
3053.17508,0.01873
3051.11491,0.01873
3049.05473,0.01860
3046.99456,0.01860
3044.93439,0.01875
3042.87422,0.01874
3040.81404,0.01847
3038.75387,0.01824
3036.69370,0.01822
3034.63353,0.01830
3032.57336,0.01831
3030.51318,0.01812
3028.45301,0.01786
3026.39284,0.01775
3024.33267,0.01779
3022.27250,0.01785
3020.21232,0.01778
3018.15215,0.01756
3016.09198,0.01737
3014.03181,0.01740
3011.97163,0.01751
3009.91146,0.01734
3007.85129,0.01691
3005.79112,0.01672
3003.73095,0.01681
3001.67077,0.01682
2999.61060,0.01673
2997.55043,0.01667
2995.49026,0.01651
2993.43009,0.01626
2991.36991,0.01617
2989.30974,0.01625
2987.24957,0.01621
2985.18940,0.01598
2983.12923,0.01577
2981.06905,0.01565
2979.00888,0.01543
2976.94871,0.01515
2974.88854,0.01514
2972.82836,0.01549
2970.76819,0.01574
2968.70802,0.01569
2966.64785,0.01563
2964.58768,0.01572
2962.52750,0.01579
2960.46733,0.01567
2958.40716,0.01549
2956.34699,0.01544
2954.28682,0.01548
2952.22664,0.01547
2950.16647,0.01559
2948.10630,0.01588
2946.04613,0.01605
2943.98596,0.01584
2941.92578,0.01543
2939.86561,0.01520
2937.80544,0.01528
2935.74527,0.01543
2933.68509,0.01542
2931.62492,0.01540
2929.56475,0.01545
2927.50458,0.01539
2925.44441,0.01517
2923.38423,0.01503
2921.32406,0.01505
2919.26389,0.01495
2917.20372,0.01472
2915.14355,0.01463
2913.08337,0.01459
2911.02320,0.01459
2908.96303,0.01472
2906.90286,0.01475
2904.84268,0.01472
2902.78251,0.01475
2900.72234,0.01477
2898.66217,0.01465
2896.60200,0.01447
2894.54182,0.01431
2892.48165,0.01408
2890.42148,0.01396
2888.36131,0.01404
2886.30114,0.01409
2884.24096,0.01413
2882.18079,0.01421
2880.12062,0.01423
2878.06045,0.01425
2876.00028,0.01437
2873.94010,0.01444
2871.87993,0.01432
2869.81976,0.01404
2867.75959,0.01389
2865.69941,0.01388
2863.63924,0.01368
2861.57907,0.01348
2859.51890,0.01350
2857.45873,0.01351
2855.39855,0.01341
2853.33838,0.01331
2851.27821,0.01333
2849.21804,0.01343
2847.15787,0.01345
2845.09769,0.01342
2843.03752,0.01338
2840.97735,0.01334
2838.91718,0.01336
2836.85700,0.01327
2834.79683,0.01295
2832.73666,0.01269
2830.67649,0.01255
2828.61632,0.01250
2826.55614,0.01261
2824.49597,0.01286
2822.43580,0.01303
2820.37563,0.01290
2818.31546,0.01258
2816.25528,0.01230
2814.19511,0.01209
2812.13494,0.01196
2810.07477,0.01188
2808.01460,0.01175
2805.95442,0.01170
2803.89425,0.01178
2801.83408,0.01184
2799.77391,0.01192
2797.71373,0.01208
2795.65356,0.01218
2793.59339,0.01223
2791.53322,0.01217
2789.47305,0.01199
2787.41287,0.01185
2785.35270,0.01179
2783.29253,0.01176
2781.23236,0.01179
2779.17219,0.01190
2777.11201,0.01199
2775.05184,0.01196
2772.99167,0.01187
2770.93150,0.01182
2768.87133,0.01168
2766.81115,0.01147
2764.75098,0.01142
2762.69081,0.01146
2760.63064,0.01146
2758.57046,0.01142
2756.51029,0.01140
2754.45012,0.01134
2752.38995,0.01109
2750.32978,0.01076
2748.26960,0.01059
2746.20943,0.01068
2744.14926,0.01084
2742.08909,0.01086
2740.02892,0.01080
2737.96874,0.01086
2735.90857,0.01103
2733.84840,0.01112
2731.78823,0.01107
2729.72805,0.01084
2727.66788,0.01055
2725.60771,0.01041
2723.54754,0.01039
2721.48737,0.01026
2719.42719,0.01017
2717.36702,0.01019
2715.30685,0.01024
2713.24668,0.01026
2711.18651,0.01018
2709.12633,0.01007
2707.06616,0.01006
2705.00599,0.00999
2702.94582,0.00976
2700.88565,0.00956
2698.82547,0.00939
2696.76530,0.00927
2694.70513,0.00929
2692.64496,0.00945
2690.58478,0.00958
2688.52461,0.00958
2686.46444,0.00945
2684.40427,0.00929
2682.34410,0.00915
2680.28392,0.00905
2678.22375,0.00913
2676.16358,0.00933
2674.10341,0.00932
2672.04324,0.00903
2669.98306,0.00884
2667.92289,0.00889
2665.86272,0.00902
2663.80255,0.00916
2661.74238,0.00897
2659.68220,0.00847
2657.62203,0.00818
2655.56186,0.00826
2653.50169,0.00847
2651.44151,0.00856
2649.38134,0.00848
2647.32117,0.00830
2645.26100,0.00810
2643.20083,0.00803
2641.14065,0.00810
2639.08048,0.00812
2637.02031,0.00807
2634.96014,0.00806
2632.89997,0.00820
2630.83979,0.00832
2628.77962,0.00815
2626.71945,0.00788
2624.65928,0.00780
2622.59910,0.00776
2620.53893,0.00767
2618.47876,0.00765
2616.41859,0.00769
2614.35842,0.00774
2612.29824,0.00778
2610.23807,0.00774
2608.17790,0.00758
2606.11773,0.00736
2604.05756,0.00707
2601.99738,0.00675
2599.93721,0.00670
2597.87704,0.00694
2595.81687,0.00711
2593.75670,0.00701
2591.69652,0.00680
2589.63635,0.00673
2587.57618,0.00691
2585.51601,0.00718
2583.45583,0.00718
2581.39566,0.00702
2579.33549,0.00702
2577.27532,0.00729
2575.21515,0.00733
2573.15497,0.00682
2571.09480,0.00643
2569.03463,0.00641
2566.97446,0.00634
2564.91429,0.00631
2562.85411,0.00642
2560.79394,0.00644
2558.73377,0.00636
2556.67360,0.00631
2554.61342,0.00618
2552.55325,0.00605
2550.49308,0.00605
2548.43291,0.00609
2546.37274,0.00612
2544.31256,0.00627
2542.25239,0.00656
2540.19222,0.00673
2538.13205,0.00670
2536.07188,0.00661
2534.01170,0.00653
2531.95153,0.00632
2529.89136,0.00597
2527.83119,0.00594
2525.77102,0.00630
2523.71084,0.00638
2521.65067,0.00608
2519.59050,0.00602
2517.53033,0.00623
2515.47015,0.00638
2513.40998,0.00655
2511.34981,0.00668
2509.28964,0.00643
2507.22947,0.00619
2505.16929,0.00660
2503.10912,0.00712
2501.04895,0.00728
2498.98878,0.00732
2496.92861,0.00730
2494.86843,0.00722
2492.80826,0.00717
2490.74809,0.00695
2488.68792,0.00656
2486.62775,0.00648
2484.56757,0.00672
2482.50740,0.00688
2480.44723,0.00707
2478.38706,0.00735
2476.32688,0.00731
2474.26671,0.00683
2472.20654,0.00649
2470.14637,0.00663
2468.08620,0.00700
2466.02602,0.00727
2463.96585,0.00726
2461.90568,0.00720
2459.84551,0.00727
2457.78534,0.00721
2455.72516,0.00707
2453.66499,0.00718
2451.60482,0.00751
2449.54465,0.00756
2447.48447,0.00730
2445.42430,0.00737
2443.36413,0.00756
2441.30396,0.00733
2439.24379,0.00703
2437.18361,0.00681
2435.12344,0.00646
2433.06327,0.00641
2431.00310,0.00673
2428.94293,0.00693
2426.88275,0.00687
2424.82258,0.00681
2422.76241,0.00701
2420.70224,0.00715
2418.64207,0.00710
2416.58189,0.00713
2414.52172,0.00711
2412.46155,0.00683
2410.40138,0.00672
2408.34120,0.00688
2406.28103,0.00696
2404.22086,0.00687
2402.16069,0.00665
2400.10052,0.00647
2398.04034,0.00653
2395.98017,0.00676
2393.92000,0.00687
2391.85983,0.00689
2389.79966,0.00705
2387.73948,0.00729
2385.67931,0.00738
2383.61914,0.00721
2381.55897,0.00691
2379.49880,0.00669
2377.43862,0.00671
2375.37845,0.00667
2373.31828,0.00697
2371.25811,0.00759
2369.19793,0.00780
2367.13776,0.00788
2365.07759,0.00817
2363.01742,0.00795
2360.95725,0.00832
2358.89707,0.00710
2356.83690,0.00607
2354.77673,0.00587
2352.71656,0.00570
2350.65639,0.00739
2348.59621,0.00895
2346.53604,0.00660
2344.47587,0.00583
2342.41570,0.00579
2340.35552,0.00583
2338.29535,0.00653
2336.23518,0.00693
2334.17501,0.00692
2332.11484,0.00704
2330.05466,0.00752
2327.99449,0.00740
2325.93432,0.00743
2323.87415,0.00699
2321.81398,0.00696
2319.75380,0.00683
2317.69363,0.00714
2315.63346,0.00721
2313.57329,0.00709
2311.51312,0.00701
2309.45294,0.00709
2307.39277,0.00732
2305.33260,0.00741
2303.27243,0.00746
2301.21225,0.00740
2299.15208,0.00735
2297.09191,0.00718
2295.03174,0.00690
2292.97157,0.00679
2290.91139,0.00690
2288.85122,0.00702
2286.79105,0.00710
2284.73088,0.00704
2282.67071,0.00659
2280.61053,0.00602
2278.55036,0.00597
2276.49019,0.00635
2274.43002,0.00656
2272.36984,0.00642
2270.30967,0.00625
2268.24950,0.00610
2266.18933,0.00604
2264.12916,0.00628
2262.06898,0.00658
2260.00881,0.00641
2257.94864,0.00605
2255.88847,0.00593
2253.82830,0.00596
2251.76812,0.00590
2249.70795,0.00560
2247.64778,0.00535
2245.58761,0.00566
2243.52744,0.00619
2241.46726,0.00661
2239.40709,0.00682
2237.34692,0.00608
2235.28675,0.00505
2233.22657,0.00506
2231.16640,0.00540
2229.10623,0.00505
2227.04606,0.00480
2224.98589,0.00507
2222.92571,0.00488
2220.86554,0.00414
2218.80537,0.00384
2216.74520,0.00423
2214.68503,0.00504
2212.62485,0.00585
2210.56468,0.00573
2208.50451,0.00473
2206.44434,0.00434
2204.38417,0.00511
2202.32399,0.00567
2200.26382,0.00508
2198.20365,0.00460
2196.14348,0.00490
2194.08330,0.00479
2192.02313,0.00377
2189.96296,0.00334
2187.90279,0.00411
2185.84262,0.00420
2183.78244,0.00311
2181.72227,0.00326
2179.66210,0.00445
2177.60193,0.00353
2175.54176,0.00196
2173.48158,0.00312
2171.42141,0.00527
2169.36124,0.00547
2167.30107,0.00468
2165.24089,0.00495
2163.18072,0.00521
2161.12055,0.00352
2159.06038,0.00138
2157.00021,0.00154
2154.94003,0.00287
2152.87986,0.00340
2150.81969,0.00327
2148.75952,0.00325
2146.69935,0.00377
2144.63917,0.00435
2142.57900,0.00415
2140.51883,0.00342
2138.45866,0.00301
2136.39849,0.00267
2134.33831,0.00238
2132.27814,0.00260
2130.21797,0.00294
2128.15780,0.00304
2126.09762,0.00306
2124.03745,0.00324
2121.97728,0.00372
2119.91711,0.00399
2117.85694,0.00371
2115.79676,0.00363
2113.73659,0.00362
2111.67642,0.00331
2109.61625,0.00349
2107.55608,0.00411
2105.49590,0.00413
2103.43573,0.00373
2101.37556,0.00401
2099.31539,0.00464
2097.25521,0.00438
2095.19504,0.00359
2093.13487,0.00320
2091.07470,0.00296
2089.01453,0.00287
2086.95435,0.00333
2084.89418,0.00366
2082.83401,0.00340
2080.77384,0.00320
2078.71367,0.00338
2076.65349,0.00332
2074.59332,0.00275
2072.53315,0.00255
2070.47298,0.00325
2068.41281,0.00374
2066.35263,0.00366
2064.29246,0.00379
2062.23229,0.00370
2060.17212,0.00287
2058.11194,0.00257
2056.05177,0.00386
2053.99160,0.00559
2051.93143,0.00600
2049.87126,0.00484
2047.81108,0.00327
2045.75091,0.00231
2043.69074,0.00244
2041.63057,0.00347
2039.57040,0.00430
2037.51022,0.00431
2035.45005,0.00342
2033.38988,0.00202
2031.32971,0.00147
2029.26954,0.00204
2027.20936,0.00219
2025.14919,0.00193
2023.08902,0.00241
2021.02885,0.00271
2018.96867,0.00212
2016.90850,0.00161
2014.84833,0.00136
2012.78816,0.00127
2010.72799,0.00158
2008.66781,0.00145
2006.60764,0.00041
2004.54747,0.00000
2002.48730,0.00064
2000.42713,0.00119
1998.36695,0.00194
1996.30678,0.00324
1994.24661,0.00392
1992.18644,0.00367
1990.12626,0.00367
1988.06609,0.00374
1986.00592,0.00342
1983.94575,0.00387
1981.88558,0.00517
1979.82540,0.00558
1977.76523,0.00402
1975.70506,0.00166
1973.64489,0.00015
1971.58472,0.00002
1969.52454,0.00108
1967.46437,0.00196
1965.40420,0.00135
1963.34403,0.00033
1961.28386,0.00011
1959.22368,0.00056
1957.16351,0.00135
1955.10334,0.00216
1953.04317,0.00269
1950.98299,0.00214
1948.92282,0.00099
1946.86265,0.00090
1944.80248,0.00164
1942.74231,0.00222
1940.68213,0.00276
1938.62196,0.00277
1936.56179,0.00175
1934.50162,0.00070
1932.44145,0.00071
1930.38127,0.00160
1928.32110,0.00260
1926.26093,0.00304
1924.20076,0.00293
1922.14059,0.00253
1920.08041,0.00200
1918.02024,0.00176
1915.96007,0.00210
1913.89990,0.00241
1911.83972,0.00228
1909.77955,0.00191
1907.71938,0.00175
1905.65921,0.00219
1903.59904,0.00267
1901.53886,0.00252
1899.47869,0.00209
1897.41852,0.00194
1895.35835,0.00208
1893.29818,0.00229
1891.23800,0.00224
1889.17783,0.00205
1887.11766,0.00216
1885.05749,0.00247
1882.99731,0.00263
1880.93714,0.00267
1878.87697,0.00274
1876.81680,0.00286
1874.75663,0.00300
1872.69645,0.00283
1870.63628,0.00236
1868.57611,0.00223
1866.51594,0.00265
1864.45577,0.00295
1862.39559,0.00287
1860.33542,0.00281
1858.27525,0.00284
1856.21508,0.00266
1854.15491,0.00238
1852.09473,0.00231
1850.03456,0.00230
1847.97439,0.00215
1845.91422,0.00207
1843.85404,0.00238
1841.79387,0.00294
1839.73370,0.00323
1837.67353,0.00308
1835.61336,0.00278
1833.55318,0.00264
1831.49301,0.00260
1829.43284,0.00250
1827.37267,0.00243
1825.31250,0.00252
1823.25232,0.00270
1821.19215,0.00282
1819.13198,0.00278
1817.07181,0.00271
1815.01163,0.00282
1812.95146,0.00299
1810.89129,0.00298
1808.83112,0.00299
1806.77095,0.00321
1804.71077,0.00350
1802.65060,0.00353
1800.59043,0.00329
1798.53026,0.00307
1796.47009,0.00302
1794.40991,0.00304
1792.34974,0.00299
1790.28957,0.00290
1788.22940,0.00290
1786.16923,0.00299
1784.10905,0.00310
1782.04888,0.00314
1779.98871,0.00309
1777.92854,0.00298
1775.86836,0.00286
1773.80819,0.00281
1771.74802,0.00292
1769.68785,0.00322
1767.62768,0.00348
1765.56750,0.00357
1763.50733,0.00363
1761.44716,0.00366
1759.38699,0.00346
1757.32682,0.00319
1755.26664,0.00321
1753.20647,0.00340
1751.14630,0.00343
1749.08613,0.00330
1747.02596,0.00332
1744.96578,0.00362
1742.90561,0.00397
1740.84544,0.00412
1738.78527,0.00404
1736.72509,0.00386
1734.66492,0.00374
1732.60475,0.00384
1730.54458,0.00407
1728.48441,0.00425
1726.42423,0.00442
1724.36406,0.00462
1722.30389,0.00474
1720.24372,0.00458
1718.18355,0.00426
1716.12337,0.00434
1714.06320,0.00484
1712.00303,0.00517
1709.94286,0.00524
1707.88268,0.00527
1705.82251,0.00530
1703.76234,0.00521
1701.70217,0.00502
1699.64200,0.00507
1697.58182,0.00551
1695.52165,0.00598
1693.46148,0.00630
1691.40131,0.00643
1689.34114,0.00640
1687.28096,0.00633
1685.22079,0.00643
1683.16062,0.00674
1681.10045,0.00704
1679.04028,0.00724
1676.98010,0.00736
1674.91993,0.00739
1672.85976,0.00749
1670.79959,0.00790
1668.73941,0.00851
1666.67924,0.00876
1664.61907,0.00864
1662.55890,0.00853
1660.49873,0.00856
1658.43855,0.00862
1656.37838,0.00873
1654.31821,0.00889
1652.25804,0.00890
1650.19787,0.00881
1648.13769,0.00873
1646.07752,0.00862
1644.01735,0.00857
1641.95718,0.00855
1639.89701,0.00840
1637.83683,0.00814
1635.77666,0.00815
1633.71649,0.00846
1631.65632,0.00851
1629.59614,0.00825
1627.53597,0.00805
1625.47580,0.00805
1623.41563,0.00812
1621.35546,0.00815
1619.29528,0.00812
1617.23511,0.00811
1615.17494,0.00821
1613.11477,0.00824
1611.05460,0.00804
1608.99442,0.00774
1606.93425,0.00753
1604.87408,0.00747
1602.81391,0.00746
1600.75373,0.00738
1598.69356,0.00721
1596.63339,0.00694
1594.57322,0.00665
1592.51305,0.00643
1590.45287,0.00626
1588.39270,0.00609
1586.33253,0.00593
1584.27236,0.00575
1582.21219,0.00550
1580.15201,0.00521
1578.09184,0.00499
1576.03167,0.00493
1573.97150,0.00487
1571.91133,0.00451
1569.85115,0.00404
1567.79098,0.00401
1565.73081,0.00428
1563.67064,0.00443
1561.61046,0.00430
1559.55029,0.00392
1557.49012,0.00368
1555.42995,0.00374
1553.36978,0.00386
1551.30960,0.00387
1549.24943,0.00376
1547.18926,0.00362
1545.12909,0.00329
1543.06892,0.00268
1541.00874,0.00218
1538.94857,0.00225
1536.88840,0.00257
1534.82823,0.00273
1532.76805,0.00278
1530.70788,0.00284
1528.64771,0.00285
1526.58754,0.00274
1524.52737,0.00249
1522.46719,0.00219
1520.40702,0.00212
1518.34685,0.00233
1516.28668,0.00249
1514.22651,0.00253
1512.16633,0.00252
1510.10616,0.00231
1508.04599,0.00189
1505.98582,0.00171
1503.92565,0.00192
1501.86547,0.00211
1499.80530,0.00212
1497.74513,0.00211
1495.68496,0.00225
1493.62478,0.00242
1491.56461,0.00236
1489.50444,0.00214
1487.44427,0.00210
1485.38410,0.00232
1483.32392,0.00262
1481.26375,0.00283
1479.20358,0.00280
1477.14341,0.00258
1475.08324,0.00236
1473.02306,0.00229
1470.96289,0.00240
1468.90272,0.00263
1466.84255,0.00277
1464.78238,0.00278
1462.72220,0.00272
1460.66203,0.00260
1458.60186,0.00247
1456.54169,0.00260
1454.48151,0.00293
1452.42134,0.00305
1450.36117,0.00305
1448.30100,0.00308
1446.24083,0.00312
1444.18065,0.00309
1442.12048,0.00298
1440.06031,0.00276
1438.00014,0.00251
1435.93997,0.00247
1433.87979,0.00270
1431.81962,0.00292
1429.75945,0.00296
1427.69928,0.00287
1425.63910,0.00282
1423.57893,0.00293
1421.51876,0.00310
1419.45859,0.00324
1417.39842,0.00330
1415.33824,0.00330
1413.27807,0.00324
1411.21790,0.00313
1409.15773,0.00304
1407.09756,0.00306
1405.03738,0.00311
1402.97721,0.00310
1400.91704,0.00301
1398.85687,0.00286
1396.79670,0.00274
1394.73652,0.00274
1392.67635,0.00282
1390.61618,0.00279
1388.55601,0.00267
1386.49583,0.00275
1384.43566,0.00303
1382.37549,0.00321
1380.31532,0.00323
1378.25515,0.00319
1376.19497,0.00314
1374.13480,0.00320
1372.07463,0.00335
1370.01446,0.00343
1367.95429,0.00338
1365.89411,0.00331
1363.83394,0.00319
1361.77377,0.00298
1359.71360,0.00280
1357.65343,0.00271
1355.59325,0.00269
1353.53308,0.00275
1351.47291,0.00291
1349.41274,0.00304
1347.35256,0.00305
1345.29239,0.00305
1343.23222,0.00302
1341.17205,0.00288
1339.11188,0.00269
1337.05170,0.00259
1334.99153,0.00260
1332.93136,0.00274
1330.87119,0.00284
1328.81102,0.00284
1326.75084,0.00283
1324.69067,0.00283
1322.63050,0.00283
1320.57033,0.00285
1318.51015,0.00283
1316.44998,0.00278
1314.38981,0.00277
1312.32964,0.00284
1310.26947,0.00289
1308.20929,0.00285
1306.14912,0.00286
1304.08895,0.00297
1302.02878,0.00305
1299.96861,0.00302
1297.90843,0.00295
1295.84826,0.00295
1293.78809,0.00308
1291.72792,0.00321
1289.66775,0.00324
1287.60757,0.00326
1285.54740,0.00327
1283.48723,0.00329
1281.42706,0.00335
1279.36688,0.00338
1277.30671,0.00344
1275.24654,0.00350
1273.18637,0.00335
1271.12620,0.00309
1269.06602,0.00302
1267.00585,0.00308
1264.94568,0.00317
1262.88551,0.00333
1260.82534,0.00350
1258.76516,0.00353
1256.70499,0.00342
1254.64482,0.00324
1252.58465,0.00312
1250.52447,0.00312
1248.46430,0.00316
1246.40413,0.00313
1244.34396,0.00305
1242.28379,0.00299
1240.22361,0.00296
1238.16344,0.00288
1236.10327,0.00270
1234.04310,0.00260
1231.98293,0.00258
1229.92275,0.00254
1227.86258,0.00245
1225.80241,0.00231
1223.74224,0.00214
1221.68207,0.00211
1219.62189,0.00225
1217.56172,0.00233
1215.50155,0.00223
1213.44138,0.00206
1211.38120,0.00193
1209.32103,0.00187
1207.26086,0.00175
1205.20069,0.00159
1203.14052,0.00153
1201.08034,0.00159
1199.02017,0.00174
1196.96000,0.00198
1194.89983,0.00222
1192.83966,0.00247
1190.77948,0.00289
1188.71931,0.00333
1186.65914,0.00351
1184.59897,0.00361
1182.53880,0.00384
1180.47862,0.00419
1178.41845,0.00466
1176.35828,0.00513
1174.29811,0.00559
1172.23793,0.00612
1170.17776,0.00658
1168.11759,0.00693
1166.05742,0.00726
1163.99725,0.00756
1161.93707,0.00787
1159.87690,0.00832
1157.81673,0.00881
1155.75656,0.00906
1153.69639,0.00919
1151.63621,0.00942
1149.57604,0.00981
1147.51587,0.01028
1145.45570,0.01078
1143.39552,0.01140
1141.33535,0.01205
1139.27518,0.01245
1137.21501,0.01272
1135.15484,0.01317
1133.09466,0.01375
1131.03449,0.01429
1128.97432,0.01474
1126.91415,0.01512
1124.85398,0.01544
1122.79380,0.01580
1120.73363,0.01628
1118.67346,0.01678
1116.61329,0.01728
1114.55312,0.01793
1112.49294,0.01861
1110.43277,0.01913
1108.37260,0.01974
1106.31243,0.02043
1104.25225,0.02099
1102.19208,0.02150
1100.13191,0.02191
1098.07174,0.02228
1096.01157,0.02290
1093.95139,0.02361
1091.89122,0.02407
1089.83105,0.02445
1087.77088,0.02476
1085.71071,0.02492
1083.65053,0.02530
1081.59036,0.02601
1079.53019,0.02668
1077.47002,0.02717
1075.40985,0.02752
1073.34967,0.02781
1071.28950,0.02820
1069.22933,0.02858
1067.16916,0.02888
1065.10898,0.02923
1063.04881,0.02958
1060.98864,0.02982
1058.92847,0.02992
1056.86830,0.02986
1054.80812,0.02971
1052.74795,0.02954
1050.68778,0.02944
1048.62761,0.02932
1046.56744,0.02908
1044.50726,0.02872
1042.44709,0.02829
1040.38692,0.02791
1038.32675,0.02759
1036.26657,0.02722
1034.20640,0.02676
1032.14623,0.02626
1030.08606,0.02569
1028.02589,0.02499
1025.96571,0.02428
1023.90554,0.02365
1021.84537,0.02320
1019.78520,0.02291
1017.72503,0.02252
1015.66485,0.02199
1013.60468,0.02161
1011.54451,0.02145
1009.48434,0.02141
1007.42417,0.02141
1005.36399,0.02124
1003.30382,0.02102
1001.24365,0.02110
999.18348,0.02133
997.12330,0.02142
995.06313,0.02139
993.00296,0.02139
990.94279,0.02155
988.88262,0.02197
986.82244,0.02250
984.76227,0.02280
982.70210,0.02289
980.64193,0.02307
978.58176,0.02324
976.52158,0.02291
974.46141,0.02218
972.40124,0.02155
970.34107,0.02117
968.28089,0.02086
966.22072,0.02042
964.16055,0.01971
962.10038,0.01899
960.04021,0.01846
957.98003,0.01795
955.91986,0.01749
953.85969,0.01715
951.79952,0.01681
949.73935,0.01638
947.67917,0.01601
945.61900,0.01589
943.55883,0.01591
941.49866,0.01556
939.43849,0.01512
937.37831,0.01525
935.31814,0.01559
933.25797,0.01576
931.19780,0.01603
929.13762,0.01639
927.07745,0.01652
925.01728,0.01647
922.95711,0.01644
920.89694,0.01623
918.83676,0.01556
916.77659,0.01485
914.71642,0.01452
912.65625,0.01442
910.59608,0.01428
908.53590,0.01398
906.47573,0.01362
904.41556,0.01361
902.35539,0.01385
900.29522,0.01377
898.23504,0.01338
896.17487,0.01310
894.11470,0.01303
892.05453,0.01316
889.99435,0.01366
887.93418,0.01414
885.87401,0.01421
883.81384,0.01409
881.75367,0.01403
879.69349,0.01426
877.63332,0.01477
875.57315,0.01522
873.51298,0.01547
871.45281,0.01559
869.39263,0.01549
867.33246,0.01527
865.27229,0.01528
863.21212,0.01533
861.15194,0.01521
859.09177,0.01522
857.03160,0.01540
854.97143,0.01536
852.91126,0.01499
850.85108,0.01470
848.79091,0.01458
846.73074,0.01439
844.67057,0.01397
842.61040,0.01343
840.55022,0.01283
838.49005,0.01225
836.42988,0.01209
834.36971,0.01215
832.30954,0.01197
830.24936,0.01191
828.18919,0.01187
826.12902,0.01132
824.06885,0.01059
822.00867,0.01031
819.94850,0.01028
817.88833,0.01029
815.82816,0.01044
813.76799,0.01050
811.70781,0.01044
809.64764,0.01018
807.58747,0.00965
805.52730,0.00919
803.46713,0.00883
801.40695,0.00847
799.34678,0.00845
797.28661,0.00880
795.22644,0.00886
793.16627,0.00864
791.10609,0.00872
789.04592,0.00880
786.98575,0.00838
784.92558,0.00801
782.86540,0.00816
780.80523,0.00831
778.74506,0.00790
776.68489,0.00739
774.62472,0.00745
772.56454,0.00779
770.50437,0.00777
768.44420,0.00743
766.38403,0.00751
764.32386,0.00816
762.26368,0.00856
760.20351,0.00842
758.14334,0.00783
756.08317,0.00740
754.02299,0.00722
751.96282,0.00672
749.90265,0.00687
747.84248,0.00773
745.78231,0.00776
743.72213,0.00723
741.66196,0.00723
739.60179,0.00738
737.54162,0.00688
735.48145,0.00623
733.42127,0.00644
731.36110,0.00716
729.30093,0.00726
727.24076,0.00652
725.18059,0.00585
723.12041,0.00580
721.06024,0.00555
719.00007,0.00584
716.93990,0.00616
714.87972,0.00624
712.81955,0.00629
710.75938,0.00644
708.69921,0.00673
706.63904,0.00710
704.57886,0.00755
702.51869,0.00765
700.45852,0.00688
698.39835,0.00578
696.33818,0.00543
694.27800,0.00590
692.21783,0.00619
690.15766,0.00565
688.09749,0.00473
686.03731,0.00444
683.97714,0.00544
681.91697,0.00726
679.85680,0.00860
677.79663,0.00865
675.73645,0.00797
673.67628,0.00784
671.61611,0.00807
669.55594,0.00405
667.49577,0.00000
665.43559,0.00636
663.37542,0.00694
661.31525,0.00654
659.25508,0.00695
657.19491,0.00691
655.13473,0.00620
653.07456,0.00542
651.01439,0.00497
648.95422,0.00444
646.89404,0.00379
644.83387,0.00330
642.77370,0.00364
640.71353,0.00404
638.65336,0.00376
636.59318,0.00347
634.53301,0.00357
632.47284,0.00359
630.41267,0.00322
628.35250,0.00215
626.29232,0.00062
624.23215,0.00000
622.17198,0.00113
620.11181,0.00267
618.05164,0.00228
615.99146,0.00115
613.93129,0.00232
611.87112,0.00492
609.81095,0.00511
607.75077,0.00272
605.69060,0.00055
603.63043,-0.00066
601.57026,-0.00099
599.51009,0.00000
