Created as New Dataset,Sample 014 By Analyst Date Thursday, March 27 2025
cm-1,A
4000.00,-0.0020
3999.00,-0.0020
3998.00,-0.0020
3997.00,-0.0020
3996.00,-0.0020
3995.00,-0.0020
3994.00,-0.0020
3993.00,-0.0020
3992.00,-0.0020
3991.00,-0.0020
3990.00,-0.0020
3989.00,-0.0020
3988.00,-0.0020
3987.00,-0.0020
3986.00,-0.0020
3985.00,-0.0020
3984.00,-0.0020
3983.00,-0.0020
3982.00,-0.0020
3981.00,-0.0020
3980.00,-0.0020
3979.00,-0.0020
3978.00,-0.0020
3977.00,-0.0020
3976.00,-0.0020
3975.00,-0.0020
3974.00,-0.0020
3973.00,-0.0020
3972.00,-0.0020
3971.00,-0.0020
3970.00,-0.0020
3969.00,-0.0020
3968.00,-0.0020
3967.00,-0.0020
3966.00,-0.0020
3965.00,-0.0020
3964.00,-0.0020
3963.00,-0.0020
3962.00,-0.0020
3961.00,-0.0020
3960.00,-0.0020
3959.00,-0.0020
3958.00,-0.0020
3957.00,-0.0020
3956.00,-0.0020
3955.00,-0.0020
3954.00,-0.0020
3953.00,-0.0020
3952.00,-0.0020
3951.00,-0.0020
3950.00,-0.0020
3949.00,-0.0020
3948.00,-0.0020
3947.00,-0.0020
3946.00,-0.0020
3945.00,-0.0020
3944.00,-0.0020
3943.00,-0.0019
3942.00,-0.0019
3941.00,-0.0019
3940.00,-0.0020
3939.00,-0.0020
3938.00,-0.0019
3937.00,-0.0019
3936.00,-0.0019
3935.00,-0.0019
3934.00,-0.0019
3933.00,-0.0019
3932.00,-0.0019
3931.00,-0.0019
3930.00,-0.0019
3929.00,-0.0019
3928.00,-0.0019
3927.00,-0.0019
3926.00,-0.0019
3925.00,-0.0019
3924.00,-0.0019
3923.00,-0.0019
3922.00,-0.0019
3921.00,-0.0019
3920.00,-0.0019
3919.00,-0.0019
3918.00,-0.0019
3917.00,-0.0019
3916.00,-0.0019
3915.00,-0.0019
3914.00,-0.0019
3913.00,-0.0019
3912.00,-0.0019
3911.00,-0.0019
3910.00,-0.0020
3909.00,-0.0020
3908.00,-0.0020
3907.00,-0.0020
3906.00,-0.0020
3905.00,-0.0020
3904.00,-0.0020
3903.00,-0.0020
3902.00,-0.0020
3901.00,-0.0020
3900.00,-0.0020
3899.00,-0.0019
3898.00,-0.0019
3897.00,-0.0019
3896.00,-0.0019
3895.00,-0.0019
3894.00,-0.0020
3893.00,-0.0020
3892.00,-0.0019
3891.00,-0.0019
3890.00,-0.0020
3889.00,-0.0020
3888.00,-0.0020
3887.00,-0.0020
3886.00,-0.0020
3885.00,-0.0020
3884.00,-0.0020
3883.00,-0.0020
3882.00,-0.0020
3881.00,-0.0019
3880.00,-0.0019
3879.00,-0.0019
3878.00,-0.0019
3877.00,-0.0019
3876.00,-0.0019
3875.00,-0.0019
3874.00,-0.0019
3873.00,-0.0020
3872.00,-0.0020
3871.00,-0.0020
3870.00,-0.0020
3869.00,-0.0020
3868.00,-0.0020
3867.00,-0.0020
3866.00,-0.0020
3865.00,-0.0020
3864.00,-0.0020
3863.00,-0.0020
3862.00,-0.0020
3861.00,-0.0019
3860.00,-0.0019
3859.00,-0.0020
3858.00,-0.0020
3857.00,-0.0021
3856.00,-0.0022
3855.00,-0.0022
3854.00,-0.0022
3853.00,-0.0022
3852.00,-0.0022
3851.00,-0.0022
3850.00,-0.0021
3849.00,-0.0021
3848.00,-0.0020
3847.00,-0.0019
3846.00,-0.0019
3845.00,-0.0019
3844.00,-0.0019
3843.00,-0.0019
3842.00,-0.0020
3841.00,-0.0020
3840.00,-0.0020
3839.00,-0.0020
3838.00,-0.0020
3837.00,-0.0020
3836.00,-0.0020
3835.00,-0.0020
3834.00,-0.0020
3833.00,-0.0020
3832.00,-0.0019
3831.00,-0.0019
3830.00,-0.0019
3829.00,-0.0019
3828.00,-0.0019
3827.00,-0.0019
3826.00,-0.0019
3825.00,-0.0019
3824.00,-0.0020
3823.00,-0.0020
3822.00,-0.0020
3821.00,-0.0020
3820.00,-0.0020
3819.00,-0.0021
3818.00,-0.0021
3817.00,-0.0020
3816.00,-0.0020
3815.00,-0.0020
3814.00,-0.0020
3813.00,-0.0020
3812.00,-0.0019
3811.00,-0.0019
3810.00,-0.0019
3809.00,-0.0019
3808.00,-0.0020
3807.00,-0.0020
3806.00,-0.0020
3805.00,-0.0020
3804.00,-0.0021
3803.00,-0.0021
3802.00,-0.0020
3801.00,-0.0020
3800.00,-0.0020
3799.00,-0.0020
3798.00,-0.0020
3797.00,-0.0020
3796.00,-0.0019
3795.00,-0.0019
3794.00,-0.0019
3793.00,-0.0019
3792.00,-0.0019
3791.00,-0.0019
3790.00,-0.0018
3789.00,-0.0018
3788.00,-0.0019
3787.00,-0.0019
3786.00,-0.0019
3785.00,-0.0019
3784.00,-0.0019
3783.00,-0.0019
3782.00,-0.0019
3781.00,-0.0019
3780.00,-0.0019
3779.00,-0.0018
3778.00,-0.0018
3777.00,-0.0018
3776.00,-0.0018
3775.00,-0.0018
3774.00,-0.0018
3773.00,-0.0019
3772.00,-0.0019
3771.00,-0.0019
3770.00,-0.0019
3769.00,-0.0019
3768.00,-0.0019
3767.00,-0.0019
3766.00,-0.0019
3765.00,-0.0019
3764.00,-0.0019
3763.00,-0.0019
3762.00,-0.0019
3761.00,-0.0019
3760.00,-0.0019
3759.00,-0.0019
3758.00,-0.0019
3757.00,-0.0019
3756.00,-0.0019
3755.00,-0.0020
3754.00,-0.0021
3753.00,-0.0021
3752.00,-0.0022
3751.00,-0.0022
3750.00,-0.0022
3749.00,-0.0022
3748.00,-0.0022
3747.00,-0.0022
3746.00,-0.0022
3745.00,-0.0021
3744.00,-0.0020
3743.00,-0.0020
3742.00,-0.0020
3741.00,-0.0020
3740.00,-0.0019
3739.00,-0.0019
3738.00,-0.0019
3737.00,-0.0019
3736.00,-0.0019
3735.00,-0.0019
3734.00,-0.0019
3733.00,-0.0019
3732.00,-0.0018
3731.00,-0.0018
3730.00,-0.0018
3729.00,-0.0018
3728.00,-0.0018
3727.00,-0.0018
3726.00,-0.0018
3725.00,-0.0018
3724.00,-0.0018
3723.00,-0.0018
3722.00,-0.0018
3721.00,-0.0018
3720.00,-0.0018
3719.00,-0.0018
3718.00,-0.0018
3717.00,-0.0018
3716.00,-0.0019
3715.00,-0.0019
3714.00,-0.0020
3713.00,-0.0020
3712.00,-0.0020
3711.00,-0.0020
3710.00,-0.0020
3709.00,-0.0020
3708.00,-0.0019
3707.00,-0.0019
3706.00,-0.0018
3705.00,-0.0018
3704.00,-0.0018
3703.00,-0.0018
3702.00,-0.0018
3701.00,-0.0018
3700.00,-0.0018
3699.00,-0.0018
3698.00,-0.0018
3697.00,-0.0018
3696.00,-0.0018
3695.00,-0.0019
3694.00,-0.0019
3693.00,-0.0019
3692.00,-0.0020
3691.00,-0.0020
3690.00,-0.0020
3689.00,-0.0020
3688.00,-0.0020
3687.00,-0.0020
3686.00,-0.0020
3685.00,-0.0019
3684.00,-0.0019
3683.00,-0.0019
3682.00,-0.0019
3681.00,-0.0019
3680.00,-0.0019
3679.00,-0.0020
3678.00,-0.0020
3677.00,-0.0021
3676.00,-0.0020
3675.00,-0.0020
3674.00,-0.0020
3673.00,-0.0021
3672.00,-0.0020
3671.00,-0.0020
3670.00,-0.0019
3669.00,-0.0019
3668.00,-0.0019
3667.00,-0.0019
3666.00,-0.0019
3665.00,-0.0018
3664.00,-0.0018
3663.00,-0.0018
3662.00,-0.0018
3661.00,-0.0018
3660.00,-0.0018
3659.00,-0.0019
3658.00,-0.0019
3657.00,-0.0019
3656.00,-0.0019
3655.00,-0.0019
3654.00,-0.0019
3653.00,-0.0020
3652.00,-0.0020
3651.00,-0.0020
3650.00,-0.0020
3649.00,-0.0020
3648.00,-0.0020
3647.00,-0.0020
3646.00,-0.0019
3645.00,-0.0019
3644.00,-0.0019
3643.00,-0.0019
3642.00,-0.0019
3641.00,-0.0019
3640.00,-0.0019
3639.00,-0.0019
3638.00,-0.0019
3637.00,-0.0019
3636.00,-0.0019
3635.00,-0.0019
3634.00,-0.0019
3633.00,-0.0019
3632.00,-0.0019
3631.00,-0.0020
3630.00,-0.0020
3629.00,-0.0019
3628.00,-0.0019
3627.00,-0.0019
3626.00,-0.0019
3625.00,-0.0018
3624.00,-0.0018
3623.00,-0.0018
3622.00,-0.0018
3621.00,-0.0018
3620.00,-0.0018
3619.00,-0.0018
3618.00,-0.0018
3617.00,-0.0019
3616.00,-0.0019
3615.00,-0.0019
3614.00,-0.0019
3613.00,-0.0019
3612.00,-0.0019
3611.00,-0.0019
3610.00,-0.0019
3609.00,-0.0019
3608.00,-0.0018
3607.00,-0.0018
3606.00,-0.0018
3605.00,-0.0018
3604.00,-0.0018
3603.00,-0.0018
3602.00,-0.0018
3601.00,-0.0018
3600.00,-0.0018
3599.00,-0.0018
3598.00,-0.0018
3597.00,-0.0018
3596.00,-0.0018
3595.00,-0.0018
3594.00,-0.0018
3593.00,-0.0018
3592.00,-0.0019
3591.00,-0.0019
3590.00,-0.0019
3589.00,-0.0019
3588.00,-0.0019
3587.00,-0.0018
3586.00,-0.0018
3585.00,-0.0019
3584.00,-0.0019
3583.00,-0.0018
3582.00,-0.0018
3581.00,-0.0018
3580.00,-0.0018
3579.00,-0.0018
3578.00,-0.0018
3577.00,-0.0019
3576.00,-0.0019
3575.00,-0.0019
3574.00,-0.0019
3573.00,-0.0018
3572.00,-0.0018
3571.00,-0.0019
3570.00,-0.0019
3569.00,-0.0019
3568.00,-0.0018
3567.00,-0.0018
3566.00,-0.0018
3565.00,-0.0018
3564.00,-0.0018
3563.00,-0.0018
3562.00,-0.0018
3561.00,-0.0018
3560.00,-0.0018
3559.00,-0.0018
3558.00,-0.0018
3557.00,-0.0018
3556.00,-0.0018
3555.00,-0.0018
3554.00,-0.0018
3553.00,-0.0018
3552.00,-0.0018
3551.00,-0.0018
3550.00,-0.0018
3549.00,-0.0018
3548.00,-0.0018
3547.00,-0.0018
3546.00,-0.0018
3545.00,-0.0018
3544.00,-0.0019
3543.00,-0.0019
3542.00,-0.0019
3541.00,-0.0019
3540.00,-0.0019
3539.00,-0.0019
3538.00,-0.0019
3537.00,-0.0019
3536.00,-0.0019
3535.00,-0.0019
3534.00,-0.0019
3533.00,-0.0019
3532.00,-0.0019
3531.00,-0.0019
3530.00,-0.0019
3529.00,-0.0019
3528.00,-0.0019
3527.00,-0.0019
3526.00,-0.0019
3525.00,-0.0019
3524.00,-0.0019
3523.00,-0.0018
3522.00,-0.0018
3521.00,-0.0018
3520.00,-0.0018
3519.00,-0.0018
3518.00,-0.0018
3517.00,-0.0018
3516.00,-0.0018
3515.00,-0.0018
3514.00,-0.0018
3513.00,-0.0019
3512.00,-0.0019
3511.00,-0.0019
3510.00,-0.0018
3509.00,-0.0018
3508.00,-0.0018
3507.00,-0.0018
3506.00,-0.0018
3505.00,-0.0018
3504.00,-0.0018
3503.00,-0.0018
3502.00,-0.0018
3501.00,-0.0018
3500.00,-0.0018
3499.00,-0.0018
3498.00,-0.0018
3497.00,-0.0018
3496.00,-0.0018
3495.00,-0.0019
3494.00,-0.0019
3493.00,-0.0019
3492.00,-0.0019
3491.00,-0.0019
3490.00,-0.0019
3489.00,-0.0019
3488.00,-0.0019
3487.00,-0.0019
3486.00,-0.0019
3485.00,-0.0019
3484.00,-0.0019
3483.00,-0.0019
3482.00,-0.0019
3481.00,-0.0019
3480.00,-0.0019
3479.00,-0.0019
3478.00,-0.0019
3477.00,-0.0019
3476.00,-0.0019
3475.00,-0.0019
3474.00,-0.0019
3473.00,-0.0019
3472.00,-0.0019
3471.00,-0.0018
3470.00,-0.0018
3469.00,-0.0019
3468.00,-0.0019
3467.00,-0.0019
3466.00,-0.0019
3465.00,-0.0019
3464.00,-0.0019
3463.00,-0.0019
3462.00,-0.0019
3461.00,-0.0018
3460.00,-0.0018
3459.00,-0.0018
3458.00,-0.0018
3457.00,-0.0018
3456.00,-0.0018
3455.00,-0.0018
3454.00,-0.0018
3453.00,-0.0018
3452.00,-0.0018
3451.00,-0.0019
3450.00,-0.0019
3449.00,-0.0019
3448.00,-0.0018
3447.00,-0.0018
3446.00,-0.0018
3445.00,-0.0019
3444.00,-0.0019
3443.00,-0.0019
3442.00,-0.0019
3441.00,-0.0019
3440.00,-0.0019
3439.00,-0.0019
3438.00,-0.0019
3437.00,-0.0019
3436.00,-0.0019
3435.00,-0.0019
3434.00,-0.0019
3433.00,-0.0019
3432.00,-0.0019
3431.00,-0.0019
3430.00,-0.0019
3429.00,-0.0019
3428.00,-0.0019
3427.00,-0.0019
3426.00,-0.0019
3425.00,-0.0019
3424.00,-0.0019
3423.00,-0.0019
3422.00,-0.0019
3421.00,-0.0019
3420.00,-0.0019
3419.00,-0.0019
3418.00,-0.0019
3417.00,-0.0019
3416.00,-0.0019
3415.00,-0.0019
3414.00,-0.0019
3413.00,-0.0019
3412.00,-0.0019
3411.00,-0.0019
3410.00,-0.0019
3409.00,-0.0019
3408.00,-0.0019
3407.00,-0.0019
3406.00,-0.0019
3405.00,-0.0019
3404.00,-0.0018
3403.00,-0.0018
3402.00,-0.0018
3401.00,-0.0018
3400.00,-0.0018
3399.00,-0.0018
3398.00,-0.0018
3397.00,-0.0018
3396.00,-0.0018
3395.00,-0.0018
3394.00,-0.0018
3393.00,-0.0018
3392.00,-0.0018
3391.00,-0.0019
3390.00,-0.0019
3389.00,-0.0019
3388.00,-0.0019
3387.00,-0.0019
3386.00,-0.0019
3385.00,-0.0019
3384.00,-0.0019
3383.00,-0.0019
3382.00,-0.0019
3381.00,-0.0019
3380.00,-0.0019
3379.00,-0.0019
3378.00,-0.0019
3377.00,-0.0019
3376.00,-0.0019
3375.00,-0.0019
3374.00,-0.0019
3373.00,-0.0019
3372.00,-0.0019
3371.00,-0.0019
3370.00,-0.0019
3369.00,-0.0019
3368.00,-0.0019
3367.00,-0.0019
3366.00,-0.0019
3365.00,-0.0019
3364.00,-0.0019
3363.00,-0.0019
3362.00,-0.0019
3361.00,-0.0019
3360.00,-0.0019
3359.00,-0.0019
3358.00,-0.0019
3357.00,-0.0018
3356.00,-0.0018
3355.00,-0.0018
3354.00,-0.0018
3353.00,-0.0018
3352.00,-0.0018
3351.00,-0.0018
3350.00,-0.0018
3349.00,-0.0018
3348.00,-0.0019
3347.00,-0.0019
3346.00,-0.0019
3345.00,-0.0019
3344.00,-0.0019
3343.00,-0.0019
3342.00,-0.0019
3341.00,-0.0019
3340.00,-0.0019
3339.00,-0.0019
3338.00,-0.0019
3337.00,-0.0019
3336.00,-0.0019
3335.00,-0.0019
3334.00,-0.0019
3333.00,-0.0019
3332.00,-0.0019
3331.00,-0.0019
3330.00,-0.0019
3329.00,-0.0019
3328.00,-0.0019
3327.00,-0.0019
3326.00,-0.0019
3325.00,-0.0019
3324.00,-0.0019
3323.00,-0.0019
3322.00,-0.0019
3321.00,-0.0019
3320.00,-0.0019
3319.00,-0.0019
3318.00,-0.0019
3317.00,-0.0019
3316.00,-0.0019
3315.00,-0.0019
3314.00,-0.0019
3313.00,-0.0019
3312.00,-0.0019
3311.00,-0.0019
3310.00,-0.0019
3309.00,-0.0019
3308.00,-0.0019
3307.00,-0.0019
3306.00,-0.0019
3305.00,-0.0019
3304.00,-0.0019
3303.00,-0.0018
3302.00,-0.0018
3301.00,-0.0018
3300.00,-0.0018
3299.00,-0.0018
3298.00,-0.0018
3297.00,-0.0018
3296.00,-0.0018
3295.00,-0.0018
3294.00,-0.0018
3293.00,-0.0018
3292.00,-0.0018
3291.00,-0.0019
3290.00,-0.0019
3289.00,-0.0019
3288.00,-0.0018
3287.00,-0.0018
3286.00,-0.0018
3285.00,-0.0018
3284.00,-0.0019
3283.00,-0.0019
3282.00,-0.0019
3281.00,-0.0019
3280.00,-0.0019
3279.00,-0.0019
3278.00,-0.0019
3277.00,-0.0019
3276.00,-0.0019
3275.00,-0.0019
3274.00,-0.0019
3273.00,-0.0019
3272.00,-0.0019
3271.00,-0.0019
3270.00,-0.0019
3269.00,-0.0019
3268.00,-0.0019
3267.00,-0.0019
3266.00,-0.0019
3265.00,-0.0019
3264.00,-0.0019
3263.00,-0.0019
3262.00,-0.0019
3261.00,-0.0019
3260.00,-0.0019
3259.00,-0.0019
3258.00,-0.0019
3257.00,-0.0019
3256.00,-0.0019
3255.00,-0.0019
3254.00,-0.0019
3253.00,-0.0019
3252.00,-0.0019
3251.00,-0.0018
3250.00,-0.0018
3249.00,-0.0018
3248.00,-0.0018
3247.00,-0.0018
3246.00,-0.0018
3245.00,-0.0018
3244.00,-0.0018
3243.00,-0.0019
3242.00,-0.0019
3241.00,-0.0019
3240.00,-0.0019
3239.00,-0.0019
3238.00,-0.0019
3237.00,-0.0019
3236.00,-0.0018
3235.00,-0.0018
3234.00,-0.0018
3233.00,-0.0019
3232.00,-0.0019
3231.00,-0.0019
3230.00,-0.0019
3229.00,-0.0019
3228.00,-0.0019
3227.00,-0.0019
3226.00,-0.0019
3225.00,-0.0019
3224.00,-0.0019
3223.00,-0.0019
3222.00,-0.0019
3221.00,-0.0019
3220.00,-0.0019
3219.00,-0.0019
3218.00,-0.0019
3217.00,-0.0019
3216.00,-0.0019
3215.00,-0.0019
3214.00,-0.0019
3213.00,-0.0019
3212.00,-0.0019
3211.00,-0.0019
3210.00,-0.0019
3209.00,-0.0019
3208.00,-0.0019
3207.00,-0.0019
3206.00,-0.0019
3205.00,-0.0019
3204.00,-0.0019
3203.00,-0.0019
3202.00,-0.0019
3201.00,-0.0019
3200.00,-0.0018
3199.00,-0.0018
3198.00,-0.0018
3197.00,-0.0018
3196.00,-0.0018
3195.00,-0.0018
3194.00,-0.0019
3193.00,-0.0019
3192.00,-0.0019
3191.00,-0.0019
3190.00,-0.0019
3189.00,-0.0018
3188.00,-0.0018
3187.00,-0.0018
3186.00,-0.0019
3185.00,-0.0019
3184.00,-0.0018
3183.00,-0.0018
3182.00,-0.0018
3181.00,-0.0019
3180.00,-0.0019
3179.00,-0.0019
3178.00,-0.0019
3177.00,-0.0019
3176.00,-0.0019
3175.00,-0.0019
3174.00,-0.0019
3173.00,-0.0019
3172.00,-0.0019
3171.00,-0.0019
3170.00,-0.0019
3169.00,-0.0019
3168.00,-0.0019
3167.00,-0.0019
3166.00,-0.0019
3165.00,-0.0019
3164.00,-0.0019
3163.00,-0.0019
3162.00,-0.0019
3161.00,-0.0019
3160.00,-0.0019
3159.00,-0.0019
3158.00,-0.0019
3157.00,-0.0019
3156.00,-0.0019
3155.00,-0.0019
3154.00,-0.0019
3153.00,-0.0019
3152.00,-0.0019
3151.00,-0.0019
3150.00,-0.0019
3149.00,-0.0019
3148.00,-0.0019
3147.00,-0.0019
3146.00,-0.0019
3145.00,-0.0019
3144.00,-0.0019
3143.00,-0.0018
3142.00,-0.0018
3141.00,-0.0018
3140.00,-0.0018
3139.00,-0.0018
3138.00,-0.0019
3137.00,-0.0019
3136.00,-0.0019
3135.00,-0.0019
3134.00,-0.0019
3133.00,-0.0019
3132.00,-0.0019
3131.00,-0.0019
3130.00,-0.0019
3129.00,-0.0019
3128.00,-0.0019
3127.00,-0.0019
3126.00,-0.0019
3125.00,-0.0019
3124.00,-0.0019
3123.00,-0.0019
3122.00,-0.0019
3121.00,-0.0019
3120.00,-0.0019
3119.00,-0.0019
3118.00,-0.0019
3117.00,-0.0019
3116.00,-0.0019
3115.00,-0.0019
3114.00,-0.0019
3113.00,-0.0019
3112.00,-0.0019
3111.00,-0.0019
3110.00,-0.0019
3109.00,-0.0019
3108.00,-0.0019
3107.00,-0.0019
3106.00,-0.0019
3105.00,-0.0019
3104.00,-0.0019
3103.00,-0.0019
3102.00,-0.0019
3101.00,-0.0019
3100.00,-0.0019
3099.00,-0.0019
3098.00,-0.0019
3097.00,-0.0019
3096.00,-0.0019
3095.00,-0.0019
3094.00,-0.0019
3093.00,-0.0019
3092.00,-0.0019
3091.00,-0.0019
3090.00,-0.0018
3089.00,-0.0018
3088.00,-0.0018
3087.00,-0.0018
3086.00,-0.0019
3085.00,-0.0019
3084.00,-0.0019
3083.00,-0.0019
3082.00,-0.0019
3081.00,-0.0019
3080.00,-0.0019
3079.00,-0.0019
3078.00,-0.0019
3077.00,-0.0019
3076.00,-0.0019
3075.00,-0.0019
3074.00,-0.0019
3073.00,-0.0019
3072.00,-0.0019
3071.00,-0.0019
3070.00,-0.0019
3069.00,-0.0019
3068.00,-0.0019
3067.00,-0.0019
3066.00,-0.0019
3065.00,-0.0019
3064.00,-0.0019
3063.00,-0.0019
3062.00,-0.0019
3061.00,-0.0019
3060.00,-0.0019
3059.00,-0.0019
3058.00,-0.0019
3057.00,-0.0019
3056.00,-0.0019
3055.00,-0.0019
3054.00,-0.0019
3053.00,-0.0019
3052.00,-0.0019
3051.00,-0.0019
3050.00,-0.0019
3049.00,-0.0019
3048.00,-0.0019
3047.00,-0.0019
3046.00,-0.0019
3045.00,-0.0019
3044.00,-0.0019
3043.00,-0.0019
3042.00,-0.0018
3041.00,-0.0018
3040.00,-0.0019
3039.00,-0.0019
3038.00,-0.0019
3037.00,-0.0019
3036.00,-0.0019
3035.00,-0.0019
3034.00,-0.0019
3033.00,-0.0019
3032.00,-0.0019
3031.00,-0.0019
3030.00,-0.0019
3029.00,-0.0019
3028.00,-0.0019
3027.00,-0.0019
3026.00,-0.0019
3025.00,-0.0019
3024.00,-0.0019
3023.00,-0.0019
3022.00,-0.0018
3021.00,-0.0018
3020.00,-0.0018
3019.00,-0.0019
3018.00,-0.0019
3017.00,-0.0019
3016.00,-0.0019
3015.00,-0.0019
3014.00,-0.0019
3013.00,-0.0019
3012.00,-0.0019
3011.00,-0.0019
3010.00,-0.0019
3009.00,-0.0019
3008.00,-0.0019
3007.00,-0.0019
3006.00,-0.0019
3005.00,-0.0019
3004.00,-0.0019
3003.00,-0.0019
3002.00,-0.0019
3001.00,-0.0019
3000.00,-0.0019
2999.00,-0.0019
2998.00,-0.0019
2997.00,-0.0019
2996.00,-0.0019
2995.00,-0.0019
2994.00,-0.0019
2993.00,-0.0019
2992.00,-0.0019
2991.00,-0.0019
2990.00,-0.0019
2989.00,-0.0019
2988.00,-0.0019
2987.00,-0.0019
2986.00,-0.0019
2985.00,-0.0019
2984.00,-0.0019
2983.00,-0.0019
2982.00,-0.0019
2981.00,-0.0019
2980.00,-0.0019
2979.00,-0.0019
2978.00,-0.0019
2977.00,-0.0019
2976.00,-0.0019
2975.00,-0.0019
2974.00,-0.0019
2973.00,-0.0019
2972.00,-0.0019
2971.00,-0.0019
2970.00,-0.0019
2969.00,-0.0019
2968.00,-0.0019
2967.00,-0.0019
2966.00,-0.0019
2965.00,-0.0019
2964.00,-0.0019
2963.00,-0.0019
2962.00,-0.0019
2961.00,-0.0019
2960.00,-0.0019
2959.00,-0.0019
2958.00,-0.0019
2957.00,-0.0019
2956.00,-0.0019
2955.00,-0.0019
2954.00,-0.0019
2953.00,-0.0019
2952.00,-0.0019
2951.00,-0.0019
2950.00,-0.0019
2949.00,-0.0019
2948.00,-0.0019
2947.00,-0.0019
2946.00,-0.0019
2945.00,-0.0019
2944.00,-0.0019
2943.00,-0.0019
2942.00,-0.0019
2941.00,-0.0019
2940.00,-0.0019
2939.00,-0.0019
2938.00,-0.0019
2937.00,-0.0019
2936.00,-0.0019
2935.00,-0.0019
2934.00,-0.0019
2933.00,-0.0019
2932.00,-0.0019
2931.00,-0.0019
2930.00,-0.0019
2929.00,-0.0019
2928.00,-0.0019
2927.00,-0.0019
2926.00,-0.0019
2925.00,-0.0019
2924.00,-0.0019
2923.00,-0.0019
2922.00,-0.0019
2921.00,-0.0019
2920.00,-0.0019
2919.00,-0.0019
2918.00,-0.0019
2917.00,-0.0019
2916.00,-0.0019
2915.00,-0.0019
2914.00,-0.0019
2913.00,-0.0019
2912.00,-0.0019
2911.00,-0.0019
2910.00,-0.0019
2909.00,-0.0019
2908.00,-0.0019
2907.00,-0.0019
2906.00,-0.0019
2905.00,-0.0019
2904.00,-0.0019
2903.00,-0.0019
2902.00,-0.0019
2901.00,-0.0019
2900.00,-0.0019
2899.00,-0.0019
2898.00,-0.0019
2897.00,-0.0019
2896.00,-0.0019
2895.00,-0.0019
2894.00,-0.0019
2893.00,-0.0019
2892.00,-0.0019
2891.00,-0.0019
2890.00,-0.0019
2889.00,-0.0019
2888.00,-0.0019
2887.00,-0.0019
2886.00,-0.0019
2885.00,-0.0019
2884.00,-0.0019
2883.00,-0.0019
2882.00,-0.0019
2881.00,-0.0019
2880.00,-0.0019
2879.00,-0.0019
2878.00,-0.0019
2877.00,-0.0019
2876.00,-0.0019
2875.00,-0.0019
2874.00,-0.0019
2873.00,-0.0019
2872.00,-0.0019
2871.00,-0.0019
2870.00,-0.0019
2869.00,-0.0019
2868.00,-0.0019
2867.00,-0.0019
2866.00,-0.0019
2865.00,-0.0019
2864.00,-0.0019
2863.00,-0.0019
2862.00,-0.0019
2861.00,-0.0019
2860.00,-0.0019
2859.00,-0.0019
2858.00,-0.0019
2857.00,-0.0019
2856.00,-0.0019
2855.00,-0.0019
2854.00,-0.0019
2853.00,-0.0019
2852.00,-0.0019
2851.00,-0.0019
2850.00,-0.0019
2849.00,-0.0019
2848.00,-0.0019
2847.00,-0.0019
2846.00,-0.0019
2845.00,-0.0019
2844.00,-0.0019
2843.00,-0.0019
2842.00,-0.0019
2841.00,-0.0019
2840.00,-0.0019
2839.00,-0.0019
2838.00,-0.0019
2837.00,-0.0019
2836.00,-0.0019
2835.00,-0.0019
2834.00,-0.0019
2833.00,-0.0019
2832.00,-0.0019
2831.00,-0.0019
2830.00,-0.0019
2829.00,-0.0019
2828.00,-0.0019
2827.00,-0.0019
2826.00,-0.0019
2825.00,-0.0019
2824.00,-0.0019
2823.00,-0.0019
2822.00,-0.0019
2821.00,-0.0019
2820.00,-0.0019
2819.00,-0.0019
2818.00,-0.0019
2817.00,-0.0019
2816.00,-0.0019
2815.00,-0.0019
2814.00,-0.0019
2813.00,-0.0019
2812.00,-0.0019
2811.00,-0.0019
2810.00,-0.0019
2809.00,-0.0019
2808.00,-0.0019
2807.00,-0.0019
2806.00,-0.0019
2805.00,-0.0019
2804.00,-0.0019
2803.00,-0.0019
2802.00,-0.0019
2801.00,-0.0019
2800.00,-0.0019
2799.00,-0.0019
2798.00,-0.0019
2797.00,-0.0019
2796.00,-0.0019
2795.00,-0.0019
2794.00,-0.0019
2793.00,-0.0019
2792.00,-0.0019
2791.00,-0.0019
2790.00,-0.0019
2789.00,-0.0019
2788.00,-0.0019
2787.00,-0.0019
2786.00,-0.0019
2785.00,-0.0019
2784.00,-0.0019
2783.00,-0.0019
2782.00,-0.0019
2781.00,-0.0019
2780.00,-0.0019
2779.00,-0.0019
2778.00,-0.0019
2777.00,-0.0019
2776.00,-0.0019
2775.00,-0.0019
2774.00,-0.0019
2773.00,-0.0019
2772.00,-0.0019
2771.00,-0.0019
2770.00,-0.0019
2769.00,-0.0019
2768.00,-0.0019
2767.00,-0.0019
2766.00,-0.0019
2765.00,-0.0019
2764.00,-0.0019
2763.00,-0.0019
2762.00,-0.0019
2761.00,-0.0019
2760.00,-0.0019
2759.00,-0.0019
2758.00,-0.0019
2757.00,-0.0019
2756.00,-0.0019
2755.00,-0.0019
2754.00,-0.0019
2753.00,-0.0019
2752.00,-0.0019
2751.00,-0.0019
2750.00,-0.0019
2749.00,-0.0019
2748.00,-0.0019
2747.00,-0.0019
2746.00,-0.0019
2745.00,-0.0019
2744.00,-0.0019
2743.00,-0.0019
2742.00,-0.0019
2741.00,-0.0019
2740.00,-0.0019
2739.00,-0.0019
2738.00,-0.0019
2737.00,-0.0019
2736.00,-0.0019
2735.00,-0.0019
2734.00,-0.0019
2733.00,-0.0019
2732.00,-0.0019
2731.00,-0.0019
2730.00,-0.0019
2729.00,-0.0019
2728.00,-0.0019
2727.00,-0.0019
2726.00,-0.0019
2725.00,-0.0019
2724.00,-0.0019
2723.00,-0.0019
2722.00,-0.0019
2721.00,-0.0019
2720.00,-0.0019
2719.00,-0.0019
2718.00,-0.0019
2717.00,-0.0019
2716.00,-0.0019
2715.00,-0.0019
2714.00,-0.0019
2713.00,-0.0019
2712.00,-0.0019
2711.00,-0.0019
2710.00,-0.0019
2709.00,-0.0019
2708.00,-0.0019
2707.00,-0.0019
2706.00,-0.0019
2705.00,-0.0019
2704.00,-0.0019
2703.00,-0.0019
2702.00,-0.0019
2701.00,-0.0019
2700.00,-0.0019
2699.00,-0.0019
2698.00,-0.0019
2697.00,-0.0019
2696.00,-0.0019
2695.00,-0.0019
2694.00,-0.0019
2693.00,-0.0019
2692.00,-0.0019
2691.00,-0.0019
2690.00,-0.0019
2689.00,-0.0019
2688.00,-0.0019
2687.00,-0.0019
2686.00,-0.0019
2685.00,-0.0019
2684.00,-0.0019
2683.00,-0.0019
2682.00,-0.0019
2681.00,-0.0019
2680.00,-0.0019
2679.00,-0.0019
2678.00,-0.0019
2677.00,-0.0019
2676.00,-0.0019
2675.00,-0.0019
2674.00,-0.0019
2673.00,-0.0019
2672.00,-0.0019
2671.00,-0.0019
2670.00,-0.0019
2669.00,-0.0019
2668.00,-0.0019
2667.00,-0.0019
2666.00,-0.0019
2665.00,-0.0019
2664.00,-0.0019
2663.00,-0.0019
2662.00,-0.0019
2661.00,-0.0019
2660.00,-0.0019
2659.00,-0.0019
2658.00,-0.0019
2657.00,-0.0019
2656.00,-0.0019
2655.00,-0.0019
2654.00,-0.0019
2653.00,-0.0019
2652.00,-0.0019
2651.00,-0.0019
2650.00,-0.0019
2649.00,-0.0019
2648.00,-0.0019
2647.00,-0.0019
2646.00,-0.0019
2645.00,-0.0019
2644.00,-0.0019
2643.00,-0.0019
2642.00,-0.0019
2641.00,-0.0019
2640.00,-0.0019
2639.00,-0.0019
2638.00,-0.0019
2637.00,-0.0019
2636.00,-0.0019
2635.00,-0.0019
2634.00,-0.0019
2633.00,-0.0019
2632.00,-0.0019
2631.00,-0.0019
2630.00,-0.0019
2629.00,-0.0019
2628.00,-0.0019
2627.00,-0.0019
2626.00,-0.0019
2625.00,-0.0019
2624.00,-0.0019
2623.00,-0.0019
2622.00,-0.0019
2621.00,-0.0019
2620.00,-0.0019
2619.00,-0.0019
2618.00,-0.0019
2617.00,-0.0019
2616.00,-0.0019
2615.00,-0.0019
2614.00,-0.0019
2613.00,-0.0019
2612.00,-0.0019
2611.00,-0.0019
2610.00,-0.0019
2609.00,-0.0019
2608.00,-0.0019
2607.00,-0.0019
2606.00,-0.0019
2605.00,-0.0019
2604.00,-0.0019
2603.00,-0.0019
2602.00,-0.0019
2601.00,-0.0019
2600.00,-0.0019
2599.00,-0.0019
2598.00,-0.0019
2597.00,-0.0019
2596.00,-0.0019
2595.00,-0.0019
2594.00,-0.0019
2593.00,-0.0019
2592.00,-0.0019
2591.00,-0.0019
2590.00,-0.0019
2589.00,-0.0019
2588.00,-0.0019
2587.00,-0.0019
2586.00,-0.0019
2585.00,-0.0019
2584.00,-0.0019
2583.00,-0.0019
2582.00,-0.0019
2581.00,-0.0019
2580.00,-0.0019
2579.00,-0.0020
2578.00,-0.0019
2577.00,-0.0019
2576.00,-0.0019
2575.00,-0.0019
2574.00,-0.0019
2573.00,-0.0019
2572.00,-0.0019
2571.00,-0.0019
2570.00,-0.0019
2569.00,-0.0019
2568.00,-0.0019
2567.00,-0.0019
2566.00,-0.0019
2565.00,-0.0019
2564.00,-0.0019
2563.00,-0.0019
2562.00,-0.0019
2561.00,-0.0019
2560.00,-0.0019
2559.00,-0.0019
2558.00,-0.0019
2557.00,-0.0019
2556.00,-0.0019
2555.00,-0.0019
2554.00,-0.0019
2553.00,-0.0019
2552.00,-0.0019
2551.00,-0.0019
2550.00,-0.0019
2549.00,-0.0019
2548.00,-0.0019
2547.00,-0.0019
2546.00,-0.0019
2545.00,-0.0019
2544.00,-0.0019
2543.00,-0.0019
2542.00,-0.0019
2541.00,-0.0019
2540.00,-0.0019
2539.00,-0.0019
2538.00,-0.0019
2537.00,-0.0019
2536.00,-0.0019
2535.00,-0.0019
2534.00,-0.0019
2533.00,-0.0019
2532.00,-0.0019
2531.00,-0.0019
2530.00,-0.0019
2529.00,-0.0020
2528.00,-0.0020
2527.00,-0.0020
2526.00,-0.0020
2525.00,-0.0020
2524.00,-0.0020
2523.00,-0.0020
2522.00,-0.0020
2521.00,-0.0020
2520.00,-0.0019
2519.00,-0.0019
2518.00,-0.0019
2517.00,-0.0019
2516.00,-0.0019
2515.00,-0.0019
2514.00,-0.0019
2513.00,-0.0019
2512.00,-0.0019
2511.00,-0.0019
2510.00,-0.0019
2509.00,-0.0019
2508.00,-0.0019
2507.00,-0.0019
2506.00,-0.0019
2505.00,-0.0019
2504.00,-0.0019
2503.00,-0.0019
2502.00,-0.0019
2501.00,-0.0019
2500.00,-0.0019
2499.00,-0.0019
2498.00,-0.0019
2497.00,-0.0019
2496.00,-0.0019
2495.00,-0.0019
2494.00,-0.0019
2493.00,-0.0019
2492.00,-0.0019
2491.00,-0.0019
2490.00,-0.0019
2489.00,-0.0019
2488.00,-0.0019
2487.00,-0.0019
2486.00,-0.0019
2485.00,-0.0019
2484.00,-0.0019
2483.00,-0.0019
2482.00,-0.0019
2481.00,-0.0019
2480.00,-0.0019
2479.00,-0.0019
2478.00,-0.0019
2477.00,-0.0019
2476.00,-0.0020
2475.00,-0.0020
2474.00,-0.0020
2473.00,-0.0020
2472.00,-0.0019
2471.00,-0.0019
2470.00,-0.0019
2469.00,-0.0019
2468.00,-0.0019
2467.00,-0.0019
2466.00,-0.0019
2465.00,-0.0019
2464.00,-0.0019
2463.00,-0.0019
2462.00,-0.0019
2461.00,-0.0019
2460.00,-0.0019
2459.00,-0.0019
2458.00,-0.0019
2457.00,-0.0019
2456.00,-0.0019
2455.00,-0.0019
2454.00,-0.0019
2453.00,-0.0019
2452.00,-0.0019
2451.00,-0.0019
2450.00,-0.0019
2449.00,-0.0019
2448.00,-0.0019
2447.00,-0.0019
2446.00,-0.0019
2445.00,-0.0019
2444.00,-0.0019
2443.00,-0.0019
2442.00,-0.0019
2441.00,-0.0019
2440.00,-0.0019
2439.00,-0.0019
2438.00,-0.0019
2437.00,-0.0019
2436.00,-0.0019
2435.00,-0.0019
2434.00,-0.0019
2433.00,-0.0019
2432.00,-0.0019
2431.00,-0.0020
2430.00,-0.0020
2429.00,-0.0020
2428.00,-0.0020
2427.00,-0.0020
2426.00,-0.0020
2425.00,-0.0020
2424.00,-0.0020
2423.00,-0.0020
2422.00,-0.0020
2421.00,-0.0020
2420.00,-0.0020
2419.00,-0.0020
2418.00,-0.0020
2417.00,-0.0020
2416.00,-0.0020
2415.00,-0.0020
2414.00,-0.0020
2413.00,-0.0020
2412.00,-0.0020
2411.00,-0.0020
2410.00,-0.0019
2409.00,-0.0019
2408.00,-0.0019
2407.00,-0.0019
2406.00,-0.0019
2405.00,-0.0019
2404.00,-0.0019
2403.00,-0.0019
2402.00,-0.0019
2401.00,-0.0019
2400.00,-0.0019
2399.00,-0.0019
2398.00,-0.0019
2397.00,-0.0019
2396.00,-0.0019
2395.00,-0.0019
2394.00,-0.0019
2393.00,-0.0019
2392.00,-0.0019
2391.00,-0.0019
2390.00,-0.0019
2389.00,-0.0019
2388.00,-0.0019
2387.00,-0.0020
2386.00,-0.0020
2385.00,-0.0020
2384.00,-0.0020
2383.00,-0.0019
2382.00,-0.0019
2381.00,-0.0019
2380.00,-0.0018
2379.00,-0.0018
2378.00,-0.0018
2377.00,-0.0018
2376.00,-0.0018
2375.00,-0.0019
2374.00,-0.0020
2373.00,-0.0020
2372.00,-0.0021
2371.00,-0.0021
2370.00,-0.0021
2369.00,-0.0020
2368.00,-0.0020
2367.00,-0.0019
2366.00,-0.0018
2365.00,-0.0018
2364.00,-0.0017
2363.00,-0.0017
2362.00,-0.0017
2361.00,-0.0017
2360.00,-0.0017
2359.00,-0.0018
2358.00,-0.0018
2357.00,-0.0018
2356.00,-0.0019
2355.00,-0.0019
2354.00,-0.0018
2353.00,-0.0018
2352.00,-0.0017
2351.00,-0.0017
2350.00,-0.0018
2349.00,-0.0019
2348.00,-0.0020
2347.00,-0.0020
2346.00,-0.0019
2345.00,-0.0019
2344.00,-0.0019
2343.00,-0.0020
2342.00,-0.0020
2341.00,-0.0020
2340.00,-0.0020
2339.00,-0.0019
2338.00,-0.0019
2337.00,-0.0019
2336.00,-0.0019
2335.00,-0.0019
2334.00,-0.0019
2333.00,-0.0019
2332.00,-0.0019
2331.00,-0.0019
2330.00,-0.0019
2329.00,-0.0019
2328.00,-0.0020
2327.00,-0.0020
2326.00,-0.0021
2325.00,-0.0021
2324.00,-0.0021
2323.00,-0.0021
2322.00,-0.0021
2321.00,-0.0021
2320.00,-0.0021
2319.00,-0.0021
2318.00,-0.0021
2317.00,-0.0021
2316.00,-0.0020
2315.00,-0.0020
2314.00,-0.0019
2313.00,-0.0019
2312.00,-0.0019
2311.00,-0.0019
2310.00,-0.0019
2309.00,-0.0019
2308.00,-0.0019
2307.00,-0.0019
2306.00,-0.0019
2305.00,-0.0019
2304.00,-0.0019
2303.00,-0.0019
2302.00,-0.0019
2301.00,-0.0019
2300.00,-0.0019
2299.00,-0.0019
2298.00,-0.0019
2297.00,-0.0019
2296.00,-0.0019
2295.00,-0.0019
2294.00,-0.0019
2293.00,-0.0019
2292.00,-0.0019
2291.00,-0.0019
2290.00,-0.0019
2289.00,-0.0019
2288.00,-0.0019
2287.00,-0.0019
2286.00,-0.0019
2285.00,-0.0019
2284.00,-0.0019
2283.00,-0.0019
2282.00,-0.0019
2281.00,-0.0019
2280.00,-0.0019
2279.00,-0.0019
2278.00,-0.0019
2277.00,-0.0019
2276.00,-0.0019
2275.00,-0.0019
2274.00,-0.0019
2273.00,-0.0019
2272.00,-0.0019
2271.00,-0.0019
2270.00,-0.0019
2269.00,-0.0019
2268.00,-0.0019
2267.00,-0.0019
2266.00,-0.0019
2265.00,-0.0019
2264.00,-0.0019
2263.00,-0.0019
2262.00,-0.0019
2261.00,-0.0020
2260.00,-0.0020
2259.00,-0.0020
2258.00,-0.0020
2257.00,-0.0020
2256.00,-0.0020
2255.00,-0.0020
2254.00,-0.0019
2253.00,-0.0019
2252.00,-0.0020
2251.00,-0.0020
2250.00,-0.0020
2249.00,-0.0020
2248.00,-0.0020
2247.00,-0.0019
2246.00,-0.0019
2245.00,-0.0019
2244.00,-0.0019
2243.00,-0.0019
2242.00,-0.0019
2241.00,-0.0019
2240.00,-0.0019
2239.00,-0.0019
2238.00,-0.0019
2237.00,-0.0019
2236.00,-0.0019
2235.00,-0.0019
2234.00,-0.0019
2233.00,-0.0019
2232.00,-0.0019
2231.00,-0.0019
2230.00,-0.0019
2229.00,-0.0019
2228.00,-0.0019
2227.00,-0.0019
2226.00,-0.0019
2225.00,-0.0019
2224.00,-0.0019
2223.00,-0.0019
2222.00,-0.0019
2221.00,-0.0019
2220.00,-0.0019
2219.00,-0.0020
2218.00,-0.0020
2217.00,-0.0020
2216.00,-0.0019
2215.00,-0.0019
2214.00,-0.0020
2213.00,-0.0020
2212.00,-0.0020
2211.00,-0.0020
2210.00,-0.0020
2209.00,-0.0020
2208.00,-0.0020
2207.00,-0.0020
2206.00,-0.0020
2205.00,-0.0020
2204.00,-0.0020
2203.00,-0.0020
2202.00,-0.0020
2201.00,-0.0020
2200.00,-0.0020
2199.00,-0.0019
2198.00,-0.0019
2197.00,-0.0019
2196.00,-0.0019
2195.00,-0.0019
2194.00,-0.0019
2193.00,-0.0019
2192.00,-0.0019
2191.00,-0.0019
2190.00,-0.0019
2189.00,-0.0019
2188.00,-0.0019
2187.00,-0.0019
2186.00,-0.0019
2185.00,-0.0019
2184.00,-0.0019
2183.00,-0.0019
2182.00,-0.0019
2181.00,-0.0019
2180.00,-0.0019
2179.00,-0.0019
2178.00,-0.0019
2177.00,-0.0019
2176.00,-0.0019
2175.00,-0.0019
2174.00,-0.0019
2173.00,-0.0019
2172.00,-0.0019
2171.00,-0.0019
2170.00,-0.0019
2169.00,-0.0019
2168.00,-0.0019
2167.00,-0.0020
2166.00,-0.0020
2165.00,-0.0020
2164.00,-0.0020
2163.00,-0.0020
2162.00,-0.0020
2161.00,-0.0020
2160.00,-0.0020
2159.00,-0.0020
2158.00,-0.0020
2157.00,-0.0020
2156.00,-0.0020
2155.00,-0.0020
2154.00,-0.0020
2153.00,-0.0020
2152.00,-0.0020
2151.00,-0.0020
2150.00,-0.0020
2149.00,-0.0020
2148.00,-0.0020
2147.00,-0.0020
2146.00,-0.0020
2145.00,-0.0020
2144.00,-0.0020
2143.00,-0.0020
2142.00,-0.0020
2141.00,-0.0020
2140.00,-0.0019
2139.00,-0.0019
2138.00,-0.0019
2137.00,-0.0019
2136.00,-0.0019
2135.00,-0.0019
2134.00,-0.0019
2133.00,-0.0019
2132.00,-0.0019
2131.00,-0.0019
2130.00,-0.0019
2129.00,-0.0019
2128.00,-0.0019
2127.00,-0.0019
2126.00,-0.0019
2125.00,-0.0019
2124.00,-0.0019
2123.00,-0.0019
2122.00,-0.0019
2121.00,-0.0019
2120.00,-0.0019
2119.00,-0.0019
2118.00,-0.0019
2117.00,-0.0019
2116.00,-0.0019
2115.00,-0.0019
2114.00,-0.0019
2113.00,-0.0020
2112.00,-0.0020
2111.00,-0.0020
2110.00,-0.0020
2109.00,-0.0020
2108.00,-0.0020
2107.00,-0.0020
2106.00,-0.0020
2105.00,-0.0020
2104.00,-0.0020
2103.00,-0.0020
2102.00,-0.0020
2101.00,-0.0020
2100.00,-0.0020
2099.00,-0.0020
2098.00,-0.0020
2097.00,-0.0020
2096.00,-0.0020
2095.00,-0.0020
2094.00,-0.0020
2093.00,-0.0020
2092.00,-0.0020
2091.00,-0.0020
2090.00,-0.0020
2089.00,-0.0020
2088.00,-0.0020
2087.00,-0.0020
2086.00,-0.0019
2085.00,-0.0019
2084.00,-0.0019
2083.00,-0.0019
2082.00,-0.0019
2081.00,-0.0019
2080.00,-0.0020
2079.00,-0.0019
2078.00,-0.0019
2077.00,-0.0019
2076.00,-0.0019
2075.00,-0.0020
2074.00,-0.0020
2073.00,-0.0020
2072.00,-0.0020
2071.00,-0.0019
2070.00,-0.0019
2069.00,-0.0019
2068.00,-0.0019
2067.00,-0.0019
2066.00,-0.0019
2065.00,-0.0019
2064.00,-0.0020
2063.00,-0.0020
2062.00,-0.0020
2061.00,-0.0020
2060.00,-0.0020
2059.00,-0.0019
2058.00,-0.0020
2057.00,-0.0020
2056.00,-0.0020
2055.00,-0.0020
2054.00,-0.0020
2053.00,-0.0020
2052.00,-0.0020
2051.00,-0.0020
2050.00,-0.0020
2049.00,-0.0020
2048.00,-0.0020
2047.00,-0.0020
2046.00,-0.0020
2045.00,-0.0020
2044.00,-0.0020
2043.00,-0.0020
2042.00,-0.0020
2041.00,-0.0020
2040.00,-0.0020
2039.00,-0.0020
2038.00,-0.0020
2037.00,-0.0020
2036.00,-0.0020
2035.00,-0.0020
2034.00,-0.0020
2033.00,-0.0019
2032.00,-0.0019
2031.00,-0.0019
2030.00,-0.0019
2029.00,-0.0019
2028.00,-0.0019
2027.00,-0.0019
2026.00,-0.0019
2025.00,-0.0019
2024.00,-0.0019
2023.00,-0.0019
2022.00,-0.0019
2021.00,-0.0019
2020.00,-0.0019
2019.00,-0.0019
2018.00,-0.0019
2017.00,-0.0019
2016.00,-0.0019
2015.00,-0.0019
2014.00,-0.0019
2013.00,-0.0019
2012.00,-0.0019
2011.00,-0.0019
2010.00,-0.0019
2009.00,-0.0019
2008.00,-0.0019
2007.00,-0.0020
2006.00,-0.0020
2005.00,-0.0020
2004.00,-0.0020
2003.00,-0.0020
2002.00,-0.0020
2001.00,-0.0020
2000.00,-0.0020
1999.00,-0.0020
1998.00,-0.0020
1997.00,-0.0020
1996.00,-0.0020
1995.00,-0.0020
1994.00,-0.0020
1993.00,-0.0020
1992.00,-0.0020
1991.00,-0.0020
1990.00,-0.0020
1989.00,-0.0020
1988.00,-0.0020
1987.00,-0.0020
1986.00,-0.0020
1985.00,-0.0020
1984.00,-0.0020
1983.00,-0.0020
1982.00,-0.0020
1981.00,-0.0020
1980.00,-0.0020
1979.00,-0.0020
1978.00,-0.0020
1977.00,-0.0019
1976.00,-0.0019
1975.00,-0.0019
1974.00,-0.0019
1973.00,-0.0019
1972.00,-0.0019
1971.00,-0.0019
1970.00,-0.0019
1969.00,-0.0019
1968.00,-0.0019
1967.00,-0.0019
1966.00,-0.0019
1965.00,-0.0019
1964.00,-0.0019
1963.00,-0.0019
1962.00,-0.0019
1961.00,-0.0019
1960.00,-0.0020
1959.00,-0.0020
1958.00,-0.0019
1957.00,-0.0019
1956.00,-0.0019
1955.00,-0.0020
1954.00,-0.0020
1953.00,-0.0020
1952.00,-0.0020
1951.00,-0.0020
1950.00,-0.0020
1949.00,-0.0020
1948.00,-0.0020
1947.00,-0.0020
1946.00,-0.0020
1945.00,-0.0020
1944.00,-0.0020
1943.00,-0.0020
1942.00,-0.0020
1941.00,-0.0020
1940.00,-0.0020
1939.00,-0.0020
1938.00,-0.0020
1937.00,-0.0020
1936.00,-0.0020
1935.00,-0.0020
1934.00,-0.0020
1933.00,-0.0020
1932.00,-0.0020
1931.00,-0.0020
1930.00,-0.0020
1929.00,-0.0020
1928.00,-0.0020
1927.00,-0.0020
1926.00,-0.0020
1925.00,-0.0019
1924.00,-0.0019
1923.00,-0.0019
1922.00,-0.0019
1921.00,-0.0019
1920.00,-0.0019
1919.00,-0.0019
1918.00,-0.0019
1917.00,-0.0019
1916.00,-0.0019
1915.00,-0.0019
1914.00,-0.0019
1913.00,-0.0019
1912.00,-0.0019
1911.00,-0.0019
1910.00,-0.0019
1909.00,-0.0019
1908.00,-0.0020
1907.00,-0.0020
1906.00,-0.0020
1905.00,-0.0020
1904.00,-0.0020
1903.00,-0.0020
1902.00,-0.0020
1901.00,-0.0020
1900.00,-0.0020
1899.00,-0.0020
1898.00,-0.0020
1897.00,-0.0020
1896.00,-0.0020
1895.00,-0.0020
1894.00,-0.0020
1893.00,-0.0020
1892.00,-0.0020
1891.00,-0.0020
1890.00,-0.0020
1889.00,-0.0020
1888.00,-0.0020
1887.00,-0.0020
1886.00,-0.0020
1885.00,-0.0020
1884.00,-0.0020
1883.00,-0.0020
1882.00,-0.0020
1881.00,-0.0020
1880.00,-0.0020
1879.00,-0.0020
1878.00,-0.0020
1877.00,-0.0020
1876.00,-0.0020
1875.00,-0.0020
1874.00,-0.0020
1873.00,-0.0020
1872.00,-0.0020
1871.00,-0.0020
1870.00,-0.0019
1869.00,-0.0019
1868.00,-0.0020
1867.00,-0.0020
1866.00,-0.0020
1865.00,-0.0019
1864.00,-0.0019
1863.00,-0.0019
1862.00,-0.0019
1861.00,-0.0019
1860.00,-0.0019
1859.00,-0.0019
1858.00,-0.0019
1857.00,-0.0019
1856.00,-0.0019
1855.00,-0.0020
1854.00,-0.0020
1853.00,-0.0020
1852.00,-0.0020
1851.00,-0.0020
1850.00,-0.0020
1849.00,-0.0020
1848.00,-0.0020
1847.00,-0.0020
1846.00,-0.0020
1845.00,-0.0020
1844.00,-0.0020
1843.00,-0.0020
1842.00,-0.0020
1841.00,-0.0020
1840.00,-0.0020
1839.00,-0.0020
1838.00,-0.0020
1837.00,-0.0020
1836.00,-0.0020
1835.00,-0.0020
1834.00,-0.0020
1833.00,-0.0020
1832.00,-0.0020
1831.00,-0.0020
1830.00,-0.0020
1829.00,-0.0020
1828.00,-0.0020
1827.00,-0.0020
1826.00,-0.0020
1825.00,-0.0020
1824.00,-0.0020
1823.00,-0.0020
1822.00,-0.0020
1821.00,-0.0020
1820.00,-0.0020
1819.00,-0.0020
1818.00,-0.0020
1817.00,-0.0020
1816.00,-0.0020
1815.00,-0.0020
1814.00,-0.0020
1813.00,-0.0019
1812.00,-0.0019
1811.00,-0.0019
1810.00,-0.0020
1809.00,-0.0020
1808.00,-0.0020
1807.00,-0.0020
1806.00,-0.0020
1805.00,-0.0020
1804.00,-0.0020
1803.00,-0.0020
1802.00,-0.0020
1801.00,-0.0020
1800.00,-0.0020
1799.00,-0.0020
1798.00,-0.0020
1797.00,-0.0020
1796.00,-0.0020
1795.00,-0.0020
1794.00,-0.0020
1793.00,-0.0020
1792.00,-0.0019
1791.00,-0.0019
1790.00,-0.0020
1789.00,-0.0019
1788.00,-0.0019
1787.00,-0.0019
1786.00,-0.0019
1785.00,-0.0019
1784.00,-0.0020
1783.00,-0.0020
1782.00,-0.0020
1781.00,-0.0020
1780.00,-0.0020
1779.00,-0.0020
1778.00,-0.0020
1777.00,-0.0020
1776.00,-0.0020
1775.00,-0.0020
1774.00,-0.0020
1773.00,-0.0020
1772.00,-0.0020
1771.00,-0.0020
1770.00,-0.0020
1769.00,-0.0019
1768.00,-0.0019
1767.00,-0.0019
1766.00,-0.0020
1765.00,-0.0020
1764.00,-0.0019
1763.00,-0.0019
1762.00,-0.0019
1761.00,-0.0020
1760.00,-0.0020
1759.00,-0.0019
1758.00,-0.0019
1757.00,-0.0019
1756.00,-0.0019
1755.00,-0.0019
1754.00,-0.0019
1753.00,-0.0019
1752.00,-0.0019
1751.00,-0.0019
1750.00,-0.0019
1749.00,-0.0019
1748.00,-0.0020
1747.00,-0.0020
1746.00,-0.0020
1745.00,-0.0020
1744.00,-0.0020
1743.00,-0.0020
1742.00,-0.0020
1741.00,-0.0020
1740.00,-0.0020
1739.00,-0.0020
1738.00,-0.0020
1737.00,-0.0020
1736.00,-0.0020
1735.00,-0.0020
1734.00,-0.0020
1733.00,-0.0020
1732.00,-0.0020
1731.00,-0.0020
1730.00,-0.0020
1729.00,-0.0020
1728.00,-0.0020
1727.00,-0.0020
1726.00,-0.0020
1725.00,-0.0020
1724.00,-0.0020
1723.00,-0.0020
1722.00,-0.0020
1721.00,-0.0020
1720.00,-0.0020
1719.00,-0.0020
1718.00,-0.0020
1717.00,-0.0020
1716.00,-0.0020
1715.00,-0.0020
1714.00,-0.0020
1713.00,-0.0020
1712.00,-0.0020
1711.00,-0.0020
1710.00,-0.0020
1709.00,-0.0020
1708.00,-0.0020
1707.00,-0.0020
1706.00,-0.0019
1705.00,-0.0020
1704.00,-0.0019
1703.00,-0.0019
1702.00,-0.0019
1701.00,-0.0019
1700.00,-0.0019
1699.00,-0.0020
1698.00,-0.0020
1697.00,-0.0019
1696.00,-0.0019
1695.00,-0.0019
1694.00,-0.0019
1693.00,-0.0019
1692.00,-0.0019
1691.00,-0.0019
1690.00,-0.0020
1689.00,-0.0020
1688.00,-0.0020
1687.00,-0.0020
1686.00,-0.0020
1685.00,-0.0020
1684.00,-0.0020
1683.00,-0.0020
1682.00,-0.0020
1681.00,-0.0020
1680.00,-0.0020
1679.00,-0.0020
1678.00,-0.0020
1677.00,-0.0020
1676.00,-0.0020
1675.00,-0.0020
1674.00,-0.0020
1673.00,-0.0020
1672.00,-0.0020
1671.00,-0.0020
1670.00,-0.0020
1669.00,-0.0020
1668.00,-0.0020
1667.00,-0.0020
1666.00,-0.0020
1665.00,-0.0020
1664.00,-0.0020
1663.00,-0.0020
1662.00,-0.0020
1661.00,-0.0020
1660.00,-0.0020
1659.00,-0.0020
1658.00,-0.0020
1657.00,-0.0020
1656.00,-0.0020
1655.00,-0.0020
1654.00,-0.0020
1653.00,-0.0020
1652.00,-0.0020
1651.00,-0.0020
1650.00,-0.0019
1649.00,-0.0019
1648.00,-0.0019
1647.00,-0.0020
1646.00,-0.0020
1645.00,-0.0020
1644.00,-0.0020
1643.00,-0.0020
1642.00,-0.0020
1641.00,-0.0020
1640.00,-0.0020
1639.00,-0.0020
1638.00,-0.0020
1637.00,-0.0020
1636.00,-0.0020
1635.00,-0.0020
1634.00,-0.0020
1633.00,-0.0020
1632.00,-0.0020
1631.00,-0.0020
1630.00,-0.0020
1629.00,-0.0020
1628.00,-0.0020
1627.00,-0.0020
1626.00,-0.0020
1625.00,-0.0020
1624.00,-0.0020
1623.00,-0.0020
1622.00,-0.0020
1621.00,-0.0020
1620.00,-0.0020
1619.00,-0.0020
1618.00,-0.0020
1617.00,-0.0020
1616.00,-0.0020
1615.00,-0.0020
1614.00,-0.0020
1613.00,-0.0020
1612.00,-0.0020
1611.00,-0.0020
1610.00,-0.0020
1609.00,-0.0020
1608.00,-0.0020
1607.00,-0.0020
1606.00,-0.0020
1605.00,-0.0020
1604.00,-0.0020
1603.00,-0.0020
1602.00,-0.0020
1601.00,-0.0020
1600.00,-0.0020
1599.00,-0.0020
1598.00,-0.0020
1597.00,-0.0020
1596.00,-0.0020
1595.00,-0.0020
1594.00,-0.0020
1593.00,-0.0020
1592.00,-0.0020
1591.00,-0.0020
1590.00,-0.0020
1589.00,-0.0020
1588.00,-0.0020
1587.00,-0.0020
1586.00,-0.0020
1585.00,-0.0020
1584.00,-0.0020
1583.00,-0.0020
1582.00,-0.0020
1581.00,-0.0020
1580.00,-0.0020
1579.00,-0.0020
1578.00,-0.0020
1577.00,-0.0020
1576.00,-0.0020
1575.00,-0.0020
1574.00,-0.0020
1573.00,-0.0020
1572.00,-0.0020
1571.00,-0.0020
1570.00,-0.0020
1569.00,-0.0020
1568.00,-0.0020
1567.00,-0.0020
1566.00,-0.0020
1565.00,-0.0020
1564.00,-0.0020
1563.00,-0.0020
1562.00,-0.0020
1561.00,-0.0020
1560.00,-0.0020
1559.00,-0.0020
1558.00,-0.0020
1557.00,-0.0020
1556.00,-0.0020
1555.00,-0.0020
1554.00,-0.0020
1553.00,-0.0020
1552.00,-0.0020
1551.00,-0.0020
1550.00,-0.0020
1549.00,-0.0020
1548.00,-0.0020
1547.00,-0.0020
1546.00,-0.0019
1545.00,-0.0019
1544.00,-0.0020
1543.00,-0.0020
1542.00,-0.0020
1541.00,-0.0020
1540.00,-0.0020
1539.00,-0.0020
1538.00,-0.0020
1537.00,-0.0020
1536.00,-0.0020
1535.00,-0.0020
1534.00,-0.0020
1533.00,-0.0020
1532.00,-0.0020
1531.00,-0.0020
1530.00,-0.0020
1529.00,-0.0020
1528.00,-0.0020
1527.00,-0.0020
1526.00,-0.0020
1525.00,-0.0020
1524.00,-0.0020
1523.00,-0.0020
1522.00,-0.0020
1521.00,-0.0020
1520.00,-0.0020
1519.00,-0.0020
1518.00,-0.0020
1517.00,-0.0020
1516.00,-0.0020
1515.00,-0.0020
1514.00,-0.0020
1513.00,-0.0020
1512.00,-0.0020
1511.00,-0.0020
1510.00,-0.0020
1509.00,-0.0020
1508.00,-0.0020
1507.00,-0.0020
1506.00,-0.0020
1505.00,-0.0020
1504.00,-0.0020
1503.00,-0.0020
1502.00,-0.0020
1501.00,-0.0020
1500.00,-0.0020
1499.00,-0.0020
1498.00,-0.0020
1497.00,-0.0020
1496.00,-0.0020
1495.00,-0.0019
1494.00,-0.0019
1493.00,-0.0019
1492.00,-0.0019
1491.00,-0.0019
1490.00,-0.0019
1489.00,-0.0020
1488.00,-0.0019
1487.00,-0.0019
1486.00,-0.0019
1485.00,-0.0019
1484.00,-0.0019
1483.00,-0.0019
1482.00,-0.0020
1481.00,-0.0020
1480.00,-0.0020
1479.00,-0.0020
1478.00,-0.0020
1477.00,-0.0020
1476.00,-0.0020
1475.00,-0.0020
1474.00,-0.0020
1473.00,-0.0020
1472.00,-0.0020
1471.00,-0.0020
1470.00,-0.0020
1469.00,-0.0020
1468.00,-0.0020
1467.00,-0.0020
1466.00,-0.0020
1465.00,-0.0020
1464.00,-0.0020
1463.00,-0.0020
1462.00,-0.0020
1461.00,-0.0020
1460.00,-0.0020
1459.00,-0.0020
1458.00,-0.0020
1457.00,-0.0020
1456.00,-0.0020
1455.00,-0.0020
1454.00,-0.0020
1453.00,-0.0020
1452.00,-0.0020
1451.00,-0.0020
1450.00,-0.0020
1449.00,-0.0020
1448.00,-0.0020
1447.00,-0.0019
1446.00,-0.0019
1445.00,-0.0019
1444.00,-0.0019
1443.00,-0.0019
1442.00,-0.0019
1441.00,-0.0019
1440.00,-0.0019
1439.00,-0.0019
1438.00,-0.0019
1437.00,-0.0019
1436.00,-0.0019
1435.00,-0.0020
1434.00,-0.0020
1433.00,-0.0020
1432.00,-0.0020
1431.00,-0.0020
1430.00,-0.0020
1429.00,-0.0020
1428.00,-0.0020
1427.00,-0.0020
1426.00,-0.0020
1425.00,-0.0020
1424.00,-0.0020
1423.00,-0.0020
1422.00,-0.0020
1421.00,-0.0020
1420.00,-0.0020
1419.00,-0.0020
1418.00,-0.0020
1417.00,-0.0020
1416.00,-0.0020
1415.00,-0.0020
1414.00,-0.0020
1413.00,-0.0020
1412.00,-0.0020
1411.00,-0.0020
1410.00,-0.0020
1409.00,-0.0020
1408.00,-0.0020
1407.00,-0.0020
1406.00,-0.0020
1405.00,-0.0020
1404.00,-0.0020
1403.00,-0.0020
1402.00,-0.0020
1401.00,-0.0020
1400.00,-0.0020
1399.00,-0.0020
1398.00,-0.0020
1397.00,-0.0020
1396.00,-0.0020
1395.00,-0.0020
1394.00,-0.0020
1393.00,-0.0020
1392.00,-0.0020
1391.00,-0.0020
1390.00,-0.0020
1389.00,-0.0020
1388.00,-0.0020
1387.00,-0.0020
1386.00,-0.0020
1385.00,-0.0020
1384.00,-0.0020
1383.00,-0.0020
1382.00,-0.0020
1381.00,-0.0020
1380.00,-0.0020
1379.00,-0.0020
1378.00,-0.0020
1377.00,-0.0020
1376.00,-0.0020
1375.00,-0.0020
1374.00,-0.0020
1373.00,-0.0020
1372.00,-0.0020
1371.00,-0.0020
1370.00,-0.0020
1369.00,-0.0020
1368.00,-0.0020
1367.00,-0.0020
1366.00,-0.0020
1365.00,-0.0020
1364.00,-0.0020
1363.00,-0.0020
1362.00,-0.0020
1361.00,-0.0020
1360.00,-0.0020
1359.00,-0.0020
1358.00,-0.0020
1357.00,-0.0020
1356.00,-0.0020
1355.00,-0.0020
1354.00,-0.0020
1353.00,-0.0020
1352.00,-0.0020
1351.00,-0.0020
1350.00,-0.0020
1349.00,-0.0020
1348.00,-0.0020
1347.00,-0.0020
1346.00,-0.0020
1345.00,-0.0020
1344.00,-0.0020
1343.00,-0.0020
1342.00,-0.0020
1341.00,-0.0020
1340.00,-0.0020
1339.00,-0.0020
1338.00,-0.0020
1337.00,-0.0020
1336.00,-0.0020
1335.00,-0.0020
1334.00,-0.0020
1333.00,-0.0020
1332.00,-0.0020
1331.00,-0.0020
1330.00,-0.0020
1329.00,-0.0020
1328.00,-0.0020
1327.00,-0.0020
1326.00,-0.0020
1325.00,-0.0019
1324.00,-0.0020
1323.00,-0.0020
1322.00,-0.0020
1321.00,-0.0020
1320.00,-0.0020
1319.00,-0.0019
1318.00,-0.0020
1317.00,-0.0020
1316.00,-0.0020
1315.00,-0.0020
1314.00,-0.0020
1313.00,-0.0020
1312.00,-0.0020
1311.00,-0.0020
1310.00,-0.0020
1309.00,-0.0020
1308.00,-0.0020
1307.00,-0.0020
1306.00,-0.0020
1305.00,-0.0020
1304.00,-0.0020
1303.00,-0.0020
1302.00,-0.0020
1301.00,-0.0020
1300.00,-0.0020
1299.00,-0.0020
1298.00,-0.0020
1297.00,-0.0020
1296.00,-0.0020
1295.00,-0.0020
1294.00,-0.0020
1293.00,-0.0020
1292.00,-0.0020
1291.00,-0.0020
1290.00,-0.0020
1289.00,-0.0020
1288.00,-0.0020
1287.00,-0.0019
1286.00,-0.0019
1285.00,-0.0019
1284.00,-0.0019
1283.00,-0.0019
1282.00,-0.0019
1281.00,-0.0019
1280.00,-0.0019
1279.00,-0.0019
1278.00,-0.0019
1277.00,-0.0019
1276.00,-0.0019
1275.00,-0.0020
1274.00,-0.0020
1273.00,-0.0020
1272.00,-0.0019
1271.00,-0.0019
1270.00,-0.0019
1269.00,-0.0019
1268.00,-0.0020
1267.00,-0.0020
1266.00,-0.0020
1265.00,-0.0020
1264.00,-0.0020
1263.00,-0.0020
1262.00,-0.0020
1261.00,-0.0020
1260.00,-0.0020
1259.00,-0.0020
1258.00,-0.0020
1257.00,-0.0020
1256.00,-0.0020
1255.00,-0.0020
1254.00,-0.0020
1253.00,-0.0020
1252.00,-0.0020
1251.00,-0.0020
1250.00,-0.0020
1249.00,-0.0020
1248.00,-0.0020
1247.00,-0.0020
1246.00,-0.0020
1245.00,-0.0020
1244.00,-0.0020
1243.00,-0.0020
1242.00,-0.0020
1241.00,-0.0020
1240.00,-0.0020
1239.00,-0.0020
1238.00,-0.0019
1237.00,-0.0020
1236.00,-0.0020
1235.00,-0.0020
1234.00,-0.0020
1233.00,-0.0019
1232.00,-0.0019
1231.00,-0.0019
1230.00,-0.0019
1229.00,-0.0019
1228.00,-0.0019
1227.00,-0.0019
1226.00,-0.0019
1225.00,-0.0019
1224.00,-0.0019
1223.00,-0.0019
1222.00,-0.0019
1221.00,-0.0019
1220.00,-0.0019
1219.00,-0.0019
1218.00,-0.0019
1217.00,-0.0019
1216.00,-0.0020
1215.00,-0.0020
1214.00,-0.0020
1213.00,-0.0019
1212.00,-0.0019
1211.00,-0.0019
1210.00,-0.0019
1209.00,-0.0019
1208.00,-0.0019
1207.00,-0.0019
1206.00,-0.0020
1205.00,-0.0020
1204.00,-0.0020
1203.00,-0.0020
1202.00,-0.0020
1201.00,-0.0020
1200.00,-0.0020
1199.00,-0.0020
1198.00,-0.0020
1197.00,-0.0020
1196.00,-0.0020
1195.00,-0.0020
1194.00,-0.0020
1193.00,-0.0020
1192.00,-0.0020
1191.00,-0.0020
1190.00,-0.0020
1189.00,-0.0020
1188.00,-0.0020
1187.00,-0.0020
1186.00,-0.0020
1185.00,-0.0020
1184.00,-0.0020
1183.00,-0.0020
1182.00,-0.0020
1181.00,-0.0020
1180.00,-0.0019
1179.00,-0.0020
1178.00,-0.0020
1177.00,-0.0020
1176.00,-0.0020
1175.00,-0.0020
1174.00,-0.0020
1173.00,-0.0020
1172.00,-0.0019
1171.00,-0.0019
1170.00,-0.0019
1169.00,-0.0019
1168.00,-0.0019
1167.00,-0.0019
1166.00,-0.0019
1165.00,-0.0019
1164.00,-0.0019
1163.00,-0.0019
1162.00,-0.0019
1161.00,-0.0019
1160.00,-0.0020
1159.00,-0.0020
1158.00,-0.0020
1157.00,-0.0020
1156.00,-0.0020
1155.00,-0.0020
1154.00,-0.0020
1153.00,-0.0020
1152.00,-0.0020
1151.00,-0.0020
1150.00,-0.0020
1149.00,-0.0020
1148.00,-0.0020
1147.00,-0.0020
1146.00,-0.0020
1145.00,-0.0020
1144.00,-0.0020
1143.00,-0.0020
1142.00,-0.0020
1141.00,-0.0020
1140.00,-0.0020
1139.00,-0.0020
1138.00,-0.0020
1137.00,-0.0020
1136.00,-0.0020
1135.00,-0.0020
1134.00,-0.0020
1133.00,-0.0020
1132.00,-0.0020
1131.00,-0.0020
1130.00,-0.0020
1129.00,-0.0020
1128.00,-0.0020
1127.00,-0.0020
1126.00,-0.0020
1125.00,-0.0020
1124.00,-0.0020
1123.00,-0.0020
1122.00,-0.0020
1121.00,-0.0020
1120.00,-0.0020
1119.00,-0.0020
1118.00,-0.0020
1117.00,-0.0020
1116.00,-0.0020
1115.00,-0.0020
1114.00,-0.0020
1113.00,-0.0020
1112.00,-0.0020
1111.00,-0.0020
1110.00,-0.0020
1109.00,-0.0020
1108.00,-0.0020
1107.00,-0.0020
1106.00,-0.0020
1105.00,-0.0020
1104.00,-0.0020
1103.00,-0.0020
1102.00,-0.0020
1101.00,-0.0020
1100.00,-0.0020
1099.00,-0.0020
1098.00,-0.0020
1097.00,-0.0020
1096.00,-0.0020
1095.00,-0.0020
1094.00,-0.0020
1093.00,-0.0020
1092.00,-0.0020
1091.00,-0.0020
1090.00,-0.0020
1089.00,-0.0020
1088.00,-0.0020
1087.00,-0.0020
1086.00,-0.0020
1085.00,-0.0020
1084.00,-0.0020
1083.00,-0.0020
1082.00,-0.0020
1081.00,-0.0020
1080.00,-0.0020
1079.00,-0.0020
1078.00,-0.0020
1077.00,-0.0020
1076.00,-0.0020
1075.00,-0.0020
1074.00,-0.0020
1073.00,-0.0020
1072.00,-0.0020
1071.00,-0.0020
1070.00,-0.0020
1069.00,-0.0020
1068.00,-0.0020
1067.00,-0.0020
1066.00,-0.0020
1065.00,-0.0020
1064.00,-0.0020
1063.00,-0.0020
1062.00,-0.0020
1061.00,-0.0020
1060.00,-0.0020
1059.00,-0.0020
1058.00,-0.0020
1057.00,-0.0020
1056.00,-0.0020
1055.00,-0.0020
1054.00,-0.0020
1053.00,-0.0020
1052.00,-0.0020
1051.00,-0.0020
1050.00,-0.0020
1049.00,-0.0020
1048.00,-0.0020
1047.00,-0.0020
1046.00,-0.0020
1045.00,-0.0020
1044.00,-0.0020
1043.00,-0.0020
1042.00,-0.0020
1041.00,-0.0020
1040.00,-0.0020
1039.00,-0.0020
1038.00,-0.0020
1037.00,-0.0020
1036.00,-0.0020
1035.00,-0.0020
1034.00,-0.0020
1033.00,-0.0020
1032.00,-0.0020
1031.00,-0.0020
1030.00,-0.0020
1029.00,-0.0020
1028.00,-0.0020
1027.00,-0.0020
1026.00,-0.0020
1025.00,-0.0020
1024.00,-0.0020
1023.00,-0.0020
1022.00,-0.0020
1021.00,-0.0020
1020.00,-0.0020
1019.00,-0.0020
1018.00,-0.0020
1017.00,-0.0020
1016.00,-0.0020
1015.00,-0.0020
1014.00,-0.0020
1013.00,-0.0020
1012.00,-0.0020
1011.00,-0.0020
1010.00,-0.0020
1009.00,-0.0020
1008.00,-0.0020
1007.00,-0.0020
1006.00,-0.0020
1005.00,-0.0020
1004.00,-0.0020
1003.00,-0.0020
1002.00,-0.0020
1001.00,-0.0020
1000.00,-0.0020
999.00,-0.0020
998.00,-0.0020
997.00,-0.0020
996.00,-0.0020
995.00,-0.0020
994.00,-0.0020
993.00,-0.0020
992.00,-0.0020
991.00,-0.0020
990.00,-0.0020
989.00,-0.0020
988.00,-0.0020
987.00,-0.0020
986.00,-0.0020
985.00,-0.0020
984.00,-0.0020
983.00,-0.0020
982.00,-0.0020
981.00,-0.0020
980.00,-0.0020
979.00,-0.0020
978.00,-0.0020
977.00,-0.0020
976.00,-0.0020
975.00,-0.0020
974.00,-0.0020
973.00,-0.0020
972.00,-0.0020
971.00,-0.0020
970.00,-0.0020
969.00,-0.0020
968.00,-0.0020
967.00,-0.0020
966.00,-0.0020
965.00,-0.0020
964.00,-0.0020
963.00,-0.0020
962.00,-0.0020
961.00,-0.0020
960.00,-0.0020
959.00,-0.0020
958.00,-0.0020
957.00,-0.0020
956.00,-0.0020
955.00,-0.0020
954.00,-0.0020
953.00,-0.0020
952.00,-0.0020
951.00,-0.0020
950.00,-0.0020
949.00,-0.0020
948.00,-0.0020
947.00,-0.0020
946.00,-0.0020
945.00,-0.0020
944.00,-0.0020
943.00,-0.0020
942.00,-0.0020
941.00,-0.0020
940.00,-0.0020
939.00,-0.0020
938.00,-0.0020
937.00,-0.0020
936.00,-0.0020
935.00,-0.0020
934.00,-0.0020
933.00,-0.0020
932.00,-0.0020
931.00,-0.0020
930.00,-0.0020
929.00,-0.0020
928.00,-0.0020
927.00,-0.0020
926.00,-0.0020
925.00,-0.0020
924.00,-0.0020
923.00,-0.0020
922.00,-0.0020
921.00,-0.0020
920.00,-0.0020
919.00,-0.0020
918.00,-0.0020
917.00,-0.0020
916.00,-0.0020
915.00,-0.0020
914.00,-0.0020
913.00,-0.0020
912.00,-0.0020
911.00,-0.0020
910.00,-0.0020
909.00,-0.0020
908.00,-0.0020
907.00,-0.0020
906.00,-0.0020
905.00,-0.0020
904.00,-0.0020
903.00,-0.0020
902.00,-0.0020
901.00,-0.0020
900.00,-0.0020
899.00,-0.0020
898.00,-0.0020
897.00,-0.0020
896.00,-0.0020
895.00,-0.0020
894.00,-0.0020
893.00,-0.0020
892.00,-0.0020
891.00,-0.0020
890.00,-0.0020
889.00,-0.0020
888.00,-0.0020
887.00,-0.0020
886.00,-0.0020
885.00,-0.0020
884.00,-0.0020
883.00,-0.0020
882.00,-0.0020
881.00,-0.0020
880.00,-0.0020
879.00,-0.0020
878.00,-0.0020
877.00,-0.0020
876.00,-0.0020
875.00,-0.0020
874.00,-0.0020
873.00,-0.0020
872.00,-0.0020
871.00,-0.0020
870.00,-0.0020
869.00,-0.0020
868.00,-0.0020
867.00,-0.0020
866.00,-0.0020
865.00,-0.0020
864.00,-0.0020
863.00,-0.0020
862.00,-0.0020
861.00,-0.0020
860.00,-0.0020
859.00,-0.0020
858.00,-0.0020
857.00,-0.0020
856.00,-0.0020
855.00,-0.0020
854.00,-0.0020
853.00,-0.0020
852.00,-0.0020
851.00,-0.0020
850.00,-0.0020
849.00,-0.0019
848.00,-0.0019
847.00,-0.0019
846.00,-0.0020
845.00,-0.0020
844.00,-0.0020
843.00,-0.0020
842.00,-0.0020
841.00,-0.0019
840.00,-0.0019
839.00,-0.0019
838.00,-0.0020
837.00,-0.0020
836.00,-0.0020
835.00,-0.0020
834.00,-0.0020
833.00,-0.0020
832.00,-0.0020
831.00,-0.0020
830.00,-0.0020
829.00,-0.0020
828.00,-0.0020
827.00,-0.0020
826.00,-0.0020
825.00,-0.0020
824.00,-0.0020
823.00,-0.0020
822.00,-0.0020
821.00,-0.0020
820.00,-0.0020
819.00,-0.0020
818.00,-0.0020
817.00,-0.0020
816.00,-0.0020
815.00,-0.0020
814.00,-0.0020
813.00,-0.0020
812.00,-0.0020
811.00,-0.0020
810.00,-0.0020
809.00,-0.0020
808.00,-0.0020
807.00,-0.0020
806.00,-0.0020
805.00,-0.0020
804.00,-0.0020
803.00,-0.0020
802.00,-0.0020
801.00,-0.0020
800.00,-0.0020
799.00,-0.0020
798.00,-0.0020
797.00,-0.0020
796.00,-0.0020
795.00,-0.0020
794.00,-0.0020
793.00,-0.0020
792.00,-0.0020
791.00,-0.0020
790.00,-0.0020
789.00,-0.0019
788.00,-0.0019
787.00,-0.0019
786.00,-0.0019
785.00,-0.0019
784.00,-0.0019
783.00,-0.0020
782.00,-0.0020
781.00,-0.0020
780.00,-0.0020
779.00,-0.0020
778.00,-0.0020
777.00,-0.0020
776.00,-0.0020
775.00,-0.0020
774.00,-0.0020
773.00,-0.0020
772.00,-0.0020
771.00,-0.0020
770.00,-0.0020
769.00,-0.0020
768.00,-0.0020
767.00,-0.0020
766.00,-0.0020
765.00,-0.0020
764.00,-0.0020
763.00,-0.0020
762.00,-0.0020
761.00,-0.0020
760.00,-0.0020
759.00,-0.0020
758.00,-0.0020
757.00,-0.0020
756.00,-0.0020
755.00,-0.0020
754.00,-0.0020
753.00,-0.0020
752.00,-0.0020
751.00,-0.0020
750.00,-0.0020
749.00,-0.0020
748.00,-0.0020
747.00,-0.0020
746.00,-0.0020
745.00,-0.0020
744.00,-0.0020
743.00,-0.0020
742.00,-0.0020
741.00,-0.0020
740.00,-0.0019
739.00,-0.0019
738.00,-0.0019
737.00,-0.0019
736.00,-0.0020
735.00,-0.0020
734.00,-0.0020
733.00,-0.0020
732.00,-0.0020
731.00,-0.0020
730.00,-0.0020
729.00,-0.0020
728.00,-0.0020
727.00,-0.0020
726.00,-0.0020
725.00,-0.0020
724.00,-0.0020
723.00,-0.0020
722.00,-0.0020
721.00,-0.0020
720.00,-0.0020
719.00,-0.0020
718.00,-0.0020
717.00,-0.0020
716.00,-0.0020
715.00,-0.0020
714.00,-0.0020
713.00,-0.0020
712.00,-0.0019
711.00,-0.0020
710.00,-0.0020
709.00,-0.0020
708.00,-0.0020
707.00,-0.0020
706.00,-0.0020
705.00,-0.0019
704.00,-0.0019
703.00,-0.0019
702.00,-0.0019
701.00,-0.0019
700.00,-0.0019
699.00,-0.0019
698.00,-0.0019
697.00,-0.0019
696.00,-0.0019
695.00,-0.0019
694.00,-0.0019
693.00,-0.0018
692.00,-0.0019
691.00,-0.0019
690.00,-0.0019
689.00,-0.0018
688.00,-0.0018
687.00,-0.0018
686.00,-0.0018
685.00,-0.0018
684.00,-0.0017
683.00,-0.0017
682.00,-0.0018
681.00,-0.0018
680.00,-0.0018
679.00,-0.0018
678.00,-0.0018
677.00,-0.0018
676.00,-0.0018
675.00,-0.0018
674.00,-0.0018
673.00,-0.0018
672.00,-0.0018
671.00,-0.0017
670.00,-0.0016
669.00,-0.0013
668.00,-0.0011
667.00,-0.0013
666.00,-0.0016
665.00,-0.0017
664.00,-0.0018
663.00,-0.0018
662.00,-0.0019
661.00,-0.0019
660.00,-0.0018
659.00,-0.0018
658.00,-0.0018
657.00,-0.0018
656.00,-0.0018
655.00,-0.0018
654.00,-0.0018
653.00,-0.0018
652.00,-0.0018
651.00,-0.0018
650.00,-0.0018
649.00,-0.0018
648.00,-0.0018
647.00,-0.0019
646.00,-0.0019
645.00,-0.0019
644.00,-0.0019
643.00,-0.0019
642.00,-0.0019
641.00,-0.0019
640.00,-0.0019
639.00,-0.0019
638.00,-0.0019
637.00,-0.0019
636.00,-0.0020
635.00,-0.0020
634.00,-0.0020
633.00,-0.0020
632.00,-0.0020
631.00,-0.0020
630.00,-0.0019
629.00,-0.0019
628.00,-0.0019
627.00,-0.0019
626.00,-0.0019
625.00,-0.0019
624.00,-0.0019
623.00,-0.0020
622.00,-0.0020
621.00,-0.0020
620.00,-0.0020
619.00,-0.0020
618.00,-0.0020
617.00,-0.0019
616.00,-0.0019
615.00,-0.0020
614.00,-0.0020
613.00,-0.0020
612.00,-0.0020
611.00,-0.0020
610.00,-0.0020
609.00,-0.0020
608.00,-0.0020
607.00,-0.0020
606.00,-0.0020
605.00,-0.0020
604.00,-0.0020
603.00,-0.0019
602.00,-0.0020
601.00,-0.0020
600.00,-0.0021
599.00,-0.0021
598.00,-0.0020
597.00,-0.0018
596.00,-0.0017
595.00,-0.0018
594.00,-0.0018
593.00,-0.0019
592.00,-0.0019
591.00,-0.0019
590.00,-0.0019
589.00,-0.0019
588.00,-0.0019
587.00,-0.0019
586.00,-0.0019
585.00,-0.0019
584.00,-0.0020
583.00,-0.0020
582.00,-0.0019
581.00,-0.0019
580.00,-0.0020
579.00,-0.0020
578.00,-0.0020
577.00,-0.0021
576.00,-0.0020
575.00,-0.0020
574.00,-0.0019
573.00,-0.0019
572.00,-0.0019
571.00,-0.0019
570.00,-0.0020
569.00,-0.0020
568.00,-0.0020
567.00,-0.0020
566.00,-0.0020
565.00,-0.0019
564.00,-0.0019
563.00,-0.0019
562.00,-0.0019
561.00,-0.0019
560.00,-0.0020
559.00,-0.0020
558.00,-0.0020
557.00,-0.0020
556.00,-0.0020
555.00,-0.0020
554.00,-0.0020
553.00,-0.0020
552.00,-0.0020
551.00,-0.0019
550.00,-0.0018
549.00,-0.0018
548.00,-0.0018
547.00,-0.0018
546.00,-0.0019
545.00,-0.0019
544.00,-0.0019
543.00,-0.0019
542.00,-0.0020
541.00,-0.0021
540.00,-0.0021
539.00,-0.0021
538.00,-0.0021
537.00,-0.0020
536.00,-0.0020
535.00,-0.0019
534.00,-0.0019
533.00,-0.0019
532.00,-0.0019
531.00,-0.0019
530.00,-0.0019
529.00,-0.0019
528.00,-0.0019
527.00,-0.0019
526.00,-0.0019
525.00,-0.0019
524.00,-0.0020
523.00,-0.0020
522.00,-0.0019
521.00,-0.0019
520.00,-0.0020
519.00,-0.0020
518.00,-0.0021
517.00,-0.0021
516.00,-0.0020
515.00,-0.0020
514.00,-0.0020
513.00,-0.0019
512.00,-0.0019
511.00,-0.0020
510.00,-0.0020
509.00,-0.0020
508.00,-0.0020
507.00,-0.0019
506.00,-0.0019
505.00,-0.0019
504.00,-0.0020
503.00,-0.0020
502.00,-0.0020
501.00,-0.0020
500.00,-0.0020
