Created as New Dataset,Sample 033 By Analyst Date Friday, March 28 2025
cm-1,A
4000.00,0.0010
3999.00,0.0009
3998.00,0.0009
3997.00,0.0009
3996.00,0.0009
3995.00,0.0009
3994.00,0.0009
3993.00,0.0009
3992.00,0.0009
3991.00,0.0010
3990.00,0.0010
3989.00,0.0010
3988.00,0.0010
3987.00,0.0010
3986.00,0.0010
3985.00,0.0010
3984.00,0.0010
3983.00,0.0010
3982.00,0.0010
3981.00,0.0010
3980.00,0.0010
3979.00,0.0010
3978.00,0.0010
3977.00,0.0010
3976.00,0.0010
3975.00,0.0010
3974.00,0.0010
3973.00,0.0010
3972.00,0.0010
3971.00,0.0010
3970.00,0.0010
3969.00,0.0010
3968.00,0.0010
3967.00,0.0010
3966.00,0.0010
3965.00,0.0010
3964.00,0.0010
3963.00,0.0010
3962.00,0.0010
3961.00,0.0010
3960.00,0.0010
3959.00,0.0010
3958.00,0.0010
3957.00,0.0010
3956.00,0.0010
3955.00,0.0010
3954.00,0.0010
3953.00,0.0010
3952.00,0.0010
3951.00,0.0010
3950.00,0.0010
3949.00,0.0010
3948.00,0.0010
3947.00,0.0010
3946.00,0.0010
3945.00,0.0010
3944.00,0.0010
3943.00,0.0010
3942.00,0.0010
3941.00,0.0010
3940.00,0.0010
3939.00,0.0010
3938.00,0.0010
3937.00,0.0010
3936.00,0.0010
3935.00,0.0010
3934.00,0.0010
3933.00,0.0010
3932.00,0.0010
3931.00,0.0010
3930.00,0.0010
3929.00,0.0010
3928.00,0.0010
3927.00,0.0010
3926.00,0.0010
3925.00,0.0010
3924.00,0.0010
3923.00,0.0010
3922.00,0.0010
3921.00,0.0010
3920.00,0.0010
3919.00,0.0010
3918.00,0.0010
3917.00,0.0010
3916.00,0.0010
3915.00,0.0010
3914.00,0.0010
3913.00,0.0010
3912.00,0.0010
3911.00,0.0010
3910.00,0.0010
3909.00,0.0010
3908.00,0.0010
3907.00,0.0010
3906.00,0.0010
3905.00,0.0010
3904.00,0.0010
3903.00,0.0010
3902.00,0.0010
3901.00,0.0011
3900.00,0.0011
3899.00,0.0011
3898.00,0.0011
3897.00,0.0011
3896.00,0.0011
3895.00,0.0010
3894.00,0.0011
3893.00,0.0011
3892.00,0.0011
3891.00,0.0011
3890.00,0.0011
3889.00,0.0011
3888.00,0.0011
3887.00,0.0011
3886.00,0.0010
3885.00,0.0010
3884.00,0.0011
3883.00,0.0011
3882.00,0.0011
3881.00,0.0011
3880.00,0.0011
3879.00,0.0011
3878.00,0.0011
3877.00,0.0011
3876.00,0.0011
3875.00,0.0011
3874.00,0.0011
3873.00,0.0011
3872.00,0.0012
3871.00,0.0012
3870.00,0.0012
3869.00,0.0012
3868.00,0.0012
3867.00,0.0012
3866.00,0.0011
3865.00,0.0011
3864.00,0.0011
3863.00,0.0012
3862.00,0.0012
3861.00,0.0011
3860.00,0.0011
3859.00,0.0011
3858.00,0.0012
3857.00,0.0013
3856.00,0.0013
3855.00,0.0013
3854.00,0.0013
3853.00,0.0013
3852.00,0.0014
3851.00,0.0013
3850.00,0.0013
3849.00,0.0012
3848.00,0.0012
3847.00,0.0012
3846.00,0.0011
3845.00,0.0011
3844.00,0.0011
3843.00,0.0011
3842.00,0.0011
3841.00,0.0012
3840.00,0.0012
3839.00,0.0012
3838.00,0.0012
3837.00,0.0012
3836.00,0.0012
3835.00,0.0012
3834.00,0.0012
3833.00,0.0012
3832.00,0.0012
3831.00,0.0012
3830.00,0.0012
3829.00,0.0012
3828.00,0.0011
3827.00,0.0011
3826.00,0.0011
3825.00,0.0011
3824.00,0.0011
3823.00,0.0011
3822.00,0.0011
3821.00,0.0011
3820.00,0.0012
3819.00,0.0013
3818.00,0.0013
3817.00,0.0013
3816.00,0.0013
3815.00,0.0012
3814.00,0.0012
3813.00,0.0012
3812.00,0.0012
3811.00,0.0012
3810.00,0.0012
3809.00,0.0012
3808.00,0.0012
3807.00,0.0011
3806.00,0.0011
3805.00,0.0012
3804.00,0.0012
3803.00,0.0012
3802.00,0.0012
3801.00,0.0012
3800.00,0.0013
3799.00,0.0013
3798.00,0.0012
3797.00,0.0012
3796.00,0.0012
3795.00,0.0012
3794.00,0.0012
3793.00,0.0012
3792.00,0.0012
3791.00,0.0012
3790.00,0.0012
3789.00,0.0012
3788.00,0.0012
3787.00,0.0012
3786.00,0.0011
3785.00,0.0011
3784.00,0.0012
3783.00,0.0012
3782.00,0.0012
3781.00,0.0012
3780.00,0.0012
3779.00,0.0012
3778.00,0.0012
3777.00,0.0012
3776.00,0.0012
3775.00,0.0011
3774.00,0.0011
3773.00,0.0011
3772.00,0.0011
3771.00,0.0011
3770.00,0.0011
3769.00,0.0012
3768.00,0.0012
3767.00,0.0012
3766.00,0.0012
3765.00,0.0012
3764.00,0.0012
3763.00,0.0012
3762.00,0.0011
3761.00,0.0011
3760.00,0.0011
3759.00,0.0012
3758.00,0.0012
3757.00,0.0012
3756.00,0.0012
3755.00,0.0013
3754.00,0.0013
3753.00,0.0013
3752.00,0.0014
3751.00,0.0014
3750.00,0.0014
3749.00,0.0014
3748.00,0.0014
3747.00,0.0014
3746.00,0.0015
3745.00,0.0015
3744.00,0.0015
3743.00,0.0015
3742.00,0.0015
3741.00,0.0014
3740.00,0.0013
3739.00,0.0013
3738.00,0.0013
3737.00,0.0012
3736.00,0.0012
3735.00,0.0011
3734.00,0.0011
3733.00,0.0011
3732.00,0.0011
3731.00,0.0012
3730.00,0.0012
3729.00,0.0013
3728.00,0.0013
3727.00,0.0013
3726.00,0.0013
3725.00,0.0012
3724.00,0.0012
3723.00,0.0012
3722.00,0.0012
3721.00,0.0012
3720.00,0.0012
3719.00,0.0012
3718.00,0.0012
3717.00,0.0012
3716.00,0.0012
3715.00,0.0013
3714.00,0.0013
3713.00,0.0013
3712.00,0.0014
3711.00,0.0014
3710.00,0.0014
3709.00,0.0014
3708.00,0.0013
3707.00,0.0013
3706.00,0.0012
3705.00,0.0012
3704.00,0.0011
3703.00,0.0011
3702.00,0.0011
3701.00,0.0011
3700.00,0.0011
3699.00,0.0012
3698.00,0.0012
3697.00,0.0012
3696.00,0.0012
3695.00,0.0012
3694.00,0.0012
3693.00,0.0012
3692.00,0.0012
3691.00,0.0012
3690.00,0.0012
3689.00,0.0012
3688.00,0.0013
3687.00,0.0013
3686.00,0.0013
3685.00,0.0013
3684.00,0.0013
3683.00,0.0013
3682.00,0.0013
3681.00,0.0013
3680.00,0.0013
3679.00,0.0013
3678.00,0.0013
3677.00,0.0013
3676.00,0.0014
3675.00,0.0014
3674.00,0.0014
3673.00,0.0015
3672.00,0.0014
3671.00,0.0014
3670.00,0.0014
3669.00,0.0014
3668.00,0.0014
3667.00,0.0014
3666.00,0.0014
3665.00,0.0013
3664.00,0.0013
3663.00,0.0013
3662.00,0.0013
3661.00,0.0012
3660.00,0.0012
3659.00,0.0012
3658.00,0.0012
3657.00,0.0012
3656.00,0.0012
3655.00,0.0013
3654.00,0.0013
3653.00,0.0012
3652.00,0.0012
3651.00,0.0012
3650.00,0.0013
3649.00,0.0013
3648.00,0.0014
3647.00,0.0014
3646.00,0.0014
3645.00,0.0014
3644.00,0.0013
3643.00,0.0013
3642.00,0.0013
3641.00,0.0013
3640.00,0.0012
3639.00,0.0012
3638.00,0.0012
3637.00,0.0012
3636.00,0.0012
3635.00,0.0012
3634.00,0.0011
3633.00,0.0011
3632.00,0.0012
3631.00,0.0012
3630.00,0.0012
3629.00,0.0012
3628.00,0.0013
3627.00,0.0012
3626.00,0.0012
3625.00,0.0012
3624.00,0.0011
3623.00,0.0011
3622.00,0.0011
3621.00,0.0010
3620.00,0.0010
3619.00,0.0010
3618.00,0.0011
3617.00,0.0011
3616.00,0.0012
3615.00,0.0012
3614.00,0.0012
3613.00,0.0013
3612.00,0.0013
3611.00,0.0013
3610.00,0.0012
3609.00,0.0012
3608.00,0.0012
3607.00,0.0012
3606.00,0.0012
3605.00,0.0011
3604.00,0.0011
3603.00,0.0011
3602.00,0.0011
3601.00,0.0011
3600.00,0.0011
3599.00,0.0011
3598.00,0.0011
3597.00,0.0011
3596.00,0.0011
3595.00,0.0011
3594.00,0.0012
3593.00,0.0012
3592.00,0.0012
3591.00,0.0012
3590.00,0.0012
3589.00,0.0012
3588.00,0.0012
3587.00,0.0012
3586.00,0.0012
3585.00,0.0012
3584.00,0.0012
3583.00,0.0012
3582.00,0.0012
3581.00,0.0012
3580.00,0.0012
3579.00,0.0011
3578.00,0.0011
3577.00,0.0011
3576.00,0.0011
3575.00,0.0011
3574.00,0.0011
3573.00,0.0011
3572.00,0.0011
3571.00,0.0011
3570.00,0.0011
3569.00,0.0011
3568.00,0.0011
3567.00,0.0012
3566.00,0.0012
3565.00,0.0012
3564.00,0.0012
3563.00,0.0012
3562.00,0.0012
3561.00,0.0012
3560.00,0.0012
3559.00,0.0012
3558.00,0.0011
3557.00,0.0011
3556.00,0.0011
3555.00,0.0011
3554.00,0.0011
3553.00,0.0011
3552.00,0.0011
3551.00,0.0011
3550.00,0.0011
3549.00,0.0011
3548.00,0.0011
3547.00,0.0011
3546.00,0.0011
3545.00,0.0011
3544.00,0.0011
3543.00,0.0011
3542.00,0.0011
3541.00,0.0011
3540.00,0.0011
3539.00,0.0011
3538.00,0.0011
3537.00,0.0011
3536.00,0.0011
3535.00,0.0011
3534.00,0.0011
3533.00,0.0011
3532.00,0.0011
3531.00,0.0011
3530.00,0.0011
3529.00,0.0011
3528.00,0.0011
3527.00,0.0011
3526.00,0.0011
3525.00,0.0011
3524.00,0.0011
3523.00,0.0011
3522.00,0.0011
3521.00,0.0010
3520.00,0.0010
3519.00,0.0010
3518.00,0.0010
3517.00,0.0010
3516.00,0.0010
3515.00,0.0010
3514.00,0.0010
3513.00,0.0010
3512.00,0.0010
3511.00,0.0010
3510.00,0.0010
3509.00,0.0010
3508.00,0.0010
3507.00,0.0010
3506.00,0.0010
3505.00,0.0010
3504.00,0.0011
3503.00,0.0011
3502.00,0.0011
3501.00,0.0011
3500.00,0.0010
3499.00,0.0010
3498.00,0.0010
3497.00,0.0010
3496.00,0.0010
3495.00,0.0010
3494.00,0.0010
3493.00,0.0010
3492.00,0.0010
3491.00,0.0010
3490.00,0.0010
3489.00,0.0010
3488.00,0.0010
3487.00,0.0010
3486.00,0.0010
3485.00,0.0010
3484.00,0.0010
3483.00,0.0010
3482.00,0.0010
3481.00,0.0010
3480.00,0.0010
3479.00,0.0010
3478.00,0.0010
3477.00,0.0010
3476.00,0.0010
3475.00,0.0010
3474.00,0.0010
3473.00,0.0010
3472.00,0.0010
3471.00,0.0010
3470.00,0.0010
3469.00,0.0010
3468.00,0.0009
3467.00,0.0009
3466.00,0.0009
3465.00,0.0009
3464.00,0.0009
3463.00,0.0010
3462.00,0.0010
3461.00,0.0010
3460.00,0.0010
3459.00,0.0010
3458.00,0.0010
3457.00,0.0010
3456.00,0.0010
3455.00,0.0010
3454.00,0.0010
3453.00,0.0010
3452.00,0.0010
3451.00,0.0010
3450.00,0.0010
3449.00,0.0010
3448.00,0.0010
3447.00,0.0010
3446.00,0.0010
3445.00,0.0010
3444.00,0.0010
3443.00,0.0010
3442.00,0.0010
3441.00,0.0010
3440.00,0.0010
3439.00,0.0010
3438.00,0.0010
3437.00,0.0010
3436.00,0.0010
3435.00,0.0010
3434.00,0.0010
3433.00,0.0010
3432.00,0.0010
3431.00,0.0010
3430.00,0.0010
3429.00,0.0009
3428.00,0.0009
3427.00,0.0009
3426.00,0.0009
3425.00,0.0010
3424.00,0.0010
3423.00,0.0010
3422.00,0.0010
3421.00,0.0010
3420.00,0.0009
3419.00,0.0009
3418.00,0.0009
3417.00,0.0009
3416.00,0.0009
3415.00,0.0009
3414.00,0.0009
3413.00,0.0009
3412.00,0.0009
3411.00,0.0009
3410.00,0.0010
3409.00,0.0010
3408.00,0.0010
3407.00,0.0010
3406.00,0.0010
3405.00,0.0010
3404.00,0.0010
3403.00,0.0010
3402.00,0.0010
3401.00,0.0010
3400.00,0.0010
3399.00,0.0010
3398.00,0.0010
3397.00,0.0010
3396.00,0.0010
3395.00,0.0009
3394.00,0.0009
3393.00,0.0009
3392.00,0.0010
3391.00,0.0010
3390.00,0.0010
3389.00,0.0010
3388.00,0.0010
3387.00,0.0010
3386.00,0.0010
3385.00,0.0010
3384.00,0.0010
3383.00,0.0009
3382.00,0.0010
3381.00,0.0010
3380.00,0.0010
3379.00,0.0010
3378.00,0.0010
3377.00,0.0010
3376.00,0.0010
3375.00,0.0010
3374.00,0.0010
3373.00,0.0010
3372.00,0.0010
3371.00,0.0010
3370.00,0.0010
3369.00,0.0010
3368.00,0.0010
3367.00,0.0010
3366.00,0.0010
3365.00,0.0010
3364.00,0.0010
3363.00,0.0010
3362.00,0.0010
3361.00,0.0010
3360.00,0.0010
3359.00,0.0010
3358.00,0.0010
3357.00,0.0010
3356.00,0.0010
3355.00,0.0010
3354.00,0.0010
3353.00,0.0010
3352.00,0.0010
3351.00,0.0010
3350.00,0.0010
3349.00,0.0010
3348.00,0.0010
3347.00,0.0010
3346.00,0.0010
3345.00,0.0010
3344.00,0.0010
3343.00,0.0010
3342.00,0.0010
3341.00,0.0010
3340.00,0.0010
3339.00,0.0010
3338.00,0.0010
3337.00,0.0010
3336.00,0.0010
3335.00,0.0010
3334.00,0.0011
3333.00,0.0011
3332.00,0.0011
3331.00,0.0011
3330.00,0.0011
3329.00,0.0011
3328.00,0.0011
3327.00,0.0010
3326.00,0.0010
3325.00,0.0010
3324.00,0.0010
3323.00,0.0010
3322.00,0.0010
3321.00,0.0010
3320.00,0.0010
3319.00,0.0011
3318.00,0.0011
3317.00,0.0011
3316.00,0.0011
3315.00,0.0011
3314.00,0.0011
3313.00,0.0011
3312.00,0.0011
3311.00,0.0011
3310.00,0.0011
3309.00,0.0011
3308.00,0.0011
3307.00,0.0011
3306.00,0.0011
3305.00,0.0011
3304.00,0.0011
3303.00,0.0011
3302.00,0.0011
3301.00,0.0011
3300.00,0.0011
3299.00,0.0011
3298.00,0.0011
3297.00,0.0011
3296.00,0.0011
3295.00,0.0011
3294.00,0.0011
3293.00,0.0011
3292.00,0.0011
3291.00,0.0011
3290.00,0.0011
3289.00,0.0011
3288.00,0.0011
3287.00,0.0011
3286.00,0.0011
3285.00,0.0011
3284.00,0.0011
3283.00,0.0011
3282.00,0.0011
3281.00,0.0011
3280.00,0.0011
3279.00,0.0011
3278.00,0.0012
3277.00,0.0012
3276.00,0.0012
3275.00,0.0012
3274.00,0.0011
3273.00,0.0011
3272.00,0.0011
3271.00,0.0011
3270.00,0.0011
3269.00,0.0011
3268.00,0.0011
3267.00,0.0012
3266.00,0.0012
3265.00,0.0012
3264.00,0.0011
3263.00,0.0011
3262.00,0.0011
3261.00,0.0011
3260.00,0.0011
3259.00,0.0011
3258.00,0.0011
3257.00,0.0011
3256.00,0.0011
3255.00,0.0011
3254.00,0.0011
3253.00,0.0011
3252.00,0.0011
3251.00,0.0011
3250.00,0.0011
3249.00,0.0012
3248.00,0.0012
3247.00,0.0011
3246.00,0.0011
3245.00,0.0011
3244.00,0.0011
3243.00,0.0011
3242.00,0.0011
3241.00,0.0011
3240.00,0.0011
3239.00,0.0011
3238.00,0.0011
3237.00,0.0011
3236.00,0.0011
3235.00,0.0011
3234.00,0.0011
3233.00,0.0011
3232.00,0.0011
3231.00,0.0012
3230.00,0.0012
3229.00,0.0012
3228.00,0.0012
3227.00,0.0012
3226.00,0.0011
3225.00,0.0011
3224.00,0.0011
3223.00,0.0012
3222.00,0.0012
3221.00,0.0012
3220.00,0.0012
3219.00,0.0012
3218.00,0.0012
3217.00,0.0012
3216.00,0.0012
3215.00,0.0012
3214.00,0.0012
3213.00,0.0012
3212.00,0.0012
3211.00,0.0012
3210.00,0.0012
3209.00,0.0012
3208.00,0.0012
3207.00,0.0012
3206.00,0.0012
3205.00,0.0012
3204.00,0.0012
3203.00,0.0012
3202.00,0.0012
3201.00,0.0012
3200.00,0.0012
3199.00,0.0012
3198.00,0.0012
3197.00,0.0012
3196.00,0.0012
3195.00,0.0012
3194.00,0.0012
3193.00,0.0012
3192.00,0.0012
3191.00,0.0012
3190.00,0.0012
3189.00,0.0012
3188.00,0.0012
3187.00,0.0012
3186.00,0.0012
3185.00,0.0012
3184.00,0.0012
3183.00,0.0012
3182.00,0.0012
3181.00,0.0012
3180.00,0.0012
3179.00,0.0012
3178.00,0.0012
3177.00,0.0012
3176.00,0.0012
3175.00,0.0012
3174.00,0.0012
3173.00,0.0012
3172.00,0.0012
3171.00,0.0012
3170.00,0.0012
3169.00,0.0012
3168.00,0.0012
3167.00,0.0013
3166.00,0.0013
3165.00,0.0013
3164.00,0.0013
3163.00,0.0013
3162.00,0.0013
3161.00,0.0013
3160.00,0.0012
3159.00,0.0012
3158.00,0.0012
3157.00,0.0013
3156.00,0.0013
3155.00,0.0013
3154.00,0.0013
3153.00,0.0013
3152.00,0.0012
3151.00,0.0012
3150.00,0.0012
3149.00,0.0012
3148.00,0.0012
3147.00,0.0012
3146.00,0.0013
3145.00,0.0013
3144.00,0.0013
3143.00,0.0013
3142.00,0.0013
3141.00,0.0013
3140.00,0.0013
3139.00,0.0013
3138.00,0.0013
3137.00,0.0012
3136.00,0.0012
3135.00,0.0012
3134.00,0.0012
3133.00,0.0013
3132.00,0.0013
3131.00,0.0013
3130.00,0.0013
3129.00,0.0013
3128.00,0.0013
3127.00,0.0013
3126.00,0.0013
3125.00,0.0013
3124.00,0.0013
3123.00,0.0013
3122.00,0.0013
3121.00,0.0013
3120.00,0.0013
3119.00,0.0013
3118.00,0.0013
3117.00,0.0013
3116.00,0.0013
3115.00,0.0013
3114.00,0.0013
3113.00,0.0013
3112.00,0.0013
3111.00,0.0013
3110.00,0.0013
3109.00,0.0013
3108.00,0.0013
3107.00,0.0013
3106.00,0.0013
3105.00,0.0013
3104.00,0.0013
3103.00,0.0013
3102.00,0.0013
3101.00,0.0013
3100.00,0.0013
3099.00,0.0013
3098.00,0.0013
3097.00,0.0013
3096.00,0.0013
3095.00,0.0013
3094.00,0.0013
3093.00,0.0013
3092.00,0.0013
3091.00,0.0013
3090.00,0.0013
3089.00,0.0013
3088.00,0.0013
3087.00,0.0013
3086.00,0.0013
3085.00,0.0013
3084.00,0.0013
3083.00,0.0013
3082.00,0.0013
3081.00,0.0013
3080.00,0.0013
3079.00,0.0013
3078.00,0.0013
3077.00,0.0013
3076.00,0.0013
3075.00,0.0013
3074.00,0.0013
3073.00,0.0014
3072.00,0.0013
3071.00,0.0013
3070.00,0.0013
3069.00,0.0013
3068.00,0.0013
3067.00,0.0013
3066.00,0.0013
3065.00,0.0013
3064.00,0.0013
3063.00,0.0013
3062.00,0.0013
3061.00,0.0013
3060.00,0.0013
3059.00,0.0013
3058.00,0.0013
3057.00,0.0013
3056.00,0.0013
3055.00,0.0013
3054.00,0.0013
3053.00,0.0013
3052.00,0.0013
3051.00,0.0013
3050.00,0.0013
3049.00,0.0013
3048.00,0.0013
3047.00,0.0013
3046.00,0.0013
3045.00,0.0013
3044.00,0.0013
3043.00,0.0013
3042.00,0.0013
3041.00,0.0013
3040.00,0.0013
3039.00,0.0013
3038.00,0.0013
3037.00,0.0013
3036.00,0.0013
3035.00,0.0014
3034.00,0.0013
3033.00,0.0013
3032.00,0.0013
3031.00,0.0014
3030.00,0.0014
3029.00,0.0014
3028.00,0.0014
3027.00,0.0014
3026.00,0.0014
3025.00,0.0014
3024.00,0.0014
3023.00,0.0014
3022.00,0.0014
3021.00,0.0014
3020.00,0.0014
3019.00,0.0014
3018.00,0.0013
3017.00,0.0013
3016.00,0.0013
3015.00,0.0013
3014.00,0.0013
3013.00,0.0014
3012.00,0.0013
3011.00,0.0014
3010.00,0.0014
3009.00,0.0014
3008.00,0.0014
3007.00,0.0013
3006.00,0.0013
3005.00,0.0013
3004.00,0.0014
3003.00,0.0014
3002.00,0.0013
3001.00,0.0013
3000.00,0.0014
2999.00,0.0014
2998.00,0.0014
2997.00,0.0014
2996.00,0.0014
2995.00,0.0014
2994.00,0.0014
2993.00,0.0014
2992.00,0.0014
2991.00,0.0014
2990.00,0.0014
2989.00,0.0014
2988.00,0.0014
2987.00,0.0014
2986.00,0.0014
2985.00,0.0014
2984.00,0.0014
2983.00,0.0014
2982.00,0.0014
2981.00,0.0014
2980.00,0.0014
2979.00,0.0014
2978.00,0.0014
2977.00,0.0014
2976.00,0.0014
2975.00,0.0014
2974.00,0.0014
2973.00,0.0014
2972.00,0.0014
2971.00,0.0014
2970.00,0.0014
2969.00,0.0014
2968.00,0.0014
2967.00,0.0013
2966.00,0.0013
2965.00,0.0013
2964.00,0.0013
2963.00,0.0014
2962.00,0.0014
2961.00,0.0014
2960.00,0.0014
2959.00,0.0014
2958.00,0.0014
2957.00,0.0014
2956.00,0.0014
2955.00,0.0014
2954.00,0.0014
2953.00,0.0014
2952.00,0.0013
2951.00,0.0013
2950.00,0.0013
2949.00,0.0014
2948.00,0.0014
2947.00,0.0014
2946.00,0.0014
2945.00,0.0013
2944.00,0.0013
2943.00,0.0013
2942.00,0.0014
2941.00,0.0014
2940.00,0.0014
2939.00,0.0014
2938.00,0.0014
2937.00,0.0014
2936.00,0.0014
2935.00,0.0014
2934.00,0.0014
2933.00,0.0014
2932.00,0.0014
2931.00,0.0014
2930.00,0.0014
2929.00,0.0014
2928.00,0.0014
2927.00,0.0014
2926.00,0.0014
2925.00,0.0014
2924.00,0.0014
2923.00,0.0014
2922.00,0.0014
2921.00,0.0014
2920.00,0.0014
2919.00,0.0014
2918.00,0.0014
2917.00,0.0014
2916.00,0.0014
2915.00,0.0014
2914.00,0.0014
2913.00,0.0014
2912.00,0.0014
2911.00,0.0014
2910.00,0.0014
2909.00,0.0014
2908.00,0.0014
2907.00,0.0014
2906.00,0.0014
2905.00,0.0014
2904.00,0.0014
2903.00,0.0014
2902.00,0.0014
2901.00,0.0014
2900.00,0.0014
2899.00,0.0014
2898.00,0.0014
2897.00,0.0014
2896.00,0.0014
2895.00,0.0014
2894.00,0.0014
2893.00,0.0014
2892.00,0.0014
2891.00,0.0014
2890.00,0.0014
2889.00,0.0014
2888.00,0.0014
2887.00,0.0014
2886.00,0.0014
2885.00,0.0014
2884.00,0.0014
2883.00,0.0014
2882.00,0.0014
2881.00,0.0014
2880.00,0.0014
2879.00,0.0014
2878.00,0.0014
2877.00,0.0014
2876.00,0.0014
2875.00,0.0015
2874.00,0.0015
2873.00,0.0015
2872.00,0.0014
2871.00,0.0014
2870.00,0.0014
2869.00,0.0014
2868.00,0.0014
2867.00,0.0014
2866.00,0.0014
2865.00,0.0014
2864.00,0.0014
2863.00,0.0014
2862.00,0.0014
2861.00,0.0014
2860.00,0.0014
2859.00,0.0014
2858.00,0.0014
2857.00,0.0014
2856.00,0.0014
2855.00,0.0014
2854.00,0.0014
2853.00,0.0014
2852.00,0.0014
2851.00,0.0014
2850.00,0.0013
2849.00,0.0013
2848.00,0.0014
2847.00,0.0014
2846.00,0.0014
2845.00,0.0014
2844.00,0.0014
2843.00,0.0014
2842.00,0.0014
2841.00,0.0014
2840.00,0.0014
2839.00,0.0014
2838.00,0.0014
2837.00,0.0014
2836.00,0.0014
2835.00,0.0014
2834.00,0.0014
2833.00,0.0014
2832.00,0.0014
2831.00,0.0014
2830.00,0.0014
2829.00,0.0014
2828.00,0.0014
2827.00,0.0014
2826.00,0.0014
2825.00,0.0014
2824.00,0.0014
2823.00,0.0014
2822.00,0.0014
2821.00,0.0014
2820.00,0.0014
2819.00,0.0014
2818.00,0.0014
2817.00,0.0014
2816.00,0.0014
2815.00,0.0014
2814.00,0.0014
2813.00,0.0014
2812.00,0.0014
2811.00,0.0014
2810.00,0.0014
2809.00,0.0014
2808.00,0.0014
2807.00,0.0014
2806.00,0.0014
2805.00,0.0014
2804.00,0.0014
2803.00,0.0014
2802.00,0.0014
2801.00,0.0014
2800.00,0.0014
2799.00,0.0014
2798.00,0.0014
2797.00,0.0014
2796.00,0.0014
2795.00,0.0014
2794.00,0.0014
2793.00,0.0014
2792.00,0.0014
2791.00,0.0014
2790.00,0.0014
2789.00,0.0014
2788.00,0.0014
2787.00,0.0014
2786.00,0.0014
2785.00,0.0014
2784.00,0.0014
2783.00,0.0014
2782.00,0.0014
2781.00,0.0014
2780.00,0.0014
2779.00,0.0014
2778.00,0.0014
2777.00,0.0014
2776.00,0.0014
2775.00,0.0014
2774.00,0.0014
2773.00,0.0014
2772.00,0.0014
2771.00,0.0014
2770.00,0.0014
2769.00,0.0014
2768.00,0.0014
2767.00,0.0014
2766.00,0.0014
2765.00,0.0014
2764.00,0.0014
2763.00,0.0014
2762.00,0.0014
2761.00,0.0014
2760.00,0.0014
2759.00,0.0014
2758.00,0.0014
2757.00,0.0014
2756.00,0.0014
2755.00,0.0014
2754.00,0.0014
2753.00,0.0014
2752.00,0.0014
2751.00,0.0014
2750.00,0.0014
2749.00,0.0014
2748.00,0.0014
2747.00,0.0014
2746.00,0.0014
2745.00,0.0014
2744.00,0.0014
2743.00,0.0014
2742.00,0.0014
2741.00,0.0014
2740.00,0.0014
2739.00,0.0014
2738.00,0.0014
2737.00,0.0014
2736.00,0.0014
2735.00,0.0014
2734.00,0.0014
2733.00,0.0014
2732.00,0.0014
2731.00,0.0014
2730.00,0.0014
2729.00,0.0014
2728.00,0.0014
2727.00,0.0014
2726.00,0.0014
2725.00,0.0014
2724.00,0.0014
2723.00,0.0014
2722.00,0.0014
2721.00,0.0014
2720.00,0.0014
2719.00,0.0014
2718.00,0.0014
2717.00,0.0014
2716.00,0.0014
2715.00,0.0014
2714.00,0.0014
2713.00,0.0014
2712.00,0.0014
2711.00,0.0014
2710.00,0.0014
2709.00,0.0014
2708.00,0.0015
2707.00,0.0015
2706.00,0.0014
2705.00,0.0014
2704.00,0.0014
2703.00,0.0014
2702.00,0.0014
2701.00,0.0014
2700.00,0.0014
2699.00,0.0014
2698.00,0.0014
2697.00,0.0014
2696.00,0.0014
2695.00,0.0014
2694.00,0.0014
2693.00,0.0014
2692.00,0.0014
2691.00,0.0014
2690.00,0.0014
2689.00,0.0014
2688.00,0.0014
2687.00,0.0014
2686.00,0.0014
2685.00,0.0014
2684.00,0.0014
2683.00,0.0014
2682.00,0.0014
2681.00,0.0014
2680.00,0.0014
2679.00,0.0014
2678.00,0.0014
2677.00,0.0014
2676.00,0.0014
2675.00,0.0014
2674.00,0.0014
2673.00,0.0014
2672.00,0.0014
2671.00,0.0014
2670.00,0.0014
2669.00,0.0015
2668.00,0.0015
2667.00,0.0015
2666.00,0.0015
2665.00,0.0015
2664.00,0.0015
2663.00,0.0014
2662.00,0.0014
2661.00,0.0014
2660.00,0.0014
2659.00,0.0014
2658.00,0.0014
2657.00,0.0014
2656.00,0.0014
2655.00,0.0014
2654.00,0.0014
2653.00,0.0014
2652.00,0.0014
2651.00,0.0014
2650.00,0.0014
2649.00,0.0014
2648.00,0.0015
2647.00,0.0015
2646.00,0.0015
2645.00,0.0015
2644.00,0.0015
2643.00,0.0015
2642.00,0.0014
2641.00,0.0014
2640.00,0.0014
2639.00,0.0014
2638.00,0.0014
2637.00,0.0014
2636.00,0.0014
2635.00,0.0014
2634.00,0.0015
2633.00,0.0015
2632.00,0.0015
2631.00,0.0015
2630.00,0.0014
2629.00,0.0014
2628.00,0.0014
2627.00,0.0014
2626.00,0.0014
2625.00,0.0014
2624.00,0.0014
2623.00,0.0014
2622.00,0.0014
2621.00,0.0014
2620.00,0.0014
2619.00,0.0014
2618.00,0.0015
2617.00,0.0014
2616.00,0.0014
2615.00,0.0014
2614.00,0.0014
2613.00,0.0014
2612.00,0.0014
2611.00,0.0014
2610.00,0.0014
2609.00,0.0014
2608.00,0.0014
2607.00,0.0014
2606.00,0.0014
2605.00,0.0014
2604.00,0.0014
2603.00,0.0014
2602.00,0.0014
2601.00,0.0014
2600.00,0.0014
2599.00,0.0014
2598.00,0.0014
2597.00,0.0014
2596.00,0.0014
2595.00,0.0014
2594.00,0.0014
2593.00,0.0014
2592.00,0.0014
2591.00,0.0015
2590.00,0.0015
2589.00,0.0015
2588.00,0.0014
2587.00,0.0014
2586.00,0.0014
2585.00,0.0014
2584.00,0.0014
2583.00,0.0014
2582.00,0.0014
2581.00,0.0014
2580.00,0.0014
2579.00,0.0014
2578.00,0.0014
2577.00,0.0015
2576.00,0.0015
2575.00,0.0015
2574.00,0.0015
2573.00,0.0015
2572.00,0.0014
2571.00,0.0014
2570.00,0.0014
2569.00,0.0015
2568.00,0.0015
2567.00,0.0015
2566.00,0.0015
2565.00,0.0015
2564.00,0.0015
2563.00,0.0014
2562.00,0.0014
2561.00,0.0014
2560.00,0.0014
2559.00,0.0014
2558.00,0.0014
2557.00,0.0014
2556.00,0.0014
2555.00,0.0014
2554.00,0.0015
2553.00,0.0015
2552.00,0.0015
2551.00,0.0014
2550.00,0.0014
2549.00,0.0014
2548.00,0.0014
2547.00,0.0015
2546.00,0.0015
2545.00,0.0015
2544.00,0.0015
2543.00,0.0015
2542.00,0.0015
2541.00,0.0015
2540.00,0.0015
2539.00,0.0014
2538.00,0.0014
2537.00,0.0014
2536.00,0.0015
2535.00,0.0015
2534.00,0.0015
2533.00,0.0015
2532.00,0.0015
2531.00,0.0014
2530.00,0.0014
2529.00,0.0014
2528.00,0.0014
2527.00,0.0014
2526.00,0.0015
2525.00,0.0015
2524.00,0.0015
2523.00,0.0015
2522.00,0.0015
2521.00,0.0015
2520.00,0.0015
2519.00,0.0015
2518.00,0.0014
2517.00,0.0014
2516.00,0.0014
2515.00,0.0014
2514.00,0.0014
2513.00,0.0014
2512.00,0.0014
2511.00,0.0014
2510.00,0.0014
2509.00,0.0014
2508.00,0.0014
2507.00,0.0014
2506.00,0.0014
2505.00,0.0014
2504.00,0.0014
2503.00,0.0014
2502.00,0.0014
2501.00,0.0014
2500.00,0.0014
2499.00,0.0014
2498.00,0.0014
2497.00,0.0014
2496.00,0.0014
2495.00,0.0014
2494.00,0.0014
2493.00,0.0014
2492.00,0.0014
2491.00,0.0014
2490.00,0.0014
2489.00,0.0014
2488.00,0.0014
2487.00,0.0014
2486.00,0.0014
2485.00,0.0014
2484.00,0.0014
2483.00,0.0014
2482.00,0.0014
2481.00,0.0014
2480.00,0.0014
2479.00,0.0014
2478.00,0.0014
2477.00,0.0014
2476.00,0.0014
2475.00,0.0014
2474.00,0.0014
2473.00,0.0014
2472.00,0.0014
2471.00,0.0014
2470.00,0.0014
2469.00,0.0014
2468.00,0.0014
2467.00,0.0014
2466.00,0.0014
2465.00,0.0014
2464.00,0.0014
2463.00,0.0014
2462.00,0.0014
2461.00,0.0014
2460.00,0.0014
2459.00,0.0014
2458.00,0.0014
2457.00,0.0014
2456.00,0.0014
2455.00,0.0014
2454.00,0.0014
2453.00,0.0014
2452.00,0.0014
2451.00,0.0014
2450.00,0.0014
2449.00,0.0014
2448.00,0.0014
2447.00,0.0014
2446.00,0.0014
2445.00,0.0014
2444.00,0.0015
2443.00,0.0015
2442.00,0.0015
2441.00,0.0014
2440.00,0.0014
2439.00,0.0014
2438.00,0.0014
2437.00,0.0014
2436.00,0.0014
2435.00,0.0014
2434.00,0.0014
2433.00,0.0014
2432.00,0.0014
2431.00,0.0014
2430.00,0.0014
2429.00,0.0014
2428.00,0.0014
2427.00,0.0014
2426.00,0.0014
2425.00,0.0014
2424.00,0.0014
2423.00,0.0014
2422.00,0.0014
2421.00,0.0014
2420.00,0.0014
2419.00,0.0014
2418.00,0.0014
2417.00,0.0014
2416.00,0.0014
2415.00,0.0014
2414.00,0.0014
2413.00,0.0014
2412.00,0.0014
2411.00,0.0014
2410.00,0.0014
2409.00,0.0014
2408.00,0.0014
2407.00,0.0014
2406.00,0.0014
2405.00,0.0014
2404.00,0.0014
2403.00,0.0014
2402.00,0.0014
2401.00,0.0014
2400.00,0.0014
2399.00,0.0014
2398.00,0.0014
2397.00,0.0014
2396.00,0.0014
2395.00,0.0014
2394.00,0.0014
2393.00,0.0014
2392.00,0.0014
2391.00,0.0014
2390.00,0.0015
2389.00,0.0015
2388.00,0.0016
2387.00,0.0016
2386.00,0.0017
2385.00,0.0018
2384.00,0.0018
2383.00,0.0018
2382.00,0.0018
2381.00,0.0018
2380.00,0.0017
2379.00,0.0016
2378.00,0.0015
2377.00,0.0014
2376.00,0.0013
2375.00,0.0014
2374.00,0.0014
2373.00,0.0016
2372.00,0.0017
2371.00,0.0017
2370.00,0.0018
2369.00,0.0018
2368.00,0.0018
2367.00,0.0018
2366.00,0.0019
2365.00,0.0019
2364.00,0.0018
2363.00,0.0018
2362.00,0.0019
2361.00,0.0019
2360.00,0.0020
2359.00,0.0020
2358.00,0.0021
2357.00,0.0022
2356.00,0.0022
2355.00,0.0022
2354.00,0.0021
2353.00,0.0019
2352.00,0.0017
2351.00,0.0017
2350.00,0.0018
2349.00,0.0022
2348.00,0.0025
2347.00,0.0026
2346.00,0.0024
2345.00,0.0021
2344.00,0.0021
2343.00,0.0022
2342.00,0.0023
2341.00,0.0023
2340.00,0.0023
2339.00,0.0022
2338.00,0.0022
2337.00,0.0021
2336.00,0.0021
2335.00,0.0022
2334.00,0.0022
2333.00,0.0022
2332.00,0.0022
2331.00,0.0022
2330.00,0.0022
2329.00,0.0022
2328.00,0.0023
2327.00,0.0024
2326.00,0.0025
2325.00,0.0025
2324.00,0.0025
2323.00,0.0025
2322.00,0.0024
2321.00,0.0024
2320.00,0.0023
2319.00,0.0023
2318.00,0.0023
2317.00,0.0023
2316.00,0.0023
2315.00,0.0022
2314.00,0.0021
2313.00,0.0021
2312.00,0.0021
2311.00,0.0021
2310.00,0.0021
2309.00,0.0021
2308.00,0.0021
2307.00,0.0020
2306.00,0.0020
2305.00,0.0020
2304.00,0.0020
2303.00,0.0020
2302.00,0.0019
2301.00,0.0019
2300.00,0.0019
2299.00,0.0019
2298.00,0.0018
2297.00,0.0018
2296.00,0.0018
2295.00,0.0017
2294.00,0.0017
2293.00,0.0017
2292.00,0.0016
2291.00,0.0016
2290.00,0.0016
2289.00,0.0016
2288.00,0.0016
2287.00,0.0016
2286.00,0.0016
2285.00,0.0016
2284.00,0.0016
2283.00,0.0016
2282.00,0.0015
2281.00,0.0015
2280.00,0.0015
2279.00,0.0015
2278.00,0.0015
2277.00,0.0015
2276.00,0.0015
2275.00,0.0015
2274.00,0.0014
2273.00,0.0014
2272.00,0.0014
2271.00,0.0014
2270.00,0.0014
2269.00,0.0015
2268.00,0.0015
2267.00,0.0015
2266.00,0.0015
2265.00,0.0015
2264.00,0.0015
2263.00,0.0015
2262.00,0.0015
2261.00,0.0015
2260.00,0.0015
2259.00,0.0015
2258.00,0.0015
2257.00,0.0015
2256.00,0.0015
2255.00,0.0015
2254.00,0.0015
2253.00,0.0015
2252.00,0.0015
2251.00,0.0015
2250.00,0.0015
2249.00,0.0015
2248.00,0.0015
2247.00,0.0015
2246.00,0.0015
2245.00,0.0015
2244.00,0.0015
2243.00,0.0015
2242.00,0.0015
2241.00,0.0015
2240.00,0.0015
2239.00,0.0015
2238.00,0.0015
2237.00,0.0015
2236.00,0.0015
2235.00,0.0014
2234.00,0.0014
2233.00,0.0014
2232.00,0.0014
2231.00,0.0014
2230.00,0.0014
2229.00,0.0014
2228.00,0.0014
2227.00,0.0014
2226.00,0.0014
2225.00,0.0015
2224.00,0.0015
2223.00,0.0015
2222.00,0.0015
2221.00,0.0015
2220.00,0.0015
2219.00,0.0014
2218.00,0.0014
2217.00,0.0014
2216.00,0.0014
2215.00,0.0015
2214.00,0.0015
2213.00,0.0015
2212.00,0.0015
2211.00,0.0015
2210.00,0.0015
2209.00,0.0015
2208.00,0.0015
2207.00,0.0015
2206.00,0.0015
2205.00,0.0015
2204.00,0.0015
2203.00,0.0015
2202.00,0.0015
2201.00,0.0015
2200.00,0.0015
2199.00,0.0015
2198.00,0.0014
2197.00,0.0014
2196.00,0.0014
2195.00,0.0014
2194.00,0.0014
2193.00,0.0014
2192.00,0.0015
2191.00,0.0015
2190.00,0.0015
2189.00,0.0015
2188.00,0.0015
2187.00,0.0015
2186.00,0.0015
2185.00,0.0015
2184.00,0.0015
2183.00,0.0014
2182.00,0.0014
2181.00,0.0014
2180.00,0.0014
2179.00,0.0014
2178.00,0.0014
2177.00,0.0015
2176.00,0.0015
2175.00,0.0015
2174.00,0.0015
2173.00,0.0015
2172.00,0.0015
2171.00,0.0015
2170.00,0.0015
2169.00,0.0015
2168.00,0.0015
2167.00,0.0015
2166.00,0.0015
2165.00,0.0015
2164.00,0.0015
2163.00,0.0015
2162.00,0.0015
2161.00,0.0015
2160.00,0.0015
2159.00,0.0015
2158.00,0.0015
2157.00,0.0015
2156.00,0.0015
2155.00,0.0015
2154.00,0.0015
2153.00,0.0015
2152.00,0.0015
2151.00,0.0015
2150.00,0.0015
2149.00,0.0015
2148.00,0.0015
2147.00,0.0015
2146.00,0.0015
2145.00,0.0015
2144.00,0.0015
2143.00,0.0015
2142.00,0.0015
2141.00,0.0014
2140.00,0.0014
2139.00,0.0014
2138.00,0.0015
2137.00,0.0015
2136.00,0.0015
2135.00,0.0015
2134.00,0.0015
2133.00,0.0015
2132.00,0.0015
2131.00,0.0015
2130.00,0.0015
2129.00,0.0015
2128.00,0.0015
2127.00,0.0015
2126.00,0.0014
2125.00,0.0014
2124.00,0.0014
2123.00,0.0014
2122.00,0.0015
2121.00,0.0015
2120.00,0.0015
2119.00,0.0015
2118.00,0.0015
2117.00,0.0014
2116.00,0.0014
2115.00,0.0014
2114.00,0.0014
2113.00,0.0014
2112.00,0.0015
2111.00,0.0015
2110.00,0.0015
2109.00,0.0015
2108.00,0.0015
2107.00,0.0015
2106.00,0.0015
2105.00,0.0015
2104.00,0.0015
2103.00,0.0015
2102.00,0.0015
2101.00,0.0015
2100.00,0.0015
2099.00,0.0015
2098.00,0.0015
2097.00,0.0015
2096.00,0.0015
2095.00,0.0015
2094.00,0.0015
2093.00,0.0015
2092.00,0.0014
2091.00,0.0014
2090.00,0.0014
2089.00,0.0015
2088.00,0.0015
2087.00,0.0015
2086.00,0.0015
2085.00,0.0015
2084.00,0.0014
2083.00,0.0014
2082.00,0.0014
2081.00,0.0014
2080.00,0.0014
2079.00,0.0014
2078.00,0.0014
2077.00,0.0014
2076.00,0.0015
2075.00,0.0014
2074.00,0.0014
2073.00,0.0014
2072.00,0.0014
2071.00,0.0015
2070.00,0.0015
2069.00,0.0015
2068.00,0.0015
2067.00,0.0015
2066.00,0.0015
2065.00,0.0014
2064.00,0.0014
2063.00,0.0014
2062.00,0.0014
2061.00,0.0014
2060.00,0.0014
2059.00,0.0014
2058.00,0.0015
2057.00,0.0015
2056.00,0.0015
2055.00,0.0015
2054.00,0.0015
2053.00,0.0015
2052.00,0.0015
2051.00,0.0015
2050.00,0.0015
2049.00,0.0015
2048.00,0.0015
2047.00,0.0015
2046.00,0.0015
2045.00,0.0015
2044.00,0.0015
2043.00,0.0015
2042.00,0.0015
2041.00,0.0014
2040.00,0.0014
2039.00,0.0014
2038.00,0.0014
2037.00,0.0014
2036.00,0.0014
2035.00,0.0014
2034.00,0.0014
2033.00,0.0015
2032.00,0.0015
2031.00,0.0015
2030.00,0.0015
2029.00,0.0015
2028.00,0.0015
2027.00,0.0015
2026.00,0.0015
2025.00,0.0015
2024.00,0.0015
2023.00,0.0015
2022.00,0.0015
2021.00,0.0015
2020.00,0.0014
2019.00,0.0015
2018.00,0.0015
2017.00,0.0015
2016.00,0.0015
2015.00,0.0015
2014.00,0.0015
2013.00,0.0015
2012.00,0.0015
2011.00,0.0015
2010.00,0.0015
2009.00,0.0015
2008.00,0.0015
2007.00,0.0015
2006.00,0.0015
2005.00,0.0015
2004.00,0.0015
2003.00,0.0015
2002.00,0.0015
2001.00,0.0015
2000.00,0.0015
1999.00,0.0015
1998.00,0.0015
1997.00,0.0015
1996.00,0.0015
1995.00,0.0015
1994.00,0.0015
1993.00,0.0015
1992.00,0.0015
1991.00,0.0015
1990.00,0.0015
1989.00,0.0015
1988.00,0.0015
1987.00,0.0015
1986.00,0.0015
1985.00,0.0015
1984.00,0.0015
1983.00,0.0015
1982.00,0.0015
1981.00,0.0015
1980.00,0.0015
1979.00,0.0015
1978.00,0.0015
1977.00,0.0015
1976.00,0.0015
1975.00,0.0015
1974.00,0.0015
1973.00,0.0015
1972.00,0.0015
1971.00,0.0015
1970.00,0.0015
1969.00,0.0015
1968.00,0.0015
1967.00,0.0015
1966.00,0.0015
1965.00,0.0015
1964.00,0.0015
1963.00,0.0015
1962.00,0.0015
1961.00,0.0015
1960.00,0.0014
1959.00,0.0014
1958.00,0.0014
1957.00,0.0015
1956.00,0.0015
1955.00,0.0015
1954.00,0.0015
1953.00,0.0015
1952.00,0.0015
1951.00,0.0015
1950.00,0.0015
1949.00,0.0015
1948.00,0.0015
1947.00,0.0015
1946.00,0.0015
1945.00,0.0015
1944.00,0.0015
1943.00,0.0015
1942.00,0.0015
1941.00,0.0015
1940.00,0.0015
1939.00,0.0015
1938.00,0.0015
1937.00,0.0015
1936.00,0.0015
1935.00,0.0015
1934.00,0.0015
1933.00,0.0015
1932.00,0.0015
1931.00,0.0015
1930.00,0.0015
1929.00,0.0015
1928.00,0.0015
1927.00,0.0015
1926.00,0.0015
1925.00,0.0015
1924.00,0.0015
1923.00,0.0015
1922.00,0.0015
1921.00,0.0015
1920.00,0.0015
1919.00,0.0015
1918.00,0.0015
1917.00,0.0015
1916.00,0.0015
1915.00,0.0015
1914.00,0.0015
1913.00,0.0015
1912.00,0.0015
1911.00,0.0015
1910.00,0.0015
1909.00,0.0015
1908.00,0.0015
1907.00,0.0015
1906.00,0.0015
1905.00,0.0015
1904.00,0.0015
1903.00,0.0015
1902.00,0.0015
1901.00,0.0015
1900.00,0.0015
1899.00,0.0015
1898.00,0.0015
1897.00,0.0015
1896.00,0.0015
1895.00,0.0015
1894.00,0.0015
1893.00,0.0015
1892.00,0.0015
1891.00,0.0015
1890.00,0.0015
1889.00,0.0015
1888.00,0.0015
1887.00,0.0015
1886.00,0.0015
1885.00,0.0015
1884.00,0.0015
1883.00,0.0015
1882.00,0.0015
1881.00,0.0015
1880.00,0.0015
1879.00,0.0015
1878.00,0.0015
1877.00,0.0015
1876.00,0.0015
1875.00,0.0015
1874.00,0.0015
1873.00,0.0015
1872.00,0.0015
1871.00,0.0015
1870.00,0.0015
1869.00,0.0015
1868.00,0.0015
1867.00,0.0015
1866.00,0.0015
1865.00,0.0015
1864.00,0.0015
1863.00,0.0015
1862.00,0.0015
1861.00,0.0015
1860.00,0.0015
1859.00,0.0015
1858.00,0.0015
1857.00,0.0015
1856.00,0.0015
1855.00,0.0015
1854.00,0.0015
1853.00,0.0015
1852.00,0.0015
1851.00,0.0015
1850.00,0.0015
1849.00,0.0015
1848.00,0.0015
1847.00,0.0015
1846.00,0.0015
1845.00,0.0015
1844.00,0.0015
1843.00,0.0015
1842.00,0.0015
1841.00,0.0015
1840.00,0.0015
1839.00,0.0015
1838.00,0.0015
1837.00,0.0015
1836.00,0.0015
1835.00,0.0015
1834.00,0.0015
1833.00,0.0015
1832.00,0.0015
1831.00,0.0015
1830.00,0.0015
1829.00,0.0015
1828.00,0.0015
1827.00,0.0015
1826.00,0.0015
1825.00,0.0015
1824.00,0.0015
1823.00,0.0015
1822.00,0.0015
1821.00,0.0015
1820.00,0.0015
1819.00,0.0015
1818.00,0.0015
1817.00,0.0015
1816.00,0.0015
1815.00,0.0015
1814.00,0.0015
1813.00,0.0015
1812.00,0.0015
1811.00,0.0015
1810.00,0.0015
1809.00,0.0015
1808.00,0.0015
1807.00,0.0015
1806.00,0.0015
1805.00,0.0015
1804.00,0.0015
1803.00,0.0015
1802.00,0.0015
1801.00,0.0015
1800.00,0.0014
1799.00,0.0015
1798.00,0.0015
1797.00,0.0015
1796.00,0.0015
1795.00,0.0015
1794.00,0.0015
1793.00,0.0015
1792.00,0.0015
1791.00,0.0015
1790.00,0.0015
1789.00,0.0015
1788.00,0.0015
1787.00,0.0015
1786.00,0.0015
1785.00,0.0014
1784.00,0.0014
1783.00,0.0015
1782.00,0.0015
1781.00,0.0015
1780.00,0.0015
1779.00,0.0015
1778.00,0.0015
1777.00,0.0015
1776.00,0.0015
1775.00,0.0015
1774.00,0.0015
1773.00,0.0015
1772.00,0.0015
1771.00,0.0015
1770.00,0.0015
1769.00,0.0015
1768.00,0.0015
1767.00,0.0015
1766.00,0.0015
1765.00,0.0015
1764.00,0.0015
1763.00,0.0015
1762.00,0.0015
1761.00,0.0015
1760.00,0.0015
1759.00,0.0015
1758.00,0.0015
1757.00,0.0015
1756.00,0.0015
1755.00,0.0015
1754.00,0.0015
1753.00,0.0015
1752.00,0.0015
1751.00,0.0014
1750.00,0.0014
1749.00,0.0014
1748.00,0.0015
1747.00,0.0015
1746.00,0.0015
1745.00,0.0015
1744.00,0.0015
1743.00,0.0015
1742.00,0.0015
1741.00,0.0015
1740.00,0.0015
1739.00,0.0015
1738.00,0.0015
1737.00,0.0015
1736.00,0.0015
1735.00,0.0015
1734.00,0.0015
1733.00,0.0014
1732.00,0.0014
1731.00,0.0015
1730.00,0.0015
1729.00,0.0015
1728.00,0.0015
1727.00,0.0015
1726.00,0.0015
1725.00,0.0015
1724.00,0.0015
1723.00,0.0014
1722.00,0.0014
1721.00,0.0014
1720.00,0.0015
1719.00,0.0015
1718.00,0.0015
1717.00,0.0014
1716.00,0.0014
1715.00,0.0015
1714.00,0.0015
1713.00,0.0014
1712.00,0.0014
1711.00,0.0015
1710.00,0.0015
1709.00,0.0015
1708.00,0.0015
1707.00,0.0015
1706.00,0.0015
1705.00,0.0015
1704.00,0.0015
1703.00,0.0015
1702.00,0.0015
1701.00,0.0015
1700.00,0.0015
1699.00,0.0015
1698.00,0.0015
1697.00,0.0015
1696.00,0.0015
1695.00,0.0015
1694.00,0.0014
1693.00,0.0014
1692.00,0.0014
1691.00,0.0014
1690.00,0.0014
1689.00,0.0014
1688.00,0.0015
1687.00,0.0015
1686.00,0.0014
1685.00,0.0014
1684.00,0.0014
1683.00,0.0014
1682.00,0.0014
1681.00,0.0014
1680.00,0.0014
1679.00,0.0014
1678.00,0.0014
1677.00,0.0014
1676.00,0.0014
1675.00,0.0014
1674.00,0.0014
1673.00,0.0014
1672.00,0.0014
1671.00,0.0014
1670.00,0.0014
1669.00,0.0014
1668.00,0.0014
1667.00,0.0014
1666.00,0.0014
1665.00,0.0014
1664.00,0.0014
1663.00,0.0014
1662.00,0.0014
1661.00,0.0014
1660.00,0.0014
1659.00,0.0014
1658.00,0.0014
1657.00,0.0014
1656.00,0.0014
1655.00,0.0014
1654.00,0.0014
1653.00,0.0014
1652.00,0.0014
1651.00,0.0013
1650.00,0.0013
1649.00,0.0014
1648.00,0.0014
1647.00,0.0014
1646.00,0.0014
1645.00,0.0013
1644.00,0.0013
1643.00,0.0014
1642.00,0.0014
1641.00,0.0014
1640.00,0.0013
1639.00,0.0013
1638.00,0.0013
1637.00,0.0013
1636.00,0.0013
1635.00,0.0013
1634.00,0.0013
1633.00,0.0013
1632.00,0.0013
1631.00,0.0013
1630.00,0.0014
1629.00,0.0014
1628.00,0.0014
1627.00,0.0014
1626.00,0.0014
1625.00,0.0014
1624.00,0.0014
1623.00,0.0014
1622.00,0.0014
1621.00,0.0014
1620.00,0.0014
1619.00,0.0014
1618.00,0.0014
1617.00,0.0014
1616.00,0.0014
1615.00,0.0014
1614.00,0.0014
1613.00,0.0015
1612.00,0.0014
1611.00,0.0014
1610.00,0.0014
1609.00,0.0014
1608.00,0.0014
1607.00,0.0014
1606.00,0.0014
1605.00,0.0014
1604.00,0.0015
1603.00,0.0015
1602.00,0.0015
1601.00,0.0014
1600.00,0.0014
1599.00,0.0014
1598.00,0.0014
1597.00,0.0014
1596.00,0.0015
1595.00,0.0015
1594.00,0.0014
1593.00,0.0015
1592.00,0.0015
1591.00,0.0015
1590.00,0.0015
1589.00,0.0014
1588.00,0.0014
1587.00,0.0014
1586.00,0.0014
1585.00,0.0014
1584.00,0.0014
1583.00,0.0014
1582.00,0.0014
1581.00,0.0014
1580.00,0.0014
1579.00,0.0014
1578.00,0.0015
1577.00,0.0015
1576.00,0.0015
1575.00,0.0015
1574.00,0.0014
1573.00,0.0014
1572.00,0.0014
1571.00,0.0014
1570.00,0.0014
1569.00,0.0015
1568.00,0.0014
1567.00,0.0014
1566.00,0.0014
1565.00,0.0014
1564.00,0.0014
1563.00,0.0014
1562.00,0.0014
1561.00,0.0014
1560.00,0.0014
1559.00,0.0014
1558.00,0.0015
1557.00,0.0015
1556.00,0.0015
1555.00,0.0015
1554.00,0.0015
1553.00,0.0014
1552.00,0.0015
1551.00,0.0015
1550.00,0.0015
1549.00,0.0015
1548.00,0.0015
1547.00,0.0015
1546.00,0.0015
1545.00,0.0015
1544.00,0.0015
1543.00,0.0015
1542.00,0.0015
1541.00,0.0015
1540.00,0.0015
1539.00,0.0015
1538.00,0.0015
1537.00,0.0015
1536.00,0.0015
1535.00,0.0015
1534.00,0.0015
1533.00,0.0015
1532.00,0.0015
1531.00,0.0015
1530.00,0.0015
1529.00,0.0015
1528.00,0.0015
1527.00,0.0015
1526.00,0.0015
1525.00,0.0015
1524.00,0.0015
1523.00,0.0015
1522.00,0.0015
1521.00,0.0015
1520.00,0.0015
1519.00,0.0015
1518.00,0.0015
1517.00,0.0015
1516.00,0.0015
1515.00,0.0015
1514.00,0.0015
1513.00,0.0015
1512.00,0.0015
1511.00,0.0015
1510.00,0.0015
1509.00,0.0015
1508.00,0.0015
1507.00,0.0015
1506.00,0.0015
1505.00,0.0015
1504.00,0.0015
1503.00,0.0015
1502.00,0.0015
1501.00,0.0014
1500.00,0.0014
1499.00,0.0014
1498.00,0.0015
1497.00,0.0015
1496.00,0.0015
1495.00,0.0015
1494.00,0.0015
1493.00,0.0015
1492.00,0.0015
1491.00,0.0014
1490.00,0.0014
1489.00,0.0015
1488.00,0.0015
1487.00,0.0015
1486.00,0.0015
1485.00,0.0015
1484.00,0.0015
1483.00,0.0015
1482.00,0.0015
1481.00,0.0015
1480.00,0.0015
1479.00,0.0015
1478.00,0.0015
1477.00,0.0015
1476.00,0.0015
1475.00,0.0015
1474.00,0.0015
1473.00,0.0015
1472.00,0.0015
1471.00,0.0015
1470.00,0.0015
1469.00,0.0015
1468.00,0.0015
1467.00,0.0015
1466.00,0.0015
1465.00,0.0015
1464.00,0.0015
1463.00,0.0015
1462.00,0.0015
1461.00,0.0015
1460.00,0.0015
1459.00,0.0015
1458.00,0.0015
1457.00,0.0015
1456.00,0.0015
1455.00,0.0015
1454.00,0.0015
1453.00,0.0015
1452.00,0.0015
1451.00,0.0015
1450.00,0.0015
1449.00,0.0015
1448.00,0.0015
1447.00,0.0015
1446.00,0.0015
1445.00,0.0015
1444.00,0.0015
1443.00,0.0015
1442.00,0.0015
1441.00,0.0015
1440.00,0.0015
1439.00,0.0015
1438.00,0.0015
1437.00,0.0015
1436.00,0.0015
1435.00,0.0015
1434.00,0.0015
1433.00,0.0015
1432.00,0.0015
1431.00,0.0015
1430.00,0.0015
1429.00,0.0015
1428.00,0.0015
1427.00,0.0015
1426.00,0.0015
1425.00,0.0015
1424.00,0.0015
1423.00,0.0015
1422.00,0.0015
1421.00,0.0015
1420.00,0.0015
1419.00,0.0015
1418.00,0.0015
1417.00,0.0015
1416.00,0.0015
1415.00,0.0015
1414.00,0.0015
1413.00,0.0015
1412.00,0.0015
1411.00,0.0015
1410.00,0.0015
1409.00,0.0015
1408.00,0.0015
1407.00,0.0015
1406.00,0.0015
1405.00,0.0015
1404.00,0.0015
1403.00,0.0015
1402.00,0.0015
1401.00,0.0015
1400.00,0.0015
1399.00,0.0015
1398.00,0.0015
1397.00,0.0015
1396.00,0.0015
1395.00,0.0015
1394.00,0.0015
1393.00,0.0015
1392.00,0.0015
1391.00,0.0015
1390.00,0.0015
1389.00,0.0015
1388.00,0.0015
1387.00,0.0015
1386.00,0.0015
1385.00,0.0015
1384.00,0.0015
1383.00,0.0015
1382.00,0.0015
1381.00,0.0015
1380.00,0.0015
1379.00,0.0015
1378.00,0.0015
1377.00,0.0015
1376.00,0.0015
1375.00,0.0015
1374.00,0.0015
1373.00,0.0015
1372.00,0.0015
1371.00,0.0015
1370.00,0.0015
1369.00,0.0015
1368.00,0.0015
1367.00,0.0015
1366.00,0.0015
1365.00,0.0015
1364.00,0.0015
1363.00,0.0015
1362.00,0.0015
1361.00,0.0015
1360.00,0.0015
1359.00,0.0015
1358.00,0.0015
1357.00,0.0015
1356.00,0.0015
1355.00,0.0015
1354.00,0.0014
1353.00,0.0014
1352.00,0.0015
1351.00,0.0015
1350.00,0.0015
1349.00,0.0015
1348.00,0.0015
1347.00,0.0015
1346.00,0.0015
1345.00,0.0015
1344.00,0.0015
1343.00,0.0015
1342.00,0.0014
1341.00,0.0014
1340.00,0.0014
1339.00,0.0014
1338.00,0.0014
1337.00,0.0014
1336.00,0.0014
1335.00,0.0015
1334.00,0.0015
1333.00,0.0015
1332.00,0.0015
1331.00,0.0015
1330.00,0.0015
1329.00,0.0015
1328.00,0.0015
1327.00,0.0015
1326.00,0.0015
1325.00,0.0015
1324.00,0.0015
1323.00,0.0015
1322.00,0.0015
1321.00,0.0015
1320.00,0.0015
1319.00,0.0015
1318.00,0.0015
1317.00,0.0015
1316.00,0.0015
1315.00,0.0014
1314.00,0.0015
1313.00,0.0015
1312.00,0.0014
1311.00,0.0014
1310.00,0.0014
1309.00,0.0015
1308.00,0.0014
1307.00,0.0014
1306.00,0.0014
1305.00,0.0014
1304.00,0.0015
1303.00,0.0015
1302.00,0.0015
1301.00,0.0015
1300.00,0.0015
1299.00,0.0015
1298.00,0.0014
1297.00,0.0014
1296.00,0.0014
1295.00,0.0014
1294.00,0.0014
1293.00,0.0014
1292.00,0.0015
1291.00,0.0015
1290.00,0.0015
1289.00,0.0015
1288.00,0.0015
1287.00,0.0015
1286.00,0.0015
1285.00,0.0015
1284.00,0.0015
1283.00,0.0015
1282.00,0.0015
1281.00,0.0015
1280.00,0.0015
1279.00,0.0015
1278.00,0.0015
1277.00,0.0015
1276.00,0.0015
1275.00,0.0015
1274.00,0.0015
1273.00,0.0015
1272.00,0.0015
1271.00,0.0015
1270.00,0.0015
1269.00,0.0015
1268.00,0.0015
1267.00,0.0015
1266.00,0.0015
1265.00,0.0015
1264.00,0.0015
1263.00,0.0015
1262.00,0.0015
1261.00,0.0015
1260.00,0.0015
1259.00,0.0015
1258.00,0.0015
1257.00,0.0015
1256.00,0.0015
1255.00,0.0015
1254.00,0.0015
1253.00,0.0015
1252.00,0.0015
1251.00,0.0015
1250.00,0.0015
1249.00,0.0015
1248.00,0.0015
1247.00,0.0015
1246.00,0.0015
1245.00,0.0015
1244.00,0.0015
1243.00,0.0015
1242.00,0.0015
1241.00,0.0015
1240.00,0.0015
1239.00,0.0015
1238.00,0.0015
1237.00,0.0015
1236.00,0.0015
1235.00,0.0015
1234.00,0.0015
1233.00,0.0015
1232.00,0.0015
1231.00,0.0015
1230.00,0.0015
1229.00,0.0015
1228.00,0.0015
1227.00,0.0015
1226.00,0.0015
1225.00,0.0015
1224.00,0.0015
1223.00,0.0015
1222.00,0.0015
1221.00,0.0015
1220.00,0.0015
1219.00,0.0015
1218.00,0.0015
1217.00,0.0015
1216.00,0.0015
1215.00,0.0015
1214.00,0.0015
1213.00,0.0015
1212.00,0.0015
1211.00,0.0015
1210.00,0.0015
1209.00,0.0015
1208.00,0.0015
1207.00,0.0014
1206.00,0.0014
1205.00,0.0015
1204.00,0.0015
1203.00,0.0015
1202.00,0.0015
1201.00,0.0015
1200.00,0.0015
1199.00,0.0015
1198.00,0.0015
1197.00,0.0015
1196.00,0.0015
1195.00,0.0015
1194.00,0.0015
1193.00,0.0015
1192.00,0.0015
1191.00,0.0015
1190.00,0.0015
1189.00,0.0015
1188.00,0.0015
1187.00,0.0015
1186.00,0.0014
1185.00,0.0015
1184.00,0.0015
1183.00,0.0015
1182.00,0.0015
1181.00,0.0015
1180.00,0.0015
1179.00,0.0015
1178.00,0.0015
1177.00,0.0015
1176.00,0.0014
1175.00,0.0014
1174.00,0.0015
1173.00,0.0015
1172.00,0.0015
1171.00,0.0015
1170.00,0.0015
1169.00,0.0015
1168.00,0.0015
1167.00,0.0015
1166.00,0.0015
1165.00,0.0015
1164.00,0.0014
1163.00,0.0014
1162.00,0.0014
1161.00,0.0015
1160.00,0.0015
1159.00,0.0015
1158.00,0.0015
1157.00,0.0015
1156.00,0.0014
1155.00,0.0014
1154.00,0.0014
1153.00,0.0015
1152.00,0.0015
1151.00,0.0015
1150.00,0.0015
1149.00,0.0015
1148.00,0.0015
1147.00,0.0015
1146.00,0.0014
1145.00,0.0014
1144.00,0.0014
1143.00,0.0015
1142.00,0.0015
1141.00,0.0015
1140.00,0.0015
1139.00,0.0015
1138.00,0.0015
1137.00,0.0015
1136.00,0.0015
1135.00,0.0015
1134.00,0.0015
1133.00,0.0015
1132.00,0.0015
1131.00,0.0015
1130.00,0.0015
1129.00,0.0014
1128.00,0.0014
1127.00,0.0014
1126.00,0.0014
1125.00,0.0014
1124.00,0.0014
1123.00,0.0014
1122.00,0.0014
1121.00,0.0014
1120.00,0.0014
1119.00,0.0014
1118.00,0.0015
1117.00,0.0015
1116.00,0.0014
1115.00,0.0014
1114.00,0.0015
1113.00,0.0015
1112.00,0.0015
1111.00,0.0015
1110.00,0.0014
1109.00,0.0014
1108.00,0.0014
1107.00,0.0015
1106.00,0.0015
1105.00,0.0015
1104.00,0.0015
1103.00,0.0015
1102.00,0.0015
1101.00,0.0015
1100.00,0.0015
1099.00,0.0014
1098.00,0.0014
1097.00,0.0014
1096.00,0.0014
1095.00,0.0014
1094.00,0.0015
1093.00,0.0015
1092.00,0.0015
1091.00,0.0015
1090.00,0.0015
1089.00,0.0015
1088.00,0.0015
1087.00,0.0015
1086.00,0.0015
1085.00,0.0015
1084.00,0.0015
1083.00,0.0015
1082.00,0.0014
1081.00,0.0014
1080.00,0.0014
1079.00,0.0014
1078.00,0.0014
1077.00,0.0014
1076.00,0.0015
1075.00,0.0015
1074.00,0.0015
1073.00,0.0015
1072.00,0.0015
1071.00,0.0015
1070.00,0.0014
1069.00,0.0014
1068.00,0.0014
1067.00,0.0014
1066.00,0.0014
1065.00,0.0015
1064.00,0.0015
1063.00,0.0015
1062.00,0.0015
1061.00,0.0015
1060.00,0.0015
1059.00,0.0015
1058.00,0.0015
1057.00,0.0015
1056.00,0.0015
1055.00,0.0015
1054.00,0.0015
1053.00,0.0015
1052.00,0.0015
1051.00,0.0015
1050.00,0.0015
1049.00,0.0015
1048.00,0.0015
1047.00,0.0015
1046.00,0.0015
1045.00,0.0015
1044.00,0.0015
1043.00,0.0015
1042.00,0.0015
1041.00,0.0015
1040.00,0.0015
1039.00,0.0015
1038.00,0.0015
1037.00,0.0015
1036.00,0.0015
1035.00,0.0015
1034.00,0.0015
1033.00,0.0015
1032.00,0.0015
1031.00,0.0015
1030.00,0.0015
1029.00,0.0015
1028.00,0.0015
1027.00,0.0015
1026.00,0.0015
1025.00,0.0015
1024.00,0.0015
1023.00,0.0015
1022.00,0.0015
1021.00,0.0015
1020.00,0.0015
1019.00,0.0015
1018.00,0.0015
1017.00,0.0015
1016.00,0.0016
1015.00,0.0016
1014.00,0.0016
1013.00,0.0016
1012.00,0.0016
1011.00,0.0016
1010.00,0.0015
1009.00,0.0015
1008.00,0.0015
1007.00,0.0015
1006.00,0.0015
1005.00,0.0015
1004.00,0.0015
1003.00,0.0015
1002.00,0.0015
1001.00,0.0015
1000.00,0.0015
999.00,0.0015
998.00,0.0015
997.00,0.0015
996.00,0.0015
995.00,0.0015
994.00,0.0015
993.00,0.0015
992.00,0.0015
991.00,0.0015
990.00,0.0016
989.00,0.0016
988.00,0.0016
987.00,0.0016
986.00,0.0016
985.00,0.0016
984.00,0.0016
983.00,0.0015
982.00,0.0015
981.00,0.0015
980.00,0.0015
979.00,0.0015
978.00,0.0016
977.00,0.0016
976.00,0.0016
975.00,0.0016
974.00,0.0015
973.00,0.0015
972.00,0.0015
971.00,0.0016
970.00,0.0016
969.00,0.0016
968.00,0.0016
967.00,0.0016
966.00,0.0015
965.00,0.0015
964.00,0.0015
963.00,0.0015
962.00,0.0015
961.00,0.0015
960.00,0.0015
959.00,0.0015
958.00,0.0016
957.00,0.0016
956.00,0.0016
955.00,0.0016
954.00,0.0016
953.00,0.0016
952.00,0.0016
951.00,0.0016
950.00,0.0015
949.00,0.0015
948.00,0.0015
947.00,0.0015
946.00,0.0015
945.00,0.0015
944.00,0.0015
943.00,0.0015
942.00,0.0015
941.00,0.0015
940.00,0.0015
939.00,0.0015
938.00,0.0016
937.00,0.0016
936.00,0.0016
935.00,0.0015
934.00,0.0015
933.00,0.0015
932.00,0.0015
931.00,0.0015
930.00,0.0015
929.00,0.0015
928.00,0.0015
927.00,0.0015
926.00,0.0015
925.00,0.0015
924.00,0.0015
923.00,0.0015
922.00,0.0015
921.00,0.0016
920.00,0.0016
919.00,0.0016
918.00,0.0016
917.00,0.0015
916.00,0.0015
915.00,0.0015
914.00,0.0015
913.00,0.0015
912.00,0.0015
911.00,0.0015
910.00,0.0015
909.00,0.0015
908.00,0.0015
907.00,0.0016
906.00,0.0016
905.00,0.0016
904.00,0.0016
903.00,0.0015
902.00,0.0015
901.00,0.0014
900.00,0.0014
899.00,0.0014
898.00,0.0015
897.00,0.0015
896.00,0.0015
895.00,0.0015
894.00,0.0015
893.00,0.0015
892.00,0.0015
891.00,0.0015
890.00,0.0015
889.00,0.0015
888.00,0.0015
887.00,0.0015
886.00,0.0015
885.00,0.0015
884.00,0.0015
883.00,0.0015
882.00,0.0015
881.00,0.0015
880.00,0.0015
879.00,0.0015
878.00,0.0015
877.00,0.0015
876.00,0.0015
875.00,0.0015
874.00,0.0015
873.00,0.0015
872.00,0.0015
871.00,0.0015
870.00,0.0015
869.00,0.0015
868.00,0.0015
867.00,0.0015
866.00,0.0015
865.00,0.0015
864.00,0.0015
863.00,0.0015
862.00,0.0015
861.00,0.0015
860.00,0.0015
859.00,0.0015
858.00,0.0015
857.00,0.0015
856.00,0.0015
855.00,0.0015
854.00,0.0015
853.00,0.0015
852.00,0.0015
851.00,0.0014
850.00,0.0015
849.00,0.0015
848.00,0.0015
847.00,0.0015
846.00,0.0015
845.00,0.0015
844.00,0.0014
843.00,0.0014
842.00,0.0015
841.00,0.0015
840.00,0.0016
839.00,0.0015
838.00,0.0015
837.00,0.0015
836.00,0.0015
835.00,0.0015
834.00,0.0015
833.00,0.0015
832.00,0.0015
831.00,0.0014
830.00,0.0014
829.00,0.0014
828.00,0.0014
827.00,0.0014
826.00,0.0015
825.00,0.0015
824.00,0.0015
823.00,0.0015
822.00,0.0015
821.00,0.0015
820.00,0.0015
819.00,0.0014
818.00,0.0014
817.00,0.0014
816.00,0.0014
815.00,0.0014
814.00,0.0014
813.00,0.0014
812.00,0.0014
811.00,0.0014
810.00,0.0014
809.00,0.0015
808.00,0.0015
807.00,0.0015
806.00,0.0015
805.00,0.0015
804.00,0.0015
803.00,0.0015
802.00,0.0014
801.00,0.0014
800.00,0.0014
799.00,0.0014
798.00,0.0014
797.00,0.0014
796.00,0.0014
795.00,0.0014
794.00,0.0014
793.00,0.0014
792.00,0.0015
791.00,0.0015
790.00,0.0015
789.00,0.0015
788.00,0.0015
787.00,0.0014
786.00,0.0014
785.00,0.0015
784.00,0.0015
783.00,0.0015
782.00,0.0015
781.00,0.0015
780.00,0.0014
779.00,0.0014
778.00,0.0015
777.00,0.0015
776.00,0.0015
775.00,0.0015
774.00,0.0015
773.00,0.0015
772.00,0.0014
771.00,0.0015
770.00,0.0015
769.00,0.0014
768.00,0.0014
767.00,0.0014
766.00,0.0015
765.00,0.0015
764.00,0.0014
763.00,0.0014
762.00,0.0014
761.00,0.0014
760.00,0.0015
759.00,0.0015
758.00,0.0014
757.00,0.0014
756.00,0.0014
755.00,0.0014
754.00,0.0014
753.00,0.0014
752.00,0.0014
751.00,0.0014
750.00,0.0014
749.00,0.0014
748.00,0.0014
747.00,0.0014
746.00,0.0014
745.00,0.0014
744.00,0.0014
743.00,0.0014
742.00,0.0014
741.00,0.0014
740.00,0.0014
739.00,0.0014
738.00,0.0014
737.00,0.0014
736.00,0.0014
735.00,0.0014
734.00,0.0015
733.00,0.0015
732.00,0.0015
731.00,0.0015
730.00,0.0015
729.00,0.0015
728.00,0.0015
727.00,0.0015
726.00,0.0015
725.00,0.0014
724.00,0.0014
723.00,0.0014
722.00,0.0014
721.00,0.0014
720.00,0.0014
719.00,0.0014
718.00,0.0014
717.00,0.0015
716.00,0.0015
715.00,0.0014
714.00,0.0014
713.00,0.0014
712.00,0.0014
711.00,0.0014
710.00,0.0014
709.00,0.0014
708.00,0.0014
707.00,0.0014
706.00,0.0015
705.00,0.0014
704.00,0.0014
703.00,0.0014
702.00,0.0013
701.00,0.0013
700.00,0.0013
699.00,0.0013
698.00,0.0013
697.00,0.0013
696.00,0.0013
695.00,0.0013
694.00,0.0012
693.00,0.0012
692.00,0.0012
691.00,0.0012
690.00,0.0012
689.00,0.0011
688.00,0.0011
687.00,0.0011
686.00,0.0011
685.00,0.0012
684.00,0.0012
683.00,0.0012
682.00,0.0012
681.00,0.0012
680.00,0.0011
679.00,0.0011
678.00,0.0010
677.00,0.0010
676.00,0.0010
675.00,0.0010
674.00,0.0011
673.00,0.0010
672.00,0.0007
671.00,0.0002
670.00,-0.0007
669.00,-0.0020
668.00,-0.0029
667.00,-0.0023
666.00,-0.0011
665.00,-0.0001
664.00,0.0006
663.00,0.0011
662.00,0.0012
661.00,0.0012
660.00,0.0011
659.00,0.0010
658.00,0.0009
657.00,0.0009
656.00,0.0009
655.00,0.0010
654.00,0.0010
653.00,0.0010
652.00,0.0010
651.00,0.0010
650.00,0.0010
649.00,0.0010
648.00,0.0010
647.00,0.0011
646.00,0.0011
645.00,0.0012
644.00,0.0012
643.00,0.0012
642.00,0.0012
641.00,0.0012
640.00,0.0012
639.00,0.0013
638.00,0.0013
637.00,0.0013
636.00,0.0013
635.00,0.0012
634.00,0.0012
633.00,0.0012
632.00,0.0013
631.00,0.0014
630.00,0.0014
629.00,0.0014
628.00,0.0013
627.00,0.0013
626.00,0.0012
625.00,0.0011
624.00,0.0011
623.00,0.0011
622.00,0.0011
621.00,0.0011
620.00,0.0012
619.00,0.0012
618.00,0.0012
617.00,0.0013
616.00,0.0013
615.00,0.0012
614.00,0.0011
613.00,0.0011
612.00,0.0011
611.00,0.0011
610.00,0.0012
609.00,0.0012
608.00,0.0012
607.00,0.0012
606.00,0.0012
605.00,0.0012
604.00,0.0012
603.00,0.0013
602.00,0.0013
601.00,0.0013
600.00,0.0013
599.00,0.0012
598.00,0.0012
597.00,0.0012
596.00,0.0012
595.00,0.0013
594.00,0.0013
593.00,0.0011
592.00,0.0009
591.00,0.0008
590.00,0.0008
589.00,0.0010
588.00,0.0011
587.00,0.0012
586.00,0.0012
585.00,0.0012
584.00,0.0012
583.00,0.0012
582.00,0.0012
581.00,0.0013
580.00,0.0013
579.00,0.0013
578.00,0.0013
577.00,0.0012
576.00,0.0012
575.00,0.0011
574.00,0.0011
573.00,0.0012
572.00,0.0012
571.00,0.0011
570.00,0.0009
569.00,0.0009
568.00,0.0009
567.00,0.0009
566.00,0.0009
565.00,0.0009
564.00,0.0011
563.00,0.0012
562.00,0.0013
561.00,0.0013
560.00,0.0012
559.00,0.0011
558.00,0.0010
557.00,0.0011
556.00,0.0012
555.00,0.0013
554.00,0.0013
553.00,0.0013
552.00,0.0013
551.00,0.0013
550.00,0.0013
549.00,0.0013
548.00,0.0013
547.00,0.0013
546.00,0.0012
545.00,0.0012
544.00,0.0012
543.00,0.0013
542.00,0.0013
541.00,0.0014
540.00,0.0013
539.00,0.0013
538.00,0.0012
537.00,0.0011
536.00,0.0011
535.00,0.0012
534.00,0.0013
533.00,0.0013
532.00,0.0013
531.00,0.0013
530.00,0.0012
529.00,0.0011
528.00,0.0011
527.00,0.0012
526.00,0.0012
525.00,0.0012
524.00,0.0012
523.00,0.0013
522.00,0.0013
521.00,0.0012
520.00,0.0012
519.00,0.0012
518.00,0.0012
517.00,0.0012
516.00,0.0011
515.00,0.0011
514.00,0.0010
513.00,0.0009
512.00,0.0009
511.00,0.0009
510.00,0.0009
509.00,0.0009
508.00,0.0009
507.00,0.0010
506.00,0.0010
505.00,0.0009
504.00,0.0009
503.00,0.0009
502.00,0.0009
501.00,0.0009
500.00,0.0010
