3996.73391,0.00121
3994.67373,0.00115
3992.61356,0.00113
3990.55339,0.00132
3988.49322,0.00165
3986.43305,0.00161
3984.37287,0.00123
3982.31270,0.00102
3980.25253,0.00104
3978.19236,0.00102
3976.13219,0.00095
3974.07201,0.00089
3972.01184,0.00067
3969.95167,0.00027
3967.89150,0.00000
3965.83133,0.00003
3963.77115,0.00021
3961.71098,0.00043
3959.65081,0.00060
3957.59064,0.00072
3955.53046,0.00074
3953.47029,0.00068
3951.41012,0.00071
3949.34995,0.00084
3947.28978,0.00085
3945.22960,0.00076
3943.16943,0.00078
3941.10926,0.00090
3939.04909,0.00109
3936.98892,0.00138
3934.92874,0.00143
3932.86857,0.00106
3930.80840,0.00077
3928.74823,0.00087
3926.68805,0.00110
3924.62788,0.00128
3922.56771,0.00130
3920.50754,0.00116
3918.44737,0.00113
3916.38719,0.00141
3914.32702,0.00167
3912.26685,0.00161
3910.20668,0.00133
3908.14651,0.00087
3906.08633,0.00033
3904.02616,0.00009
3901.96599,0.00042
3899.90582,0.00114
3897.84565,0.00156
3895.78547,0.00136
3893.72530,0.00091
3891.66513,0.00071
3889.60496,0.00086
3887.54478,0.00094
3885.48461,0.00082
3883.42444,0.00061
3881.36427,0.00051
3879.30410,0.00074
3877.24392,0.00098
3875.18375,0.00096
3873.12358,0.00090
3871.06341,0.00117
3869.00324,0.00166
3866.94306,0.00175
3864.88289,0.00140
3862.82272,0.00120
3860.76255,0.00111
3858.70237,0.00079
3856.64220,0.00060
3854.58203,0.00110
3852.52186,0.00176
3850.46169,0.00178
3848.40151,0.00161
3846.34134,0.00144
3844.28117,0.00129
3842.22100,0.00129
3840.16083,0.00146
3838.10065,0.00169
3836.04048,0.00166
3833.98031,0.00124
3831.92014,0.00097
3829.85997,0.00117
3827.79979,0.00144
3825.73962,0.00133
3823.67945,0.00095
3821.61928,0.00078
3819.55910,0.00088
3817.49893,0.00084
3815.43876,0.00080
3813.37859,0.00086
3811.31842,0.00083
3809.25824,0.00078
3807.19807,0.00092
3805.13790,0.00105
3803.07773,0.00099
3801.01756,0.00105
3798.95738,0.00119
3796.89721,0.00116
3794.83704,0.00119
3792.77687,0.00132
3790.71670,0.00124
3788.65652,0.00089
3786.59635,0.00072
3784.53618,0.00083
3782.47601,0.00094
3780.41583,0.00106
3778.35566,0.00128
3776.29549,0.00129
3774.23532,0.00103
3772.17515,0.00083
3770.11497,0.00106
3768.05480,0.00167
3765.99463,0.00222
3763.93446,0.00228
3761.87429,0.00192
3759.81411,0.00177
3757.75394,0.00192
3755.69377,0.00186
3753.63360,0.00175
3751.57342,0.00179
3749.51325,0.00161
3747.45308,0.00124
3745.39291,0.00122
3743.33274,0.00154
3741.27256,0.00151
3739.21239,0.00106
3737.15222,0.00097
3735.09205,0.00189
3733.03188,0.00300
3730.97170,0.00293
3728.91153,0.00182
3726.85136,0.00088
3724.79119,0.00076
3722.73102,0.00103
3720.67084,0.00124
3718.61067,0.00138
3716.55050,0.00129
3714.49033,0.00094
3712.43015,0.00086
3710.36998,0.00134
3708.30981,0.00179
3706.24964,0.00180
3704.18947,0.00157
3702.12929,0.00155
3700.06912,0.00198
3698.00895,0.00248
3695.94878,0.00266
3693.88861,0.00264
3691.82843,0.00271
3689.76826,0.00291
3687.70809,0.00297
3685.64792,0.00290
3683.58775,0.00297
3681.52757,0.00309
3679.46740,0.00285
3677.40723,0.00225
3675.34706,0.00200
3673.28688,0.00256
3671.22671,0.00357
3669.16654,0.00440
3667.10637,0.00445
3665.04620,0.00407
3662.98602,0.00393
3660.92585,0.00409
3658.86568,0.00423
3656.80551,0.00411
3654.74534,0.00378
3652.68516,0.00335
3650.62499,0.00346
3648.56482,0.00472
3646.50465,0.00601
3644.44447,0.00624
3642.38430,0.00598
3640.32413,0.00602
3638.26396,0.00640
3636.20379,0.00667
3634.14361,0.00663
3632.08344,0.00639
3630.02327,0.00658
3627.96310,0.00757
3625.90293,0.00842
3623.84275,0.00859
3621.78258,0.00862
3619.72241,0.00910
3617.66224,0.00978
3615.60207,0.01002
3613.54189,0.01005
3611.48172,0.01027
3609.42155,0.01077
3607.36138,0.01153
3605.30120,0.01209
3603.24103,0.01242
3601.18086,0.01289
3599.12069,0.01311
3597.06052,0.01261
3595.00034,0.01228
3592.94017,0.01289
3590.88000,0.01375
3588.81983,0.01426
3586.75966,0.01455
3584.69948,0.01471
3582.63931,0.01489
3580.57914,0.01534
3578.51897,0.01577
3576.45879,0.01592
3574.39862,0.01616
3572.33845,0.01659
3570.27828,0.01680
3568.21811,0.01667
3566.15793,0.01695
3564.09776,0.01789
3562.03759,0.01860
3559.97742,0.01864
3557.91725,0.01862
3555.85707,0.01906
3553.79690,0.01970
3551.73673,0.02010
3549.67656,0.02013
3547.61639,0.02004
3545.55621,0.02042
3543.49604,0.02120
3541.43587,0.02154
3539.37570,0.02140
3537.31552,0.02141
3535.25535,0.02177
3533.19518,0.02213
3531.13501,0.02242
3529.07484,0.02284
3527.01466,0.02335
3524.95449,0.02379
3522.89432,0.02417
3520.83415,0.02430
3518.77398,0.02420
3516.71380,0.02426
3514.65363,0.02446
3512.59346,0.02465
3510.53329,0.02503
3508.47312,0.02560
3506.41294,0.02601
3504.35277,0.02619
3502.29260,0.02643
3500.23243,0.02681
3498.17225,0.02706
3496.11208,0.02712
3494.05191,0.02741
3491.99174,0.02797
3489.93157,0.02833
3487.87139,0.02855
3485.81122,0.02878
3483.75105,0.02874
3481.69088,0.02869
3479.63071,0.02902
3477.57053,0.02941
3475.51036,0.02972
3473.45019,0.03002
3471.39002,0.03024
3469.32984,0.03040
3467.26967,0.03061
3465.20950,0.03084
3463.14933,0.03092
3461.08916,0.03097
3459.02898,0.03118
3456.96881,0.03162
3454.90864,0.03223
3452.84847,0.03271
3450.78830,0.03292
3448.72812,0.03301
3446.66795,0.03323
3444.60778,0.03349
3442.54761,0.03366
3440.48744,0.03390
3438.42726,0.03405
3436.36709,0.03393
3434.30692,0.03372
3432.24675,0.03349
3430.18657,0.03346
3428.12640,0.03394
3426.06623,0.03451
3424.00606,0.03454
3421.94589,0.03437
3419.88571,0.03451
3417.82554,0.03489
3415.76537,0.03537
3413.70520,0.03579
3411.64503,0.03593
3409.58485,0.03572
3407.52468,0.03529
3405.46451,0.03489
3403.40434,0.03482
3401.34416,0.03506
3399.28399,0.03528
3397.22382,0.03542
3395.16365,0.03558
3393.10348,0.03572
3391.04330,0.03595
3388.98313,0.03617
3386.92296,0.03620
3384.86279,0.03623
3382.80262,0.03636
3380.74244,0.03637
3378.68227,0.03629
3376.62210,0.03661
3374.56193,0.03722
3372.50176,0.03729
3370.44158,0.03673
3368.38141,0.03616
3366.32124,0.03596
3364.26107,0.03603
3362.20089,0.03610
3360.14072,0.03608
3358.08055,0.03618
3356.02038,0.03641
3353.96021,0.03660
3351.90003,0.03671
3349.83986,0.03672
3347.77969,0.03662
3345.71952,0.03654
3343.65935,0.03650
3341.59917,0.03650
3339.53900,0.03658
3337.47883,0.03654
3335.41866,0.03619
3333.35849,0.03591
3331.29831,0.03603
3329.23814,0.03637
3327.17797,0.03656
3325.11780,0.03630
3323.05762,0.03580
3320.99745,0.03565
3318.93728,0.03582
3316.87711,0.03593
3314.81694,0.03606
3312.75676,0.03624
3310.69659,0.03625
3308.63642,0.03606
3306.57625,0.03576
3304.51608,0.03559
3302.45590,0.03564
3300.39573,0.03565
3298.33556,0.03561
3296.27539,0.03574
3294.21521,0.03593
3292.15504,0.03611
3290.09487,0.03617
3288.03470,0.03595
3285.97453,0.03574
3283.91435,0.03583
3281.85418,0.03606
3279.79401,0.03623
3277.73384,0.03606
3275.67367,0.03555
3273.61349,0.03524
3271.55332,0.03524
3269.49315,0.03531
3267.43298,0.03537
3265.37281,0.03530
3263.31263,0.03499
3261.25246,0.03480
3259.19229,0.03505
3257.13212,0.03538
3255.07194,0.03554
3253.01177,0.03547
3250.95160,0.03500
3248.89143,0.03460
3246.83126,0.03471
3244.77108,0.03486
3242.71091,0.03456
3240.65074,0.03416
3238.59057,0.03417
3236.53040,0.03437
3234.47022,0.03441
3232.41005,0.03444
3230.34988,0.03461
3228.28971,0.03484
3226.22954,0.03500
3224.16936,0.03494
3222.10919,0.03454
3220.04902,0.03404
3217.98885,0.03385
3215.92867,0.03394
3213.86850,0.03389
3211.80833,0.03367
3209.74816,0.03354
3207.68799,0.03351
3205.62781,0.03354
3203.56764,0.03348
3201.50747,0.03319
3199.44730,0.03293
3197.38713,0.03301
3195.32695,0.03324
3193.26678,0.03331
3191.20661,0.03320
3189.14644,0.03308
3187.08626,0.03302
3185.02609,0.03287
3182.96592,0.03249
3180.90575,0.03217
3178.84558,0.03201
3176.78540,0.03179
3174.72523,0.03168
3172.66506,0.03185
3170.60489,0.03188
3168.54472,0.03160
3166.48454,0.03136
3164.42437,0.03122
3162.36420,0.03101
3160.30403,0.03076
3158.24386,0.03056
3156.18368,0.03037
3154.12351,0.03018
3152.06334,0.03011
3150.00317,0.03008
3147.94299,0.02987
3145.88282,0.02960
3143.82265,0.02949
3141.76248,0.02942
3139.70231,0.02935
3137.64213,0.02927
3135.58196,0.02898
3133.52179,0.02855
3131.46162,0.02832
3129.40145,0.02821
3127.34127,0.02805
3125.28110,0.02801
3123.22093,0.02812
3121.16076,0.02826
3119.10058,0.02836
3117.04041,0.02816
3114.98024,0.02778
3112.92007,0.02765
3110.85990,0.02754
3108.79972,0.02718
3106.73955,0.02689
3104.67938,0.02685
3102.61921,0.02684
3100.55904,0.02666
3098.49886,0.02633
3096.43869,0.02606
3094.37852,0.02601
3092.31835,0.02604
3090.25818,0.02587
3088.19800,0.02540
3086.13783,0.02504
3084.07766,0.02501
3082.01749,0.02500
3079.95731,0.02494
3077.89714,0.02498
3075.83697,0.02494
3073.77680,0.02467
3071.71663,0.02444
3069.65645,0.02433
3067.59628,0.02419
3065.53611,0.02403
3063.47594,0.02395
3061.41577,0.02393
3059.35559,0.02389
3057.29542,0.02380
3055.23525,0.02361
3053.17508,0.02332
3051.11491,0.02311
3049.05473,0.02309
3046.99456,0.02309
3044.93439,0.02298
3042.87422,0.02281
3040.81404,0.02259
3038.75387,0.02225
3036.69370,0.02190
3034.63353,0.02165
3032.57336,0.02153
3030.51318,0.02162
3028.45301,0.02166
3026.39284,0.02137
3024.33267,0.02107
3022.27250,0.02106
3020.21232,0.02117
3018.15215,0.02115
3016.09198,0.02102
3014.03181,0.02082
3011.97163,0.02064
3009.91146,0.02057
3007.85129,0.02048
3005.79112,0.02028
3003.73095,0.02003
3001.67077,0.01981
2999.61060,0.01968
2997.55043,0.01954
2995.49026,0.01938
2993.43009,0.01934
2991.36991,0.01942
2989.30974,0.01942
2987.24957,0.01928
2985.18940,0.01912
2983.12923,0.01903
2981.06905,0.01902
2979.00888,0.01902
2976.94871,0.01892
2974.88854,0.01868
2972.82836,0.01837
2970.76819,0.01811
2968.70802,0.01804
2966.64785,0.01830
2964.58768,0.01867
2962.52750,0.01890
2960.46733,0.01903
2958.40716,0.01901
2956.34699,0.01885
2954.28682,0.01872
2952.22664,0.01864
2950.16647,0.01842
2948.10630,0.01810
2946.04613,0.01800
2943.98596,0.01819
2941.92578,0.01840
2939.86561,0.01835
2937.80544,0.01808
2935.74527,0.01794
2933.68509,0.01796
2931.62492,0.01796
2929.56475,0.01779
2927.50458,0.01738
2925.44441,0.01706
2923.38423,0.01708
2921.32406,0.01727
2919.26389,0.01747
2917.20372,0.01745
2915.14355,0.01725
2913.08337,0.01703
2911.02320,0.01683
2908.96303,0.01670
2906.90286,0.01658
2904.84268,0.01650
2902.78251,0.01658
2900.72234,0.01650
2898.66217,0.01620
2896.60200,0.01607
2894.54182,0.01610
2892.48165,0.01604
2890.42148,0.01590
2888.36131,0.01582
2886.30114,0.01585
2884.24096,0.01602
2882.18079,0.01616
2880.12062,0.01608
2878.06045,0.01597
2876.00028,0.01595
2873.94010,0.01574
2871.87993,0.01532
2869.81976,0.01503
2867.75959,0.01499
2865.69941,0.01501
2863.63924,0.01493
2861.57907,0.01484
2859.51890,0.01485
2857.45873,0.01490
2855.39855,0.01466
2853.33838,0.01423
2851.27821,0.01408
2849.21804,0.01432
2847.15787,0.01445
2845.09769,0.01410
2843.03752,0.01372
2840.97735,0.01363
2838.91718,0.01370
2836.85700,0.01370
2834.79683,0.01358
2832.73666,0.01341
2830.67649,0.01329
2828.61632,0.01323
2826.55614,0.01319
2824.49597,0.01320
2822.43580,0.01322
2820.37563,0.01316
2818.31546,0.01310
2816.25528,0.01309
2814.19511,0.01306
2812.13494,0.01295
2810.07477,0.01280
2808.01460,0.01272
2805.95442,0.01259
2803.89425,0.01238
2801.83408,0.01228
2799.77391,0.01225
2797.71373,0.01211
2795.65356,0.01200
2793.59339,0.01199
2791.53322,0.01195
2789.47305,0.01181
2787.41287,0.01164
2785.35270,0.01160
2783.29253,0.01179
2781.23236,0.01194
2779.17219,0.01185
2777.11201,0.01170
2775.05184,0.01165
2772.99167,0.01162
2770.93150,0.01148
2768.87133,0.01130
2766.81115,0.01128
2764.75098,0.01140
2762.69081,0.01153
2760.63064,0.01147
2758.57046,0.01114
2756.51029,0.01087
2754.45012,0.01087
2752.38995,0.01108
2750.32978,0.01127
2748.26960,0.01122
2746.20943,0.01102
2744.14926,0.01075
2742.08909,0.01041
2740.02892,0.01025
2737.96874,0.01041
2735.90857,0.01067
2733.84840,0.01080
2731.78823,0.01080
2729.72805,0.01072
2727.66788,0.01055
2725.60771,0.01047
2723.54754,0.01050
2721.48737,0.01044
2719.42719,0.01033
2717.36702,0.01032
2715.30685,0.01024
2713.24668,0.01000
2711.18651,0.00981
2709.12633,0.00979
2707.06616,0.00981
2705.00599,0.00971
2702.94582,0.00955
2700.88565,0.00953
2698.82547,0.00963
2696.76530,0.00969
2694.70513,0.00974
2692.64496,0.00981
2690.58478,0.00982
2688.52461,0.00968
2686.46444,0.00948
2684.40427,0.00944
2682.34410,0.00950
2680.28392,0.00944
2678.22375,0.00930
2676.16358,0.00913
2674.10341,0.00896
2672.04324,0.00887
2669.98306,0.00876
2667.92289,0.00859
2665.86272,0.00859
2663.80255,0.00862
2661.74238,0.00854
2659.68220,0.00841
2657.62203,0.00841
2655.56186,0.00862
2653.50169,0.00873
2651.44151,0.00859
2649.38134,0.00848
2647.32117,0.00845
2645.26100,0.00834
2643.20083,0.00814
2641.14065,0.00802
2639.08048,0.00804
2637.02031,0.00809
2634.96014,0.00818
2632.89997,0.00826
2630.83979,0.00808
2628.77962,0.00769
2626.71945,0.00751
2624.65928,0.00759
2622.59910,0.00766
2620.53893,0.00751
2618.47876,0.00733
2616.41859,0.00747
2614.35842,0.00763
2612.29824,0.00759
2610.23807,0.00767
2608.17790,0.00772
2606.11773,0.00750
2604.05756,0.00723
2601.99738,0.00718
2599.93721,0.00727
2597.87704,0.00725
2595.81687,0.00715
2593.75670,0.00712
2591.69652,0.00714
2589.63635,0.00710
2587.57618,0.00686
2585.51601,0.00654
2583.45583,0.00654
2581.39566,0.00695
2579.33549,0.00729
2577.27532,0.00721
2575.21515,0.00688
2573.15497,0.00658
2571.09480,0.00644
2569.03463,0.00632
2566.97446,0.00634
2564.91429,0.00665
2562.85411,0.00684
2560.79394,0.00683
2558.73377,0.00666
2556.67360,0.00623
2554.61342,0.00602
2552.55325,0.00625
2550.49308,0.00641
2548.43291,0.00635
2546.37274,0.00631
2544.31256,0.00646
2542.25239,0.00661
2540.19222,0.00654
2538.13205,0.00638
2536.07188,0.00632
2534.01170,0.00644
2531.95153,0.00658
2529.89136,0.00660
2527.83119,0.00667
2525.77102,0.00663
2523.71084,0.00630
2521.65067,0.00632
2519.59050,0.00686
2517.53033,0.00710
2515.47015,0.00680
2513.40998,0.00651
2511.34981,0.00632
2509.28964,0.00611
2507.22947,0.00597
2505.16929,0.00588
2503.10912,0.00583
2501.04895,0.00584
2498.98878,0.00597
2496.92861,0.00614
2494.86843,0.00619
2492.80826,0.00618
2490.74809,0.00634
2488.68792,0.00657
2486.62775,0.00671
2484.56757,0.00656
2482.50740,0.00614
2480.44723,0.00586
2478.38706,0.00587
2476.32688,0.00612
2474.26671,0.00646
2472.20654,0.00658
2470.14637,0.00666
2468.08620,0.00700
2466.02602,0.00722
2463.96585,0.00702
2461.90568,0.00655
2459.84551,0.00620
2457.78534,0.00639
2455.72516,0.00685
2453.66499,0.00708
2451.60482,0.00713
2449.54465,0.00723
2447.48447,0.00731
2445.42430,0.00708
2443.36413,0.00674
2441.30396,0.00657
2439.24379,0.00653
2437.18361,0.00664
2435.12344,0.00660
2433.06327,0.00643
2431.00310,0.00676
2428.94293,0.00732
2426.88275,0.00749
2424.82258,0.00737
2422.76241,0.00728
2420.70224,0.00727
2418.64207,0.00704
2416.58189,0.00671
2414.52172,0.00673
2412.46155,0.00669
2410.40138,0.00633
2408.34120,0.00627
2406.28103,0.00653
2404.22086,0.00663
2402.16069,0.00651
2400.10052,0.00640
2398.04034,0.00637
2395.98017,0.00647
2393.92000,0.00657
2391.85983,0.00653
2389.79966,0.00633
2387.73948,0.00608
2385.67931,0.00603
2383.61914,0.00638
2381.55897,0.00694
2379.49880,0.00727
2377.43862,0.00713
2375.37845,0.00671
2373.31828,0.00636
2371.25811,0.00615
2369.19793,0.00608
2367.13776,0.00623
2365.07759,0.00591
2363.01742,0.00515
2360.95725,0.00616
2358.89707,0.00850
2356.83690,0.00897
2354.77673,0.00816
2352.71656,0.00849
2350.65639,0.00919
2348.59621,0.00892
2346.53604,0.00802
2344.47587,0.00751
2342.41570,0.00761
2340.35552,0.00728
2338.29535,0.00646
2336.23518,0.00565
2334.17501,0.00437
2332.11484,0.00360
2330.05466,0.00539
2327.99449,0.00861
2325.93432,0.00987
2323.87415,0.00870
2321.81398,0.00739
2319.75380,0.00695
2317.69363,0.00679
2315.63346,0.00670
2313.57329,0.00664
2311.51312,0.00650
2309.45294,0.00640
2307.39277,0.00632
2305.33260,0.00633
2303.27243,0.00676
2301.21225,0.00737
2299.15208,0.00756
2297.09191,0.00749
2295.03174,0.00741
2292.97157,0.00718
2290.91139,0.00697
2288.85122,0.00701
2286.79105,0.00707
2284.73088,0.00696
2282.67071,0.00662
2280.61053,0.00620
2278.55036,0.00622
2276.49019,0.00684
2274.43002,0.00732
2272.36984,0.00733
2270.30967,0.00721
2268.24950,0.00677
2266.18933,0.00591
2264.12916,0.00528
2262.06898,0.00520
2260.00881,0.00532
2257.94864,0.00551
2255.88847,0.00590
2253.82830,0.00643
2251.76812,0.00658
2249.70795,0.00637
2247.64778,0.00659
2245.58761,0.00708
2243.52744,0.00688
2241.46726,0.00647
2239.40709,0.00672
2237.34692,0.00681
2235.28675,0.00627
2233.22657,0.00638
2231.16640,0.00693
2229.10623,0.00649
2227.04606,0.00582
2224.98589,0.00543
2222.92571,0.00488
2220.86554,0.00483
2218.80537,0.00474
2216.74520,0.00386
2214.68503,0.00349
2212.62485,0.00479
2210.56468,0.00655
2208.50451,0.00674
2206.44434,0.00635
2204.38417,0.00656
2202.32399,0.00608
2200.26382,0.00488
2198.20365,0.00445
2196.14348,0.00477
2194.08330,0.00475
2192.02313,0.00417
2189.96296,0.00364
2187.90279,0.00384
2185.84262,0.00437
2183.78244,0.00490
2181.72227,0.00614
2179.66210,0.00718
2177.60193,0.00720
2175.54176,0.00655
2173.48158,0.00549
2171.42141,0.00510
2169.36124,0.00539
2167.30107,0.00509
2165.24089,0.00448
2163.18072,0.00471
2161.12055,0.00491
2159.06038,0.00355
2157.00021,0.00177
2154.94003,0.00120
2152.87986,0.00189
2150.81969,0.00293
2148.75952,0.00361
2146.69935,0.00422
2144.63917,0.00475
2142.57900,0.00447
2140.51883,0.00350
2138.45866,0.00301
2136.39849,0.00346
2134.33831,0.00370
2132.27814,0.00332
2130.21797,0.00327
2128.15780,0.00373
2126.09762,0.00428
2124.03745,0.00477
2121.97728,0.00509
2119.91711,0.00520
2117.85694,0.00555
2115.79676,0.00603
2113.73659,0.00583
2111.67642,0.00498
2109.61625,0.00448
2107.55608,0.00460
2105.49590,0.00454
2103.43573,0.00439
2101.37556,0.00465
2099.31539,0.00478
2097.25521,0.00456
2095.19504,0.00452
2093.13487,0.00485
2091.07470,0.00504
2089.01453,0.00481
2086.95435,0.00436
2084.89418,0.00421
2082.83401,0.00468
2080.77384,0.00530
2078.71367,0.00543
2076.65349,0.00507
2074.59332,0.00476
2072.53315,0.00477
2070.47298,0.00492
2068.41281,0.00509
2066.35263,0.00501
2064.29246,0.00463
2062.23229,0.00430
2060.17212,0.00431
2058.11194,0.00459
2056.05177,0.00494
2053.99160,0.00533
2051.93143,0.00520
2049.87126,0.00428
2047.81108,0.00358
2045.75091,0.00323
2043.69074,0.00281
2041.63057,0.00294
2039.57040,0.00359
2037.51022,0.00375
2035.45005,0.00332
2033.38988,0.00271
2031.32971,0.00200
2029.26954,0.00131
2027.20936,0.00093
2025.14919,0.00129
2023.08902,0.00213
2021.02885,0.00237
2018.96867,0.00205
2016.90850,0.00216
2014.84833,0.00267
2012.78816,0.00311
2010.72799,0.00332
2008.66781,0.00289
2006.60764,0.00201
2004.54747,0.00209
2002.48730,0.00384
2000.42713,0.00572
1998.36695,0.00599
1996.30678,0.00541
1994.24661,0.00524
1992.18644,0.00464
1990.12626,0.00312
1988.06609,0.00218
1986.00592,0.00252
1983.94575,0.00237
1981.88558,0.00087
1979.82540,0.00000
1977.76523,0.00053
1975.70506,0.00119
1973.64489,0.00113
1971.58472,0.00076
1969.52454,0.00088
1967.46437,0.00120
1965.40420,0.00144
1963.34403,0.00170
1961.28386,0.00156
1959.22368,0.00130
1957.16351,0.00191
1955.10334,0.00308
1953.04317,0.00368
1950.98299,0.00376
1948.92282,0.00370
1946.86265,0.00358
1944.80248,0.00348
1942.74231,0.00371
1940.68213,0.00440
1938.62196,0.00473
1936.56179,0.00423
1934.50162,0.00340
1932.44145,0.00289
1930.38127,0.00279
1928.32110,0.00275
1926.26093,0.00270
1924.20076,0.00279
1922.14059,0.00301
1920.08041,0.00312
1918.02024,0.00274
1915.96007,0.00211
1913.89990,0.00199
1911.83972,0.00257
1909.77955,0.00323
1907.71938,0.00340
1905.65921,0.00321
1903.59904,0.00313
1901.53886,0.00318
1899.47869,0.00320
1897.41852,0.00306
1895.35835,0.00270
1893.29818,0.00217
1891.23800,0.00183
1889.17783,0.00213
1887.11766,0.00268
1885.05749,0.00274
1882.99731,0.00253
1880.93714,0.00250
1878.87697,0.00260
1876.81680,0.00270
1874.75663,0.00272
1872.69645,0.00272
1870.63628,0.00271
1868.57611,0.00263
1866.51594,0.00239
1864.45577,0.00209
1862.39559,0.00213
1860.33542,0.00250
1858.27525,0.00261
1856.21508,0.00231
1854.15491,0.00224
1852.09473,0.00262
1850.03456,0.00274
1847.97439,0.00227
1845.91422,0.00192
1843.85404,0.00236
1841.79387,0.00294
1839.73370,0.00297
1837.67353,0.00282
1835.61336,0.00284
1833.55318,0.00291
1831.49301,0.00279
1829.43284,0.00244
1827.37267,0.00219
1825.31250,0.00227
1823.25232,0.00248
1821.19215,0.00255
1819.13198,0.00247
1817.07181,0.00243
1815.01163,0.00250
1812.95146,0.00256
1810.89129,0.00263
1808.83112,0.00270
1806.77095,0.00276
1804.71077,0.00283
1802.65060,0.00294
1800.59043,0.00298
1798.53026,0.00282
1796.47009,0.00251
1794.40991,0.00230
1792.34974,0.00238
1790.28957,0.00266
1788.22940,0.00290
1786.16923,0.00302
1784.10905,0.00301
1782.04888,0.00294
1779.98871,0.00283
1777.92854,0.00268
1775.86836,0.00250
1773.80819,0.00228
1771.74802,0.00212
1769.68785,0.00222
1767.62768,0.00268
1765.56750,0.00323
1763.50733,0.00347
1761.44716,0.00343
1759.38699,0.00343
1757.32682,0.00361
1755.26664,0.00372
1753.20647,0.00363
1751.14630,0.00362
1749.08613,0.00391
1747.02596,0.00417
1744.96578,0.00414
1742.90561,0.00407
1740.84544,0.00423
1738.78527,0.00444
1736.72509,0.00449
1734.66492,0.00456
1732.60475,0.00477
1730.54458,0.00494
1728.48441,0.00514
1726.42423,0.00540
1724.36406,0.00554
1722.30389,0.00543
1720.24372,0.00517
1718.18355,0.00511
1716.12337,0.00544
1714.06320,0.00588
1712.00303,0.00621
1709.94286,0.00634
1707.88268,0.00631
1705.82251,0.00634
1703.76234,0.00643
1701.70217,0.00652
1699.64200,0.00691
1697.58182,0.00756
1695.52165,0.00819
1693.46148,0.00857
1691.40131,0.00856
1689.34114,0.00851
1687.28096,0.00864
1685.22079,0.00895
1683.16062,0.00969
1681.10045,0.01061
1679.04028,0.01137
1676.98010,0.01192
1674.91993,0.01224
1672.85976,0.01233
1670.79959,0.01251
1668.73941,0.01308
1666.67924,0.01358
1664.61907,0.01386
1662.55890,0.01440
1660.49873,0.01513
1658.43855,0.01537
1656.37838,0.01505
1654.31821,0.01491
1652.25804,0.01545
1650.19787,0.01560
1648.13769,0.01536
1646.07752,0.01558
1644.01735,0.01595
1641.95718,0.01590
1639.89701,0.01565
1637.83683,0.01547
1635.77666,0.01554
1633.71649,0.01564
1631.65632,0.01539
1629.59614,0.01494
1627.53597,0.01458
1625.47580,0.01439
1623.41563,0.01433
1621.35546,0.01422
1619.29528,0.01391
1617.23511,0.01365
1615.17494,0.01367
1613.11477,0.01357
1611.05460,0.01316
1608.99442,0.01272
1606.93425,0.01250
1604.87408,0.01239
1602.81391,0.01222
1600.75373,0.01194
1598.69356,0.01156
1596.63339,0.01111
1594.57322,0.01070
1592.51305,0.01041
1590.45287,0.01011
1588.39270,0.00969
1586.33253,0.00927
1584.27236,0.00889
1582.21219,0.00847
1580.15201,0.00796
1578.09184,0.00738
1576.03167,0.00704
1573.97150,0.00704
1571.91133,0.00689
1569.85115,0.00654
1567.79098,0.00638
1565.73081,0.00634
1563.67064,0.00607
1561.61046,0.00552
1559.55029,0.00514
1557.49012,0.00534
1555.42995,0.00543
1553.36978,0.00514
1551.30960,0.00475
1549.24943,0.00450
1547.18926,0.00429
1545.12909,0.00377
1543.06892,0.00307
1541.00874,0.00294
1538.94857,0.00355
1536.88840,0.00382
1534.82823,0.00358
1532.76805,0.00332
1530.70788,0.00316
1528.64771,0.00293
1526.58754,0.00254
1524.52737,0.00201
1522.46719,0.00168
1520.40702,0.00193
1518.34685,0.00234
1516.28668,0.00249
1514.22651,0.00238
1512.16633,0.00204
1510.10616,0.00153
1508.04599,0.00130
1505.98582,0.00176
1503.92565,0.00219
1501.86547,0.00217
1499.80530,0.00199
1497.74513,0.00189
1495.68496,0.00187
1493.62478,0.00172
1491.56461,0.00148
1489.50444,0.00142
1487.44427,0.00164
1485.38410,0.00188
1483.32392,0.00200
1481.26375,0.00204
1479.20358,0.00205
1477.14341,0.00198
1475.08324,0.00185
1473.02306,0.00190
1470.96289,0.00222
1468.90272,0.00248
1466.84255,0.00265
1464.78238,0.00294
1462.72220,0.00314
1460.66203,0.00289
1458.60186,0.00253
1456.54169,0.00274
1454.48151,0.00326
1452.42134,0.00344
1450.36117,0.00339
1448.30100,0.00344
1446.24083,0.00361
1444.18065,0.00363
1442.12048,0.00339
1440.06031,0.00308
1438.00014,0.00297
1435.93997,0.00319
1433.87979,0.00348
1431.81962,0.00364
1429.75945,0.00375
1427.69928,0.00381
1425.63910,0.00377
1423.57893,0.00369
1421.51876,0.00364
1419.45859,0.00374
1417.39842,0.00402
1415.33824,0.00417
1413.27807,0.00413
1411.21790,0.00408
1409.15773,0.00401
1407.09756,0.00388
1405.03738,0.00380
1402.97721,0.00375
1400.91704,0.00354
1398.85687,0.00320
1396.79670,0.00293
1394.73652,0.00291
1392.67635,0.00308
1390.61618,0.00311
1388.55601,0.00301
1386.49583,0.00308
1384.43566,0.00333
1382.37549,0.00343
1380.31532,0.00331
1378.25515,0.00315
1376.19497,0.00313
1374.13480,0.00325
1372.07463,0.00337
1370.01446,0.00343
1367.95429,0.00347
1365.89411,0.00339
1363.83394,0.00321
1361.77377,0.00305
1359.71360,0.00297
1357.65343,0.00292
1355.59325,0.00278
1353.53308,0.00257
1351.47291,0.00244
1349.41274,0.00239
1347.35256,0.00234
1345.29239,0.00231
1343.23222,0.00224
1341.17205,0.00211
1339.11188,0.00206
1337.05170,0.00207
1334.99153,0.00208
1332.93136,0.00215
1330.87119,0.00224
1328.81102,0.00218
1326.75084,0.00204
1324.69067,0.00197
1322.63050,0.00187
1320.57033,0.00164
1318.51015,0.00147
1316.44998,0.00150
1314.38981,0.00159
1312.32964,0.00166
1310.26947,0.00165
1308.20929,0.00153
1306.14912,0.00139
1304.08895,0.00143
1302.02878,0.00168
1299.96861,0.00187
1297.90843,0.00178
1295.84826,0.00166
1293.78809,0.00167
1291.72792,0.00171
1289.66775,0.00174
1287.60757,0.00175
1285.54740,0.00178
1283.48723,0.00185
1281.42706,0.00187
1279.36688,0.00179
1277.30671,0.00180
1275.24654,0.00195
1273.18637,0.00200
1271.12620,0.00196
1269.06602,0.00195
1267.00585,0.00190
1264.94568,0.00182
1262.88551,0.00193
1260.82534,0.00222
1258.76516,0.00239
1256.70499,0.00226
1254.64482,0.00209
1252.58465,0.00209
1250.52447,0.00209
1248.46430,0.00193
1246.40413,0.00167
1244.34396,0.00156
1242.28379,0.00165
1240.22361,0.00175
1238.16344,0.00175
1236.10327,0.00178
1234.04310,0.00186
1231.98293,0.00182
1229.92275,0.00166
1227.86258,0.00158
1225.80241,0.00159
1223.74224,0.00158
1221.68207,0.00151
1219.62189,0.00135
1217.56172,0.00114
1215.50155,0.00102
1213.44138,0.00097
1211.38120,0.00089
1209.32103,0.00075
1207.26086,0.00056
1205.20069,0.00040
1203.14052,0.00041
1201.08034,0.00059
1199.02017,0.00056
1196.96000,0.00019
1194.89983,0.00000
1192.83966,0.00009
1190.77948,0.00026
1188.71931,0.00049
1186.65914,0.00079
1184.59897,0.00116
1182.53880,0.00160
1180.47862,0.00193
1178.41845,0.00214
1176.35828,0.00242
1174.29811,0.00293
1172.23793,0.00358
1170.17776,0.00421
1168.11759,0.00476
1166.05742,0.00507
1163.99725,0.00527
1161.93707,0.00567
1159.87690,0.00606
1157.81673,0.00631
1155.75656,0.00662
1153.69639,0.00697
1151.63621,0.00737
1149.57604,0.00789
1147.51587,0.00842
1145.45570,0.00892
1143.39552,0.00947
1141.33535,0.00993
1139.27518,0.01027
1137.21501,0.01065
1135.15484,0.01113
1133.09466,0.01164
1131.03449,0.01212
1128.97432,0.01254
1126.91415,0.01301
1124.85398,0.01364
1122.79380,0.01425
1120.73363,0.01475
1118.67346,0.01525
1116.61329,0.01593
1114.55312,0.01673
1112.49294,0.01740
1110.43277,0.01808
1108.37260,0.01901
1106.31243,0.01994
1104.25225,0.02071
1102.19208,0.02152
1100.13191,0.02255
1098.07174,0.02361
1096.01157,0.02458
1093.95139,0.02546
1091.89122,0.02624
1089.83105,0.02694
1087.77088,0.02750
1085.71071,0.02796
1083.65053,0.02858
1081.59036,0.02943
1079.53019,0.03032
1077.47002,0.03102
1075.40985,0.03143
1073.34967,0.03186
1071.28950,0.03229
1069.22933,0.03245
1067.16916,0.03247
1065.10898,0.03244
1063.04881,0.03234
1060.98864,0.03232
1058.92847,0.03235
1056.86830,0.03210
1054.80812,0.03162
1052.74795,0.03127
1050.68778,0.03102
1048.62761,0.03055
1046.56744,0.02985
1044.50726,0.02919
1042.44709,0.02865
1040.38692,0.02800
1038.32675,0.02733
1036.26657,0.02684
1034.20640,0.02625
1032.14623,0.02545
1030.08606,0.02473
1028.02589,0.02405
1025.96571,0.02337
1023.90554,0.02288
1021.84537,0.02248
1019.78520,0.02204
1017.72503,0.02154
1015.66485,0.02096
1013.60468,0.02038
1011.54451,0.01965
1009.48434,0.01875
1007.42417,0.01802
1005.36399,0.01760
1003.30382,0.01727
1001.24365,0.01708
999.18348,0.01715
997.12330,0.01757
995.06313,0.01818
993.00296,0.01857
990.94279,0.01881
988.88262,0.01925
986.82244,0.01953
984.76227,0.01920
982.70210,0.01856
980.64193,0.01806
978.58176,0.01762
976.52158,0.01685
974.46141,0.01565
972.40124,0.01441
970.34107,0.01334
968.28089,0.01229
966.22072,0.01117
964.16055,0.01009
962.10038,0.00930
960.04021,0.00892
957.98003,0.00852
955.91986,0.00795
953.85969,0.00749
951.79952,0.00719
949.73935,0.00684
947.67917,0.00658
945.61900,0.00666
943.55883,0.00669
941.49866,0.00646
939.43849,0.00631
937.37831,0.00624
935.31814,0.00613
933.25797,0.00613
931.19780,0.00614
929.13762,0.00581
927.07745,0.00534
925.01728,0.00512
922.95711,0.00508
920.89694,0.00514
918.83676,0.00504
916.77659,0.00441
914.71642,0.00356
912.65625,0.00303
910.59608,0.00274
908.53590,0.00249
906.47573,0.00237
904.41556,0.00247
902.35539,0.00260
900.29522,0.00258
898.23504,0.00252
896.17487,0.00243
894.11470,0.00263
892.05453,0.00315
889.99435,0.00332
887.93418,0.00312
885.87401,0.00315
883.81384,0.00341
881.75367,0.00367
879.69349,0.00406
877.63332,0.00444
875.57315,0.00436
873.51298,0.00404
871.45281,0.00408
869.39263,0.00466
867.33246,0.00536
865.27229,0.00566
863.21212,0.00573
861.15194,0.00577
859.09177,0.00557
857.03160,0.00528
854.97143,0.00527
852.91126,0.00527
850.85108,0.00489
848.79091,0.00447
846.73074,0.00426
844.67057,0.00427
842.61040,0.00428
840.55022,0.00382
838.49005,0.00328
836.42988,0.00335
834.36971,0.00368
832.30954,0.00356
830.24936,0.00306
828.18919,0.00256
826.12902,0.00216
824.06885,0.00195
822.00867,0.00187
819.94850,0.00183
817.88833,0.00178
815.82816,0.00157
813.76799,0.00123
811.70781,0.00107
809.64764,0.00123
807.58747,0.00126
805.52730,0.00115
803.46713,0.00138
801.40695,0.00140
799.34678,0.00112
797.28661,0.00096
795.22644,0.00079
793.16627,0.00068
791.10609,0.00059
789.04592,0.00042
786.98575,0.00047
784.92558,0.00075
782.86540,0.00100
780.80523,0.00107
778.74506,0.00095
776.68489,0.00105
774.62472,0.00142
772.56454,0.00169
770.50437,0.00173
768.44420,0.00158
766.38403,0.00124
764.32386,0.00117
762.26368,0.00157
760.20351,0.00179
758.14334,0.00175
756.08317,0.00172
754.02299,0.00161
751.96282,0.00110
749.90265,0.00049
747.84248,0.00043
745.78231,0.00032
743.72213,0.00000
741.66196,0.00029
739.60179,0.00067
737.54162,0.00050
735.48145,0.00051
733.42127,0.00071
731.36110,0.00062
729.30093,0.00054
727.24076,0.00064
725.18059,0.00087
723.12041,0.00123
721.06024,0.00144
719.00007,0.00145
716.93990,0.00150
714.87972,0.00172
712.81955,0.00199
710.75938,0.00214
708.69921,0.00196
706.63904,0.00151
704.57886,0.00117
702.51869,0.00100
700.45852,0.00063
698.39835,0.00035
696.33818,0.00070
694.27800,0.00105
692.21783,0.00084
690.15766,0.00084
688.09749,0.00169
686.03731,0.00262
683.97714,0.00253
681.91697,0.00199
679.85680,0.00188
677.79663,0.00174
675.73645,0.00134
673.67628,0.00119
671.61611,0.00137
669.55594,0.00194
667.49577,0.00309
665.43559,0.00400
663.37542,0.00434
661.31525,0.00459
659.25508,0.00469
657.19491,0.00369
655.13473,0.00189
653.07456,0.00096
651.01439,0.00117
648.95422,0.00172
646.89404,0.00222
644.83387,0.00267
642.77370,0.00293
640.71353,0.00220
638.65336,0.00062
636.59318,0.00000
634.53301,0.00061
632.47284,0.00080
630.41267,0.00017
628.35250,-0.00024
626.29232,-0.00041
624.23215,-0.00063
622.17198,-0.00057
620.11181,-0.00004
618.05164,0.00090
615.99146,0.00118
613.93129,0.00091
611.87112,0.00050
609.81095,-0.00055
607.75077,-0.00083
605.69060,0.00038
603.63043,0.00104
601.57026,0.00071
599.51009,0.00000
