3996.73391,0.00155
3994.67373,0.00119
3992.61356,0.00107
3990.55339,0.00132
3988.49322,0.00162
3986.43305,0.00163
3984.37287,0.00140
3982.31270,0.00121
3980.25253,0.00116
3978.19236,0.00107
3976.13219,0.00096
3974.07201,0.00098
3972.01184,0.00089
3969.95167,0.00043
3967.89150,0.00001
3965.83133,0.00000
3963.77115,0.00031
3961.71098,0.00082
3959.65081,0.00128
3957.59064,0.00146
3955.53046,0.00134
3953.47029,0.00108
3951.41012,0.00094
3949.34995,0.00104
3947.28978,0.00117
3945.22960,0.00128
3943.16943,0.00137
3941.10926,0.00127
3939.04909,0.00115
3936.98892,0.00124
3934.92874,0.00144
3932.86857,0.00157
3930.80840,0.00165
3928.74823,0.00171
3926.68805,0.00169
3924.62788,0.00164
3922.56771,0.00158
3920.50754,0.00149
3918.44737,0.00155
3916.38719,0.00175
3914.32702,0.00188
3912.26685,0.00181
3910.20668,0.00162
3908.14651,0.00134
3906.08633,0.00103
3904.02616,0.00096
3901.96599,0.00119
3899.90582,0.00142
3897.84565,0.00135
3895.78547,0.00111
3893.72530,0.00094
3891.66513,0.00099
3889.60496,0.00132
3887.54478,0.00160
3885.48461,0.00164
3883.42444,0.00150
3881.36427,0.00143
3879.30410,0.00164
3877.24392,0.00173
3875.18375,0.00136
3873.12358,0.00090
3871.06341,0.00091
3869.00324,0.00147
3866.94306,0.00188
3864.88289,0.00174
3862.82272,0.00134
3860.76255,0.00097
3858.70237,0.00076
3856.64220,0.00078
3854.58203,0.00112
3852.52186,0.00157
3850.46169,0.00171
3848.40151,0.00157
3846.34134,0.00127
3844.28117,0.00103
3842.22100,0.00104
3840.16083,0.00118
3838.10065,0.00134
3836.04048,0.00156
3833.98031,0.00177
3831.92014,0.00177
3829.85997,0.00142
3827.79979,0.00103
3825.73962,0.00090
3823.67945,0.00079
3821.61928,0.00059
3819.55910,0.00058
3817.49893,0.00067
3815.43876,0.00078
3813.37859,0.00086
3811.31842,0.00083
3809.25824,0.00065
3807.19807,0.00056
3805.13790,0.00083
3803.07773,0.00134
3801.01756,0.00169
3798.95738,0.00164
3796.89721,0.00143
3794.83704,0.00134
3792.77687,0.00126
3790.71670,0.00110
3788.65652,0.00101
3786.59635,0.00118
3784.53618,0.00147
3782.47601,0.00155
3780.41583,0.00156
3778.35566,0.00167
3776.29549,0.00158
3774.23532,0.00129
3772.17515,0.00127
3770.11497,0.00171
3768.05480,0.00210
3765.99463,0.00201
3763.93446,0.00155
3761.87429,0.00114
3759.81411,0.00124
3757.75394,0.00141
3755.69377,0.00100
3753.63360,0.00044
3751.57342,0.00035
3749.51325,0.00070
3747.45308,0.00113
3745.39291,0.00146
3743.33274,0.00149
3741.27256,0.00125
3739.21239,0.00109
3737.15222,0.00123
3735.09205,0.00186
3733.03188,0.00255
3730.97170,0.00257
3728.91153,0.00214
3726.85136,0.00193
3724.79119,0.00200
3722.73102,0.00191
3720.67084,0.00155
3718.61067,0.00116
3716.55050,0.00096
3714.49033,0.00084
3712.43015,0.00072
3710.36998,0.00081
3708.30981,0.00122
3706.24964,0.00170
3704.18947,0.00201
3702.12929,0.00216
3700.06912,0.00233
3698.00895,0.00242
3695.94878,0.00239
3693.88861,0.00229
3691.82843,0.00216
3689.76826,0.00196
3687.70809,0.00192
3685.64792,0.00214
3683.58775,0.00253
3681.52757,0.00279
3679.46740,0.00262
3677.40723,0.00200
3675.34706,0.00145
3673.28688,0.00153
3671.22671,0.00220
3669.16654,0.00301
3667.10637,0.00334
3665.04620,0.00325
3662.98602,0.00316
3660.92585,0.00332
3658.86568,0.00362
3656.80551,0.00379
3654.74534,0.00365
3652.68516,0.00315
3650.62499,0.00272
3648.56482,0.00316
3646.50465,0.00427
3644.44447,0.00502
3642.38430,0.00530
3640.32413,0.00531
3638.26396,0.00520
3636.20379,0.00543
3634.14361,0.00617
3632.08344,0.00697
3630.02327,0.00771
3627.96310,0.00855
3625.90293,0.00888
3623.84275,0.00866
3621.78258,0.00856
3619.72241,0.00890
3617.66224,0.00941
3615.60207,0.00977
3613.54189,0.01020
3611.48172,0.01059
3609.42155,0.01088
3607.36138,0.01117
3605.30120,0.01125
3603.24103,0.01133
3601.18086,0.01180
3599.12069,0.01237
3597.06052,0.01264
3595.00034,0.01295
3592.94017,0.01349
3590.88000,0.01398
3588.81983,0.01448
3586.75966,0.01494
3584.69948,0.01505
3582.63931,0.01505
3580.57914,0.01523
3578.51897,0.01547
3576.45879,0.01583
3574.39862,0.01634
3572.33845,0.01674
3570.27828,0.01685
3568.21811,0.01686
3566.15793,0.01721
3564.09776,0.01801
3562.03759,0.01869
3559.97742,0.01890
3557.91725,0.01893
3555.85707,0.01915
3553.79690,0.01963
3551.73673,0.02025
3549.67656,0.02072
3547.61639,0.02088
3545.55621,0.02117
3543.49604,0.02184
3541.43587,0.02231
3539.37570,0.02226
3537.31552,0.02220
3535.25535,0.02251
3533.19518,0.02292
3531.13501,0.02333
3529.07484,0.02387
3527.01466,0.02443
3524.95449,0.02481
3522.89432,0.02513
3520.83415,0.02537
3518.77398,0.02543
3516.71380,0.02556
3514.65363,0.02592
3512.59346,0.02628
3510.53329,0.02651
3508.47312,0.02677
3506.41294,0.02713
3504.35277,0.02746
3502.29260,0.02772
3500.23243,0.02795
3498.17225,0.02807
3496.11208,0.02817
3494.05191,0.02850
3491.99174,0.02903
3489.93157,0.02946
3487.87139,0.02980
3485.81122,0.03013
3483.75105,0.03039
3481.69088,0.03060
3479.63071,0.03074
3477.57053,0.03080
3475.51036,0.03110
3473.45019,0.03173
3471.39002,0.03214
3469.32984,0.03218
3467.26967,0.03233
3465.20950,0.03272
3463.14933,0.03292
3461.08916,0.03289
3459.02898,0.03305
3456.96881,0.03353
3454.90864,0.03398
3452.84847,0.03419
3450.78830,0.03427
3448.72812,0.03437
3446.66795,0.03462
3444.60778,0.03482
3442.54761,0.03490
3440.48744,0.03510
3438.42726,0.03538
3436.36709,0.03549
3434.30692,0.03550
3432.24675,0.03553
3430.18657,0.03576
3428.12640,0.03639
3426.06623,0.03702
3424.00606,0.03713
3421.94589,0.03703
3419.88571,0.03714
3417.82554,0.03740
3415.76537,0.03760
3413.70520,0.03772
3411.64503,0.03781
3409.58485,0.03777
3407.52468,0.03763
3405.46451,0.03759
3403.40434,0.03773
3401.34416,0.03785
3399.28399,0.03803
3397.22382,0.03857
3395.16365,0.03907
3393.10348,0.03902
3391.04330,0.03882
3388.98313,0.03894
3386.92296,0.03916
3384.86279,0.03928
3382.80262,0.03941
3380.74244,0.03955
3378.68227,0.03963
3376.62210,0.03979
3374.56193,0.04006
3372.50176,0.04012
3370.44158,0.03992
3368.38141,0.03984
3366.32124,0.04011
3364.26107,0.04044
3362.20089,0.04054
3360.14072,0.04046
3358.08055,0.04033
3356.02038,0.04025
3353.96021,0.04003
3351.90003,0.03969
3349.83986,0.03969
3347.77969,0.04015
3345.71952,0.04054
3343.65935,0.04059
3341.59917,0.04047
3339.53900,0.04032
3337.47883,0.04009
3335.41866,0.03976
3333.35849,0.03961
3331.29831,0.03977
3329.23814,0.04008
3327.17797,0.04046
3325.11780,0.04074
3323.05762,0.04082
3320.99745,0.04074
3318.93728,0.04066
3316.87711,0.04056
3314.81694,0.04032
3312.75676,0.04006
3310.69659,0.04005
3308.63642,0.04025
3306.57625,0.04029
3304.51608,0.04014
3302.45590,0.04014
3300.39573,0.04028
3298.33556,0.04028
3296.27539,0.04031
3294.21521,0.04057
3292.15504,0.04084
3290.09487,0.04095
3288.03470,0.04077
3285.97453,0.04059
3283.91435,0.04069
3281.85418,0.04082
3279.79401,0.04082
3277.73384,0.04073
3275.67367,0.04050
3273.61349,0.04034
3271.55332,0.04030
3269.49315,0.04020
3267.43298,0.04009
3265.37281,0.04009
3263.31263,0.04018
3261.25246,0.04031
3259.19229,0.04040
3257.13212,0.04045
3255.07194,0.04048
3253.01177,0.04038
3250.95160,0.04008
3248.89143,0.03994
3246.83126,0.03997
3244.77108,0.03987
3242.71091,0.03977
3240.65074,0.03985
3238.59057,0.04001
3236.53040,0.03995
3234.47022,0.03953
3232.41005,0.03925
3230.34988,0.03936
3228.28971,0.03971
3226.22954,0.04010
3224.16936,0.04020
3222.10919,0.03987
3220.04902,0.03943
3217.98885,0.03926
3215.92867,0.03948
3213.86850,0.03983
3211.80833,0.03997
3209.74816,0.03975
3207.68799,0.03943
3205.62781,0.03925
3203.56764,0.03909
3201.50747,0.03887
3199.44730,0.03873
3197.38713,0.03875
3195.32695,0.03882
3193.26678,0.03883
3191.20661,0.03874
3189.14644,0.03864
3187.08626,0.03856
3185.02609,0.03828
3182.96592,0.03786
3180.90575,0.03772
3178.84558,0.03771
3176.78540,0.03748
3174.72523,0.03725
3172.66506,0.03721
3170.60489,0.03715
3168.54472,0.03712
3166.48454,0.03719
3164.42437,0.03718
3162.36420,0.03700
3160.30403,0.03677
3158.24386,0.03653
3156.18368,0.03627
3154.12351,0.03603
3152.06334,0.03598
3150.00317,0.03600
3147.94299,0.03573
3145.88282,0.03534
3143.82265,0.03518
3141.76248,0.03508
3139.70231,0.03526
3137.64213,0.03555
3135.58196,0.03526
3133.52179,0.03460
3131.46162,0.03437
3129.40145,0.03454
3127.34127,0.03450
3125.28110,0.03419
3123.22093,0.03395
3121.16076,0.03394
3119.10058,0.03400
3117.04041,0.03380
3114.98024,0.03339
3112.92007,0.03312
3110.85990,0.03303
3108.79972,0.03288
3106.73955,0.03258
3104.67938,0.03237
3102.61921,0.03237
3100.55904,0.03232
3098.49886,0.03206
3096.43869,0.03184
3094.37852,0.03181
3092.31835,0.03173
3090.25818,0.03152
3088.19800,0.03125
3086.13783,0.03099
3084.07766,0.03081
3082.01749,0.03061
3079.95731,0.03038
3077.89714,0.03035
3075.83697,0.03043
3073.77680,0.03027
3071.71663,0.02996
3069.65645,0.02981
3067.59628,0.02979
3065.53611,0.02967
3063.47594,0.02938
3061.41577,0.02904
3059.35559,0.02883
3057.29542,0.02876
3055.23525,0.02861
3053.17508,0.02820
3051.11491,0.02776
3049.05473,0.02771
3046.99456,0.02808
3044.93439,0.02833
3042.87422,0.02813
3040.81404,0.02778
3038.75387,0.02752
3036.69370,0.02727
3034.63353,0.02713
3032.57336,0.02708
3030.51318,0.02686
3028.45301,0.02646
3026.39284,0.02611
3024.33267,0.02599
3022.27250,0.02594
3020.21232,0.02583
3018.15215,0.02585
3016.09198,0.02590
3014.03181,0.02562
3011.97163,0.02510
3009.91146,0.02475
3007.85129,0.02455
3005.79112,0.02438
3003.73095,0.02431
3001.67077,0.02437
2999.61060,0.02437
2997.55043,0.02417
2995.49026,0.02394
2993.43009,0.02387
2991.36991,0.02386
2989.30974,0.02381
2987.24957,0.02366
2985.18940,0.02331
2983.12923,0.02303
2981.06905,0.02302
2979.00888,0.02312
2976.94871,0.02325
2974.88854,0.02335
2972.82836,0.02317
2970.76819,0.02277
2968.70802,0.02261
2966.64785,0.02270
2964.58768,0.02271
2962.52750,0.02260
2960.46733,0.02258
2958.40716,0.02273
2956.34699,0.02283
2954.28682,0.02278
2952.22664,0.02275
2950.16647,0.02277
2948.10630,0.02272
2946.04613,0.02267
2943.98596,0.02272
2941.92578,0.02274
2939.86561,0.02260
2937.80544,0.02246
2935.74527,0.02243
2933.68509,0.02241
2931.62492,0.02239
2929.56475,0.02225
2927.50458,0.02189
2925.44441,0.02153
2923.38423,0.02140
2921.32406,0.02146
2919.26389,0.02165
2917.20372,0.02168
2915.14355,0.02143
2913.08337,0.02115
2911.02320,0.02113
2908.96303,0.02116
2906.90286,0.02101
2904.84268,0.02093
2902.78251,0.02092
2900.72234,0.02080
2898.66217,0.02054
2896.60200,0.02029
2894.54182,0.02019
2892.48165,0.02028
2890.42148,0.02040
2888.36131,0.02036
2886.30114,0.02020
2884.24096,0.02023
2882.18079,0.02041
2880.12062,0.02044
2878.06045,0.02029
2876.00028,0.02014
2873.94010,0.01992
2871.87993,0.01955
2869.81976,0.01930
2867.75959,0.01935
2865.69941,0.01928
2863.63924,0.01906
2861.57907,0.01906
2859.51890,0.01913
2857.45873,0.01908
2855.39855,0.01888
2853.33838,0.01851
2851.27821,0.01826
2849.21804,0.01830
2847.15787,0.01825
2845.09769,0.01786
2843.03752,0.01752
2840.97735,0.01747
2838.91718,0.01749
2836.85700,0.01745
2834.79683,0.01740
2832.73666,0.01727
2830.67649,0.01717
2828.61632,0.01712
2826.55614,0.01698
2824.49597,0.01685
2822.43580,0.01686
2820.37563,0.01694
2818.31546,0.01696
2816.25528,0.01681
2814.19511,0.01649
2812.13494,0.01627
2810.07477,0.01626
2808.01460,0.01634
2805.95442,0.01633
2803.89425,0.01613
2801.83408,0.01587
2799.77391,0.01564
2797.71373,0.01557
2795.65356,0.01566
2793.59339,0.01572
2791.53322,0.01556
2789.47305,0.01528
2787.41287,0.01514
2785.35270,0.01523
2783.29253,0.01536
2781.23236,0.01537
2779.17219,0.01534
2777.11201,0.01535
2775.05184,0.01533
2772.99167,0.01518
2770.93150,0.01491
2768.87133,0.01461
2766.81115,0.01444
2764.75098,0.01446
2762.69081,0.01455
2760.63064,0.01448
2758.57046,0.01419
2756.51029,0.01402
2754.45012,0.01408
2752.38995,0.01419
2750.32978,0.01425
2748.26960,0.01426
2746.20943,0.01415
2744.14926,0.01392
2742.08909,0.01372
2740.02892,0.01367
2737.96874,0.01376
2735.90857,0.01385
2733.84840,0.01380
2731.78823,0.01366
2729.72805,0.01357
2727.66788,0.01355
2725.60771,0.01353
2723.54754,0.01340
2721.48737,0.01317
2719.42719,0.01302
2717.36702,0.01296
2715.30685,0.01289
2713.24668,0.01287
2711.18651,0.01287
2709.12633,0.01282
2707.06616,0.01289
2705.00599,0.01299
2702.94582,0.01283
2700.88565,0.01260
2698.82547,0.01252
2696.76530,0.01240
2694.70513,0.01220
2692.64496,0.01206
2690.58478,0.01198
2688.52461,0.01194
2686.46444,0.01193
2684.40427,0.01197
2682.34410,0.01191
2680.28392,0.01168
2678.22375,0.01150
2676.16358,0.01145
2674.10341,0.01137
2672.04324,0.01123
2669.98306,0.01107
2667.92289,0.01086
2665.86272,0.01076
2663.80255,0.01079
2661.74238,0.01081
2659.68220,0.01080
2657.62203,0.01079
2655.56186,0.01075
2653.50169,0.01064
2651.44151,0.01046
2649.38134,0.01027
2647.32117,0.01004
2645.26100,0.00988
2643.20083,0.00995
2641.14065,0.01010
2639.08048,0.01021
2637.02031,0.01024
2634.96014,0.01006
2632.89997,0.00975
2630.83979,0.00953
2628.77962,0.00945
2626.71945,0.00939
2624.65928,0.00941
2622.59910,0.00959
2620.53893,0.00965
2618.47876,0.00943
2616.41859,0.00924
2614.35842,0.00922
2612.29824,0.00920
2610.23807,0.00907
2608.17790,0.00890
2606.11773,0.00869
2604.05756,0.00838
2601.99738,0.00832
2599.93721,0.00865
2597.87704,0.00881
2595.81687,0.00858
2593.75670,0.00840
2591.69652,0.00855
2589.63635,0.00884
2587.57618,0.00882
2585.51601,0.00845
2583.45583,0.00822
2581.39566,0.00826
2579.33549,0.00831
2577.27532,0.00828
2575.21515,0.00811
2573.15497,0.00799
2571.09480,0.00808
2569.03463,0.00816
2566.97446,0.00822
2564.91429,0.00829
2562.85411,0.00811
2560.79394,0.00781
2558.73377,0.00769
2556.67360,0.00755
2554.61342,0.00745
2552.55325,0.00763
2550.49308,0.00792
2548.43291,0.00800
2546.37274,0.00782
2544.31256,0.00755
2542.25239,0.00744
2540.19222,0.00748
2538.13205,0.00750
2536.07188,0.00749
2534.01170,0.00770
2531.95153,0.00807
2529.89136,0.00815
2527.83119,0.00799
2525.77102,0.00772
2523.71084,0.00753
2521.65067,0.00793
2519.59050,0.00869
2517.53033,0.00882
2515.47015,0.00829
2513.40998,0.00777
2511.34981,0.00747
2509.28964,0.00749
2507.22947,0.00769
2505.16929,0.00781
2503.10912,0.00786
2501.04895,0.00777
2498.98878,0.00763
2496.92861,0.00765
2494.86843,0.00756
2492.80826,0.00735
2490.74809,0.00739
2488.68792,0.00769
2486.62775,0.00795
2484.56757,0.00800
2482.50740,0.00792
2480.44723,0.00774
2478.38706,0.00758
2476.32688,0.00768
2474.26671,0.00784
2472.20654,0.00781
2470.14637,0.00805
2468.08620,0.00859
2466.02602,0.00875
2463.96585,0.00847
2461.90568,0.00809
2459.84551,0.00790
2457.78534,0.00810
2455.72516,0.00833
2453.66499,0.00840
2451.60482,0.00852
2449.54465,0.00868
2447.48447,0.00875
2445.42430,0.00858
2443.36413,0.00825
2441.30396,0.00808
2439.24379,0.00822
2437.18361,0.00857
2435.12344,0.00861
2433.06327,0.00840
2431.00310,0.00858
2428.94293,0.00881
2426.88275,0.00876
2424.82258,0.00875
2422.76241,0.00875
2420.70224,0.00868
2418.64207,0.00873
2416.58189,0.00876
2414.52172,0.00869
2412.46155,0.00842
2410.40138,0.00797
2408.34120,0.00769
2406.28103,0.00763
2404.22086,0.00774
2402.16069,0.00785
2400.10052,0.00768
2398.04034,0.00751
2395.98017,0.00768
2393.92000,0.00799
2391.85983,0.00817
2389.79966,0.00817
2387.73948,0.00806
2385.67931,0.00803
2383.61914,0.00820
2381.55897,0.00852
2379.49880,0.00884
2377.43862,0.00907
2375.37845,0.00894
2373.31828,0.00845
2371.25811,0.00788
2369.19793,0.00749
2367.13776,0.00700
2365.07759,0.00575
2363.01742,0.00469
2360.95725,0.00644
2358.89707,0.00845
2356.83690,0.00848
2354.77673,0.00773
2352.71656,0.00789
2350.65639,0.00936
2348.59621,0.00998
2346.53604,0.00822
2344.47587,0.00790
2342.41570,0.00873
2340.35552,0.00899
2338.29535,0.00843
2336.23518,0.00780
2334.17501,0.00770
2332.11484,0.00797
2330.05466,0.00906
2327.99449,0.01039
2325.93432,0.01104
2323.87415,0.01041
2321.81398,0.00971
2319.75380,0.00924
2317.69363,0.00902
2315.63346,0.00849
2313.57329,0.00810
2311.51312,0.00831
2309.45294,0.00876
2307.39277,0.00877
2305.33260,0.00825
2303.27243,0.00793
2301.21225,0.00812
2299.15208,0.00856
2297.09191,0.00881
2295.03174,0.00882
2292.97157,0.00865
2290.91139,0.00837
2288.85122,0.00815
2286.79105,0.00810
2284.73088,0.00804
2282.67071,0.00772
2280.61053,0.00731
2278.55036,0.00740
2276.49019,0.00778
2274.43002,0.00754
2272.36984,0.00690
2270.30967,0.00670
2268.24950,0.00663
2266.18933,0.00627
2264.12916,0.00616
2262.06898,0.00659
2260.00881,0.00699
2257.94864,0.00705
2255.88847,0.00706
2253.82830,0.00729
2251.76812,0.00762
2249.70795,0.00773
2247.64778,0.00744
2245.58761,0.00689
2243.52744,0.00645
2241.46726,0.00631
2239.40709,0.00654
2237.34692,0.00668
2235.28675,0.00636
2233.22657,0.00639
2231.16640,0.00671
2229.10623,0.00637
2227.04606,0.00601
2224.98589,0.00589
2222.92571,0.00523
2220.86554,0.00461
2218.80537,0.00447
2216.74520,0.00490
2214.68503,0.00605
2212.62485,0.00711
2210.56468,0.00743
2208.50451,0.00709
2206.44434,0.00683
2204.38417,0.00719
2202.32399,0.00706
2200.26382,0.00619
2198.20365,0.00605
2196.14348,0.00616
2194.08330,0.00575
2192.02313,0.00576
2189.96296,0.00617
2187.90279,0.00656
2185.84262,0.00636
2183.78244,0.00560
2181.72227,0.00584
2179.66210,0.00670
2177.60193,0.00664
2175.54176,0.00633
2173.48158,0.00655
2171.42141,0.00661
2169.36124,0.00585
2167.30107,0.00453
2165.24089,0.00424
2163.18072,0.00558
2161.12055,0.00596
2159.06038,0.00402
2157.00021,0.00187
2154.94003,0.00141
2152.87986,0.00249
2150.81969,0.00363
2148.75952,0.00437
2146.69935,0.00494
2144.63917,0.00520
2142.57900,0.00492
2140.51883,0.00396
2138.45866,0.00301
2136.39849,0.00300
2134.33831,0.00326
2132.27814,0.00282
2130.21797,0.00261
2128.15780,0.00336
2126.09762,0.00438
2124.03745,0.00506
2121.97728,0.00539
2119.91711,0.00539
2117.85694,0.00545
2115.79676,0.00596
2113.73659,0.00590
2111.67642,0.00497
2109.61625,0.00465
2107.55608,0.00507
2105.49590,0.00499
2103.43573,0.00453
2101.37556,0.00464
2099.31539,0.00491
2097.25521,0.00483
2095.19504,0.00488
2093.13487,0.00521
2091.07470,0.00539
2089.01453,0.00489
2086.95435,0.00379
2084.89418,0.00325
2082.83401,0.00392
2080.77384,0.00492
2078.71367,0.00534
2076.65349,0.00515
2074.59332,0.00480
2072.53315,0.00453
2070.47298,0.00458
2068.41281,0.00507
2066.35263,0.00537
2064.29246,0.00507
2062.23229,0.00505
2060.17212,0.00581
2058.11194,0.00628
2056.05177,0.00597
2053.99160,0.00591
2051.93143,0.00617
2049.87126,0.00555
2047.81108,0.00409
2045.75091,0.00287
2043.69074,0.00261
2041.63057,0.00308
2039.57040,0.00386
2037.51022,0.00463
2035.45005,0.00421
2033.38988,0.00276
2031.32971,0.00204
2029.26954,0.00211
2027.20936,0.00205
2025.14919,0.00195
2023.08902,0.00243
2021.02885,0.00332
2018.96867,0.00342
2016.90850,0.00263
2014.84833,0.00192
2012.78816,0.00174
2010.72799,0.00193
2008.66781,0.00199
2006.60764,0.00199
2004.54747,0.00288
2002.48730,0.00431
2000.42713,0.00430
1998.36695,0.00293
1996.30678,0.00268
1994.24661,0.00389
1992.18644,0.00456
1990.12626,0.00395
1988.06609,0.00295
1986.00592,0.00255
1983.94575,0.00235
1981.88558,0.00144
1979.82540,0.00038
1977.76523,0.00000
1975.70506,0.00083
1973.64489,0.00228
1971.58472,0.00287
1969.52454,0.00279
1967.46437,0.00262
1965.40420,0.00257
1963.34403,0.00258
1961.28386,0.00224
1959.22368,0.00195
1957.16351,0.00226
1955.10334,0.00253
1953.04317,0.00231
1950.98299,0.00209
1948.92282,0.00220
1946.86265,0.00231
1944.80248,0.00255
1942.74231,0.00338
1940.68213,0.00425
1938.62196,0.00417
1936.56179,0.00316
1934.50162,0.00219
1932.44145,0.00204
1930.38127,0.00263
1928.32110,0.00325
1926.26093,0.00354
1924.20076,0.00361
1922.14059,0.00371
1920.08041,0.00387
1918.02024,0.00370
1915.96007,0.00306
1913.89990,0.00258
1911.83972,0.00274
1909.77955,0.00322
1907.71938,0.00316
1905.65921,0.00254
1903.59904,0.00218
1901.53886,0.00222
1899.47869,0.00222
1897.41852,0.00208
1895.35835,0.00203
1893.29818,0.00215
1891.23800,0.00235
1889.17783,0.00257
1887.11766,0.00271
1885.05749,0.00261
1882.99731,0.00249
1880.93714,0.00274
1878.87697,0.00310
1876.81680,0.00322
1874.75663,0.00315
1872.69645,0.00297
1870.63628,0.00273
1868.57611,0.00260
1866.51594,0.00252
1864.45577,0.00229
1862.39559,0.00225
1860.33542,0.00251
1858.27525,0.00270
1856.21508,0.00262
1854.15491,0.00251
1852.09473,0.00259
1850.03456,0.00264
1847.97439,0.00248
1845.91422,0.00245
1843.85404,0.00272
1841.79387,0.00283
1839.73370,0.00269
1837.67353,0.00258
1835.61336,0.00256
1833.55318,0.00257
1831.49301,0.00253
1829.43284,0.00241
1827.37267,0.00230
1825.31250,0.00225
1823.25232,0.00229
1821.19215,0.00236
1819.13198,0.00239
1817.07181,0.00244
1815.01163,0.00240
1812.95146,0.00223
1810.89129,0.00220
1808.83112,0.00243
1806.77095,0.00265
1804.71077,0.00269
1802.65060,0.00271
1800.59043,0.00277
1798.53026,0.00275
1796.47009,0.00263
1794.40991,0.00265
1792.34974,0.00285
1790.28957,0.00302
1788.22940,0.00305
1786.16923,0.00309
1784.10905,0.00315
1782.04888,0.00308
1779.98871,0.00296
1777.92854,0.00287
1775.86836,0.00273
1773.80819,0.00244
1771.74802,0.00222
1769.68785,0.00233
1767.62768,0.00274
1765.56750,0.00319
1763.50733,0.00350
1761.44716,0.00376
1759.38699,0.00404
1757.32682,0.00418
1755.26664,0.00403
1753.20647,0.00378
1751.14630,0.00379
1749.08613,0.00411
1747.02596,0.00436
1744.96578,0.00441
1742.90561,0.00447
1740.84544,0.00466
1738.78527,0.00481
1736.72509,0.00481
1734.66492,0.00488
1732.60475,0.00512
1730.54458,0.00544
1728.48441,0.00582
1726.42423,0.00604
1724.36406,0.00608
1722.30389,0.00600
1720.24372,0.00588
1718.18355,0.00596
1716.12337,0.00633
1714.06320,0.00665
1712.00303,0.00677
1709.94286,0.00681
1707.88268,0.00696
1705.82251,0.00732
1703.76234,0.00753
1701.70217,0.00746
1699.64200,0.00763
1697.58182,0.00821
1695.52165,0.00886
1693.46148,0.00930
1691.40131,0.00951
1689.34114,0.00968
1687.28096,0.01000
1685.22079,0.01054
1683.16062,0.01130
1681.10045,0.01196
1679.04028,0.01249
1676.98010,0.01290
1674.91993,0.01317
1672.85976,0.01339
1670.79959,0.01375
1668.73941,0.01430
1666.67924,0.01476
1664.61907,0.01511
1662.55890,0.01552
1660.49873,0.01595
1658.43855,0.01613
1656.37838,0.01596
1654.31821,0.01574
1652.25804,0.01598
1650.19787,0.01631
1648.13769,0.01654
1646.07752,0.01689
1644.01735,0.01702
1641.95718,0.01688
1639.89701,0.01674
1637.83683,0.01664
1635.77666,0.01657
1633.71649,0.01652
1631.65632,0.01639
1629.59614,0.01619
1627.53597,0.01604
1625.47580,0.01592
1623.41563,0.01569
1621.35546,0.01534
1619.29528,0.01499
1617.23511,0.01488
1615.17494,0.01501
1613.11477,0.01492
1611.05460,0.01454
1608.99442,0.01416
1606.93425,0.01391
1604.87408,0.01370
1602.81391,0.01351
1600.75373,0.01331
1598.69356,0.01300
1596.63339,0.01260
1594.57322,0.01221
1592.51305,0.01183
1590.45287,0.01139
1588.39270,0.01090
1586.33253,0.01041
1584.27236,0.00989
1582.21219,0.00936
1580.15201,0.00889
1578.09184,0.00849
1576.03167,0.00821
1573.97150,0.00800
1571.91133,0.00771
1569.85115,0.00734
1567.79098,0.00703
1565.73081,0.00679
1563.67064,0.00651
1561.61046,0.00619
1559.55029,0.00606
1557.49012,0.00611
1555.42995,0.00593
1553.36978,0.00558
1551.30960,0.00521
1549.24943,0.00490
1547.18926,0.00460
1545.12909,0.00421
1543.06892,0.00374
1541.00874,0.00356
1538.94857,0.00385
1536.88840,0.00404
1534.82823,0.00394
1532.76805,0.00370
1530.70788,0.00336
1528.64771,0.00294
1526.58754,0.00248
1524.52737,0.00207
1522.46719,0.00194
1520.40702,0.00219
1518.34685,0.00250
1516.28668,0.00264
1514.22651,0.00262
1512.16633,0.00246
1510.10616,0.00219
1508.04599,0.00192
1505.98582,0.00195
1503.92565,0.00208
1501.86547,0.00202
1499.80530,0.00188
1497.74513,0.00187
1495.68496,0.00193
1493.62478,0.00177
1491.56461,0.00149
1489.50444,0.00140
1487.44427,0.00162
1485.38410,0.00184
1483.32392,0.00191
1481.26375,0.00193
1479.20358,0.00196
1477.14341,0.00192
1475.08324,0.00189
1473.02306,0.00208
1470.96289,0.00246
1468.90272,0.00269
1466.84255,0.00283
1464.78238,0.00311
1462.72220,0.00339
1460.66203,0.00340
1458.60186,0.00333
1456.54169,0.00350
1454.48151,0.00373
1452.42134,0.00376
1450.36117,0.00372
1448.30100,0.00376
1446.24083,0.00381
1444.18065,0.00371
1442.12048,0.00349
1440.06031,0.00339
1438.00014,0.00352
1435.93997,0.00373
1433.87979,0.00385
1431.81962,0.00391
1429.75945,0.00396
1427.69928,0.00400
1425.63910,0.00405
1423.57893,0.00418
1421.51876,0.00436
1419.45859,0.00451
1417.39842,0.00448
1415.33824,0.00432
1413.27807,0.00427
1411.21790,0.00437
1409.15773,0.00442
1407.09756,0.00439
1405.03738,0.00438
1402.97721,0.00434
1400.91704,0.00422
1398.85687,0.00401
1396.79670,0.00381
1394.73652,0.00383
1392.67635,0.00392
1390.61618,0.00382
1388.55601,0.00357
1386.49583,0.00348
1384.43566,0.00358
1382.37549,0.00363
1380.31532,0.00357
1378.25515,0.00358
1376.19497,0.00373
1374.13480,0.00380
1372.07463,0.00374
1370.01446,0.00367
1367.95429,0.00358
1365.89411,0.00342
1363.83394,0.00331
1361.77377,0.00334
1359.71360,0.00336
1357.65343,0.00328
1355.59325,0.00318
1353.53308,0.00303
1351.47291,0.00280
1349.41274,0.00259
1347.35256,0.00246
1345.29239,0.00245
1343.23222,0.00255
1341.17205,0.00265
1339.11188,0.00264
1337.05170,0.00254
1334.99153,0.00240
1332.93136,0.00238
1330.87119,0.00251
1328.81102,0.00256
1326.75084,0.00249
1324.69067,0.00241
1322.63050,0.00227
1320.57033,0.00201
1318.51015,0.00178
1316.44998,0.00175
1314.38981,0.00187
1312.32964,0.00202
1310.26947,0.00208
1308.20929,0.00197
1306.14912,0.00179
1304.08895,0.00180
1302.02878,0.00205
1299.96861,0.00218
1297.90843,0.00205
1295.84826,0.00194
1293.78809,0.00201
1291.72792,0.00212
1289.66775,0.00221
1287.60757,0.00226
1285.54740,0.00226
1283.48723,0.00226
1281.42706,0.00233
1279.36688,0.00247
1277.30671,0.00262
1275.24654,0.00270
1273.18637,0.00266
1271.12620,0.00260
1269.06602,0.00258
1267.00585,0.00257
1264.94568,0.00251
1262.88551,0.00248
1260.82534,0.00262
1258.76516,0.00283
1256.70499,0.00286
1254.64482,0.00267
1252.58465,0.00250
1250.52447,0.00249
1248.46430,0.00247
1246.40413,0.00228
1244.34396,0.00204
1242.28379,0.00193
1240.22361,0.00194
1238.16344,0.00190
1236.10327,0.00189
1234.04310,0.00196
1231.98293,0.00189
1229.92275,0.00168
1227.86258,0.00150
1225.80241,0.00145
1223.74224,0.00148
1221.68207,0.00141
1219.62189,0.00119
1217.56172,0.00097
1215.50155,0.00075
1213.44138,0.00044
1211.38120,0.00020
1209.32103,0.00008
1207.26086,0.00000
1205.20069,0.00007
1203.14052,0.00023
1201.08034,0.00025
1199.02017,0.00011
1196.96000,-0.00007
1194.89983,-0.00015
1192.83966,-0.00013
1190.77948,0.00000
1188.71931,0.00034
1186.65914,0.00079
1184.59897,0.00130
1182.53880,0.00191
1180.47862,0.00240
1178.41845,0.00271
1176.35828,0.00314
1174.29811,0.00388
1172.23793,0.00471
1170.17776,0.00551
1168.11759,0.00627
1166.05742,0.00674
1163.99725,0.00699
1161.93707,0.00751
1159.87690,0.00817
1157.81673,0.00870
1155.75656,0.00924
1153.69639,0.00976
1151.63621,0.01018
1149.57604,0.01072
1147.51587,0.01139
1145.45570,0.01209
1143.39552,0.01282
1141.33535,0.01357
1139.27518,0.01425
1137.21501,0.01494
1135.15484,0.01575
1133.09466,0.01654
1131.03449,0.01719
1128.97432,0.01774
1126.91415,0.01839
1124.85398,0.01930
1122.79380,0.02031
1120.73363,0.02111
1118.67346,0.02175
1116.61329,0.02253
1114.55312,0.02348
1112.49294,0.02450
1110.43277,0.02559
1108.37260,0.02667
1106.31243,0.02773
1104.25225,0.02881
1102.19208,0.02989
1100.13191,0.03103
1098.07174,0.03227
1096.01157,0.03349
1093.95139,0.03463
1091.89122,0.03562
1089.83105,0.03651
1087.77088,0.03740
1085.71071,0.03836
1083.65053,0.03941
1081.59036,0.04043
1079.53019,0.04143
1077.47002,0.04237
1075.40985,0.04294
1073.34967,0.04333
1071.28950,0.04372
1069.22933,0.04396
1067.16916,0.04417
1065.10898,0.04443
1063.04881,0.04463
1060.98864,0.04478
1058.92847,0.04478
1056.86830,0.04458
1054.80812,0.04439
1052.74795,0.04425
1050.68778,0.04390
1048.62761,0.04333
1046.56744,0.04254
1044.50726,0.04164
1042.44709,0.04090
1040.38692,0.04014
1038.32675,0.03929
1036.26657,0.03862
1034.20640,0.03794
1032.14623,0.03694
1030.08606,0.03591
1028.02589,0.03500
1025.96571,0.03409
1023.90554,0.03322
1021.84537,0.03247
1019.78520,0.03181
1017.72503,0.03103
1015.66485,0.03017
1013.60468,0.02947
1011.54451,0.02879
1009.48434,0.02794
1007.42417,0.02713
1005.36399,0.02653
1003.30382,0.02609
1001.24365,0.02576
999.18348,0.02579
997.12330,0.02631
995.06313,0.02698
993.00296,0.02745
990.94279,0.02782
988.88262,0.02824
986.82244,0.02853
984.76227,0.02854
982.70210,0.02826
980.64193,0.02781
978.58176,0.02737
976.52158,0.02660
974.46141,0.02538
972.40124,0.02410
970.34107,0.02278
968.28089,0.02125
966.22072,0.01975
964.16055,0.01848
962.10038,0.01740
960.04021,0.01648
957.98003,0.01569
955.91986,0.01503
953.85969,0.01452
951.79952,0.01398
949.73935,0.01333
947.67917,0.01290
945.61900,0.01281
943.55883,0.01268
941.49866,0.01229
939.43849,0.01189
937.37831,0.01169
935.31814,0.01159
933.25797,0.01158
931.19780,0.01161
929.13762,0.01147
927.07745,0.01122
925.01728,0.01101
922.95711,0.01073
920.89694,0.01037
918.83676,0.00995
916.77659,0.00928
914.71642,0.00859
912.65625,0.00829
910.59608,0.00808
908.53590,0.00757
906.47573,0.00721
904.41556,0.00721
902.35539,0.00729
900.29522,0.00742
898.23504,0.00738
896.17487,0.00694
894.11470,0.00676
892.05453,0.00713
889.99435,0.00742
887.93418,0.00767
885.87401,0.00795
883.81384,0.00809
881.75367,0.00847
879.69349,0.00900
877.63332,0.00930
875.57315,0.00949
873.51298,0.00984
871.45281,0.01027
869.39263,0.01059
867.33246,0.01074
865.27229,0.01067
863.21212,0.01049
861.15194,0.01037
859.09177,0.01019
857.03160,0.00999
854.97143,0.00999
852.91126,0.01002
850.85108,0.00986
848.79091,0.00971
846.73074,0.00955
844.67057,0.00916
842.61040,0.00872
840.55022,0.00813
838.49005,0.00755
836.42988,0.00744
834.36971,0.00751
832.30954,0.00728
830.24936,0.00682
828.18919,0.00634
826.12902,0.00594
824.06885,0.00553
822.00867,0.00516
819.94850,0.00495
817.88833,0.00488
815.82816,0.00461
813.76799,0.00396
811.70781,0.00339
809.64764,0.00342
807.58747,0.00369
805.52730,0.00385
803.46713,0.00393
801.40695,0.00376
799.34678,0.00342
797.28661,0.00319
795.22644,0.00289
793.16627,0.00249
791.10609,0.00234
789.04592,0.00253
786.98575,0.00274
784.92558,0.00298
782.86540,0.00329
780.80523,0.00320
778.74506,0.00296
776.68489,0.00310
774.62472,0.00338
772.56454,0.00354
770.50437,0.00361
768.44420,0.00347
766.38403,0.00314
764.32386,0.00307
762.26368,0.00335
760.20351,0.00321
758.14334,0.00272
756.08317,0.00254
754.02299,0.00249
751.96282,0.00228
749.90265,0.00242
747.84248,0.00268
745.78231,0.00217
743.72213,0.00140
741.66196,0.00128
739.60179,0.00141
737.54162,0.00151
735.48145,0.00182
733.42127,0.00194
731.36110,0.00170
729.30093,0.00150
727.24076,0.00170
725.18059,0.00241
723.12041,0.00308
721.06024,0.00286
719.00007,0.00262
716.93990,0.00265
714.87972,0.00270
712.81955,0.00281
710.75938,0.00300
708.69921,0.00311
706.63904,0.00306
704.57886,0.00303
702.51869,0.00293
700.45852,0.00259
698.39835,0.00258
696.33818,0.00305
694.27800,0.00310
692.21783,0.00264
690.15766,0.00270
688.09749,0.00362
686.03731,0.00468
683.97714,0.00512
681.91697,0.00486
679.85680,0.00420
677.79663,0.00349
675.73645,0.00317
673.67628,0.00359
671.61611,0.00390
669.55594,0.00146
667.49577,0.00000
665.43559,0.00387
663.37542,0.00440
661.31525,0.00447
659.25508,0.00553
657.19491,0.00577
655.13473,0.00435
653.07456,0.00317
651.01439,0.00353
648.95422,0.00431
646.89404,0.00429
644.83387,0.00357
642.77370,0.00307
640.71353,0.00244
638.65336,0.00114
636.59318,0.00000
634.53301,-0.00037
632.47284,-0.00032
630.41267,-0.00057
628.35250,-0.00088
626.29232,-0.00075
624.23215,-0.00078
622.17198,-0.00093
620.11181,-0.00057
618.05164,-0.00074
615.99146,-0.00066
613.93129,0.00042
611.87112,0.00060
609.81095,-0.00057
607.75077,-0.00201
605.69060,-0.00293
603.63043,-0.00311
601.57026,-0.00174
599.51009,0.00000
