3996.73391,0.00108
3994.67373,0.00101
3992.61356,0.00066
3990.55339,0.00029
3988.49322,0.00021
3986.43305,0.00040
3984.37287,0.00080
3982.31270,0.00131
3980.25253,0.00164
3978.19236,0.00149
3976.13219,0.00098
3974.07201,0.00071
3972.01184,0.00088
3969.95167,0.00108
3967.89150,0.00106
3965.83133,0.00086
3963.77115,0.00056
3961.71098,0.00036
3959.65081,0.00048
3957.59064,0.00075
3955.53046,0.00072
3953.47029,0.00039
3951.41012,0.00010
3949.34995,0.00000
3947.28978,0.00006
3945.22960,0.00005
3943.16943,0.00001
3941.10926,0.00025
3939.04909,0.00065
3936.98892,0.00092
3934.92874,0.00101
3932.86857,0.00086
3930.80840,0.00060
3928.74823,0.00053
3926.68805,0.00074
3924.62788,0.00110
3922.56771,0.00128
3920.50754,0.00110
3918.44737,0.00094
3916.38719,0.00117
3914.32702,0.00147
3912.26685,0.00143
3910.20668,0.00113
3908.14651,0.00079
3906.08633,0.00050
3904.02616,0.00030
3901.96599,0.00034
3899.90582,0.00063
3897.84565,0.00087
3895.78547,0.00085
3893.72530,0.00067
3891.66513,0.00049
3889.60496,0.00040
3887.54478,0.00038
3885.48461,0.00052
3883.42444,0.00065
3881.36427,0.00065
3879.30410,0.00084
3877.24392,0.00104
3875.18375,0.00084
3873.12358,0.00055
3871.06341,0.00085
3869.00324,0.00152
3866.94306,0.00161
3864.88289,0.00132
3862.82272,0.00122
3860.76255,0.00105
3858.70237,0.00078
3856.64220,0.00082
3854.58203,0.00115
3852.52186,0.00110
3850.46169,0.00066
3848.40151,0.00046
3846.34134,0.00051
3844.28117,0.00062
3842.22100,0.00071
3840.16083,0.00070
3838.10065,0.00063
3836.04048,0.00060
3833.98031,0.00079
3831.92014,0.00113
3829.85997,0.00121
3827.79979,0.00101
3825.73962,0.00096
3823.67945,0.00108
3821.61928,0.00122
3819.55910,0.00115
3817.49893,0.00088
3815.43876,0.00088
3813.37859,0.00118
3811.31842,0.00134
3809.25824,0.00135
3807.19807,0.00146
3805.13790,0.00158
3803.07773,0.00149
3801.01756,0.00132
3798.95738,0.00136
3796.89721,0.00167
3794.83704,0.00205
3792.77687,0.00213
3790.71670,0.00177
3788.65652,0.00121
3786.59635,0.00081
3784.53618,0.00072
3782.47601,0.00090
3780.41583,0.00122
3778.35566,0.00141
3776.29549,0.00142
3774.23532,0.00148
3772.17515,0.00164
3770.11497,0.00160
3768.05480,0.00113
3765.99463,0.00069
3763.93446,0.00072
3761.87429,0.00101
3759.81411,0.00126
3757.75394,0.00151
3755.69377,0.00165
3753.63360,0.00153
3751.57342,0.00149
3749.51325,0.00185
3747.45308,0.00217
3745.39291,0.00239
3743.33274,0.00240
3741.27256,0.00197
3739.21239,0.00170
3737.15222,0.00181
3735.09205,0.00182
3733.03188,0.00167
3730.97170,0.00173
3728.91153,0.00183
3726.85136,0.00169
3724.79119,0.00172
3722.73102,0.00217
3720.67084,0.00243
3718.61067,0.00237
3716.55050,0.00239
3714.49033,0.00227
3712.43015,0.00163
3710.36998,0.00099
3708.30981,0.00091
3706.24964,0.00112
3704.18947,0.00145
3702.12929,0.00208
3700.06912,0.00280
3698.00895,0.00300
3695.94878,0.00286
3693.88861,0.00298
3691.82843,0.00338
3689.76826,0.00349
3687.70809,0.00314
3685.64792,0.00283
3683.58775,0.00293
3681.52757,0.00334
3679.46740,0.00371
3677.40723,0.00378
3675.34706,0.00374
3673.28688,0.00382
3671.22671,0.00430
3669.16654,0.00517
3667.10637,0.00578
3665.04620,0.00570
3662.98602,0.00534
3660.92585,0.00524
3658.86568,0.00550
3656.80551,0.00622
3654.74534,0.00701
3652.68516,0.00701
3650.62499,0.00667
3648.56482,0.00711
3646.50465,0.00784
3644.44447,0.00815
3642.38430,0.00840
3640.32413,0.00894
3638.26396,0.00973
3636.20379,0.01056
3634.14361,0.01109
3632.08344,0.01117
3630.02327,0.01120
3627.96310,0.01184
3625.90293,0.01253
3623.84275,0.01258
3621.78258,0.01250
3619.72241,0.01321
3617.66224,0.01467
3615.60207,0.01584
3613.54189,0.01639
3611.48172,0.01655
3609.42155,0.01671
3607.36138,0.01720
3605.30120,0.01776
3603.24103,0.01814
3601.18086,0.01829
3599.12069,0.01820
3597.06052,0.01824
3595.00034,0.01890
3592.94017,0.01993
3590.88000,0.02060
3588.81983,0.02096
3586.75966,0.02167
3584.69948,0.02257
3582.63931,0.02311
3580.57914,0.02339
3578.51897,0.02361
3576.45879,0.02395
3574.39862,0.02446
3572.33845,0.02494
3570.27828,0.02534
3568.21811,0.02592
3566.15793,0.02680
3564.09776,0.02758
3562.03759,0.02800
3559.97742,0.02836
3557.91725,0.02893
3555.85707,0.02968
3553.79690,0.03044
3551.73673,0.03099
3549.67656,0.03140
3547.61639,0.03207
3545.55621,0.03302
3543.49604,0.03380
3541.43587,0.03417
3539.37570,0.03424
3537.31552,0.03433
3535.25535,0.03458
3533.19518,0.03500
3531.13501,0.03572
3529.07484,0.03657
3527.01466,0.03714
3524.95449,0.03757
3522.89432,0.03822
3520.83415,0.03873
3518.77398,0.03885
3516.71380,0.03910
3514.65363,0.03966
3512.59346,0.04020
3510.53329,0.04062
3508.47312,0.04094
3506.41294,0.04105
3504.35277,0.04125
3502.29260,0.04176
3500.23243,0.04223
3498.17225,0.04261
3496.11208,0.04330
3494.05191,0.04417
3491.99174,0.04476
3489.93157,0.04494
3487.87139,0.04502
3485.81122,0.04524
3483.75105,0.04559
3481.69088,0.04620
3479.63071,0.04690
3477.57053,0.04726
3475.51036,0.04753
3473.45019,0.04804
3471.39002,0.04864
3469.32984,0.04921
3467.26967,0.04969
3465.20950,0.05015
3463.14933,0.05059
3461.08916,0.05076
3459.02898,0.05080
3456.96881,0.05102
3454.90864,0.05138
3452.84847,0.05166
3450.78830,0.05190
3448.72812,0.05232
3446.66795,0.05282
3444.60778,0.05323
3442.54761,0.05350
3440.48744,0.05359
3438.42726,0.05371
3436.36709,0.05396
3434.30692,0.05407
3432.24675,0.05414
3430.18657,0.05434
3428.12640,0.05463
3426.06623,0.05515
3424.00606,0.05574
3421.94589,0.05598
3419.88571,0.05616
3417.82554,0.05651
3415.76537,0.05666
3413.70520,0.05670
3411.64503,0.05699
3409.58485,0.05726
3407.52468,0.05729
3405.46451,0.05742
3403.40434,0.05789
3401.34416,0.05829
3399.28399,0.05838
3397.22382,0.05841
3395.16365,0.05859
3393.10348,0.05893
3391.04330,0.05932
3388.98313,0.05949
3386.92296,0.05941
3384.86279,0.05934
3382.80262,0.05962
3380.74244,0.05997
3378.68227,0.06005
3376.62210,0.05996
3374.56193,0.05984
3372.50176,0.05979
3370.44158,0.05993
3368.38141,0.06009
3366.32124,0.06020
3364.26107,0.06037
3362.20089,0.06049
3360.14072,0.06039
3358.08055,0.06013
3356.02038,0.06009
3353.96021,0.06047
3351.90003,0.06090
3349.83986,0.06109
3347.77969,0.06114
3345.71952,0.06124
3343.65935,0.06147
3341.59917,0.06160
3339.53900,0.06146
3337.47883,0.06137
3335.41866,0.06151
3333.35849,0.06166
3331.29831,0.06175
3329.23814,0.06194
3327.17797,0.06228
3325.11780,0.06248
3323.05762,0.06232
3320.99745,0.06218
3318.93728,0.06227
3316.87711,0.06229
3314.81694,0.06207
3312.75676,0.06195
3310.69659,0.06208
3308.63642,0.06201
3306.57625,0.06165
3304.51608,0.06153
3302.45590,0.06193
3300.39573,0.06249
3298.33556,0.06262
3296.27539,0.06247
3294.21521,0.06232
3292.15504,0.06206
3290.09487,0.06193
3288.03470,0.06207
3285.97453,0.06213
3283.91435,0.06199
3281.85418,0.06183
3279.79401,0.06183
3277.73384,0.06211
3275.67367,0.06253
3273.61349,0.06274
3271.55332,0.06258
3269.49315,0.06234
3267.43298,0.06225
3265.37281,0.06227
3263.31263,0.06216
3261.25246,0.06198
3259.19229,0.06203
3257.13212,0.06227
3255.07194,0.06243
3253.01177,0.06243
3250.95160,0.06246
3248.89143,0.06249
3246.83126,0.06237
3244.77108,0.06221
3242.71091,0.06212
3240.65074,0.06210
3238.59057,0.06192
3236.53040,0.06158
3234.47022,0.06127
3232.41005,0.06114
3230.34988,0.06121
3228.28971,0.06130
3226.22954,0.06134
3224.16936,0.06134
3222.10919,0.06121
3220.04902,0.06111
3217.98885,0.06130
3215.92867,0.06151
3213.86850,0.06139
3211.80833,0.06119
3209.74816,0.06111
3207.68799,0.06103
3205.62781,0.06088
3203.56764,0.06072
3201.50747,0.06049
3199.44730,0.06009
3197.38713,0.05973
3195.32695,0.05951
3193.26678,0.05928
3191.20661,0.05907
3189.14644,0.05907
3187.08626,0.05908
3185.02609,0.05894
3182.96592,0.05889
3180.90575,0.05889
3178.84558,0.05878
3176.78540,0.05875
3174.72523,0.05879
3172.66506,0.05866
3170.60489,0.05833
3168.54472,0.05808
3166.48454,0.05809
3164.42437,0.05812
3162.36420,0.05781
3160.30403,0.05730
3158.24386,0.05703
3156.18368,0.05708
3154.12351,0.05700
3152.06334,0.05656
3150.00317,0.05609
3147.94299,0.05605
3145.88282,0.05622
3143.82265,0.05609
3141.76248,0.05566
3139.70231,0.05521
3137.64213,0.05496
3135.58196,0.05491
3133.52179,0.05487
3131.46162,0.05477
3129.40145,0.05446
3127.34127,0.05393
3125.28110,0.05359
3123.22093,0.05360
3121.16076,0.05347
3119.10058,0.05305
3117.04041,0.05267
3114.98024,0.05252
3112.92007,0.05258
3110.85990,0.05256
3108.79972,0.05227
3106.73955,0.05189
3104.67938,0.05164
3102.61921,0.05146
3100.55904,0.05124
3098.49886,0.05100
3096.43869,0.05079
3094.37852,0.05060
3092.31835,0.05027
3090.25818,0.04980
3088.19800,0.04947
3086.13783,0.04932
3084.07766,0.04923
3082.01749,0.04917
3079.95731,0.04897
3077.89714,0.04864
3075.83697,0.04841
3073.77680,0.04820
3071.71663,0.04790
3069.65645,0.04746
3067.59628,0.04693
3065.53611,0.04666
3063.47594,0.04673
3061.41577,0.04670
3059.35559,0.04636
3057.29542,0.04585
3055.23525,0.04542
3053.17508,0.04517
3051.11491,0.04508
3049.05473,0.04506
3046.99456,0.04493
3044.93439,0.04446
3042.87422,0.04387
3040.81404,0.04347
3038.75387,0.04324
3036.69370,0.04301
3034.63353,0.04273
3032.57336,0.04256
3030.51318,0.04256
3028.45301,0.04244
3026.39284,0.04207
3024.33267,0.04165
3022.27250,0.04130
3020.21232,0.04092
3018.15215,0.04050
3016.09198,0.04011
3014.03181,0.03976
3011.97163,0.03951
3009.91146,0.03942
3007.85129,0.03943
3005.79112,0.03943
3003.73095,0.03932
3001.67077,0.03919
2999.61060,0.03908
2997.55043,0.03883
2995.49026,0.03833
2993.43009,0.03786
2991.36991,0.03756
2989.30974,0.03738
2987.24957,0.03726
2985.18940,0.03718
2983.12923,0.03712
2981.06905,0.03705
2979.00888,0.03685
2976.94871,0.03663
2974.88854,0.03644
2972.82836,0.03629
2970.76819,0.03628
2968.70802,0.03631
2966.64785,0.03625
2964.58768,0.03617
2962.52750,0.03605
2960.46733,0.03589
2958.40716,0.03582
2956.34699,0.03582
2954.28682,0.03567
2952.22664,0.03541
2950.16647,0.03530
2948.10630,0.03536
2946.04613,0.03545
2943.98596,0.03550
2941.92578,0.03547
2939.86561,0.03543
2937.80544,0.03538
2935.74527,0.03521
2933.68509,0.03497
2931.62492,0.03481
2929.56475,0.03475
2927.50458,0.03472
2925.44441,0.03454
2923.38423,0.03423
2921.32406,0.03396
2919.26389,0.03378
2917.20372,0.03367
2915.14355,0.03359
2913.08337,0.03339
2911.02320,0.03300
2908.96303,0.03262
2906.90286,0.03228
2904.84268,0.03203
2902.78251,0.03202
2900.72234,0.03215
2898.66217,0.03212
2896.60200,0.03192
2894.54182,0.03171
2892.48165,0.03156
2890.42148,0.03152
2888.36131,0.03167
2886.30114,0.03174
2884.24096,0.03149
2882.18079,0.03106
2880.12062,0.03064
2878.06045,0.03027
2876.00028,0.03017
2873.94010,0.03023
2871.87993,0.03002
2869.81976,0.02987
2867.75959,0.03010
2865.69941,0.03005
2863.63924,0.02965
2861.57907,0.02935
2859.51890,0.02905
2857.45873,0.02877
2855.39855,0.02868
2853.33838,0.02868
2851.27821,0.02866
2849.21804,0.02847
2847.15787,0.02816
2845.09769,0.02789
2843.03752,0.02775
2840.97735,0.02779
2838.91718,0.02783
2836.85700,0.02772
2834.79683,0.02744
2832.73666,0.02712
2830.67649,0.02686
2828.61632,0.02659
2826.55614,0.02647
2824.49597,0.02654
2822.43580,0.02648
2820.37563,0.02618
2818.31546,0.02582
2816.25528,0.02555
2814.19511,0.02534
2812.13494,0.02522
2810.07477,0.02519
2808.01460,0.02501
2805.95442,0.02465
2803.89425,0.02452
2801.83408,0.02460
2799.77391,0.02459
2797.71373,0.02448
2795.65356,0.02432
2793.59339,0.02423
2791.53322,0.02420
2789.47305,0.02410
2787.41287,0.02395
2785.35270,0.02385
2783.29253,0.02374
2781.23236,0.02353
2779.17219,0.02329
2777.11201,0.02327
2775.05184,0.02339
2772.99167,0.02326
2770.93150,0.02296
2768.87133,0.02267
2766.81115,0.02236
2764.75098,0.02214
2762.69081,0.02199
2760.63064,0.02189
2758.57046,0.02195
2756.51029,0.02193
2754.45012,0.02161
2752.38995,0.02129
2750.32978,0.02125
2748.26960,0.02141
2746.20943,0.02150
2744.14926,0.02140
2742.08909,0.02122
2740.02892,0.02105
2737.96874,0.02095
2735.90857,0.02080
2733.84840,0.02062
2731.78823,0.02050
2729.72805,0.02031
2727.66788,0.02023
2725.60771,0.02039
2723.54754,0.02056
2721.48737,0.02048
2719.42719,0.02009
2717.36702,0.01969
2715.30685,0.01945
2713.24668,0.01928
2711.18651,0.01924
2709.12633,0.01929
2707.06616,0.01923
2705.00599,0.01906
2702.94582,0.01888
2700.88565,0.01860
2698.82547,0.01842
2696.76530,0.01847
2694.70513,0.01840
2692.64496,0.01808
2690.58478,0.01785
2688.52461,0.01785
2686.46444,0.01797
2684.40427,0.01805
2682.34410,0.01799
2680.28392,0.01778
2678.22375,0.01743
2676.16358,0.01713
2674.10341,0.01706
2672.04324,0.01705
2669.98306,0.01699
2667.92289,0.01691
2665.86272,0.01675
2663.80255,0.01652
2661.74238,0.01632
2659.68220,0.01616
2657.62203,0.01610
2655.56186,0.01611
2653.50169,0.01607
2651.44151,0.01601
2649.38134,0.01591
2647.32117,0.01570
2645.26100,0.01546
2643.20083,0.01538
2641.14065,0.01545
2639.08048,0.01544
2637.02031,0.01523
2634.96014,0.01498
2632.89997,0.01479
2630.83979,0.01460
2628.77962,0.01439
2626.71945,0.01410
2624.65928,0.01378
2622.59910,0.01353
2620.53893,0.01328
2618.47876,0.01328
2616.41859,0.01362
2614.35842,0.01368
2612.29824,0.01335
2610.23807,0.01317
2608.17790,0.01318
2606.11773,0.01326
2604.05756,0.01332
2601.99738,0.01311
2599.93721,0.01266
2597.87704,0.01243
2595.81687,0.01256
2593.75670,0.01282
2591.69652,0.01294
2589.63635,0.01276
2587.57618,0.01244
2585.51601,0.01227
2583.45583,0.01221
2581.39566,0.01216
2579.33549,0.01223
2577.27532,0.01241
2575.21515,0.01231
2573.15497,0.01195
2571.09480,0.01183
2569.03463,0.01184
2566.97446,0.01178
2564.91429,0.01166
2562.85411,0.01157
2560.79394,0.01183
2558.73377,0.01220
2556.67360,0.01227
2554.61342,0.01229
2552.55325,0.01235
2550.49308,0.01215
2548.43291,0.01181
2546.37274,0.01167
2544.31256,0.01173
2542.25239,0.01187
2540.19222,0.01197
2538.13205,0.01196
2536.07188,0.01181
2534.01170,0.01159
2531.95153,0.01163
2529.89136,0.01206
2527.83119,0.01262
2525.77102,0.01278
2523.71084,0.01221
2521.65067,0.01144
2519.59050,0.01136
2517.53033,0.01185
2515.47015,0.01209
2513.40998,0.01209
2511.34981,0.01228
2509.28964,0.01243
2507.22947,0.01234
2505.16929,0.01223
2503.10912,0.01221
2501.04895,0.01224
2498.98878,0.01241
2496.92861,0.01236
2494.86843,0.01191
2492.80826,0.01167
2490.74809,0.01188
2488.68792,0.01202
2486.62775,0.01190
2484.56757,0.01194
2482.50740,0.01219
2480.44723,0.01239
2478.38706,0.01261
2476.32688,0.01283
2474.26671,0.01298
2472.20654,0.01306
2470.14637,0.01292
2468.08620,0.01263
2466.02602,0.01271
2463.96585,0.01309
2461.90568,0.01314
2459.84551,0.01283
2457.78534,0.01284
2455.72516,0.01325
2453.66499,0.01348
2451.60482,0.01340
2449.54465,0.01335
2447.48447,0.01323
2445.42430,0.01286
2443.36413,0.01251
2441.30396,0.01269
2439.24379,0.01325
2437.18361,0.01360
2435.12344,0.01372
2433.06327,0.01370
2431.00310,0.01359
2428.94293,0.01355
2426.88275,0.01361
2424.82258,0.01367
2422.76241,0.01342
2420.70224,0.01308
2418.64207,0.01301
2416.58189,0.01299
2414.52172,0.01300
2412.46155,0.01314
2410.40138,0.01320
2408.34120,0.01310
2406.28103,0.01307
2404.22086,0.01320
2402.16069,0.01322
2400.10052,0.01291
2398.04034,0.01269
2395.98017,0.01302
2393.92000,0.01352
2391.85983,0.01359
2389.79966,0.01333
2387.73948,0.01321
2385.67931,0.01318
2383.61914,0.01287
2381.55897,0.01239
2379.49880,0.01236
2377.43862,0.01286
2375.37845,0.01300
2373.31828,0.01243
2371.25811,0.01140
2369.19793,0.01045
2367.13776,0.01060
2365.07759,0.01128
2363.01742,0.01052
2360.95725,0.00972
2358.89707,0.01024
2356.83690,0.01176
2354.77673,0.01277
2352.71656,0.01335
2350.65639,0.01456
2348.59621,0.01510
2346.53604,0.01346
2344.47587,0.01229
2342.41570,0.01170
2340.35552,0.01192
2338.29535,0.01300
2336.23518,0.01350
2334.17501,0.01292
2332.11484,0.01222
2330.05466,0.01257
2327.99449,0.01331
2325.93432,0.01376
2323.87415,0.01371
2321.81398,0.01388
2319.75380,0.01390
2317.69363,0.01365
2315.63346,0.01318
2313.57329,0.01297
2311.51312,0.01288
2309.45294,0.01258
2307.39277,0.01242
2305.33260,0.01269
2303.27243,0.01296
2301.21225,0.01280
2299.15208,0.01254
2297.09191,0.01243
2295.03174,0.01243
2292.97157,0.01257
2290.91139,0.01262
2288.85122,0.01237
2286.79105,0.01209
2284.73088,0.01208
2282.67071,0.01234
2280.61053,0.01286
2278.55036,0.01315
2276.49019,0.01251
2274.43002,0.01129
2272.36984,0.01061
2270.30967,0.01104
2268.24950,0.01202
2266.18933,0.01259
2264.12916,0.01235
2262.06898,0.01194
2260.00881,0.01181
2257.94864,0.01154
2255.88847,0.01094
2253.82830,0.01044
2251.76812,0.01014
2249.70795,0.01016
2247.64778,0.01061
2245.58761,0.01093
2243.52744,0.01059
2241.46726,0.00994
2239.40709,0.00971
2237.34692,0.00944
2235.28675,0.00904
2233.22657,0.00959
2231.16640,0.01090
2229.10623,0.01150
2227.04606,0.01080
2224.98589,0.00953
2222.92571,0.00864
2220.86554,0.00875
2218.80537,0.00959
2216.74520,0.01038
2214.68503,0.01043
2212.62485,0.00953
2210.56468,0.00903
2208.50451,0.00967
2206.44434,0.00978
2204.38417,0.00885
2202.32399,0.00838
2200.26382,0.00833
2198.20365,0.00762
2196.14348,0.00689
2194.08330,0.00679
2192.02313,0.00701
2189.96296,0.00740
2187.90279,0.00761
2185.84262,0.00750
2183.78244,0.00724
2181.72227,0.00716
2179.66210,0.00765
2177.60193,0.00856
2175.54176,0.00869
2173.48158,0.00768
2171.42141,0.00667
2169.36124,0.00630
2167.30107,0.00627
2165.24089,0.00632
2163.18072,0.00571
2161.12055,0.00331
2159.06038,0.00199
2157.00021,0.00377
2154.94003,0.00530
2152.87986,0.00573
2150.81969,0.00663
2148.75952,0.00791
2146.69935,0.00812
2144.63917,0.00726
2142.57900,0.00652
2140.51883,0.00628
2138.45866,0.00604
2136.39849,0.00551
2134.33831,0.00542
2132.27814,0.00627
2130.21797,0.00748
2128.15780,0.00840
2126.09762,0.00858
2124.03745,0.00824
2121.97728,0.00805
2119.91711,0.00797
2117.85694,0.00790
2115.79676,0.00795
2113.73659,0.00804
2111.67642,0.00811
2109.61625,0.00788
2107.55608,0.00718
2105.49590,0.00673
2103.43573,0.00689
2101.37556,0.00730
2099.31539,0.00753
2097.25521,0.00710
2095.19504,0.00635
2093.13487,0.00619
2091.07470,0.00678
2089.01453,0.00722
2086.95435,0.00701
2084.89418,0.00709
2082.83401,0.00726
2080.77384,0.00665
2078.71367,0.00629
2076.65349,0.00649
2074.59332,0.00626
2072.53315,0.00592
2070.47298,0.00618
2068.41281,0.00683
2066.35263,0.00727
2064.29246,0.00732
2062.23229,0.00711
2060.17212,0.00693
2058.11194,0.00675
2056.05177,0.00655
2053.99160,0.00692
2051.93143,0.00690
2049.87126,0.00547
2047.81108,0.00421
2045.75091,0.00359
2043.69074,0.00311
2041.63057,0.00373
2039.57040,0.00468
2037.51022,0.00449
2035.45005,0.00377
2033.38988,0.00312
2031.32971,0.00253
2029.26954,0.00273
2027.20936,0.00386
2025.14919,0.00427
2023.08902,0.00386
2021.02885,0.00447
2018.96867,0.00617
2016.90850,0.00727
2014.84833,0.00632
2012.78816,0.00368
2010.72799,0.00142
2008.66781,0.00085
2006.60764,0.00160
2004.54747,0.00258
2002.48730,0.00301
2000.42713,0.00331
1998.36695,0.00381
1996.30678,0.00387
1994.24661,0.00314
1992.18644,0.00246
1990.12626,0.00270
1988.06609,0.00377
1986.00592,0.00506
1983.94575,0.00554
1981.88558,0.00510
1979.82540,0.00498
1977.76523,0.00569
1975.70506,0.00586
1973.64489,0.00513
1971.58472,0.00428
1969.52454,0.00320
1967.46437,0.00287
1965.40420,0.00450
1963.34403,0.00656
1961.28386,0.00653
1959.22368,0.00470
1957.16351,0.00344
1955.10334,0.00359
1953.04317,0.00441
1950.98299,0.00509
1948.92282,0.00535
1946.86265,0.00515
1944.80248,0.00484
1942.74231,0.00483
1940.68213,0.00478
1938.62196,0.00420
1936.56179,0.00331
1934.50162,0.00292
1932.44145,0.00336
1930.38127,0.00390
1928.32110,0.00362
1926.26093,0.00286
1924.20076,0.00261
1922.14059,0.00285
1920.08041,0.00311
1918.02024,0.00358
1915.96007,0.00438
1913.89990,0.00497
1911.83972,0.00485
1909.77955,0.00432
1907.71938,0.00422
1905.65921,0.00446
1903.59904,0.00445
1901.53886,0.00430
1899.47869,0.00419
1897.41852,0.00435
1895.35835,0.00469
1893.29818,0.00464
1891.23800,0.00420
1889.17783,0.00400
1887.11766,0.00422
1885.05749,0.00457
1882.99731,0.00473
1880.93714,0.00468
1878.87697,0.00474
1876.81680,0.00503
1874.75663,0.00511
1872.69645,0.00476
1870.63628,0.00443
1868.57611,0.00459
1866.51594,0.00510
1864.45577,0.00539
1862.39559,0.00517
1860.33542,0.00478
1858.27525,0.00459
1856.21508,0.00461
1854.15491,0.00472
1852.09473,0.00477
1850.03456,0.00467
1847.97439,0.00453
1845.91422,0.00439
1843.85404,0.00426
1841.79387,0.00432
1839.73370,0.00463
1837.67353,0.00502
1835.61336,0.00529
1833.55318,0.00527
1831.49301,0.00500
1829.43284,0.00472
1827.37267,0.00460
1825.31250,0.00456
1823.25232,0.00451
1821.19215,0.00444
1819.13198,0.00438
1817.07181,0.00442
1815.01163,0.00459
1812.95146,0.00480
1810.89129,0.00507
1808.83112,0.00542
1806.77095,0.00566
1804.71077,0.00570
1802.65060,0.00558
1800.59043,0.00543
1798.53026,0.00531
1796.47009,0.00512
1794.40991,0.00492
1792.34974,0.00493
1790.28957,0.00517
1788.22940,0.00546
1786.16923,0.00561
1784.10905,0.00557
1782.04888,0.00552
1779.98871,0.00566
1777.92854,0.00579
1775.86836,0.00578
1773.80819,0.00576
1771.74802,0.00588
1769.68785,0.00603
1767.62768,0.00612
1765.56750,0.00617
1763.50733,0.00628
1761.44716,0.00652
1759.38699,0.00667
1757.32682,0.00661
1755.26664,0.00663
1753.20647,0.00680
1751.14630,0.00692
1749.08613,0.00699
1747.02596,0.00723
1744.96578,0.00765
1742.90561,0.00812
1740.84544,0.00855
1738.78527,0.00872
1736.72509,0.00854
1734.66492,0.00851
1732.60475,0.00903
1730.54458,0.00957
1728.48441,0.00977
1726.42423,0.00990
1724.36406,0.01013
1722.30389,0.01020
1720.24372,0.00999
1718.18355,0.00991
1716.12337,0.01044
1714.06320,0.01120
1712.00303,0.01175
1709.94286,0.01217
1707.88268,0.01254
1705.82251,0.01289
1703.76234,0.01319
1701.70217,0.01337
1699.64200,0.01346
1697.58182,0.01373
1695.52165,0.01435
1693.46148,0.01501
1691.40131,0.01551
1689.34114,0.01602
1687.28096,0.01658
1685.22079,0.01721
1683.16062,0.01813
1681.10045,0.01894
1679.04028,0.01937
1676.98010,0.01964
1674.91993,0.02010
1672.85976,0.02077
1670.79959,0.02163
1668.73941,0.02268
1666.67924,0.02333
1664.61907,0.02347
1662.55890,0.02367
1660.49873,0.02412
1658.43855,0.02448
1656.37838,0.02455
1654.31821,0.02459
1652.25804,0.02502
1650.19787,0.02541
1648.13769,0.02552
1646.07752,0.02558
1644.01735,0.02554
1641.95718,0.02526
1639.89701,0.02492
1637.83683,0.02477
1635.77666,0.02487
1633.71649,0.02492
1631.65632,0.02471
1629.59614,0.02439
1627.53597,0.02409
1625.47580,0.02372
1623.41563,0.02336
1621.35546,0.02317
1619.29528,0.02298
1617.23511,0.02266
1615.17494,0.02237
1613.11477,0.02215
1611.05460,0.02186
1608.99442,0.02150
1606.93425,0.02106
1604.87408,0.02052
1602.81391,0.02004
1600.75373,0.01972
1598.69356,0.01938
1596.63339,0.01885
1594.57322,0.01825
1592.51305,0.01770
1590.45287,0.01718
1588.39270,0.01660
1586.33253,0.01597
1584.27236,0.01542
1582.21219,0.01491
1580.15201,0.01436
1578.09184,0.01385
1576.03167,0.01340
1573.97150,0.01292
1571.91133,0.01245
1569.85115,0.01213
1567.79098,0.01191
1565.73081,0.01156
1563.67064,0.01101
1561.61046,0.01026
1559.55029,0.00952
1557.49012,0.00935
1555.42995,0.00944
1553.36978,0.00933
1551.30960,0.00913
1549.24943,0.00888
1547.18926,0.00845
1545.12909,0.00781
1543.06892,0.00717
1541.00874,0.00685
1538.94857,0.00697
1536.88840,0.00709
1534.82823,0.00699
1532.76805,0.00686
1530.70788,0.00678
1528.64771,0.00659
1526.58754,0.00620
1524.52737,0.00572
1522.46719,0.00545
1520.40702,0.00554
1518.34685,0.00561
1516.28668,0.00546
1514.22651,0.00530
1512.16633,0.00519
1510.10616,0.00510
1508.04599,0.00513
1505.98582,0.00521
1503.92565,0.00503
1501.86547,0.00466
1499.80530,0.00434
1497.74513,0.00427
1495.68496,0.00443
1493.62478,0.00442
1491.56461,0.00410
1489.50444,0.00394
1487.44427,0.00434
1485.38410,0.00488
1483.32392,0.00507
1481.26375,0.00491
1479.20358,0.00469
1477.14341,0.00456
1475.08324,0.00452
1473.02306,0.00460
1470.96289,0.00493
1468.90272,0.00533
1466.84255,0.00566
1464.78238,0.00591
1462.72220,0.00596
1460.66203,0.00577
1458.60186,0.00554
1456.54169,0.00556
1454.48151,0.00583
1452.42134,0.00607
1450.36117,0.00614
1448.30100,0.00607
1446.24083,0.00602
1444.18065,0.00605
1442.12048,0.00600
1440.06031,0.00583
1438.00014,0.00581
1435.93997,0.00608
1433.87979,0.00625
1431.81962,0.00623
1429.75945,0.00628
1427.69928,0.00644
1425.63910,0.00653
1423.57893,0.00659
1421.51876,0.00671
1419.45859,0.00683
1417.39842,0.00707
1415.33824,0.00739
1413.27807,0.00749
1411.21790,0.00738
1409.15773,0.00718
1407.09756,0.00705
1405.03738,0.00702
1402.97721,0.00699
1400.91704,0.00687
1398.85687,0.00666
1396.79670,0.00638
1394.73652,0.00609
1392.67635,0.00587
1390.61618,0.00569
1388.55601,0.00560
1386.49583,0.00575
1384.43566,0.00598
1382.37549,0.00602
1380.31532,0.00591
1378.25515,0.00579
1376.19497,0.00580
1374.13480,0.00601
1372.07463,0.00620
1370.01446,0.00611
1367.95429,0.00581
1365.89411,0.00547
1363.83394,0.00513
1361.77377,0.00486
1359.71360,0.00477
1357.65343,0.00472
1355.59325,0.00463
1353.53308,0.00459
1351.47291,0.00466
1349.41274,0.00472
1347.35256,0.00464
1345.29239,0.00448
1343.23222,0.00431
1341.17205,0.00414
1339.11188,0.00402
1337.05170,0.00404
1334.99153,0.00409
1332.93136,0.00410
1330.87119,0.00410
1328.81102,0.00402
1326.75084,0.00386
1324.69067,0.00372
1322.63050,0.00364
1320.57033,0.00363
1318.51015,0.00377
1316.44998,0.00395
1314.38981,0.00398
1312.32964,0.00384
1310.26947,0.00372
1308.20929,0.00379
1306.14912,0.00395
1304.08895,0.00404
1302.02878,0.00406
1299.96861,0.00407
1297.90843,0.00409
1295.84826,0.00410
1293.78809,0.00413
1291.72792,0.00419
1289.66775,0.00421
1287.60757,0.00419
1285.54740,0.00418
1283.48723,0.00427
1281.42706,0.00444
1279.36688,0.00462
1277.30671,0.00469
1275.24654,0.00468
1273.18637,0.00468
1271.12620,0.00476
1269.06602,0.00487
1267.00585,0.00498
1264.94568,0.00504
1262.88551,0.00503
1260.82534,0.00510
1258.76516,0.00529
1256.70499,0.00539
1254.64482,0.00539
1252.58465,0.00537
1250.52447,0.00528
1248.46430,0.00515
1246.40413,0.00502
1244.34396,0.00484
1242.28379,0.00454
1240.22361,0.00422
1238.16344,0.00416
1236.10327,0.00423
1234.04310,0.00418
1231.98293,0.00401
1229.92275,0.00387
1227.86258,0.00376
1225.80241,0.00356
1223.74224,0.00322
1221.68207,0.00290
1219.62189,0.00269
1217.56172,0.00253
1215.50155,0.00241
1213.44138,0.00235
1211.38120,0.00233
1209.32103,0.00224
1207.26086,0.00192
1205.20069,0.00145
1203.14052,0.00121
1201.08034,0.00125
1199.02017,0.00140
1196.96000,0.00157
1194.89983,0.00170
1192.83966,0.00190
1190.77948,0.00223
1188.71931,0.00256
1186.65914,0.00284
1184.59897,0.00312
1182.53880,0.00358
1180.47862,0.00428
1178.41845,0.00497
1176.35828,0.00569
1174.29811,0.00665
1172.23793,0.00753
1170.17776,0.00818
1168.11759,0.00900
1166.05742,0.01000
1163.99725,0.01089
1161.93707,0.01164
1159.87690,0.01236
1157.81673,0.01315
1155.75656,0.01399
1153.69639,0.01480
1151.63621,0.01561
1149.57604,0.01640
1147.51587,0.01715
1145.45570,0.01786
1143.39552,0.01856
1141.33535,0.01929
1139.27518,0.02009
1137.21501,0.02109
1135.15484,0.02238
1133.09466,0.02368
1131.03449,0.02470
1128.97432,0.02558
1126.91415,0.02658
1124.85398,0.02764
1122.79380,0.02882
1120.73363,0.03014
1118.67346,0.03142
1116.61329,0.03262
1114.55312,0.03401
1112.49294,0.03561
1110.43277,0.03699
1108.37260,0.03809
1106.31243,0.03935
1104.25225,0.04092
1102.19208,0.04257
1100.13191,0.04403
1098.07174,0.04524
1096.01157,0.04640
1093.95139,0.04760
1091.89122,0.04872
1089.83105,0.04979
1087.77088,0.05086
1085.71071,0.05188
1083.65053,0.05288
1081.59036,0.05387
1079.53019,0.05479
1077.47002,0.05559
1075.40985,0.05620
1073.34967,0.05675
1071.28950,0.05743
1069.22933,0.05807
1067.16916,0.05835
1065.10898,0.05825
1063.04881,0.05804
1060.98864,0.05784
1058.92847,0.05752
1056.86830,0.05708
1054.80812,0.05662
1052.74795,0.05612
1050.68778,0.05542
1048.62761,0.05443
1046.56744,0.05342
1044.50726,0.05256
1042.44709,0.05157
1040.38692,0.05034
1038.32675,0.04912
1036.26657,0.04818
1034.20640,0.04726
1032.14623,0.04585
1030.08606,0.04423
1028.02589,0.04288
1025.96571,0.04171
1023.90554,0.04061
1021.84537,0.03959
1019.78520,0.03853
1017.72503,0.03749
1015.66485,0.03678
1013.60468,0.03626
1011.54451,0.03539
1009.48434,0.03428
1007.42417,0.03364
1005.36399,0.03346
1003.30382,0.03342
1001.24365,0.03362
999.18348,0.03413
997.12330,0.03478
995.06313,0.03554
993.00296,0.03645
990.94279,0.03733
988.88262,0.03796
986.82244,0.03831
984.76227,0.03845
982.70210,0.03848
980.64193,0.03823
978.58176,0.03749
976.52158,0.03627
974.46141,0.03483
972.40124,0.03343
970.34107,0.03224
968.28089,0.03103
966.22072,0.02955
964.16055,0.02802
962.10038,0.02663
960.04021,0.02515
957.98003,0.02366
955.91986,0.02255
953.85969,0.02174
951.79952,0.02093
949.73935,0.02017
947.67917,0.01958
945.61900,0.01907
943.55883,0.01859
941.49866,0.01814
939.43849,0.01783
937.37831,0.01758
935.31814,0.01726
933.25797,0.01681
931.19780,0.01652
929.13762,0.01657
927.07745,0.01642
925.01728,0.01585
922.95711,0.01522
920.89694,0.01467
918.83676,0.01410
916.77659,0.01349
914.71642,0.01302
912.65625,0.01273
910.59608,0.01235
908.53590,0.01183
906.47573,0.01143
904.41556,0.01124
902.35539,0.01111
900.29522,0.01092
898.23504,0.01066
896.17487,0.01061
894.11470,0.01113
892.05453,0.01194
889.99435,0.01230
887.93418,0.01244
885.87401,0.01281
883.81384,0.01307
881.75367,0.01322
879.69349,0.01355
877.63332,0.01400
875.57315,0.01458
873.51298,0.01492
871.45281,0.01489
869.39263,0.01514
867.33246,0.01568
865.27229,0.01599
863.21212,0.01624
861.15194,0.01677
859.09177,0.01702
857.03160,0.01645
854.97143,0.01553
852.91126,0.01492
850.85108,0.01453
848.79091,0.01412
846.73074,0.01378
844.67057,0.01379
842.61040,0.01402
840.55022,0.01363
838.49005,0.01274
836.42988,0.01220
834.36971,0.01205
832.30954,0.01172
830.24936,0.01093
828.18919,0.01005
826.12902,0.00975
824.06885,0.00986
822.00867,0.00940
819.94850,0.00853
817.88833,0.00812
815.82816,0.00777
813.76799,0.00683
811.70781,0.00587
809.64764,0.00554
807.58747,0.00548
805.52730,0.00556
803.46713,0.00574
801.40695,0.00582
799.34678,0.00603
797.28661,0.00631
795.22644,0.00637
793.16627,0.00610
791.10609,0.00551
789.04592,0.00512
786.98575,0.00509
784.92558,0.00504
782.86540,0.00498
780.80523,0.00495
778.74506,0.00490
776.68489,0.00489
774.62472,0.00499
772.56454,0.00503
770.50437,0.00488
768.44420,0.00489
766.38403,0.00499
764.32386,0.00479
762.26368,0.00424
760.20351,0.00373
758.14334,0.00354
756.08317,0.00340
754.02299,0.00332
751.96282,0.00336
749.90265,0.00312
747.84248,0.00296
745.78231,0.00332
743.72213,0.00335
741.66196,0.00256
739.60179,0.00198
737.54162,0.00227
735.48145,0.00314
733.42127,0.00364
731.36110,0.00362
729.30093,0.00351
727.24076,0.00309
725.18059,0.00271
723.12041,0.00297
721.06024,0.00336
719.00007,0.00397
716.93990,0.00442
714.87972,0.00458
712.81955,0.00468
710.75938,0.00470
708.69921,0.00455
706.63904,0.00431
704.57886,0.00414
702.51869,0.00429
700.45852,0.00466
698.39835,0.00494
696.33818,0.00490
694.27800,0.00440
692.21783,0.00339
690.15766,0.00252
688.09749,0.00289
686.03731,0.00441
683.97714,0.00562
681.91697,0.00580
679.85680,0.00572
677.79663,0.00581
675.73645,0.00537
673.67628,0.00431
671.61611,0.00364
669.55594,0.00215
667.49577,0.00144
665.43559,0.00454
663.37542,0.00425
661.31525,0.00353
659.25508,0.00383
657.19491,0.00466
655.13473,0.00524
653.07456,0.00512
651.01439,0.00468
648.95422,0.00420
646.89404,0.00371
644.83387,0.00299
642.77370,0.00198
640.71353,0.00146
638.65336,0.00199
636.59318,0.00279
634.53301,0.00323
632.47284,0.00343
630.41267,0.00315
628.35250,0.00240
626.29232,0.00181
624.23215,0.00221
622.17198,0.00244
620.11181,0.00116
618.05164,0.00043
615.99146,0.00185
613.93129,0.00487
611.87112,0.00683
609.81095,0.00420
607.75077,0.00005
605.69060,0.00000
603.63043,0.00146
601.57026,0.00091
599.51009,0.00000
