3996.73391,-0.00056
3994.67373,-0.00049
3992.61356,-0.00069
3990.55339,-0.00081
3988.49322,-0.00044
3986.43305,-0.00007
3984.37287,-0.00018
3982.31270,-0.00045
3980.25253,-0.00045
3978.19236,-0.00041
3976.13219,-0.00047
3974.07201,-0.00042
3972.01184,-0.00027
3969.95167,-0.00029
3967.89150,-0.00035
3965.83133,-0.00010
3963.77115,0.00029
3961.71098,0.00052
3959.65081,0.00052
3957.59064,0.00041
3955.53046,0.00038
3953.47029,0.00035
3951.41012,0.00007
3949.34995,0.00000
3947.28978,0.00069
3945.22960,0.00115
3943.16943,0.00084
3941.10926,0.00083
3939.04909,0.00111
3936.98892,0.00117
3934.92874,0.00085
3932.86857,0.00034
3930.80840,0.00040
3928.74823,0.00077
3926.68805,0.00069
3924.62788,0.00071
3922.56771,0.00125
3920.50754,0.00132
3918.44737,0.00105
3916.38719,0.00149
3914.32702,0.00228
3912.26685,0.00236
3910.20668,0.00221
3908.14651,0.00220
3906.08633,0.00176
3904.02616,0.00135
3901.96599,0.00152
3899.90582,0.00176
3897.84565,0.00242
3895.78547,0.00273
3893.72530,0.00181
3891.66513,0.00127
3889.60496,0.00223
3887.54478,0.00230
3885.48461,0.00176
3883.42444,0.00206
3881.36427,0.00182
3879.30410,0.00233
3877.24392,0.00306
3875.18375,0.00240
3873.12358,0.00203
3871.06341,0.00196
3869.00324,0.00243
3866.94306,0.00275
3864.88289,0.00199
3862.82272,0.00214
3860.76255,0.00296
3858.70237,0.00326
3856.64220,0.00209
3854.58203,0.00000
3852.52186,0.00108
3850.46169,0.00413
3848.40151,0.00483
3846.34134,0.00384
3844.28117,0.00303
3842.22100,0.00293
3840.16083,0.00238
3838.10065,0.00178
3836.04048,0.00236
3833.98031,0.00294
3831.92014,0.00300
3829.85997,0.00310
3827.79979,0.00312
3825.73962,0.00358
3823.67945,0.00345
3821.61928,0.00252
3819.55910,0.00336
3817.49893,0.00354
3815.43876,0.00318
3813.37859,0.00371
3811.31842,0.00338
3809.25824,0.00227
3807.19807,0.00192
3805.13790,0.00289
3803.07773,0.00266
3801.01756,0.00269
3798.95738,0.00406
3796.89721,0.00398
3794.83704,0.00367
3792.77687,0.00357
3790.71670,0.00330
3788.65652,0.00320
3786.59635,0.00296
3784.53618,0.00288
3782.47601,0.00298
3780.41583,0.00249
3778.35566,0.00252
3776.29549,0.00328
3774.23532,0.00354
3772.17515,0.00298
3770.11497,0.00232
3768.05480,0.00231
3765.99463,0.00228
3763.93446,0.00277
3761.87429,0.00300
3759.81411,0.00255
3757.75394,0.00307
3755.69377,0.00421
3753.63360,0.00383
3751.57342,0.00245
3749.51325,0.00306
3747.45308,0.00410
3745.39291,0.00284
3743.33274,0.00293
3741.27256,0.00436
3739.21239,0.00403
3737.15222,0.00240
3735.09205,0.00128
3733.03188,0.00155
3730.97170,0.00231
3728.91153,0.00248
3726.85136,0.00206
3724.79119,0.00224
3722.73102,0.00268
3720.67084,0.00284
3718.61067,0.00302
3716.55050,0.00308
3714.49033,0.00245
3712.43015,0.00174
3710.36998,0.00229
3708.30981,0.00353
3706.24964,0.00371
3704.18947,0.00272
3702.12929,0.00175
3700.06912,0.00201
3698.00895,0.00276
3695.94878,0.00351
3693.88861,0.00406
3691.82843,0.00318
3689.76826,0.00190
3687.70809,0.00255
3685.64792,0.00391
3683.58775,0.00395
3681.52757,0.00380
3679.46740,0.00404
3677.40723,0.00345
3675.34706,0.00310
3673.28688,0.00446
3671.22671,0.00372
3669.16654,0.00300
3667.10637,0.00427
3665.04620,0.00475
3662.98602,0.00465
3660.92585,0.00502
3658.86568,0.00518
3656.80551,0.00531
3654.74534,0.00674
3652.68516,0.00727
3650.62499,0.00600
3648.56482,0.00602
3646.50465,0.00759
3644.44447,0.00846
3642.38430,0.00812
3640.32413,0.00789
3638.26396,0.00828
3636.20379,0.00897
3634.14361,0.00975
3632.08344,0.01016
3630.02327,0.00940
3627.96310,0.00993
3625.90293,0.01206
3623.84275,0.01265
3621.78258,0.01170
3619.72241,0.01085
3617.66224,0.01155
3615.60207,0.01242
3613.54189,0.01257
3611.48172,0.01344
3609.42155,0.01433
3607.36138,0.01499
3605.30120,0.01582
3603.24103,0.01603
3601.18086,0.01607
3599.12069,0.01661
3597.06052,0.01732
3595.00034,0.01786
3592.94017,0.01861
3590.88000,0.01889
3588.81983,0.01863
3586.75966,0.01925
3584.69948,0.02052
3582.63931,0.02098
3580.57914,0.02110
3578.51897,0.02139
3576.45879,0.02176
3574.39862,0.02225
3572.33845,0.02274
3570.27828,0.02272
3568.21811,0.02253
3566.15793,0.02349
3564.09776,0.02488
3562.03759,0.02533
3559.97742,0.02538
3557.91725,0.02559
3555.85707,0.02589
3553.79690,0.02611
3551.73673,0.02644
3549.67656,0.02685
3547.61639,0.02705
3545.55621,0.02749
3543.49604,0.02836
3541.43587,0.02912
3539.37570,0.02960
3537.31552,0.02992
3535.25535,0.03037
3533.19518,0.03094
3531.13501,0.03133
3529.07484,0.03171
3527.01466,0.03239
3524.95449,0.03306
3522.89432,0.03347
3520.83415,0.03382
3518.77398,0.03403
3516.71380,0.03422
3514.65363,0.03457
3512.59346,0.03505
3510.53329,0.03560
3508.47312,0.03624
3506.41294,0.03659
3504.35277,0.03650
3502.29260,0.03688
3500.23243,0.03775
3498.17225,0.03840
3496.11208,0.03887
3494.05191,0.03925
3491.99174,0.03950
3489.93157,0.03977
3487.87139,0.04002
3485.81122,0.04021
3483.75105,0.04032
3481.69088,0.04059
3479.63071,0.04119
3477.57053,0.04144
3475.51036,0.04137
3473.45019,0.04166
3471.39002,0.04225
3469.32984,0.04282
3467.26967,0.04352
3465.20950,0.04411
3463.14933,0.04419
3461.08916,0.04435
3459.02898,0.04480
3456.96881,0.04510
3454.90864,0.04528
3452.84847,0.04554
3450.78830,0.04576
3448.72812,0.04579
3446.66795,0.04618
3444.60778,0.04705
3442.54761,0.04779
3440.48744,0.04840
3438.42726,0.04872
3436.36709,0.04879
3434.30692,0.04875
3432.24675,0.04867
3430.18657,0.04872
3428.12640,0.04893
3426.06623,0.04922
3424.00606,0.04953
3421.94589,0.04973
3419.88571,0.04979
3417.82554,0.05002
3415.76537,0.05055
3413.70520,0.05108
3411.64503,0.05125
3409.58485,0.05121
3407.52468,0.05145
3405.46451,0.05191
3403.40434,0.05211
3401.34416,0.05211
3399.28399,0.05214
3397.22382,0.05221
3395.16365,0.05244
3393.10348,0.05274
3391.04330,0.05305
3388.98313,0.05313
3386.92296,0.05328
3384.86279,0.05374
3382.80262,0.05425
3380.74244,0.05463
3378.68227,0.05463
3376.62210,0.05432
3374.56193,0.05421
3372.50176,0.05429
3370.44158,0.05439
3368.38141,0.05447
3366.32124,0.05457
3364.26107,0.05486
3362.20089,0.05519
3360.14072,0.05538
3358.08055,0.05562
3356.02038,0.05590
3353.96021,0.05596
3351.90003,0.05575
3349.83986,0.05556
3347.77969,0.05560
3345.71952,0.05569
3343.65935,0.05566
3341.59917,0.05558
3339.53900,0.05562
3337.47883,0.05563
3335.41866,0.05566
3333.35849,0.05599
3331.29831,0.05636
3329.23814,0.05644
3327.17797,0.05644
3325.11780,0.05656
3323.05762,0.05676
3320.99745,0.05694
3318.93728,0.05706
3316.87711,0.05705
3314.81694,0.05700
3312.75676,0.05707
3310.69659,0.05697
3308.63642,0.05659
3306.57625,0.05643
3304.51608,0.05669
3302.45590,0.05686
3300.39573,0.05672
3298.33556,0.05658
3296.27539,0.05672
3294.21521,0.05710
3292.15504,0.05731
3290.09487,0.05714
3288.03470,0.05685
3285.97453,0.05691
3283.91435,0.05727
3281.85418,0.05749
3279.79401,0.05746
3277.73384,0.05739
3275.67367,0.05742
3273.61349,0.05749
3271.55332,0.05757
3269.49315,0.05756
3267.43298,0.05736
3265.37281,0.05727
3263.31263,0.05755
3261.25246,0.05783
3259.19229,0.05797
3257.13212,0.05815
3255.07194,0.05807
3253.01177,0.05772
3250.95160,0.05752
3248.89143,0.05750
3246.83126,0.05756
3244.77108,0.05766
3242.71091,0.05761
3240.65074,0.05755
3238.59057,0.05774
3236.53040,0.05789
3234.47022,0.05774
3232.41005,0.05744
3230.34988,0.05723
3228.28971,0.05725
3226.22954,0.05742
3224.16936,0.05746
3222.10919,0.05715
3220.04902,0.05677
3217.98885,0.05682
3215.92867,0.05692
3213.86850,0.05665
3211.80833,0.05647
3209.74816,0.05663
3207.68799,0.05672
3205.62781,0.05648
3203.56764,0.05625
3201.50747,0.05616
3199.44730,0.05590
3197.38713,0.05563
3195.32695,0.05555
3193.26678,0.05553
3191.20661,0.05555
3189.14644,0.05563
3187.08626,0.05561
3185.02609,0.05536
3182.96592,0.05506
3180.90575,0.05493
3178.84558,0.05478
3176.78540,0.05443
3174.72523,0.05412
3172.66506,0.05421
3170.60489,0.05440
3168.54472,0.05414
3166.48454,0.05362
3164.42437,0.05353
3162.36420,0.05389
3160.30403,0.05410
3158.24386,0.05406
3156.18368,0.05391
3154.12351,0.05366
3152.06334,0.05318
3150.00317,0.05251
3147.94299,0.05204
3145.88282,0.05205
3143.82265,0.05207
3141.76248,0.05176
3139.70231,0.05152
3137.64213,0.05145
3135.58196,0.05129
3133.52179,0.05105
3131.46162,0.05090
3129.40145,0.05074
3127.34127,0.05056
3125.28110,0.05033
3123.22093,0.04996
3121.16076,0.04964
3119.10058,0.04957
3117.04041,0.04970
3114.98024,0.04972
3112.92007,0.04948
3110.85990,0.04913
3108.79972,0.04883
3106.73955,0.04859
3104.67938,0.04839
3102.61921,0.04812
3100.55904,0.04779
3098.49886,0.04753
3096.43869,0.04722
3094.37852,0.04695
3092.31835,0.04677
3090.25818,0.04664
3088.19800,0.04653
3086.13783,0.04635
3084.07766,0.04611
3082.01749,0.04583
3079.95731,0.04549
3077.89714,0.04515
3075.83697,0.04489
3073.77680,0.04469
3071.71663,0.04447
3069.65645,0.04423
3067.59628,0.04393
3065.53611,0.04359
3063.47594,0.04345
3061.41577,0.04344
3059.35559,0.04323
3057.29542,0.04283
3055.23525,0.04247
3053.17508,0.04237
3051.11491,0.04246
3049.05473,0.04245
3046.99456,0.04216
3044.93439,0.04186
3042.87422,0.04162
3040.81404,0.04124
3038.75387,0.04097
3036.69370,0.04084
3034.63353,0.04045
3032.57336,0.03998
3030.51318,0.03973
3028.45301,0.03945
3026.39284,0.03908
3024.33267,0.03893
3022.27250,0.03894
3020.21232,0.03888
3018.15215,0.03857
3016.09198,0.03818
3014.03181,0.03798
3011.97163,0.03781
3009.91146,0.03754
3007.85129,0.03741
3005.79112,0.03734
3003.73095,0.03706
3001.67077,0.03674
2999.61060,0.03665
2997.55043,0.03642
2995.49026,0.03584
2993.43009,0.03558
2991.36991,0.03567
2989.30974,0.03558
2987.24957,0.03534
2985.18940,0.03512
2983.12923,0.03487
2981.06905,0.03474
2979.00888,0.03469
2976.94871,0.03455
2974.88854,0.03445
2972.82836,0.03444
2970.76819,0.03442
2968.70802,0.03428
2966.64785,0.03405
2964.58768,0.03400
2962.52750,0.03414
2960.46733,0.03411
2958.40716,0.03386
2956.34699,0.03370
2954.28682,0.03363
2952.22664,0.03366
2950.16647,0.03395
2948.10630,0.03425
2946.04613,0.03446
2943.98596,0.03467
2941.92578,0.03470
2939.86561,0.03447
2937.80544,0.03426
2935.74527,0.03426
2933.68509,0.03420
2931.62492,0.03397
2929.56475,0.03392
2927.50458,0.03395
2925.44441,0.03373
2923.38423,0.03342
2921.32406,0.03327
2919.26389,0.03318
2917.20372,0.03300
2915.14355,0.03285
2913.08337,0.03289
2911.02320,0.03288
2908.96303,0.03259
2906.90286,0.03211
2904.84268,0.03185
2902.78251,0.03201
2900.72234,0.03210
2898.66217,0.03180
2896.60200,0.03147
2894.54182,0.03134
2892.48165,0.03127
2890.42148,0.03113
2888.36131,0.03092
2886.30114,0.03088
2884.24096,0.03115
2882.18079,0.03145
2880.12062,0.03135
2878.06045,0.03102
2876.00028,0.03082
2873.94010,0.03072
2871.87993,0.03055
2869.81976,0.03019
2867.75959,0.02979
2865.69941,0.02959
2863.63924,0.02953
2861.57907,0.02948
2859.51890,0.02944
2857.45873,0.02938
2855.39855,0.02935
2853.33838,0.02932
2851.27821,0.02902
2849.21804,0.02858
2847.15787,0.02825
2845.09769,0.02799
2843.03752,0.02775
2840.97735,0.02763
2838.91718,0.02764
2836.85700,0.02762
2834.79683,0.02737
2832.73666,0.02701
2830.67649,0.02697
2828.61632,0.02711
2826.55614,0.02702
2824.49597,0.02675
2822.43580,0.02655
2820.37563,0.02645
2818.31546,0.02645
2816.25528,0.02661
2814.19511,0.02660
2812.13494,0.02625
2810.07477,0.02583
2808.01460,0.02547
2805.95442,0.02520
2803.89425,0.02521
2801.83408,0.02540
2799.77391,0.02555
2797.71373,0.02551
2795.65356,0.02522
2793.59339,0.02490
2791.53322,0.02473
2789.47305,0.02476
2787.41287,0.02484
2785.35270,0.02474
2783.29253,0.02442
2781.23236,0.02412
2779.17219,0.02406
2777.11201,0.02402
2775.05184,0.02388
2772.99167,0.02373
2770.93150,0.02357
2768.87133,0.02346
2766.81115,0.02350
2764.75098,0.02351
2762.69081,0.02334
2760.63064,0.02316
2758.57046,0.02307
2756.51029,0.02301
2754.45012,0.02297
2752.38995,0.02297
2750.32978,0.02292
2748.26960,0.02280
2746.20943,0.02262
2744.14926,0.02241
2742.08909,0.02228
2740.02892,0.02223
2737.96874,0.02217
2735.90857,0.02211
2733.84840,0.02214
2731.78823,0.02213
2729.72805,0.02186
2727.66788,0.02142
2725.60771,0.02105
2723.54754,0.02086
2721.48737,0.02096
2719.42719,0.02114
2717.36702,0.02116
2715.30685,0.02100
2713.24668,0.02075
2711.18651,0.02050
2709.12633,0.02033
2707.06616,0.02024
2705.00599,0.02014
2702.94582,0.01998
2700.88565,0.01979
2698.82547,0.01964
2696.76530,0.01959
2694.70513,0.01958
2692.64496,0.01943
2690.58478,0.01918
2688.52461,0.01901
2686.46444,0.01894
2684.40427,0.01892
2682.34410,0.01895
2680.28392,0.01893
2678.22375,0.01869
2676.16358,0.01829
2674.10341,0.01788
2672.04324,0.01764
2669.98306,0.01762
2667.92289,0.01767
2665.86272,0.01773
2663.80255,0.01776
2661.74238,0.01772
2659.68220,0.01761
2657.62203,0.01732
2655.56186,0.01697
2653.50169,0.01684
2651.44151,0.01683
2649.38134,0.01668
2647.32117,0.01636
2645.26100,0.01611
2643.20083,0.01594
2641.14065,0.01576
2639.08048,0.01560
2637.02031,0.01548
2634.96014,0.01549
2632.89997,0.01548
2630.83979,0.01525
2628.77962,0.01495
2626.71945,0.01475
2624.65928,0.01470
2622.59910,0.01481
2620.53893,0.01482
2618.47876,0.01452
2616.41859,0.01415
2614.35842,0.01403
2612.29824,0.01400
2610.23807,0.01389
2608.17790,0.01374
2606.11773,0.01343
2604.05756,0.01311
2601.99738,0.01315
2599.93721,0.01335
2597.87704,0.01325
2595.81687,0.01301
2593.75670,0.01300
2591.69652,0.01298
2589.63635,0.01276
2587.57618,0.01257
2585.51601,0.01260
2583.45583,0.01277
2581.39566,0.01284
2579.33549,0.01265
2577.27532,0.01251
2575.21515,0.01249
2573.15497,0.01228
2571.09480,0.01200
2569.03463,0.01196
2566.97446,0.01211
2564.91429,0.01235
2562.85411,0.01275
2560.79394,0.01290
2558.73377,0.01243
2556.67360,0.01187
2554.61342,0.01172
2552.55325,0.01177
2550.49308,0.01178
2548.43291,0.01188
2546.37274,0.01217
2544.31256,0.01233
2542.25239,0.01205
2540.19222,0.01170
2538.13205,0.01169
2536.07188,0.01192
2534.01170,0.01211
2531.95153,0.01208
2529.89136,0.01205
2527.83119,0.01217
2525.77102,0.01240
2523.71084,0.01267
2521.65067,0.01269
2519.59050,0.01237
2517.53033,0.01211
2515.47015,0.01218
2513.40998,0.01248
2511.34981,0.01268
2509.28964,0.01264
2507.22947,0.01259
2505.16929,0.01242
2503.10912,0.01212
2501.04895,0.01202
2498.98878,0.01207
2496.92861,0.01212
2494.86843,0.01221
2492.80826,0.01234
2490.74809,0.01227
2488.68792,0.01224
2486.62775,0.01259
2484.56757,0.01272
2482.50740,0.01250
2480.44723,0.01249
2478.38706,0.01248
2476.32688,0.01247
2474.26671,0.01305
2472.20654,0.01384
2470.14637,0.01385
2468.08620,0.01328
2466.02602,0.01296
2463.96585,0.01310
2461.90568,0.01337
2459.84551,0.01353
2457.78534,0.01364
2455.72516,0.01367
2453.66499,0.01376
2451.60482,0.01395
2449.54465,0.01375
2447.48447,0.01321
2445.42430,0.01293
2443.36413,0.01302
2441.30396,0.01308
2439.24379,0.01300
2437.18361,0.01297
2435.12344,0.01291
2433.06327,0.01290
2431.00310,0.01312
2428.94293,0.01337
2426.88275,0.01355
2424.82258,0.01373
2422.76241,0.01387
2420.70224,0.01387
2418.64207,0.01363
2416.58189,0.01333
2414.52172,0.01316
2412.46155,0.01307
2410.40138,0.01313
2408.34120,0.01324
2406.28103,0.01316
2404.22086,0.01299
2402.16069,0.01296
2400.10052,0.01300
2398.04034,0.01283
2395.98017,0.01291
2393.92000,0.01313
2391.85983,0.01316
2389.79966,0.01300
2387.73948,0.01289
2385.67931,0.01276
2383.61914,0.01269
2381.55897,0.01294
2379.49880,0.01312
2377.43862,0.01270
2375.37845,0.01253
2373.31828,0.01228
2371.25811,0.01280
2369.19793,0.01474
2367.13776,0.01543
2365.07759,0.01460
2363.01742,0.01587
2360.95725,0.01390
2358.89707,0.01310
2356.83690,0.01380
2354.77673,0.01520
2352.71656,0.01575
2350.65639,0.01100
2348.59621,0.00778
2346.53604,0.01483
2344.47587,0.01488
2342.41570,0.01228
2340.35552,0.01090
2338.29535,0.01015
2336.23518,0.01060
2334.17501,0.01116
2332.11484,0.01202
2330.05466,0.01262
2327.99449,0.01419
2325.93432,0.01384
2323.87415,0.01435
2321.81398,0.01430
2319.75380,0.01471
2317.69363,0.01311
2315.63346,0.01200
2313.57329,0.01158
2311.51312,0.01107
2309.45294,0.01118
2307.39277,0.01176
2305.33260,0.01227
2303.27243,0.01250
2301.21225,0.01283
2299.15208,0.01268
2297.09191,0.01241
2295.03174,0.01224
2292.97157,0.01195
2290.91139,0.01181
2288.85122,0.01168
2286.79105,0.01114
2284.73088,0.01048
2282.67071,0.01042
2280.61053,0.01100
2278.55036,0.01144
2276.49019,0.01129
2274.43002,0.01071
2272.36984,0.01015
2270.30967,0.00961
2268.24950,0.00923
2266.18933,0.00926
2264.12916,0.00937
2262.06898,0.00916
2260.00881,0.00895
2257.94864,0.00884
2255.88847,0.00893
2253.82830,0.00937
2251.76812,0.00996
2249.70795,0.01028
2247.64778,0.01045
2245.58761,0.01054
2243.52744,0.01001
2241.46726,0.00907
2239.40709,0.00885
2237.34692,0.00943
2235.28675,0.00964
2233.22657,0.00890
2231.16640,0.00795
2229.10623,0.00777
2227.04606,0.00834
2224.98589,0.00865
2222.92571,0.00804
2220.86554,0.00742
2218.80537,0.00775
2216.74520,0.00818
2214.68503,0.00788
2212.62485,0.00732
2210.56468,0.00711
2208.50451,0.00733
2206.44434,0.00734
2204.38417,0.00709
2202.32399,0.00720
2200.26382,0.00771
2198.20365,0.00832
2196.14348,0.00835
2194.08330,0.00756
2192.02313,0.00668
2189.96296,0.00637
2187.90279,0.00627
2185.84262,0.00584
2183.78244,0.00598
2181.72227,0.00706
2179.66210,0.00752
2177.60193,0.00648
2175.54176,0.00523
2173.48158,0.00536
2171.42141,0.00633
2169.36124,0.00685
2167.30107,0.00670
2165.24089,0.00582
2163.18072,0.00489
2161.12055,0.00412
2159.06038,0.00311
2157.00021,0.00263
2154.94003,0.00299
2152.87986,0.00391
2150.81969,0.00448
2148.75952,0.00415
2146.69935,0.00452
2144.63917,0.00584
2142.57900,0.00620
2140.51883,0.00515
2138.45866,0.00368
2136.39849,0.00320
2134.33831,0.00409
2132.27814,0.00514
2130.21797,0.00565
2128.15780,0.00572
2126.09762,0.00564
2124.03745,0.00564
2121.97728,0.00590
2119.91711,0.00615
2117.85694,0.00625
2115.79676,0.00674
2113.73659,0.00712
2111.67642,0.00650
2109.61625,0.00559
2107.55608,0.00517
2105.49590,0.00490
2103.43573,0.00494
2101.37556,0.00552
2099.31539,0.00570
2097.25521,0.00523
2095.19504,0.00494
2093.13487,0.00527
2091.07470,0.00585
2089.01453,0.00627
2086.95435,0.00628
2084.89418,0.00591
2082.83401,0.00545
2080.77384,0.00510
2078.71367,0.00488
2076.65349,0.00470
2074.59332,0.00460
2072.53315,0.00459
2070.47298,0.00480
2068.41281,0.00522
2066.35263,0.00496
2064.29246,0.00394
2062.23229,0.00336
2060.17212,0.00348
2058.11194,0.00365
2056.05177,0.00369
2053.99160,0.00381
2051.93143,0.00378
2049.87126,0.00348
2047.81108,0.00325
2045.75091,0.00335
2043.69074,0.00350
2041.63057,0.00316
2039.57040,0.00222
2037.51022,0.00131
2035.45005,0.00120
2033.38988,0.00149
2031.32971,0.00153
2029.26954,0.00196
2027.20936,0.00276
2025.14919,0.00276
2023.08902,0.00196
2021.02885,0.00096
2018.96867,0.00000
2016.90850,0.00012
2014.84833,0.00172
2012.78816,0.00314
2010.72799,0.00336
2008.66781,0.00305
2006.60764,0.00290
2004.54747,0.00232
2002.48730,0.00173
2000.42713,0.00200
1998.36695,0.00271
1996.30678,0.00377
1994.24661,0.00431
1992.18644,0.00347
1990.12626,0.00262
1988.06609,0.00232
1986.00592,0.00241
1983.94575,0.00338
1981.88558,0.00474
1979.82540,0.00469
1977.76523,0.00300
1975.70506,0.00131
1973.64489,0.00067
1971.58472,0.00130
1969.52454,0.00220
1967.46437,0.00242
1965.40420,0.00236
1963.34403,0.00185
1961.28386,0.00118
1959.22368,0.00156
1957.16351,0.00286
1955.10334,0.00345
1953.04317,0.00272
1950.98299,0.00174
1948.92282,0.00128
1946.86265,0.00157
1944.80248,0.00209
1942.74231,0.00213
1940.68213,0.00233
1938.62196,0.00260
1936.56179,0.00233
1934.50162,0.00181
1932.44145,0.00181
1930.38127,0.00223
1928.32110,0.00226
1926.26093,0.00186
1924.20076,0.00158
1922.14059,0.00203
1920.08041,0.00241
1918.02024,0.00213
1915.96007,0.00205
1913.89990,0.00167
1911.83972,0.00111
1909.77955,0.00114
1907.71938,0.00174
1905.65921,0.00209
1903.59904,0.00199
1901.53886,0.00192
1899.47869,0.00190
1897.41852,0.00168
1895.35835,0.00162
1893.29818,0.00202
1891.23800,0.00189
1889.17783,0.00149
1887.11766,0.00167
1885.05749,0.00192
1882.99731,0.00223
1880.93714,0.00242
1878.87697,0.00225
1876.81680,0.00195
1874.75663,0.00190
1872.69645,0.00210
1870.63628,0.00183
1868.57611,0.00153
1866.51594,0.00215
1864.45577,0.00280
1862.39559,0.00295
1860.33542,0.00296
1858.27525,0.00294
1856.21508,0.00280
1854.15491,0.00264
1852.09473,0.00268
1850.03456,0.00289
1847.97439,0.00293
1845.91422,0.00228
1843.85404,0.00183
1841.79387,0.00269
1839.73370,0.00323
1837.67353,0.00304
1835.61336,0.00297
1833.55318,0.00285
1831.49301,0.00211
1829.43284,0.00180
1827.37267,0.00229
1825.31250,0.00241
1823.25232,0.00275
1821.19215,0.00296
1819.13198,0.00255
1817.07181,0.00224
1815.01163,0.00240
1812.95146,0.00253
1810.89129,0.00262
1808.83112,0.00290
1806.77095,0.00306
1804.71077,0.00307
1802.65060,0.00289
1800.59043,0.00273
1798.53026,0.00308
1796.47009,0.00347
1794.40991,0.00309
1792.34974,0.00254
1790.28957,0.00326
1788.22940,0.00393
1786.16923,0.00370
1784.10905,0.00358
1782.04888,0.00352
1779.98871,0.00349
1777.92854,0.00401
1775.86836,0.00427
1773.80819,0.00356
1771.74802,0.00313
1769.68785,0.00367
1767.62768,0.00415
1765.56750,0.00476
1763.50733,0.00472
1761.44716,0.00457
1759.38699,0.00491
1757.32682,0.00496
1755.26664,0.00559
1753.20647,0.00587
1751.14630,0.00528
1749.08613,0.00554
1747.02596,0.00642
1744.96578,0.00682
1742.90561,0.00677
1740.84544,0.00671
1738.78527,0.00747
1736.72509,0.00764
1734.66492,0.00610
1732.60475,0.00647
1730.54458,0.00777
1728.48441,0.00814
1726.42423,0.00826
1724.36406,0.00834
1722.30389,0.00889
1720.24372,0.00873
1718.18355,0.00751
1716.12337,0.00782
1714.06320,0.00929
1712.00303,0.01027
1709.94286,0.01050
1707.88268,0.01020
1705.82251,0.01029
1703.76234,0.01126
1701.70217,0.01089
1699.64200,0.01083
1697.58182,0.01186
1695.52165,0.01211
1693.46148,0.01327
1691.40131,0.01375
1689.34114,0.01393
1687.28096,0.01410
1685.22079,0.01293
1683.16062,0.01375
1681.10045,0.01627
1679.04028,0.01707
1676.98010,0.01638
1674.91993,0.01638
1672.85976,0.01755
1670.79959,0.01723
1668.73941,0.01730
1666.67924,0.01890
1664.61907,0.01904
1662.55890,0.01851
1660.49873,0.01961
1658.43855,0.02092
1656.37838,0.02026
1654.31821,0.01770
1652.25804,0.01893
1650.19787,0.02227
1648.13769,0.02118
1646.07752,0.01961
1644.01735,0.02054
1641.95718,0.02117
1639.89701,0.02087
1637.83683,0.01944
1635.77666,0.01809
1633.71649,0.01949
1631.65632,0.02061
1629.59614,0.01985
1627.53597,0.01941
1625.47580,0.01945
1623.41563,0.01931
1621.35546,0.02007
1619.29528,0.01981
1617.23511,0.01807
1615.17494,0.01820
1613.11477,0.01902
1611.05460,0.01853
1608.99442,0.01778
1606.93425,0.01752
1604.87408,0.01733
1602.81391,0.01694
1600.75373,0.01663
1598.69356,0.01625
1596.63339,0.01554
1594.57322,0.01473
1592.51305,0.01407
1590.45287,0.01348
1588.39270,0.01292
1586.33253,0.01239
1584.27236,0.01183
1582.21219,0.01146
1580.15201,0.01112
1578.09184,0.00969
1576.03167,0.00856
1573.97150,0.00981
1571.91133,0.00978
1569.85115,0.00808
1567.79098,0.00805
1565.73081,0.00862
1563.67064,0.00907
1561.61046,0.00781
1559.55029,0.00452
1557.49012,0.00538
1555.42995,0.00716
1553.36978,0.00693
1551.30960,0.00613
1549.24943,0.00581
1547.18926,0.00608
1545.12909,0.00574
1543.06892,0.00466
1541.00874,0.00283
1538.94857,0.00332
1536.88840,0.00529
1534.82823,0.00418
1532.76805,0.00283
1530.70788,0.00358
1528.64771,0.00359
1526.58754,0.00323
1524.52737,0.00333
1522.46719,0.00260
1520.40702,0.00248
1518.34685,0.00267
1516.28668,0.00243
1514.22651,0.00300
1512.16633,0.00334
1510.10616,0.00250
1508.04599,0.00015
1505.98582,0.00000
1503.92565,0.00256
1501.86547,0.00318
1499.80530,0.00193
1497.74513,0.00098
1495.68496,0.00165
1493.62478,0.00262
1491.56461,0.00173
1489.50444,0.00059
1487.44427,0.00109
1485.38410,0.00191
1483.32392,0.00195
1481.26375,0.00179
1479.20358,0.00207
1477.14341,0.00214
1475.08324,0.00179
1473.02306,0.00159
1470.96289,0.00289
1468.90272,0.00417
1466.84255,0.00360
1464.78238,0.00309
1462.72220,0.00431
1460.66203,0.00472
1458.60186,0.00307
1456.54169,0.00266
1454.48151,0.00451
1452.42134,0.00525
1450.36117,0.00474
1448.30100,0.00411
1446.24083,0.00414
1444.18065,0.00435
1442.12048,0.00442
1440.06031,0.00433
1438.00014,0.00339
1435.93997,0.00320
1433.87979,0.00431
1431.81962,0.00434
1429.75945,0.00402
1427.69928,0.00452
1425.63910,0.00491
1423.57893,0.00531
1421.51876,0.00547
1419.45859,0.00493
1417.39842,0.00543
1415.33824,0.00601
1413.27807,0.00560
1411.21790,0.00519
1409.15773,0.00520
1407.09756,0.00491
1405.03738,0.00450
1402.97721,0.00484
1400.91704,0.00495
1398.85687,0.00461
1396.79670,0.00436
1394.73652,0.00405
1392.67635,0.00444
1390.61618,0.00465
1388.55601,0.00401
1386.49583,0.00388
1384.43566,0.00446
1382.37549,0.00469
1380.31532,0.00480
1378.25515,0.00506
1376.19497,0.00499
1374.13480,0.00471
1372.07463,0.00486
1370.01446,0.00484
1367.95429,0.00471
1365.89411,0.00464
1363.83394,0.00406
1361.77377,0.00375
1359.71360,0.00401
1357.65343,0.00402
1355.59325,0.00379
1353.53308,0.00360
1351.47291,0.00343
1349.41274,0.00329
1347.35256,0.00322
1345.29239,0.00320
1343.23222,0.00319
1341.17205,0.00293
1339.11188,0.00282
1337.05170,0.00329
1334.99153,0.00353
1332.93136,0.00329
1330.87119,0.00302
1328.81102,0.00296
1326.75084,0.00294
1324.69067,0.00289
1322.63050,0.00285
1320.57033,0.00276
1318.51015,0.00278
1316.44998,0.00286
1314.38981,0.00275
1312.32964,0.00269
1310.26947,0.00280
1308.20929,0.00285
1306.14912,0.00288
1304.08895,0.00293
1302.02878,0.00299
1299.96861,0.00305
1297.90843,0.00314
1295.84826,0.00322
1293.78809,0.00321
1291.72792,0.00328
1289.66775,0.00353
1287.60757,0.00379
1285.54740,0.00394
1283.48723,0.00395
1281.42706,0.00389
1279.36688,0.00385
1277.30671,0.00387
1275.24654,0.00389
1273.18637,0.00391
1271.12620,0.00398
1269.06602,0.00413
1267.00585,0.00428
1264.94568,0.00423
1262.88551,0.00404
1260.82534,0.00397
1258.76516,0.00404
1256.70499,0.00398
1254.64482,0.00379
1252.58465,0.00363
1250.52447,0.00354
1248.46430,0.00342
1246.40413,0.00318
1244.34396,0.00298
1242.28379,0.00291
1240.22361,0.00287
1238.16344,0.00273
1236.10327,0.00254
1234.04310,0.00242
1231.98293,0.00239
1229.92275,0.00234
1227.86258,0.00220
1225.80241,0.00204
1223.74224,0.00184
1221.68207,0.00162
1219.62189,0.00144
1217.56172,0.00128
1215.50155,0.00101
1213.44138,0.00062
1211.38120,0.00025
1209.32103,0.00006
1207.26086,0.00000
1205.20069,0.00002
1203.14052,0.00017
1201.08034,0.00040
1199.02017,0.00070
1196.96000,0.00105
1194.89983,0.00141
1192.83966,0.00177
1190.77948,0.00217
1188.71931,0.00275
1186.65914,0.00347
1184.59897,0.00422
1182.53880,0.00509
1180.47862,0.00604
1178.41845,0.00704
1176.35828,0.00818
1174.29811,0.00949
1172.23793,0.01079
1170.17776,0.01205
1168.11759,0.01330
1166.05742,0.01439
1163.99725,0.01532
1161.93707,0.01639
1159.87690,0.01753
1157.81673,0.01840
1155.75656,0.01921
1153.69639,0.02027
1151.63621,0.02136
1149.57604,0.02242
1147.51587,0.02363
1145.45570,0.02497
1143.39552,0.02642
1141.33535,0.02790
1139.27518,0.02927
1137.21501,0.03064
1135.15484,0.03216
1133.09466,0.03374
1131.03449,0.03521
1128.97432,0.03649
1126.91415,0.03759
1124.85398,0.03873
1122.79380,0.04006
1120.73363,0.04150
1118.67346,0.04291
1116.61329,0.04429
1114.55312,0.04581
1112.49294,0.04737
1110.43277,0.04884
1108.37260,0.05025
1106.31243,0.05169
1104.25225,0.05322
1102.19208,0.05484
1100.13191,0.05659
1098.07174,0.05832
1096.01157,0.06004
1093.95139,0.06177
1091.89122,0.06326
1089.83105,0.06457
1087.77088,0.06595
1085.71071,0.06732
1083.65053,0.06864
1081.59036,0.07002
1079.53019,0.07144
1077.47002,0.07270
1075.40985,0.07362
1073.34967,0.07437
1071.28950,0.07531
1069.22933,0.07613
1067.16916,0.07639
1065.10898,0.07624
1063.04881,0.07599
1060.98864,0.07578
1058.92847,0.07554
1056.86830,0.07516
1054.80812,0.07473
1052.74795,0.07429
1050.68778,0.07373
1048.62761,0.07318
1046.56744,0.07262
1044.50726,0.07161
1042.44709,0.07020
1040.38692,0.06879
1038.32675,0.06743
1036.26657,0.06602
1034.20640,0.06439
1032.14623,0.06266
1030.08606,0.06119
1028.02589,0.05986
1025.96571,0.05851
1023.90554,0.05733
1021.84537,0.05631
1019.78520,0.05522
1017.72503,0.05400
1015.66485,0.05259
1013.60468,0.05119
1011.54451,0.05012
1009.48434,0.04940
1007.42417,0.04890
1005.36399,0.04838
1003.30382,0.04785
1001.24365,0.04749
999.18348,0.04757
997.12330,0.04828
995.06313,0.04921
993.00296,0.04998
990.94279,0.05088
988.88262,0.05187
986.82244,0.05244
984.76227,0.05256
982.70210,0.05248
980.64193,0.05219
978.58176,0.05131
976.52158,0.04973
974.46141,0.04812
972.40124,0.04657
970.34107,0.04484
968.28089,0.04310
966.22072,0.04133
964.16055,0.03924
962.10038,0.03703
960.04021,0.03522
957.98003,0.03370
955.91986,0.03219
953.85969,0.03099
951.79952,0.03026
949.73935,0.02963
947.67917,0.02891
945.61900,0.02835
943.55883,0.02809
941.49866,0.02805
939.43849,0.02807
937.37831,0.02809
935.31814,0.02808
933.25797,0.02796
931.19780,0.02764
929.13762,0.02715
927.07745,0.02692
925.01728,0.02697
922.95711,0.02667
920.89694,0.02602
918.83676,0.02538
916.77659,0.02460
914.71642,0.02341
912.65625,0.02213
910.59608,0.02135
908.53590,0.02109
906.47573,0.02101
904.41556,0.02076
902.35539,0.02047
900.29522,0.02054
898.23504,0.02063
896.17487,0.02054
894.11470,0.02058
892.05453,0.02070
889.99435,0.02069
887.93418,0.02083
885.87401,0.02144
883.81384,0.02217
881.75367,0.02269
879.69349,0.02310
877.63332,0.02341
875.57315,0.02376
873.51298,0.02424
871.45281,0.02482
869.39263,0.02539
867.33246,0.02567
865.27229,0.02572
863.21212,0.02565
861.15194,0.02553
859.09177,0.02545
857.03160,0.02529
854.97143,0.02493
852.91126,0.02451
850.85108,0.02390
848.79091,0.02312
846.73074,0.02255
844.67057,0.02195
842.61040,0.02125
840.55022,0.02057
838.49005,0.01967
836.42988,0.01861
834.36971,0.01780
832.30954,0.01731
830.24936,0.01671
828.18919,0.01589
826.12902,0.01520
824.06885,0.01486
822.00867,0.01465
819.94850,0.01410
817.88833,0.01330
815.82816,0.01290
813.76799,0.01283
811.70781,0.01232
809.64764,0.01168
807.58747,0.01161
805.52730,0.01169
803.46713,0.01134
801.40695,0.01079
799.34678,0.01036
797.28661,0.00993
795.22644,0.00945
793.16627,0.00927
791.10609,0.00928
789.04592,0.00915
786.98575,0.00921
784.92558,0.00943
782.86540,0.00929
780.80523,0.00913
778.74506,0.00922
776.68489,0.00909
774.62472,0.00881
772.56454,0.00866
770.50437,0.00899
768.44420,0.00950
766.38403,0.00949
764.32386,0.00940
762.26368,0.00930
760.20351,0.00885
758.14334,0.00836
756.08317,0.00816
754.02299,0.00822
751.96282,0.00827
749.90265,0.00806
747.84248,0.00796
745.78231,0.00804
743.72213,0.00788
741.66196,0.00746
739.60179,0.00712
737.54162,0.00679
735.48145,0.00630
733.42127,0.00618
731.36110,0.00647
729.30093,0.00672
727.24076,0.00691
725.18059,0.00710
723.12041,0.00705
721.06024,0.00787
719.00007,0.00752
716.93990,0.00748
714.87972,0.00803
712.81955,0.00807
710.75938,0.00744
708.69921,0.00686
706.63904,0.00692
704.57886,0.00756
702.51869,0.00822
700.45852,0.00833
698.39835,0.00806
696.33818,0.00782
694.27800,0.00741
692.21783,0.00675
690.15766,0.00643
688.09749,0.00684
686.03731,0.00732
683.97714,0.00707
681.91697,0.00650
679.85680,0.00625
677.79663,0.00620
675.73645,0.00613
673.67628,0.00418
671.61611,0.00000
669.55594,0.00660
667.49577,0.01683
665.43559,0.00251
663.37542,0.00310
661.31525,0.00544
659.25508,0.00530
657.19491,0.00504
655.13473,0.00487
653.07456,0.00475
651.01439,0.00548
648.95422,0.00669
646.89404,0.00627
644.83387,0.00557
642.77370,0.00511
640.71353,0.00448
638.65336,0.00341
636.59318,0.00316
634.53301,0.00420
632.47284,0.00493
630.41267,0.00456
628.35250,0.00458
626.29232,0.00567
624.23215,0.00537
622.17198,0.00327
620.11181,0.00267
618.05164,0.00530
615.99146,0.00857
613.93129,0.00748
611.87112,0.00311
609.81095,0.00137
607.75077,0.00280
605.69060,0.00311
603.63043,0.00149
601.57026,0.00039
599.51009,0.00000
