3996.73391,0.00035
3994.67373,0.00020
3992.61356,0.00019
3990.55339,0.00018
3988.49322,0.00008
3986.43305,0.00000
3984.37287,0.00000
3982.31270,0.00010
3980.25253,0.00027
3978.19236,0.00045
3976.13219,0.00046
3974.07201,0.00031
3972.01184,0.00020
3969.95167,0.00021
3967.89150,0.00024
3965.83133,0.00023
3963.77115,0.00028
3961.71098,0.00036
3959.65081,0.00031
3957.59064,0.00016
3955.53046,0.00013
3953.47029,0.00020
3951.41012,0.00028
3949.34995,0.00032
3947.28978,0.00041
3945.22960,0.00052
3943.16943,0.00047
3941.10926,0.00027
3939.04909,0.00025
3936.98892,0.00034
3934.92874,0.00026
3932.86857,0.00020
3930.80840,0.00039
3928.74823,0.00050
3926.68805,0.00043
3924.62788,0.00047
3922.56771,0.00063
3920.50754,0.00065
3918.44737,0.00052
3916.38719,0.00041
3914.32702,0.00041
3912.26685,0.00046
3910.20668,0.00037
3908.14651,0.00013
3906.08633,0.00004
3904.02616,0.00013
3901.96599,0.00015
3899.90582,0.00017
3897.84565,0.00028
3895.78547,0.00032
3893.72530,0.00032
3891.66513,0.00042
3889.60496,0.00061
3887.54478,0.00071
3885.48461,0.00058
3883.42444,0.00045
3881.36427,0.00054
3879.30410,0.00059
3877.24392,0.00060
3875.18375,0.00081
3873.12358,0.00104
3871.06341,0.00113
3869.00324,0.00097
3866.94306,0.00053
3864.88289,0.00016
3862.82272,0.00014
3860.76255,0.00036
3858.70237,0.00069
3856.64220,0.00127
3854.58203,0.00198
3852.52186,0.00216
3850.46169,0.00161
3848.40151,0.00114
3846.34134,0.00111
3844.28117,0.00128
3842.22100,0.00131
3840.16083,0.00118
3838.10065,0.00112
3836.04048,0.00118
3833.98031,0.00127
3831.92014,0.00120
3829.85997,0.00096
3827.79979,0.00080
3825.73962,0.00094
3823.67945,0.00109
3821.61928,0.00077
3819.55910,0.00044
3817.49893,0.00065
3815.43876,0.00087
3813.37859,0.00090
3811.31842,0.00114
3809.25824,0.00148
3807.19807,0.00152
3805.13790,0.00114
3803.07773,0.00071
3801.01756,0.00062
3798.95738,0.00091
3796.89721,0.00108
3794.83704,0.00086
3792.77687,0.00055
3790.71670,0.00033
3788.65652,0.00030
3786.59635,0.00063
3784.53618,0.00113
3782.47601,0.00129
3780.41583,0.00116
3778.35566,0.00114
3776.29549,0.00128
3774.23532,0.00147
3772.17515,0.00158
3770.11497,0.00142
3768.05480,0.00111
3765.99463,0.00103
3763.93446,0.00131
3761.87429,0.00163
3759.81411,0.00161
3757.75394,0.00133
3755.69377,0.00117
3753.63360,0.00109
3751.57342,0.00077
3749.51325,0.00059
3747.45308,0.00117
3745.39291,0.00169
3743.33274,0.00128
3741.27256,0.00081
3739.21239,0.00099
3737.15222,0.00109
3735.09205,0.00054
3733.03188,0.00005
3730.97170,0.00030
3728.91153,0.00101
3726.85136,0.00172
3724.79119,0.00216
3722.73102,0.00225
3720.67084,0.00196
3718.61067,0.00149
3716.55050,0.00122
3714.49033,0.00123
3712.43015,0.00124
3710.36998,0.00113
3708.30981,0.00113
3706.24964,0.00139
3704.18947,0.00155
3702.12929,0.00144
3700.06912,0.00153
3698.00895,0.00202
3695.94878,0.00230
3693.88861,0.00209
3691.82843,0.00167
3689.76826,0.00141
3687.70809,0.00159
3685.64792,0.00202
3683.58775,0.00250
3681.52757,0.00288
3679.46740,0.00296
3677.40723,0.00278
3675.34706,0.00266
3673.28688,0.00272
3671.22671,0.00283
3669.16654,0.00296
3667.10637,0.00315
3665.04620,0.00342
3662.98602,0.00373
3660.92585,0.00377
3658.86568,0.00348
3656.80551,0.00340
3654.74534,0.00375
3652.68516,0.00406
3650.62499,0.00407
3648.56482,0.00419
3646.50465,0.00476
3644.44447,0.00545
3642.38430,0.00604
3640.32413,0.00644
3638.26396,0.00661
3636.20379,0.00672
3634.14361,0.00699
3632.08344,0.00734
3630.02327,0.00762
3627.96310,0.00787
3625.90293,0.00826
3623.84275,0.00868
3621.78258,0.00891
3619.72241,0.00886
3617.66224,0.00875
3615.60207,0.00886
3613.54189,0.00926
3611.48172,0.00974
3609.42155,0.01009
3607.36138,0.01057
3605.30120,0.01136
3603.24103,0.01190
3601.18086,0.01191
3599.12069,0.01192
3597.06052,0.01230
3595.00034,0.01272
3592.94017,0.01306
3590.88000,0.01353
3588.81983,0.01395
3586.75966,0.01416
3584.69948,0.01446
3582.63931,0.01488
3580.57914,0.01525
3578.51897,0.01576
3576.45879,0.01648
3574.39862,0.01694
3572.33845,0.01694
3570.27828,0.01683
3568.21811,0.01674
3566.15793,0.01685
3564.09776,0.01749
3562.03759,0.01835
3559.97742,0.01907
3557.91725,0.01966
3555.85707,0.02011
3553.79690,0.02037
3551.73673,0.02050
3549.67656,0.02066
3547.61639,0.02081
3545.55621,0.02082
3543.49604,0.02098
3541.43587,0.02151
3539.37570,0.02197
3537.31552,0.02216
3535.25535,0.02237
3533.19518,0.02286
3531.13501,0.02345
3529.07484,0.02399
3527.01466,0.02448
3524.95449,0.02475
3522.89432,0.02487
3520.83415,0.02516
3518.77398,0.02564
3516.71380,0.02605
3514.65363,0.02633
3512.59346,0.02665
3510.53329,0.02699
3508.47312,0.02727
3506.41294,0.02751
3504.35277,0.02755
3502.29260,0.02742
3500.23243,0.02763
3498.17225,0.02834
3496.11208,0.02900
3494.05191,0.02935
3491.99174,0.02959
3489.93157,0.02987
3487.87139,0.03015
3485.81122,0.03037
3483.75105,0.03054
3481.69088,0.03065
3479.63071,0.03073
3477.57053,0.03094
3475.51036,0.03147
3473.45019,0.03213
3471.39002,0.03249
3469.32984,0.03265
3467.26967,0.03297
3465.20950,0.03329
3463.14933,0.03335
3461.08916,0.03333
3459.02898,0.03346
3456.96881,0.03366
3454.90864,0.03380
3452.84847,0.03391
3450.78830,0.03399
3448.72812,0.03421
3446.66795,0.03459
3444.60778,0.03484
3442.54761,0.03502
3440.48744,0.03528
3438.42726,0.03553
3436.36709,0.03573
3434.30692,0.03588
3432.24675,0.03598
3430.18657,0.03600
3428.12640,0.03605
3426.06623,0.03639
3424.00606,0.03696
3421.94589,0.03726
3419.88571,0.03716
3417.82554,0.03722
3415.76537,0.03762
3413.70520,0.03793
3411.64503,0.03802
3409.58485,0.03816
3407.52468,0.03831
3405.46451,0.03842
3403.40434,0.03847
3401.34416,0.03857
3399.28399,0.03885
3397.22382,0.03901
3395.16365,0.03887
3393.10348,0.03862
3391.04330,0.03874
3388.98313,0.03935
3386.92296,0.04000
3384.86279,0.04018
3382.80262,0.03996
3380.74244,0.03977
3378.68227,0.03982
3376.62210,0.03998
3374.56193,0.04007
3372.50176,0.04018
3370.44158,0.04041
3368.38141,0.04065
3366.32124,0.04075
3364.26107,0.04075
3362.20089,0.04081
3360.14072,0.04082
3358.08055,0.04073
3356.02038,0.04076
3353.96021,0.04090
3351.90003,0.04098
3349.83986,0.04095
3347.77969,0.04087
3345.71952,0.04081
3343.65935,0.04077
3341.59917,0.04085
3339.53900,0.04110
3337.47883,0.04140
3335.41866,0.04157
3333.35849,0.04165
3331.29831,0.04177
3329.23814,0.04190
3327.17797,0.04186
3325.11780,0.04151
3323.05762,0.04123
3320.99745,0.04139
3318.93728,0.04170
3316.87711,0.04192
3314.81694,0.04212
3312.75676,0.04217
3310.69659,0.04205
3308.63642,0.04199
3306.57625,0.04202
3304.51608,0.04198
3302.45590,0.04180
3300.39573,0.04167
3298.33556,0.04176
3296.27539,0.04191
3294.21521,0.04190
3292.15504,0.04187
3290.09487,0.04204
3288.03470,0.04223
3285.97453,0.04222
3283.91435,0.04207
3281.85418,0.04203
3279.79401,0.04218
3277.73384,0.04246
3275.67367,0.04270
3273.61349,0.04259
3271.55332,0.04224
3269.49315,0.04216
3267.43298,0.04235
3265.37281,0.04241
3263.31263,0.04218
3261.25246,0.04196
3259.19229,0.04201
3257.13212,0.04224
3255.07194,0.04233
3253.01177,0.04215
3250.95160,0.04199
3248.89143,0.04201
3246.83126,0.04194
3244.77108,0.04185
3242.71091,0.04192
3240.65074,0.04194
3238.59057,0.04196
3236.53040,0.04211
3234.47022,0.04220
3232.41005,0.04213
3230.34988,0.04199
3228.28971,0.04191
3226.22954,0.04191
3224.16936,0.04179
3222.10919,0.04152
3220.04902,0.04129
3217.98885,0.04124
3215.92867,0.04134
3213.86850,0.04144
3211.80833,0.04143
3209.74816,0.04142
3207.68799,0.04151
3205.62781,0.04148
3203.56764,0.04113
3201.50747,0.04076
3199.44730,0.04071
3197.38713,0.04066
3195.32695,0.04032
3193.26678,0.04009
3191.20661,0.04020
3189.14644,0.04034
3187.08626,0.04037
3185.02609,0.04024
3182.96592,0.03984
3180.90575,0.03935
3178.84558,0.03912
3176.78540,0.03917
3174.72523,0.03925
3172.66506,0.03919
3170.60489,0.03906
3168.54472,0.03908
3166.48454,0.03913
3164.42437,0.03906
3162.36420,0.03897
3160.30403,0.03882
3158.24386,0.03858
3156.18368,0.03852
3154.12351,0.03858
3152.06334,0.03846
3150.00317,0.03813
3147.94299,0.03786
3145.88282,0.03771
3143.82265,0.03750
3141.76248,0.03716
3139.70231,0.03694
3137.64213,0.03691
3135.58196,0.03683
3133.52179,0.03654
3131.46162,0.03620
3129.40145,0.03604
3127.34127,0.03610
3125.28110,0.03617
3123.22093,0.03603
3121.16076,0.03576
3119.10058,0.03558
3117.04041,0.03556
3114.98024,0.03554
3112.92007,0.03540
3110.85990,0.03524
3108.79972,0.03509
3106.73955,0.03488
3104.67938,0.03461
3102.61921,0.03440
3100.55904,0.03429
3098.49886,0.03408
3096.43869,0.03375
3094.37852,0.03359
3092.31835,0.03358
3090.25818,0.03366
3088.19800,0.03367
3086.13783,0.03344
3084.07766,0.03314
3082.01749,0.03289
3079.95731,0.03267
3077.89714,0.03255
3075.83697,0.03245
3073.77680,0.03230
3071.71663,0.03218
3069.65645,0.03205
3067.59628,0.03180
3065.53611,0.03139
3063.47594,0.03100
3061.41577,0.03085
3059.35559,0.03083
3057.29542,0.03083
3055.23525,0.03083
3053.17508,0.03060
3051.11491,0.03022
3049.05473,0.03000
3046.99456,0.02990
3044.93439,0.02970
3042.87422,0.02940
3040.81404,0.02910
3038.75387,0.02888
3036.69370,0.02873
3034.63353,0.02862
3032.57336,0.02856
3030.51318,0.02848
3028.45301,0.02832
3026.39284,0.02814
3024.33267,0.02794
3022.27250,0.02774
3020.21232,0.02767
3018.15215,0.02765
3016.09198,0.02748
3014.03181,0.02722
3011.97163,0.02698
3009.91146,0.02673
3007.85129,0.02647
3005.79112,0.02630
3003.73095,0.02617
3001.67077,0.02596
2999.61060,0.02570
2997.55043,0.02556
2995.49026,0.02547
2993.43009,0.02542
2991.36991,0.02546
2989.30974,0.02544
2987.24957,0.02530
2985.18940,0.02521
2983.12923,0.02519
2981.06905,0.02517
2979.00888,0.02502
2976.94871,0.02489
2974.88854,0.02493
2972.82836,0.02495
2970.76819,0.02486
2968.70802,0.02483
2966.64785,0.02489
2964.58768,0.02480
2962.52750,0.02463
2960.46733,0.02463
2958.40716,0.02461
2956.34699,0.02453
2954.28682,0.02464
2952.22664,0.02478
2950.16647,0.02475
2948.10630,0.02475
2946.04613,0.02486
2943.98596,0.02491
2941.92578,0.02494
2939.86561,0.02504
2937.80544,0.02497
2935.74527,0.02485
2933.68509,0.02483
2931.62492,0.02473
2929.56475,0.02460
2927.50458,0.02455
2925.44441,0.02454
2923.38423,0.02447
2921.32406,0.02434
2919.26389,0.02428
2917.20372,0.02424
2915.14355,0.02404
2913.08337,0.02388
2911.02320,0.02379
2908.96303,0.02348
2906.90286,0.02309
2904.84268,0.02291
2902.78251,0.02296
2900.72234,0.02297
2898.66217,0.02280
2896.60200,0.02255
2894.54182,0.02238
2892.48165,0.02233
2890.42148,0.02233
2888.36131,0.02228
2886.30114,0.02219
2884.24096,0.02220
2882.18079,0.02237
2880.12062,0.02235
2878.06045,0.02198
2876.00028,0.02175
2873.94010,0.02179
2871.87993,0.02172
2869.81976,0.02146
2867.75959,0.02129
2865.69941,0.02129
2863.63924,0.02131
2861.57907,0.02119
2859.51890,0.02098
2857.45873,0.02082
2855.39855,0.02080
2853.33838,0.02079
2851.27821,0.02067
2849.21804,0.02055
2847.15787,0.02044
2845.09769,0.02022
2843.03752,0.01998
2840.97735,0.01970
2838.91718,0.01939
2836.85700,0.01921
2834.79683,0.01911
2832.73666,0.01901
2830.67649,0.01895
2828.61632,0.01889
2826.55614,0.01877
2824.49597,0.01860
2822.43580,0.01837
2820.37563,0.01818
2818.31546,0.01809
2816.25528,0.01802
2814.19511,0.01806
2812.13494,0.01816
2810.07477,0.01808
2808.01460,0.01791
2805.95442,0.01786
2803.89425,0.01781
2801.83408,0.01769
2799.77391,0.01760
2797.71373,0.01759
2795.65356,0.01757
2793.59339,0.01737
2791.53322,0.01713
2789.47305,0.01704
2787.41287,0.01707
2785.35270,0.01702
2783.29253,0.01684
2781.23236,0.01670
2779.17219,0.01661
2777.11201,0.01638
2775.05184,0.01607
2772.99167,0.01594
2770.93150,0.01601
2768.87133,0.01609
2766.81115,0.01608
2764.75098,0.01591
2762.69081,0.01569
2760.63064,0.01558
2758.57046,0.01552
2756.51029,0.01548
2754.45012,0.01546
2752.38995,0.01539
2750.32978,0.01539
2748.26960,0.01546
2746.20943,0.01546
2744.14926,0.01540
2742.08909,0.01533
2740.02892,0.01529
2737.96874,0.01525
2735.90857,0.01510
2733.84840,0.01492
2731.78823,0.01480
2729.72805,0.01470
2727.66788,0.01457
2725.60771,0.01447
2723.54754,0.01447
2721.48737,0.01450
2719.42719,0.01446
2717.36702,0.01435
2715.30685,0.01430
2713.24668,0.01428
2711.18651,0.01421
2709.12633,0.01417
2707.06616,0.01408
2705.00599,0.01388
2702.94582,0.01374
2700.88565,0.01367
2698.82547,0.01361
2696.76530,0.01350
2694.70513,0.01343
2692.64496,0.01345
2690.58478,0.01346
2688.52461,0.01343
2686.46444,0.01336
2684.40427,0.01323
2682.34410,0.01308
2680.28392,0.01290
2678.22375,0.01273
2676.16358,0.01269
2674.10341,0.01277
2672.04324,0.01275
2669.98306,0.01249
2667.92289,0.01221
2665.86272,0.01217
2663.80255,0.01225
2661.74238,0.01228
2659.68220,0.01224
2657.62203,0.01208
2655.56186,0.01196
2653.50169,0.01200
2651.44151,0.01195
2649.38134,0.01183
2647.32117,0.01180
2645.26100,0.01175
2643.20083,0.01164
2641.14065,0.01154
2639.08048,0.01142
2637.02031,0.01123
2634.96014,0.01109
2632.89997,0.01107
2630.83979,0.01100
2628.77962,0.01078
2626.71945,0.01055
2624.65928,0.01042
2622.59910,0.01035
2620.53893,0.01024
2618.47876,0.01021
2616.41859,0.01034
2614.35842,0.01032
2612.29824,0.01006
2610.23807,0.00993
2608.17790,0.00989
2606.11773,0.00971
2604.05756,0.00963
2601.99738,0.00967
2599.93721,0.00950
2597.87704,0.00923
2595.81687,0.00918
2593.75670,0.00928
2591.69652,0.00938
2589.63635,0.00939
2587.57618,0.00933
2585.51601,0.00931
2583.45583,0.00919
2581.39566,0.00888
2579.33549,0.00865
2577.27532,0.00870
2575.21515,0.00885
2573.15497,0.00884
2571.09480,0.00880
2569.03463,0.00887
2566.97446,0.00905
2564.91429,0.00905
2562.85411,0.00872
2560.79394,0.00842
2558.73377,0.00845
2556.67360,0.00864
2554.61342,0.00875
2552.55325,0.00878
2550.49308,0.00893
2548.43291,0.00901
2546.37274,0.00880
2544.31256,0.00864
2542.25239,0.00869
2540.19222,0.00868
2538.13205,0.00858
2536.07188,0.00850
2534.01170,0.00855
2531.95153,0.00868
2529.89136,0.00870
2527.83119,0.00863
2525.77102,0.00855
2523.71084,0.00850
2521.65067,0.00859
2519.59050,0.00856
2517.53033,0.00815
2515.47015,0.00788
2513.40998,0.00799
2511.34981,0.00804
2509.28964,0.00787
2507.22947,0.00769
2505.16929,0.00781
2503.10912,0.00810
2501.04895,0.00827
2498.98878,0.00836
2496.92861,0.00835
2494.86843,0.00821
2492.80826,0.00833
2490.74809,0.00864
2488.68792,0.00881
2486.62775,0.00884
2484.56757,0.00875
2482.50740,0.00867
2480.44723,0.00868
2478.38706,0.00868
2476.32688,0.00879
2474.26671,0.00890
2472.20654,0.00879
2470.14637,0.00861
2468.08620,0.00853
2466.02602,0.00859
2463.96585,0.00881
2461.90568,0.00896
2459.84551,0.00883
2457.78534,0.00872
2455.72516,0.00897
2453.66499,0.00930
2451.60482,0.00929
2449.54465,0.00901
2447.48447,0.00900
2445.42430,0.00925
2443.36413,0.00923
2441.30396,0.00908
2439.24379,0.00895
2437.18361,0.00876
2435.12344,0.00866
2433.06327,0.00858
2431.00310,0.00844
2428.94293,0.00842
2426.88275,0.00842
2424.82258,0.00831
2422.76241,0.00831
2420.70224,0.00838
2418.64207,0.00828
2416.58189,0.00824
2414.52172,0.00847
2412.46155,0.00868
2410.40138,0.00874
2408.34120,0.00866
2406.28103,0.00856
2404.22086,0.00870
2402.16069,0.00889
2400.10052,0.00888
2398.04034,0.00880
2395.98017,0.00858
2393.92000,0.00819
2391.85983,0.00789
2389.79966,0.00791
2387.73948,0.00818
2385.67931,0.00841
2383.61914,0.00844
2381.55897,0.00837
2379.49880,0.00816
2377.43862,0.00770
2375.37845,0.00737
2373.31828,0.00753
2371.25811,0.00811
2369.19793,0.00821
2367.13776,0.00642
2365.07759,0.00359
2363.01742,0.00229
2360.95725,0.00233
2358.89707,0.00280
2356.83690,0.00406
2354.77673,0.00576
2352.71656,0.00699
2350.65639,0.00748
2348.59621,0.00770
2346.53604,0.00782
2344.47587,0.00758
2342.41570,0.00728
2340.35552,0.00755
2338.29535,0.00818
2336.23518,0.00829
2334.17501,0.00740
2332.11484,0.00630
2330.05466,0.00647
2327.99449,0.00793
2325.93432,0.00908
2323.87415,0.00901
2321.81398,0.00825
2319.75380,0.00778
2317.69363,0.00794
2315.63346,0.00819
2313.57329,0.00806
2311.51312,0.00769
2309.45294,0.00739
2307.39277,0.00736
2305.33260,0.00758
2303.27243,0.00793
2301.21225,0.00828
2299.15208,0.00828
2297.09191,0.00794
2295.03174,0.00765
2292.97157,0.00745
2290.91139,0.00720
2288.85122,0.00724
2286.79105,0.00767
2284.73088,0.00806
2282.67071,0.00803
2280.61053,0.00768
2278.55036,0.00757
2276.49019,0.00783
2274.43002,0.00785
2272.36984,0.00763
2270.30967,0.00770
2268.24950,0.00773
2266.18933,0.00728
2264.12916,0.00681
2262.06898,0.00659
2260.00881,0.00654
2257.94864,0.00672
2255.88847,0.00699
2253.82830,0.00709
2251.76812,0.00695
2249.70795,0.00674
2247.64778,0.00644
2245.58761,0.00584
2243.52744,0.00532
2241.46726,0.00538
2239.40709,0.00563
2237.34692,0.00567
2235.28675,0.00585
2233.22657,0.00623
2231.16640,0.00654
2229.10623,0.00667
2227.04606,0.00632
2224.98589,0.00571
2222.92571,0.00533
2220.86554,0.00520
2218.80537,0.00513
2216.74520,0.00493
2214.68503,0.00496
2212.62485,0.00559
2210.56468,0.00609
2208.50451,0.00553
2206.44434,0.00471
2204.38417,0.00501
2202.32399,0.00590
2200.26382,0.00594
2198.20365,0.00556
2196.14348,0.00577
2194.08330,0.00621
2192.02313,0.00617
2189.96296,0.00548
2187.90279,0.00490
2185.84262,0.00528
2183.78244,0.00541
2181.72227,0.00461
2179.66210,0.00421
2177.60193,0.00434
2175.54176,0.00456
2173.48158,0.00528
2171.42141,0.00595
2169.36124,0.00563
2167.30107,0.00511
2165.24089,0.00517
2163.18072,0.00509
2161.12055,0.00401
2159.06038,0.00282
2157.00021,0.00237
2154.94003,0.00152
2152.87986,0.00039
2150.81969,0.00045
2148.75952,0.00176
2146.69935,0.00316
2144.63917,0.00434
2142.57900,0.00517
2140.51883,0.00518
2138.45866,0.00415
2136.39849,0.00264
2134.33831,0.00228
2132.27814,0.00303
2130.21797,0.00348
2128.15780,0.00332
2126.09762,0.00313
2124.03745,0.00326
2121.97728,0.00369
2119.91711,0.00428
2117.85694,0.00465
2115.79676,0.00449
2113.73659,0.00401
2111.67642,0.00411
2109.61625,0.00491
2107.55608,0.00532
2105.49590,0.00487
2103.43573,0.00431
2101.37556,0.00421
2099.31539,0.00410
2097.25521,0.00397
2095.19504,0.00425
2093.13487,0.00452
2091.07470,0.00457
2089.01453,0.00488
2086.95435,0.00523
2084.89418,0.00513
2082.83401,0.00482
2080.77384,0.00458
2078.71367,0.00413
2076.65349,0.00344
2074.59332,0.00296
2072.53315,0.00302
2070.47298,0.00346
2068.41281,0.00378
2066.35263,0.00371
2064.29246,0.00358
2062.23229,0.00381
2060.17212,0.00439
2058.11194,0.00449
2056.05177,0.00410
2053.99160,0.00420
2051.93143,0.00423
2049.87126,0.00349
2047.81108,0.00288
2045.75091,0.00316
2043.69074,0.00374
2041.63057,0.00357
2039.57040,0.00302
2037.51022,0.00300
2035.45005,0.00290
2033.38988,0.00198
2031.32971,0.00068
2029.26954,0.00037
2027.20936,0.00081
2025.14919,0.00057
2023.08902,0.00054
2021.02885,0.00148
2018.96867,0.00194
2016.90850,0.00209
2014.84833,0.00299
2012.78816,0.00373
2010.72799,0.00378
2008.66781,0.00347
2006.60764,0.00265
2004.54747,0.00151
2002.48730,0.00072
2000.42713,0.00072
1998.36695,0.00120
1996.30678,0.00174
1994.24661,0.00218
1992.18644,0.00271
1990.12626,0.00368
1988.06609,0.00408
1986.00592,0.00325
1983.94575,0.00244
1981.88558,0.00222
1979.82540,0.00170
1977.76523,0.00071
1975.70506,0.00038
1973.64489,0.00078
1971.58472,0.00075
1969.52454,0.00040
1967.46437,0.00033
1965.40420,0.00051
1963.34403,0.00103
1961.28386,0.00198
1959.22368,0.00276
1957.16351,0.00257
1955.10334,0.00162
1953.04317,0.00101
1950.98299,0.00105
1948.92282,0.00101
1946.86265,0.00093
1944.80248,0.00120
1942.74231,0.00150
1940.68213,0.00147
1938.62196,0.00107
1936.56179,0.00064
1934.50162,0.00073
1932.44145,0.00140
1930.38127,0.00207
1928.32110,0.00242
1926.26093,0.00244
1924.20076,0.00209
1922.14059,0.00147
1920.08041,0.00097
1918.02024,0.00088
1915.96007,0.00114
1913.89990,0.00154
1911.83972,0.00188
1909.77955,0.00201
1907.71938,0.00194
1905.65921,0.00180
1903.59904,0.00172
1901.53886,0.00179
1899.47869,0.00184
1897.41852,0.00177
1895.35835,0.00174
1893.29818,0.00181
1891.23800,0.00192
1889.17783,0.00196
1887.11766,0.00192
1885.05749,0.00181
1882.99731,0.00174
1880.93714,0.00182
1878.87697,0.00203
1876.81680,0.00215
1874.75663,0.00206
1872.69645,0.00182
1870.63628,0.00148
1868.57611,0.00115
1866.51594,0.00117
1864.45577,0.00164
1862.39559,0.00213
1860.33542,0.00213
1858.27525,0.00175
1856.21508,0.00153
1854.15491,0.00169
1852.09473,0.00195
1850.03456,0.00199
1847.97439,0.00179
1845.91422,0.00159
1843.85404,0.00157
1841.79387,0.00167
1839.73370,0.00177
1837.67353,0.00189
1835.61336,0.00206
1833.55318,0.00224
1831.49301,0.00225
1829.43284,0.00206
1827.37267,0.00194
1825.31250,0.00194
1823.25232,0.00192
1821.19215,0.00189
1819.13198,0.00195
1817.07181,0.00209
1815.01163,0.00205
1812.95146,0.00177
1810.89129,0.00160
1808.83112,0.00182
1806.77095,0.00210
1804.71077,0.00211
1802.65060,0.00195
1800.59043,0.00183
1798.53026,0.00187
1796.47009,0.00188
1794.40991,0.00178
1792.34974,0.00175
1790.28957,0.00199
1788.22940,0.00222
1786.16923,0.00214
1784.10905,0.00197
1782.04888,0.00196
1779.98871,0.00205
1777.92854,0.00206
1775.86836,0.00196
1773.80819,0.00185
1771.74802,0.00197
1769.68785,0.00228
1767.62768,0.00253
1765.56750,0.00269
1763.50733,0.00275
1761.44716,0.00273
1759.38699,0.00276
1757.32682,0.00289
1755.26664,0.00311
1753.20647,0.00342
1751.14630,0.00361
1749.08613,0.00364
1747.02596,0.00376
1744.96578,0.00406
1742.90561,0.00436
1740.84544,0.00447
1738.78527,0.00451
1736.72509,0.00461
1734.66492,0.00461
1732.60475,0.00471
1730.54458,0.00509
1728.48441,0.00544
1726.42423,0.00556
1724.36406,0.00559
1722.30389,0.00568
1720.24372,0.00573
1718.18355,0.00560
1716.12337,0.00552
1714.06320,0.00588
1712.00303,0.00633
1709.94286,0.00646
1707.88268,0.00627
1705.82251,0.00613
1703.76234,0.00635
1701.70217,0.00665
1699.64200,0.00674
1697.58182,0.00690
1695.52165,0.00738
1693.46148,0.00805
1691.40131,0.00858
1689.34114,0.00885
1687.28096,0.00903
1685.22079,0.00929
1683.16062,0.00977
1681.10045,0.01047
1679.04028,0.01115
1676.98010,0.01169
1674.91993,0.01205
1672.85976,0.01229
1670.79959,0.01253
1668.73941,0.01296
1666.67924,0.01363
1664.61907,0.01428
1662.55890,0.01473
1660.49873,0.01509
1658.43855,0.01547
1656.37838,0.01572
1654.31821,0.01576
1652.25804,0.01588
1650.19787,0.01615
1648.13769,0.01614
1646.07752,0.01596
1644.01735,0.01614
1641.95718,0.01649
1639.89701,0.01665
1637.83683,0.01648
1635.77666,0.01610
1633.71649,0.01603
1631.65632,0.01632
1629.59614,0.01651
1627.53597,0.01643
1625.47580,0.01621
1623.41563,0.01605
1621.35546,0.01619
1619.29528,0.01646
1617.23511,0.01634
1615.17494,0.01587
1613.11477,0.01565
1611.05460,0.01564
1608.99442,0.01558
1606.93425,0.01548
1604.87408,0.01536
1602.81391,0.01514
1600.75373,0.01480
1598.69356,0.01443
1596.63339,0.01407
1594.57322,0.01374
1592.51305,0.01341
1590.45287,0.01292
1588.39270,0.01230
1586.33253,0.01175
1584.27236,0.01131
1582.21219,0.01092
1580.15201,0.01058
1578.09184,0.01013
1576.03167,0.00947
1573.97150,0.00898
1571.91133,0.00874
1569.85115,0.00828
1567.79098,0.00767
1565.73081,0.00736
1563.67064,0.00730
1561.61046,0.00709
1559.55029,0.00636
1557.49012,0.00561
1555.42995,0.00564
1553.36978,0.00586
1551.30960,0.00586
1549.24943,0.00573
1547.18926,0.00561
1545.12909,0.00539
1543.06892,0.00495
1541.00874,0.00447
1538.94857,0.00434
1536.88840,0.00449
1534.82823,0.00452
1532.76805,0.00435
1530.70788,0.00424
1528.64771,0.00413
1526.58754,0.00384
1524.52737,0.00350
1522.46719,0.00316
1520.40702,0.00283
1518.34685,0.00258
1516.28668,0.00248
1514.22651,0.00262
1512.16633,0.00275
1510.10616,0.00248
1508.04599,0.00184
1505.98582,0.00161
1503.92565,0.00209
1501.86547,0.00254
1499.80530,0.00263
1497.74513,0.00253
1495.68496,0.00252
1493.62478,0.00262
1491.56461,0.00255
1489.50444,0.00231
1487.44427,0.00230
1485.38410,0.00256
1483.32392,0.00282
1481.26375,0.00298
1479.20358,0.00307
1477.14341,0.00300
1475.08324,0.00277
1473.02306,0.00273
1470.96289,0.00321
1468.90272,0.00385
1466.84255,0.00418
1464.78238,0.00424
1462.72220,0.00435
1460.66203,0.00450
1458.60186,0.00442
1456.54169,0.00428
1454.48151,0.00457
1452.42134,0.00500
1450.36117,0.00518
1448.30100,0.00515
1446.24083,0.00513
1444.18065,0.00522
1442.12048,0.00530
1440.06031,0.00527
1438.00014,0.00514
1435.93997,0.00507
1433.87979,0.00524
1431.81962,0.00558
1429.75945,0.00589
1427.69928,0.00615
1425.63910,0.00640
1423.57893,0.00658
1421.51876,0.00667
1419.45859,0.00668
1417.39842,0.00675
1415.33824,0.00688
1413.27807,0.00691
1411.21790,0.00688
1409.15773,0.00687
1407.09756,0.00680
1405.03738,0.00656
1402.97721,0.00632
1400.91704,0.00615
1398.85687,0.00590
1396.79670,0.00556
1394.73652,0.00535
1392.67635,0.00549
1390.61618,0.00574
1388.55601,0.00571
1386.49583,0.00555
1384.43566,0.00560
1382.37549,0.00581
1380.31532,0.00593
1378.25515,0.00590
1376.19497,0.00579
1374.13480,0.00568
1372.07463,0.00558
1370.01446,0.00556
1367.95429,0.00562
1365.89411,0.00561
1363.83394,0.00537
1361.77377,0.00502
1359.71360,0.00484
1357.65343,0.00487
1355.59325,0.00488
1353.53308,0.00467
1351.47291,0.00435
1349.41274,0.00416
1347.35256,0.00412
1345.29239,0.00416
1343.23222,0.00420
1341.17205,0.00415
1339.11188,0.00400
1337.05170,0.00390
1334.99153,0.00391
1332.93136,0.00393
1330.87119,0.00391
1328.81102,0.00386
1326.75084,0.00378
1324.69067,0.00374
1322.63050,0.00375
1320.57033,0.00380
1318.51015,0.00381
1316.44998,0.00378
1314.38981,0.00368
1312.32964,0.00351
1310.26947,0.00345
1308.20929,0.00353
1306.14912,0.00361
1304.08895,0.00356
1302.02878,0.00343
1299.96861,0.00336
1297.90843,0.00340
1295.84826,0.00349
1293.78809,0.00353
1291.72792,0.00350
1289.66775,0.00350
1287.60757,0.00354
1285.54740,0.00360
1283.48723,0.00368
1281.42706,0.00375
1279.36688,0.00378
1277.30671,0.00387
1275.24654,0.00401
1273.18637,0.00406
1271.12620,0.00403
1269.06602,0.00402
1267.00585,0.00408
1264.94568,0.00418
1262.88551,0.00427
1260.82534,0.00432
1258.76516,0.00440
1256.70499,0.00450
1254.64482,0.00452
1252.58465,0.00443
1250.52447,0.00424
1248.46430,0.00414
1246.40413,0.00414
1244.34396,0.00399
1242.28379,0.00373
1240.22361,0.00356
1238.16344,0.00339
1236.10327,0.00319
1234.04310,0.00307
1231.98293,0.00300
1229.92275,0.00293
1227.86258,0.00284
1225.80241,0.00271
1223.74224,0.00242
1221.68207,0.00211
1219.62189,0.00199
1217.56172,0.00191
1215.50155,0.00172
1213.44138,0.00147
1211.38120,0.00119
1209.32103,0.00096
1207.26086,0.00079
1205.20069,0.00062
1203.14052,0.00053
1201.08034,0.00050
1199.02017,0.00045
1196.96000,0.00042
1194.89983,0.00057
1192.83966,0.00079
1190.77948,0.00089
1188.71931,0.00090
1186.65914,0.00097
1184.59897,0.00118
1182.53880,0.00152
1180.47862,0.00202
1178.41845,0.00267
1176.35828,0.00324
1174.29811,0.00378
1172.23793,0.00448
1170.17776,0.00522
1168.11759,0.00596
1166.05742,0.00670
1163.99725,0.00729
1161.93707,0.00776
1159.87690,0.00834
1157.81673,0.00891
1155.75656,0.00934
1153.69639,0.00979
1151.63621,0.01027
1149.57604,0.01078
1147.51587,0.01142
1145.45570,0.01214
1143.39552,0.01279
1141.33535,0.01334
1139.27518,0.01384
1137.21501,0.01436
1135.15484,0.01502
1133.09466,0.01588
1131.03449,0.01669
1128.97432,0.01721
1126.91415,0.01766
1124.85398,0.01837
1122.79380,0.01919
1120.73363,0.01988
1118.67346,0.02052
1116.61329,0.02130
1114.55312,0.02211
1112.49294,0.02285
1110.43277,0.02376
1108.37260,0.02489
1106.31243,0.02604
1104.25225,0.02710
1102.19208,0.02801
1100.13191,0.02881
1098.07174,0.02971
1096.01157,0.03066
1093.95139,0.03151
1091.89122,0.03238
1089.83105,0.03328
1087.77088,0.03420
1085.71071,0.03517
1083.65053,0.03603
1081.59036,0.03675
1079.53019,0.03754
1077.47002,0.03838
1075.40985,0.03909
1073.34967,0.03962
1071.28950,0.04002
1069.22933,0.04036
1067.16916,0.04057
1065.10898,0.04070
1063.04881,0.04092
1060.98864,0.04114
1058.92847,0.04108
1056.86830,0.04081
1054.80812,0.04055
1052.74795,0.04038
1050.68778,0.04032
1048.62761,0.04015
1046.56744,0.03971
1044.50726,0.03918
1042.44709,0.03866
1040.38692,0.03794
1038.32675,0.03711
1036.26657,0.03646
1034.20640,0.03594
1032.14623,0.03536
1030.08606,0.03471
1028.02589,0.03408
1025.96571,0.03353
1023.90554,0.03297
1021.84537,0.03225
1019.78520,0.03145
1017.72503,0.03077
1015.66485,0.03020
1013.60468,0.02954
1011.54451,0.02873
1009.48434,0.02797
1007.42417,0.02738
1005.36399,0.02693
1003.30382,0.02656
1001.24365,0.02633
999.18348,0.02634
997.12330,0.02650
995.06313,0.02671
993.00296,0.02708
990.94279,0.02749
988.88262,0.02784
986.82244,0.02812
984.76227,0.02821
982.70210,0.02810
980.64193,0.02782
978.58176,0.02713
976.52158,0.02613
974.46141,0.02511
972.40124,0.02418
970.34107,0.02308
968.28089,0.02179
966.22072,0.02057
964.16055,0.01943
962.10038,0.01831
960.04021,0.01730
957.98003,0.01643
955.91986,0.01564
953.85969,0.01488
951.79952,0.01414
949.73935,0.01335
947.67917,0.01256
945.61900,0.01216
943.55883,0.01210
941.49866,0.01192
939.43849,0.01157
937.37831,0.01105
935.31814,0.01049
933.25797,0.01010
931.19780,0.00981
929.13762,0.00956
927.07745,0.00945
925.01728,0.00930
922.95711,0.00890
920.89694,0.00844
918.83676,0.00816
916.77659,0.00783
914.71642,0.00717
912.65625,0.00653
910.59608,0.00628
908.53590,0.00622
906.47573,0.00610
904.41556,0.00589
902.35539,0.00564
900.29522,0.00554
898.23504,0.00563
896.17487,0.00573
894.11470,0.00589
892.05453,0.00628
889.99435,0.00661
887.93418,0.00663
885.87401,0.00667
883.81384,0.00684
881.75367,0.00693
879.69349,0.00717
877.63332,0.00779
875.57315,0.00834
873.51298,0.00866
871.45281,0.00880
869.39263,0.00856
867.33246,0.00841
865.27229,0.00857
863.21212,0.00863
861.15194,0.00863
859.09177,0.00864
857.03160,0.00862
854.97143,0.00863
852.91126,0.00844
850.85108,0.00797
848.79091,0.00752
846.73074,0.00720
844.67057,0.00686
842.61040,0.00668
840.55022,0.00671
838.49005,0.00668
836.42988,0.00659
834.36971,0.00641
832.30954,0.00592
830.24936,0.00530
828.18919,0.00489
826.12902,0.00467
824.06885,0.00447
822.00867,0.00422
819.94850,0.00405
817.88833,0.00415
815.82816,0.00427
813.76799,0.00404
811.70781,0.00374
809.64764,0.00373
807.58747,0.00376
805.52730,0.00358
803.46713,0.00337
801.40695,0.00309
799.34678,0.00278
797.28661,0.00277
795.22644,0.00290
793.16627,0.00277
791.10609,0.00244
789.04592,0.00202
786.98575,0.00173
784.92558,0.00200
782.86540,0.00247
780.80523,0.00282
778.74506,0.00301
776.68489,0.00289
774.62472,0.00256
772.56454,0.00224
770.50437,0.00206
768.44420,0.00186
766.38403,0.00160
764.32386,0.00155
762.26368,0.00162
760.20351,0.00183
758.14334,0.00211
756.08317,0.00192
754.02299,0.00137
751.96282,0.00105
749.90265,0.00115
747.84248,0.00137
745.78231,0.00119
743.72213,0.00085
741.66196,0.00106
739.60179,0.00129
737.54162,0.00094
735.48145,0.00062
733.42127,0.00071
731.36110,0.00126
729.30093,0.00193
727.24076,0.00188
725.18059,0.00164
723.12041,0.00185
721.06024,0.00221
719.00007,0.00240
716.93990,0.00218
714.87972,0.00168
712.81955,0.00157
710.75938,0.00193
708.69921,0.00215
706.63904,0.00206
704.57886,0.00221
702.51869,0.00284
700.45852,0.00334
698.39835,0.00316
696.33818,0.00247
694.27800,0.00155
692.21783,0.00072
690.15766,0.00063
688.09749,0.00127
686.03731,0.00173
683.97714,0.00159
681.91697,0.00131
679.85680,0.00129
677.79663,0.00170
675.73645,0.00255
673.67628,0.00324
671.61611,0.00326
669.55594,0.00290
667.49577,0.00276
665.43559,0.00285
663.37542,0.00264
661.31525,0.00178
659.25508,0.00071
657.19491,0.00014
655.13473,0.00014
653.07456,0.00080
651.01439,0.00197
648.95422,0.00284
646.89404,0.00324
644.83387,0.00361
642.77370,0.00361
640.71353,0.00287
638.65336,0.00208
636.59318,0.00210
634.53301,0.00246
632.47284,0.00262
630.41267,0.00315
628.35250,0.00367
626.29232,0.00275
624.23215,0.00150
622.17198,0.00131
620.11181,0.00089
618.05164,0.00064
615.99146,0.00122
613.93129,0.00151
611.87112,0.00183
609.81095,0.00297
607.75077,0.00377
605.69060,0.00264
603.63043,0.00076
601.57026,0.00000
599.51009,0.00000
