3996.73391,0.00046
3994.67373,0.00018
3992.61356,0.00000
3990.55339,0.00009
3988.49322,0.00034
3986.43305,0.00058
3984.37287,0.00065
3982.31270,0.00050
3980.25253,0.00040
3978.19236,0.00056
3976.13219,0.00077
3974.07201,0.00077
3972.01184,0.00066
3969.95167,0.00057
3967.89150,0.00045
3965.83133,0.00028
3963.77115,0.00022
3961.71098,0.00042
3959.65081,0.00071
3957.59064,0.00082
3955.53046,0.00077
3953.47029,0.00068
3951.41012,0.00058
3949.34995,0.00045
3947.28978,0.00042
3945.22960,0.00060
3943.16943,0.00072
3941.10926,0.00062
3939.04909,0.00060
3936.98892,0.00081
3934.92874,0.00094
3932.86857,0.00090
3930.80840,0.00083
3928.74823,0.00069
3926.68805,0.00049
3924.62788,0.00047
3922.56771,0.00069
3920.50754,0.00083
3918.44737,0.00075
3916.38719,0.00069
3914.32702,0.00081
3912.26685,0.00088
3910.20668,0.00063
3908.14651,0.00020
3906.08633,0.00015
3904.02616,0.00063
3901.96599,0.00093
3899.90582,0.00078
3897.84565,0.00059
3895.78547,0.00050
3893.72530,0.00051
3891.66513,0.00064
3889.60496,0.00086
3887.54478,0.00106
3885.48461,0.00114
3883.42444,0.00112
3881.36427,0.00109
3879.30410,0.00102
3877.24392,0.00094
3875.18375,0.00089
3873.12358,0.00086
3871.06341,0.00095
3869.00324,0.00105
3866.94306,0.00105
3864.88289,0.00113
3862.82272,0.00124
3860.76255,0.00125
3858.70237,0.00124
3856.64220,0.00141
3854.58203,0.00178
3852.52186,0.00186
3850.46169,0.00128
3848.40151,0.00067
3846.34134,0.00054
3844.28117,0.00089
3842.22100,0.00142
3840.16083,0.00168
3838.10065,0.00140
3836.04048,0.00098
3833.98031,0.00095
3831.92014,0.00096
3829.85997,0.00075
3827.79979,0.00065
3825.73962,0.00077
3823.67945,0.00086
3821.61928,0.00078
3819.55910,0.00077
3817.49893,0.00090
3815.43876,0.00093
3813.37859,0.00097
3811.31842,0.00119
3809.25824,0.00140
3807.19807,0.00140
3805.13790,0.00131
3803.07773,0.00122
3801.01756,0.00098
3798.95738,0.00067
3796.89721,0.00039
3794.83704,0.00018
3792.77687,0.00019
3790.71670,0.00030
3788.65652,0.00031
3786.59635,0.00037
3784.53618,0.00072
3782.47601,0.00112
3780.41583,0.00130
3778.35566,0.00132
3776.29549,0.00122
3774.23532,0.00108
3772.17515,0.00098
3770.11497,0.00096
3768.05480,0.00104
3765.99463,0.00106
3763.93446,0.00104
3761.87429,0.00113
3759.81411,0.00124
3757.75394,0.00117
3755.69377,0.00103
3753.63360,0.00107
3751.57342,0.00119
3749.51325,0.00118
3747.45308,0.00123
3745.39291,0.00126
3743.33274,0.00093
3741.27256,0.00058
3739.21239,0.00061
3737.15222,0.00074
3735.09205,0.00060
3733.03188,0.00042
3730.97170,0.00068
3728.91153,0.00123
3726.85136,0.00169
3724.79119,0.00183
3722.73102,0.00172
3720.67084,0.00164
3718.61067,0.00157
3716.55050,0.00132
3714.49033,0.00096
3712.43015,0.00075
3710.36998,0.00072
3708.30981,0.00077
3706.24964,0.00097
3704.18947,0.00116
3702.12929,0.00110
3700.06912,0.00101
3698.00895,0.00115
3695.94878,0.00130
3693.88861,0.00129
3691.82843,0.00122
3689.76826,0.00111
3687.70809,0.00102
3685.64792,0.00109
3683.58775,0.00143
3681.52757,0.00191
3679.46740,0.00219
3677.40723,0.00207
3675.34706,0.00166
3673.28688,0.00147
3671.22671,0.00180
3669.16654,0.00232
3667.10637,0.00257
3665.04620,0.00266
3662.98602,0.00293
3660.92585,0.00317
3658.86568,0.00294
3656.80551,0.00253
3654.74534,0.00257
3652.68516,0.00300
3650.62499,0.00364
3648.56482,0.00436
3646.50465,0.00465
3644.44447,0.00465
3642.38430,0.00479
3640.32413,0.00505
3638.26396,0.00523
3636.20379,0.00536
3634.14361,0.00556
3632.08344,0.00573
3630.02327,0.00585
3627.96310,0.00599
3625.90293,0.00619
3623.84275,0.00667
3621.78258,0.00733
3619.72241,0.00749
3617.66224,0.00708
3615.60207,0.00696
3613.54189,0.00748
3611.48172,0.00812
3609.42155,0.00854
3607.36138,0.00891
3605.30120,0.00939
3603.24103,0.00977
3601.18086,0.00993
3599.12069,0.01017
3597.06052,0.01074
3595.00034,0.01130
3592.94017,0.01154
3590.88000,0.01170
3588.81983,0.01202
3586.75966,0.01232
3584.69948,0.01248
3582.63931,0.01263
3580.57914,0.01288
3578.51897,0.01322
3576.45879,0.01359
3574.39862,0.01388
3572.33845,0.01418
3570.27828,0.01470
3568.21811,0.01506
3566.15793,0.01493
3564.09776,0.01495
3562.03759,0.01548
3559.97742,0.01604
3557.91725,0.01641
3555.85707,0.01685
3553.79690,0.01737
3551.73673,0.01773
3549.67656,0.01800
3547.61639,0.01820
3545.55621,0.01822
3543.49604,0.01831
3541.43587,0.01883
3539.37570,0.01953
3537.31552,0.01992
3535.25535,0.01988
3533.19518,0.01984
3531.13501,0.02023
3529.07484,0.02098
3527.01466,0.02164
3524.95449,0.02188
3522.89432,0.02183
3520.83415,0.02182
3518.77398,0.02203
3516.71380,0.02237
3514.65363,0.02280
3512.59346,0.02323
3510.53329,0.02343
3508.47312,0.02344
3506.41294,0.02361
3504.35277,0.02402
3502.29260,0.02439
3500.23243,0.02461
3498.17225,0.02480
3496.11208,0.02508
3494.05191,0.02559
3491.99174,0.02616
3489.93157,0.02653
3487.87139,0.02663
3485.81122,0.02665
3483.75105,0.02674
3481.69088,0.02680
3479.63071,0.02690
3477.57053,0.02716
3475.51036,0.02748
3473.45019,0.02776
3471.39002,0.02801
3469.32984,0.02830
3467.26967,0.02872
3465.20950,0.02913
3463.14933,0.02926
3461.08916,0.02923
3459.02898,0.02936
3456.96881,0.02963
3454.90864,0.02996
3452.84847,0.03024
3450.78830,0.03044
3448.72812,0.03070
3446.66795,0.03097
3444.60778,0.03114
3442.54761,0.03133
3440.48744,0.03152
3438.42726,0.03149
3436.36709,0.03138
3434.30692,0.03154
3432.24675,0.03189
3430.18657,0.03207
3428.12640,0.03212
3426.06623,0.03233
3424.00606,0.03278
3421.94589,0.03316
3419.88571,0.03326
3417.82554,0.03335
3415.76537,0.03364
3413.70520,0.03384
3411.64503,0.03399
3409.58485,0.03419
3407.52468,0.03417
3405.46451,0.03413
3403.40434,0.03445
3401.34416,0.03482
3399.28399,0.03487
3397.22382,0.03469
3395.16365,0.03472
3393.10348,0.03500
3391.04330,0.03529
3388.98313,0.03556
3386.92296,0.03582
3384.86279,0.03579
3382.80262,0.03549
3380.74244,0.03534
3378.68227,0.03551
3376.62210,0.03581
3374.56193,0.03603
3372.50176,0.03624
3370.44158,0.03663
3368.38141,0.03691
3366.32124,0.03677
3364.26107,0.03657
3362.20089,0.03661
3360.14072,0.03668
3358.08055,0.03668
3356.02038,0.03667
3353.96021,0.03667
3351.90003,0.03678
3349.83986,0.03696
3347.77969,0.03703
3345.71952,0.03706
3343.65935,0.03724
3341.59917,0.03752
3339.53900,0.03763
3337.47883,0.03756
3335.41866,0.03750
3333.35849,0.03748
3331.29831,0.03746
3329.23814,0.03753
3327.17797,0.03764
3325.11780,0.03760
3323.05762,0.03751
3320.99745,0.03752
3318.93728,0.03764
3316.87711,0.03785
3314.81694,0.03800
3312.75676,0.03808
3310.69659,0.03814
3308.63642,0.03806
3306.57625,0.03785
3304.51608,0.03773
3302.45590,0.03772
3300.39573,0.03773
3298.33556,0.03787
3296.27539,0.03824
3294.21521,0.03855
3292.15504,0.03851
3290.09487,0.03827
3288.03470,0.03814
3285.97453,0.03816
3283.91435,0.03819
3281.85418,0.03820
3279.79401,0.03830
3277.73384,0.03858
3275.67367,0.03890
3273.61349,0.03891
3271.55332,0.03858
3269.49315,0.03836
3267.43298,0.03837
3265.37281,0.03842
3263.31263,0.03836
3261.25246,0.03818
3259.19229,0.03809
3257.13212,0.03812
3255.07194,0.03805
3253.01177,0.03795
3250.95160,0.03812
3248.89143,0.03846
3246.83126,0.03846
3244.77108,0.03802
3242.71091,0.03766
3240.65074,0.03772
3238.59057,0.03797
3236.53040,0.03812
3234.47022,0.03813
3232.41005,0.03799
3230.34988,0.03789
3228.28971,0.03806
3226.22954,0.03836
3224.16936,0.03845
3222.10919,0.03820
3220.04902,0.03770
3217.98885,0.03734
3215.92867,0.03734
3213.86850,0.03747
3211.80833,0.03753
3209.74816,0.03747
3207.68799,0.03738
3205.62781,0.03728
3203.56764,0.03703
3201.50747,0.03679
3199.44730,0.03690
3197.38713,0.03718
3195.32695,0.03707
3193.26678,0.03679
3191.20661,0.03674
3189.14644,0.03671
3187.08626,0.03652
3185.02609,0.03633
3182.96592,0.03615
3180.90575,0.03592
3178.84558,0.03569
3176.78540,0.03557
3174.72523,0.03560
3172.66506,0.03560
3170.60489,0.03541
3168.54472,0.03523
3166.48454,0.03519
3164.42437,0.03528
3162.36420,0.03533
3160.30403,0.03507
3158.24386,0.03469
3156.18368,0.03453
3154.12351,0.03448
3152.06334,0.03446
3150.00317,0.03446
3147.94299,0.03448
3145.88282,0.03445
3143.82265,0.03432
3141.76248,0.03412
3139.70231,0.03388
3137.64213,0.03357
3135.58196,0.03337
3133.52179,0.03326
3131.46162,0.03298
3129.40145,0.03266
3127.34127,0.03255
3125.28110,0.03256
3123.22093,0.03242
3121.16076,0.03216
3119.10058,0.03209
3117.04041,0.03234
3114.98024,0.03257
3112.92007,0.03245
3110.85990,0.03216
3108.79972,0.03187
3106.73955,0.03162
3104.67938,0.03128
3102.61921,0.03083
3100.55904,0.03064
3098.49886,0.03070
3096.43869,0.03061
3094.37852,0.03041
3092.31835,0.03027
3090.25818,0.03016
3088.19800,0.03006
3086.13783,0.02994
3084.07766,0.02982
3082.01749,0.02969
3079.95731,0.02948
3077.89714,0.02931
3075.83697,0.02921
3073.77680,0.02910
3071.71663,0.02904
3069.65645,0.02893
3067.59628,0.02874
3065.53611,0.02848
3063.47594,0.02821
3061.41577,0.02807
3059.35559,0.02802
3057.29542,0.02782
3055.23525,0.02750
3053.17508,0.02729
3051.11491,0.02716
3049.05473,0.02699
3046.99456,0.02676
3044.93439,0.02651
3042.87422,0.02623
3040.81404,0.02596
3038.75387,0.02585
3036.69370,0.02578
3034.63353,0.02561
3032.57336,0.02560
3030.51318,0.02580
3028.45301,0.02584
3026.39284,0.02567
3024.33267,0.02543
3022.27250,0.02514
3020.21232,0.02488
3018.15215,0.02474
3016.09198,0.02472
3014.03181,0.02483
3011.97163,0.02483
3009.91146,0.02456
3007.85129,0.02428
3005.79112,0.02405
3003.73095,0.02382
3001.67077,0.02363
2999.61060,0.02341
2997.55043,0.02324
2995.49026,0.02333
2993.43009,0.02344
2991.36991,0.02336
2989.30974,0.02318
2987.24957,0.02304
2985.18940,0.02287
2983.12923,0.02268
2981.06905,0.02257
2979.00888,0.02251
2976.94871,0.02252
2974.88854,0.02263
2972.82836,0.02270
2970.76819,0.02278
2968.70802,0.02287
2966.64785,0.02286
2964.58768,0.02266
2962.52750,0.02242
2960.46733,0.02236
2958.40716,0.02241
2956.34699,0.02251
2954.28682,0.02265
2952.22664,0.02260
2950.16647,0.02242
2948.10630,0.02243
2946.04613,0.02266
2943.98596,0.02277
2941.92578,0.02272
2939.86561,0.02276
2937.80544,0.02279
2935.74527,0.02277
2933.68509,0.02274
2931.62492,0.02264
2929.56475,0.02251
2927.50458,0.02247
2925.44441,0.02257
2923.38423,0.02268
2921.32406,0.02256
2919.26389,0.02229
2917.20372,0.02214
2915.14355,0.02204
2913.08337,0.02182
2911.02320,0.02151
2908.96303,0.02124
2906.90286,0.02121
2904.84268,0.02124
2902.78251,0.02114
2900.72234,0.02102
2898.66217,0.02092
2896.60200,0.02082
2894.54182,0.02083
2892.48165,0.02091
2890.42148,0.02094
2888.36131,0.02096
2886.30114,0.02088
2884.24096,0.02066
2882.18079,0.02052
2880.12062,0.02044
2878.06045,0.02032
2876.00028,0.02026
2873.94010,0.02023
2871.87993,0.02006
2869.81976,0.01983
2867.75959,0.01961
2865.69941,0.01944
2863.63924,0.01934
2861.57907,0.01933
2859.51890,0.01942
2857.45873,0.01950
2855.39855,0.01954
2853.33838,0.01953
2851.27821,0.01939
2849.21804,0.01914
2847.15787,0.01885
2845.09769,0.01861
2843.03752,0.01857
2840.97735,0.01862
2838.91718,0.01859
2836.85700,0.01848
2834.79683,0.01831
2832.73666,0.01807
2830.67649,0.01786
2828.61632,0.01772
2826.55614,0.01756
2824.49597,0.01737
2822.43580,0.01721
2820.37563,0.01709
2818.31546,0.01706
2816.25528,0.01710
2814.19511,0.01719
2812.13494,0.01719
2810.07477,0.01699
2808.01460,0.01684
2805.95442,0.01687
2803.89425,0.01688
2801.83408,0.01676
2799.77391,0.01660
2797.71373,0.01656
2795.65356,0.01655
2793.59339,0.01638
2791.53322,0.01623
2789.47305,0.01621
2787.41287,0.01613
2785.35270,0.01598
2783.29253,0.01587
2781.23236,0.01591
2779.17219,0.01597
2777.11201,0.01588
2775.05184,0.01579
2772.99167,0.01573
2770.93150,0.01572
2768.87133,0.01567
2766.81115,0.01549
2764.75098,0.01536
2762.69081,0.01537
2760.63064,0.01536
2758.57046,0.01524
2756.51029,0.01514
2754.45012,0.01514
2752.38995,0.01522
2750.32978,0.01523
2748.26960,0.01513
2746.20943,0.01499
2744.14926,0.01478
2742.08909,0.01454
2740.02892,0.01450
2737.96874,0.01467
2735.90857,0.01475
2733.84840,0.01461
2731.78823,0.01443
2729.72805,0.01435
2727.66788,0.01433
2725.60771,0.01427
2723.54754,0.01424
2721.48737,0.01432
2719.42719,0.01429
2717.36702,0.01399
2715.30685,0.01367
2713.24668,0.01366
2711.18651,0.01384
2709.12633,0.01383
2707.06616,0.01361
2705.00599,0.01349
2702.94582,0.01349
2700.88565,0.01338
2698.82547,0.01322
2696.76530,0.01307
2694.70513,0.01296
2692.64496,0.01298
2690.58478,0.01303
2688.52461,0.01295
2686.46444,0.01281
2684.40427,0.01274
2682.34410,0.01265
2680.28392,0.01255
2678.22375,0.01251
2676.16358,0.01243
2674.10341,0.01237
2672.04324,0.01227
2669.98306,0.01196
2667.92289,0.01170
2665.86272,0.01176
2663.80255,0.01187
2661.74238,0.01185
2659.68220,0.01181
2657.62203,0.01181
2655.56186,0.01182
2653.50169,0.01191
2651.44151,0.01194
2649.38134,0.01182
2647.32117,0.01169
2645.26100,0.01156
2643.20083,0.01146
2641.14065,0.01142
2639.08048,0.01131
2637.02031,0.01114
2634.96014,0.01095
2632.89997,0.01077
2630.83979,0.01068
2628.77962,0.01062
2626.71945,0.01056
2624.65928,0.01049
2622.59910,0.01029
2620.53893,0.01009
2618.47876,0.01019
2616.41859,0.01052
2614.35842,0.01059
2612.29824,0.01032
2610.23807,0.01009
2608.17790,0.00993
2606.11773,0.00984
2604.05756,0.00985
2601.99738,0.00986
2599.93721,0.00972
2597.87704,0.00945
2595.81687,0.00926
2593.75670,0.00929
2591.69652,0.00947
2589.63635,0.00957
2587.57618,0.00959
2585.51601,0.00971
2583.45583,0.00970
2581.39566,0.00942
2579.33549,0.00915
2577.27532,0.00904
2575.21515,0.00894
2573.15497,0.00894
2571.09480,0.00911
2569.03463,0.00931
2566.97446,0.00934
2564.91429,0.00910
2562.85411,0.00870
2560.79394,0.00856
2558.73377,0.00868
2556.67360,0.00871
2554.61342,0.00875
2552.55325,0.00879
2550.49308,0.00870
2548.43291,0.00866
2546.37274,0.00873
2544.31256,0.00882
2542.25239,0.00886
2540.19222,0.00882
2538.13205,0.00879
2536.07188,0.00882
2534.01170,0.00888
2531.95153,0.00902
2529.89136,0.00914
2527.83119,0.00915
2525.77102,0.00901
2523.71084,0.00868
2521.65067,0.00846
2519.59050,0.00857
2517.53033,0.00862
2515.47015,0.00847
2513.40998,0.00849
2511.34981,0.00873
2509.28964,0.00889
2507.22947,0.00885
2505.16929,0.00868
2503.10912,0.00854
2501.04895,0.00857
2498.98878,0.00851
2496.92861,0.00828
2494.86843,0.00825
2492.80826,0.00859
2490.74809,0.00894
2488.68792,0.00903
2486.62775,0.00898
2484.56757,0.00875
2482.50740,0.00862
2480.44723,0.00885
2478.38706,0.00917
2476.32688,0.00936
2474.26671,0.00935
2472.20654,0.00909
2470.14637,0.00893
2468.08620,0.00903
2466.02602,0.00929
2463.96585,0.00953
2461.90568,0.00959
2459.84551,0.00946
2457.78534,0.00935
2455.72516,0.00935
2453.66499,0.00943
2451.60482,0.00952
2449.54465,0.00953
2447.48447,0.00971
2445.42430,0.01000
2443.36413,0.00990
2441.30396,0.00943
2439.24379,0.00914
2437.18361,0.00929
2435.12344,0.00952
2433.06327,0.00949
2431.00310,0.00944
2428.94293,0.00948
2426.88275,0.00933
2424.82258,0.00898
2422.76241,0.00884
2420.70224,0.00901
2418.64207,0.00915
2416.58189,0.00906
2414.52172,0.00894
2412.46155,0.00887
2410.40138,0.00890
2408.34120,0.00894
2406.28103,0.00892
2404.22086,0.00893
2402.16069,0.00894
2400.10052,0.00893
2398.04034,0.00888
2395.98017,0.00869
2393.92000,0.00850
2391.85983,0.00845
2389.79966,0.00854
2387.73948,0.00875
2385.67931,0.00901
2383.61914,0.00921
2381.55897,0.00935
2379.49880,0.00945
2377.43862,0.00963
2375.37845,0.00997
2373.31828,0.01035
2371.25811,0.01053
2369.19793,0.00987
2367.13776,0.00781
2365.07759,0.00539
2363.01742,0.00428
2360.95725,0.00453
2358.89707,0.00569
2356.83690,0.00718
2354.77673,0.00825
2352.71656,0.00885
2350.65639,0.00908
2348.59621,0.00922
2346.53604,0.00946
2344.47587,0.00974
2342.41570,0.01001
2340.35552,0.01029
2338.29535,0.01050
2336.23518,0.01051
2334.17501,0.01008
2332.11484,0.00948
2330.05466,0.00936
2327.99449,0.00967
2325.93432,0.00966
2323.87415,0.00886
2321.81398,0.00778
2319.75380,0.00745
2317.69363,0.00808
2315.63346,0.00892
2313.57329,0.00930
2311.51312,0.00925
2309.45294,0.00909
2307.39277,0.00888
2305.33260,0.00862
2303.27243,0.00854
2301.21225,0.00871
2299.15208,0.00882
2297.09191,0.00886
2295.03174,0.00899
2292.97157,0.00873
2290.91139,0.00794
2288.85122,0.00743
2286.79105,0.00765
2284.73088,0.00818
2282.67071,0.00840
2280.61053,0.00815
2278.55036,0.00782
2276.49019,0.00771
2274.43002,0.00752
2272.36984,0.00723
2270.30967,0.00722
2268.24950,0.00734
2266.18933,0.00735
2264.12916,0.00742
2262.06898,0.00747
2260.00881,0.00713
2257.94864,0.00674
2255.88847,0.00700
2253.82830,0.00763
2251.76812,0.00774
2249.70795,0.00735
2247.64778,0.00717
2245.58761,0.00706
2243.52744,0.00672
2241.46726,0.00649
2239.40709,0.00642
2237.34692,0.00658
2235.28675,0.00707
2233.22657,0.00727
2231.16640,0.00702
2229.10623,0.00667
2227.04606,0.00624
2224.98589,0.00616
2222.92571,0.00632
2220.86554,0.00629
2218.80537,0.00645
2216.74520,0.00671
2214.68503,0.00676
2212.62485,0.00660
2210.56468,0.00614
2208.50451,0.00573
2206.44434,0.00591
2204.38417,0.00641
2202.32399,0.00645
2200.26382,0.00588
2198.20365,0.00553
2196.14348,0.00576
2194.08330,0.00603
2192.02313,0.00602
2189.96296,0.00537
2187.90279,0.00462
2185.84262,0.00491
2183.78244,0.00548
2181.72227,0.00548
2179.66210,0.00535
2177.60193,0.00546
2175.54176,0.00571
2173.48158,0.00572
2171.42141,0.00512
2169.36124,0.00403
2167.30107,0.00366
2165.24089,0.00483
2163.18072,0.00543
2161.12055,0.00416
2159.06038,0.00354
2157.00021,0.00376
2154.94003,0.00301
2152.87986,0.00208
2150.81969,0.00220
2148.75952,0.00291
2146.69935,0.00359
2144.63917,0.00463
2142.57900,0.00514
2140.51883,0.00456
2138.45866,0.00408
2136.39849,0.00398
2134.33831,0.00427
2132.27814,0.00476
2130.21797,0.00471
2128.15780,0.00446
2126.09762,0.00457
2124.03745,0.00475
2121.97728,0.00485
2119.91711,0.00521
2117.85694,0.00576
2115.79676,0.00574
2113.73659,0.00491
2111.67642,0.00447
2109.61625,0.00516
2107.55608,0.00583
2105.49590,0.00587
2103.43573,0.00586
2101.37556,0.00588
2099.31539,0.00528
2097.25521,0.00447
2095.19504,0.00460
2093.13487,0.00528
2091.07470,0.00564
2089.01453,0.00584
2086.95435,0.00591
2084.89418,0.00571
2082.83401,0.00560
2080.77384,0.00559
2078.71367,0.00505
2076.65349,0.00421
2074.59332,0.00409
2072.53315,0.00473
2070.47298,0.00517
2068.41281,0.00510
2066.35263,0.00495
2064.29246,0.00494
2062.23229,0.00499
2060.17212,0.00494
2058.11194,0.00456
2056.05177,0.00420
2053.99160,0.00435
2051.93143,0.00453
2049.87126,0.00440
2047.81108,0.00414
2045.75091,0.00377
2043.69074,0.00333
2041.63057,0.00278
2039.57040,0.00248
2037.51022,0.00284
2035.45005,0.00336
2033.38988,0.00329
2031.32971,0.00309
2029.26954,0.00321
2027.20936,0.00309
2025.14919,0.00259
2023.08902,0.00234
2021.02885,0.00249
2018.96867,0.00301
2016.90850,0.00392
2014.84833,0.00464
2012.78816,0.00511
2010.72799,0.00563
2008.66781,0.00524
2006.60764,0.00386
2004.54747,0.00283
2002.48730,0.00275
2000.42713,0.00323
1998.36695,0.00354
1996.30678,0.00383
1994.24661,0.00440
1992.18644,0.00483
1990.12626,0.00488
1988.06609,0.00451
1986.00592,0.00404
1983.94575,0.00396
1981.88558,0.00375
1979.82540,0.00291
1977.76523,0.00223
1975.70506,0.00270
1973.64489,0.00338
1971.58472,0.00292
1969.52454,0.00205
1967.46437,0.00185
1965.40420,0.00200
1963.34403,0.00213
1961.28386,0.00256
1959.22368,0.00325
1957.16351,0.00362
1955.10334,0.00343
1953.04317,0.00320
1950.98299,0.00346
1948.92282,0.00367
1946.86265,0.00356
1944.80248,0.00365
1942.74231,0.00392
1940.68213,0.00390
1938.62196,0.00355
1936.56179,0.00302
1934.50162,0.00284
1932.44145,0.00339
1930.38127,0.00402
1928.32110,0.00414
1926.26093,0.00391
1924.20076,0.00367
1922.14059,0.00347
1920.08041,0.00326
1918.02024,0.00308
1915.96007,0.00304
1913.89990,0.00314
1911.83972,0.00350
1909.77955,0.00396
1907.71938,0.00384
1905.65921,0.00319
1903.59904,0.00291
1901.53886,0.00336
1899.47869,0.00392
1897.41852,0.00399
1895.35835,0.00368
1893.29818,0.00350
1891.23800,0.00364
1889.17783,0.00365
1887.11766,0.00341
1885.05749,0.00321
1882.99731,0.00305
1880.93714,0.00293
1878.87697,0.00296
1876.81680,0.00311
1874.75663,0.00332
1872.69645,0.00359
1870.63628,0.00381
1868.57611,0.00378
1866.51594,0.00363
1864.45577,0.00374
1862.39559,0.00395
1860.33542,0.00388
1858.27525,0.00351
1856.21508,0.00318
1854.15491,0.00321
1852.09473,0.00359
1850.03456,0.00397
1847.97439,0.00401
1845.91422,0.00372
1843.85404,0.00336
1841.79387,0.00326
1839.73370,0.00354
1837.67353,0.00396
1835.61336,0.00420
1833.55318,0.00420
1831.49301,0.00396
1829.43284,0.00371
1827.37267,0.00377
1825.31250,0.00404
1823.25232,0.00419
1821.19215,0.00410
1819.13198,0.00395
1817.07181,0.00378
1815.01163,0.00351
1812.95146,0.00329
1810.89129,0.00334
1808.83112,0.00365
1806.77095,0.00387
1804.71077,0.00391
1802.65060,0.00390
1800.59043,0.00385
1798.53026,0.00377
1796.47009,0.00370
1794.40991,0.00369
1792.34974,0.00379
1790.28957,0.00394
1788.22940,0.00401
1786.16923,0.00399
1784.10905,0.00403
1782.04888,0.00417
1779.98871,0.00433
1777.92854,0.00442
1775.86836,0.00446
1773.80819,0.00450
1771.74802,0.00447
1769.68785,0.00436
1767.62768,0.00432
1765.56750,0.00439
1763.50733,0.00449
1761.44716,0.00451
1759.38699,0.00451
1757.32682,0.00459
1755.26664,0.00487
1753.20647,0.00533
1751.14630,0.00574
1749.08613,0.00588
1747.02596,0.00589
1744.96578,0.00609
1742.90561,0.00642
1740.84544,0.00653
1738.78527,0.00644
1736.72509,0.00657
1734.66492,0.00692
1732.60475,0.00706
1730.54458,0.00697
1728.48441,0.00687
1726.42423,0.00691
1724.36406,0.00706
1722.30389,0.00722
1720.24372,0.00736
1718.18355,0.00743
1716.12337,0.00745
1714.06320,0.00751
1712.00303,0.00762
1709.94286,0.00772
1707.88268,0.00770
1705.82251,0.00765
1703.76234,0.00784
1701.70217,0.00813
1699.64200,0.00825
1697.58182,0.00837
1695.52165,0.00864
1693.46148,0.00905
1691.40131,0.00947
1689.34114,0.00979
1687.28096,0.01007
1685.22079,0.01037
1683.16062,0.01071
1681.10045,0.01117
1679.04028,0.01174
1676.98010,0.01223
1674.91993,0.01251
1672.85976,0.01267
1670.79959,0.01281
1668.73941,0.01293
1666.67924,0.01324
1664.61907,0.01373
1662.55890,0.01413
1660.49873,0.01442
1658.43855,0.01475
1656.37838,0.01506
1654.31821,0.01520
1652.25804,0.01529
1650.19787,0.01553
1648.13769,0.01569
1646.07752,0.01557
1644.01735,0.01554
1641.95718,0.01569
1639.89701,0.01580
1637.83683,0.01568
1635.77666,0.01536
1633.71649,0.01531
1631.65632,0.01559
1629.59614,0.01576
1627.53597,0.01573
1625.47580,0.01572
1623.41563,0.01578
1621.35546,0.01591
1619.29528,0.01607
1617.23511,0.01589
1615.17494,0.01541
1613.11477,0.01517
1611.05460,0.01519
1608.99442,0.01520
1606.93425,0.01511
1604.87408,0.01492
1602.81391,0.01465
1600.75373,0.01437
1598.69356,0.01414
1596.63339,0.01388
1594.57322,0.01358
1592.51305,0.01325
1590.45287,0.01285
1588.39270,0.01232
1586.33253,0.01175
1584.27236,0.01130
1582.21219,0.01099
1580.15201,0.01076
1578.09184,0.01039
1576.03167,0.00979
1573.97150,0.00940
1571.91133,0.00929
1569.85115,0.00897
1567.79098,0.00844
1565.73081,0.00814
1563.67064,0.00813
1561.61046,0.00812
1559.55029,0.00775
1557.49012,0.00724
1555.42995,0.00718
1553.36978,0.00721
1551.30960,0.00705
1549.24943,0.00689
1547.18926,0.00686
1545.12909,0.00688
1543.06892,0.00676
1541.00874,0.00633
1538.94857,0.00576
1536.88840,0.00562
1534.82823,0.00575
1532.76805,0.00571
1530.70788,0.00555
1528.64771,0.00551
1526.58754,0.00552
1524.52737,0.00545
1522.46719,0.00515
1520.40702,0.00472
1518.34685,0.00449
1516.28668,0.00450
1514.22651,0.00460
1512.16633,0.00463
1510.10616,0.00449
1508.04599,0.00422
1505.98582,0.00405
1503.92565,0.00407
1501.86547,0.00412
1499.80530,0.00412
1497.74513,0.00406
1495.68496,0.00398
1493.62478,0.00400
1491.56461,0.00403
1489.50444,0.00394
1487.44427,0.00389
1485.38410,0.00406
1483.32392,0.00435
1481.26375,0.00456
1479.20358,0.00461
1477.14341,0.00465
1475.08324,0.00475
1473.02306,0.00483
1470.96289,0.00497
1468.90272,0.00522
1466.84255,0.00547
1464.78238,0.00568
1462.72220,0.00594
1460.66203,0.00622
1458.60186,0.00637
1456.54169,0.00642
1454.48151,0.00653
1452.42134,0.00658
1450.36117,0.00648
1448.30100,0.00631
1446.24083,0.00620
1444.18065,0.00624
1442.12048,0.00634
1440.06031,0.00648
1438.00014,0.00662
1435.93997,0.00668
1433.87979,0.00674
1431.81962,0.00690
1429.75945,0.00711
1427.69928,0.00733
1425.63910,0.00754
1423.57893,0.00771
1421.51876,0.00783
1419.45859,0.00784
1417.39842,0.00784
1415.33824,0.00793
1413.27807,0.00798
1411.21790,0.00792
1409.15773,0.00782
1407.09756,0.00772
1405.03738,0.00758
1402.97721,0.00750
1400.91704,0.00747
1398.85687,0.00737
1396.79670,0.00717
1394.73652,0.00698
1392.67635,0.00690
1390.61618,0.00691
1388.55601,0.00688
1386.49583,0.00681
1384.43566,0.00687
1382.37549,0.00701
1380.31532,0.00709
1378.25515,0.00706
1376.19497,0.00692
1374.13480,0.00675
1372.07463,0.00667
1370.01446,0.00672
1367.95429,0.00681
1365.89411,0.00683
1363.83394,0.00669
1361.77377,0.00645
1359.71360,0.00623
1357.65343,0.00611
1355.59325,0.00607
1353.53308,0.00593
1351.47291,0.00570
1349.41274,0.00557
1347.35256,0.00560
1345.29239,0.00570
1343.23222,0.00577
1341.17205,0.00568
1339.11188,0.00545
1337.05170,0.00526
1334.99153,0.00524
1332.93136,0.00533
1330.87119,0.00540
1328.81102,0.00542
1326.75084,0.00542
1324.69067,0.00542
1322.63050,0.00545
1320.57033,0.00551
1318.51015,0.00559
1316.44998,0.00563
1314.38981,0.00557
1312.32964,0.00537
1310.26947,0.00520
1308.20929,0.00514
1306.14912,0.00513
1304.08895,0.00515
1302.02878,0.00520
1299.96861,0.00522
1297.90843,0.00520
1295.84826,0.00521
1293.78809,0.00524
1291.72792,0.00525
1289.66775,0.00525
1287.60757,0.00524
1285.54740,0.00524
1283.48723,0.00534
1281.42706,0.00551
1279.36688,0.00562
1277.30671,0.00563
1275.24654,0.00564
1273.18637,0.00569
1271.12620,0.00573
1269.06602,0.00572
1267.00585,0.00571
1264.94568,0.00576
1262.88551,0.00587
1260.82534,0.00597
1258.76516,0.00606
1256.70499,0.00609
1254.64482,0.00605
1252.58465,0.00601
1250.52447,0.00592
1248.46430,0.00579
1246.40413,0.00572
1244.34396,0.00562
1242.28379,0.00550
1240.22361,0.00541
1238.16344,0.00526
1236.10327,0.00506
1234.04310,0.00492
1231.98293,0.00489
1229.92275,0.00481
1227.86258,0.00463
1225.80241,0.00442
1223.74224,0.00409
1221.68207,0.00368
1219.62189,0.00342
1217.56172,0.00337
1215.50155,0.00332
1213.44138,0.00315
1211.38120,0.00294
1209.32103,0.00277
1207.26086,0.00266
1205.20069,0.00257
1203.14052,0.00254
1201.08034,0.00253
1199.02017,0.00251
1196.96000,0.00253
1194.89983,0.00271
1192.83966,0.00293
1190.77948,0.00305
1188.71931,0.00322
1186.65914,0.00352
1184.59897,0.00387
1182.53880,0.00420
1180.47862,0.00457
1178.41845,0.00518
1176.35828,0.00593
1174.29811,0.00666
1172.23793,0.00731
1170.17776,0.00793
1168.11759,0.00865
1166.05742,0.00939
1163.99725,0.00995
1161.93707,0.01052
1159.87690,0.01126
1157.81673,0.01196
1155.75656,0.01250
1153.69639,0.01296
1151.63621,0.01341
1149.57604,0.01400
1147.51587,0.01475
1145.45570,0.01548
1143.39552,0.01615
1141.33535,0.01685
1139.27518,0.01757
1137.21501,0.01823
1135.15484,0.01888
1133.09466,0.01962
1131.03449,0.02044
1128.97432,0.02125
1126.91415,0.02199
1124.85398,0.02272
1122.79380,0.02340
1120.73363,0.02398
1118.67346,0.02462
1116.61329,0.02548
1114.55312,0.02641
1112.49294,0.02718
1110.43277,0.02802
1108.37260,0.02909
1106.31243,0.03007
1104.25225,0.03092
1102.19208,0.03179
1100.13191,0.03271
1098.07174,0.03361
1096.01157,0.03433
1093.95139,0.03494
1091.89122,0.03574
1089.83105,0.03667
1087.77088,0.03748
1085.71071,0.03822
1083.65053,0.03902
1081.59036,0.03984
1079.53019,0.04058
1077.47002,0.04121
1075.40985,0.04173
1073.34967,0.04211
1071.28950,0.04245
1069.22933,0.04276
1067.16916,0.04288
1065.10898,0.04281
1063.04881,0.04274
1060.98864,0.04283
1058.92847,0.04278
1056.86830,0.04237
1054.80812,0.04196
1052.74795,0.04171
1050.68778,0.04136
1048.62761,0.04077
1046.56744,0.04014
1044.50726,0.03961
1042.44709,0.03897
1040.38692,0.03810
1038.32675,0.03722
1036.26657,0.03664
1034.20640,0.03627
1032.14623,0.03580
1030.08606,0.03512
1028.02589,0.03433
1025.96571,0.03353
1023.90554,0.03277
1021.84537,0.03213
1019.78520,0.03151
1017.72503,0.03083
1015.66485,0.03014
1013.60468,0.02951
1011.54451,0.02896
1009.48434,0.02843
1007.42417,0.02789
1005.36399,0.02741
1003.30382,0.02703
1001.24365,0.02684
999.18348,0.02701
997.12330,0.02749
995.06313,0.02798
993.00296,0.02827
990.94279,0.02850
988.88262,0.02887
986.82244,0.02928
984.76227,0.02939
982.70210,0.02918
980.64193,0.02871
978.58176,0.02785
976.52158,0.02679
974.46141,0.02590
972.40124,0.02518
970.34107,0.02432
968.28089,0.02316
966.22072,0.02194
964.16055,0.02094
962.10038,0.02011
960.04021,0.01923
957.98003,0.01820
955.91986,0.01727
953.85969,0.01649
951.79952,0.01572
949.73935,0.01494
947.67917,0.01428
945.61900,0.01385
943.55883,0.01364
941.49866,0.01348
939.43849,0.01329
937.37831,0.01294
935.31814,0.01240
933.25797,0.01196
931.19780,0.01181
929.13762,0.01172
927.07745,0.01157
925.01728,0.01138
922.95711,0.01128
920.89694,0.01126
918.83676,0.01102
916.77659,0.01040
914.71642,0.00967
912.65625,0.00910
910.59608,0.00890
908.53590,0.00897
906.47573,0.00901
904.41556,0.00902
902.35539,0.00914
900.29522,0.00925
898.23504,0.00912
896.17487,0.00881
894.11470,0.00874
892.05453,0.00906
889.99435,0.00932
887.93418,0.00945
885.87401,0.00963
883.81384,0.00978
881.75367,0.00989
879.69349,0.01015
877.63332,0.01052
875.57315,0.01081
873.51298,0.01109
871.45281,0.01126
869.39263,0.01102
867.33246,0.01084
865.27229,0.01095
863.21212,0.01098
861.15194,0.01090
859.09177,0.01085
857.03160,0.01087
854.97143,0.01081
852.91126,0.01051
850.85108,0.01014
848.79091,0.00987
846.73074,0.00962
844.67057,0.00942
842.61040,0.00944
840.55022,0.00952
838.49005,0.00938
836.42988,0.00897
834.36971,0.00858
832.30954,0.00828
830.24936,0.00788
828.18919,0.00751
826.12902,0.00730
824.06885,0.00708
822.00867,0.00669
819.94850,0.00624
817.88833,0.00601
815.82816,0.00606
813.76799,0.00619
811.70781,0.00623
809.64764,0.00615
807.58747,0.00592
805.52730,0.00557
803.46713,0.00540
801.40695,0.00543
799.34678,0.00544
797.28661,0.00539
795.22644,0.00519
793.16627,0.00488
791.10609,0.00460
789.04592,0.00432
786.98575,0.00403
784.92558,0.00381
782.86540,0.00398
780.80523,0.00451
778.74506,0.00495
776.68489,0.00502
774.62472,0.00486
772.56454,0.00459
770.50437,0.00430
768.44420,0.00421
766.38403,0.00433
764.32386,0.00442
762.26368,0.00437
760.20351,0.00435
758.14334,0.00420
756.08317,0.00366
754.02299,0.00322
751.96282,0.00315
749.90265,0.00323
747.84248,0.00320
745.78231,0.00296
743.72213,0.00295
741.66196,0.00338
739.60179,0.00372
737.54162,0.00362
735.48145,0.00314
733.42127,0.00273
731.36110,0.00296
729.30093,0.00363
727.24076,0.00388
725.18059,0.00359
723.12041,0.00336
721.06024,0.00354
719.00007,0.00378
716.93990,0.00369
714.87972,0.00360
712.81955,0.00381
710.75938,0.00404
708.69921,0.00406
706.63904,0.00402
704.57886,0.00419
702.51869,0.00462
700.45852,0.00485
698.39835,0.00445
696.33818,0.00384
694.27800,0.00353
692.21783,0.00323
690.15766,0.00301
688.09749,0.00331
686.03731,0.00377
683.97714,0.00376
681.91697,0.00329
679.85680,0.00277
677.79663,0.00265
675.73645,0.00327
673.67628,0.00435
671.61611,0.00488
669.55594,0.00432
667.49577,0.00344
665.43559,0.00323
663.37542,0.00343
661.31525,0.00323
659.25508,0.00236
657.19491,0.00152
655.13473,0.00118
653.07456,0.00128
651.01439,0.00191
648.95422,0.00305
646.89404,0.00408
644.83387,0.00435
642.77370,0.00414
640.71353,0.00427
638.65336,0.00458
636.59318,0.00438
634.53301,0.00349
632.47284,0.00266
630.41267,0.00255
628.35250,0.00240
626.29232,0.00150
624.23215,0.00132
622.17198,0.00202
620.11181,0.00302
618.05164,0.00460
615.99146,0.00489
613.93129,0.00304
611.87112,0.00163
609.81095,0.00224
607.75077,0.00253
605.69060,0.00085
603.63043,0.00000
601.57026,0.00001
599.51009,0.00000
