3996.73391,0.00090
3994.67373,0.00067
3992.61356,0.00038
3990.55339,0.00038
3988.49322,0.00065
3986.43305,0.00072
3984.37287,0.00057
3982.31270,0.00053
3980.25253,0.00046
3978.19236,0.00020
3976.13219,0.00000
3974.07201,0.00002
3972.01184,0.00009
3969.95167,0.00013
3967.89150,0.00022
3965.83133,0.00017
3963.77115,0.00007
3961.71098,0.00029
3959.65081,0.00063
3957.59064,0.00068
3955.53046,0.00058
3953.47029,0.00047
3951.41012,0.00037
3949.34995,0.00033
3947.28978,0.00034
3945.22960,0.00043
3943.16943,0.00062
3941.10926,0.00068
3939.04909,0.00053
3936.98892,0.00041
3934.92874,0.00043
3932.86857,0.00042
3930.80840,0.00046
3928.74823,0.00064
3926.68805,0.00076
3924.62788,0.00073
3922.56771,0.00065
3920.50754,0.00069
3918.44737,0.00094
3916.38719,0.00116
3914.32702,0.00109
3912.26685,0.00087
3910.20668,0.00074
3908.14651,0.00069
3906.08633,0.00064
3904.02616,0.00050
3901.96599,0.00038
3899.90582,0.00058
3897.84565,0.00094
3895.78547,0.00107
3893.72530,0.00091
3891.66513,0.00076
3889.60496,0.00071
3887.54478,0.00068
3885.48461,0.00077
3883.42444,0.00094
3881.36427,0.00109
3879.30410,0.00120
3877.24392,0.00113
3875.18375,0.00085
3873.12358,0.00058
3871.06341,0.00063
3869.00324,0.00108
3866.94306,0.00138
3864.88289,0.00128
3862.82272,0.00101
3860.76255,0.00072
3858.70237,0.00044
3856.64220,0.00047
3854.58203,0.00108
3852.52186,0.00167
3850.46169,0.00154
3848.40151,0.00114
3846.34134,0.00080
3844.28117,0.00056
3842.22100,0.00045
3840.16083,0.00044
3838.10065,0.00071
3836.04048,0.00112
3833.98031,0.00125
3831.92014,0.00103
3829.85997,0.00073
3827.79979,0.00053
3825.73962,0.00045
3823.67945,0.00041
3821.61928,0.00049
3819.55910,0.00073
3817.49893,0.00087
3815.43876,0.00074
3813.37859,0.00054
3811.31842,0.00046
3809.25824,0.00047
3807.19807,0.00069
3805.13790,0.00106
3803.07773,0.00142
3801.01756,0.00164
3798.95738,0.00157
3796.89721,0.00133
3794.83704,0.00118
3792.77687,0.00114
3790.71670,0.00108
3788.65652,0.00099
3786.59635,0.00098
3784.53618,0.00107
3782.47601,0.00110
3780.41583,0.00111
3778.35566,0.00135
3776.29549,0.00164
3774.23532,0.00164
3772.17515,0.00147
3770.11497,0.00146
3768.05480,0.00166
3765.99463,0.00187
3763.93446,0.00181
3761.87429,0.00153
3759.81411,0.00145
3757.75394,0.00145
3755.69377,0.00111
3753.63360,0.00068
3751.57342,0.00031
3749.51325,0.00000
3747.45308,0.00004
3745.39291,0.00043
3743.33274,0.00088
3741.27256,0.00112
3739.21239,0.00105
3737.15222,0.00101
3735.09205,0.00137
3733.03188,0.00192
3730.97170,0.00201
3728.91153,0.00147
3726.85136,0.00086
3724.79119,0.00086
3722.73102,0.00131
3720.67084,0.00160
3718.61067,0.00161
3716.55050,0.00147
3714.49033,0.00113
3712.43015,0.00075
3710.36998,0.00080
3708.30981,0.00125
3706.24964,0.00151
3704.18947,0.00135
3702.12929,0.00120
3700.06912,0.00151
3698.00895,0.00208
3695.94878,0.00244
3693.88861,0.00242
3691.82843,0.00237
3689.76826,0.00254
3687.70809,0.00250
3685.64792,0.00218
3683.58775,0.00212
3681.52757,0.00236
3679.46740,0.00238
3677.40723,0.00218
3675.34706,0.00217
3673.28688,0.00243
3671.22671,0.00299
3669.16654,0.00369
3667.10637,0.00394
3665.04620,0.00373
3662.98602,0.00348
3660.92585,0.00342
3658.86568,0.00363
3656.80551,0.00401
3654.74534,0.00422
3652.68516,0.00401
3650.62499,0.00381
3648.56482,0.00455
3646.50465,0.00574
3644.44447,0.00619
3642.38430,0.00603
3640.32413,0.00579
3638.26396,0.00580
3636.20379,0.00626
3634.14361,0.00697
3632.08344,0.00759
3630.02327,0.00825
3627.96310,0.00908
3625.90293,0.00947
3623.84275,0.00951
3621.78258,0.00995
3619.72241,0.01096
3617.66224,0.01169
3615.60207,0.01169
3613.54189,0.01167
3611.48172,0.01217
3609.42155,0.01296
3607.36138,0.01373
3605.30120,0.01427
3603.24103,0.01455
3601.18086,0.01472
3599.12069,0.01469
3597.06052,0.01462
3595.00034,0.01530
3592.94017,0.01656
3590.88000,0.01730
3588.81983,0.01748
3586.75966,0.01768
3584.69948,0.01788
3582.63931,0.01818
3580.57914,0.01868
3578.51897,0.01908
3576.45879,0.01938
3574.39862,0.01982
3572.33845,0.02016
3570.27828,0.02007
3568.21811,0.01989
3566.15793,0.02040
3564.09776,0.02155
3562.03759,0.02241
3559.97742,0.02262
3557.91725,0.02271
3555.85707,0.02313
3553.79690,0.02387
3551.73673,0.02482
3549.67656,0.02555
3547.61639,0.02563
3545.55621,0.02554
3543.49604,0.02578
3541.43587,0.02606
3539.37570,0.02636
3537.31552,0.02695
3535.25535,0.02765
3533.19518,0.02811
3531.13501,0.02849
3529.07484,0.02900
3527.01466,0.02954
3524.95449,0.03005
3522.89432,0.03058
3520.83415,0.03088
3518.77398,0.03092
3516.71380,0.03108
3514.65363,0.03140
3512.59346,0.03173
3510.53329,0.03212
3508.47312,0.03256
3506.41294,0.03291
3504.35277,0.03317
3502.29260,0.03359
3500.23243,0.03420
3498.17225,0.03472
3496.11208,0.03501
3494.05191,0.03521
3491.99174,0.03544
3489.93157,0.03583
3487.87139,0.03649
3485.81122,0.03703
3483.75105,0.03719
3481.69088,0.03737
3479.63071,0.03766
3477.57053,0.03778
3475.51036,0.03790
3473.45019,0.03829
3471.39002,0.03879
3469.32984,0.03935
3467.26967,0.03989
3465.20950,0.04019
3463.14933,0.04020
3461.08916,0.04022
3459.02898,0.04058
3456.96881,0.04129
3454.90864,0.04200
3452.84847,0.04243
3450.78830,0.04264
3448.72812,0.04286
3446.66795,0.04324
3444.60778,0.04356
3442.54761,0.04360
3440.48744,0.04357
3438.42726,0.04370
3436.36709,0.04392
3434.30692,0.04412
3432.24675,0.04427
3430.18657,0.04455
3428.12640,0.04508
3426.06623,0.04551
3424.00606,0.04562
3421.94589,0.04569
3419.88571,0.04602
3417.82554,0.04651
3415.76537,0.04681
3413.70520,0.04704
3411.64503,0.04743
3409.58485,0.04766
3407.52468,0.04767
3405.46451,0.04780
3403.40434,0.04822
3401.34416,0.04865
3399.28399,0.04877
3397.22382,0.04880
3395.16365,0.04895
3393.10348,0.04907
3391.04330,0.04915
3388.98313,0.04922
3386.92296,0.04928
3384.86279,0.04947
3382.80262,0.04981
3380.74244,0.05030
3378.68227,0.05079
3376.62210,0.05104
3374.56193,0.05109
3372.50176,0.05091
3370.44158,0.05056
3368.38141,0.05040
3366.32124,0.05063
3364.26107,0.05112
3362.20089,0.05149
3360.14072,0.05152
3358.08055,0.05134
3356.02038,0.05117
3353.96021,0.05107
3351.90003,0.05103
3349.83986,0.05110
3347.77969,0.05130
3345.71952,0.05149
3343.65935,0.05166
3341.59917,0.05173
3339.53900,0.05160
3337.47883,0.05154
3335.41866,0.05164
3333.35849,0.05183
3331.29831,0.05213
3329.23814,0.05256
3327.17797,0.05285
3325.11780,0.05275
3323.05762,0.05254
3320.99745,0.05250
3318.93728,0.05253
3316.87711,0.05262
3314.81694,0.05283
3312.75676,0.05295
3310.69659,0.05275
3308.63642,0.05254
3306.57625,0.05278
3304.51608,0.05321
3302.45590,0.05338
3300.39573,0.05330
3298.33556,0.05325
3296.27539,0.05331
3294.21521,0.05332
3292.15504,0.05344
3290.09487,0.05374
3288.03470,0.05389
3285.97453,0.05380
3283.91435,0.05364
3281.85418,0.05365
3279.79401,0.05391
3277.73384,0.05409
3275.67367,0.05386
3273.61349,0.05346
3271.55332,0.05331
3269.49315,0.05361
3267.43298,0.05406
3265.37281,0.05426
3263.31263,0.05403
3261.25246,0.05356
3259.19229,0.05345
3257.13212,0.05391
3255.07194,0.05447
3253.01177,0.05452
3250.95160,0.05404
3248.89143,0.05361
3246.83126,0.05362
3244.77108,0.05392
3242.71091,0.05403
3240.65074,0.05379
3238.59057,0.05365
3236.53040,0.05364
3234.47022,0.05343
3232.41005,0.05330
3230.34988,0.05348
3228.28971,0.05372
3226.22954,0.05394
3224.16936,0.05404
3222.10919,0.05398
3220.04902,0.05394
3217.98885,0.05399
3215.92867,0.05407
3213.86850,0.05407
3211.80833,0.05387
3209.74816,0.05352
3207.68799,0.05326
3205.62781,0.05338
3203.56764,0.05365
3201.50747,0.05354
3199.44730,0.05327
3197.38713,0.05329
3195.32695,0.05325
3193.26678,0.05285
3191.20661,0.05244
3189.14644,0.05242
3187.08626,0.05287
3185.02609,0.05322
3182.96592,0.05300
3180.90575,0.05257
3178.84558,0.05228
3176.78540,0.05198
3174.72523,0.05179
3172.66506,0.05185
3170.60489,0.05183
3168.54472,0.05155
3166.48454,0.05122
3164.42437,0.05102
3162.36420,0.05087
3160.30403,0.05061
3158.24386,0.05040
3156.18368,0.05038
3154.12351,0.05036
3152.06334,0.05022
3150.00317,0.05006
3147.94299,0.04982
3145.88282,0.04954
3143.82265,0.04945
3141.76248,0.04939
3139.70231,0.04927
3137.64213,0.04916
3135.58196,0.04897
3133.52179,0.04875
3131.46162,0.04865
3129.40145,0.04846
3127.34127,0.04814
3125.28110,0.04801
3123.22093,0.04794
3121.16076,0.04774
3119.10058,0.04767
3117.04041,0.04772
3114.98024,0.04761
3112.92007,0.04731
3110.85990,0.04681
3108.79972,0.04627
3106.73955,0.04595
3104.67938,0.04576
3102.61921,0.04557
3100.55904,0.04548
3098.49886,0.04545
3096.43869,0.04542
3094.37852,0.04538
3092.31835,0.04520
3090.25818,0.04482
3088.19800,0.04432
3086.13783,0.04390
3084.07766,0.04376
3082.01749,0.04373
3079.95731,0.04352
3077.89714,0.04326
3075.83697,0.04307
3073.77680,0.04283
3071.71663,0.04262
3069.65645,0.04251
3067.59628,0.04228
3065.53611,0.04192
3063.47594,0.04172
3061.41577,0.04160
3059.35559,0.04130
3057.29542,0.04092
3055.23525,0.04056
3053.17508,0.04025
3051.11491,0.04011
3049.05473,0.04013
3046.99456,0.04008
3044.93439,0.03988
3042.87422,0.03973
3040.81404,0.03955
3038.75387,0.03917
3036.69370,0.03867
3034.63353,0.03828
3032.57336,0.03807
3030.51318,0.03803
3028.45301,0.03798
3026.39284,0.03772
3024.33267,0.03740
3022.27250,0.03716
3020.21232,0.03699
3018.15215,0.03693
3016.09198,0.03678
3014.03181,0.03633
3011.97163,0.03588
3009.91146,0.03570
3007.85129,0.03562
3005.79112,0.03539
3003.73095,0.03501
3001.67077,0.03469
2999.61060,0.03447
2997.55043,0.03418
2995.49026,0.03381
2993.43009,0.03364
2991.36991,0.03372
2989.30974,0.03379
2987.24957,0.03374
2985.18940,0.03360
2983.12923,0.03333
2981.06905,0.03305
2979.00888,0.03283
2976.94871,0.03257
2974.88854,0.03247
2972.82836,0.03237
2970.76819,0.03211
2968.70802,0.03193
2966.64785,0.03200
2964.58768,0.03223
2962.52750,0.03240
2960.46733,0.03238
2958.40716,0.03224
2956.34699,0.03208
2954.28682,0.03199
2952.22664,0.03195
2950.16647,0.03189
2948.10630,0.03188
2946.04613,0.03190
2943.98596,0.03181
2941.92578,0.03170
2939.86561,0.03168
2937.80544,0.03159
2935.74527,0.03139
2933.68509,0.03129
2931.62492,0.03133
2929.56475,0.03123
2927.50458,0.03087
2925.44441,0.03058
2923.38423,0.03046
2921.32406,0.03044
2919.26389,0.03047
2917.20372,0.03029
2915.14355,0.02992
2913.08337,0.02966
2911.02320,0.02960
2908.96303,0.02950
2906.90286,0.02925
2904.84268,0.02914
2902.78251,0.02917
2900.72234,0.02912
2898.66217,0.02907
2896.60200,0.02907
2894.54182,0.02893
2892.48165,0.02865
2890.42148,0.02850
2888.36131,0.02845
2886.30114,0.02844
2884.24096,0.02859
2882.18079,0.02870
2880.12062,0.02849
2878.06045,0.02816
2876.00028,0.02809
2873.94010,0.02818
2871.87993,0.02796
2869.81976,0.02754
2867.75959,0.02736
2865.69941,0.02722
2863.63924,0.02696
2861.57907,0.02684
2859.51890,0.02694
2857.45873,0.02703
2855.39855,0.02668
2853.33838,0.02608
2851.27821,0.02575
2849.21804,0.02579
2847.15787,0.02577
2845.09769,0.02555
2843.03752,0.02538
2840.97735,0.02545
2838.91718,0.02558
2836.85700,0.02542
2834.79683,0.02499
2832.73666,0.02463
2830.67649,0.02450
2828.61632,0.02456
2826.55614,0.02458
2824.49597,0.02450
2822.43580,0.02438
2820.37563,0.02417
2818.31546,0.02404
2816.25528,0.02402
2814.19511,0.02387
2812.13494,0.02378
2810.07477,0.02377
2808.01460,0.02357
2805.95442,0.02334
2803.89425,0.02318
2801.83408,0.02304
2799.77391,0.02290
2797.71373,0.02277
2795.65356,0.02276
2793.59339,0.02285
2791.53322,0.02277
2789.47305,0.02247
2787.41287,0.02214
2785.35270,0.02197
2783.29253,0.02191
2781.23236,0.02190
2779.17219,0.02196
2777.11201,0.02187
2775.05184,0.02150
2772.99167,0.02116
2770.93150,0.02109
2768.87133,0.02113
2766.81115,0.02113
2764.75098,0.02111
2762.69081,0.02107
2760.63064,0.02089
2758.57046,0.02054
2756.51029,0.02021
2754.45012,0.02006
2752.38995,0.02024
2750.32978,0.02053
2748.26960,0.02059
2746.20943,0.02040
2744.14926,0.02012
2742.08909,0.01986
2740.02892,0.01959
2737.96874,0.01950
2735.90857,0.01970
2733.84840,0.01988
2731.78823,0.01982
2729.72805,0.01968
2727.66788,0.01954
2725.60771,0.01928
2723.54754,0.01902
2721.48737,0.01886
2719.42719,0.01875
2717.36702,0.01860
2715.30685,0.01835
2713.24668,0.01820
2711.18651,0.01816
2709.12633,0.01810
2707.06616,0.01805
2705.00599,0.01787
2702.94582,0.01756
2700.88565,0.01730
2698.82547,0.01717
2696.76530,0.01713
2694.70513,0.01709
2692.64496,0.01699
2690.58478,0.01687
2688.52461,0.01671
2686.46444,0.01662
2684.40427,0.01669
2682.34410,0.01666
2680.28392,0.01641
2678.22375,0.01614
2676.16358,0.01600
2674.10341,0.01584
2672.04324,0.01563
2669.98306,0.01530
2667.92289,0.01489
2665.86272,0.01482
2663.80255,0.01512
2661.74238,0.01529
2659.68220,0.01517
2657.62203,0.01491
2655.56186,0.01472
2653.50169,0.01459
2651.44151,0.01437
2649.38134,0.01414
2647.32117,0.01390
2645.26100,0.01379
2643.20083,0.01391
2641.14065,0.01403
2639.08048,0.01402
2637.02031,0.01385
2634.96014,0.01347
2632.89997,0.01305
2630.83979,0.01281
2628.77962,0.01262
2626.71945,0.01249
2624.65928,0.01257
2622.59910,0.01269
2620.53893,0.01262
2618.47876,0.01246
2616.41859,0.01237
2614.35842,0.01226
2612.29824,0.01201
2610.23807,0.01175
2608.17790,0.01161
2606.11773,0.01155
2604.05756,0.01154
2601.99738,0.01164
2599.93721,0.01156
2597.87704,0.01109
2595.81687,0.01071
2593.75670,0.01090
2591.69652,0.01137
2589.63635,0.01156
2587.57618,0.01142
2585.51601,0.01122
2583.45583,0.01104
2581.39566,0.01090
2579.33549,0.01094
2577.27532,0.01115
2575.21515,0.01118
2573.15497,0.01097
2571.09480,0.01076
2569.03463,0.01071
2566.97446,0.01081
2564.91429,0.01102
2562.85411,0.01099
2560.79394,0.01057
2558.73377,0.01013
2556.67360,0.00972
2554.61342,0.00946
2552.55325,0.00968
2550.49308,0.01018
2548.43291,0.01052
2546.37274,0.01048
2544.31256,0.01033
2542.25239,0.01031
2540.19222,0.01021
2538.13205,0.01003
2536.07188,0.00993
2534.01170,0.01000
2531.95153,0.01027
2529.89136,0.01058
2527.83119,0.01092
2525.77102,0.01111
2523.71084,0.01088
2521.65067,0.01086
2519.59050,0.01113
2517.53033,0.01090
2515.47015,0.01041
2513.40998,0.01040
2511.34981,0.01061
2509.28964,0.01067
2507.22947,0.01071
2505.16929,0.01078
2503.10912,0.01084
2501.04895,0.01085
2498.98878,0.01082
2496.92861,0.01081
2494.86843,0.01066
2492.80826,0.01032
2490.74809,0.01011
2488.68792,0.01040
2486.62775,0.01106
2484.56757,0.01139
2482.50740,0.01116
2480.44723,0.01095
2478.38706,0.01101
2476.32688,0.01117
2474.26671,0.01114
2472.20654,0.01093
2470.14637,0.01109
2468.08620,0.01174
2466.02602,0.01222
2463.96585,0.01220
2461.90568,0.01174
2459.84551,0.01121
2457.78534,0.01117
2455.72516,0.01149
2453.66499,0.01165
2451.60482,0.01158
2449.54465,0.01152
2447.48447,0.01160
2445.42430,0.01165
2443.36413,0.01154
2441.30396,0.01142
2439.24379,0.01146
2437.18361,0.01179
2435.12344,0.01197
2433.06327,0.01170
2431.00310,0.01173
2428.94293,0.01215
2426.88275,0.01239
2424.82258,0.01240
2422.76241,0.01244
2420.70224,0.01254
2418.64207,0.01243
2416.58189,0.01226
2414.52172,0.01239
2412.46155,0.01237
2410.40138,0.01192
2408.34120,0.01157
2406.28103,0.01157
2404.22086,0.01166
2402.16069,0.01163
2400.10052,0.01158
2398.04034,0.01141
2395.98017,0.01145
2393.92000,0.01155
2391.85983,0.01171
2389.79966,0.01193
2387.73948,0.01208
2385.67931,0.01215
2383.61914,0.01217
2381.55897,0.01211
2379.49880,0.01210
2377.43862,0.01209
2375.37845,0.01195
2373.31828,0.01192
2371.25811,0.01205
2369.19793,0.01182
2367.13776,0.01115
2365.07759,0.01051
2363.01742,0.01076
2360.95725,0.01250
2358.89707,0.01352
2356.83690,0.01303
2354.77673,0.01376
2352.71656,0.01524
2350.65639,0.01538
2348.59621,0.01434
2346.53604,0.01295
2344.47587,0.01178
2342.41570,0.01167
2340.35552,0.01231
2338.29535,0.01249
2336.23518,0.01181
2334.17501,0.01078
2332.11484,0.01039
2330.05466,0.01133
2327.99449,0.01279
2325.93432,0.01336
2323.87415,0.01305
2321.81398,0.01268
2319.75380,0.01219
2317.69363,0.01145
2315.63346,0.01112
2313.57329,0.01143
2311.51312,0.01201
2309.45294,0.01237
2307.39277,0.01212
2305.33260,0.01144
2303.27243,0.01099
2301.21225,0.01098
2299.15208,0.01102
2297.09191,0.01092
2295.03174,0.01080
2292.97157,0.01075
2290.91139,0.01079
2288.85122,0.01090
2286.79105,0.01087
2284.73088,0.01063
2282.67071,0.01033
2280.61053,0.01007
2278.55036,0.01006
2276.49019,0.01030
2274.43002,0.01028
2272.36984,0.00975
2270.30967,0.00915
2268.24950,0.00885
2266.18933,0.00882
2264.12916,0.00906
2262.06898,0.00944
2260.00881,0.00948
2257.94864,0.00917
2255.88847,0.00905
2253.82830,0.00941
2251.76812,0.00968
2249.70795,0.00951
2247.64778,0.00947
2245.58761,0.00990
2243.52744,0.01011
2241.46726,0.00941
2239.40709,0.00865
2237.34692,0.00847
2235.28675,0.00823
2233.22657,0.00828
2231.16640,0.00851
2229.10623,0.00809
2227.04606,0.00756
2224.98589,0.00754
2222.92571,0.00785
2220.86554,0.00801
2218.80537,0.00741
2216.74520,0.00671
2214.68503,0.00718
2212.62485,0.00836
2210.56468,0.00880
2208.50451,0.00811
2206.44434,0.00757
2204.38417,0.00809
2202.32399,0.00823
2200.26382,0.00729
2198.20365,0.00665
2196.14348,0.00623
2194.08330,0.00589
2192.02313,0.00641
2189.96296,0.00691
2187.90279,0.00685
2185.84262,0.00611
2183.78244,0.00461
2181.72227,0.00414
2179.66210,0.00518
2177.60193,0.00592
2175.54176,0.00585
2173.48158,0.00577
2171.42141,0.00608
2169.36124,0.00657
2167.30107,0.00617
2165.24089,0.00460
2163.18072,0.00361
2161.12055,0.00312
2159.06038,0.00191
2157.00021,0.00159
2154.94003,0.00273
2152.87986,0.00361
2150.81969,0.00346
2148.75952,0.00348
2146.69935,0.00379
2144.63917,0.00347
2142.57900,0.00311
2140.51883,0.00300
2138.45866,0.00349
2136.39849,0.00481
2134.33831,0.00522
2132.27814,0.00416
2130.21797,0.00338
2128.15780,0.00379
2126.09762,0.00484
2124.03745,0.00557
2121.97728,0.00555
2119.91711,0.00516
2117.85694,0.00500
2115.79676,0.00533
2113.73659,0.00529
2111.67642,0.00470
2109.61625,0.00479
2107.55608,0.00531
2105.49590,0.00520
2103.43573,0.00471
2101.37556,0.00459
2099.31539,0.00447
2097.25521,0.00394
2095.19504,0.00355
2093.13487,0.00373
2091.07470,0.00405
2089.01453,0.00414
2086.95435,0.00407
2084.89418,0.00417
2082.83401,0.00461
2080.77384,0.00493
2078.71367,0.00468
2076.65349,0.00386
2074.59332,0.00331
2072.53315,0.00351
2070.47298,0.00361
2068.41281,0.00345
2066.35263,0.00327
2064.29246,0.00324
2062.23229,0.00395
2060.17212,0.00495
2058.11194,0.00538
2056.05177,0.00554
2053.99160,0.00583
2051.93143,0.00560
2049.87126,0.00428
2047.81108,0.00267
2045.75091,0.00165
2043.69074,0.00129
2041.63057,0.00145
2039.57040,0.00239
2037.51022,0.00410
2035.45005,0.00517
2033.38988,0.00434
2031.32971,0.00234
2029.26954,0.00054
2027.20936,0.00000
2025.14919,0.00083
2023.08902,0.00211
2021.02885,0.00323
2018.96867,0.00383
2016.90850,0.00370
2014.84833,0.00317
2012.78816,0.00282
2010.72799,0.00274
2008.66781,0.00232
2006.60764,0.00189
2004.54747,0.00251
2002.48730,0.00387
2000.42713,0.00436
1998.36695,0.00325
1996.30678,0.00203
1994.24661,0.00231
1992.18644,0.00311
1990.12626,0.00269
1988.06609,0.00165
1986.00592,0.00145
1983.94575,0.00159
1981.88558,0.00083
1979.82540,0.00014
1977.76523,0.00064
1975.70506,0.00148
1973.64489,0.00174
1971.58472,0.00172
1969.52454,0.00173
1967.46437,0.00120
1965.40420,0.00052
1963.34403,0.00049
1961.28386,0.00057
1959.22368,0.00063
1957.16351,0.00120
1955.10334,0.00190
1953.04317,0.00204
1950.98299,0.00177
1948.92282,0.00142
1946.86265,0.00086
1944.80248,0.00038
1942.74231,0.00050
1940.68213,0.00086
1938.62196,0.00078
1936.56179,0.00057
1934.50162,0.00069
1932.44145,0.00083
1930.38127,0.00113
1928.32110,0.00171
1926.26093,0.00205
1924.20076,0.00202
1922.14059,0.00212
1920.08041,0.00250
1918.02024,0.00258
1915.96007,0.00206
1913.89990,0.00157
1911.83972,0.00155
1909.77955,0.00171
1907.71938,0.00166
1905.65921,0.00150
1903.59904,0.00149
1901.53886,0.00149
1899.47869,0.00138
1897.41852,0.00135
1895.35835,0.00147
1893.29818,0.00151
1891.23800,0.00147
1889.17783,0.00163
1887.11766,0.00191
1885.05749,0.00190
1882.99731,0.00169
1880.93714,0.00160
1878.87697,0.00170
1876.81680,0.00195
1874.75663,0.00203
1872.69645,0.00175
1870.63628,0.00149
1868.57611,0.00153
1866.51594,0.00167
1864.45577,0.00157
1862.39559,0.00153
1860.33542,0.00179
1858.27525,0.00200
1856.21508,0.00196
1854.15491,0.00189
1852.09473,0.00176
1850.03456,0.00147
1847.97439,0.00118
1845.91422,0.00115
1843.85404,0.00150
1841.79387,0.00194
1839.73370,0.00212
1837.67353,0.00213
1835.61336,0.00213
1833.55318,0.00204
1831.49301,0.00187
1829.43284,0.00174
1827.37267,0.00175
1825.31250,0.00189
1823.25232,0.00206
1821.19215,0.00218
1819.13198,0.00218
1817.07181,0.00205
1815.01163,0.00187
1812.95146,0.00170
1810.89129,0.00174
1808.83112,0.00190
1806.77095,0.00195
1804.71077,0.00202
1802.65060,0.00224
1800.59043,0.00244
1798.53026,0.00246
1796.47009,0.00233
1794.40991,0.00236
1792.34974,0.00267
1790.28957,0.00295
1788.22940,0.00305
1786.16923,0.00313
1784.10905,0.00316
1782.04888,0.00299
1779.98871,0.00272
1777.92854,0.00255
1775.86836,0.00240
1773.80819,0.00228
1771.74802,0.00240
1769.68785,0.00274
1767.62768,0.00316
1765.56750,0.00350
1763.50733,0.00363
1761.44716,0.00365
1759.38699,0.00373
1757.32682,0.00389
1755.26664,0.00394
1753.20647,0.00389
1751.14630,0.00400
1749.08613,0.00426
1747.02596,0.00438
1744.96578,0.00443
1742.90561,0.00462
1740.84544,0.00497
1738.78527,0.00520
1736.72509,0.00514
1734.66492,0.00521
1732.60475,0.00567
1730.54458,0.00612
1728.48441,0.00634
1726.42423,0.00643
1724.36406,0.00649
1722.30389,0.00654
1720.24372,0.00660
1718.18355,0.00695
1716.12337,0.00756
1714.06320,0.00794
1712.00303,0.00802
1709.94286,0.00798
1707.88268,0.00796
1705.82251,0.00810
1703.76234,0.00833
1701.70217,0.00867
1699.64200,0.00938
1697.58182,0.01019
1695.52165,0.01082
1693.46148,0.01124
1691.40131,0.01144
1689.34114,0.01164
1687.28096,0.01193
1685.22079,0.01238
1683.16062,0.01318
1681.10045,0.01396
1679.04028,0.01445
1676.98010,0.01488
1674.91993,0.01536
1672.85976,0.01574
1670.79959,0.01600
1668.73941,0.01639
1666.67924,0.01677
1664.61907,0.01699
1662.55890,0.01736
1660.49873,0.01789
1658.43855,0.01809
1656.37838,0.01787
1654.31821,0.01773
1652.25804,0.01806
1650.19787,0.01823
1648.13769,0.01811
1646.07752,0.01811
1644.01735,0.01818
1641.95718,0.01819
1639.89701,0.01813
1637.83683,0.01801
1635.77666,0.01791
1633.71649,0.01771
1631.65632,0.01729
1629.59614,0.01684
1627.53597,0.01654
1625.47580,0.01628
1623.41563,0.01604
1621.35546,0.01586
1619.29528,0.01559
1617.23511,0.01540
1615.17494,0.01545
1613.11477,0.01536
1611.05460,0.01497
1608.99442,0.01461
1606.93425,0.01450
1604.87408,0.01445
1602.81391,0.01422
1600.75373,0.01372
1598.69356,0.01311
1596.63339,0.01256
1594.57322,0.01211
1592.51305,0.01166
1590.45287,0.01115
1588.39270,0.01062
1586.33253,0.01011
1584.27236,0.00958
1582.21219,0.00904
1580.15201,0.00857
1578.09184,0.00825
1576.03167,0.00807
1573.97150,0.00783
1571.91133,0.00738
1569.85115,0.00691
1567.79098,0.00665
1565.73081,0.00652
1563.67064,0.00633
1561.61046,0.00607
1559.55029,0.00590
1557.49012,0.00578
1555.42995,0.00540
1553.36978,0.00487
1551.30960,0.00442
1549.24943,0.00413
1547.18926,0.00381
1545.12909,0.00326
1543.06892,0.00275
1541.00874,0.00270
1538.94857,0.00301
1536.88840,0.00311
1534.82823,0.00301
1532.76805,0.00295
1530.70788,0.00283
1528.64771,0.00255
1526.58754,0.00215
1524.52737,0.00184
1522.46719,0.00182
1520.40702,0.00188
1518.34685,0.00175
1516.28668,0.00156
1514.22651,0.00140
1512.16633,0.00120
1510.10616,0.00102
1508.04599,0.00107
1505.98582,0.00131
1503.92565,0.00130
1501.86547,0.00108
1499.80530,0.00092
1497.74513,0.00091
1495.68496,0.00086
1493.62478,0.00062
1491.56461,0.00040
1489.50444,0.00048
1487.44427,0.00078
1485.38410,0.00098
1483.32392,0.00105
1481.26375,0.00112
1479.20358,0.00115
1477.14341,0.00108
1475.08324,0.00099
1473.02306,0.00118
1470.96289,0.00160
1468.90272,0.00180
1466.84255,0.00179
1464.78238,0.00191
1462.72220,0.00214
1460.66203,0.00221
1458.60186,0.00227
1456.54169,0.00252
1454.48151,0.00263
1452.42134,0.00244
1450.36117,0.00228
1448.30100,0.00233
1446.24083,0.00245
1444.18065,0.00237
1442.12048,0.00203
1440.06031,0.00173
1438.00014,0.00174
1435.93997,0.00198
1433.87979,0.00208
1431.81962,0.00201
1429.75945,0.00197
1427.69928,0.00202
1425.63910,0.00209
1423.57893,0.00215
1421.51876,0.00226
1419.45859,0.00245
1417.39842,0.00260
1415.33824,0.00254
1413.27807,0.00247
1411.21790,0.00253
1409.15773,0.00260
1407.09756,0.00256
1405.03738,0.00246
1402.97721,0.00236
1400.91704,0.00223
1398.85687,0.00205
1396.79670,0.00184
1394.73652,0.00180
1392.67635,0.00192
1390.61618,0.00198
1388.55601,0.00193
1386.49583,0.00194
1384.43566,0.00207
1382.37549,0.00212
1380.31532,0.00203
1378.25515,0.00200
1376.19497,0.00209
1374.13480,0.00218
1372.07463,0.00219
1370.01446,0.00222
1367.95429,0.00226
1365.89411,0.00220
1363.83394,0.00209
1361.77377,0.00203
1359.71360,0.00195
1357.65343,0.00189
1355.59325,0.00185
1353.53308,0.00172
1351.47291,0.00151
1349.41274,0.00137
1347.35256,0.00133
1345.29239,0.00135
1343.23222,0.00138
1341.17205,0.00140
1339.11188,0.00141
1337.05170,0.00136
1334.99153,0.00129
1332.93136,0.00135
1330.87119,0.00150
1328.81102,0.00163
1326.75084,0.00169
1324.69067,0.00167
1322.63050,0.00162
1320.57033,0.00162
1318.51015,0.00162
1316.44998,0.00159
1314.38981,0.00158
1312.32964,0.00160
1310.26947,0.00160
1308.20929,0.00160
1306.14912,0.00162
1304.08895,0.00170
1302.02878,0.00183
1299.96861,0.00191
1297.90843,0.00192
1295.84826,0.00197
1293.78809,0.00209
1291.72792,0.00227
1289.66775,0.00249
1287.60757,0.00257
1285.54740,0.00257
1283.48723,0.00263
1281.42706,0.00277
1279.36688,0.00291
1277.30671,0.00303
1275.24654,0.00310
1273.18637,0.00310
1271.12620,0.00305
1269.06602,0.00292
1267.00585,0.00282
1264.94568,0.00283
1262.88551,0.00296
1260.82534,0.00326
1258.76516,0.00360
1256.70499,0.00361
1254.64482,0.00327
1252.58465,0.00292
1250.52447,0.00277
1248.46430,0.00264
1246.40413,0.00234
1244.34396,0.00199
1242.28379,0.00185
1240.22361,0.00184
1238.16344,0.00178
1236.10327,0.00179
1234.04310,0.00181
1231.98293,0.00167
1229.92275,0.00142
1227.86258,0.00131
1225.80241,0.00135
1223.74224,0.00127
1221.68207,0.00101
1219.62189,0.00076
1217.56172,0.00063
1215.50155,0.00053
1213.44138,0.00036
1211.38120,0.00014
1209.32103,0.00000
1207.26086,-0.00008
1205.20069,-0.00004
1203.14052,0.00020
1201.08034,0.00055
1199.02017,0.00064
1196.96000,0.00050
1194.89983,0.00054
1192.83966,0.00090
1190.77948,0.00144
1188.71931,0.00202
1186.65914,0.00264
1184.59897,0.00336
1182.53880,0.00407
1180.47862,0.00466
1178.41845,0.00528
1176.35828,0.00621
1174.29811,0.00735
1172.23793,0.00849
1170.17776,0.00962
1168.11759,0.01074
1166.05742,0.01167
1163.99725,0.01237
1161.93707,0.01312
1159.87690,0.01392
1157.81673,0.01470
1155.75656,0.01555
1153.69639,0.01641
1151.63621,0.01722
1149.57604,0.01809
1147.51587,0.01911
1145.45570,0.02030
1143.39552,0.02151
1141.33535,0.02268
1139.27518,0.02392
1137.21501,0.02528
1135.15484,0.02663
1133.09466,0.02787
1131.03449,0.02894
1128.97432,0.03000
1126.91415,0.03134
1124.85398,0.03289
1122.79380,0.03427
1120.73363,0.03542
1118.67346,0.03650
1116.61329,0.03767
1114.55312,0.03905
1112.49294,0.04058
1110.43277,0.04214
1108.37260,0.04357
1106.31243,0.04483
1104.25225,0.04610
1102.19208,0.04754
1100.13191,0.04913
1098.07174,0.05077
1096.01157,0.05240
1093.95139,0.05388
1091.89122,0.05508
1089.83105,0.05615
1087.77088,0.05721
1085.71071,0.05827
1083.65053,0.05943
1081.59036,0.06073
1079.53019,0.06209
1077.47002,0.06328
1075.40985,0.06405
1073.34967,0.06476
1071.28950,0.06554
1069.22933,0.06609
1067.16916,0.06637
1065.10898,0.06631
1063.04881,0.06603
1060.98864,0.06585
1058.92847,0.06568
1056.86830,0.06544
1054.80812,0.06510
1052.74795,0.06448
1050.68778,0.06374
1048.62761,0.06297
1046.56744,0.06185
1044.50726,0.06036
1042.44709,0.05888
1040.38692,0.05754
1038.32675,0.05625
1036.26657,0.05492
1034.20640,0.05348
1032.14623,0.05202
1030.08606,0.05076
1028.02589,0.04952
1025.96571,0.04805
1023.90554,0.04667
1021.84537,0.04565
1019.78520,0.04482
1017.72503,0.04385
1015.66485,0.04273
1013.60468,0.04177
1011.54451,0.04104
1009.48434,0.04050
1007.42417,0.04029
1005.36399,0.04031
1003.30382,0.04021
1001.24365,0.04014
999.18348,0.04046
997.12330,0.04122
995.06313,0.04222
993.00296,0.04324
990.94279,0.04423
988.88262,0.04512
986.82244,0.04574
984.76227,0.04605
982.70210,0.04603
980.64193,0.04578
978.58176,0.04542
976.52158,0.04470
974.46141,0.04352
972.40124,0.04204
970.34107,0.04021
968.28089,0.03818
966.22072,0.03638
964.16055,0.03478
962.10038,0.03314
960.04021,0.03157
957.98003,0.03008
955.91986,0.02876
953.85969,0.02807
951.79952,0.02768
949.73935,0.02697
947.67917,0.02629
945.61900,0.02611
943.55883,0.02606
941.49866,0.02569
939.43849,0.02530
937.37831,0.02514
935.31814,0.02495
933.25797,0.02473
931.19780,0.02467
929.13762,0.02464
927.07745,0.02453
925.01728,0.02428
922.95711,0.02377
920.89694,0.02307
918.83676,0.02232
916.77659,0.02126
914.71642,0.02015
912.65625,0.01954
910.59608,0.01915
908.53590,0.01854
906.47573,0.01809
904.41556,0.01814
902.35539,0.01829
900.29522,0.01820
898.23504,0.01794
896.17487,0.01775
894.11470,0.01787
892.05453,0.01817
889.99435,0.01835
887.93418,0.01843
885.87401,0.01849
883.81384,0.01869
881.75367,0.01924
879.69349,0.01999
877.63332,0.02068
875.57315,0.02109
873.51298,0.02145
871.45281,0.02211
869.39263,0.02293
867.33246,0.02355
865.27229,0.02378
863.21212,0.02377
861.15194,0.02341
859.09177,0.02265
857.03160,0.02198
854.97143,0.02161
852.91126,0.02127
850.85108,0.02073
848.79091,0.02019
846.73074,0.01963
844.67057,0.01887
842.61040,0.01807
840.55022,0.01730
838.49005,0.01654
836.42988,0.01589
834.36971,0.01558
832.30954,0.01528
830.24936,0.01442
828.18919,0.01331
826.12902,0.01249
824.06885,0.01183
822.00867,0.01106
819.94850,0.01047
817.88833,0.01030
815.82816,0.01010
813.76799,0.00942
811.70781,0.00850
809.64764,0.00801
807.58747,0.00796
805.52730,0.00785
803.46713,0.00775
801.40695,0.00761
799.34678,0.00735
797.28661,0.00711
795.22644,0.00666
793.16627,0.00601
791.10609,0.00528
789.04592,0.00470
786.98575,0.00469
784.92558,0.00515
782.86540,0.00564
780.80523,0.00585
778.74506,0.00570
776.68489,0.00555
774.62472,0.00563
772.56454,0.00572
770.50437,0.00558
768.44420,0.00506
766.38403,0.00443
764.32386,0.00426
762.26368,0.00430
760.20351,0.00406
758.14334,0.00375
756.08317,0.00359
754.02299,0.00359
751.96282,0.00338
749.90265,0.00297
747.84248,0.00261
745.78231,0.00211
743.72213,0.00182
741.66196,0.00231
739.60179,0.00273
737.54162,0.00246
735.48145,0.00233
733.42127,0.00236
731.36110,0.00214
729.30093,0.00198
727.24076,0.00187
725.18059,0.00203
723.12041,0.00278
721.06024,0.00293
719.00007,0.00265
716.93990,0.00269
714.87972,0.00295
712.81955,0.00325
710.75938,0.00369
708.69921,0.00399
706.63904,0.00381
704.57886,0.00337
702.51869,0.00292
700.45852,0.00240
698.39835,0.00200
696.33818,0.00209
694.27800,0.00225
692.21783,0.00203
690.15766,0.00190
688.09749,0.00235
686.03731,0.00298
683.97714,0.00301
681.91697,0.00236
679.85680,0.00155
677.79663,0.00140
675.73645,0.00232
673.67628,0.00315
671.61611,0.00279
669.55594,0.00253
667.49577,0.00355
665.43559,0.00418
663.37542,0.00423
661.31525,0.00381
659.25508,0.00390
657.19491,0.00459
655.13473,0.00460
653.07456,0.00380
651.01439,0.00307
648.95422,0.00278
646.89404,0.00261
644.83387,0.00249
642.77370,0.00284
640.71353,0.00332
638.65336,0.00346
636.59318,0.00351
634.53301,0.00308
632.47284,0.00147
630.41267,0.00000
628.35250,-0.00002
626.29232,0.00120
624.23215,0.00173
622.17198,0.00091
620.11181,-0.00039
618.05164,-0.00027
615.99146,0.00115
613.93129,0.00135
611.87112,-0.00109
609.81095,-0.00332
607.75077,-0.00286
605.69060,-0.00148
603.63043,-0.00048
601.57026,0.00046
599.51009,0.00000
