Created as New Dataset,Sample 347 By Analyst Date Wednesday, February 05 2025
cm-1,%T
4000.00,92.79
3999.00,92.79
3998.00,92.79
3997.00,92.79
3996.00,92.78
3995.00,92.78
3994.00,92.78
3993.00,92.78
3992.00,92.78
3991.00,92.78
3990.00,92.78
3989.00,92.78
3988.00,92.78
3987.00,92.78
3986.00,92.78
3985.00,92.78
3984.00,92.78
3983.00,92.78
3982.00,92.79
3981.00,92.79
3980.00,92.79
3979.00,92.79
3978.00,92.79
3977.00,92.79
3976.00,92.79
3975.00,92.79
3974.00,92.79
3973.00,92.79
3972.00,92.79
3971.00,92.79
3970.00,92.79
3969.00,92.79
3968.00,92.79
3967.00,92.79
3966.00,92.79
3965.00,92.79
3964.00,92.79
3963.00,92.79
3962.00,92.79
3961.00,92.78
3960.00,92.78
3959.00,92.78
3958.00,92.78
3957.00,92.77
3956.00,92.77
3955.00,92.77
3954.00,92.77
3953.00,92.76
3952.00,92.76
3951.00,92.76
3950.00,92.76
3949.00,92.76
3948.00,92.76
3947.00,92.76
3946.00,92.75
3945.00,92.75
3944.00,92.75
3943.00,92.75
3942.00,92.75
3941.00,92.75
3940.00,92.75
3939.00,92.75
3938.00,92.75
3937.00,92.75
3936.00,92.75
3935.00,92.75
3934.00,92.76
3933.00,92.76
3932.00,92.76
3931.00,92.76
3930.00,92.76
3929.00,92.76
3928.00,92.76
3927.00,92.76
3926.00,92.77
3925.00,92.77
3924.00,92.77
3923.00,92.77
3922.00,92.77
3921.00,92.78
3920.00,92.78
3919.00,92.79
3918.00,92.79
3917.00,92.79
3916.00,92.78
3915.00,92.78
3914.00,92.78
3913.00,92.78
3912.00,92.78
3911.00,92.78
3910.00,92.78
3909.00,92.78
3908.00,92.78
3907.00,92.78
3906.00,92.78
3905.00,92.79
3904.00,92.79
3903.00,92.79
3902.00,92.79
3901.00,92.79
3900.00,92.79
3899.00,92.78
3898.00,92.77
3897.00,92.77
3896.00,92.77
3895.00,92.77
3894.00,92.76
3893.00,92.76
3892.00,92.76
3891.00,92.76
3890.00,92.76
3889.00,92.76
3888.00,92.76
3887.00,92.77
3886.00,92.77
3885.00,92.76
3884.00,92.75
3883.00,92.76
3882.00,92.77
3881.00,92.77
3880.00,92.76
3879.00,92.76
3878.00,92.76
3877.00,92.77
3876.00,92.78
3875.00,92.78
3874.00,92.77
3873.00,92.76
3872.00,92.77
3871.00,92.78
3870.00,92.79
3869.00,92.78
3868.00,92.77
3867.00,92.78
3866.00,92.79
3865.00,92.79
3864.00,92.78
3863.00,92.77
3862.00,92.78
3861.00,92.79
3860.00,92.79
3859.00,92.78
3858.00,92.76
3857.00,92.75
3856.00,92.74
3855.00,92.74
3854.00,92.75
3853.00,92.76
3852.00,92.76
3851.00,92.76
3850.00,92.76
3849.00,92.76
3848.00,92.76
3847.00,92.75
3846.00,92.75
3845.00,92.76
3844.00,92.76
3843.00,92.76
3842.00,92.75
3841.00,92.75
3840.00,92.75
3839.00,92.76
3838.00,92.76
3837.00,92.76
3836.00,92.75
3835.00,92.75
3834.00,92.75
3833.00,92.75
3832.00,92.75
3831.00,92.75
3830.00,92.75
3829.00,92.75
3828.00,92.76
3827.00,92.76
3826.00,92.76
3825.00,92.76
3824.00,92.77
3823.00,92.78
3822.00,92.79
3821.00,92.79
3820.00,92.77
3819.00,92.77
3818.00,92.78
3817.00,92.79
3816.00,92.79
3815.00,92.78
3814.00,92.77
3813.00,92.78
3812.00,92.79
3811.00,92.78
3810.00,92.78
3809.00,92.78
3808.00,92.79
3807.00,92.80
3806.00,92.79
3805.00,92.78
3804.00,92.79
3803.00,92.80
3802.00,92.80
3801.00,92.78
3800.00,92.77
3799.00,92.78
3798.00,92.79
3797.00,92.78
3796.00,92.77
3795.00,92.76
3794.00,92.76
3793.00,92.76
3792.00,92.75
3791.00,92.75
3790.00,92.74
3789.00,92.74
3788.00,92.74
3787.00,92.74
3786.00,92.74
3785.00,92.74
3784.00,92.74
3783.00,92.74
3782.00,92.74
3781.00,92.74
3780.00,92.74
3779.00,92.74
3778.00,92.73
3777.00,92.73
3776.00,92.74
3775.00,92.74
3774.00,92.74
3773.00,92.73
3772.00,92.74
3771.00,92.74
3770.00,92.74
3769.00,92.74
3768.00,92.74
3767.00,92.75
3766.00,92.75
3765.00,92.75
3764.00,92.75
3763.00,92.75
3762.00,92.76
3761.00,92.76
3760.00,92.76
3759.00,92.75
3758.00,92.76
3757.00,92.76
3756.00,92.76
3755.00,92.77
3754.00,92.78
3753.00,92.78
3752.00,92.78
3751.00,92.79
3750.00,92.80
3749.00,92.79
3748.00,92.78
3747.00,92.78
3746.00,92.78
3745.00,92.79
3744.00,92.78
3743.00,92.76
3742.00,92.77
3741.00,92.78
3740.00,92.79
3739.00,92.79
3738.00,92.79
3737.00,92.80
3736.00,92.80
3735.00,92.79
3734.00,92.79
3733.00,92.79
3732.00,92.79
3731.00,92.78
3730.00,92.77
3729.00,92.77
3728.00,92.78
3727.00,92.78
3726.00,92.78
3725.00,92.77
3724.00,92.78
3723.00,92.78
3722.00,92.78
3721.00,92.78
3720.00,92.77
3719.00,92.78
3718.00,92.78
3717.00,92.78
3716.00,92.78
3715.00,92.79
3714.00,92.79
3713.00,92.80
3712.00,92.80
3711.00,92.79
3710.00,92.79
3709.00,92.79
3708.00,92.78
3707.00,92.78
3706.00,92.77
3705.00,92.77
3704.00,92.76
3703.00,92.76
3702.00,92.75
3701.00,92.74
3700.00,92.73
3699.00,92.73
3698.00,92.73
3697.00,92.72
3696.00,92.72
3695.00,92.71
3694.00,92.71
3693.00,92.71
3692.00,92.70
3691.00,92.69
3690.00,92.69
3689.00,92.68
3688.00,92.68
3687.00,92.67
3686.00,92.66
3685.00,92.66
3684.00,92.65
3683.00,92.64
3682.00,92.64
3681.00,92.64
3680.00,92.64
3679.00,92.64
3678.00,92.64
3677.00,92.65
3676.00,92.66
3675.00,92.65
3674.00,92.64
3673.00,92.64
3672.00,92.66
3671.00,92.66
3670.00,92.65
3669.00,92.63
3668.00,92.63
3667.00,92.64
3666.00,92.64
3665.00,92.64
3664.00,92.63
3663.00,92.64
3662.00,92.64
3661.00,92.64
3660.00,92.65
3659.00,92.65
3658.00,92.66
3657.00,92.66
3656.00,92.67
3655.00,92.67
3654.00,92.68
3653.00,92.70
3652.00,92.72
3651.00,92.72
3650.00,92.72
3649.00,92.72
3648.00,92.72
3647.00,92.71
3646.00,92.71
3645.00,92.70
3644.00,92.69
3643.00,92.69
3642.00,92.69
3641.00,92.68
3640.00,92.68
3639.00,92.69
3638.00,92.69
3637.00,92.69
3636.00,92.69
3635.00,92.69
3634.00,92.69
3633.00,92.69
3632.00,92.69
3631.00,92.70
3630.00,92.70
3629.00,92.70
3628.00,92.70
3627.00,92.69
3626.00,92.70
3625.00,92.70
3624.00,92.69
3623.00,92.68
3622.00,92.68
3621.00,92.68
3620.00,92.68
3619.00,92.68
3618.00,92.68
3617.00,92.69
3616.00,92.69
3615.00,92.69
3614.00,92.69
3613.00,92.69
3612.00,92.69
3611.00,92.70
3610.00,92.70
3609.00,92.70
3608.00,92.70
3607.00,92.69
3606.00,92.69
3605.00,92.69
3604.00,92.69
3603.00,92.69
3602.00,92.69
3601.00,92.69
3600.00,92.69
3599.00,92.69
3598.00,92.69
3597.00,92.69
3596.00,92.69
3595.00,92.69
3594.00,92.69
3593.00,92.69
3592.00,92.69
3591.00,92.69
3590.00,92.69
3589.00,92.69
3588.00,92.69
3587.00,92.68
3586.00,92.68
3585.00,92.67
3584.00,92.67
3583.00,92.66
3582.00,92.66
3581.00,92.65
3580.00,92.64
3579.00,92.64
3578.00,92.64
3577.00,92.64
3576.00,92.63
3575.00,92.63
3574.00,92.63
3573.00,92.63
3572.00,92.63
3571.00,92.63
3570.00,92.64
3569.00,92.64
3568.00,92.64
3567.00,92.63
3566.00,92.63
3565.00,92.63
3564.00,92.63
3563.00,92.63
3562.00,92.62
3561.00,92.62
3560.00,92.62
3559.00,92.62
3558.00,92.62
3557.00,92.62
3556.00,92.62
3555.00,92.62
3554.00,92.62
3553.00,92.62
3552.00,92.63
3551.00,92.63
3550.00,92.63
3549.00,92.64
3548.00,92.64
3547.00,92.64
3546.00,92.64
3545.00,92.64
3544.00,92.64
3543.00,92.64
3542.00,92.64
3541.00,92.64
3540.00,92.64
3539.00,92.64
3538.00,92.64
3537.00,92.64
3536.00,92.64
3535.00,92.64
3534.00,92.64
3533.00,92.64
3532.00,92.64
3531.00,92.63
3530.00,92.63
3529.00,92.63
3528.00,92.63
3527.00,92.63
3526.00,92.63
3525.00,92.63
3524.00,92.63
3523.00,92.63
3522.00,92.63
3521.00,92.62
3520.00,92.62
3519.00,92.62
3518.00,92.62
3517.00,92.63
3516.00,92.63
3515.00,92.63
3514.00,92.63
3513.00,92.63
3512.00,92.63
3511.00,92.63
3510.00,92.63
3509.00,92.63
3508.00,92.64
3507.00,92.64
3506.00,92.64
3505.00,92.65
3504.00,92.65
3503.00,92.65
3502.00,92.65
3501.00,92.65
3500.00,92.65
3499.00,92.65
3498.00,92.66
3497.00,92.66
3496.00,92.66
3495.00,92.66
3494.00,92.65
3493.00,92.65
3492.00,92.65
3491.00,92.65
3490.00,92.65
3489.00,92.66
3488.00,92.65
3487.00,92.65
3486.00,92.65
3485.00,92.65
3484.00,92.64
3483.00,92.64
3482.00,92.64
3481.00,92.64
3480.00,92.64
3479.00,92.63
3478.00,92.63
3477.00,92.62
3476.00,92.62
3475.00,92.62
3474.00,92.61
3473.00,92.61
3472.00,92.61
3471.00,92.61
3470.00,92.61
3469.00,92.60
3468.00,92.60
3467.00,92.60
3466.00,92.59
3465.00,92.59
3464.00,92.59
3463.00,92.59
3462.00,92.59
3461.00,92.58
3460.00,92.59
3459.00,92.59
3458.00,92.59
3457.00,92.59
3456.00,92.58
3455.00,92.58
3454.00,92.58
3453.00,92.59
3452.00,92.59
3451.00,92.59
3450.00,92.59
3449.00,92.59
3448.00,92.59
3447.00,92.59
3446.00,92.59
3445.00,92.59
3444.00,92.59
3443.00,92.59
3442.00,92.59
3441.00,92.59
3440.00,92.59
3439.00,92.59
3438.00,92.59
3437.00,92.59
3436.00,92.59
3435.00,92.59
3434.00,92.58
3433.00,92.58
3432.00,92.58
3431.00,92.58
3430.00,92.58
3429.00,92.57
3428.00,92.57
3427.00,92.57
3426.00,92.57
3425.00,92.57
3424.00,92.57
3423.00,92.56
3422.00,92.56
3421.00,92.56
3420.00,92.56
3419.00,92.56
3418.00,92.56
3417.00,92.56
3416.00,92.57
3415.00,92.57
3414.00,92.57
3413.00,92.57
3412.00,92.57
3411.00,92.58
3410.00,92.58
3409.00,92.58
3408.00,92.58
3407.00,92.59
3406.00,92.59
3405.00,92.60
3404.00,92.60
3403.00,92.61
3402.00,92.62
3401.00,92.62
3400.00,92.62
3399.00,92.62
3398.00,92.63
3397.00,92.63
3396.00,92.63
3395.00,92.64
3394.00,92.64
3393.00,92.65
3392.00,92.65
3391.00,92.65
3390.00,92.66
3389.00,92.66
3388.00,92.66
3387.00,92.66
3386.00,92.66
3385.00,92.66
3384.00,92.66
3383.00,92.66
3382.00,92.66
3381.00,92.66
3380.00,92.66
3379.00,92.66
3378.00,92.66
3377.00,92.66
3376.00,92.66
3375.00,92.66
3374.00,92.66
3373.00,92.67
3372.00,92.67
3371.00,92.67
3370.00,92.67
3369.00,92.67
3368.00,92.67
3367.00,92.66
3366.00,92.66
3365.00,92.66
3364.00,92.66
3363.00,92.65
3362.00,92.65
3361.00,92.66
3360.00,92.66
3359.00,92.66
3358.00,92.66
3357.00,92.66
3356.00,92.66
3355.00,92.66
3354.00,92.66
3353.00,92.66
3352.00,92.66
3351.00,92.66
3350.00,92.67
3349.00,92.67
3348.00,92.67
3347.00,92.66
3346.00,92.66
3345.00,92.67
3344.00,92.67
3343.00,92.67
3342.00,92.67
3341.00,92.67
3340.00,92.67
3339.00,92.67
3338.00,92.67
3337.00,92.67
3336.00,92.67
3335.00,92.67
3334.00,92.67
3333.00,92.67
3332.00,92.67
3331.00,92.66
3330.00,92.66
3329.00,92.66
3328.00,92.66
3327.00,92.66
3326.00,92.65
3325.00,92.65
3324.00,92.65
3323.00,92.64
3322.00,92.64
3321.00,92.64
3320.00,92.63
3319.00,92.63
3318.00,92.63
3317.00,92.62
3316.00,92.62
3315.00,92.61
3314.00,92.61
3313.00,92.61
3312.00,92.60
3311.00,92.60
3310.00,92.59
3309.00,92.59
3308.00,92.58
3307.00,92.58
3306.00,92.57
3305.00,92.57
3304.00,92.56
3303.00,92.56
3302.00,92.56
3301.00,92.56
3300.00,92.56
3299.00,92.56
3298.00,92.57
3297.00,92.57
3296.00,92.58
3295.00,92.59
3294.00,92.60
3293.00,92.60
3292.00,92.61
3291.00,92.61
3290.00,92.62
3289.00,92.62
3288.00,92.63
3287.00,92.63
3286.00,92.64
3285.00,92.64
3284.00,92.65
3283.00,92.65
3282.00,92.65
3281.00,92.66
3280.00,92.66
3279.00,92.66
3278.00,92.66
3277.00,92.67
3276.00,92.67
3275.00,92.67
3274.00,92.68
3273.00,92.68
3272.00,92.68
3271.00,92.68
3270.00,92.68
3269.00,92.68
3268.00,92.68
3267.00,92.68
3266.00,92.68
3265.00,92.67
3264.00,92.67
3263.00,92.67
3262.00,92.67
3261.00,92.67
3260.00,92.67
3259.00,92.67
3258.00,92.67
3257.00,92.67
3256.00,92.67
3255.00,92.67
3254.00,92.67
3253.00,92.66
3252.00,92.66
3251.00,92.66
3250.00,92.66
3249.00,92.66
3248.00,92.66
3247.00,92.67
3246.00,92.66
3245.00,92.66
3244.00,92.66
3243.00,92.66
3242.00,92.66
3241.00,92.66
3240.00,92.66
3239.00,92.66
3238.00,92.66
3237.00,92.67
3236.00,92.67
3235.00,92.67
3234.00,92.67
3233.00,92.67
3232.00,92.67
3231.00,92.67
3230.00,92.67
3229.00,92.67
3228.00,92.67
3227.00,92.66
3226.00,92.66
3225.00,92.66
3224.00,92.66
3223.00,92.66
3222.00,92.66
3221.00,92.66
3220.00,92.65
3219.00,92.65
3218.00,92.65
3217.00,92.64
3216.00,92.64
3215.00,92.64
3214.00,92.63
3213.00,92.63
3212.00,92.63
3211.00,92.62
3210.00,92.62
3209.00,92.62
3208.00,92.61
3207.00,92.61
3206.00,92.61
3205.00,92.61
3204.00,92.60
3203.00,92.60
3202.00,92.60
3201.00,92.60
3200.00,92.60
3199.00,92.59
3198.00,92.59
3197.00,92.59
3196.00,92.59
3195.00,92.59
3194.00,92.60
3193.00,92.60
3192.00,92.60
3191.00,92.60
3190.00,92.60
3189.00,92.60
3188.00,92.60
3187.00,92.60
3186.00,92.60
3185.00,92.60
3184.00,92.60
3183.00,92.61
3182.00,92.61
3181.00,92.61
3180.00,92.61
3179.00,92.61
3178.00,92.61
3177.00,92.62
3176.00,92.62
3175.00,92.62
3174.00,92.62
3173.00,92.62
3172.00,92.62
3171.00,92.62
3170.00,92.62
3169.00,92.62
3168.00,92.62
3167.00,92.62
3166.00,92.62
3165.00,92.62
3164.00,92.61
3163.00,92.61
3162.00,92.61
3161.00,92.61
3160.00,92.61
3159.00,92.60
3158.00,92.60
3157.00,92.60
3156.00,92.60
3155.00,92.60
3154.00,92.60
3153.00,92.60
3152.00,92.59
3151.00,92.59
3150.00,92.59
3149.00,92.59
3148.00,92.59
3147.00,92.59
3146.00,92.59
3145.00,92.59
3144.00,92.59
3143.00,92.59
3142.00,92.59
3141.00,92.59
3140.00,92.59
3139.00,92.59
3138.00,92.59
3137.00,92.59
3136.00,92.59
3135.00,92.59
3134.00,92.59
3133.00,92.59
3132.00,92.59
3131.00,92.60
3130.00,92.60
3129.00,92.60
3128.00,92.59
3127.00,92.59
3126.00,92.59
3125.00,92.59
3124.00,92.60
3123.00,92.60
3122.00,92.60
3121.00,92.60
3120.00,92.60
3119.00,92.59
3118.00,92.59
3117.00,92.59
3116.00,92.58
3115.00,92.58
3114.00,92.58
3113.00,92.57
3112.00,92.57
3111.00,92.57
3110.00,92.56
3109.00,92.56
3108.00,92.55
3107.00,92.55
3106.00,92.55
3105.00,92.54
3104.00,92.54
3103.00,92.54
3102.00,92.54
3101.00,92.53
3100.00,92.53
3099.00,92.53
3098.00,92.53
3097.00,92.53
3096.00,92.53
3095.00,92.53
3094.00,92.53
3093.00,92.53
3092.00,92.53
3091.00,92.52
3090.00,92.52
3089.00,92.52
3088.00,92.52
3087.00,92.52
3086.00,92.52
3085.00,92.52
3084.00,92.52
3083.00,92.52
3082.00,92.52
3081.00,92.52
3080.00,92.52
3079.00,92.52
3078.00,92.52
3077.00,92.52
3076.00,92.52
3075.00,92.52
3074.00,92.52
3073.00,92.52
3072.00,92.52
3071.00,92.52
3070.00,92.53
3069.00,92.53
3068.00,92.53
3067.00,92.53
3066.00,92.53
3065.00,92.53
3064.00,92.52
3063.00,92.52
3062.00,92.52
3061.00,92.52
3060.00,92.52
3059.00,92.52
3058.00,92.52
3057.00,92.52
3056.00,92.52
3055.00,92.51
3054.00,92.51
3053.00,92.51
3052.00,92.51
3051.00,92.51
3050.00,92.51
3049.00,92.50
3048.00,92.50
3047.00,92.50
3046.00,92.50
3045.00,92.50
3044.00,92.50
3043.00,92.50
3042.00,92.50
3041.00,92.50
3040.00,92.50
3039.00,92.50
3038.00,92.49
3037.00,92.49
3036.00,92.50
3035.00,92.50
3034.00,92.50
3033.00,92.50
3032.00,92.50
3031.00,92.50
3030.00,92.50
3029.00,92.50
3028.00,92.50
3027.00,92.50
3026.00,92.50
3025.00,92.50
3024.00,92.51
3023.00,92.51
3022.00,92.51
3021.00,92.51
3020.00,92.51
3019.00,92.51
3018.00,92.52
3017.00,92.52
3016.00,92.52
3015.00,92.52
3014.00,92.52
3013.00,92.52
3012.00,92.51
3011.00,92.51
3010.00,92.51
3009.00,92.51
3008.00,92.51
3007.00,92.51
3006.00,92.51
3005.00,92.51
3004.00,92.51
3003.00,92.51
3002.00,92.51
3001.00,92.51
3000.00,92.51
2999.00,92.51
2998.00,92.51
2997.00,92.50
2996.00,92.50
2995.00,92.50
2994.00,92.50
2993.00,92.50
2992.00,92.50
2991.00,92.50
2990.00,92.50
2989.00,92.50
2988.00,92.50
2987.00,92.50
2986.00,92.50
2985.00,92.50
2984.00,92.50
2983.00,92.51
2982.00,92.51
2981.00,92.51
2980.00,92.51
2979.00,92.51
2978.00,92.51
2977.00,92.51
2976.00,92.52
2975.00,92.52
2974.00,92.52
2973.00,92.52
2972.00,92.52
2971.00,92.52
2970.00,92.52
2969.00,92.53
2968.00,92.53
2967.00,92.53
2966.00,92.53
2965.00,92.53
2964.00,92.53
2963.00,92.53
2962.00,92.53
2961.00,92.53
2960.00,92.53
2959.00,92.53
2958.00,92.52
2957.00,92.52
2956.00,92.52
2955.00,92.52
2954.00,92.52
2953.00,92.52
2952.00,92.52
2951.00,92.52
2950.00,92.51
2949.00,92.51
2948.00,92.51
2947.00,92.51
2946.00,92.51
2945.00,92.51
2944.00,92.50
2943.00,92.50
2942.00,92.50
2941.00,92.50
2940.00,92.50
2939.00,92.49
2938.00,92.49
2937.00,92.49
2936.00,92.49
2935.00,92.49
2934.00,92.49
2933.00,92.49
2932.00,92.49
2931.00,92.49
2930.00,92.49
2929.00,92.49
2928.00,92.49
2927.00,92.49
2926.00,92.49
2925.00,92.49
2924.00,92.49
2923.00,92.49
2922.00,92.49
2921.00,92.49
2920.00,92.49
2919.00,92.50
2918.00,92.50
2917.00,92.50
2916.00,92.50
2915.00,92.51
2914.00,92.51
2913.00,92.51
2912.00,92.51
2911.00,92.52
2910.00,92.52
2909.00,92.52
2908.00,92.52
2907.00,92.52
2906.00,92.52
2905.00,92.52
2904.00,92.52
2903.00,92.52
2902.00,92.52
2901.00,92.52
2900.00,92.52
2899.00,92.52
2898.00,92.52
2897.00,92.52
2896.00,92.52
2895.00,92.51
2894.00,92.51
2893.00,92.51
2892.00,92.51
2891.00,92.51
2890.00,92.51
2889.00,92.51
2888.00,92.51
2887.00,92.50
2886.00,92.50
2885.00,92.50
2884.00,92.50
2883.00,92.50
2882.00,92.50
2881.00,92.50
2880.00,92.50
2879.00,92.50
2878.00,92.51
2877.00,92.51
2876.00,92.51
2875.00,92.51
2874.00,92.51
2873.00,92.51
2872.00,92.51
2871.00,92.51
2870.00,92.52
2869.00,92.52
2868.00,92.52
2867.00,92.52
2866.00,92.52
2865.00,92.52
2864.00,92.52
2863.00,92.53
2862.00,92.53
2861.00,92.53
2860.00,92.53
2859.00,92.53
2858.00,92.53
2857.00,92.53
2856.00,92.53
2855.00,92.52
2854.00,92.52
2853.00,92.52
2852.00,92.52
2851.00,92.52
2850.00,92.52
2849.00,92.51
2848.00,92.51
2847.00,92.51
2846.00,92.51
2845.00,92.51
2844.00,92.51
2843.00,92.51
2842.00,92.51
2841.00,92.51
2840.00,92.51
2839.00,92.51
2838.00,92.50
2837.00,92.50
2836.00,92.50
2835.00,92.50
2834.00,92.50
2833.00,92.50
2832.00,92.50
2831.00,92.50
2830.00,92.50
2829.00,92.50
2828.00,92.50
2827.00,92.50
2826.00,92.50
2825.00,92.50
2824.00,92.50
2823.00,92.50
2822.00,92.51
2821.00,92.51
2820.00,92.51
2819.00,92.51
2818.00,92.52
2817.00,92.52
2816.00,92.52
2815.00,92.52
2814.00,92.53
2813.00,92.53
2812.00,92.53
2811.00,92.53
2810.00,92.53
2809.00,92.53
2808.00,92.53
2807.00,92.54
2806.00,92.54
2805.00,92.54
2804.00,92.54
2803.00,92.54
2802.00,92.54
2801.00,92.54
2800.00,92.54
2799.00,92.54
2798.00,92.54
2797.00,92.54
2796.00,92.54
2795.00,92.53
2794.00,92.53
2793.00,92.53
2792.00,92.53
2791.00,92.53
2790.00,92.53
2789.00,92.53
2788.00,92.53
2787.00,92.53
2786.00,92.53
2785.00,92.53
2784.00,92.53
2783.00,92.53
2782.00,92.52
2781.00,92.52
2780.00,92.52
2779.00,92.52
2778.00,92.53
2777.00,92.53
2776.00,92.53
2775.00,92.53
2774.00,92.53
2773.00,92.53
2772.00,92.53
2771.00,92.53
2770.00,92.53
2769.00,92.53
2768.00,92.53
2767.00,92.53
2766.00,92.53
2765.00,92.53
2764.00,92.54
2763.00,92.54
2762.00,92.54
2761.00,92.54
2760.00,92.54
2759.00,92.55
2758.00,92.55
2757.00,92.55
2756.00,92.55
2755.00,92.55
2754.00,92.55
2753.00,92.55
2752.00,92.55
2751.00,92.55
2750.00,92.55
2749.00,92.55
2748.00,92.55
2747.00,92.55
2746.00,92.55
2745.00,92.54
2744.00,92.54
2743.00,92.54
2742.00,92.54
2741.00,92.54
2740.00,92.54
2739.00,92.54
2738.00,92.53
2737.00,92.53
2736.00,92.53
2735.00,92.53
2734.00,92.53
2733.00,92.53
2732.00,92.53
2731.00,92.53
2730.00,92.53
2729.00,92.53
2728.00,92.53
2727.00,92.53
2726.00,92.53
2725.00,92.53
2724.00,92.54
2723.00,92.54
2722.00,92.54
2721.00,92.54
2720.00,92.55
2719.00,92.55
2718.00,92.55
2717.00,92.56
2716.00,92.56
2715.00,92.56
2714.00,92.56
2713.00,92.56
2712.00,92.56
2711.00,92.56
2710.00,92.57
2709.00,92.57
2708.00,92.57
2707.00,92.57
2706.00,92.58
2705.00,92.58
2704.00,92.58
2703.00,92.58
2702.00,92.58
2701.00,92.58
2700.00,92.58
2699.00,92.58
2698.00,92.58
2697.00,92.58
2696.00,92.59
2695.00,92.59
2694.00,92.59
2693.00,92.59
2692.00,92.58
2691.00,92.58
2690.00,92.58
2689.00,92.58
2688.00,92.58
2687.00,92.58
2686.00,92.57
2685.00,92.57
2684.00,92.57
2683.00,92.57
2682.00,92.57
2681.00,92.57
2680.00,92.57
2679.00,92.56
2678.00,92.56
2677.00,92.56
2676.00,92.56
2675.00,92.56
2674.00,92.56
2673.00,92.56
2672.00,92.56
2671.00,92.56
2670.00,92.56
2669.00,92.56
2668.00,92.56
2667.00,92.56
2666.00,92.56
2665.00,92.56
2664.00,92.57
2663.00,92.57
2662.00,92.57
2661.00,92.57
2660.00,92.58
2659.00,92.58
2658.00,92.58
2657.00,92.58
2656.00,92.59
2655.00,92.59
2654.00,92.59
2653.00,92.60
2652.00,92.60
2651.00,92.60
2650.00,92.60
2649.00,92.60
2648.00,92.60
2647.00,92.61
2646.00,92.61
2645.00,92.61
2644.00,92.61
2643.00,92.61
2642.00,92.61
2641.00,92.61
2640.00,92.61
2639.00,92.61
2638.00,92.61
2637.00,92.61
2636.00,92.61
2635.00,92.61
2634.00,92.61
2633.00,92.60
2632.00,92.60
2631.00,92.60
2630.00,92.60
2629.00,92.60
2628.00,92.60
2627.00,92.60
2626.00,92.59
2625.00,92.59
2624.00,92.59
2623.00,92.59
2622.00,92.59
2621.00,92.59
2620.00,92.59
2619.00,92.59
2618.00,92.58
2617.00,92.58
2616.00,92.58
2615.00,92.58
2614.00,92.58
2613.00,92.58
2612.00,92.58
2611.00,92.58
2610.00,92.58
2609.00,92.58
2608.00,92.59
2607.00,92.59
2606.00,92.59
2605.00,92.59
2604.00,92.59
2603.00,92.59
2602.00,92.59
2601.00,92.60
2600.00,92.60
2599.00,92.60
2598.00,92.60
2597.00,92.60
2596.00,92.60
2595.00,92.60
2594.00,92.60
2593.00,92.60
2592.00,92.60
2591.00,92.60
2590.00,92.60
2589.00,92.60
2588.00,92.60
2587.00,92.60
2586.00,92.60
2585.00,92.60
2584.00,92.60
2583.00,92.60
2582.00,92.60
2581.00,92.60
2580.00,92.59
2579.00,92.59
2578.00,92.59
2577.00,92.59
2576.00,92.59
2575.00,92.59
2574.00,92.59
2573.00,92.59
2572.00,92.59
2571.00,92.59
2570.00,92.59
2569.00,92.59
2568.00,92.59
2567.00,92.59
2566.00,92.59
2565.00,92.59
2564.00,92.59
2563.00,92.59
2562.00,92.59
2561.00,92.59
2560.00,92.59
2559.00,92.60
2558.00,92.60
2557.00,92.60
2556.00,92.60
2555.00,92.60
2554.00,92.60
2553.00,92.61
2552.00,92.61
2551.00,92.61
2550.00,92.62
2549.00,92.62
2548.00,92.62
2547.00,92.63
2546.00,92.63
2545.00,92.63
2544.00,92.63
2543.00,92.64
2542.00,92.64
2541.00,92.64
2540.00,92.64
2539.00,92.64
2538.00,92.64
2537.00,92.64
2536.00,92.64
2535.00,92.64
2534.00,92.64
2533.00,92.64
2532.00,92.64
2531.00,92.64
2530.00,92.64
2529.00,92.64
2528.00,92.64
2527.00,92.63
2526.00,92.63
2525.00,92.63
2524.00,92.63
2523.00,92.63
2522.00,92.63
2521.00,92.63
2520.00,92.63
2519.00,92.63
2518.00,92.63
2517.00,92.63
2516.00,92.63
2515.00,92.64
2514.00,92.64
2513.00,92.64
2512.00,92.64
2511.00,92.64
2510.00,92.64
2509.00,92.65
2508.00,92.65
2507.00,92.65
2506.00,92.65
2505.00,92.66
2504.00,92.66
2503.00,92.66
2502.00,92.66
2501.00,92.67
2500.00,92.67
2499.00,92.67
2498.00,92.68
2497.00,92.68
2496.00,92.68
2495.00,92.69
2494.00,92.69
2493.00,92.69
2492.00,92.69
2491.00,92.69
2490.00,92.69
2489.00,92.69
2488.00,92.69
2487.00,92.69
2486.00,92.69
2485.00,92.69
2484.00,92.69
2483.00,92.69
2482.00,92.70
2481.00,92.70
2480.00,92.70
2479.00,92.70
2478.00,92.70
2477.00,92.70
2476.00,92.69
2475.00,92.69
2474.00,92.69
2473.00,92.69
2472.00,92.69
2471.00,92.69
2470.00,92.69
2469.00,92.69
2468.00,92.69
2467.00,92.69
2466.00,92.69
2465.00,92.69
2464.00,92.69
2463.00,92.69
2462.00,92.69
2461.00,92.69
2460.00,92.69
2459.00,92.69
2458.00,92.69
2457.00,92.69
2456.00,92.69
2455.00,92.69
2454.00,92.69
2453.00,92.69
2452.00,92.70
2451.00,92.70
2450.00,92.70
2449.00,92.70
2448.00,92.70
2447.00,92.70
2446.00,92.70
2445.00,92.70
2444.00,92.70
2443.00,92.70
2442.00,92.70
2441.00,92.69
2440.00,92.69
2439.00,92.69
2438.00,92.69
2437.00,92.69
2436.00,92.69
2435.00,92.69
2434.00,92.68
2433.00,92.68
2432.00,92.68
2431.00,92.68
2430.00,92.68
2429.00,92.67
2428.00,92.67
2427.00,92.67
2426.00,92.67
2425.00,92.66
2424.00,92.66
2423.00,92.66
2422.00,92.65
2421.00,92.65
2420.00,92.64
2419.00,92.64
2418.00,92.64
2417.00,92.63
2416.00,92.63
2415.00,92.63
2414.00,92.63
2413.00,92.63
2412.00,92.63
2411.00,92.63
2410.00,92.63
2409.00,92.63
2408.00,92.63
2407.00,92.63
2406.00,92.63
2405.00,92.63
2404.00,92.63
2403.00,92.64
2402.00,92.64
2401.00,92.64
2400.00,92.64
2399.00,92.64
2398.00,92.65
2397.00,92.65
2396.00,92.65
2395.00,92.65
2394.00,92.66
2393.00,92.66
2392.00,92.66
2391.00,92.66
2390.00,92.66
2389.00,92.66
2388.00,92.66
2387.00,92.66
2386.00,92.66
2385.00,92.66
2384.00,92.66
2383.00,92.66
2382.00,92.66
2381.00,92.66
2380.00,92.66
2379.00,92.66
2378.00,92.66
2377.00,92.65
2376.00,92.65
2375.00,92.65
2374.00,92.65
2373.00,92.65
2372.00,92.65
2371.00,92.65
2370.00,92.66
2369.00,92.66
2368.00,92.66
2367.00,92.67
2366.00,92.67
2365.00,92.67
2364.00,92.66
2363.00,92.66
2362.00,92.66
2361.00,92.66
2360.00,92.66
2359.00,92.65
2358.00,92.65
2357.00,92.65
2356.00,92.64
2355.00,92.64
2354.00,92.64
2353.00,92.64
2352.00,92.65
2351.00,92.66
2350.00,92.66
2349.00,92.66
2348.00,92.65
2347.00,92.65
2346.00,92.65
2345.00,92.66
2344.00,92.66
2343.00,92.67
2342.00,92.67
2341.00,92.66
2340.00,92.66
2339.00,92.66
2338.00,92.66
2337.00,92.66
2336.00,92.66
2335.00,92.66
2334.00,92.66
2333.00,92.66
2332.00,92.66
2331.00,92.66
2330.00,92.67
2329.00,92.67
2328.00,92.67
2327.00,92.67
2326.00,92.67
2325.00,92.67
2324.00,92.67
2323.00,92.68
2322.00,92.69
2321.00,92.69
2320.00,92.70
2319.00,92.70
2318.00,92.70
2317.00,92.69
2316.00,92.69
2315.00,92.69
2314.00,92.69
2313.00,92.69
2312.00,92.70
2311.00,92.70
2310.00,92.70
2309.00,92.70
2308.00,92.70
2307.00,92.70
2306.00,92.70
2305.00,92.70
2304.00,92.70
2303.00,92.70
2302.00,92.70
2301.00,92.70
2300.00,92.70
2299.00,92.70
2298.00,92.70
2297.00,92.70
2296.00,92.70
2295.00,92.70
2294.00,92.70
2293.00,92.70
2292.00,92.70
2291.00,92.70
2290.00,92.70
2289.00,92.70
2288.00,92.70
2287.00,92.71
2286.00,92.71
2285.00,92.71
2284.00,92.71
2283.00,92.71
2282.00,92.71
2281.00,92.71
2280.00,92.71
2279.00,92.71
2278.00,92.72
2277.00,92.72
2276.00,92.72
2275.00,92.72
2274.00,92.72
2273.00,92.72
2272.00,92.72
2271.00,92.72
2270.00,92.72
2269.00,92.72
2268.00,92.71
2267.00,92.71
2266.00,92.71
2265.00,92.71
2264.00,92.71
2263.00,92.70
2262.00,92.70
2261.00,92.70
2260.00,92.70
2259.00,92.70
2258.00,92.70
2257.00,92.69
2256.00,92.69
2255.00,92.69
2254.00,92.69
2253.00,92.69
2252.00,92.69
2251.00,92.69
2250.00,92.69
2249.00,92.69
2248.00,92.69
2247.00,92.69
2246.00,92.69
2245.00,92.69
2244.00,92.69
2243.00,92.69
2242.00,92.70
2241.00,92.70
2240.00,92.70
2239.00,92.70
2238.00,92.71
2237.00,92.71
2236.00,92.71
2235.00,92.72
2234.00,92.72
2233.00,92.72
2232.00,92.72
2231.00,92.73
2230.00,92.73
2229.00,92.73
2228.00,92.74
2227.00,92.74
2226.00,92.74
2225.00,92.75
2224.00,92.75
2223.00,92.75
2222.00,92.75
2221.00,92.75
2220.00,92.75
2219.00,92.75
2218.00,92.75
2217.00,92.75
2216.00,92.75
2215.00,92.75
2214.00,92.75
2213.00,92.75
2212.00,92.74
2211.00,92.74
2210.00,92.74
2209.00,92.74
2208.00,92.74
2207.00,92.74
2206.00,92.74
2205.00,92.74
2204.00,92.74
2203.00,92.74
2202.00,92.74
2201.00,92.74
2200.00,92.74
2199.00,92.74
2198.00,92.74
2197.00,92.74
2196.00,92.74
2195.00,92.75
2194.00,92.75
2193.00,92.75
2192.00,92.76
2191.00,92.76
2190.00,92.76
2189.00,92.77
2188.00,92.77
2187.00,92.77
2186.00,92.77
2185.00,92.78
2184.00,92.78
2183.00,92.78
2182.00,92.78
2181.00,92.78
2180.00,92.79
2179.00,92.79
2178.00,92.79
2177.00,92.79
2176.00,92.79
2175.00,92.79
2174.00,92.79
2173.00,92.79
2172.00,92.79
2171.00,92.79
2170.00,92.79
2169.00,92.79
2168.00,92.78
2167.00,92.78
2166.00,92.78
2165.00,92.78
2164.00,92.77
2163.00,92.77
2162.00,92.77
2161.00,92.77
2160.00,92.76
2159.00,92.76
2158.00,92.76
2157.00,92.76
2156.00,92.75
2155.00,92.75
2154.00,92.75
2153.00,92.75
2152.00,92.75
2151.00,92.75
2150.00,92.75
2149.00,92.74
2148.00,92.74
2147.00,92.74
2146.00,92.74
2145.00,92.75
2144.00,92.75
2143.00,92.75
2142.00,92.75
2141.00,92.75
2140.00,92.75
2139.00,92.76
2138.00,92.76
2137.00,92.76
2136.00,92.76
2135.00,92.77
2134.00,92.77
2133.00,92.77
2132.00,92.77
2131.00,92.78
2130.00,92.78
2129.00,92.78
2128.00,92.78
2127.00,92.79
2126.00,92.79
2125.00,92.79
2124.00,92.79
2123.00,92.79
2122.00,92.79
2121.00,92.79
2120.00,92.79
2119.00,92.79
2118.00,92.79
2117.00,92.79
2116.00,92.79
2115.00,92.79
2114.00,92.79
2113.00,92.79
2112.00,92.79
2111.00,92.79
2110.00,92.78
2109.00,92.78
2108.00,92.78
2107.00,92.78
2106.00,92.78
2105.00,92.78
2104.00,92.78
2103.00,92.78
2102.00,92.78
2101.00,92.78
2100.00,92.78
2099.00,92.78
2098.00,92.77
2097.00,92.77
2096.00,92.77
2095.00,92.77
2094.00,92.77
2093.00,92.77
2092.00,92.77
2091.00,92.77
2090.00,92.77
2089.00,92.76
2088.00,92.76
2087.00,92.76
2086.00,92.76
2085.00,92.76
2084.00,92.76
2083.00,92.76
2082.00,92.76
2081.00,92.76
2080.00,92.76
2079.00,92.77
2078.00,92.77
2077.00,92.77
2076.00,92.77
2075.00,92.77
2074.00,92.77
2073.00,92.77
2072.00,92.77
2071.00,92.78
2070.00,92.78
2069.00,92.78
2068.00,92.78
2067.00,92.78
2066.00,92.79
2065.00,92.79
2064.00,92.79
2063.00,92.79
2062.00,92.79
2061.00,92.79
2060.00,92.79
2059.00,92.79
2058.00,92.79
2057.00,92.79
2056.00,92.79
2055.00,92.79
2054.00,92.79
2053.00,92.78
2052.00,92.78
2051.00,92.78
2050.00,92.78
2049.00,92.78
2048.00,92.78
2047.00,92.77
2046.00,92.77
2045.00,92.77
2044.00,92.77
2043.00,92.76
2042.00,92.76
2041.00,92.76
2040.00,92.76
2039.00,92.76
2038.00,92.75
2037.00,92.75
2036.00,92.75
2035.00,92.75
2034.00,92.75
2033.00,92.75
2032.00,92.75
2031.00,92.75
2030.00,92.75
2029.00,92.75
2028.00,92.75
2027.00,92.75
2026.00,92.76
2025.00,92.76
2024.00,92.76
2023.00,92.77
2022.00,92.77
2021.00,92.77
2020.00,92.77
2019.00,92.78
2018.00,92.78
2017.00,92.78
2016.00,92.79
2015.00,92.79
2014.00,92.79
2013.00,92.79
2012.00,92.79
2011.00,92.79
2010.00,92.79
2009.00,92.79
2008.00,92.79
2007.00,92.79
2006.00,92.79
2005.00,92.78
2004.00,92.78
2003.00,92.77
2002.00,92.77
2001.00,92.77
2000.00,92.76
1999.00,92.76
1998.00,92.75
1997.00,92.75
1996.00,92.74
1995.00,92.74
1994.00,92.73
1993.00,92.73
1992.00,92.72
1991.00,92.71
1990.00,92.71
1989.00,92.71
1988.00,92.70
1987.00,92.70
1986.00,92.69
1985.00,92.69
1984.00,92.68
1983.00,92.68
1982.00,92.68
1981.00,92.68
1980.00,92.68
1979.00,92.68
1978.00,92.68
1977.00,92.68
1976.00,92.68
1975.00,92.68
1974.00,92.68
1973.00,92.68
1972.00,92.69
1971.00,92.69
1970.00,92.70
1969.00,92.70
1968.00,92.70
1967.00,92.71
1966.00,92.71
1965.00,92.71
1964.00,92.72
1963.00,92.72
1962.00,92.72
1961.00,92.72
1960.00,92.71
1959.00,92.71
1958.00,92.70
1957.00,92.69
1956.00,92.68
1955.00,92.68
1954.00,92.67
1953.00,92.67
1952.00,92.66
1951.00,92.66
1950.00,92.65
1949.00,92.65
1948.00,92.64
1947.00,92.64
1946.00,92.64
1945.00,92.64
1944.00,92.63
1943.00,92.63
1942.00,92.64
1941.00,92.64
1940.00,92.65
1939.00,92.65
1938.00,92.66
1937.00,92.66
1936.00,92.67
1935.00,92.67
1934.00,92.68
1933.00,92.68
1932.00,92.69
1931.00,92.69
1930.00,92.70
1929.00,92.70
1928.00,92.71
1927.00,92.71
1926.00,92.71
1925.00,92.71
1924.00,92.71
1923.00,92.71
1922.00,92.72
1921.00,92.72
1920.00,92.72
1919.00,92.73
1918.00,92.73
1917.00,92.73
1916.00,92.73
1915.00,92.73
1914.00,92.73
1913.00,92.73
1912.00,92.73
1911.00,92.73
1910.00,92.74
1909.00,92.74
1908.00,92.74
1907.00,92.74
1906.00,92.75
1905.00,92.75
1904.00,92.75
1903.00,92.75
1902.00,92.75
1901.00,92.75
1900.00,92.74
1899.00,92.74
1898.00,92.74
1897.00,92.74
1896.00,92.74
1895.00,92.73
1894.00,92.73
1893.00,92.73
1892.00,92.73
1891.00,92.72
1890.00,92.72
1889.00,92.71
1888.00,92.71
1887.00,92.71
1886.00,92.71
1885.00,92.70
1884.00,92.70
1883.00,92.70
1882.00,92.69
1881.00,92.69
1880.00,92.69
1879.00,92.68
1878.00,92.68
1877.00,92.68
1876.00,92.68
1875.00,92.68
1874.00,92.68
1873.00,92.68
1872.00,92.68
1871.00,92.68
1870.00,92.68
1869.00,92.68
1868.00,92.68
1867.00,92.69
1866.00,92.69
1865.00,92.69
1864.00,92.70
1863.00,92.70
1862.00,92.70
1861.00,92.70
1860.00,92.69
1859.00,92.69
1858.00,92.69
1857.00,92.69
1856.00,92.69
1855.00,92.68
1854.00,92.68
1853.00,92.68
1852.00,92.67
1851.00,92.67
1850.00,92.66
1849.00,92.66
1848.00,92.65
1847.00,92.65
1846.00,92.65
1845.00,92.65
1844.00,92.64
1843.00,92.64
1842.00,92.64
1841.00,92.64
1840.00,92.63
1839.00,92.63
1838.00,92.63
1837.00,92.62
1836.00,92.62
1835.00,92.62
1834.00,92.62
1833.00,92.62
1832.00,92.62
1831.00,92.62
1830.00,92.62
1829.00,92.62
1828.00,92.62
1827.00,92.62
1826.00,92.62
1825.00,92.62
1824.00,92.61
1823.00,92.61
1822.00,92.61
1821.00,92.61
1820.00,92.61
1819.00,92.61
1818.00,92.61
1817.00,92.60
1816.00,92.60
1815.00,92.60
1814.00,92.60
1813.00,92.60
1812.00,92.60
1811.00,92.60
1810.00,92.60
1809.00,92.60
1808.00,92.60
1807.00,92.60
1806.00,92.60
1805.00,92.60
1804.00,92.59
1803.00,92.59
1802.00,92.59
1801.00,92.59
1800.00,92.59
1799.00,92.58
1798.00,92.58
1797.00,92.58
1796.00,92.58
1795.00,92.58
1794.00,92.58
1793.00,92.58
1792.00,92.57
1791.00,92.57
1790.00,92.56
1789.00,92.56
1788.00,92.56
1787.00,92.55
1786.00,92.55
1785.00,92.55
1784.00,92.54
1783.00,92.54
1782.00,92.54
1781.00,92.54
1780.00,92.54
1779.00,92.53
1778.00,92.54
1777.00,92.53
1776.00,92.53
1775.00,92.53
1774.00,92.53
1773.00,92.54
1772.00,92.53
1771.00,92.53
1770.00,92.54
1769.00,92.54
1768.00,92.54
1767.00,92.54
1766.00,92.54
1765.00,92.54
1764.00,92.54
1763.00,92.54
1762.00,92.54
1761.00,92.55
1760.00,92.55
1759.00,92.55
1758.00,92.56
1757.00,92.56
1756.00,92.56
1755.00,92.57
1754.00,92.57
1753.00,92.58
1752.00,92.58
1751.00,92.58
1750.00,92.58
1749.00,92.58
1748.00,92.57
1747.00,92.57
1746.00,92.57
1745.00,92.57
1744.00,92.57
1743.00,92.57
1742.00,92.56
1741.00,92.57
1740.00,92.56
1739.00,92.56
1738.00,92.56
1737.00,92.56
1736.00,92.56
1735.00,92.56
1734.00,92.56
1733.00,92.56
1732.00,92.56
1731.00,92.55
1730.00,92.55
1729.00,92.54
1728.00,92.54
1727.00,92.54
1726.00,92.54
1725.00,92.54
1724.00,92.53
1723.00,92.53
1722.00,92.54
1721.00,92.54
1720.00,92.54
1719.00,92.54
1718.00,92.54
1717.00,92.54
1716.00,92.54
1715.00,92.54
1714.00,92.55
1713.00,92.55
1712.00,92.55
1711.00,92.55
1710.00,92.55
1709.00,92.55
1708.00,92.55
1707.00,92.55
1706.00,92.56
1705.00,92.56
1704.00,92.56
1703.00,92.56
1702.00,92.57
1701.00,92.57
1700.00,92.57
1699.00,92.57
1698.00,92.58
1697.00,92.58
1696.00,92.58
1695.00,92.58
1694.00,92.58
1693.00,92.58
1692.00,92.57
1691.00,92.57
1690.00,92.57
1689.00,92.57
1688.00,92.57
1687.00,92.57
1686.00,92.57
1685.00,92.56
1684.00,92.56
1683.00,92.56
1682.00,92.56
1681.00,92.56
1680.00,92.56
1679.00,92.56
1678.00,92.56
1677.00,92.56
1676.00,92.56
1675.00,92.56
1674.00,92.56
1673.00,92.57
1672.00,92.57
1671.00,92.57
1670.00,92.56
1669.00,92.56
1668.00,92.56
1667.00,92.56
1666.00,92.56
1665.00,92.56
1664.00,92.57
1663.00,92.57
1662.00,92.57
1661.00,92.57
1660.00,92.58
1659.00,92.58
1658.00,92.58
1657.00,92.58
1656.00,92.57
1655.00,92.57
1654.00,92.57
1653.00,92.57
1652.00,92.57
1651.00,92.58
1650.00,92.59
1649.00,92.60
1648.00,92.60
1647.00,92.60
1646.00,92.60
1645.00,92.60
1644.00,92.60
1643.00,92.60
1642.00,92.60
1641.00,92.60
1640.00,92.60
1639.00,92.59
1638.00,92.59
1637.00,92.59
1636.00,92.59
1635.00,92.59
1634.00,92.59
1633.00,92.59
1632.00,92.59
1631.00,92.59
1630.00,92.59
1629.00,92.59
1628.00,92.59
1627.00,92.58
1626.00,92.58
1625.00,92.58
1624.00,92.58
1623.00,92.58
1622.00,92.58
1621.00,92.58
1620.00,92.58
1619.00,92.58
1618.00,92.57
1617.00,92.57
1616.00,92.57
1615.00,92.57
1614.00,92.57
1613.00,92.57
1612.00,92.57
1611.00,92.57
1610.00,92.57
1609.00,92.56
1608.00,92.56
1607.00,92.56
1606.00,92.56
1605.00,92.56
1604.00,92.56
1603.00,92.56
1602.00,92.56
1601.00,92.56
1600.00,92.57
1599.00,92.57
1598.00,92.57
1597.00,92.57
1596.00,92.58
1595.00,92.58
1594.00,92.58
1593.00,92.58
1592.00,92.59
1591.00,92.59
1590.00,92.59
1589.00,92.59
1588.00,92.59
1587.00,92.59
1586.00,92.59
1585.00,92.59
1584.00,92.59
1583.00,92.58
1582.00,92.58
1581.00,92.58
1580.00,92.57
1579.00,92.57
1578.00,92.57
1577.00,92.56
1576.00,92.57
1575.00,92.57
1574.00,92.57
1573.00,92.57
1572.00,92.56
1571.00,92.56
1570.00,92.56
1569.00,92.56
1568.00,92.57
1567.00,92.57
1566.00,92.57
1565.00,92.57
1564.00,92.57
1563.00,92.57
1562.00,92.56
1561.00,92.56
1560.00,92.57
1559.00,92.58
1558.00,92.59
1557.00,92.58
1556.00,92.58
1555.00,92.58
1554.00,92.59
1553.00,92.59
1552.00,92.59
1551.00,92.59
1550.00,92.59
1549.00,92.59
1548.00,92.60
1547.00,92.60
1546.00,92.60
1545.00,92.60
1544.00,92.59
1543.00,92.60
1542.00,92.60
1541.00,92.61
1540.00,92.61
1539.00,92.60
1538.00,92.60
1537.00,92.60
1536.00,92.60
1535.00,92.61
1534.00,92.61
1533.00,92.61
1532.00,92.61
1531.00,92.61
1530.00,92.61
1529.00,92.61
1528.00,92.61
1527.00,92.61
1526.00,92.61
1525.00,92.61
1524.00,92.61
1523.00,92.60
1522.00,92.60
1521.00,92.60
1520.00,92.60
1519.00,92.60
1518.00,92.60
1517.00,92.60
1516.00,92.60
1515.00,92.60
1514.00,92.60
1513.00,92.60
1512.00,92.59
1511.00,92.59
1510.00,92.59
1509.00,92.59
1508.00,92.59
1507.00,92.60
1506.00,92.60
1505.00,92.60
1504.00,92.60
1503.00,92.59
1502.00,92.59
1501.00,92.59
1500.00,92.60
1499.00,92.60
1498.00,92.60
1497.00,92.60
1496.00,92.60
1495.00,92.59
1494.00,92.59
1493.00,92.59
1492.00,92.59
1491.00,92.59
1490.00,92.59
1489.00,92.59
1488.00,92.59
1487.00,92.59
1486.00,92.59
1485.00,92.59
1484.00,92.59
1483.00,92.59
1482.00,92.59
1481.00,92.59
1480.00,92.59
1479.00,92.59
1478.00,92.59
1477.00,92.59
1476.00,92.59
1475.00,92.59
1474.00,92.60
1473.00,92.60
1472.00,92.59
1471.00,92.59
1470.00,92.59
1469.00,92.58
1468.00,92.58
1467.00,92.57
1466.00,92.57
1465.00,92.57
1464.00,92.57
1463.00,92.58
1462.00,92.58
1461.00,92.58
1460.00,92.57
1459.00,92.57
1458.00,92.57
1457.00,92.57
1456.00,92.58
1455.00,92.57
1454.00,92.57
1453.00,92.58
1452.00,92.58
1451.00,92.57
1450.00,92.57
1449.00,92.57
1448.00,92.57
1447.00,92.57
1446.00,92.57
1445.00,92.58
1444.00,92.58
1443.00,92.58
1442.00,92.59
1441.00,92.59
1440.00,92.59
1439.00,92.59
1438.00,92.60
1437.00,92.61
1436.00,92.61
1435.00,92.61
1434.00,92.61
1433.00,92.61
1432.00,92.61
1431.00,92.61
1430.00,92.61
1429.00,92.61
1428.00,92.61
1427.00,92.61
1426.00,92.61
1425.00,92.61
1424.00,92.61
1423.00,92.61
1422.00,92.60
1421.00,92.60
1420.00,92.60
1419.00,92.60
1418.00,92.60
1417.00,92.60
1416.00,92.60
1415.00,92.59
1414.00,92.59
1413.00,92.58
1412.00,92.58
1411.00,92.58
1410.00,92.58
1409.00,92.58
1408.00,92.58
1407.00,92.58
1406.00,92.58
1405.00,92.58
1404.00,92.58
1403.00,92.58
1402.00,92.58
1401.00,92.58
1400.00,92.58
1399.00,92.58
1398.00,92.58
1397.00,92.58
1396.00,92.58
1395.00,92.58
1394.00,92.58
1393.00,92.58
1392.00,92.58
1391.00,92.59
1390.00,92.58
1389.00,92.58
1388.00,92.59
1387.00,92.59
1386.00,92.59
1385.00,92.60
1384.00,92.60
1383.00,92.60
1382.00,92.60
1381.00,92.60
1380.00,92.60
1379.00,92.60
1378.00,92.60
1377.00,92.60
1376.00,92.60
1375.00,92.60
1374.00,92.60
1373.00,92.60
1372.00,92.60
1371.00,92.60
1370.00,92.60
1369.00,92.60
1368.00,92.60
1367.00,92.60
1366.00,92.60
1365.00,92.59
1364.00,92.59
1363.00,92.59
1362.00,92.59
1361.00,92.59
1360.00,92.59
1359.00,92.59
1358.00,92.59
1357.00,92.59
1356.00,92.59
1355.00,92.59
1354.00,92.59
1353.00,92.59
1352.00,92.59
1351.00,92.58
1350.00,92.58
1349.00,92.59
1348.00,92.59
1347.00,92.59
1346.00,92.59
1345.00,92.59
1344.00,92.59
1343.00,92.59
1342.00,92.59
1341.00,92.59
1340.00,92.59
1339.00,92.59
1338.00,92.60
1337.00,92.60
1336.00,92.60
1335.00,92.60
1334.00,92.60
1333.00,92.60
1332.00,92.60
1331.00,92.60
1330.00,92.60
1329.00,92.61
1328.00,92.61
1327.00,92.61
1326.00,92.61
1325.00,92.61
1324.00,92.61
1323.00,92.61
1322.00,92.61
1321.00,92.61
1320.00,92.61
1319.00,92.61
1318.00,92.61
1317.00,92.61
1316.00,92.61
1315.00,92.60
1314.00,92.60
1313.00,92.60
1312.00,92.60
1311.00,92.60
1310.00,92.60
1309.00,92.59
1308.00,92.59
1307.00,92.59
1306.00,92.59
1305.00,92.59
1304.00,92.59
1303.00,92.59
1302.00,92.59
1301.00,92.59
1300.00,92.59
1299.00,92.59
1298.00,92.59
1297.00,92.59
1296.00,92.59
1295.00,92.59
1294.00,92.59
1293.00,92.59
1292.00,92.59
1291.00,92.60
1290.00,92.60
1289.00,92.60
1288.00,92.60
1287.00,92.61
1286.00,92.61
1285.00,92.61
1284.00,92.61
1283.00,92.62
1282.00,92.62
1281.00,92.62
1280.00,92.62
1279.00,92.63
1278.00,92.63
1277.00,92.63
1276.00,92.63
1275.00,92.63
1274.00,92.63
1273.00,92.64
1272.00,92.64
1271.00,92.64
1270.00,92.64
1269.00,92.64
1268.00,92.64
1267.00,92.64
1266.00,92.64
1265.00,92.64
1264.00,92.64
1263.00,92.64
1262.00,92.64
1261.00,92.64
1260.00,92.64
1259.00,92.64
1258.00,92.63
1257.00,92.63
1256.00,92.63
1255.00,92.62
1254.00,92.62
1253.00,92.62
1252.00,92.62
1251.00,92.62
1250.00,92.62
1249.00,92.62
1248.00,92.61
1247.00,92.61
1246.00,92.61
1245.00,92.61
1244.00,92.61
1243.00,92.61
1242.00,92.61
1241.00,92.61
1240.00,92.61
1239.00,92.61
1238.00,92.61
1237.00,92.61
1236.00,92.61
1235.00,92.61
1234.00,92.62
1233.00,92.62
1232.00,92.62
1231.00,92.62
1230.00,92.62
1229.00,92.62
1228.00,92.63
1227.00,92.63
1226.00,92.63
1225.00,92.64
1224.00,92.64
1223.00,92.64
1222.00,92.64
1221.00,92.64
1220.00,92.65
1219.00,92.65
1218.00,92.65
1217.00,92.65
1216.00,92.65
1215.00,92.65
1214.00,92.65
1213.00,92.65
1212.00,92.66
1211.00,92.66
1210.00,92.66
1209.00,92.66
1208.00,92.66
1207.00,92.65
1206.00,92.65
1205.00,92.65
1204.00,92.65
1203.00,92.65
1202.00,92.65
1201.00,92.65
1200.00,92.64
1199.00,92.64
1198.00,92.64
1197.00,92.65
1196.00,92.65
1195.00,92.65
1194.00,92.64
1193.00,92.64
1192.00,92.64
1191.00,92.64
1190.00,92.64
1189.00,92.65
1188.00,92.65
1187.00,92.65
1186.00,92.65
1185.00,92.65
1184.00,92.65
1183.00,92.66
1182.00,92.66
1181.00,92.66
1180.00,92.66
1179.00,92.66
1178.00,92.66
1177.00,92.67
1176.00,92.67
1175.00,92.67
1174.00,92.67
1173.00,92.68
1172.00,92.68
1171.00,92.68
1170.00,92.68
1169.00,92.68
1168.00,92.69
1167.00,92.69
1166.00,92.69
1165.00,92.69
1164.00,92.69
1163.00,92.69
1162.00,92.69
1161.00,92.69
1160.00,92.69
1159.00,92.69
1158.00,92.69
1157.00,92.69
1156.00,92.69
1155.00,92.69
1154.00,92.68
1153.00,92.68
1152.00,92.68
1151.00,92.68
1150.00,92.68
1149.00,92.68
1148.00,92.68
1147.00,92.68
1146.00,92.68
1145.00,92.68
1144.00,92.68
1143.00,92.68
1142.00,92.68
1141.00,92.68
1140.00,92.68
1139.00,92.68
1138.00,92.68
1137.00,92.68
1136.00,92.68
1135.00,92.68
1134.00,92.68
1133.00,92.68
1132.00,92.69
1131.00,92.69
1130.00,92.69
1129.00,92.69
1128.00,92.69
1127.00,92.69
1126.00,92.69
1125.00,92.70
1124.00,92.70
1123.00,92.70
1122.00,92.70
1121.00,92.70
1120.00,92.70
1119.00,92.70
1118.00,92.71
1117.00,92.71
1116.00,92.71
1115.00,92.71
1114.00,92.71
1113.00,92.71
1112.00,92.71
1111.00,92.72
1110.00,92.72
1109.00,92.71
1108.00,92.71
1107.00,92.72
1106.00,92.72
1105.00,92.72
1104.00,92.72
1103.00,92.71
1102.00,92.71
1101.00,92.71
1100.00,92.70
1099.00,92.70
1098.00,92.71
1097.00,92.71
1096.00,92.71
1095.00,92.71
1094.00,92.71
1093.00,92.71
1092.00,92.71
1091.00,92.71
1090.00,92.72
1089.00,92.72
1088.00,92.72
1087.00,92.72
1086.00,92.72
1085.00,92.71
1084.00,92.71
1083.00,92.71
1082.00,92.72
1081.00,92.72
1080.00,92.72
1079.00,92.73
1078.00,92.73
1077.00,92.73
1076.00,92.73
1075.00,92.73
1074.00,92.73
1073.00,92.74
1072.00,92.74
1071.00,92.74
1070.00,92.74
1069.00,92.74
1068.00,92.74
1067.00,92.75
1066.00,92.75
1065.00,92.75
1064.00,92.74
1063.00,92.74
1062.00,92.74
1061.00,92.74
1060.00,92.75
1059.00,92.75
1058.00,92.75
1057.00,92.75
1056.00,92.75
1055.00,92.75
1054.00,92.75
1053.00,92.75
1052.00,92.75
1051.00,92.74
1050.00,92.74
1049.00,92.73
1048.00,92.73
1047.00,92.72
1046.00,92.72
1045.00,92.72
1044.00,92.72
1043.00,92.71
1042.00,92.71
1041.00,92.71
1040.00,92.71
1039.00,92.71
1038.00,92.70
1037.00,92.70
1036.00,92.70
1035.00,92.70
1034.00,92.70
1033.00,92.69
1032.00,92.69
1031.00,92.70
1030.00,92.70
1029.00,92.69
1028.00,92.69
1027.00,92.69
1026.00,92.69
1025.00,92.68
1024.00,92.68
1023.00,92.68
1022.00,92.68
1021.00,92.68
1020.00,92.68
1019.00,92.68
1018.00,92.68
1017.00,92.68
1016.00,92.68
1015.00,92.68
1014.00,92.68
1013.00,92.67
1012.00,92.67
1011.00,92.67
1010.00,92.67
1009.00,92.67
1008.00,92.66
1007.00,92.66
1006.00,92.66
1005.00,92.66
1004.00,92.66
1003.00,92.66
1002.00,92.65
1001.00,92.65
1000.00,92.65
999.00,92.65
998.00,92.64
997.00,92.64
996.00,92.64
995.00,92.63
994.00,92.63
993.00,92.63
992.00,92.63
991.00,92.62
990.00,92.62
989.00,92.62
988.00,92.61
987.00,92.61
986.00,92.60
985.00,92.60
984.00,92.60
983.00,92.60
982.00,92.60
981.00,92.59
980.00,92.59
979.00,92.59
978.00,92.59
977.00,92.59
976.00,92.59
975.00,92.59
974.00,92.59
973.00,92.59
972.00,92.59
971.00,92.60
970.00,92.60
969.00,92.60
968.00,92.60
967.00,92.60
966.00,92.60
965.00,92.60
964.00,92.60
963.00,92.60
962.00,92.60
961.00,92.60
960.00,92.60
959.00,92.60
958.00,92.60
957.00,92.60
956.00,92.60
955.00,92.60
954.00,92.60
953.00,92.60
952.00,92.60
951.00,92.60
950.00,92.59
949.00,92.59
948.00,92.59
947.00,92.59
946.00,92.59
945.00,92.59
944.00,92.59
943.00,92.59
942.00,92.58
941.00,92.58
940.00,92.58
939.00,92.57
938.00,92.57
937.00,92.57
936.00,92.56
935.00,92.56
934.00,92.57
933.00,92.57
932.00,92.57
931.00,92.57
930.00,92.56
929.00,92.56
928.00,92.56
927.00,92.56
926.00,92.55
925.00,92.55
924.00,92.55
923.00,92.55
922.00,92.55
921.00,92.55
920.00,92.55
919.00,92.55
918.00,92.55
917.00,92.55
916.00,92.55
915.00,92.56
914.00,92.56
913.00,92.56
912.00,92.56
911.00,92.56
910.00,92.56
909.00,92.56
908.00,92.57
907.00,92.57
906.00,92.56
905.00,92.56
904.00,92.56
903.00,92.56
902.00,92.56
901.00,92.57
900.00,92.57
899.00,92.56
898.00,92.56
897.00,92.55
896.00,92.55
895.00,92.55
894.00,92.55
893.00,92.55
892.00,92.55
891.00,92.55
890.00,92.54
889.00,92.54
888.00,92.54
887.00,92.54
886.00,92.55
885.00,92.55
884.00,92.55
883.00,92.54
882.00,92.53
881.00,92.53
880.00,92.54
879.00,92.54
878.00,92.54
877.00,92.54
876.00,92.54
875.00,92.54
874.00,92.54
873.00,92.54
872.00,92.53
871.00,92.53
870.00,92.53
869.00,92.53
868.00,92.53
867.00,92.53
866.00,92.53
865.00,92.53
864.00,92.53
863.00,92.54
862.00,92.54
861.00,92.54
860.00,92.54
859.00,92.55
858.00,92.55
857.00,92.56
856.00,92.56
855.00,92.56
854.00,92.55
853.00,92.55
852.00,92.55
851.00,92.55
850.00,92.55
849.00,92.56
848.00,92.56
847.00,92.56
846.00,92.56
845.00,92.56
844.00,92.56
843.00,92.56
842.00,92.56
841.00,92.56
840.00,92.56
839.00,92.56
838.00,92.56
837.00,92.56
836.00,92.55
835.00,92.55
834.00,92.55
833.00,92.55
832.00,92.55
831.00,92.56
830.00,92.56
829.00,92.56
828.00,92.56
827.00,92.55
826.00,92.55
825.00,92.54
824.00,92.54
823.00,92.54
822.00,92.54
821.00,92.54
820.00,92.54
819.00,92.54
818.00,92.54
817.00,92.54
816.00,92.55
815.00,92.55
814.00,92.55
813.00,92.55
812.00,92.55
811.00,92.55
810.00,92.55
809.00,92.55
808.00,92.56
807.00,92.56
806.00,92.56
805.00,92.56
804.00,92.56
803.00,92.56
802.00,92.56
801.00,92.56
800.00,92.57
799.00,92.57
798.00,92.57
797.00,92.57
796.00,92.57
795.00,92.57
794.00,92.57
793.00,92.57
792.00,92.57
791.00,92.57
790.00,92.56
789.00,92.56
788.00,92.56
787.00,92.55
786.00,92.55
785.00,92.55
784.00,92.55
783.00,92.55
782.00,92.55
781.00,92.55
780.00,92.55
779.00,92.55
778.00,92.55
777.00,92.55
776.00,92.55
775.00,92.55
774.00,92.55
773.00,92.55
772.00,92.55
771.00,92.55
770.00,92.56
769.00,92.56
768.00,92.56
767.00,92.56
766.00,92.56
765.00,92.55
764.00,92.56
763.00,92.56
762.00,92.56
761.00,92.56
760.00,92.57
759.00,92.57
758.00,92.57
757.00,92.58
756.00,92.58
755.00,92.58
754.00,92.58
753.00,92.59
752.00,92.59
751.00,92.59
750.00,92.59
749.00,92.59
748.00,92.59
747.00,92.60
746.00,92.59
745.00,92.59
744.00,92.59
743.00,92.59
742.00,92.59
741.00,92.60
740.00,92.60
739.00,92.60
738.00,92.60
737.00,92.60
736.00,92.60
735.00,92.61
734.00,92.61
733.00,92.61
732.00,92.61
731.00,92.61
730.00,92.60
729.00,92.60
728.00,92.60
727.00,92.61
726.00,92.61
725.00,92.60
724.00,92.60
723.00,92.59
722.00,92.58
721.00,92.58
720.00,92.58
719.00,92.59
718.00,92.59
717.00,92.59
716.00,92.59
715.00,92.59
714.00,92.60
713.00,92.60
712.00,92.60
711.00,92.60
710.00,92.60
709.00,92.60
708.00,92.60
707.00,92.60
706.00,92.60
705.00,92.60
704.00,92.61
703.00,92.61
702.00,92.62
701.00,92.62
700.00,92.62
699.00,92.62
698.00,92.62
697.00,92.63
696.00,92.63
695.00,92.64
694.00,92.64
693.00,92.65
692.00,92.65
691.00,92.65
690.00,92.65
689.00,92.64
688.00,92.63
687.00,92.63
686.00,92.63
685.00,92.64
684.00,92.64
683.00,92.64
682.00,92.65
681.00,92.65
680.00,92.65
679.00,92.65
678.00,92.65
677.00,92.64
676.00,92.64
675.00,92.64
674.00,92.65
673.00,92.65
672.00,92.66
671.00,92.65
670.00,92.64
669.00,92.65
668.00,92.66
667.00,92.68
666.00,92.68
665.00,92.68
664.00,92.67
663.00,92.67
662.00,92.67
661.00,92.66
660.00,92.66
659.00,92.67
658.00,92.67
657.00,92.68
656.00,92.69
655.00,92.70
654.00,92.71
653.00,92.71
652.00,92.71
651.00,92.71
650.00,92.72
649.00,92.73
648.00,92.73
647.00,92.73
646.00,92.73
645.00,92.73
644.00,92.72
643.00,92.73
642.00,92.73
641.00,92.74
640.00,92.74
639.00,92.75
638.00,92.75
637.00,92.75
636.00,92.75
635.00,92.76
634.00,92.76
633.00,92.77
632.00,92.78
631.00,92.78
630.00,92.78
629.00,92.78
628.00,92.79
627.00,92.79
626.00,92.79
625.00,92.79
624.00,92.79
623.00,92.78
622.00,92.78
621.00,92.78
620.00,92.78
619.00,92.78
618.00,92.78
617.00,92.78
616.00,92.78
615.00,92.78
614.00,92.78
613.00,92.79
612.00,92.79
611.00,92.79
610.00,92.78
609.00,92.78
608.00,92.78
607.00,92.78
606.00,92.78
605.00,92.78
604.00,92.78
603.00,92.78
602.00,92.77
601.00,92.77
600.00,92.76
599.00,92.75
598.00,92.74
597.00,92.74
596.00,92.73
595.00,92.74
594.00,92.75
593.00,92.77
592.00,92.78
591.00,92.79
590.00,92.79
589.00,92.79
588.00,92.78
587.00,92.78
586.00,92.78
585.00,92.78
584.00,92.78
583.00,92.79
582.00,92.79
581.00,92.79
580.00,92.80
579.00,92.79
578.00,92.79
577.00,92.78
576.00,92.78
575.00,92.77
574.00,92.77
573.00,92.78
572.00,92.79
571.00,92.80
570.00,92.80
569.00,92.80
568.00,92.79
567.00,92.79
566.00,92.79
565.00,92.79
564.00,92.78
563.00,92.79
562.00,92.79
561.00,92.79
560.00,92.79
559.00,92.79
558.00,92.78
557.00,92.78
556.00,92.78
555.00,92.77
554.00,92.76
553.00,92.75
552.00,92.74
551.00,92.73
550.00,92.74
549.00,92.75
548.00,92.76
547.00,92.78
546.00,92.79
545.00,92.80
544.00,92.81
543.00,92.81
542.00,92.81
541.00,92.80
540.00,92.80
539.00,92.79
538.00,92.77
537.00,92.76
536.00,92.76
535.00,92.76
534.00,92.76
533.00,92.77
532.00,92.76
531.00,92.76
530.00,92.75
529.00,92.75
528.00,92.76
527.00,92.78
526.00,92.80
525.00,92.80
524.00,92.79
523.00,92.78
522.00,92.76
521.00,92.76
520.00,92.76
519.00,92.77
518.00,92.78
517.00,92.77
516.00,92.76
515.00,92.76
514.00,92.76
513.00,92.76
512.00,92.77
511.00,92.77
510.00,92.77
509.00,92.78
508.00,92.79
507.00,92.80
506.00,92.81
505.00,92.82
504.00,92.82
503.00,92.81
502.00,92.79
501.00,92.78
500.00,92.77
