Created as New Dataset,Sample 346 By Analyst Date Wednesday, February 05 2025
cm-1,%T
4000.00,99.84
3999.00,99.84
3998.00,99.84
3997.00,99.84
3996.00,99.84
3995.00,99.84
3994.00,99.84
3993.00,99.84
3992.00,99.84
3991.00,99.84
3990.00,99.84
3989.00,99.83
3988.00,99.83
3987.00,99.83
3986.00,99.83
3985.00,99.83
3984.00,99.83
3983.00,99.84
3982.00,99.84
3981.00,99.84
3980.00,99.84
3979.00,99.84
3978.00,99.84
3977.00,99.84
3976.00,99.84
3975.00,99.84
3974.00,99.84
3973.00,99.84
3972.00,99.84
3971.00,99.84
3970.00,99.84
3969.00,99.84
3968.00,99.84
3967.00,99.84
3966.00,99.84
3965.00,99.84
3964.00,99.84
3963.00,99.84
3962.00,99.84
3961.00,99.84
3960.00,99.83
3959.00,99.83
3958.00,99.83
3957.00,99.83
3956.00,99.82
3955.00,99.82
3954.00,99.82
3953.00,99.82
3952.00,99.82
3951.00,99.82
3950.00,99.82
3949.00,99.82
3948.00,99.82
3947.00,99.82
3946.00,99.82
3945.00,99.82
3944.00,99.81
3943.00,99.81
3942.00,99.80
3941.00,99.80
3940.00,99.80
3939.00,99.80
3938.00,99.80
3937.00,99.80
3936.00,99.80
3935.00,99.80
3934.00,99.81
3933.00,99.81
3932.00,99.81
3931.00,99.81
3930.00,99.81
3929.00,99.81
3928.00,99.81
3927.00,99.81
3926.00,99.81
3925.00,99.81
3924.00,99.81
3923.00,99.81
3922.00,99.82
3921.00,99.83
3920.00,99.84
3919.00,99.84
3918.00,99.84
3917.00,99.84
3916.00,99.83
3915.00,99.82
3914.00,99.82
3913.00,99.81
3912.00,99.81
3911.00,99.80
3910.00,99.79
3909.00,99.79
3908.00,99.79
3907.00,99.80
3906.00,99.81
3905.00,99.83
3904.00,99.86
3903.00,99.89
3902.00,99.90
3901.00,99.91
3900.00,99.90
3899.00,99.88
3898.00,99.86
3897.00,99.85
3896.00,99.84
3895.00,99.83
3894.00,99.82
3893.00,99.81
3892.00,99.80
3891.00,99.79
3890.00,99.79
3889.00,99.80
3888.00,99.82
3887.00,99.83
3886.00,99.83
3885.00,99.83
3884.00,99.82
3883.00,99.83
3882.00,99.83
3881.00,99.83
3880.00,99.82
3879.00,99.82
3878.00,99.82
3877.00,99.82
3876.00,99.82
3875.00,99.82
3874.00,99.81
3873.00,99.81
3872.00,99.83
3871.00,99.85
3870.00,99.86
3869.00,99.87
3868.00,99.87
3867.00,99.88
3866.00,99.89
3865.00,99.88
3864.00,99.87
3863.00,99.86
3862.00,99.85
3861.00,99.85
3860.00,99.84
3859.00,99.82
3858.00,99.79
3857.00,99.76
3856.00,99.75
3855.00,99.76
3854.00,99.79
3853.00,99.83
3852.00,99.86
3851.00,99.87
3850.00,99.87
3849.00,99.87
3848.00,99.85
3847.00,99.83
3846.00,99.81
3845.00,99.80
3844.00,99.79
3843.00,99.79
3842.00,99.80
3841.00,99.81
3840.00,99.82
3839.00,99.83
3838.00,99.84
3837.00,99.85
3836.00,99.85
3835.00,99.85
3834.00,99.84
3833.00,99.84
3832.00,99.82
3831.00,99.81
3830.00,99.79
3829.00,99.78
3828.00,99.78
3827.00,99.77
3826.00,99.76
3825.00,99.78
3824.00,99.80
3823.00,99.83
3822.00,99.84
3821.00,99.83
3820.00,99.82
3819.00,99.83
3818.00,99.84
3817.00,99.85
3816.00,99.84
3815.00,99.81
3814.00,99.79
3813.00,99.77
3812.00,99.77
3811.00,99.77
3810.00,99.76
3809.00,99.76
3808.00,99.76
3807.00,99.77
3806.00,99.77
3805.00,99.79
3804.00,99.81
3803.00,99.82
3802.00,99.81
3801.00,99.80
3800.00,99.80
3799.00,99.81
3798.00,99.81
3797.00,99.80
3796.00,99.77
3795.00,99.75
3794.00,99.72
3793.00,99.70
3792.00,99.69
3791.00,99.67
3790.00,99.66
3789.00,99.65
3788.00,99.65
3787.00,99.65
3786.00,99.64
3785.00,99.64
3784.00,99.65
3783.00,99.66
3782.00,99.67
3781.00,99.68
3780.00,99.68
3779.00,99.67
3778.00,99.66
3777.00,99.66
3776.00,99.66
3775.00,99.66
3774.00,99.66
3773.00,99.66
3772.00,99.67
3771.00,99.68
3770.00,99.68
3769.00,99.69
3768.00,99.70
3767.00,99.71
3766.00,99.71
3765.00,99.71
3764.00,99.70
3763.00,99.70
3762.00,99.71
3761.00,99.72
3760.00,99.72
3759.00,99.72
3758.00,99.72
3757.00,99.73
3756.00,99.73
3755.00,99.75
3754.00,99.77
3753.00,99.79
3752.00,99.81
3751.00,99.83
3750.00,99.85
3749.00,99.86
3748.00,99.87
3747.00,99.87
3746.00,99.87
3745.00,99.86
3744.00,99.84
3743.00,99.82
3742.00,99.82
3741.00,99.82
3740.00,99.84
3739.00,99.85
3738.00,99.85
3737.00,99.85
3736.00,99.85
3735.00,99.85
3734.00,99.86
3733.00,99.86
3732.00,99.84
3731.00,99.82
3730.00,99.79
3729.00,99.77
3728.00,99.76
3727.00,99.75
3726.00,99.73
3725.00,99.73
3724.00,99.72
3723.00,99.72
3722.00,99.71
3721.00,99.71
3720.00,99.70
3719.00,99.69
3718.00,99.69
3717.00,99.68
3716.00,99.69
3715.00,99.70
3714.00,99.73
3713.00,99.75
3712.00,99.76
3711.00,99.76
3710.00,99.77
3709.00,99.77
3708.00,99.77
3707.00,99.76
3706.00,99.74
3705.00,99.73
3704.00,99.72
3703.00,99.71
3702.00,99.69
3701.00,99.68
3700.00,99.67
3699.00,99.67
3698.00,99.67
3697.00,99.66
3696.00,99.65
3695.00,99.65
3694.00,99.66
3693.00,99.67
3692.00,99.67
3691.00,99.68
3690.00,99.70
3689.00,99.71
3688.00,99.72
3687.00,99.72
3686.00,99.70
3685.00,99.68
3684.00,99.67
3683.00,99.65
3682.00,99.64
3681.00,99.63
3680.00,99.63
3679.00,99.64
3678.00,99.66
3677.00,99.70
3676.00,99.72
3675.00,99.73
3674.00,99.74
3673.00,99.76
3672.00,99.78
3671.00,99.78
3670.00,99.76
3669.00,99.73
3668.00,99.70
3667.00,99.68
3666.00,99.67
3665.00,99.65
3664.00,99.63
3663.00,99.62
3662.00,99.60
3661.00,99.60
3660.00,99.60
3659.00,99.62
3658.00,99.63
3657.00,99.65
3656.00,99.66
3655.00,99.67
3654.00,99.70
3653.00,99.74
3652.00,99.78
3651.00,99.81
3650.00,99.82
3649.00,99.83
3648.00,99.83
3647.00,99.82
3646.00,99.80
3645.00,99.77
3644.00,99.74
3643.00,99.71
3642.00,99.68
3641.00,99.66
3640.00,99.65
3639.00,99.64
3638.00,99.64
3637.00,99.64
3636.00,99.65
3635.00,99.66
3634.00,99.67
3633.00,99.67
3632.00,99.69
3631.00,99.72
3630.00,99.74
3629.00,99.76
3628.00,99.76
3627.00,99.76
3626.00,99.76
3625.00,99.75
3624.00,99.75
3623.00,99.74
3622.00,99.73
3621.00,99.73
3620.00,99.72
3619.00,99.72
3618.00,99.73
3617.00,99.74
3616.00,99.74
3615.00,99.75
3614.00,99.74
3613.00,99.74
3612.00,99.74
3611.00,99.75
3610.00,99.76
3609.00,99.76
3608.00,99.75
3607.00,99.73
3606.00,99.72
3605.00,99.72
3604.00,99.72
3603.00,99.71
3602.00,99.70
3601.00,99.70
3600.00,99.70
3599.00,99.70
3598.00,99.70
3597.00,99.71
3596.00,99.71
3595.00,99.71
3594.00,99.70
3593.00,99.70
3592.00,99.71
3591.00,99.72
3590.00,99.73
3589.00,99.74
3588.00,99.73
3587.00,99.73
3586.00,99.72
3585.00,99.72
3584.00,99.71
3583.00,99.70
3582.00,99.68
3581.00,99.66
3580.00,99.65
3579.00,99.64
3578.00,99.63
3577.00,99.63
3576.00,99.63
3575.00,99.63
3574.00,99.63
3573.00,99.63
3572.00,99.64
3571.00,99.65
3570.00,99.67
3569.00,99.69
3568.00,99.69
3567.00,99.70
3566.00,99.70
3565.00,99.70
3564.00,99.69
3563.00,99.69
3562.00,99.68
3561.00,99.67
3560.00,99.66
3559.00,99.65
3558.00,99.64
3557.00,99.64
3556.00,99.64
3555.00,99.65
3554.00,99.65
3553.00,99.65
3552.00,99.66
3551.00,99.66
3550.00,99.67
3549.00,99.68
3548.00,99.69
3547.00,99.70
3546.00,99.70
3545.00,99.69
3544.00,99.69
3543.00,99.68
3542.00,99.68
3541.00,99.67
3540.00,99.67
3539.00,99.66
3538.00,99.66
3537.00,99.66
3536.00,99.66
3535.00,99.66
3534.00,99.66
3533.00,99.66
3532.00,99.66
3531.00,99.66
3530.00,99.66
3529.00,99.66
3528.00,99.66
3527.00,99.67
3526.00,99.68
3525.00,99.68
3524.00,99.68
3523.00,99.67
3522.00,99.66
3521.00,99.66
3520.00,99.66
3519.00,99.65
3518.00,99.65
3517.00,99.65
3516.00,99.65
3515.00,99.65
3514.00,99.66
3513.00,99.66
3512.00,99.66
3511.00,99.66
3510.00,99.66
3509.00,99.67
3508.00,99.67
3507.00,99.68
3506.00,99.68
3505.00,99.68
3504.00,99.69
3503.00,99.69
3502.00,99.69
3501.00,99.70
3500.00,99.70
3499.00,99.70
3498.00,99.70
3497.00,99.70
3496.00,99.70
3495.00,99.70
3494.00,99.70
3493.00,99.70
3492.00,99.70
3491.00,99.70
3490.00,99.70
3489.00,99.70
3488.00,99.70
3487.00,99.70
3486.00,99.70
3485.00,99.70
3484.00,99.70
3483.00,99.70
3482.00,99.70
3481.00,99.70
3480.00,99.70
3479.00,99.69
3478.00,99.69
3477.00,99.69
3476.00,99.68
3475.00,99.68
3474.00,99.68
3473.00,99.67
3472.00,99.67
3471.00,99.67
3470.00,99.67
3469.00,99.67
3468.00,99.67
3467.00,99.67
3466.00,99.66
3465.00,99.66
3464.00,99.66
3463.00,99.66
3462.00,99.66
3461.00,99.66
3460.00,99.66
3459.00,99.66
3458.00,99.66
3457.00,99.66
3456.00,99.66
3455.00,99.66
3454.00,99.66
3453.00,99.66
3452.00,99.66
3451.00,99.67
3450.00,99.67
3449.00,99.67
3448.00,99.67
3447.00,99.68
3446.00,99.68
3445.00,99.68
3444.00,99.68
3443.00,99.68
3442.00,99.68
3441.00,99.68
3440.00,99.68
3439.00,99.68
3438.00,99.68
3437.00,99.68
3436.00,99.68
3435.00,99.68
3434.00,99.68
3433.00,99.68
3432.00,99.67
3431.00,99.67
3430.00,99.67
3429.00,99.67
3428.00,99.66
3427.00,99.66
3426.00,99.66
3425.00,99.66
3424.00,99.66
3423.00,99.66
3422.00,99.66
3421.00,99.65
3420.00,99.65
3419.00,99.65
3418.00,99.65
3417.00,99.65
3416.00,99.65
3415.00,99.65
3414.00,99.65
3413.00,99.66
3412.00,99.66
3411.00,99.66
3410.00,99.66
3409.00,99.66
3408.00,99.66
3407.00,99.66
3406.00,99.67
3405.00,99.67
3404.00,99.68
3403.00,99.68
3402.00,99.69
3401.00,99.69
3400.00,99.69
3399.00,99.69
3398.00,99.69
3397.00,99.70
3396.00,99.70
3395.00,99.70
3394.00,99.71
3393.00,99.71
3392.00,99.71
3391.00,99.71
3390.00,99.71
3389.00,99.71
3388.00,99.71
3387.00,99.71
3386.00,99.71
3385.00,99.71
3384.00,99.71
3383.00,99.71
3382.00,99.71
3381.00,99.71
3380.00,99.71
3379.00,99.71
3378.00,99.71
3377.00,99.71
3376.00,99.71
3375.00,99.71
3374.00,99.71
3373.00,99.71
3372.00,99.71
3371.00,99.71
3370.00,99.71
3369.00,99.71
3368.00,99.70
3367.00,99.70
3366.00,99.70
3365.00,99.69
3364.00,99.69
3363.00,99.69
3362.00,99.69
3361.00,99.69
3360.00,99.69
3359.00,99.69
3358.00,99.69
3357.00,99.69
3356.00,99.69
3355.00,99.69
3354.00,99.69
3353.00,99.69
3352.00,99.69
3351.00,99.69
3350.00,99.69
3349.00,99.69
3348.00,99.69
3347.00,99.69
3346.00,99.69
3345.00,99.69
3344.00,99.70
3343.00,99.70
3342.00,99.70
3341.00,99.70
3340.00,99.71
3339.00,99.71
3338.00,99.71
3337.00,99.71
3336.00,99.70
3335.00,99.70
3334.00,99.70
3333.00,99.70
3332.00,99.70
3331.00,99.70
3330.00,99.70
3329.00,99.70
3328.00,99.70
3327.00,99.70
3326.00,99.69
3325.00,99.69
3324.00,99.69
3323.00,99.68
3322.00,99.68
3321.00,99.67
3320.00,99.67
3319.00,99.67
3318.00,99.66
3317.00,99.66
3316.00,99.66
3315.00,99.66
3314.00,99.65
3313.00,99.65
3312.00,99.65
3311.00,99.65
3310.00,99.65
3309.00,99.65
3308.00,99.64
3307.00,99.64
3306.00,99.64
3305.00,99.63
3304.00,99.63
3303.00,99.62
3302.00,99.62
3301.00,99.62
3300.00,99.62
3299.00,99.63
3298.00,99.63
3297.00,99.64
3296.00,99.64
3295.00,99.65
3294.00,99.65
3293.00,99.66
3292.00,99.66
3291.00,99.66
3290.00,99.66
3289.00,99.66
3288.00,99.67
3287.00,99.67
3286.00,99.67
3285.00,99.67
3284.00,99.68
3283.00,99.68
3282.00,99.68
3281.00,99.68
3280.00,99.68
3279.00,99.69
3278.00,99.69
3277.00,99.69
3276.00,99.69
3275.00,99.69
3274.00,99.69
3273.00,99.69
3272.00,99.69
3271.00,99.69
3270.00,99.69
3269.00,99.69
3268.00,99.68
3267.00,99.68
3266.00,99.68
3265.00,99.67
3264.00,99.67
3263.00,99.67
3262.00,99.67
3261.00,99.67
3260.00,99.67
3259.00,99.67
3258.00,99.67
3257.00,99.67
3256.00,99.67
3255.00,99.66
3254.00,99.66
3253.00,99.66
3252.00,99.66
3251.00,99.66
3250.00,99.66
3249.00,99.66
3248.00,99.67
3247.00,99.67
3246.00,99.67
3245.00,99.67
3244.00,99.66
3243.00,99.67
3242.00,99.67
3241.00,99.67
3240.00,99.67
3239.00,99.67
3238.00,99.67
3237.00,99.68
3236.00,99.68
3235.00,99.68
3234.00,99.68
3233.00,99.68
3232.00,99.68
3231.00,99.68
3230.00,99.68
3229.00,99.68
3228.00,99.68
3227.00,99.68
3226.00,99.68
3225.00,99.67
3224.00,99.67
3223.00,99.67
3222.00,99.67
3221.00,99.67
3220.00,99.67
3219.00,99.67
3218.00,99.66
3217.00,99.66
3216.00,99.66
3215.00,99.66
3214.00,99.65
3213.00,99.65
3212.00,99.65
3211.00,99.64
3210.00,99.64
3209.00,99.64
3208.00,99.63
3207.00,99.63
3206.00,99.63
3205.00,99.62
3204.00,99.62
3203.00,99.62
3202.00,99.62
3201.00,99.62
3200.00,99.62
3199.00,99.62
3198.00,99.62
3197.00,99.62
3196.00,99.62
3195.00,99.62
3194.00,99.62
3193.00,99.62
3192.00,99.62
3191.00,99.62
3190.00,99.62
3189.00,99.62
3188.00,99.62
3187.00,99.63
3186.00,99.63
3185.00,99.63
3184.00,99.63
3183.00,99.63
3182.00,99.63
3181.00,99.63
3180.00,99.64
3179.00,99.64
3178.00,99.64
3177.00,99.64
3176.00,99.64
3175.00,99.64
3174.00,99.64
3173.00,99.64
3172.00,99.64
3171.00,99.63
3170.00,99.63
3169.00,99.63
3168.00,99.63
3167.00,99.63
3166.00,99.63
3165.00,99.62
3164.00,99.62
3163.00,99.62
3162.00,99.62
3161.00,99.62
3160.00,99.61
3159.00,99.61
3158.00,99.61
3157.00,99.61
3156.00,99.61
3155.00,99.61
3154.00,99.61
3153.00,99.60
3152.00,99.60
3151.00,99.60
3150.00,99.60
3149.00,99.60
3148.00,99.59
3147.00,99.59
3146.00,99.59
3145.00,99.59
3144.00,99.60
3143.00,99.60
3142.00,99.60
3141.00,99.60
3140.00,99.60
3139.00,99.61
3138.00,99.61
3137.00,99.61
3136.00,99.61
3135.00,99.61
3134.00,99.61
3133.00,99.61
3132.00,99.61
3131.00,99.62
3130.00,99.62
3129.00,99.62
3128.00,99.62
3127.00,99.62
3126.00,99.62
3125.00,99.62
3124.00,99.62
3123.00,99.62
3122.00,99.62
3121.00,99.62
3120.00,99.62
3119.00,99.62
3118.00,99.62
3117.00,99.62
3116.00,99.62
3115.00,99.61
3114.00,99.61
3113.00,99.60
3112.00,99.60
3111.00,99.60
3110.00,99.59
3109.00,99.59
3108.00,99.59
3107.00,99.58
3106.00,99.58
3105.00,99.58
3104.00,99.57
3103.00,99.57
3102.00,99.57
3101.00,99.57
3100.00,99.57
3099.00,99.57
3098.00,99.56
3097.00,99.56
3096.00,99.56
3095.00,99.56
3094.00,99.56
3093.00,99.56
3092.00,99.56
3091.00,99.56
3090.00,99.56
3089.00,99.56
3088.00,99.56
3087.00,99.56
3086.00,99.56
3085.00,99.56
3084.00,99.56
3083.00,99.56
3082.00,99.57
3081.00,99.57
3080.00,99.57
3079.00,99.57
3078.00,99.57
3077.00,99.57
3076.00,99.57
3075.00,99.57
3074.00,99.57
3073.00,99.57
3072.00,99.57
3071.00,99.57
3070.00,99.57
3069.00,99.57
3068.00,99.58
3067.00,99.58
3066.00,99.57
3065.00,99.57
3064.00,99.57
3063.00,99.57
3062.00,99.56
3061.00,99.56
3060.00,99.56
3059.00,99.56
3058.00,99.56
3057.00,99.56
3056.00,99.55
3055.00,99.55
3054.00,99.55
3053.00,99.55
3052.00,99.55
3051.00,99.54
3050.00,99.54
3049.00,99.54
3048.00,99.54
3047.00,99.54
3046.00,99.54
3045.00,99.53
3044.00,99.53
3043.00,99.53
3042.00,99.53
3041.00,99.53
3040.00,99.53
3039.00,99.53
3038.00,99.53
3037.00,99.54
3036.00,99.54
3035.00,99.54
3034.00,99.54
3033.00,99.54
3032.00,99.54
3031.00,99.54
3030.00,99.54
3029.00,99.54
3028.00,99.54
3027.00,99.55
3026.00,99.55
3025.00,99.55
3024.00,99.55
3023.00,99.55
3022.00,99.55
3021.00,99.56
3020.00,99.56
3019.00,99.56
3018.00,99.56
3017.00,99.56
3016.00,99.56
3015.00,99.56
3014.00,99.56
3013.00,99.56
3012.00,99.56
3011.00,99.56
3010.00,99.55
3009.00,99.55
3008.00,99.55
3007.00,99.54
3006.00,99.54
3005.00,99.54
3004.00,99.54
3003.00,99.54
3002.00,99.53
3001.00,99.53
3000.00,99.53
2999.00,99.53
2998.00,99.53
2997.00,99.52
2996.00,99.52
2995.00,99.52
2994.00,99.52
2993.00,99.52
2992.00,99.52
2991.00,99.52
2990.00,99.51
2989.00,99.51
2988.00,99.51
2987.00,99.51
2986.00,99.51
2985.00,99.51
2984.00,99.52
2983.00,99.52
2982.00,99.52
2981.00,99.52
2980.00,99.52
2979.00,99.53
2978.00,99.53
2977.00,99.53
2976.00,99.54
2975.00,99.54
2974.00,99.54
2973.00,99.54
2972.00,99.54
2971.00,99.54
2970.00,99.55
2969.00,99.55
2968.00,99.55
2967.00,99.55
2966.00,99.55
2965.00,99.55
2964.00,99.55
2963.00,99.55
2962.00,99.55
2961.00,99.56
2960.00,99.55
2959.00,99.55
2958.00,99.55
2957.00,99.55
2956.00,99.55
2955.00,99.55
2954.00,99.55
2953.00,99.54
2952.00,99.54
2951.00,99.54
2950.00,99.53
2949.00,99.53
2948.00,99.53
2947.00,99.52
2946.00,99.52
2945.00,99.52
2944.00,99.51
2943.00,99.51
2942.00,99.51
2941.00,99.51
2940.00,99.50
2939.00,99.50
2938.00,99.50
2937.00,99.50
2936.00,99.50
2935.00,99.50
2934.00,99.50
2933.00,99.50
2932.00,99.51
2931.00,99.51
2930.00,99.51
2929.00,99.51
2928.00,99.52
2927.00,99.52
2926.00,99.52
2925.00,99.53
2924.00,99.53
2923.00,99.53
2922.00,99.54
2921.00,99.54
2920.00,99.55
2919.00,99.55
2918.00,99.56
2917.00,99.56
2916.00,99.56
2915.00,99.56
2914.00,99.56
2913.00,99.56
2912.00,99.56
2911.00,99.56
2910.00,99.56
2909.00,99.55
2908.00,99.55
2907.00,99.55
2906.00,99.55
2905.00,99.55
2904.00,99.54
2903.00,99.54
2902.00,99.54
2901.00,99.54
2900.00,99.54
2899.00,99.54
2898.00,99.53
2897.00,99.53
2896.00,99.53
2895.00,99.53
2894.00,99.53
2893.00,99.52
2892.00,99.52
2891.00,99.52
2890.00,99.52
2889.00,99.52
2888.00,99.52
2887.00,99.51
2886.00,99.51
2885.00,99.51
2884.00,99.51
2883.00,99.51
2882.00,99.51
2881.00,99.51
2880.00,99.52
2879.00,99.52
2878.00,99.52
2877.00,99.52
2876.00,99.52
2875.00,99.53
2874.00,99.53
2873.00,99.53
2872.00,99.53
2871.00,99.53
2870.00,99.54
2869.00,99.54
2868.00,99.54
2867.00,99.55
2866.00,99.55
2865.00,99.55
2864.00,99.55
2863.00,99.55
2862.00,99.55
2861.00,99.56
2860.00,99.56
2859.00,99.56
2858.00,99.56
2857.00,99.56
2856.00,99.56
2855.00,99.57
2854.00,99.57
2853.00,99.57
2852.00,99.57
2851.00,99.57
2850.00,99.57
2849.00,99.57
2848.00,99.56
2847.00,99.56
2846.00,99.55
2845.00,99.55
2844.00,99.54
2843.00,99.54
2842.00,99.54
2841.00,99.54
2840.00,99.53
2839.00,99.53
2838.00,99.53
2837.00,99.53
2836.00,99.52
2835.00,99.52
2834.00,99.52
2833.00,99.52
2832.00,99.52
2831.00,99.52
2830.00,99.52
2829.00,99.52
2828.00,99.52
2827.00,99.52
2826.00,99.52
2825.00,99.52
2824.00,99.52
2823.00,99.53
2822.00,99.53
2821.00,99.53
2820.00,99.54
2819.00,99.54
2818.00,99.54
2817.00,99.54
2816.00,99.55
2815.00,99.55
2814.00,99.55
2813.00,99.55
2812.00,99.56
2811.00,99.56
2810.00,99.56
2809.00,99.56
2808.00,99.56
2807.00,99.56
2806.00,99.57
2805.00,99.57
2804.00,99.57
2803.00,99.56
2802.00,99.56
2801.00,99.56
2800.00,99.56
2799.00,99.56
2798.00,99.56
2797.00,99.56
2796.00,99.56
2795.00,99.56
2794.00,99.55
2793.00,99.55
2792.00,99.55
2791.00,99.55
2790.00,99.55
2789.00,99.54
2788.00,99.54
2787.00,99.54
2786.00,99.54
2785.00,99.54
2784.00,99.53
2783.00,99.53
2782.00,99.53
2781.00,99.53
2780.00,99.53
2779.00,99.53
2778.00,99.53
2777.00,99.53
2776.00,99.54
2775.00,99.54
2774.00,99.54
2773.00,99.54
2772.00,99.54
2771.00,99.54
2770.00,99.54
2769.00,99.55
2768.00,99.55
2767.00,99.55
2766.00,99.55
2765.00,99.56
2764.00,99.56
2763.00,99.56
2762.00,99.56
2761.00,99.57
2760.00,99.57
2759.00,99.57
2758.00,99.57
2757.00,99.57
2756.00,99.57
2755.00,99.58
2754.00,99.58
2753.00,99.58
2752.00,99.58
2751.00,99.58
2750.00,99.58
2749.00,99.58
2748.00,99.58
2747.00,99.57
2746.00,99.57
2745.00,99.57
2744.00,99.57
2743.00,99.57
2742.00,99.56
2741.00,99.56
2740.00,99.56
2739.00,99.56
2738.00,99.55
2737.00,99.55
2736.00,99.55
2735.00,99.55
2734.00,99.54
2733.00,99.54
2732.00,99.54
2731.00,99.54
2730.00,99.54
2729.00,99.54
2728.00,99.54
2727.00,99.54
2726.00,99.54
2725.00,99.54
2724.00,99.54
2723.00,99.54
2722.00,99.55
2721.00,99.55
2720.00,99.55
2719.00,99.55
2718.00,99.56
2717.00,99.56
2716.00,99.56
2715.00,99.56
2714.00,99.57
2713.00,99.57
2712.00,99.57
2711.00,99.58
2710.00,99.58
2709.00,99.58
2708.00,99.58
2707.00,99.59
2706.00,99.59
2705.00,99.59
2704.00,99.59
2703.00,99.59
2702.00,99.60
2701.00,99.60
2700.00,99.60
2699.00,99.60
2698.00,99.60
2697.00,99.60
2696.00,99.60
2695.00,99.60
2694.00,99.60
2693.00,99.60
2692.00,99.59
2691.00,99.59
2690.00,99.59
2689.00,99.59
2688.00,99.59
2687.00,99.58
2686.00,99.58
2685.00,99.58
2684.00,99.57
2683.00,99.57
2682.00,99.57
2681.00,99.57
2680.00,99.56
2679.00,99.56
2678.00,99.56
2677.00,99.56
2676.00,99.56
2675.00,99.56
2674.00,99.56
2673.00,99.56
2672.00,99.56
2671.00,99.56
2670.00,99.56
2669.00,99.56
2668.00,99.56
2667.00,99.56
2666.00,99.57
2665.00,99.57
2664.00,99.57
2663.00,99.57
2662.00,99.58
2661.00,99.58
2660.00,99.58
2659.00,99.59
2658.00,99.59
2657.00,99.59
2656.00,99.60
2655.00,99.60
2654.00,99.60
2653.00,99.61
2652.00,99.61
2651.00,99.61
2650.00,99.61
2649.00,99.61
2648.00,99.61
2647.00,99.61
2646.00,99.61
2645.00,99.61
2644.00,99.61
2643.00,99.61
2642.00,99.61
2641.00,99.61
2640.00,99.61
2639.00,99.61
2638.00,99.61
2637.00,99.61
2636.00,99.60
2635.00,99.60
2634.00,99.60
2633.00,99.59
2632.00,99.59
2631.00,99.59
2630.00,99.59
2629.00,99.58
2628.00,99.58
2627.00,99.58
2626.00,99.58
2625.00,99.58
2624.00,99.57
2623.00,99.57
2622.00,99.57
2621.00,99.57
2620.00,99.57
2619.00,99.57
2618.00,99.57
2617.00,99.57
2616.00,99.57
2615.00,99.58
2614.00,99.58
2613.00,99.58
2612.00,99.58
2611.00,99.58
2610.00,99.58
2609.00,99.59
2608.00,99.59
2607.00,99.59
2606.00,99.60
2605.00,99.60
2604.00,99.60
2603.00,99.60
2602.00,99.61
2601.00,99.61
2600.00,99.61
2599.00,99.61
2598.00,99.61
2597.00,99.62
2596.00,99.62
2595.00,99.62
2594.00,99.62
2593.00,99.62
2592.00,99.62
2591.00,99.62
2590.00,99.62
2589.00,99.62
2588.00,99.61
2587.00,99.61
2586.00,99.61
2585.00,99.61
2584.00,99.61
2583.00,99.60
2582.00,99.60
2581.00,99.60
2580.00,99.60
2579.00,99.59
2578.00,99.59
2577.00,99.59
2576.00,99.58
2575.00,99.58
2574.00,99.58
2573.00,99.58
2572.00,99.58
2571.00,99.58
2570.00,99.58
2569.00,99.58
2568.00,99.58
2567.00,99.58
2566.00,99.58
2565.00,99.58
2564.00,99.58
2563.00,99.58
2562.00,99.59
2561.00,99.59
2560.00,99.59
2559.00,99.59
2558.00,99.59
2557.00,99.60
2556.00,99.60
2555.00,99.60
2554.00,99.61
2553.00,99.61
2552.00,99.61
2551.00,99.62
2550.00,99.62
2549.00,99.62
2548.00,99.63
2547.00,99.63
2546.00,99.63
2545.00,99.63
2544.00,99.64
2543.00,99.64
2542.00,99.64
2541.00,99.64
2540.00,99.64
2539.00,99.64
2538.00,99.64
2537.00,99.64
2536.00,99.64
2535.00,99.64
2534.00,99.64
2533.00,99.63
2532.00,99.63
2531.00,99.63
2530.00,99.63
2529.00,99.62
2528.00,99.62
2527.00,99.62
2526.00,99.62
2525.00,99.61
2524.00,99.61
2523.00,99.61
2522.00,99.61
2521.00,99.61
2520.00,99.61
2519.00,99.61
2518.00,99.60
2517.00,99.60
2516.00,99.60
2515.00,99.60
2514.00,99.61
2513.00,99.61
2512.00,99.61
2511.00,99.61
2510.00,99.61
2509.00,99.62
2508.00,99.62
2507.00,99.62
2506.00,99.62
2505.00,99.63
2504.00,99.63
2503.00,99.63
2502.00,99.64
2501.00,99.64
2500.00,99.65
2499.00,99.65
2498.00,99.65
2497.00,99.66
2496.00,99.66
2495.00,99.66
2494.00,99.66
2493.00,99.67
2492.00,99.67
2491.00,99.67
2490.00,99.67
2489.00,99.67
2488.00,99.67
2487.00,99.67
2486.00,99.67
2485.00,99.67
2484.00,99.67
2483.00,99.67
2482.00,99.67
2481.00,99.67
2480.00,99.66
2479.00,99.66
2478.00,99.66
2477.00,99.66
2476.00,99.66
2475.00,99.65
2474.00,99.65
2473.00,99.65
2472.00,99.65
2471.00,99.64
2470.00,99.64
2469.00,99.64
2468.00,99.64
2467.00,99.64
2466.00,99.63
2465.00,99.63
2464.00,99.63
2463.00,99.63
2462.00,99.63
2461.00,99.63
2460.00,99.63
2459.00,99.63
2458.00,99.64
2457.00,99.64
2456.00,99.64
2455.00,99.64
2454.00,99.64
2453.00,99.65
2452.00,99.65
2451.00,99.65
2450.00,99.65
2449.00,99.66
2448.00,99.66
2447.00,99.66
2446.00,99.66
2445.00,99.67
2444.00,99.67
2443.00,99.67
2442.00,99.67
2441.00,99.67
2440.00,99.67
2439.00,99.67
2438.00,99.68
2437.00,99.68
2436.00,99.67
2435.00,99.67
2434.00,99.67
2433.00,99.67
2432.00,99.67
2431.00,99.67
2430.00,99.67
2429.00,99.66
2428.00,99.66
2427.00,99.66
2426.00,99.65
2425.00,99.65
2424.00,99.65
2423.00,99.64
2422.00,99.64
2421.00,99.64
2420.00,99.63
2419.00,99.63
2418.00,99.62
2417.00,99.62
2416.00,99.62
2415.00,99.61
2414.00,99.61
2413.00,99.61
2412.00,99.61
2411.00,99.61
2410.00,99.61
2409.00,99.61
2408.00,99.61
2407.00,99.61
2406.00,99.61
2405.00,99.62
2404.00,99.62
2403.00,99.62
2402.00,99.62
2401.00,99.63
2400.00,99.63
2399.00,99.63
2398.00,99.63
2397.00,99.64
2396.00,99.64
2395.00,99.65
2394.00,99.65
2393.00,99.65
2392.00,99.65
2391.00,99.66
2390.00,99.66
2389.00,99.66
2388.00,99.66
2387.00,99.65
2386.00,99.65
2385.00,99.65
2384.00,99.65
2383.00,99.65
2382.00,99.65
2381.00,99.66
2380.00,99.66
2379.00,99.67
2378.00,99.67
2377.00,99.67
2376.00,99.67
2375.00,99.67
2374.00,99.66
2373.00,99.65
2372.00,99.65
2371.00,99.65
2370.00,99.66
2369.00,99.67
2368.00,99.67
2367.00,99.68
2366.00,99.67
2365.00,99.66
2364.00,99.66
2363.00,99.66
2362.00,99.66
2361.00,99.65
2360.00,99.65
2359.00,99.65
2358.00,99.65
2357.00,99.64
2356.00,99.63
2355.00,99.63
2354.00,99.64
2353.00,99.65
2352.00,99.67
2351.00,99.68
2350.00,99.67
2349.00,99.64
2348.00,99.61
2347.00,99.62
2346.00,99.65
2345.00,99.67
2344.00,99.67
2343.00,99.66
2342.00,99.64
2341.00,99.64
2340.00,99.63
2339.00,99.63
2338.00,99.63
2337.00,99.63
2336.00,99.63
2335.00,99.62
2334.00,99.62
2333.00,99.62
2332.00,99.63
2331.00,99.64
2330.00,99.64
2329.00,99.64
2328.00,99.64
2327.00,99.62
2326.00,99.61
2325.00,99.61
2324.00,99.62
2323.00,99.62
2322.00,99.63
2321.00,99.63
2320.00,99.62
2319.00,99.61
2318.00,99.61
2317.00,99.60
2316.00,99.60
2315.00,99.60
2314.00,99.61
2313.00,99.62
2312.00,99.62
2311.00,99.62
2310.00,99.62
2309.00,99.62
2308.00,99.62
2307.00,99.62
2306.00,99.61
2305.00,99.61
2304.00,99.61
2303.00,99.62
2302.00,99.62
2301.00,99.63
2300.00,99.63
2299.00,99.63
2298.00,99.64
2297.00,99.64
2296.00,99.64
2295.00,99.65
2294.00,99.65
2293.00,99.65
2292.00,99.66
2291.00,99.66
2290.00,99.67
2289.00,99.67
2288.00,99.67
2287.00,99.67
2286.00,99.67
2285.00,99.68
2284.00,99.68
2283.00,99.68
2282.00,99.69
2281.00,99.69
2280.00,99.70
2279.00,99.70
2278.00,99.70
2277.00,99.71
2276.00,99.71
2275.00,99.71
2274.00,99.71
2273.00,99.71
2272.00,99.70
2271.00,99.70
2270.00,99.70
2269.00,99.70
2268.00,99.70
2267.00,99.69
2266.00,99.69
2265.00,99.69
2264.00,99.68
2263.00,99.68
2262.00,99.67
2261.00,99.67
2260.00,99.67
2259.00,99.66
2258.00,99.66
2257.00,99.66
2256.00,99.66
2255.00,99.65
2254.00,99.65
2253.00,99.65
2252.00,99.65
2251.00,99.65
2250.00,99.65
2249.00,99.65
2248.00,99.65
2247.00,99.65
2246.00,99.65
2245.00,99.65
2244.00,99.65
2243.00,99.66
2242.00,99.66
2241.00,99.66
2240.00,99.67
2239.00,99.67
2238.00,99.67
2237.00,99.68
2236.00,99.68
2235.00,99.68
2234.00,99.69
2233.00,99.69
2232.00,99.70
2231.00,99.70
2230.00,99.71
2229.00,99.71
2228.00,99.71
2227.00,99.71
2226.00,99.72
2225.00,99.72
2224.00,99.72
2223.00,99.72
2222.00,99.72
2221.00,99.72
2220.00,99.72
2219.00,99.72
2218.00,99.72
2217.00,99.71
2216.00,99.71
2215.00,99.71
2214.00,99.71
2213.00,99.70
2212.00,99.70
2211.00,99.70
2210.00,99.69
2209.00,99.69
2208.00,99.69
2207.00,99.68
2206.00,99.68
2205.00,99.68
2204.00,99.68
2203.00,99.68
2202.00,99.68
2201.00,99.68
2200.00,99.68
2199.00,99.68
2198.00,99.68
2197.00,99.68
2196.00,99.68
2195.00,99.68
2194.00,99.68
2193.00,99.68
2192.00,99.69
2191.00,99.69
2190.00,99.69
2189.00,99.69
2188.00,99.70
2187.00,99.70
2186.00,99.71
2185.00,99.71
2184.00,99.72
2183.00,99.72
2182.00,99.73
2181.00,99.73
2180.00,99.73
2179.00,99.73
2178.00,99.74
2177.00,99.74
2176.00,99.74
2175.00,99.75
2174.00,99.75
2173.00,99.75
2172.00,99.75
2171.00,99.75
2170.00,99.75
2169.00,99.75
2168.00,99.75
2167.00,99.74
2166.00,99.74
2165.00,99.74
2164.00,99.74
2163.00,99.73
2162.00,99.73
2161.00,99.73
2160.00,99.72
2159.00,99.72
2158.00,99.71
2157.00,99.71
2156.00,99.71
2155.00,99.70
2154.00,99.70
2153.00,99.70
2152.00,99.70
2151.00,99.69
2150.00,99.69
2149.00,99.69
2148.00,99.69
2147.00,99.69
2146.00,99.69
2145.00,99.69
2144.00,99.69
2143.00,99.69
2142.00,99.69
2141.00,99.69
2140.00,99.70
2139.00,99.70
2138.00,99.70
2137.00,99.71
2136.00,99.71
2135.00,99.71
2134.00,99.72
2133.00,99.72
2132.00,99.72
2131.00,99.73
2130.00,99.73
2129.00,99.74
2128.00,99.74
2127.00,99.74
2126.00,99.74
2125.00,99.75
2124.00,99.75
2123.00,99.75
2122.00,99.75
2121.00,99.75
2120.00,99.75
2119.00,99.75
2118.00,99.75
2117.00,99.75
2116.00,99.75
2115.00,99.75
2114.00,99.75
2113.00,99.75
2112.00,99.75
2111.00,99.74
2110.00,99.74
2109.00,99.74
2108.00,99.73
2107.00,99.73
2106.00,99.73
2105.00,99.72
2104.00,99.72
2103.00,99.72
2102.00,99.71
2101.00,99.71
2100.00,99.71
2099.00,99.70
2098.00,99.70
2097.00,99.70
2096.00,99.70
2095.00,99.70
2094.00,99.70
2093.00,99.70
2092.00,99.69
2091.00,99.70
2090.00,99.70
2089.00,99.70
2088.00,99.70
2087.00,99.70
2086.00,99.70
2085.00,99.70
2084.00,99.70
2083.00,99.70
2082.00,99.71
2081.00,99.71
2080.00,99.71
2079.00,99.72
2078.00,99.72
2077.00,99.73
2076.00,99.73
2075.00,99.73
2074.00,99.74
2073.00,99.74
2072.00,99.74
2071.00,99.75
2070.00,99.75
2069.00,99.75
2068.00,99.76
2067.00,99.76
2066.00,99.76
2065.00,99.76
2064.00,99.76
2063.00,99.76
2062.00,99.76
2061.00,99.76
2060.00,99.76
2059.00,99.75
2058.00,99.75
2057.00,99.75
2056.00,99.75
2055.00,99.75
2054.00,99.74
2053.00,99.74
2052.00,99.74
2051.00,99.73
2050.00,99.73
2049.00,99.73
2048.00,99.72
2047.00,99.72
2046.00,99.72
2045.00,99.71
2044.00,99.71
2043.00,99.71
2042.00,99.71
2041.00,99.70
2040.00,99.70
2039.00,99.70
2038.00,99.70
2037.00,99.70
2036.00,99.70
2035.00,99.70
2034.00,99.70
2033.00,99.70
2032.00,99.71
2031.00,99.71
2030.00,99.71
2029.00,99.71
2028.00,99.72
2027.00,99.72
2026.00,99.73
2025.00,99.73
2024.00,99.74
2023.00,99.74
2022.00,99.74
2021.00,99.75
2020.00,99.75
2019.00,99.76
2018.00,99.76
2017.00,99.76
2016.00,99.77
2015.00,99.77
2014.00,99.77
2013.00,99.77
2012.00,99.77
2011.00,99.77
2010.00,99.77
2009.00,99.77
2008.00,99.77
2007.00,99.76
2006.00,99.76
2005.00,99.76
2004.00,99.76
2003.00,99.75
2002.00,99.75
2001.00,99.74
2000.00,99.74
1999.00,99.74
1998.00,99.73
1997.00,99.73
1996.00,99.72
1995.00,99.72
1994.00,99.71
1993.00,99.71
1992.00,99.70
1991.00,99.70
1990.00,99.70
1989.00,99.69
1988.00,99.69
1987.00,99.69
1986.00,99.69
1985.00,99.68
1984.00,99.68
1983.00,99.68
1982.00,99.68
1981.00,99.68
1980.00,99.68
1979.00,99.69
1978.00,99.69
1977.00,99.69
1976.00,99.69
1975.00,99.70
1974.00,99.70
1973.00,99.71
1972.00,99.71
1971.00,99.72
1970.00,99.72
1969.00,99.73
1968.00,99.73
1967.00,99.73
1966.00,99.74
1965.00,99.74
1964.00,99.75
1963.00,99.75
1962.00,99.75
1961.00,99.75
1960.00,99.75
1959.00,99.75
1958.00,99.74
1957.00,99.73
1956.00,99.73
1955.00,99.73
1954.00,99.72
1953.00,99.72
1952.00,99.72
1951.00,99.71
1950.00,99.70
1949.00,99.70
1948.00,99.69
1947.00,99.69
1946.00,99.68
1945.00,99.68
1944.00,99.68
1943.00,99.68
1942.00,99.67
1941.00,99.67
1940.00,99.68
1939.00,99.68
1938.00,99.68
1937.00,99.67
1936.00,99.67
1935.00,99.67
1934.00,99.68
1933.00,99.68
1932.00,99.68
1931.00,99.68
1930.00,99.69
1929.00,99.69
1928.00,99.69
1927.00,99.70
1926.00,99.70
1925.00,99.70
1924.00,99.70
1923.00,99.71
1922.00,99.71
1921.00,99.72
1920.00,99.73
1919.00,99.74
1918.00,99.74
1917.00,99.74
1916.00,99.74
1915.00,99.75
1914.00,99.75
1913.00,99.75
1912.00,99.75
1911.00,99.75
1910.00,99.75
1909.00,99.75
1908.00,99.76
1907.00,99.76
1906.00,99.77
1905.00,99.77
1904.00,99.76
1903.00,99.76
1902.00,99.76
1901.00,99.76
1900.00,99.76
1899.00,99.76
1898.00,99.76
1897.00,99.75
1896.00,99.74
1895.00,99.74
1894.00,99.74
1893.00,99.73
1892.00,99.73
1891.00,99.72
1890.00,99.72
1889.00,99.71
1888.00,99.71
1887.00,99.71
1886.00,99.71
1885.00,99.71
1884.00,99.70
1883.00,99.70
1882.00,99.69
1881.00,99.69
1880.00,99.69
1879.00,99.69
1878.00,99.69
1877.00,99.69
1876.00,99.69
1875.00,99.69
1874.00,99.69
1873.00,99.70
1872.00,99.70
1871.00,99.70
1870.00,99.70
1869.00,99.70
1868.00,99.70
1867.00,99.71
1866.00,99.72
1865.00,99.73
1864.00,99.74
1863.00,99.74
1862.00,99.74
1861.00,99.74
1860.00,99.73
1859.00,99.74
1858.00,99.74
1857.00,99.74
1856.00,99.74
1855.00,99.74
1854.00,99.74
1853.00,99.74
1852.00,99.73
1851.00,99.73
1850.00,99.73
1849.00,99.73
1848.00,99.72
1847.00,99.72
1846.00,99.73
1845.00,99.73
1844.00,99.73
1843.00,99.72
1842.00,99.72
1841.00,99.71
1840.00,99.71
1839.00,99.70
1838.00,99.68
1837.00,99.68
1836.00,99.68
1835.00,99.67
1834.00,99.67
1833.00,99.67
1832.00,99.66
1831.00,99.65
1830.00,99.64
1829.00,99.64
1828.00,99.65
1827.00,99.67
1826.00,99.68
1825.00,99.68
1824.00,99.67
1823.00,99.66
1822.00,99.67
1821.00,99.67
1820.00,99.67
1819.00,99.67
1818.00,99.67
1817.00,99.67
1816.00,99.67
1815.00,99.67
1814.00,99.68
1813.00,99.69
1812.00,99.69
1811.00,99.69
1810.00,99.70
1809.00,99.70
1808.00,99.70
1807.00,99.70
1806.00,99.71
1805.00,99.71
1804.00,99.71
1803.00,99.71
1802.00,99.72
1801.00,99.72
1800.00,99.71
1799.00,99.71
1798.00,99.72
1797.00,99.72
1796.00,99.71
1795.00,99.70
1794.00,99.70
1793.00,99.71
1792.00,99.70
1791.00,99.70
1790.00,99.70
1789.00,99.69
1788.00,99.69
1787.00,99.68
1786.00,99.67
1785.00,99.67
1784.00,99.65
1783.00,99.64
1782.00,99.64
1781.00,99.65
1780.00,99.64
1779.00,99.64
1778.00,99.64
1777.00,99.64
1776.00,99.63
1775.00,99.62
1774.00,99.63
1773.00,99.63
1772.00,99.63
1771.00,99.63
1770.00,99.65
1769.00,99.67
1768.00,99.67
1767.00,99.66
1766.00,99.65
1765.00,99.65
1764.00,99.65
1763.00,99.65
1762.00,99.65
1761.00,99.65
1760.00,99.66
1759.00,99.68
1758.00,99.70
1757.00,99.70
1756.00,99.70
1755.00,99.70
1754.00,99.71
1753.00,99.74
1752.00,99.75
1751.00,99.75
1750.00,99.74
1749.00,99.73
1748.00,99.73
1747.00,99.73
1746.00,99.72
1745.00,99.72
1744.00,99.72
1743.00,99.72
1742.00,99.72
1741.00,99.73
1740.00,99.72
1739.00,99.71
1738.00,99.69
1737.00,99.70
1736.00,99.72
1735.00,99.73
1734.00,99.72
1733.00,99.70
1732.00,99.69
1731.00,99.69
1730.00,99.69
1729.00,99.68
1728.00,99.66
1727.00,99.66
1726.00,99.65
1725.00,99.64
1724.00,99.64
1723.00,99.64
1722.00,99.64
1721.00,99.64
1720.00,99.65
1719.00,99.66
1718.00,99.67
1717.00,99.68
1716.00,99.68
1715.00,99.69
1714.00,99.70
1713.00,99.70
1712.00,99.69
1711.00,99.68
1710.00,99.68
1709.00,99.68
1708.00,99.68
1707.00,99.68
1706.00,99.68
1705.00,99.67
1704.00,99.68
1703.00,99.70
1702.00,99.75
1701.00,99.77
1700.00,99.75
1699.00,99.73
1698.00,99.74
1697.00,99.75
1696.00,99.75
1695.00,99.74
1694.00,99.74
1693.00,99.75
1692.00,99.75
1691.00,99.74
1690.00,99.74
1689.00,99.73
1688.00,99.73
1687.00,99.73
1686.00,99.73
1685.00,99.73
1684.00,99.73
1683.00,99.73
1682.00,99.73
1681.00,99.73
1680.00,99.72
1679.00,99.70
1678.00,99.69
1677.00,99.68
1676.00,99.69
1675.00,99.68
1674.00,99.68
1673.00,99.69
1672.00,99.71
1671.00,99.71
1670.00,99.69
1669.00,99.68
1668.00,99.68
1667.00,99.68
1666.00,99.68
1665.00,99.68
1664.00,99.68
1663.00,99.68
1662.00,99.68
1661.00,99.69
1660.00,99.70
1659.00,99.71
1658.00,99.70
1657.00,99.69
1656.00,99.68
1655.00,99.68
1654.00,99.66
1653.00,99.65
1652.00,99.68
1651.00,99.71
1650.00,99.75
1649.00,99.77
1648.00,99.77
1647.00,99.77
1646.00,99.77
1645.00,99.78
1644.00,99.78
1643.00,99.79
1642.00,99.79
1641.00,99.78
1640.00,99.77
1639.00,99.76
1638.00,99.75
1637.00,99.75
1636.00,99.75
1635.00,99.76
1634.00,99.77
1633.00,99.77
1632.00,99.76
1631.00,99.76
1630.00,99.75
1629.00,99.74
1628.00,99.73
1627.00,99.72
1626.00,99.73
1625.00,99.73
1624.00,99.72
1623.00,99.72
1622.00,99.71
1621.00,99.70
1620.00,99.70
1619.00,99.70
1618.00,99.69
1617.00,99.68
1616.00,99.67
1615.00,99.68
1614.00,99.69
1613.00,99.69
1612.00,99.69
1611.00,99.69
1610.00,99.68
1609.00,99.67
1608.00,99.67
1607.00,99.67
1606.00,99.67
1605.00,99.67
1604.00,99.68
1603.00,99.68
1602.00,99.68
1601.00,99.68
1600.00,99.69
1599.00,99.69
1598.00,99.69
1597.00,99.69
1596.00,99.70
1595.00,99.70
1594.00,99.70
1593.00,99.71
1592.00,99.71
1591.00,99.72
1590.00,99.72
1589.00,99.71
1588.00,99.71
1587.00,99.72
1586.00,99.72
1585.00,99.71
1584.00,99.71
1583.00,99.71
1582.00,99.71
1581.00,99.69
1580.00,99.69
1579.00,99.68
1578.00,99.66
1577.00,99.65
1576.00,99.66
1575.00,99.67
1574.00,99.68
1573.00,99.68
1572.00,99.68
1571.00,99.68
1570.00,99.67
1569.00,99.67
1568.00,99.68
1567.00,99.69
1566.00,99.69
1565.00,99.68
1564.00,99.68
1563.00,99.68
1562.00,99.68
1561.00,99.70
1560.00,99.73
1559.00,99.74
1558.00,99.73
1557.00,99.72
1556.00,99.73
1555.00,99.73
1554.00,99.73
1553.00,99.73
1552.00,99.73
1551.00,99.74
1550.00,99.74
1549.00,99.73
1548.00,99.74
1547.00,99.75
1546.00,99.75
1545.00,99.74
1544.00,99.73
1543.00,99.73
1542.00,99.75
1541.00,99.76
1540.00,99.78
1539.00,99.78
1538.00,99.77
1537.00,99.76
1536.00,99.76
1535.00,99.76
1534.00,99.76
1533.00,99.75
1532.00,99.76
1531.00,99.76
1530.00,99.77
1529.00,99.76
1528.00,99.75
1527.00,99.74
1526.00,99.74
1525.00,99.74
1524.00,99.75
1523.00,99.76
1522.00,99.77
1521.00,99.76
1520.00,99.75
1519.00,99.75
1518.00,99.75
1517.00,99.75
1516.00,99.74
1515.00,99.73
1514.00,99.74
1513.00,99.74
1512.00,99.72
1511.00,99.71
1510.00,99.71
1509.00,99.72
1508.00,99.73
1507.00,99.74
1506.00,99.74
1505.00,99.73
1504.00,99.72
1503.00,99.72
1502.00,99.71
1501.00,99.71
1500.00,99.71
1499.00,99.70
1498.00,99.71
1497.00,99.72
1496.00,99.72
1495.00,99.72
1494.00,99.72
1493.00,99.72
1492.00,99.73
1491.00,99.73
1490.00,99.74
1489.00,99.75
1488.00,99.74
1487.00,99.74
1486.00,99.73
1485.00,99.73
1484.00,99.73
1483.00,99.73
1482.00,99.73
1481.00,99.73
1480.00,99.73
1479.00,99.73
1478.00,99.73
1477.00,99.73
1476.00,99.72
1475.00,99.73
1474.00,99.75
1473.00,99.76
1472.00,99.76
1471.00,99.75
1470.00,99.74
1469.00,99.73
1468.00,99.71
1467.00,99.70
1466.00,99.69
1465.00,99.69
1464.00,99.69
1463.00,99.69
1462.00,99.69
1461.00,99.69
1460.00,99.69
1459.00,99.68
1458.00,99.68
1457.00,99.69
1456.00,99.70
1455.00,99.70
1454.00,99.70
1453.00,99.70
1452.00,99.70
1451.00,99.68
1450.00,99.68
1449.00,99.68
1448.00,99.67
1447.00,99.67
1446.00,99.67
1445.00,99.68
1444.00,99.68
1443.00,99.68
1442.00,99.68
1441.00,99.68
1440.00,99.68
1439.00,99.69
1438.00,99.69
1437.00,99.71
1436.00,99.72
1435.00,99.72
1434.00,99.73
1433.00,99.73
1432.00,99.73
1431.00,99.73
1430.00,99.72
1429.00,99.73
1428.00,99.73
1427.00,99.73
1426.00,99.73
1425.00,99.73
1424.00,99.73
1423.00,99.72
1422.00,99.71
1421.00,99.71
1420.00,99.70
1419.00,99.70
1418.00,99.70
1417.00,99.71
1416.00,99.71
1415.00,99.70
1414.00,99.68
1413.00,99.67
1412.00,99.67
1411.00,99.66
1410.00,99.66
1409.00,99.65
1408.00,99.66
1407.00,99.65
1406.00,99.65
1405.00,99.65
1404.00,99.65
1403.00,99.65
1402.00,99.65
1401.00,99.66
1400.00,99.66
1399.00,99.67
1398.00,99.67
1397.00,99.67
1396.00,99.67
1395.00,99.66
1394.00,99.66
1393.00,99.67
1392.00,99.68
1391.00,99.68
1390.00,99.68
1389.00,99.69
1388.00,99.70
1387.00,99.71
1386.00,99.71
1385.00,99.72
1384.00,99.72
1383.00,99.71
1382.00,99.71
1381.00,99.71
1380.00,99.71
1379.00,99.72
1378.00,99.72
1377.00,99.72
1376.00,99.72
1375.00,99.72
1374.00,99.72
1373.00,99.72
1372.00,99.71
1371.00,99.71
1370.00,99.71
1369.00,99.70
1368.00,99.70
1367.00,99.69
1366.00,99.69
1365.00,99.68
1364.00,99.68
1363.00,99.68
1362.00,99.68
1361.00,99.68
1360.00,99.68
1359.00,99.68
1358.00,99.67
1357.00,99.67
1356.00,99.66
1355.00,99.66
1354.00,99.65
1353.00,99.65
1352.00,99.65
1351.00,99.65
1350.00,99.65
1349.00,99.65
1348.00,99.65
1347.00,99.65
1346.00,99.65
1345.00,99.65
1344.00,99.65
1343.00,99.66
1342.00,99.66
1341.00,99.67
1340.00,99.68
1339.00,99.69
1338.00,99.69
1337.00,99.69
1336.00,99.69
1335.00,99.69
1334.00,99.69
1333.00,99.69
1332.00,99.69
1331.00,99.70
1330.00,99.70
1329.00,99.70
1328.00,99.71
1327.00,99.71
1326.00,99.71
1325.00,99.72
1324.00,99.72
1323.00,99.72
1322.00,99.72
1321.00,99.72
1320.00,99.72
1319.00,99.72
1318.00,99.72
1317.00,99.71
1316.00,99.71
1315.00,99.71
1314.00,99.70
1313.00,99.70
1312.00,99.69
1311.00,99.69
1310.00,99.68
1309.00,99.68
1308.00,99.68
1307.00,99.67
1306.00,99.67
1305.00,99.66
1304.00,99.66
1303.00,99.66
1302.00,99.65
1301.00,99.65
1300.00,99.65
1299.00,99.65
1298.00,99.65
1297.00,99.65
1296.00,99.65
1295.00,99.65
1294.00,99.65
1293.00,99.65
1292.00,99.65
1291.00,99.65
1290.00,99.66
1289.00,99.66
1288.00,99.66
1287.00,99.67
1286.00,99.67
1285.00,99.67
1284.00,99.68
1283.00,99.68
1282.00,99.68
1281.00,99.69
1280.00,99.69
1279.00,99.69
1278.00,99.70
1277.00,99.70
1276.00,99.70
1275.00,99.71
1274.00,99.71
1273.00,99.71
1272.00,99.71
1271.00,99.71
1270.00,99.71
1269.00,99.72
1268.00,99.72
1267.00,99.72
1266.00,99.71
1265.00,99.71
1264.00,99.71
1263.00,99.71
1262.00,99.71
1261.00,99.71
1260.00,99.71
1259.00,99.71
1258.00,99.71
1257.00,99.70
1256.00,99.70
1255.00,99.70
1254.00,99.69
1253.00,99.69
1252.00,99.69
1251.00,99.68
1250.00,99.68
1249.00,99.68
1248.00,99.68
1247.00,99.68
1246.00,99.67
1245.00,99.67
1244.00,99.67
1243.00,99.67
1242.00,99.66
1241.00,99.66
1240.00,99.66
1239.00,99.66
1238.00,99.66
1237.00,99.66
1236.00,99.66
1235.00,99.66
1234.00,99.66
1233.00,99.66
1232.00,99.67
1231.00,99.67
1230.00,99.67
1229.00,99.67
1228.00,99.68
1227.00,99.68
1226.00,99.69
1225.00,99.69
1224.00,99.69
1223.00,99.70
1222.00,99.70
1221.00,99.70
1220.00,99.71
1219.00,99.71
1218.00,99.71
1217.00,99.71
1216.00,99.71
1215.00,99.71
1214.00,99.71
1213.00,99.71
1212.00,99.71
1211.00,99.71
1210.00,99.71
1209.00,99.70
1208.00,99.70
1207.00,99.70
1206.00,99.69
1205.00,99.69
1204.00,99.69
1203.00,99.68
1202.00,99.68
1201.00,99.68
1200.00,99.67
1199.00,99.67
1198.00,99.67
1197.00,99.66
1196.00,99.66
1195.00,99.66
1194.00,99.66
1193.00,99.65
1192.00,99.65
1191.00,99.65
1190.00,99.66
1189.00,99.66
1188.00,99.66
1187.00,99.66
1186.00,99.66
1185.00,99.67
1184.00,99.67
1183.00,99.68
1182.00,99.68
1181.00,99.68
1180.00,99.69
1179.00,99.69
1178.00,99.69
1177.00,99.69
1176.00,99.70
1175.00,99.70
1174.00,99.71
1173.00,99.71
1172.00,99.72
1171.00,99.72
1170.00,99.72
1169.00,99.72
1168.00,99.73
1167.00,99.73
1166.00,99.73
1165.00,99.73
1164.00,99.73
1163.00,99.73
1162.00,99.72
1161.00,99.72
1160.00,99.73
1159.00,99.73
1158.00,99.72
1157.00,99.72
1156.00,99.72
1155.00,99.72
1154.00,99.71
1153.00,99.71
1152.00,99.70
1151.00,99.70
1150.00,99.69
1149.00,99.69
1148.00,99.69
1147.00,99.69
1146.00,99.68
1145.00,99.68
1144.00,99.68
1143.00,99.67
1142.00,99.67
1141.00,99.67
1140.00,99.67
1139.00,99.67
1138.00,99.67
1137.00,99.67
1136.00,99.67
1135.00,99.67
1134.00,99.67
1133.00,99.68
1132.00,99.68
1131.00,99.68
1130.00,99.69
1129.00,99.69
1128.00,99.69
1127.00,99.69
1126.00,99.70
1125.00,99.71
1124.00,99.71
1123.00,99.72
1122.00,99.72
1121.00,99.72
1120.00,99.73
1119.00,99.73
1118.00,99.74
1117.00,99.74
1116.00,99.74
1115.00,99.74
1114.00,99.74
1113.00,99.74
1112.00,99.74
1111.00,99.74
1110.00,99.75
1109.00,99.75
1108.00,99.74
1107.00,99.74
1106.00,99.74
1105.00,99.73
1104.00,99.73
1103.00,99.73
1102.00,99.72
1101.00,99.72
1100.00,99.71
1099.00,99.71
1098.00,99.70
1097.00,99.70
1096.00,99.70
1095.00,99.70
1094.00,99.70
1093.00,99.69
1092.00,99.69
1091.00,99.69
1090.00,99.69
1089.00,99.69
1088.00,99.69
1087.00,99.69
1086.00,99.68
1085.00,99.68
1084.00,99.68
1083.00,99.68
1082.00,99.68
1081.00,99.68
1080.00,99.68
1079.00,99.68
1078.00,99.68
1077.00,99.69
1076.00,99.69
1075.00,99.69
1074.00,99.70
1073.00,99.70
1072.00,99.70
1071.00,99.70
1070.00,99.70
1069.00,99.71
1068.00,99.71
1067.00,99.71
1066.00,99.71
1065.00,99.71
1064.00,99.71
1063.00,99.71
1062.00,99.71
1061.00,99.71
1060.00,99.71
1059.00,99.72
1058.00,99.72
1057.00,99.73
1056.00,99.73
1055.00,99.73
1054.00,99.72
1053.00,99.72
1052.00,99.72
1051.00,99.71
1050.00,99.71
1049.00,99.70
1048.00,99.69
1047.00,99.69
1046.00,99.68
1045.00,99.68
1044.00,99.68
1043.00,99.68
1042.00,99.68
1041.00,99.68
1040.00,99.67
1039.00,99.67
1038.00,99.67
1037.00,99.66
1036.00,99.66
1035.00,99.66
1034.00,99.65
1033.00,99.65
1032.00,99.65
1031.00,99.66
1030.00,99.66
1029.00,99.66
1028.00,99.66
1027.00,99.66
1026.00,99.66
1025.00,99.67
1024.00,99.67
1023.00,99.67
1022.00,99.68
1021.00,99.68
1020.00,99.68
1019.00,99.68
1018.00,99.69
1017.00,99.69
1016.00,99.69
1015.00,99.69
1014.00,99.69
1013.00,99.70
1012.00,99.70
1011.00,99.70
1010.00,99.70
1009.00,99.70
1008.00,99.70
1007.00,99.70
1006.00,99.70
1005.00,99.70
1004.00,99.70
1003.00,99.70
1002.00,99.70
1001.00,99.70
1000.00,99.70
999.00,99.70
998.00,99.70
997.00,99.70
996.00,99.69
995.00,99.69
994.00,99.69
993.00,99.69
992.00,99.69
991.00,99.68
990.00,99.68
989.00,99.68
988.00,99.68
987.00,99.67
986.00,99.67
985.00,99.67
984.00,99.67
983.00,99.67
982.00,99.66
981.00,99.66
980.00,99.66
979.00,99.66
978.00,99.66
977.00,99.66
976.00,99.66
975.00,99.66
974.00,99.66
973.00,99.67
972.00,99.67
971.00,99.67
970.00,99.67
969.00,99.68
968.00,99.68
967.00,99.69
966.00,99.69
965.00,99.70
964.00,99.70
963.00,99.70
962.00,99.70
961.00,99.71
960.00,99.71
959.00,99.72
958.00,99.72
957.00,99.73
956.00,99.73
955.00,99.73
954.00,99.73
953.00,99.73
952.00,99.73
951.00,99.73
950.00,99.73
949.00,99.73
948.00,99.73
947.00,99.73
946.00,99.73
945.00,99.73
944.00,99.73
943.00,99.72
942.00,99.72
941.00,99.72
940.00,99.71
939.00,99.71
938.00,99.70
937.00,99.70
936.00,99.69
935.00,99.69
934.00,99.69
933.00,99.70
932.00,99.70
931.00,99.69
930.00,99.69
929.00,99.69
928.00,99.69
927.00,99.69
926.00,99.69
925.00,99.69
924.00,99.69
923.00,99.69
922.00,99.69
921.00,99.69
920.00,99.69
919.00,99.69
918.00,99.70
917.00,99.70
916.00,99.70
915.00,99.70
914.00,99.70
913.00,99.71
912.00,99.71
911.00,99.71
910.00,99.72
909.00,99.72
908.00,99.72
907.00,99.72
906.00,99.72
905.00,99.72
904.00,99.72
903.00,99.72
902.00,99.72
901.00,99.73
900.00,99.73
899.00,99.73
898.00,99.73
897.00,99.73
896.00,99.72
895.00,99.72
894.00,99.72
893.00,99.72
892.00,99.72
891.00,99.72
890.00,99.71
889.00,99.70
888.00,99.70
887.00,99.70
886.00,99.71
885.00,99.71
884.00,99.70
883.00,99.69
882.00,99.69
881.00,99.68
880.00,99.68
879.00,99.68
878.00,99.68
877.00,99.68
876.00,99.68
875.00,99.68
874.00,99.67
873.00,99.67
872.00,99.67
871.00,99.67
870.00,99.67
869.00,99.67
868.00,99.67
867.00,99.67
866.00,99.67
865.00,99.67
864.00,99.67
863.00,99.68
862.00,99.68
861.00,99.68
860.00,99.69
859.00,99.69
858.00,99.69
857.00,99.70
856.00,99.70
855.00,99.70
854.00,99.70
853.00,99.70
852.00,99.71
851.00,99.71
850.00,99.71
849.00,99.71
848.00,99.71
847.00,99.71
846.00,99.71
845.00,99.71
844.00,99.71
843.00,99.71
842.00,99.71
841.00,99.71
840.00,99.71
839.00,99.70
838.00,99.70
837.00,99.69
836.00,99.69
835.00,99.69
834.00,99.69
833.00,99.69
832.00,99.69
831.00,99.69
830.00,99.69
829.00,99.69
828.00,99.69
827.00,99.68
826.00,99.68
825.00,99.68
824.00,99.68
823.00,99.68
822.00,99.68
821.00,99.67
820.00,99.67
819.00,99.67
818.00,99.67
817.00,99.67
816.00,99.67
815.00,99.67
814.00,99.67
813.00,99.68
812.00,99.68
811.00,99.68
810.00,99.69
809.00,99.69
808.00,99.70
807.00,99.70
806.00,99.70
805.00,99.71
804.00,99.71
803.00,99.71
802.00,99.71
801.00,99.71
800.00,99.71
799.00,99.72
798.00,99.72
797.00,99.73
796.00,99.73
795.00,99.72
794.00,99.72
793.00,99.72
792.00,99.72
791.00,99.72
790.00,99.71
789.00,99.71
788.00,99.71
787.00,99.70
786.00,99.70
785.00,99.70
784.00,99.70
783.00,99.70
782.00,99.69
781.00,99.69
780.00,99.69
779.00,99.69
778.00,99.68
777.00,99.68
776.00,99.68
775.00,99.68
774.00,99.68
773.00,99.67
772.00,99.67
771.00,99.67
770.00,99.67
769.00,99.67
768.00,99.67
767.00,99.67
766.00,99.68
765.00,99.68
764.00,99.68
763.00,99.68
762.00,99.68
761.00,99.68
760.00,99.68
759.00,99.69
758.00,99.69
757.00,99.69
756.00,99.70
755.00,99.70
754.00,99.70
753.00,99.70
752.00,99.70
751.00,99.71
750.00,99.71
749.00,99.72
748.00,99.72
747.00,99.72
746.00,99.72
745.00,99.72
744.00,99.72
743.00,99.72
742.00,99.72
741.00,99.72
740.00,99.72
739.00,99.72
738.00,99.72
737.00,99.72
736.00,99.72
735.00,99.72
734.00,99.72
733.00,99.72
732.00,99.72
731.00,99.72
730.00,99.71
729.00,99.70
728.00,99.70
727.00,99.70
726.00,99.70
725.00,99.70
724.00,99.70
723.00,99.70
722.00,99.70
721.00,99.70
720.00,99.70
719.00,99.69
718.00,99.69
717.00,99.69
716.00,99.69
715.00,99.69
714.00,99.69
713.00,99.69
712.00,99.70
711.00,99.70
710.00,99.70
709.00,99.70
708.00,99.71
707.00,99.71
706.00,99.71
705.00,99.71
704.00,99.72
703.00,99.72
702.00,99.73
701.00,99.73
700.00,99.74
699.00,99.75
698.00,99.75
697.00,99.76
696.00,99.77
695.00,99.78
694.00,99.79
693.00,99.79
692.00,99.80
691.00,99.81
690.00,99.81
689.00,99.80
688.00,99.80
687.00,99.80
686.00,99.80
685.00,99.81
684.00,99.82
683.00,99.83
682.00,99.83
681.00,99.83
680.00,99.83
679.00,99.83
678.00,99.82
677.00,99.81
676.00,99.80
675.00,99.80
674.00,99.80
673.00,99.81
672.00,99.84
671.00,99.86
670.00,99.86
669.00,99.87
668.00,99.86
667.00,99.83
666.00,99.83
665.00,99.84
664.00,99.82
663.00,99.80
662.00,99.80
661.00,99.81
660.00,99.82
659.00,99.82
658.00,99.83
657.00,99.84
656.00,99.83
655.00,99.83
654.00,99.83
653.00,99.84
652.00,99.83
651.00,99.83
650.00,99.84
649.00,99.84
648.00,99.83
647.00,99.82
646.00,99.82
645.00,99.83
644.00,99.82
643.00,99.82
642.00,99.83
641.00,99.83
640.00,99.82
639.00,99.81
638.00,99.81
637.00,99.81
636.00,99.81
635.00,99.81
634.00,99.82
633.00,99.82
632.00,99.81
631.00,99.81
630.00,99.81
629.00,99.81
628.00,99.80
627.00,99.80
626.00,99.80
625.00,99.80
624.00,99.79
623.00,99.79
622.00,99.79
621.00,99.80
620.00,99.80
619.00,99.80
618.00,99.80
617.00,99.80
616.00,99.80
615.00,99.79
614.00,99.80
613.00,99.80
612.00,99.80
611.00,99.79
610.00,99.79
609.00,99.79
608.00,99.79
607.00,99.79
606.00,99.79
605.00,99.79
604.00,99.80
603.00,99.80
602.00,99.80
601.00,99.80
600.00,99.79
599.00,99.79
598.00,99.80
597.00,99.80
596.00,99.81
595.00,99.82
594.00,99.82
593.00,99.83
592.00,99.83
591.00,99.83
590.00,99.84
589.00,99.84
588.00,99.84
587.00,99.83
586.00,99.83
585.00,99.83
584.00,99.83
583.00,99.83
582.00,99.83
581.00,99.84
580.00,99.84
579.00,99.85
578.00,99.86
577.00,99.86
576.00,99.85
575.00,99.84
574.00,99.83
573.00,99.83
572.00,99.84
571.00,99.84
570.00,99.83
569.00,99.82
568.00,99.82
567.00,99.81
566.00,99.82
565.00,99.81
564.00,99.80
563.00,99.80
562.00,99.80
561.00,99.80
560.00,99.80
559.00,99.80
558.00,99.80
557.00,99.80
556.00,99.80
555.00,99.80
554.00,99.80
553.00,99.80
552.00,99.80
551.00,99.80
550.00,99.81
549.00,99.82
548.00,99.82
547.00,99.82
546.00,99.82
545.00,99.81
544.00,99.81
543.00,99.81
542.00,99.82
541.00,99.83
540.00,99.83
539.00,99.83
538.00,99.83
537.00,99.82
536.00,99.82
535.00,99.82
534.00,99.83
533.00,99.83
532.00,99.82
531.00,99.82
530.00,99.81
529.00,99.82
528.00,99.82
527.00,99.82
526.00,99.83
525.00,99.83
524.00,99.83
523.00,99.82
522.00,99.81
521.00,99.80
520.00,99.80
519.00,99.80
518.00,99.81
517.00,99.82
516.00,99.83
515.00,99.83
514.00,99.83
513.00,99.82
512.00,99.82
511.00,99.82
510.00,99.82
509.00,99.82
508.00,99.82
507.00,99.82
506.00,99.83
505.00,99.84
504.00,99.85
503.00,99.86
502.00,99.86
501.00,99.86
500.00,99.84
