Created as New Dataset,Sample 354 By Analyst Date Wednesday, February 05 2025
cm-1,%T
4000.00,107.42
3999.00,107.42
3998.00,107.41
3997.00,107.41
3996.00,107.41
3995.00,107.40
3994.00,107.40
3993.00,107.40
3992.00,107.39
3991.00,107.39
3990.00,107.39
3989.00,107.39
3988.00,107.38
3987.00,107.38
3986.00,107.38
3985.00,107.38
3984.00,107.38
3983.00,107.37
3982.00,107.37
3981.00,107.37
3980.00,107.37
3979.00,107.37
3978.00,107.37
3977.00,107.37
3976.00,107.37
3975.00,107.37
3974.00,107.37
3973.00,107.37
3972.00,107.37
3971.00,107.37
3970.00,107.37
3969.00,107.37
3968.00,107.37
3967.00,107.37
3966.00,107.37
3965.00,107.37
3964.00,107.37
3963.00,107.37
3962.00,107.37
3961.00,107.38
3960.00,107.38
3959.00,107.38
3958.00,107.38
3957.00,107.38
3956.00,107.38
3955.00,107.38
3954.00,107.38
3953.00,107.38
3952.00,107.38
3951.00,107.38
3950.00,107.38
3949.00,107.38
3948.00,107.38
3947.00,107.38
3946.00,107.38
3945.00,107.38
3944.00,107.38
3943.00,107.38
3942.00,107.38
3941.00,107.38
3940.00,107.38
3939.00,107.37
3938.00,107.37
3937.00,107.37
3936.00,107.37
3935.00,107.37
3934.00,107.36
3933.00,107.36
3932.00,107.36
3931.00,107.36
3930.00,107.36
3929.00,107.36
3928.00,107.36
3927.00,107.36
3926.00,107.35
3925.00,107.35
3924.00,107.35
3923.00,107.35
3922.00,107.35
3921.00,107.35
3920.00,107.35
3919.00,107.35
3918.00,107.35
3917.00,107.35
3916.00,107.35
3915.00,107.35
3914.00,107.35
3913.00,107.35
3912.00,107.35
3911.00,107.35
3910.00,107.35
3909.00,107.35
3908.00,107.35
3907.00,107.35
3906.00,107.36
3905.00,107.36
3904.00,107.36
3903.00,107.36
3902.00,107.36
3901.00,107.35
3900.00,107.35
3899.00,107.36
3898.00,107.36
3897.00,107.36
3896.00,107.36
3895.00,107.36
3894.00,107.35
3893.00,107.35
3892.00,107.35
3891.00,107.35
3890.00,107.36
3889.00,107.36
3888.00,107.35
3887.00,107.34
3886.00,107.35
3885.00,107.35
3884.00,107.35
3883.00,107.34
3882.00,107.33
3881.00,107.33
3880.00,107.34
3879.00,107.35
3878.00,107.34
3877.00,107.33
3876.00,107.32
3875.00,107.33
3874.00,107.34
3873.00,107.35
3872.00,107.34
3871.00,107.33
3870.00,107.34
3869.00,107.35
3868.00,107.36
3867.00,107.34
3866.00,107.34
3865.00,107.34
3864.00,107.35
3863.00,107.35
3862.00,107.34
3861.00,107.34
3860.00,107.34
3859.00,107.35
3858.00,107.37
3857.00,107.38
3856.00,107.40
3855.00,107.40
3854.00,107.39
3853.00,107.40
3852.00,107.41
3851.00,107.41
3850.00,107.39
3849.00,107.38
3848.00,107.37
3847.00,107.37
3846.00,107.36
3845.00,107.35
3844.00,107.35
3843.00,107.36
3842.00,107.36
3841.00,107.36
3840.00,107.37
3839.00,107.37
3838.00,107.37
3837.00,107.37
3836.00,107.37
3835.00,107.36
3834.00,107.35
3833.00,107.35
3832.00,107.34
3831.00,107.34
3830.00,107.33
3829.00,107.32
3828.00,107.31
3827.00,107.31
3826.00,107.32
3825.00,107.33
3824.00,107.33
3823.00,107.32
3822.00,107.32
3821.00,107.32
3820.00,107.33
3819.00,107.33
3818.00,107.32
3817.00,107.31
3816.00,107.31
3815.00,107.32
3814.00,107.31
3813.00,107.30
3812.00,107.29
3811.00,107.30
3810.00,107.30
3809.00,107.30
3808.00,107.29
3807.00,107.30
3806.00,107.31
3805.00,107.32
3804.00,107.31
3803.00,107.30
3802.00,107.31
3801.00,107.32
3800.00,107.32
3799.00,107.31
3798.00,107.30
3797.00,107.29
3796.00,107.30
3795.00,107.30
3794.00,107.29
3793.00,107.29
3792.00,107.28
3791.00,107.28
3790.00,107.28
3789.00,107.28
3788.00,107.28
3787.00,107.28
3786.00,107.28
3785.00,107.28
3784.00,107.28
3783.00,107.28
3782.00,107.28
3781.00,107.28
3780.00,107.28
3779.00,107.28
3778.00,107.28
3777.00,107.28
3776.00,107.27
3775.00,107.27
3774.00,107.28
3773.00,107.28
3772.00,107.28
3771.00,107.28
3770.00,107.28
3769.00,107.28
3768.00,107.28
3767.00,107.27
3766.00,107.27
3765.00,107.28
3764.00,107.28
3763.00,107.29
3762.00,107.28
3761.00,107.28
3760.00,107.28
3759.00,107.29
3758.00,107.29
3757.00,107.29
3756.00,107.30
3755.00,107.31
3754.00,107.32
3753.00,107.34
3752.00,107.34
3751.00,107.34
3750.00,107.34
3749.00,107.35
3748.00,107.35
3747.00,107.34
3746.00,107.33
3745.00,107.32
3744.00,107.33
3743.00,107.34
3742.00,107.32
3741.00,107.30
3740.00,107.29
3739.00,107.30
3738.00,107.30
3737.00,107.28
3736.00,107.28
3735.00,107.28
3734.00,107.28
3733.00,107.27
3732.00,107.27
3731.00,107.27
3730.00,107.26
3729.00,107.25
3728.00,107.23
3727.00,107.22
3726.00,107.22
3725.00,107.22
3724.00,107.21
3723.00,107.21
3722.00,107.21
3721.00,107.21
3720.00,107.21
3719.00,107.21
3718.00,107.21
3717.00,107.21
3716.00,107.21
3715.00,107.22
3714.00,107.22
3713.00,107.22
3712.00,107.22
3711.00,107.22
3710.00,107.22
3709.00,107.22
3708.00,107.22
3707.00,107.23
3706.00,107.23
3705.00,107.23
3704.00,107.23
3703.00,107.23
3702.00,107.24
3701.00,107.25
3700.00,107.25
3699.00,107.26
3698.00,107.26
3697.00,107.26
3696.00,107.28
3695.00,107.29
3694.00,107.29
3693.00,107.31
3692.00,107.32
3691.00,107.33
3690.00,107.34
3689.00,107.34
3688.00,107.35
3687.00,107.36
3686.00,107.35
3685.00,107.35
3684.00,107.34
3683.00,107.35
3682.00,107.35
3681.00,107.35
3680.00,107.35
3679.00,107.36
3678.00,107.37
3677.00,107.37
3676.00,107.36
3675.00,107.37
3674.00,107.39
3673.00,107.38
3672.00,107.37
3671.00,107.36
3670.00,107.36
3669.00,107.36
3668.00,107.36
3667.00,107.34
3666.00,107.33
3665.00,107.33
3664.00,107.33
3663.00,107.32
3662.00,107.32
3661.00,107.32
3660.00,107.32
3659.00,107.32
3658.00,107.32
3657.00,107.31
3656.00,107.32
3655.00,107.33
3654.00,107.33
3653.00,107.33
3652.00,107.34
3651.00,107.34
3650.00,107.34
3649.00,107.33
3648.00,107.33
3647.00,107.33
3646.00,107.33
3645.00,107.32
3644.00,107.32
3643.00,107.31
3642.00,107.31
3641.00,107.30
3640.00,107.30
3639.00,107.29
3638.00,107.29
3637.00,107.29
3636.00,107.29
3635.00,107.29
3634.00,107.30
3633.00,107.31
3632.00,107.31
3631.00,107.31
3630.00,107.31
3629.00,107.31
3628.00,107.31
3627.00,107.32
3626.00,107.31
3625.00,107.30
3624.00,107.30
3623.00,107.30
3622.00,107.30
3621.00,107.29
3620.00,107.29
3619.00,107.29
3618.00,107.30
3617.00,107.30
3616.00,107.29
3615.00,107.29
3614.00,107.29
3613.00,107.29
3612.00,107.29
3611.00,107.29
3610.00,107.29
3609.00,107.28
3608.00,107.28
3607.00,107.28
3606.00,107.28
3605.00,107.28
3604.00,107.28
3603.00,107.28
3602.00,107.28
3601.00,107.28
3600.00,107.28
3599.00,107.29
3598.00,107.29
3597.00,107.29
3596.00,107.29
3595.00,107.29
3594.00,107.30
3593.00,107.30
3592.00,107.31
3591.00,107.31
3590.00,107.31
3589.00,107.31
3588.00,107.31
3587.00,107.32
3586.00,107.33
3585.00,107.33
3584.00,107.33
3583.00,107.33
3582.00,107.33
3581.00,107.33
3580.00,107.33
3579.00,107.33
3578.00,107.33
3577.00,107.33
3576.00,107.33
3575.00,107.33
3574.00,107.33
3573.00,107.33
3572.00,107.34
3571.00,107.34
3570.00,107.33
3569.00,107.33
3568.00,107.33
3567.00,107.33
3566.00,107.33
3565.00,107.33
3564.00,107.34
3563.00,107.34
3562.00,107.34
3561.00,107.34
3560.00,107.34
3559.00,107.33
3558.00,107.33
3557.00,107.33
3556.00,107.33
3555.00,107.33
3554.00,107.33
3553.00,107.33
3552.00,107.33
3551.00,107.34
3550.00,107.34
3549.00,107.34
3548.00,107.33
3547.00,107.34
3546.00,107.34
3545.00,107.34
3544.00,107.34
3543.00,107.34
3542.00,107.34
3541.00,107.34
3540.00,107.34
3539.00,107.34
3538.00,107.34
3537.00,107.34
3536.00,107.34
3535.00,107.34
3534.00,107.34
3533.00,107.34
3532.00,107.34
3531.00,107.34
3530.00,107.34
3529.00,107.34
3528.00,107.34
3527.00,107.34
3526.00,107.34
3525.00,107.34
3524.00,107.34
3523.00,107.34
3522.00,107.34
3521.00,107.34
3520.00,107.34
3519.00,107.34
3518.00,107.34
3517.00,107.34
3516.00,107.33
3515.00,107.33
3514.00,107.33
3513.00,107.33
3512.00,107.33
3511.00,107.32
3510.00,107.32
3509.00,107.32
3508.00,107.32
3507.00,107.32
3506.00,107.32
3505.00,107.32
3504.00,107.32
3503.00,107.32
3502.00,107.32
3501.00,107.32
3500.00,107.32
3499.00,107.32
3498.00,107.32
3497.00,107.32
3496.00,107.32
3495.00,107.33
3494.00,107.33
3493.00,107.33
3492.00,107.33
3491.00,107.33
3490.00,107.33
3489.00,107.34
3488.00,107.34
3487.00,107.34
3486.00,107.35
3485.00,107.35
3484.00,107.35
3483.00,107.36
3482.00,107.36
3481.00,107.36
3480.00,107.37
3479.00,107.37
3478.00,107.37
3477.00,107.37
3476.00,107.37
3475.00,107.38
3474.00,107.38
3473.00,107.38
3472.00,107.38
3471.00,107.38
3470.00,107.38
3469.00,107.39
3468.00,107.39
3467.00,107.39
3466.00,107.39
3465.00,107.39
3464.00,107.39
3463.00,107.38
3462.00,107.38
3461.00,107.38
3460.00,107.38
3459.00,107.38
3458.00,107.38
3457.00,107.38
3456.00,107.38
3455.00,107.38
3454.00,107.38
3453.00,107.38
3452.00,107.38
3451.00,107.38
3450.00,107.38
3449.00,107.38
3448.00,107.37
3447.00,107.37
3446.00,107.37
3445.00,107.37
3444.00,107.38
3443.00,107.38
3442.00,107.38
3441.00,107.39
3440.00,107.39
3439.00,107.39
3438.00,107.39
3437.00,107.40
3436.00,107.40
3435.00,107.40
3434.00,107.40
3433.00,107.41
3432.00,107.41
3431.00,107.41
3430.00,107.41
3429.00,107.41
3428.00,107.41
3427.00,107.42
3426.00,107.42
3425.00,107.42
3424.00,107.42
3423.00,107.42
3422.00,107.42
3421.00,107.42
3420.00,107.42
3419.00,107.42
3418.00,107.41
3417.00,107.41
3416.00,107.41
3415.00,107.40
3414.00,107.40
3413.00,107.40
3412.00,107.39
3411.00,107.39
3410.00,107.38
3409.00,107.38
3408.00,107.38
3407.00,107.37
3406.00,107.37
3405.00,107.36
3404.00,107.36
3403.00,107.35
3402.00,107.35
3401.00,107.34
3400.00,107.34
3399.00,107.34
3398.00,107.33
3397.00,107.33
3396.00,107.33
3395.00,107.33
3394.00,107.32
3393.00,107.32
3392.00,107.32
3391.00,107.32
3390.00,107.32
3389.00,107.32
3388.00,107.32
3387.00,107.32
3386.00,107.32
3385.00,107.32
3384.00,107.32
3383.00,107.32
3382.00,107.32
3381.00,107.32
3380.00,107.32
3379.00,107.32
3378.00,107.33
3377.00,107.33
3376.00,107.33
3375.00,107.33
3374.00,107.33
3373.00,107.33
3372.00,107.33
3371.00,107.33
3370.00,107.33
3369.00,107.33
3368.00,107.33
3367.00,107.33
3366.00,107.33
3365.00,107.33
3364.00,107.32
3363.00,107.32
3362.00,107.32
3361.00,107.32
3360.00,107.31
3359.00,107.31
3358.00,107.30
3357.00,107.30
3356.00,107.30
3355.00,107.29
3354.00,107.29
3353.00,107.29
3352.00,107.29
3351.00,107.29
3350.00,107.28
3349.00,107.28
3348.00,107.28
3347.00,107.28
3346.00,107.28
3345.00,107.28
3344.00,107.28
3343.00,107.28
3342.00,107.28
3341.00,107.28
3340.00,107.28
3339.00,107.28
3338.00,107.29
3337.00,107.29
3336.00,107.29
3335.00,107.29
3334.00,107.29
3333.00,107.30
3332.00,107.30
3331.00,107.30
3330.00,107.31
3329.00,107.31
3328.00,107.31
3327.00,107.32
3326.00,107.32
3325.00,107.33
3324.00,107.33
3323.00,107.33
3322.00,107.34
3321.00,107.34
3320.00,107.34
3319.00,107.34
3318.00,107.35
3317.00,107.35
3316.00,107.35
3315.00,107.35
3314.00,107.36
3313.00,107.36
3312.00,107.36
3311.00,107.37
3310.00,107.37
3309.00,107.37
3308.00,107.38
3307.00,107.38
3306.00,107.39
3305.00,107.39
3304.00,107.39
3303.00,107.39
3302.00,107.39
3301.00,107.38
3300.00,107.38
3299.00,107.38
3298.00,107.37
3297.00,107.37
3296.00,107.36
3295.00,107.36
3294.00,107.35
3293.00,107.35
3292.00,107.34
3291.00,107.33
3290.00,107.33
3289.00,107.33
3288.00,107.32
3287.00,107.32
3286.00,107.31
3285.00,107.31
3284.00,107.31
3283.00,107.31
3282.00,107.30
3281.00,107.30
3280.00,107.30
3279.00,107.30
3278.00,107.30
3277.00,107.30
3276.00,107.30
3275.00,107.30
3274.00,107.30
3273.00,107.30
3272.00,107.30
3271.00,107.30
3270.00,107.30
3269.00,107.30
3268.00,107.30
3267.00,107.29
3266.00,107.29
3265.00,107.29
3264.00,107.29
3263.00,107.29
3262.00,107.29
3261.00,107.29
3260.00,107.29
3259.00,107.29
3258.00,107.29
3257.00,107.29
3256.00,107.29
3255.00,107.28
3254.00,107.28
3253.00,107.28
3252.00,107.28
3251.00,107.28
3250.00,107.28
3249.00,107.28
3248.00,107.28
3247.00,107.28
3246.00,107.28
3245.00,107.27
3244.00,107.27
3243.00,107.27
3242.00,107.27
3241.00,107.27
3240.00,107.27
3239.00,107.27
3238.00,107.27
3237.00,107.27
3236.00,107.27
3235.00,107.27
3234.00,107.28
3233.00,107.28
3232.00,107.28
3231.00,107.28
3230.00,107.28
3229.00,107.28
3228.00,107.29
3227.00,107.29
3226.00,107.29
3225.00,107.30
3224.00,107.30
3223.00,107.30
3222.00,107.31
3221.00,107.31
3220.00,107.31
3219.00,107.32
3218.00,107.32
3217.00,107.32
3216.00,107.33
3215.00,107.33
3214.00,107.33
3213.00,107.33
3212.00,107.34
3211.00,107.34
3210.00,107.34
3209.00,107.34
3208.00,107.34
3207.00,107.34
3206.00,107.35
3205.00,107.35
3204.00,107.35
3203.00,107.35
3202.00,107.35
3201.00,107.35
3200.00,107.35
3199.00,107.35
3198.00,107.34
3197.00,107.34
3196.00,107.34
3195.00,107.34
3194.00,107.34
3193.00,107.33
3192.00,107.33
3191.00,107.33
3190.00,107.33
3189.00,107.32
3188.00,107.32
3187.00,107.32
3186.00,107.32
3185.00,107.32
3184.00,107.32
3183.00,107.32
3182.00,107.32
3181.00,107.32
3180.00,107.32
3179.00,107.32
3178.00,107.32
3177.00,107.32
3176.00,107.32
3175.00,107.32
3174.00,107.32
3173.00,107.32
3172.00,107.32
3171.00,107.32
3170.00,107.32
3169.00,107.32
3168.00,107.32
3167.00,107.32
3166.00,107.32
3165.00,107.33
3164.00,107.33
3163.00,107.33
3162.00,107.33
3161.00,107.34
3160.00,107.34
3159.00,107.34
3158.00,107.34
3157.00,107.34
3156.00,107.35
3155.00,107.35
3154.00,107.35
3153.00,107.35
3152.00,107.34
3151.00,107.34
3150.00,107.34
3149.00,107.34
3148.00,107.34
3147.00,107.34
3146.00,107.33
3145.00,107.33
3144.00,107.33
3143.00,107.33
3142.00,107.33
3141.00,107.33
3140.00,107.33
3139.00,107.32
3138.00,107.32
3137.00,107.32
3136.00,107.32
3135.00,107.32
3134.00,107.32
3133.00,107.32
3132.00,107.32
3131.00,107.32
3130.00,107.32
3129.00,107.32
3128.00,107.32
3127.00,107.32
3126.00,107.33
3125.00,107.33
3124.00,107.33
3123.00,107.33
3122.00,107.34
3121.00,107.34
3120.00,107.35
3119.00,107.35
3118.00,107.35
3117.00,107.36
3116.00,107.36
3115.00,107.36
3114.00,107.37
3113.00,107.37
3112.00,107.37
3111.00,107.38
3110.00,107.38
3109.00,107.39
3108.00,107.39
3107.00,107.39
3106.00,107.40
3105.00,107.40
3104.00,107.40
3103.00,107.40
3102.00,107.40
3101.00,107.40
3100.00,107.40
3099.00,107.40
3098.00,107.40
3097.00,107.40
3096.00,107.40
3095.00,107.39
3094.00,107.39
3093.00,107.39
3092.00,107.39
3091.00,107.39
3090.00,107.38
3089.00,107.38
3088.00,107.38
3087.00,107.38
3086.00,107.38
3085.00,107.38
3084.00,107.38
3083.00,107.38
3082.00,107.38
3081.00,107.38
3080.00,107.38
3079.00,107.38
3078.00,107.37
3077.00,107.37
3076.00,107.37
3075.00,107.37
3074.00,107.38
3073.00,107.38
3072.00,107.38
3071.00,107.38
3070.00,107.38
3069.00,107.38
3068.00,107.38
3067.00,107.39
3066.00,107.39
3065.00,107.39
3064.00,107.39
3063.00,107.39
3062.00,107.40
3061.00,107.40
3060.00,107.40
3059.00,107.40
3058.00,107.41
3057.00,107.41
3056.00,107.41
3055.00,107.41
3054.00,107.41
3053.00,107.41
3052.00,107.42
3051.00,107.42
3050.00,107.42
3049.00,107.42
3048.00,107.42
3047.00,107.42
3046.00,107.42
3045.00,107.42
3044.00,107.42
3043.00,107.42
3042.00,107.42
3041.00,107.41
3040.00,107.41
3039.00,107.41
3038.00,107.41
3037.00,107.40
3036.00,107.40
3035.00,107.40
3034.00,107.40
3033.00,107.40
3032.00,107.39
3031.00,107.39
3030.00,107.39
3029.00,107.39
3028.00,107.39
3027.00,107.39
3026.00,107.39
3025.00,107.38
3024.00,107.38
3023.00,107.38
3022.00,107.38
3021.00,107.38
3020.00,107.38
3019.00,107.39
3018.00,107.39
3017.00,107.39
3016.00,107.39
3015.00,107.39
3014.00,107.40
3013.00,107.40
3012.00,107.40
3011.00,107.41
3010.00,107.41
3009.00,107.41
3008.00,107.41
3007.00,107.41
3006.00,107.41
3005.00,107.42
3004.00,107.42
3003.00,107.42
3002.00,107.42
3001.00,107.42
3000.00,107.42
2999.00,107.42
2998.00,107.42
2997.00,107.42
2996.00,107.41
2995.00,107.41
2994.00,107.41
2993.00,107.41
2992.00,107.41
2991.00,107.41
2990.00,107.40
2989.00,107.40
2988.00,107.39
2987.00,107.39
2986.00,107.39
2985.00,107.39
2984.00,107.38
2983.00,107.38
2982.00,107.38
2981.00,107.38
2980.00,107.38
2979.00,107.37
2978.00,107.37
2977.00,107.37
2976.00,107.37
2975.00,107.37
2974.00,107.37
2973.00,107.37
2972.00,107.37
2971.00,107.36
2970.00,107.36
2969.00,107.36
2968.00,107.36
2967.00,107.37
2966.00,107.37
2965.00,107.37
2964.00,107.37
2963.00,107.37
2962.00,107.38
2961.00,107.38
2960.00,107.38
2959.00,107.38
2958.00,107.39
2957.00,107.39
2956.00,107.39
2955.00,107.39
2954.00,107.40
2953.00,107.40
2952.00,107.40
2951.00,107.40
2950.00,107.40
2949.00,107.40
2948.00,107.41
2947.00,107.41
2946.00,107.41
2945.00,107.41
2944.00,107.41
2943.00,107.41
2942.00,107.41
2941.00,107.41
2940.00,107.41
2939.00,107.41
2938.00,107.41
2937.00,107.41
2936.00,107.40
2935.00,107.40
2934.00,107.40
2933.00,107.40
2932.00,107.40
2931.00,107.39
2930.00,107.39
2929.00,107.39
2928.00,107.39
2927.00,107.38
2926.00,107.38
2925.00,107.38
2924.00,107.38
2923.00,107.38
2922.00,107.38
2921.00,107.38
2920.00,107.38
2919.00,107.38
2918.00,107.38
2917.00,107.38
2916.00,107.38
2915.00,107.38
2914.00,107.38
2913.00,107.38
2912.00,107.37
2911.00,107.37
2910.00,107.37
2909.00,107.37
2908.00,107.37
2907.00,107.38
2906.00,107.38
2905.00,107.38
2904.00,107.38
2903.00,107.38
2902.00,107.38
2901.00,107.38
2900.00,107.39
2899.00,107.39
2898.00,107.39
2897.00,107.39
2896.00,107.39
2895.00,107.40
2894.00,107.40
2893.00,107.40
2892.00,107.40
2891.00,107.40
2890.00,107.40
2889.00,107.40
2888.00,107.40
2887.00,107.40
2886.00,107.40
2885.00,107.40
2884.00,107.39
2883.00,107.39
2882.00,107.39
2881.00,107.39
2880.00,107.39
2879.00,107.39
2878.00,107.39
2877.00,107.38
2876.00,107.38
2875.00,107.38
2874.00,107.38
2873.00,107.38
2872.00,107.37
2871.00,107.37
2870.00,107.36
2869.00,107.36
2868.00,107.36
2867.00,107.36
2866.00,107.36
2865.00,107.36
2864.00,107.36
2863.00,107.36
2862.00,107.36
2861.00,107.36
2860.00,107.36
2859.00,107.36
2858.00,107.37
2857.00,107.37
2856.00,107.37
2855.00,107.38
2854.00,107.38
2853.00,107.38
2852.00,107.39
2851.00,107.39
2850.00,107.39
2849.00,107.40
2848.00,107.40
2847.00,107.40
2846.00,107.40
2845.00,107.41
2844.00,107.41
2843.00,107.41
2842.00,107.41
2841.00,107.41
2840.00,107.42
2839.00,107.42
2838.00,107.42
2837.00,107.42
2836.00,107.42
2835.00,107.42
2834.00,107.42
2833.00,107.42
2832.00,107.41
2831.00,107.41
2830.00,107.41
2829.00,107.41
2828.00,107.40
2827.00,107.40
2826.00,107.40
2825.00,107.39
2824.00,107.39
2823.00,107.39
2822.00,107.39
2821.00,107.38
2820.00,107.38
2819.00,107.37
2818.00,107.37
2817.00,107.37
2816.00,107.36
2815.00,107.36
2814.00,107.36
2813.00,107.36
2812.00,107.35
2811.00,107.35
2810.00,107.35
2809.00,107.35
2808.00,107.35
2807.00,107.35
2806.00,107.35
2805.00,107.35
2804.00,107.35
2803.00,107.36
2802.00,107.36
2801.00,107.36
2800.00,107.36
2799.00,107.37
2798.00,107.37
2797.00,107.37
2796.00,107.38
2795.00,107.38
2794.00,107.38
2793.00,107.38
2792.00,107.39
2791.00,107.39
2790.00,107.39
2789.00,107.39
2788.00,107.39
2787.00,107.39
2786.00,107.39
2785.00,107.40
2784.00,107.40
2783.00,107.40
2782.00,107.39
2781.00,107.39
2780.00,107.39
2779.00,107.39
2778.00,107.39
2777.00,107.39
2776.00,107.38
2775.00,107.38
2774.00,107.38
2773.00,107.38
2772.00,107.37
2771.00,107.37
2770.00,107.37
2769.00,107.36
2768.00,107.36
2767.00,107.36
2766.00,107.36
2765.00,107.35
2764.00,107.35
2763.00,107.35
2762.00,107.35
2761.00,107.35
2760.00,107.35
2759.00,107.35
2758.00,107.35
2757.00,107.35
2756.00,107.35
2755.00,107.35
2754.00,107.35
2753.00,107.35
2752.00,107.35
2751.00,107.36
2750.00,107.36
2749.00,107.36
2748.00,107.37
2747.00,107.37
2746.00,107.37
2745.00,107.38
2744.00,107.38
2743.00,107.38
2742.00,107.38
2741.00,107.39
2740.00,107.39
2739.00,107.39
2738.00,107.39
2737.00,107.40
2736.00,107.40
2735.00,107.40
2734.00,107.40
2733.00,107.40
2732.00,107.40
2731.00,107.40
2730.00,107.40
2729.00,107.39
2728.00,107.39
2727.00,107.39
2726.00,107.38
2725.00,107.38
2724.00,107.37
2723.00,107.37
2722.00,107.36
2721.00,107.36
2720.00,107.35
2719.00,107.35
2718.00,107.34
2717.00,107.34
2716.00,107.33
2715.00,107.33
2714.00,107.33
2713.00,107.32
2712.00,107.32
2711.00,107.31
2710.00,107.31
2709.00,107.31
2708.00,107.31
2707.00,107.31
2706.00,107.31
2705.00,107.30
2704.00,107.30
2703.00,107.31
2702.00,107.31
2701.00,107.31
2700.00,107.31
2699.00,107.31
2698.00,107.31
2697.00,107.32
2696.00,107.32
2695.00,107.32
2694.00,107.32
2693.00,107.33
2692.00,107.33
2691.00,107.33
2690.00,107.34
2689.00,107.34
2688.00,107.34
2687.00,107.35
2686.00,107.35
2685.00,107.35
2684.00,107.35
2683.00,107.36
2682.00,107.36
2681.00,107.36
2680.00,107.36
2679.00,107.36
2678.00,107.37
2677.00,107.37
2676.00,107.37
2675.00,107.37
2674.00,107.37
2673.00,107.37
2672.00,107.36
2671.00,107.36
2670.00,107.36
2669.00,107.36
2668.00,107.35
2667.00,107.35
2666.00,107.34
2665.00,107.34
2664.00,107.33
2663.00,107.33
2662.00,107.33
2661.00,107.32
2660.00,107.32
2659.00,107.32
2658.00,107.31
2657.00,107.31
2656.00,107.31
2655.00,107.30
2654.00,107.30
2653.00,107.30
2652.00,107.30
2651.00,107.30
2650.00,107.30
2649.00,107.30
2648.00,107.30
2647.00,107.30
2646.00,107.30
2645.00,107.30
2644.00,107.30
2643.00,107.30
2642.00,107.30
2641.00,107.31
2640.00,107.31
2639.00,107.31
2638.00,107.31
2637.00,107.31
2636.00,107.32
2635.00,107.32
2634.00,107.32
2633.00,107.32
2632.00,107.32
2631.00,107.32
2630.00,107.32
2629.00,107.32
2628.00,107.32
2627.00,107.33
2626.00,107.33
2625.00,107.33
2624.00,107.33
2623.00,107.32
2622.00,107.32
2621.00,107.32
2620.00,107.32
2619.00,107.32
2618.00,107.32
2617.00,107.32
2616.00,107.32
2615.00,107.31
2614.00,107.31
2613.00,107.31
2612.00,107.31
2611.00,107.31
2610.00,107.30
2609.00,107.30
2608.00,107.30
2607.00,107.30
2606.00,107.30
2605.00,107.29
2604.00,107.29
2603.00,107.29
2602.00,107.29
2601.00,107.29
2600.00,107.29
2599.00,107.29
2598.00,107.29
2597.00,107.29
2596.00,107.29
2595.00,107.29
2594.00,107.29
2593.00,107.29
2592.00,107.30
2591.00,107.30
2590.00,107.30
2589.00,107.30
2588.00,107.31
2587.00,107.31
2586.00,107.32
2585.00,107.32
2584.00,107.32
2583.00,107.32
2582.00,107.33
2581.00,107.33
2580.00,107.33
2579.00,107.33
2578.00,107.34
2577.00,107.34
2576.00,107.34
2575.00,107.34
2574.00,107.34
2573.00,107.34
2572.00,107.34
2571.00,107.34
2570.00,107.34
2569.00,107.34
2568.00,107.34
2567.00,107.34
2566.00,107.34
2565.00,107.33
2564.00,107.33
2563.00,107.33
2562.00,107.32
2561.00,107.32
2560.00,107.31
2559.00,107.31
2558.00,107.31
2557.00,107.30
2556.00,107.30
2555.00,107.29
2554.00,107.29
2553.00,107.29
2552.00,107.28
2551.00,107.28
2550.00,107.28
2549.00,107.27
2548.00,107.27
2547.00,107.27
2546.00,107.26
2545.00,107.26
2544.00,107.26
2543.00,107.26
2542.00,107.26
2541.00,107.26
2540.00,107.25
2539.00,107.25
2538.00,107.25
2537.00,107.26
2536.00,107.26
2535.00,107.26
2534.00,107.26
2533.00,107.26
2532.00,107.27
2531.00,107.27
2530.00,107.27
2529.00,107.28
2528.00,107.28
2527.00,107.28
2526.00,107.28
2525.00,107.29
2524.00,107.29
2523.00,107.29
2522.00,107.29
2521.00,107.29
2520.00,107.29
2519.00,107.29
2518.00,107.29
2517.00,107.29
2516.00,107.28
2515.00,107.28
2514.00,107.28
2513.00,107.28
2512.00,107.27
2511.00,107.27
2510.00,107.27
2509.00,107.26
2508.00,107.26
2507.00,107.25
2506.00,107.25
2505.00,107.24
2504.00,107.24
2503.00,107.23
2502.00,107.23
2501.00,107.23
2500.00,107.22
2499.00,107.22
2498.00,107.22
2497.00,107.22
2496.00,107.21
2495.00,107.21
2494.00,107.21
2493.00,107.21
2492.00,107.21
2491.00,107.21
2490.00,107.21
2489.00,107.21
2488.00,107.21
2487.00,107.21
2486.00,107.21
2485.00,107.21
2484.00,107.22
2483.00,107.22
2482.00,107.22
2481.00,107.22
2480.00,107.22
2479.00,107.23
2478.00,107.23
2477.00,107.23
2476.00,107.24
2475.00,107.24
2474.00,107.24
2473.00,107.24
2472.00,107.24
2471.00,107.25
2470.00,107.25
2469.00,107.25
2468.00,107.25
2467.00,107.25
2466.00,107.25
2465.00,107.25
2464.00,107.25
2463.00,107.25
2462.00,107.24
2461.00,107.24
2460.00,107.24
2459.00,107.23
2458.00,107.23
2457.00,107.23
2456.00,107.22
2455.00,107.22
2454.00,107.21
2453.00,107.21
2452.00,107.21
2451.00,107.20
2450.00,107.20
2449.00,107.19
2448.00,107.19
2447.00,107.19
2446.00,107.19
2445.00,107.19
2444.00,107.18
2443.00,107.18
2442.00,107.18
2441.00,107.18
2440.00,107.19
2439.00,107.19
2438.00,107.19
2437.00,107.19
2436.00,107.20
2435.00,107.20
2434.00,107.20
2433.00,107.21
2432.00,107.21
2431.00,107.21
2430.00,107.22
2429.00,107.22
2428.00,107.23
2427.00,107.23
2426.00,107.24
2425.00,107.25
2424.00,107.25
2423.00,107.26
2422.00,107.26
2421.00,107.27
2420.00,107.27
2419.00,107.28
2418.00,107.28
2417.00,107.29
2416.00,107.29
2415.00,107.29
2414.00,107.29
2413.00,107.29
2412.00,107.29
2411.00,107.29
2410.00,107.29
2409.00,107.29
2408.00,107.29
2407.00,107.28
2406.00,107.28
2405.00,107.28
2404.00,107.27
2403.00,107.27
2402.00,107.27
2401.00,107.26
2400.00,107.26
2399.00,107.25
2398.00,107.25
2397.00,107.24
2396.00,107.24
2395.00,107.24
2394.00,107.23
2393.00,107.23
2392.00,107.23
2391.00,107.22
2390.00,107.22
2389.00,107.22
2388.00,107.21
2387.00,107.21
2386.00,107.21
2385.00,107.20
2384.00,107.20
2383.00,107.19
2382.00,107.19
2381.00,107.18
2380.00,107.18
2379.00,107.18
2378.00,107.18
2377.00,107.19
2376.00,107.19
2375.00,107.19
2374.00,107.19
2373.00,107.18
2372.00,107.18
2371.00,107.18
2370.00,107.17
2369.00,107.17
2368.00,107.17
2367.00,107.16
2366.00,107.16
2365.00,107.15
2364.00,107.15
2363.00,107.15
2362.00,107.15
2361.00,107.15
2360.00,107.15
2359.00,107.14
2358.00,107.14
2357.00,107.14
2356.00,107.14
2355.00,107.14
2354.00,107.14
2353.00,107.14
2352.00,107.14
2351.00,107.14
2350.00,107.14
2349.00,107.13
2348.00,107.13
2347.00,107.13
2346.00,107.12
2345.00,107.12
2344.00,107.12
2343.00,107.11
2342.00,107.12
2341.00,107.12
2340.00,107.12
2339.00,107.12
2338.00,107.12
2337.00,107.13
2336.00,107.13
2335.00,107.13
2334.00,107.13
2333.00,107.13
2332.00,107.13
2331.00,107.13
2330.00,107.13
2329.00,107.13
2328.00,107.13
2327.00,107.12
2326.00,107.12
2325.00,107.12
2324.00,107.12
2323.00,107.12
2322.00,107.12
2321.00,107.13
2320.00,107.14
2319.00,107.14
2318.00,107.14
2317.00,107.14
2316.00,107.14
2315.00,107.15
2314.00,107.15
2313.00,107.16
2312.00,107.16
2311.00,107.17
2310.00,107.17
2309.00,107.18
2308.00,107.18
2307.00,107.18
2306.00,107.19
2305.00,107.19
2304.00,107.19
2303.00,107.19
2302.00,107.19
2301.00,107.19
2300.00,107.19
2299.00,107.20
2298.00,107.20
2297.00,107.20
2296.00,107.20
2295.00,107.19
2294.00,107.19
2293.00,107.19
2292.00,107.19
2291.00,107.19
2290.00,107.19
2289.00,107.19
2288.00,107.18
2287.00,107.18
2286.00,107.18
2285.00,107.18
2284.00,107.18
2283.00,107.18
2282.00,107.17
2281.00,107.17
2280.00,107.17
2279.00,107.17
2278.00,107.17
2277.00,107.17
2276.00,107.17
2275.00,107.17
2274.00,107.17
2273.00,107.17
2272.00,107.17
2271.00,107.17
2270.00,107.17
2269.00,107.18
2268.00,107.18
2267.00,107.18
2266.00,107.19
2265.00,107.19
2264.00,107.19
2263.00,107.20
2262.00,107.20
2261.00,107.20
2260.00,107.20
2259.00,107.21
2258.00,107.21
2257.00,107.21
2256.00,107.21
2255.00,107.21
2254.00,107.21
2253.00,107.22
2252.00,107.22
2251.00,107.21
2250.00,107.21
2249.00,107.21
2248.00,107.21
2247.00,107.21
2246.00,107.21
2245.00,107.20
2244.00,107.20
2243.00,107.20
2242.00,107.19
2241.00,107.19
2240.00,107.19
2239.00,107.18
2238.00,107.18
2237.00,107.17
2236.00,107.17
2235.00,107.16
2234.00,107.16
2233.00,107.15
2232.00,107.15
2231.00,107.15
2230.00,107.15
2229.00,107.14
2228.00,107.14
2227.00,107.14
2226.00,107.14
2225.00,107.14
2224.00,107.14
2223.00,107.14
2222.00,107.14
2221.00,107.14
2220.00,107.14
2219.00,107.14
2218.00,107.15
2217.00,107.15
2216.00,107.15
2215.00,107.15
2214.00,107.16
2213.00,107.16
2212.00,107.17
2211.00,107.17
2210.00,107.17
2209.00,107.17
2208.00,107.18
2207.00,107.18
2206.00,107.18
2205.00,107.18
2204.00,107.18
2203.00,107.18
2202.00,107.18
2201.00,107.18
2200.00,107.18
2199.00,107.18
2198.00,107.18
2197.00,107.17
2196.00,107.17
2195.00,107.17
2194.00,107.16
2193.00,107.16
2192.00,107.15
2191.00,107.15
2190.00,107.14
2189.00,107.14
2188.00,107.13
2187.00,107.12
2186.00,107.12
2185.00,107.11
2184.00,107.11
2183.00,107.10
2182.00,107.10
2181.00,107.10
2180.00,107.09
2179.00,107.09
2178.00,107.08
2177.00,107.08
2176.00,107.08
2175.00,107.08
2174.00,107.08
2173.00,107.08
2172.00,107.08
2171.00,107.08
2170.00,107.09
2169.00,107.09
2168.00,107.10
2167.00,107.10
2166.00,107.10
2165.00,107.11
2164.00,107.11
2163.00,107.12
2162.00,107.12
2161.00,107.13
2160.00,107.13
2159.00,107.14
2158.00,107.14
2157.00,107.14
2156.00,107.15
2155.00,107.15
2154.00,107.16
2153.00,107.16
2152.00,107.16
2151.00,107.16
2150.00,107.16
2149.00,107.16
2148.00,107.16
2147.00,107.16
2146.00,107.16
2145.00,107.16
2144.00,107.16
2143.00,107.16
2142.00,107.16
2141.00,107.15
2140.00,107.15
2139.00,107.14
2138.00,107.14
2137.00,107.14
2136.00,107.13
2135.00,107.13
2134.00,107.12
2133.00,107.12
2132.00,107.11
2131.00,107.11
2130.00,107.10
2129.00,107.10
2128.00,107.10
2127.00,107.09
2126.00,107.09
2125.00,107.09
2124.00,107.09
2123.00,107.09
2122.00,107.09
2121.00,107.09
2120.00,107.09
2119.00,107.09
2118.00,107.09
2117.00,107.09
2116.00,107.10
2115.00,107.10
2114.00,107.10
2113.00,107.10
2112.00,107.11
2111.00,107.11
2110.00,107.11
2109.00,107.11
2108.00,107.12
2107.00,107.12
2106.00,107.12
2105.00,107.13
2104.00,107.13
2103.00,107.13
2102.00,107.13
2101.00,107.13
2100.00,107.14
2099.00,107.14
2098.00,107.14
2097.00,107.14
2096.00,107.14
2095.00,107.14
2094.00,107.14
2093.00,107.14
2092.00,107.14
2091.00,107.14
2090.00,107.14
2089.00,107.14
2088.00,107.14
2087.00,107.13
2086.00,107.13
2085.00,107.13
2084.00,107.13
2083.00,107.12
2082.00,107.12
2081.00,107.12
2080.00,107.12
2079.00,107.11
2078.00,107.11
2077.00,107.11
2076.00,107.10
2075.00,107.10
2074.00,107.10
2073.00,107.10
2072.00,107.09
2071.00,107.09
2070.00,107.09
2069.00,107.09
2068.00,107.08
2067.00,107.08
2066.00,107.08
2065.00,107.08
2064.00,107.08
2063.00,107.09
2062.00,107.09
2061.00,107.09
2060.00,107.09
2059.00,107.09
2058.00,107.09
2057.00,107.10
2056.00,107.10
2055.00,107.10
2054.00,107.11
2053.00,107.11
2052.00,107.12
2051.00,107.12
2050.00,107.12
2049.00,107.13
2048.00,107.13
2047.00,107.13
2046.00,107.14
2045.00,107.14
2044.00,107.14
2043.00,107.14
2042.00,107.15
2041.00,107.15
2040.00,107.15
2039.00,107.15
2038.00,107.15
2037.00,107.16
2036.00,107.15
2035.00,107.15
2034.00,107.15
2033.00,107.15
2032.00,107.15
2031.00,107.14
2030.00,107.14
2029.00,107.14
2028.00,107.13
2027.00,107.13
2026.00,107.13
2025.00,107.12
2024.00,107.12
2023.00,107.11
2022.00,107.11
2021.00,107.10
2020.00,107.10
2019.00,107.09
2018.00,107.09
2017.00,107.09
2016.00,107.09
2015.00,107.08
2014.00,107.08
2013.00,107.08
2012.00,107.08
2011.00,107.08
2010.00,107.08
2009.00,107.08
2008.00,107.08
2007.00,107.09
2006.00,107.09
2005.00,107.09
2004.00,107.10
2003.00,107.11
2002.00,107.11
2001.00,107.12
2000.00,107.12
1999.00,107.13
1998.00,107.14
1997.00,107.14
1996.00,107.15
1995.00,107.15
1994.00,107.16
1993.00,107.16
1992.00,107.17
1991.00,107.18
1990.00,107.18
1989.00,107.19
1988.00,107.19
1987.00,107.20
1986.00,107.20
1985.00,107.20
1984.00,107.20
1983.00,107.21
1982.00,107.21
1981.00,107.21
1980.00,107.21
1979.00,107.20
1978.00,107.20
1977.00,107.20
1976.00,107.20
1975.00,107.19
1974.00,107.19
1973.00,107.18
1972.00,107.18
1971.00,107.17
1970.00,107.17
1969.00,107.16
1968.00,107.16
1967.00,107.15
1966.00,107.15
1965.00,107.15
1964.00,107.15
1963.00,107.15
1962.00,107.15
1961.00,107.15
1960.00,107.15
1959.00,107.15
1958.00,107.16
1957.00,107.16
1956.00,107.17
1955.00,107.18
1954.00,107.19
1953.00,107.20
1952.00,107.20
1951.00,107.21
1950.00,107.22
1949.00,107.23
1948.00,107.23
1947.00,107.24
1946.00,107.24
1945.00,107.24
1944.00,107.25
1943.00,107.25
1942.00,107.25
1941.00,107.25
1940.00,107.25
1939.00,107.25
1938.00,107.24
1937.00,107.24
1936.00,107.23
1935.00,107.23
1934.00,107.22
1933.00,107.22
1932.00,107.21
1931.00,107.21
1930.00,107.20
1929.00,107.19
1928.00,107.19
1927.00,107.19
1926.00,107.18
1925.00,107.17
1924.00,107.17
1923.00,107.16
1922.00,107.16
1921.00,107.16
1920.00,107.15
1919.00,107.15
1918.00,107.15
1917.00,107.14
1916.00,107.14
1915.00,107.14
1914.00,107.13
1913.00,107.13
1912.00,107.13
1911.00,107.12
1910.00,107.12
1909.00,107.12
1908.00,107.12
1907.00,107.12
1906.00,107.12
1905.00,107.12
1904.00,107.12
1903.00,107.12
1902.00,107.12
1901.00,107.12
1900.00,107.13
1899.00,107.13
1898.00,107.14
1897.00,107.14
1896.00,107.14
1895.00,107.15
1894.00,107.15
1893.00,107.16
1892.00,107.16
1891.00,107.17
1890.00,107.17
1889.00,107.18
1888.00,107.18
1887.00,107.19
1886.00,107.19
1885.00,107.19
1884.00,107.20
1883.00,107.20
1882.00,107.20
1881.00,107.21
1880.00,107.21
1879.00,107.21
1878.00,107.22
1877.00,107.22
1876.00,107.22
1875.00,107.22
1874.00,107.22
1873.00,107.21
1872.00,107.21
1871.00,107.21
1870.00,107.20
1869.00,107.20
1868.00,107.19
1867.00,107.19
1866.00,107.19
1865.00,107.19
1864.00,107.18
1863.00,107.18
1862.00,107.18
1861.00,107.17
1860.00,107.17
1859.00,107.17
1858.00,107.17
1857.00,107.17
1856.00,107.18
1855.00,107.18
1854.00,107.19
1853.00,107.19
1852.00,107.20
1851.00,107.20
1850.00,107.20
1849.00,107.21
1848.00,107.21
1847.00,107.22
1846.00,107.23
1845.00,107.23
1844.00,107.23
1843.00,107.24
1842.00,107.24
1841.00,107.25
1840.00,107.25
1839.00,107.26
1838.00,107.26
1837.00,107.26
1836.00,107.26
1835.00,107.27
1834.00,107.27
1833.00,107.27
1832.00,107.27
1831.00,107.27
1830.00,107.27
1829.00,107.27
1828.00,107.27
1827.00,107.27
1826.00,107.27
1825.00,107.27
1824.00,107.28
1823.00,107.28
1822.00,107.28
1821.00,107.28
1820.00,107.27
1819.00,107.27
1818.00,107.27
1817.00,107.27
1816.00,107.27
1815.00,107.27
1814.00,107.27
1813.00,107.26
1812.00,107.26
1811.00,107.26
1810.00,107.26
1809.00,107.26
1808.00,107.26
1807.00,107.26
1806.00,107.26
1805.00,107.26
1804.00,107.26
1803.00,107.26
1802.00,107.26
1801.00,107.26
1800.00,107.27
1799.00,107.27
1798.00,107.27
1797.00,107.28
1796.00,107.28
1795.00,107.29
1794.00,107.29
1793.00,107.29
1792.00,107.30
1791.00,107.30
1790.00,107.31
1789.00,107.32
1788.00,107.33
1787.00,107.33
1786.00,107.33
1785.00,107.34
1784.00,107.34
1783.00,107.35
1782.00,107.35
1781.00,107.35
1780.00,107.36
1779.00,107.36
1778.00,107.36
1777.00,107.36
1776.00,107.37
1775.00,107.37
1774.00,107.37
1773.00,107.36
1772.00,107.36
1771.00,107.35
1770.00,107.35
1769.00,107.35
1768.00,107.35
1767.00,107.35
1766.00,107.35
1765.00,107.35
1764.00,107.34
1763.00,107.34
1762.00,107.33
1761.00,107.33
1760.00,107.32
1759.00,107.32
1758.00,107.31
1757.00,107.31
1756.00,107.31
1755.00,107.30
1754.00,107.30
1753.00,107.29
1752.00,107.29
1751.00,107.28
1750.00,107.28
1749.00,107.29
1748.00,107.29
1747.00,107.29
1746.00,107.29
1745.00,107.29
1744.00,107.29
1743.00,107.30
1742.00,107.30
1741.00,107.31
1740.00,107.31
1739.00,107.31
1738.00,107.31
1737.00,107.32
1736.00,107.32
1735.00,107.33
1734.00,107.33
1733.00,107.33
1732.00,107.33
1731.00,107.34
1730.00,107.35
1729.00,107.35
1728.00,107.35
1727.00,107.36
1726.00,107.36
1725.00,107.36
1724.00,107.36
1723.00,107.36
1722.00,107.36
1721.00,107.36
1720.00,107.36
1719.00,107.36
1718.00,107.36
1717.00,107.35
1716.00,107.35
1715.00,107.36
1714.00,107.36
1713.00,107.35
1712.00,107.35
1711.00,107.34
1710.00,107.34
1709.00,107.34
1708.00,107.33
1707.00,107.33
1706.00,107.33
1705.00,107.32
1704.00,107.31
1703.00,107.31
1702.00,107.32
1701.00,107.31
1700.00,107.31
1699.00,107.30
1698.00,107.30
1697.00,107.30
1696.00,107.31
1695.00,107.31
1694.00,107.30
1693.00,107.30
1692.00,107.30
1691.00,107.30
1690.00,107.30
1689.00,107.31
1688.00,107.31
1687.00,107.32
1686.00,107.32
1685.00,107.32
1684.00,107.32
1683.00,107.32
1682.00,107.33
1681.00,107.33
1680.00,107.34
1679.00,107.34
1678.00,107.35
1677.00,107.35
1676.00,107.35
1675.00,107.35
1674.00,107.35
1673.00,107.34
1672.00,107.35
1671.00,107.35
1670.00,107.35
1669.00,107.35
1668.00,107.35
1667.00,107.35
1666.00,107.34
1665.00,107.34
1664.00,107.35
1663.00,107.34
1662.00,107.34
1661.00,107.34
1660.00,107.33
1659.00,107.33
1658.00,107.32
1657.00,107.32
1656.00,107.32
1655.00,107.32
1654.00,107.32
1653.00,107.31
1652.00,107.31
1651.00,107.30
1650.00,107.29
1649.00,107.29
1648.00,107.29
1647.00,107.29
1646.00,107.29
1645.00,107.29
1644.00,107.29
1643.00,107.29
1642.00,107.29
1641.00,107.29
1640.00,107.29
1639.00,107.29
1638.00,107.30
1637.00,107.30
1636.00,107.30
1635.00,107.31
1634.00,107.31
1633.00,107.31
1632.00,107.31
1631.00,107.32
1630.00,107.32
1629.00,107.32
1628.00,107.32
1627.00,107.33
1626.00,107.33
1625.00,107.33
1624.00,107.34
1623.00,107.34
1622.00,107.34
1621.00,107.34
1620.00,107.35
1619.00,107.35
1618.00,107.35
1617.00,107.35
1616.00,107.35
1615.00,107.34
1614.00,107.34
1613.00,107.35
1612.00,107.35
1611.00,107.34
1610.00,107.34
1609.00,107.34
1608.00,107.34
1607.00,107.34
1606.00,107.34
1605.00,107.33
1604.00,107.33
1603.00,107.33
1602.00,107.33
1601.00,107.32
1600.00,107.32
1599.00,107.32
1598.00,107.31
1597.00,107.31
1596.00,107.31
1595.00,107.30
1594.00,107.30
1593.00,107.30
1592.00,107.29
1591.00,107.29
1590.00,107.29
1589.00,107.29
1588.00,107.29
1587.00,107.29
1586.00,107.29
1585.00,107.30
1584.00,107.30
1583.00,107.30
1582.00,107.30
1581.00,107.31
1580.00,107.31
1579.00,107.32
1578.00,107.32
1577.00,107.33
1576.00,107.34
1575.00,107.34
1574.00,107.34
1573.00,107.34
1572.00,107.34
1571.00,107.35
1570.00,107.35
1569.00,107.35
1568.00,107.35
1567.00,107.35
1566.00,107.35
1565.00,107.36
1564.00,107.36
1563.00,107.36
1562.00,107.36
1561.00,107.36
1560.00,107.35
1559.00,107.34
1558.00,107.34
1557.00,107.34
1556.00,107.34
1555.00,107.34
1554.00,107.34
1553.00,107.33
1552.00,107.33
1551.00,107.33
1550.00,107.33
1549.00,107.33
1548.00,107.33
1547.00,107.32
1546.00,107.32
1545.00,107.32
1544.00,107.32
1543.00,107.32
1542.00,107.32
1541.00,107.32
1540.00,107.32
1539.00,107.32
1538.00,107.32
1537.00,107.31
1536.00,107.31
1535.00,107.30
1534.00,107.30
1533.00,107.30
1532.00,107.30
1531.00,107.30
1530.00,107.30
1529.00,107.30
1528.00,107.30
1527.00,107.30
1526.00,107.31
1525.00,107.31
1524.00,107.31
1523.00,107.31
1522.00,107.31
1521.00,107.32
1520.00,107.32
1519.00,107.32
1518.00,107.33
1517.00,107.33
1516.00,107.34
1515.00,107.34
1514.00,107.34
1513.00,107.34
1512.00,107.34
1511.00,107.34
1510.00,107.34
1509.00,107.35
1508.00,107.35
1507.00,107.36
1506.00,107.36
1505.00,107.36
1504.00,107.35
1503.00,107.34
1502.00,107.34
1501.00,107.33
1500.00,107.32
1499.00,107.31
1498.00,107.31
1497.00,107.30
1496.00,107.29
1495.00,107.29
1494.00,107.28
1493.00,107.27
1492.00,107.27
1491.00,107.27
1490.00,107.27
1489.00,107.28
1488.00,107.28
1487.00,107.29
1486.00,107.29
1485.00,107.29
1484.00,107.29
1483.00,107.29
1482.00,107.29
1481.00,107.29
1480.00,107.30
1479.00,107.30
1478.00,107.30
1477.00,107.30
1476.00,107.31
1475.00,107.31
1474.00,107.32
1473.00,107.32
1472.00,107.32
1471.00,107.33
1470.00,107.34
1469.00,107.34
1468.00,107.34
1467.00,107.35
1466.00,107.35
1465.00,107.36
1464.00,107.36
1463.00,107.36
1462.00,107.36
1461.00,107.36
1460.00,107.36
1459.00,107.36
1458.00,107.36
1457.00,107.36
1456.00,107.36
1455.00,107.36
1454.00,107.36
1453.00,107.36
1452.00,107.35
1451.00,107.35
1450.00,107.34
1449.00,107.34
1448.00,107.34
1447.00,107.34
1446.00,107.34
1445.00,107.34
1444.00,107.34
1443.00,107.33
1442.00,107.33
1441.00,107.32
1440.00,107.32
1439.00,107.31
1438.00,107.31
1437.00,107.31
1436.00,107.30
1435.00,107.30
1434.00,107.30
1433.00,107.30
1432.00,107.29
1431.00,107.29
1430.00,107.29
1429.00,107.29
1428.00,107.29
1427.00,107.29
1426.00,107.29
1425.00,107.30
1424.00,107.30
1423.00,107.30
1422.00,107.30
1421.00,107.30
1420.00,107.31
1419.00,107.31
1418.00,107.32
1417.00,107.33
1416.00,107.33
1415.00,107.33
1414.00,107.34
1413.00,107.34
1412.00,107.34
1411.00,107.34
1410.00,107.35
1409.00,107.35
1408.00,107.35
1407.00,107.34
1406.00,107.34
1405.00,107.34
1404.00,107.34
1403.00,107.34
1402.00,107.34
1401.00,107.34
1400.00,107.34
1399.00,107.34
1398.00,107.34
1397.00,107.34
1396.00,107.34
1395.00,107.34
1394.00,107.34
1393.00,107.34
1392.00,107.34
1391.00,107.34
1390.00,107.33
1389.00,107.33
1388.00,107.33
1387.00,107.32
1386.00,107.32
1385.00,107.32
1384.00,107.32
1383.00,107.31
1382.00,107.31
1381.00,107.31
1380.00,107.31
1379.00,107.31
1378.00,107.30
1377.00,107.30
1376.00,107.30
1375.00,107.30
1374.00,107.30
1373.00,107.31
1372.00,107.31
1371.00,107.31
1370.00,107.31
1369.00,107.32
1368.00,107.32
1367.00,107.32
1366.00,107.32
1365.00,107.32
1364.00,107.32
1363.00,107.32
1362.00,107.33
1361.00,107.33
1360.00,107.34
1359.00,107.34
1358.00,107.34
1357.00,107.34
1356.00,107.34
1355.00,107.34
1354.00,107.35
1353.00,107.35
1352.00,107.35
1351.00,107.35
1350.00,107.35
1349.00,107.35
1348.00,107.35
1347.00,107.35
1346.00,107.35
1345.00,107.35
1344.00,107.35
1343.00,107.34
1342.00,107.34
1341.00,107.33
1340.00,107.33
1339.00,107.33
1338.00,107.33
1337.00,107.33
1336.00,107.32
1335.00,107.32
1334.00,107.32
1333.00,107.31
1332.00,107.31
1331.00,107.30
1330.00,107.30
1329.00,107.30
1328.00,107.30
1327.00,107.30
1326.00,107.30
1325.00,107.29
1324.00,107.29
1323.00,107.29
1322.00,107.29
1321.00,107.29
1320.00,107.29
1319.00,107.29
1318.00,107.29
1317.00,107.30
1316.00,107.30
1315.00,107.30
1314.00,107.30
1313.00,107.31
1312.00,107.31
1311.00,107.31
1310.00,107.32
1309.00,107.32
1308.00,107.32
1307.00,107.32
1306.00,107.33
1305.00,107.33
1304.00,107.33
1303.00,107.33
1302.00,107.34
1301.00,107.34
1300.00,107.34
1299.00,107.34
1298.00,107.34
1297.00,107.34
1296.00,107.34
1295.00,107.34
1294.00,107.34
1293.00,107.34
1292.00,107.33
1291.00,107.33
1290.00,107.33
1289.00,107.32
1288.00,107.32
1287.00,107.32
1286.00,107.31
1285.00,107.31
1284.00,107.30
1283.00,107.30
1282.00,107.29
1281.00,107.29
1280.00,107.28
1279.00,107.28
1278.00,107.27
1277.00,107.27
1276.00,107.27
1275.00,107.27
1274.00,107.26
1273.00,107.26
1272.00,107.26
1271.00,107.26
1270.00,107.26
1269.00,107.25
1268.00,107.25
1267.00,107.25
1266.00,107.25
1265.00,107.25
1264.00,107.25
1263.00,107.24
1262.00,107.25
1261.00,107.25
1260.00,107.25
1259.00,107.25
1258.00,107.26
1257.00,107.27
1256.00,107.28
1255.00,107.28
1254.00,107.29
1253.00,107.29
1252.00,107.30
1251.00,107.30
1250.00,107.31
1249.00,107.31
1248.00,107.31
1247.00,107.32
1246.00,107.32
1245.00,107.32
1244.00,107.32
1243.00,107.32
1242.00,107.32
1241.00,107.32
1240.00,107.32
1239.00,107.32
1238.00,107.32
1237.00,107.32
1236.00,107.31
1235.00,107.31
1234.00,107.30
1233.00,107.30
1232.00,107.30
1231.00,107.30
1230.00,107.29
1229.00,107.29
1228.00,107.28
1227.00,107.27
1226.00,107.27
1225.00,107.26
1224.00,107.26
1223.00,107.26
1222.00,107.25
1221.00,107.25
1220.00,107.25
1219.00,107.24
1218.00,107.24
1217.00,107.24
1216.00,107.24
1215.00,107.24
1214.00,107.24
1213.00,107.23
1212.00,107.23
1211.00,107.24
1210.00,107.24
1209.00,107.24
1208.00,107.24
1207.00,107.24
1206.00,107.25
1205.00,107.25
1204.00,107.25
1203.00,107.26
1202.00,107.26
1201.00,107.26
1200.00,107.26
1199.00,107.27
1198.00,107.27
1197.00,107.27
1196.00,107.28
1195.00,107.28
1194.00,107.28
1193.00,107.28
1192.00,107.28
1191.00,107.28
1190.00,107.28
1189.00,107.28
1188.00,107.28
1187.00,107.28
1186.00,107.28
1185.00,107.27
1184.00,107.27
1183.00,107.27
1182.00,107.26
1181.00,107.26
1180.00,107.26
1179.00,107.25
1178.00,107.25
1177.00,107.25
1176.00,107.24
1175.00,107.24
1174.00,107.23
1173.00,107.23
1172.00,107.23
1171.00,107.22
1170.00,107.22
1169.00,107.22
1168.00,107.22
1167.00,107.21
1166.00,107.21
1165.00,107.21
1164.00,107.21
1163.00,107.20
1162.00,107.20
1161.00,107.20
1160.00,107.21
1159.00,107.21
1158.00,107.21
1157.00,107.21
1156.00,107.21
1155.00,107.21
1154.00,107.21
1153.00,107.22
1152.00,107.22
1151.00,107.22
1150.00,107.23
1149.00,107.23
1148.00,107.23
1147.00,107.23
1146.00,107.24
1145.00,107.24
1144.00,107.24
1143.00,107.24
1142.00,107.24
1141.00,107.25
1140.00,107.25
1139.00,107.25
1138.00,107.25
1137.00,107.25
1136.00,107.25
1135.00,107.25
1134.00,107.25
1133.00,107.25
1132.00,107.25
1131.00,107.25
1130.00,107.24
1129.00,107.24
1128.00,107.23
1127.00,107.23
1126.00,107.23
1125.00,107.22
1124.00,107.22
1123.00,107.22
1122.00,107.21
1121.00,107.21
1120.00,107.21
1119.00,107.20
1118.00,107.20
1117.00,107.20
1116.00,107.20
1115.00,107.19
1114.00,107.19
1113.00,107.19
1112.00,107.19
1111.00,107.18
1110.00,107.18
1109.00,107.18
1108.00,107.18
1107.00,107.18
1106.00,107.18
1105.00,107.18
1104.00,107.19
1103.00,107.19
1102.00,107.19
1101.00,107.19
1100.00,107.20
1099.00,107.20
1098.00,107.20
1097.00,107.20
1096.00,107.20
1095.00,107.21
1094.00,107.21
1093.00,107.21
1092.00,107.22
1091.00,107.22
1090.00,107.22
1089.00,107.23
1088.00,107.23
1087.00,107.23
1086.00,107.23
1085.00,107.23
1084.00,107.23
1083.00,107.23
1082.00,107.23
1081.00,107.23
1080.00,107.23
1079.00,107.23
1078.00,107.23
1077.00,107.22
1076.00,107.22
1075.00,107.22
1074.00,107.22
1073.00,107.22
1072.00,107.22
1071.00,107.21
1070.00,107.21
1069.00,107.21
1068.00,107.20
1067.00,107.20
1066.00,107.20
1065.00,107.20
1064.00,107.19
1063.00,107.19
1062.00,107.19
1061.00,107.19
1060.00,107.19
1059.00,107.19
1058.00,107.19
1057.00,107.19
1056.00,107.19
1055.00,107.19
1054.00,107.18
1053.00,107.18
1052.00,107.18
1051.00,107.18
1050.00,107.18
1049.00,107.18
1048.00,107.19
1047.00,107.20
1046.00,107.21
1045.00,107.22
1044.00,107.22
1043.00,107.23
1042.00,107.24
1041.00,107.24
1040.00,107.24
1039.00,107.25
1038.00,107.25
1037.00,107.25
1036.00,107.26
1035.00,107.26
1034.00,107.27
1033.00,107.27
1032.00,107.27
1031.00,107.27
1030.00,107.27
1029.00,107.27
1028.00,107.27
1027.00,107.27
1026.00,107.27
1025.00,107.27
1024.00,107.27
1023.00,107.27
1022.00,107.27
1021.00,107.27
1020.00,107.27
1019.00,107.27
1018.00,107.27
1017.00,107.27
1016.00,107.27
1015.00,107.27
1014.00,107.27
1013.00,107.27
1012.00,107.27
1011.00,107.27
1010.00,107.27
1009.00,107.27
1008.00,107.27
1007.00,107.27
1006.00,107.27
1005.00,107.27
1004.00,107.28
1003.00,107.28
1002.00,107.29
1001.00,107.29
1000.00,107.29
999.00,107.30
998.00,107.30
997.00,107.30
996.00,107.31
995.00,107.31
994.00,107.31
993.00,107.32
992.00,107.32
991.00,107.33
990.00,107.33
989.00,107.34
988.00,107.34
987.00,107.34
986.00,107.35
985.00,107.36
984.00,107.36
983.00,107.36
982.00,107.37
981.00,107.37
980.00,107.37
979.00,107.37
978.00,107.37
977.00,107.37
976.00,107.37
975.00,107.38
974.00,107.38
973.00,107.38
972.00,107.38
971.00,107.38
970.00,107.38
969.00,107.38
968.00,107.37
967.00,107.37
966.00,107.37
965.00,107.37
964.00,107.37
963.00,107.37
962.00,107.36
961.00,107.36
960.00,107.36
959.00,107.36
958.00,107.36
957.00,107.36
956.00,107.36
955.00,107.35
954.00,107.35
953.00,107.35
952.00,107.35
951.00,107.35
950.00,107.36
949.00,107.36
948.00,107.36
947.00,107.36
946.00,107.36
945.00,107.36
944.00,107.37
943.00,107.37
942.00,107.37
941.00,107.38
940.00,107.38
939.00,107.39
938.00,107.39
937.00,107.39
936.00,107.39
935.00,107.40
934.00,107.40
933.00,107.40
932.00,107.41
931.00,107.41
930.00,107.41
929.00,107.42
928.00,107.42
927.00,107.42
926.00,107.42
925.00,107.42
924.00,107.42
923.00,107.42
922.00,107.42
921.00,107.42
920.00,107.42
919.00,107.41
918.00,107.41
917.00,107.41
916.00,107.41
915.00,107.40
914.00,107.40
913.00,107.40
912.00,107.40
911.00,107.39
910.00,107.39
909.00,107.39
908.00,107.38
907.00,107.38
906.00,107.38
905.00,107.38
904.00,107.38
903.00,107.37
902.00,107.37
901.00,107.36
900.00,107.36
899.00,107.36
898.00,107.36
897.00,107.36
896.00,107.36
895.00,107.36
894.00,107.36
893.00,107.37
892.00,107.37
891.00,107.37
890.00,107.37
889.00,107.38
888.00,107.38
887.00,107.38
886.00,107.38
885.00,107.38
884.00,107.38
883.00,107.38
882.00,107.38
881.00,107.38
880.00,107.38
879.00,107.38
878.00,107.38
877.00,107.39
876.00,107.39
875.00,107.39
874.00,107.39
873.00,107.39
872.00,107.39
871.00,107.39
870.00,107.39
869.00,107.39
868.00,107.39
867.00,107.39
866.00,107.39
865.00,107.39
864.00,107.39
863.00,107.38
862.00,107.38
861.00,107.38
860.00,107.38
859.00,107.38
858.00,107.37
857.00,107.37
856.00,107.37
855.00,107.37
854.00,107.36
853.00,107.36
852.00,107.36
851.00,107.36
850.00,107.35
849.00,107.35
848.00,107.35
847.00,107.35
846.00,107.35
845.00,107.35
844.00,107.35
843.00,107.35
842.00,107.35
841.00,107.35
840.00,107.35
839.00,107.35
838.00,107.35
837.00,107.35
836.00,107.35
835.00,107.35
834.00,107.35
833.00,107.35
832.00,107.35
831.00,107.34
830.00,107.34
829.00,107.34
828.00,107.34
827.00,107.34
826.00,107.34
825.00,107.34
824.00,107.34
823.00,107.35
822.00,107.35
821.00,107.35
820.00,107.35
819.00,107.35
818.00,107.35
817.00,107.35
816.00,107.35
815.00,107.35
814.00,107.35
813.00,107.35
812.00,107.35
811.00,107.35
810.00,107.35
809.00,107.35
808.00,107.35
807.00,107.34
806.00,107.34
805.00,107.34
804.00,107.33
803.00,107.33
802.00,107.33
801.00,107.33
800.00,107.33
799.00,107.34
798.00,107.34
797.00,107.33
796.00,107.33
795.00,107.33
794.00,107.33
793.00,107.33
792.00,107.34
791.00,107.35
790.00,107.35
789.00,107.35
788.00,107.35
787.00,107.35
786.00,107.36
785.00,107.36
784.00,107.37
783.00,107.37
782.00,107.37
781.00,107.37
780.00,107.37
779.00,107.38
778.00,107.38
777.00,107.39
776.00,107.39
775.00,107.39
774.00,107.39
773.00,107.39
772.00,107.40
771.00,107.40
770.00,107.40
769.00,107.40
768.00,107.40
767.00,107.39
766.00,107.39
765.00,107.39
764.00,107.39
763.00,107.39
762.00,107.39
761.00,107.39
760.00,107.39
759.00,107.38
758.00,107.38
757.00,107.38
756.00,107.38
755.00,107.38
754.00,107.37
753.00,107.37
752.00,107.37
751.00,107.36
750.00,107.36
749.00,107.36
748.00,107.36
747.00,107.35
746.00,107.35
745.00,107.35
744.00,107.35
743.00,107.35
742.00,107.34
741.00,107.34
740.00,107.34
739.00,107.34
738.00,107.34
737.00,107.35
736.00,107.35
735.00,107.35
734.00,107.35
733.00,107.34
732.00,107.34
731.00,107.34
730.00,107.33
729.00,107.34
728.00,107.34
727.00,107.35
726.00,107.35
725.00,107.35
724.00,107.36
723.00,107.36
722.00,107.37
721.00,107.37
720.00,107.37
719.00,107.37
718.00,107.36
717.00,107.37
716.00,107.37
715.00,107.37
714.00,107.37
713.00,107.37
712.00,107.36
711.00,107.36
710.00,107.36
709.00,107.36
708.00,107.36
707.00,107.36
706.00,107.35
705.00,107.35
704.00,107.35
703.00,107.35
702.00,107.35
701.00,107.35
700.00,107.34
699.00,107.34
698.00,107.33
697.00,107.33
696.00,107.33
695.00,107.32
694.00,107.31
693.00,107.30
692.00,107.30
691.00,107.29
690.00,107.29
689.00,107.29
688.00,107.29
687.00,107.29
686.00,107.29
685.00,107.29
684.00,107.30
683.00,107.30
682.00,107.30
681.00,107.30
680.00,107.30
679.00,107.31
678.00,107.31
677.00,107.31
676.00,107.31
675.00,107.30
674.00,107.31
673.00,107.31
672.00,107.31
671.00,107.32
670.00,107.34
669.00,107.37
668.00,107.40
667.00,107.40
666.00,107.37
665.00,107.35
664.00,107.34
663.00,107.34
662.00,107.33
661.00,107.33
660.00,107.32
659.00,107.32
658.00,107.31
657.00,107.31
656.00,107.31
655.00,107.31
654.00,107.31
653.00,107.31
652.00,107.31
651.00,107.30
650.00,107.30
649.00,107.30
648.00,107.29
647.00,107.29
646.00,107.29
645.00,107.29
644.00,107.29
643.00,107.29
642.00,107.29
641.00,107.29
640.00,107.28
639.00,107.28
638.00,107.28
637.00,107.27
636.00,107.27
635.00,107.28
634.00,107.28
633.00,107.28
632.00,107.28
631.00,107.28
630.00,107.28
629.00,107.27
628.00,107.27
627.00,107.27
626.00,107.27
625.00,107.28
624.00,107.28
623.00,107.28
622.00,107.29
621.00,107.29
620.00,107.30
619.00,107.30
618.00,107.30
617.00,107.30
616.00,107.29
615.00,107.29
614.00,107.29
613.00,107.29
612.00,107.29
611.00,107.30
610.00,107.30
609.00,107.30
608.00,107.30
607.00,107.30
606.00,107.30
605.00,107.30
604.00,107.30
603.00,107.30
602.00,107.30
601.00,107.30
600.00,107.29
599.00,107.29
598.00,107.30
597.00,107.30
596.00,107.30
595.00,107.30
594.00,107.30
593.00,107.29
592.00,107.29
591.00,107.29
590.00,107.30
589.00,107.30
588.00,107.30
587.00,107.29
586.00,107.29
585.00,107.29
584.00,107.29
583.00,107.29
582.00,107.29
581.00,107.29
580.00,107.29
579.00,107.30
578.00,107.30
577.00,107.30
576.00,107.30
575.00,107.30
574.00,107.31
573.00,107.32
572.00,107.33
571.00,107.33
570.00,107.33
569.00,107.33
568.00,107.33
567.00,107.33
566.00,107.34
565.00,107.34
564.00,107.34
563.00,107.34
562.00,107.34
561.00,107.34
560.00,107.35
559.00,107.35
558.00,107.36
557.00,107.36
556.00,107.36
555.00,107.37
554.00,107.37
553.00,107.37
552.00,107.36
551.00,107.36
550.00,107.36
549.00,107.36
548.00,107.37
547.00,107.37
546.00,107.37
545.00,107.36
544.00,107.36
543.00,107.36
542.00,107.37
541.00,107.37
540.00,107.38
539.00,107.38
538.00,107.38
537.00,107.38
536.00,107.38
535.00,107.38
534.00,107.39
533.00,107.40
532.00,107.39
531.00,107.39
530.00,107.38
529.00,107.38
528.00,107.39
527.00,107.40
526.00,107.40
525.00,107.41
524.00,107.41
523.00,107.41
522.00,107.41
521.00,107.41
520.00,107.41
519.00,107.41
518.00,107.41
517.00,107.40
516.00,107.41
515.00,107.42
514.00,107.42
513.00,107.43
512.00,107.43
511.00,107.42
510.00,107.42
509.00,107.41
508.00,107.41
507.00,107.41
506.00,107.42
505.00,107.42
504.00,107.42
503.00,107.42
502.00,107.42
501.00,107.41
500.00,107.41
