Created as New Dataset,Sample 352 By Analyst Date Wednesday, February 05 2025
cm-1,%T
4000.00,113.76
3999.00,113.76
3998.00,113.76
3997.00,113.75
3996.00,113.75
3995.00,113.74
3994.00,113.74
3993.00,113.74
3992.00,113.73
3991.00,113.73
3990.00,113.72
3989.00,113.72
3988.00,113.71
3987.00,113.71
3986.00,113.70
3985.00,113.70
3984.00,113.69
3983.00,113.69
3982.00,113.68
3981.00,113.68
3980.00,113.67
3979.00,113.67
3978.00,113.66
3977.00,113.66
3976.00,113.65
3975.00,113.65
3974.00,113.64
3973.00,113.64
3972.00,113.64
3971.00,113.64
3970.00,113.64
3969.00,113.63
3968.00,113.63
3967.00,113.63
3966.00,113.63
3965.00,113.63
3964.00,113.63
3963.00,113.63
3962.00,113.63
3961.00,113.63
3960.00,113.63
3959.00,113.63
3958.00,113.64
3957.00,113.64
3956.00,113.64
3955.00,113.65
3954.00,113.65
3953.00,113.65
3952.00,113.66
3951.00,113.66
3950.00,113.66
3949.00,113.67
3948.00,113.67
3947.00,113.68
3946.00,113.68
3945.00,113.68
3944.00,113.68
3943.00,113.67
3942.00,113.67
3941.00,113.66
3940.00,113.66
3939.00,113.66
3938.00,113.65
3937.00,113.65
3936.00,113.65
3935.00,113.65
3934.00,113.65
3933.00,113.65
3932.00,113.65
3931.00,113.64
3930.00,113.63
3929.00,113.63
3928.00,113.63
3927.00,113.62
3926.00,113.61
3925.00,113.61
3924.00,113.60
3923.00,113.60
3922.00,113.60
3921.00,113.60
3920.00,113.60
3919.00,113.60
3918.00,113.60
3917.00,113.59
3916.00,113.59
3915.00,113.58
3914.00,113.58
3913.00,113.57
3912.00,113.56
3911.00,113.56
3910.00,113.56
3909.00,113.56
3908.00,113.56
3907.00,113.57
3906.00,113.58
3905.00,113.60
3904.00,113.61
3903.00,113.63
3902.00,113.65
3901.00,113.65
3900.00,113.65
3899.00,113.65
3898.00,113.64
3897.00,113.63
3896.00,113.62
3895.00,113.62
3894.00,113.62
3893.00,113.61
3892.00,113.60
3891.00,113.60
3890.00,113.61
3889.00,113.62
3888.00,113.63
3887.00,113.63
3886.00,113.63
3885.00,113.63
3884.00,113.62
3883.00,113.62
3882.00,113.62
3881.00,113.62
3880.00,113.61
3879.00,113.60
3878.00,113.60
3877.00,113.60
3876.00,113.59
3875.00,113.59
3874.00,113.58
3873.00,113.58
3872.00,113.59
3871.00,113.59
3870.00,113.60
3869.00,113.60
3868.00,113.61
3867.00,113.61
3866.00,113.61
3865.00,113.61
3864.00,113.60
3863.00,113.58
3862.00,113.57
3861.00,113.57
3860.00,113.56
3859.00,113.56
3858.00,113.55
3857.00,113.54
3856.00,113.55
3855.00,113.57
3854.00,113.59
3853.00,113.61
3852.00,113.63
3851.00,113.64
3850.00,113.64
3849.00,113.63
3848.00,113.62
3847.00,113.61
3846.00,113.59
3845.00,113.58
3844.00,113.57
3843.00,113.57
3842.00,113.58
3841.00,113.59
3840.00,113.60
3839.00,113.61
3838.00,113.62
3837.00,113.63
3836.00,113.63
3835.00,113.62
3834.00,113.62
3833.00,113.61
3832.00,113.60
3831.00,113.58
3830.00,113.57
3829.00,113.56
3828.00,113.54
3827.00,113.53
3826.00,113.52
3825.00,113.52
3824.00,113.53
3823.00,113.53
3822.00,113.53
3821.00,113.52
3820.00,113.52
3819.00,113.52
3818.00,113.52
3817.00,113.52
3816.00,113.51
3815.00,113.49
3814.00,113.47
3813.00,113.45
3812.00,113.44
3811.00,113.44
3810.00,113.44
3809.00,113.43
3808.00,113.42
3807.00,113.42
3806.00,113.43
3805.00,113.45
3804.00,113.46
3803.00,113.47
3802.00,113.47
3801.00,113.47
3800.00,113.47
3799.00,113.47
3798.00,113.47
3797.00,113.47
3796.00,113.46
3795.00,113.45
3794.00,113.44
3793.00,113.43
3792.00,113.42
3791.00,113.42
3790.00,113.41
3789.00,113.41
3788.00,113.41
3787.00,113.41
3786.00,113.41
3785.00,113.41
3784.00,113.42
3783.00,113.42
3782.00,113.43
3781.00,113.43
3780.00,113.43
3779.00,113.43
3778.00,113.42
3777.00,113.42
3776.00,113.42
3775.00,113.42
3774.00,113.42
3773.00,113.42
3772.00,113.42
3771.00,113.42
3770.00,113.42
3769.00,113.43
3768.00,113.43
3767.00,113.44
3766.00,113.44
3765.00,113.43
3764.00,113.43
3763.00,113.43
3762.00,113.43
3761.00,113.43
3760.00,113.43
3759.00,113.43
3758.00,113.42
3757.00,113.42
3756.00,113.43
3755.00,113.43
3754.00,113.44
3753.00,113.45
3752.00,113.47
3751.00,113.48
3750.00,113.49
3749.00,113.50
3748.00,113.51
3747.00,113.52
3746.00,113.52
3745.00,113.51
3744.00,113.50
3743.00,113.48
3742.00,113.47
3741.00,113.46
3740.00,113.46
3739.00,113.46
3738.00,113.46
3737.00,113.45
3736.00,113.44
3735.00,113.44
3734.00,113.43
3733.00,113.43
3732.00,113.42
3731.00,113.41
3730.00,113.39
3729.00,113.37
3728.00,113.35
3727.00,113.34
3726.00,113.33
3725.00,113.32
3724.00,113.31
3723.00,113.30
3722.00,113.30
3721.00,113.29
3720.00,113.29
3719.00,113.28
3718.00,113.27
3717.00,113.27
3716.00,113.27
3715.00,113.28
3714.00,113.29
3713.00,113.30
3712.00,113.32
3711.00,113.32
3710.00,113.33
3709.00,113.33
3708.00,113.33
3707.00,113.33
3706.00,113.32
3705.00,113.32
3704.00,113.32
3703.00,113.32
3702.00,113.32
3701.00,113.33
3700.00,113.34
3699.00,113.35
3698.00,113.37
3697.00,113.38
3696.00,113.40
3695.00,113.41
3694.00,113.43
3693.00,113.45
3692.00,113.47
3691.00,113.50
3690.00,113.52
3689.00,113.55
3688.00,113.58
3687.00,113.59
3686.00,113.59
3685.00,113.59
3684.00,113.59
3683.00,113.59
3682.00,113.59
3681.00,113.59
3680.00,113.59
3679.00,113.60
3678.00,113.62
3677.00,113.65
3676.00,113.66
3675.00,113.67
3674.00,113.68
3673.00,113.69
3672.00,113.70
3671.00,113.70
3670.00,113.69
3669.00,113.66
3668.00,113.64
3667.00,113.62
3666.00,113.61
3665.00,113.59
3664.00,113.57
3663.00,113.55
3662.00,113.53
3661.00,113.52
3660.00,113.51
3659.00,113.51
3658.00,113.52
3657.00,113.51
3656.00,113.51
3655.00,113.52
3654.00,113.52
3653.00,113.54
3652.00,113.55
3651.00,113.56
3650.00,113.57
3649.00,113.57
3648.00,113.56
3647.00,113.56
3646.00,113.55
3645.00,113.53
3644.00,113.51
3643.00,113.49
3642.00,113.47
3641.00,113.45
3640.00,113.43
3639.00,113.43
3638.00,113.43
3637.00,113.43
3636.00,113.43
3635.00,113.44
3634.00,113.44
3633.00,113.45
3632.00,113.46
3631.00,113.49
3630.00,113.51
3629.00,113.52
3628.00,113.53
3627.00,113.53
3626.00,113.53
3625.00,113.53
3624.00,113.53
3623.00,113.52
3622.00,113.51
3621.00,113.51
3620.00,113.51
3619.00,113.51
3618.00,113.52
3617.00,113.53
3616.00,113.54
3615.00,113.54
3614.00,113.54
3613.00,113.53
3612.00,113.53
3611.00,113.53
3610.00,113.53
3609.00,113.53
3608.00,113.52
3607.00,113.51
3606.00,113.49
3605.00,113.48
3604.00,113.48
3603.00,113.47
3602.00,113.46
3601.00,113.46
3600.00,113.45
3599.00,113.45
3598.00,113.46
3597.00,113.46
3596.00,113.47
3595.00,113.47
3594.00,113.47
3593.00,113.47
3592.00,113.48
3591.00,113.49
3590.00,113.51
3589.00,113.52
3588.00,113.52
3587.00,113.53
3586.00,113.53
3585.00,113.53
3584.00,113.53
3583.00,113.53
3582.00,113.53
3581.00,113.52
3580.00,113.52
3579.00,113.52
3578.00,113.52
3577.00,113.53
3576.00,113.53
3575.00,113.54
3574.00,113.54
3573.00,113.55
3572.00,113.55
3571.00,113.57
3570.00,113.58
3569.00,113.60
3568.00,113.61
3567.00,113.62
3566.00,113.63
3565.00,113.63
3564.00,113.63
3563.00,113.62
3562.00,113.61
3561.00,113.60
3560.00,113.59
3559.00,113.58
3558.00,113.58
3557.00,113.58
3556.00,113.58
3555.00,113.58
3554.00,113.58
3553.00,113.58
3552.00,113.58
3551.00,113.58
3550.00,113.58
3549.00,113.59
3548.00,113.59
3547.00,113.59
3546.00,113.59
3545.00,113.58
3544.00,113.58
3543.00,113.58
3542.00,113.57
3541.00,113.57
3540.00,113.57
3539.00,113.56
3538.00,113.56
3537.00,113.56
3536.00,113.56
3535.00,113.56
3534.00,113.56
3533.00,113.57
3532.00,113.57
3531.00,113.57
3530.00,113.58
3529.00,113.58
3528.00,113.58
3527.00,113.59
3526.00,113.59
3525.00,113.60
3524.00,113.60
3523.00,113.60
3522.00,113.60
3521.00,113.59
3520.00,113.59
3519.00,113.59
3518.00,113.58
3517.00,113.58
3516.00,113.58
3515.00,113.57
3514.00,113.57
3513.00,113.57
3512.00,113.57
3511.00,113.57
3510.00,113.56
3509.00,113.56
3508.00,113.56
3507.00,113.56
3506.00,113.56
3505.00,113.55
3504.00,113.55
3503.00,113.55
3502.00,113.54
3501.00,113.54
3500.00,113.54
3499.00,113.54
3498.00,113.53
3497.00,113.53
3496.00,113.53
3495.00,113.53
3494.00,113.53
3493.00,113.53
3492.00,113.53
3491.00,113.53
3490.00,113.53
3489.00,113.54
3488.00,113.54
3487.00,113.55
3486.00,113.55
3485.00,113.56
3484.00,113.56
3483.00,113.57
3482.00,113.58
3481.00,113.58
3480.00,113.59
3479.00,113.60
3478.00,113.60
3477.00,113.61
3476.00,113.62
3475.00,113.62
3474.00,113.63
3473.00,113.63
3472.00,113.64
3471.00,113.64
3470.00,113.65
3469.00,113.66
3468.00,113.66
3467.00,113.67
3466.00,113.67
3465.00,113.68
3464.00,113.68
3463.00,113.68
3462.00,113.69
3461.00,113.69
3460.00,113.69
3459.00,113.69
3458.00,113.69
3457.00,113.69
3456.00,113.69
3455.00,113.69
3454.00,113.69
3453.00,113.70
3452.00,113.70
3451.00,113.70
3450.00,113.70
3449.00,113.70
3448.00,113.70
3447.00,113.70
3446.00,113.71
3445.00,113.71
3444.00,113.71
3443.00,113.71
3442.00,113.71
3441.00,113.72
3440.00,113.72
3439.00,113.72
3438.00,113.72
3437.00,113.73
3436.00,113.73
3435.00,113.73
3434.00,113.74
3433.00,113.74
3432.00,113.74
3431.00,113.74
3430.00,113.75
3429.00,113.75
3428.00,113.75
3427.00,113.75
3426.00,113.76
3425.00,113.76
3424.00,113.76
3423.00,113.76
3422.00,113.76
3421.00,113.76
3420.00,113.76
3419.00,113.76
3418.00,113.75
3417.00,113.75
3416.00,113.74
3415.00,113.74
3414.00,113.73
3413.00,113.72
3412.00,113.71
3411.00,113.70
3410.00,113.69
3409.00,113.68
3408.00,113.67
3407.00,113.67
3406.00,113.66
3405.00,113.65
3404.00,113.64
3403.00,113.63
3402.00,113.62
3401.00,113.61
3400.00,113.60
3399.00,113.59
3398.00,113.58
3397.00,113.57
3396.00,113.56
3395.00,113.55
3394.00,113.54
3393.00,113.53
3392.00,113.52
3391.00,113.52
3390.00,113.51
3389.00,113.50
3388.00,113.50
3387.00,113.49
3386.00,113.49
3385.00,113.49
3384.00,113.48
3383.00,113.48
3382.00,113.48
3381.00,113.48
3380.00,113.48
3379.00,113.47
3378.00,113.47
3377.00,113.47
3376.00,113.47
3375.00,113.47
3374.00,113.47
3373.00,113.48
3372.00,113.48
3371.00,113.48
3370.00,113.48
3369.00,113.48
3368.00,113.48
3367.00,113.48
3366.00,113.48
3365.00,113.48
3364.00,113.48
3363.00,113.48
3362.00,113.48
3361.00,113.48
3360.00,113.48
3359.00,113.47
3358.00,113.47
3357.00,113.47
3356.00,113.46
3355.00,113.46
3354.00,113.46
3353.00,113.46
3352.00,113.46
3351.00,113.46
3350.00,113.46
3349.00,113.45
3348.00,113.45
3347.00,113.45
3346.00,113.45
3345.00,113.45
3344.00,113.44
3343.00,113.44
3342.00,113.44
3341.00,113.44
3340.00,113.44
3339.00,113.44
3338.00,113.44
3337.00,113.44
3336.00,113.45
3335.00,113.45
3334.00,113.45
3333.00,113.45
3332.00,113.46
3331.00,113.46
3330.00,113.47
3329.00,113.47
3328.00,113.47
3327.00,113.48
3326.00,113.49
3325.00,113.49
3324.00,113.50
3323.00,113.50
3322.00,113.51
3321.00,113.51
3320.00,113.52
3319.00,113.53
3318.00,113.54
3317.00,113.54
3316.00,113.55
3315.00,113.56
3314.00,113.57
3313.00,113.58
3312.00,113.60
3311.00,113.61
3310.00,113.62
3309.00,113.64
3308.00,113.65
3307.00,113.66
3306.00,113.67
3305.00,113.68
3304.00,113.69
3303.00,113.70
3302.00,113.70
3301.00,113.69
3300.00,113.69
3299.00,113.68
3298.00,113.67
3297.00,113.65
3296.00,113.64
3295.00,113.62
3294.00,113.60
3293.00,113.59
3292.00,113.57
3291.00,113.56
3290.00,113.54
3289.00,113.52
3288.00,113.51
3287.00,113.50
3286.00,113.48
3285.00,113.48
3284.00,113.47
3283.00,113.46
3282.00,113.45
3281.00,113.44
3280.00,113.44
3279.00,113.43
3278.00,113.43
3277.00,113.42
3276.00,113.42
3275.00,113.42
3274.00,113.41
3273.00,113.41
3272.00,113.41
3271.00,113.40
3270.00,113.40
3269.00,113.40
3268.00,113.40
3267.00,113.40
3266.00,113.40
3265.00,113.40
3264.00,113.40
3263.00,113.40
3262.00,113.40
3261.00,113.40
3260.00,113.40
3259.00,113.40
3258.00,113.40
3257.00,113.40
3256.00,113.41
3255.00,113.41
3254.00,113.41
3253.00,113.41
3252.00,113.41
3251.00,113.41
3250.00,113.41
3249.00,113.41
3248.00,113.41
3247.00,113.41
3246.00,113.40
3245.00,113.40
3244.00,113.40
3243.00,113.40
3242.00,113.40
3241.00,113.40
3240.00,113.40
3239.00,113.39
3238.00,113.39
3237.00,113.39
3236.00,113.39
3235.00,113.40
3234.00,113.40
3233.00,113.40
3232.00,113.40
3231.00,113.40
3230.00,113.40
3229.00,113.40
3228.00,113.41
3227.00,113.41
3226.00,113.41
3225.00,113.42
3224.00,113.42
3223.00,113.42
3222.00,113.43
3221.00,113.43
3220.00,113.44
3219.00,113.45
3218.00,113.45
3217.00,113.46
3216.00,113.47
3215.00,113.47
3214.00,113.48
3213.00,113.49
3212.00,113.49
3211.00,113.50
3210.00,113.50
3209.00,113.51
3208.00,113.51
3207.00,113.52
3206.00,113.53
3205.00,113.53
3204.00,113.54
3203.00,113.54
3202.00,113.55
3201.00,113.55
3200.00,113.55
3199.00,113.55
3198.00,113.55
3197.00,113.55
3196.00,113.55
3195.00,113.55
3194.00,113.55
3193.00,113.55
3192.00,113.54
3191.00,113.54
3190.00,113.54
3189.00,113.53
3188.00,113.53
3187.00,113.53
3186.00,113.53
3185.00,113.53
3184.00,113.53
3183.00,113.52
3182.00,113.52
3181.00,113.52
3180.00,113.52
3179.00,113.52
3178.00,113.52
3177.00,113.51
3176.00,113.51
3175.00,113.51
3174.00,113.50
3173.00,113.50
3172.00,113.50
3171.00,113.49
3170.00,113.49
3169.00,113.49
3168.00,113.50
3167.00,113.50
3166.00,113.50
3165.00,113.50
3164.00,113.51
3163.00,113.51
3162.00,113.52
3161.00,113.52
3160.00,113.53
3159.00,113.53
3158.00,113.54
3157.00,113.54
3156.00,113.54
3155.00,113.54
3154.00,113.54
3153.00,113.55
3152.00,113.55
3151.00,113.55
3150.00,113.55
3149.00,113.55
3148.00,113.55
3147.00,113.55
3146.00,113.54
3145.00,113.54
3144.00,113.54
3143.00,113.54
3142.00,113.54
3141.00,113.54
3140.00,113.54
3139.00,113.53
3138.00,113.53
3137.00,113.53
3136.00,113.53
3135.00,113.53
3134.00,113.53
3133.00,113.53
3132.00,113.53
3131.00,113.53
3130.00,113.53
3129.00,113.53
3128.00,113.53
3127.00,113.53
3126.00,113.53
3125.00,113.53
3124.00,113.54
3123.00,113.54
3122.00,113.54
3121.00,113.55
3120.00,113.55
3119.00,113.56
3118.00,113.56
3117.00,113.57
3116.00,113.58
3115.00,113.58
3114.00,113.59
3113.00,113.60
3112.00,113.60
3111.00,113.61
3110.00,113.62
3109.00,113.63
3108.00,113.63
3107.00,113.64
3106.00,113.65
3105.00,113.66
3104.00,113.66
3103.00,113.67
3102.00,113.67
3101.00,113.68
3100.00,113.68
3099.00,113.68
3098.00,113.69
3097.00,113.69
3096.00,113.69
3095.00,113.69
3094.00,113.69
3093.00,113.69
3092.00,113.69
3091.00,113.69
3090.00,113.70
3089.00,113.70
3088.00,113.70
3087.00,113.70
3086.00,113.70
3085.00,113.70
3084.00,113.71
3083.00,113.71
3082.00,113.71
3081.00,113.72
3080.00,113.72
3079.00,113.72
3078.00,113.72
3077.00,113.72
3076.00,113.71
3075.00,113.71
3074.00,113.71
3073.00,113.71
3072.00,113.71
3071.00,113.71
3070.00,113.71
3069.00,113.71
3068.00,113.71
3067.00,113.71
3066.00,113.71
3065.00,113.71
3064.00,113.72
3063.00,113.72
3062.00,113.72
3061.00,113.72
3060.00,113.72
3059.00,113.72
3058.00,113.73
3057.00,113.73
3056.00,113.73
3055.00,113.73
3054.00,113.74
3053.00,113.74
3052.00,113.74
3051.00,113.74
3050.00,113.74
3049.00,113.75
3048.00,113.75
3047.00,113.75
3046.00,113.76
3045.00,113.76
3044.00,113.76
3043.00,113.76
3042.00,113.76
3041.00,113.76
3040.00,113.76
3039.00,113.76
3038.00,113.76
3037.00,113.76
3036.00,113.76
3035.00,113.75
3034.00,113.75
3033.00,113.75
3032.00,113.75
3031.00,113.75
3030.00,113.74
3029.00,113.74
3028.00,113.74
3027.00,113.74
3026.00,113.73
3025.00,113.73
3024.00,113.73
3023.00,113.72
3022.00,113.72
3021.00,113.72
3020.00,113.72
3019.00,113.72
3018.00,113.72
3017.00,113.72
3016.00,113.72
3015.00,113.72
3014.00,113.72
3013.00,113.72
3012.00,113.72
3011.00,113.72
3010.00,113.73
3009.00,113.73
3008.00,113.73
3007.00,113.73
3006.00,113.73
3005.00,113.73
3004.00,113.73
3003.00,113.73
3002.00,113.74
3001.00,113.74
3000.00,113.74
2999.00,113.74
2998.00,113.74
2997.00,113.74
2996.00,113.74
2995.00,113.74
2994.00,113.74
2993.00,113.74
2992.00,113.74
2991.00,113.74
2990.00,113.74
2989.00,113.74
2988.00,113.74
2987.00,113.74
2986.00,113.74
2985.00,113.73
2984.00,113.73
2983.00,113.73
2982.00,113.73
2981.00,113.72
2980.00,113.72
2979.00,113.72
2978.00,113.71
2977.00,113.71
2976.00,113.71
2975.00,113.70
2974.00,113.70
2973.00,113.70
2972.00,113.69
2971.00,113.69
2970.00,113.68
2969.00,113.68
2968.00,113.68
2967.00,113.68
2966.00,113.68
2965.00,113.68
2964.00,113.68
2963.00,113.68
2962.00,113.68
2961.00,113.68
2960.00,113.68
2959.00,113.69
2958.00,113.69
2957.00,113.70
2956.00,113.70
2955.00,113.70
2954.00,113.71
2953.00,113.71
2952.00,113.71
2951.00,113.71
2950.00,113.72
2949.00,113.72
2948.00,113.72
2947.00,113.73
2946.00,113.73
2945.00,113.73
2944.00,113.73
2943.00,113.74
2942.00,113.74
2941.00,113.74
2940.00,113.74
2939.00,113.74
2938.00,113.74
2937.00,113.74
2936.00,113.75
2935.00,113.75
2934.00,113.75
2933.00,113.75
2932.00,113.75
2931.00,113.75
2930.00,113.75
2929.00,113.75
2928.00,113.74
2927.00,113.74
2926.00,113.74
2925.00,113.74
2924.00,113.74
2923.00,113.74
2922.00,113.74
2921.00,113.74
2920.00,113.73
2919.00,113.73
2918.00,113.73
2917.00,113.72
2916.00,113.72
2915.00,113.72
2914.00,113.71
2913.00,113.71
2912.00,113.70
2911.00,113.70
2910.00,113.69
2909.00,113.69
2908.00,113.68
2907.00,113.68
2906.00,113.68
2905.00,113.68
2904.00,113.68
2903.00,113.68
2902.00,113.69
2901.00,113.69
2900.00,113.69
2899.00,113.69
2898.00,113.70
2897.00,113.70
2896.00,113.70
2895.00,113.71
2894.00,113.71
2893.00,113.71
2892.00,113.71
2891.00,113.72
2890.00,113.72
2889.00,113.72
2888.00,113.72
2887.00,113.72
2886.00,113.72
2885.00,113.72
2884.00,113.72
2883.00,113.72
2882.00,113.72
2881.00,113.72
2880.00,113.72
2879.00,113.72
2878.00,113.71
2877.00,113.71
2876.00,113.71
2875.00,113.70
2874.00,113.70
2873.00,113.70
2872.00,113.70
2871.00,113.69
2870.00,113.69
2869.00,113.69
2868.00,113.68
2867.00,113.68
2866.00,113.67
2865.00,113.67
2864.00,113.67
2863.00,113.67
2862.00,113.67
2861.00,113.67
2860.00,113.67
2859.00,113.67
2858.00,113.67
2857.00,113.67
2856.00,113.68
2855.00,113.68
2854.00,113.68
2853.00,113.69
2852.00,113.69
2851.00,113.70
2850.00,113.70
2849.00,113.70
2848.00,113.71
2847.00,113.71
2846.00,113.71
2845.00,113.71
2844.00,113.71
2843.00,113.72
2842.00,113.72
2841.00,113.72
2840.00,113.72
2839.00,113.72
2838.00,113.73
2837.00,113.73
2836.00,113.73
2835.00,113.73
2834.00,113.73
2833.00,113.73
2832.00,113.73
2831.00,113.73
2830.00,113.73
2829.00,113.72
2828.00,113.72
2827.00,113.72
2826.00,113.72
2825.00,113.71
2824.00,113.71
2823.00,113.70
2822.00,113.70
2821.00,113.69
2820.00,113.69
2819.00,113.68
2818.00,113.68
2817.00,113.67
2816.00,113.67
2815.00,113.66
2814.00,113.66
2813.00,113.65
2812.00,113.65
2811.00,113.64
2810.00,113.64
2809.00,113.64
2808.00,113.63
2807.00,113.63
2806.00,113.63
2805.00,113.63
2804.00,113.63
2803.00,113.63
2802.00,113.63
2801.00,113.64
2800.00,113.64
2799.00,113.64
2798.00,113.64
2797.00,113.64
2796.00,113.64
2795.00,113.64
2794.00,113.65
2793.00,113.65
2792.00,113.65
2791.00,113.66
2790.00,113.66
2789.00,113.66
2788.00,113.66
2787.00,113.66
2786.00,113.66
2785.00,113.66
2784.00,113.66
2783.00,113.66
2782.00,113.67
2781.00,113.67
2780.00,113.66
2779.00,113.66
2778.00,113.66
2777.00,113.66
2776.00,113.66
2775.00,113.65
2774.00,113.65
2773.00,113.65
2772.00,113.64
2771.00,113.64
2770.00,113.63
2769.00,113.63
2768.00,113.63
2767.00,113.63
2766.00,113.62
2765.00,113.62
2764.00,113.62
2763.00,113.62
2762.00,113.61
2761.00,113.61
2760.00,113.60
2759.00,113.60
2758.00,113.60
2757.00,113.60
2756.00,113.59
2755.00,113.59
2754.00,113.59
2753.00,113.60
2752.00,113.60
2751.00,113.60
2750.00,113.60
2749.00,113.60
2748.00,113.60
2747.00,113.60
2746.00,113.61
2745.00,113.61
2744.00,113.61
2743.00,113.62
2742.00,113.62
2741.00,113.62
2740.00,113.63
2739.00,113.63
2738.00,113.64
2737.00,113.64
2736.00,113.64
2735.00,113.65
2734.00,113.65
2733.00,113.65
2732.00,113.64
2731.00,113.64
2730.00,113.64
2729.00,113.64
2728.00,113.64
2727.00,113.63
2726.00,113.63
2725.00,113.62
2724.00,113.62
2723.00,113.61
2722.00,113.61
2721.00,113.60
2720.00,113.59
2719.00,113.59
2718.00,113.58
2717.00,113.57
2716.00,113.57
2715.00,113.56
2714.00,113.55
2713.00,113.55
2712.00,113.54
2711.00,113.54
2710.00,113.53
2709.00,113.53
2708.00,113.52
2707.00,113.52
2706.00,113.51
2705.00,113.51
2704.00,113.51
2703.00,113.50
2702.00,113.50
2701.00,113.50
2700.00,113.50
2699.00,113.50
2698.00,113.50
2697.00,113.50
2696.00,113.50
2695.00,113.50
2694.00,113.50
2693.00,113.50
2692.00,113.50
2691.00,113.51
2690.00,113.51
2689.00,113.51
2688.00,113.52
2687.00,113.52
2686.00,113.52
2685.00,113.53
2684.00,113.53
2683.00,113.54
2682.00,113.54
2681.00,113.55
2680.00,113.55
2679.00,113.55
2678.00,113.56
2677.00,113.56
2676.00,113.56
2675.00,113.57
2674.00,113.57
2673.00,113.57
2672.00,113.57
2671.00,113.56
2670.00,113.56
2669.00,113.56
2668.00,113.55
2667.00,113.55
2666.00,113.55
2665.00,113.54
2664.00,113.53
2663.00,113.52
2662.00,113.52
2661.00,113.51
2660.00,113.50
2659.00,113.49
2658.00,113.49
2657.00,113.48
2656.00,113.47
2655.00,113.47
2654.00,113.46
2653.00,113.45
2652.00,113.45
2651.00,113.44
2650.00,113.44
2649.00,113.43
2648.00,113.43
2647.00,113.43
2646.00,113.43
2645.00,113.43
2644.00,113.43
2643.00,113.43
2642.00,113.43
2641.00,113.43
2640.00,113.43
2639.00,113.43
2638.00,113.43
2637.00,113.43
2636.00,113.43
2635.00,113.43
2634.00,113.44
2633.00,113.44
2632.00,113.44
2631.00,113.45
2630.00,113.45
2629.00,113.45
2628.00,113.46
2627.00,113.46
2626.00,113.46
2625.00,113.47
2624.00,113.47
2623.00,113.47
2622.00,113.48
2621.00,113.48
2620.00,113.48
2619.00,113.48
2618.00,113.48
2617.00,113.48
2616.00,113.48
2615.00,113.48
2614.00,113.48
2613.00,113.48
2612.00,113.48
2611.00,113.48
2610.00,113.47
2609.00,113.47
2608.00,113.47
2607.00,113.47
2606.00,113.46
2605.00,113.46
2604.00,113.46
2603.00,113.45
2602.00,113.45
2601.00,113.44
2600.00,113.44
2599.00,113.44
2598.00,113.44
2597.00,113.44
2596.00,113.43
2595.00,113.43
2594.00,113.43
2593.00,113.43
2592.00,113.43
2591.00,113.43
2590.00,113.43
2589.00,113.44
2588.00,113.44
2587.00,113.44
2586.00,113.44
2585.00,113.44
2584.00,113.45
2583.00,113.45
2582.00,113.45
2581.00,113.46
2580.00,113.46
2579.00,113.46
2578.00,113.47
2577.00,113.47
2576.00,113.47
2575.00,113.47
2574.00,113.47
2573.00,113.47
2572.00,113.47
2571.00,113.47
2570.00,113.47
2569.00,113.47
2568.00,113.47
2567.00,113.47
2566.00,113.47
2565.00,113.46
2564.00,113.46
2563.00,113.46
2562.00,113.45
2561.00,113.45
2560.00,113.45
2559.00,113.44
2558.00,113.44
2557.00,113.43
2556.00,113.42
2555.00,113.42
2554.00,113.41
2553.00,113.41
2552.00,113.40
2551.00,113.39
2550.00,113.38
2549.00,113.38
2548.00,113.37
2547.00,113.36
2546.00,113.35
2545.00,113.35
2544.00,113.34
2543.00,113.34
2542.00,113.34
2541.00,113.33
2540.00,113.33
2539.00,113.33
2538.00,113.33
2537.00,113.33
2536.00,113.33
2535.00,113.33
2534.00,113.33
2533.00,113.33
2532.00,113.34
2531.00,113.34
2530.00,113.34
2529.00,113.34
2528.00,113.35
2527.00,113.35
2526.00,113.35
2525.00,113.35
2524.00,113.35
2523.00,113.35
2522.00,113.35
2521.00,113.35
2520.00,113.35
2519.00,113.35
2518.00,113.35
2517.00,113.34
2516.00,113.34
2515.00,113.33
2514.00,113.33
2513.00,113.33
2512.00,113.32
2511.00,113.32
2510.00,113.31
2509.00,113.31
2508.00,113.30
2507.00,113.29
2506.00,113.28
2505.00,113.27
2504.00,113.27
2503.00,113.26
2502.00,113.25
2501.00,113.25
2500.00,113.24
2499.00,113.23
2498.00,113.22
2497.00,113.22
2496.00,113.21
2495.00,113.21
2494.00,113.20
2493.00,113.20
2492.00,113.19
2491.00,113.19
2490.00,113.19
2489.00,113.18
2488.00,113.18
2487.00,113.18
2486.00,113.18
2485.00,113.18
2484.00,113.18
2483.00,113.18
2482.00,113.18
2481.00,113.18
2480.00,113.18
2479.00,113.18
2478.00,113.18
2477.00,113.18
2476.00,113.19
2475.00,113.19
2474.00,113.19
2473.00,113.19
2472.00,113.19
2471.00,113.19
2470.00,113.19
2469.00,113.19
2468.00,113.19
2467.00,113.20
2466.00,113.20
2465.00,113.20
2464.00,113.20
2463.00,113.20
2462.00,113.20
2461.00,113.20
2460.00,113.19
2459.00,113.19
2458.00,113.19
2457.00,113.19
2456.00,113.18
2455.00,113.18
2454.00,113.18
2453.00,113.17
2452.00,113.17
2451.00,113.17
2450.00,113.17
2449.00,113.17
2448.00,113.16
2447.00,113.16
2446.00,113.16
2445.00,113.16
2444.00,113.16
2443.00,113.16
2442.00,113.16
2441.00,113.17
2440.00,113.17
2439.00,113.17
2438.00,113.18
2437.00,113.18
2436.00,113.19
2435.00,113.19
2434.00,113.19
2433.00,113.20
2432.00,113.21
2431.00,113.21
2430.00,113.22
2429.00,113.23
2428.00,113.23
2427.00,113.24
2426.00,113.25
2425.00,113.26
2424.00,113.27
2423.00,113.27
2422.00,113.28
2421.00,113.29
2420.00,113.30
2419.00,113.31
2418.00,113.32
2417.00,113.33
2416.00,113.33
2415.00,113.34
2414.00,113.34
2413.00,113.34
2412.00,113.34
2411.00,113.34
2410.00,113.34
2409.00,113.34
2408.00,113.34
2407.00,113.33
2406.00,113.33
2405.00,113.32
2404.00,113.32
2403.00,113.31
2402.00,113.31
2401.00,113.30
2400.00,113.29
2399.00,113.29
2398.00,113.28
2397.00,113.28
2396.00,113.27
2395.00,113.26
2394.00,113.26
2393.00,113.25
2392.00,113.25
2391.00,113.24
2390.00,113.24
2389.00,113.23
2388.00,113.23
2387.00,113.23
2386.00,113.23
2385.00,113.23
2384.00,113.23
2383.00,113.23
2382.00,113.23
2381.00,113.23
2380.00,113.22
2379.00,113.22
2378.00,113.22
2377.00,113.22
2376.00,113.21
2375.00,113.21
2374.00,113.20
2373.00,113.20
2372.00,113.20
2371.00,113.20
2370.00,113.20
2369.00,113.20
2368.00,113.20
2367.00,113.19
2366.00,113.19
2365.00,113.18
2364.00,113.18
2363.00,113.19
2362.00,113.19
2361.00,113.19
2360.00,113.18
2359.00,113.18
2358.00,113.18
2357.00,113.18
2356.00,113.18
2355.00,113.19
2354.00,113.20
2353.00,113.20
2352.00,113.18
2351.00,113.17
2350.00,113.16
2349.00,113.17
2348.00,113.18
2347.00,113.17
2346.00,113.16
2345.00,113.14
2344.00,113.12
2343.00,113.13
2342.00,113.13
2341.00,113.14
2340.00,113.14
2339.00,113.15
2338.00,113.15
2337.00,113.16
2336.00,113.16
2335.00,113.17
2334.00,113.17
2333.00,113.17
2332.00,113.17
2331.00,113.17
2330.00,113.16
2329.00,113.16
2328.00,113.15
2327.00,113.15
2326.00,113.14
2325.00,113.14
2324.00,113.14
2323.00,113.13
2322.00,113.12
2321.00,113.11
2320.00,113.10
2319.00,113.10
2318.00,113.10
2317.00,113.11
2316.00,113.11
2315.00,113.11
2314.00,113.11
2313.00,113.11
2312.00,113.11
2311.00,113.11
2310.00,113.12
2309.00,113.12
2308.00,113.12
2307.00,113.12
2306.00,113.12
2305.00,113.12
2304.00,113.13
2303.00,113.13
2302.00,113.13
2301.00,113.13
2300.00,113.13
2299.00,113.13
2298.00,113.13
2297.00,113.13
2296.00,113.13
2295.00,113.13
2294.00,113.13
2293.00,113.12
2292.00,113.12
2291.00,113.12
2290.00,113.12
2289.00,113.12
2288.00,113.11
2287.00,113.11
2286.00,113.11
2285.00,113.10
2284.00,113.10
2283.00,113.10
2282.00,113.10
2281.00,113.09
2280.00,113.09
2279.00,113.09
2278.00,113.08
2277.00,113.08
2276.00,113.08
2275.00,113.08
2274.00,113.08
2273.00,113.08
2272.00,113.08
2271.00,113.09
2270.00,113.09
2269.00,113.09
2268.00,113.09
2267.00,113.10
2266.00,113.10
2265.00,113.11
2264.00,113.11
2263.00,113.11
2262.00,113.12
2261.00,113.12
2260.00,113.12
2259.00,113.13
2258.00,113.13
2257.00,113.14
2256.00,113.14
2255.00,113.14
2254.00,113.14
2253.00,113.14
2252.00,113.14
2251.00,113.14
2250.00,113.14
2249.00,113.14
2248.00,113.14
2247.00,113.14
2246.00,113.14
2245.00,113.13
2244.00,113.13
2243.00,113.12
2242.00,113.12
2241.00,113.11
2240.00,113.10
2239.00,113.10
2238.00,113.09
2237.00,113.08
2236.00,113.07
2235.00,113.06
2234.00,113.06
2233.00,113.05
2232.00,113.04
2231.00,113.03
2230.00,113.03
2229.00,113.02
2228.00,113.01
2227.00,113.01
2226.00,113.00
2225.00,113.00
2224.00,112.99
2223.00,112.99
2222.00,112.99
2221.00,112.98
2220.00,112.98
2219.00,112.99
2218.00,112.99
2217.00,112.99
2216.00,112.99
2215.00,112.99
2214.00,113.00
2213.00,113.00
2212.00,113.00
2211.00,113.01
2210.00,113.01
2209.00,113.01
2208.00,113.01
2207.00,113.02
2206.00,113.02
2205.00,113.02
2204.00,113.02
2203.00,113.01
2202.00,113.01
2201.00,113.01
2200.00,113.01
2199.00,113.00
2198.00,113.00
2197.00,113.00
2196.00,112.99
2195.00,112.99
2194.00,112.98
2193.00,112.97
2192.00,112.97
2191.00,112.96
2190.00,112.95
2189.00,112.94
2188.00,112.94
2187.00,112.93
2186.00,112.92
2185.00,112.91
2184.00,112.91
2183.00,112.90
2182.00,112.89
2181.00,112.89
2180.00,112.88
2179.00,112.88
2178.00,112.88
2177.00,112.88
2176.00,112.88
2175.00,112.88
2174.00,112.87
2173.00,112.87
2172.00,112.88
2171.00,112.88
2170.00,112.88
2169.00,112.89
2168.00,112.89
2167.00,112.89
2166.00,112.90
2165.00,112.91
2164.00,112.91
2163.00,112.92
2162.00,112.93
2161.00,112.93
2160.00,112.94
2159.00,112.95
2158.00,112.95
2157.00,112.96
2156.00,112.97
2155.00,112.97
2154.00,112.97
2153.00,112.98
2152.00,112.98
2151.00,112.98
2150.00,112.98
2149.00,112.98
2148.00,112.98
2147.00,112.98
2146.00,112.98
2145.00,112.98
2144.00,112.98
2143.00,112.97
2142.00,112.97
2141.00,112.97
2140.00,112.96
2139.00,112.95
2138.00,112.95
2137.00,112.94
2136.00,112.93
2135.00,112.92
2134.00,112.92
2133.00,112.91
2132.00,112.90
2131.00,112.90
2130.00,112.89
2129.00,112.89
2128.00,112.88
2127.00,112.88
2126.00,112.87
2125.00,112.87
2124.00,112.87
2123.00,112.87
2122.00,112.86
2121.00,112.86
2120.00,112.86
2119.00,112.86
2118.00,112.86
2117.00,112.86
2116.00,112.86
2115.00,112.87
2114.00,112.87
2113.00,112.87
2112.00,112.87
2111.00,112.87
2110.00,112.88
2109.00,112.88
2108.00,112.88
2107.00,112.89
2106.00,112.89
2105.00,112.89
2104.00,112.89
2103.00,112.90
2102.00,112.90
2101.00,112.90
2100.00,112.90
2099.00,112.90
2098.00,112.91
2097.00,112.91
2096.00,112.92
2095.00,112.92
2094.00,112.92
2093.00,112.92
2092.00,112.93
2091.00,112.93
2090.00,112.93
2089.00,112.93
2088.00,112.93
2087.00,112.93
2086.00,112.93
2085.00,112.93
2084.00,112.93
2083.00,112.93
2082.00,112.93
2081.00,112.92
2080.00,112.92
2079.00,112.92
2078.00,112.91
2077.00,112.91
2076.00,112.90
2075.00,112.90
2074.00,112.90
2073.00,112.89
2072.00,112.89
2071.00,112.89
2070.00,112.88
2069.00,112.88
2068.00,112.88
2067.00,112.87
2066.00,112.87
2065.00,112.87
2064.00,112.86
2063.00,112.86
2062.00,112.86
2061.00,112.86
2060.00,112.86
2059.00,112.86
2058.00,112.86
2057.00,112.86
2056.00,112.86
2055.00,112.87
2054.00,112.87
2053.00,112.87
2052.00,112.87
2051.00,112.88
2050.00,112.88
2049.00,112.89
2048.00,112.89
2047.00,112.90
2046.00,112.90
2045.00,112.91
2044.00,112.91
2043.00,112.92
2042.00,112.92
2041.00,112.93
2040.00,112.94
2039.00,112.94
2038.00,112.95
2037.00,112.95
2036.00,112.95
2035.00,112.96
2034.00,112.96
2033.00,112.96
2032.00,112.96
2031.00,112.95
2030.00,112.95
2029.00,112.95
2028.00,112.94
2027.00,112.94
2026.00,112.93
2025.00,112.92
2024.00,112.92
2023.00,112.91
2022.00,112.90
2021.00,112.89
2020.00,112.89
2019.00,112.88
2018.00,112.87
2017.00,112.87
2016.00,112.86
2015.00,112.86
2014.00,112.86
2013.00,112.85
2012.00,112.85
2011.00,112.85
2010.00,112.85
2009.00,112.86
2008.00,112.86
2007.00,112.86
2006.00,112.87
2005.00,112.88
2004.00,112.89
2003.00,112.90
2002.00,112.91
2001.00,112.92
2000.00,112.93
1999.00,112.94
1998.00,112.95
1997.00,112.96
1996.00,112.98
1995.00,112.99
1994.00,113.00
1993.00,113.01
1992.00,113.03
1991.00,113.04
1990.00,113.05
1989.00,113.06
1988.00,113.08
1987.00,113.09
1986.00,113.10
1985.00,113.11
1984.00,113.12
1983.00,113.12
1982.00,113.13
1981.00,113.14
1980.00,113.14
1979.00,113.14
1978.00,113.14
1977.00,113.14
1976.00,113.14
1975.00,113.13
1974.00,113.13
1973.00,113.12
1972.00,113.11
1971.00,113.10
1970.00,113.09
1969.00,113.08
1968.00,113.07
1967.00,113.06
1966.00,113.05
1965.00,113.04
1964.00,113.04
1963.00,113.04
1962.00,113.04
1961.00,113.05
1960.00,113.06
1959.00,113.07
1958.00,113.09
1957.00,113.10
1956.00,113.12
1955.00,113.13
1954.00,113.15
1953.00,113.17
1952.00,113.18
1951.00,113.20
1950.00,113.21
1949.00,113.23
1948.00,113.24
1947.00,113.24
1946.00,113.25
1945.00,113.25
1944.00,113.25
1943.00,113.25
1942.00,113.24
1941.00,113.24
1940.00,113.23
1939.00,113.22
1938.00,113.21
1937.00,113.20
1936.00,113.18
1935.00,113.17
1934.00,113.15
1933.00,113.14
1932.00,113.13
1931.00,113.12
1930.00,113.11
1929.00,113.10
1928.00,113.09
1927.00,113.08
1926.00,113.08
1925.00,113.07
1924.00,113.07
1923.00,113.06
1922.00,113.06
1921.00,113.06
1920.00,113.06
1919.00,113.06
1918.00,113.05
1917.00,113.05
1916.00,113.04
1915.00,113.04
1914.00,113.04
1913.00,113.03
1912.00,113.02
1911.00,113.01
1910.00,113.01
1909.00,113.00
1908.00,112.99
1907.00,112.99
1906.00,112.99
1905.00,112.99
1904.00,112.99
1903.00,112.99
1902.00,112.99
1901.00,112.99
1900.00,112.99
1899.00,112.99
1898.00,113.00
1897.00,113.00
1896.00,113.01
1895.00,113.01
1894.00,113.02
1893.00,113.03
1892.00,113.04
1891.00,113.05
1890.00,113.05
1889.00,113.06
1888.00,113.07
1887.00,113.08
1886.00,113.09
1885.00,113.10
1884.00,113.10
1883.00,113.11
1882.00,113.12
1881.00,113.13
1880.00,113.14
1879.00,113.15
1878.00,113.15
1877.00,113.16
1876.00,113.16
1875.00,113.16
1874.00,113.17
1873.00,113.17
1872.00,113.17
1871.00,113.17
1870.00,113.16
1869.00,113.16
1868.00,113.15
1867.00,113.14
1866.00,113.14
1865.00,113.14
1864.00,113.13
1863.00,113.13
1862.00,113.12
1861.00,113.12
1860.00,113.12
1859.00,113.12
1858.00,113.13
1857.00,113.13
1856.00,113.14
1855.00,113.15
1854.00,113.16
1853.00,113.18
1852.00,113.19
1851.00,113.20
1850.00,113.21
1849.00,113.23
1848.00,113.24
1847.00,113.25
1846.00,113.27
1845.00,113.28
1844.00,113.29
1843.00,113.30
1842.00,113.31
1841.00,113.32
1840.00,113.32
1839.00,113.32
1838.00,113.32
1837.00,113.32
1836.00,113.33
1835.00,113.33
1834.00,113.33
1833.00,113.33
1832.00,113.33
1831.00,113.33
1830.00,113.32
1829.00,113.33
1828.00,113.33
1827.00,113.34
1826.00,113.35
1825.00,113.35
1824.00,113.35
1823.00,113.35
1822.00,113.36
1821.00,113.36
1820.00,113.37
1819.00,113.37
1818.00,113.37
1817.00,113.38
1816.00,113.38
1815.00,113.38
1814.00,113.38
1813.00,113.38
1812.00,113.38
1811.00,113.38
1810.00,113.38
1809.00,113.39
1808.00,113.39
1807.00,113.39
1806.00,113.39
1805.00,113.40
1804.00,113.40
1803.00,113.40
1802.00,113.41
1801.00,113.42
1800.00,113.43
1799.00,113.43
1798.00,113.44
1797.00,113.45
1796.00,113.45
1795.00,113.46
1794.00,113.47
1793.00,113.48
1792.00,113.49
1791.00,113.50
1790.00,113.51
1789.00,113.52
1788.00,113.53
1787.00,113.53
1786.00,113.54
1785.00,113.55
1784.00,113.55
1783.00,113.56
1782.00,113.57
1781.00,113.58
1780.00,113.58
1779.00,113.58
1778.00,113.59
1777.00,113.59
1776.00,113.60
1775.00,113.60
1774.00,113.61
1773.00,113.61
1772.00,113.61
1771.00,113.60
1770.00,113.60
1769.00,113.61
1768.00,113.61
1767.00,113.60
1766.00,113.59
1765.00,113.59
1764.00,113.58
1763.00,113.57
1762.00,113.56
1761.00,113.55
1760.00,113.55
1759.00,113.55
1758.00,113.55
1757.00,113.54
1756.00,113.54
1755.00,113.53
1754.00,113.53
1753.00,113.54
1752.00,113.54
1751.00,113.54
1750.00,113.53
1749.00,113.53
1748.00,113.53
1747.00,113.53
1746.00,113.53
1745.00,113.53
1744.00,113.53
1743.00,113.53
1742.00,113.53
1741.00,113.54
1740.00,113.54
1739.00,113.54
1738.00,113.54
1737.00,113.55
1736.00,113.57
1735.00,113.58
1734.00,113.58
1733.00,113.59
1732.00,113.60
1731.00,113.61
1730.00,113.61
1729.00,113.60
1728.00,113.60
1727.00,113.60
1726.00,113.60
1725.00,113.60
1724.00,113.61
1723.00,113.61
1722.00,113.61
1721.00,113.61
1720.00,113.61
1719.00,113.62
1718.00,113.62
1717.00,113.62
1716.00,113.62
1715.00,113.63
1714.00,113.63
1713.00,113.62
1712.00,113.61
1711.00,113.60
1710.00,113.60
1709.00,113.59
1708.00,113.58
1707.00,113.58
1706.00,113.58
1705.00,113.57
1704.00,113.57
1703.00,113.57
1702.00,113.57
1701.00,113.57
1700.00,113.56
1699.00,113.55
1698.00,113.57
1697.00,113.58
1696.00,113.58
1695.00,113.56
1694.00,113.56
1693.00,113.56
1692.00,113.56
1691.00,113.55
1690.00,113.54
1689.00,113.54
1688.00,113.54
1687.00,113.55
1686.00,113.56
1685.00,113.57
1684.00,113.56
1683.00,113.56
1682.00,113.57
1681.00,113.58
1680.00,113.59
1679.00,113.58
1678.00,113.58
1677.00,113.59
1676.00,113.59
1675.00,113.59
1674.00,113.59
1673.00,113.59
1672.00,113.60
1671.00,113.60
1670.00,113.59
1669.00,113.59
1668.00,113.59
1667.00,113.59
1666.00,113.59
1665.00,113.59
1664.00,113.58
1663.00,113.57
1662.00,113.57
1661.00,113.57
1660.00,113.57
1659.00,113.56
1658.00,113.55
1657.00,113.54
1656.00,113.53
1655.00,113.52
1654.00,113.51
1653.00,113.50
1652.00,113.51
1651.00,113.52
1650.00,113.53
1649.00,113.54
1648.00,113.53
1647.00,113.52
1646.00,113.51
1645.00,113.52
1644.00,113.52
1643.00,113.52
1642.00,113.53
1641.00,113.53
1640.00,113.52
1639.00,113.52
1638.00,113.53
1637.00,113.53
1636.00,113.54
1635.00,113.54
1634.00,113.55
1633.00,113.55
1632.00,113.55
1631.00,113.55
1630.00,113.55
1629.00,113.54
1628.00,113.54
1627.00,113.55
1626.00,113.55
1625.00,113.55
1624.00,113.56
1623.00,113.56
1622.00,113.56
1621.00,113.56
1620.00,113.56
1619.00,113.56
1618.00,113.56
1617.00,113.56
1616.00,113.56
1615.00,113.57
1614.00,113.58
1613.00,113.58
1612.00,113.58
1611.00,113.58
1610.00,113.58
1609.00,113.58
1608.00,113.58
1607.00,113.59
1606.00,113.59
1605.00,113.59
1604.00,113.59
1603.00,113.58
1602.00,113.58
1601.00,113.57
1600.00,113.56
1599.00,113.56
1598.00,113.55
1597.00,113.55
1596.00,113.54
1595.00,113.53
1594.00,113.53
1593.00,113.52
1592.00,113.52
1591.00,113.52
1590.00,113.51
1589.00,113.51
1588.00,113.51
1587.00,113.52
1586.00,113.52
1585.00,113.52
1584.00,113.52
1583.00,113.53
1582.00,113.53
1581.00,113.53
1580.00,113.54
1579.00,113.54
1578.00,113.55
1577.00,113.55
1576.00,113.56
1575.00,113.57
1574.00,113.58
1573.00,113.58
1572.00,113.59
1571.00,113.59
1570.00,113.58
1569.00,113.58
1568.00,113.59
1567.00,113.60
1566.00,113.60
1565.00,113.60
1564.00,113.59
1563.00,113.59
1562.00,113.58
1561.00,113.59
1560.00,113.59
1559.00,113.59
1558.00,113.59
1557.00,113.60
1556.00,113.60
1555.00,113.60
1554.00,113.59
1553.00,113.58
1552.00,113.58
1551.00,113.58
1550.00,113.57
1549.00,113.57
1548.00,113.57
1547.00,113.57
1546.00,113.58
1545.00,113.57
1544.00,113.57
1543.00,113.57
1542.00,113.58
1541.00,113.59
1540.00,113.59
1539.00,113.58
1538.00,113.58
1537.00,113.57
1536.00,113.56
1535.00,113.55
1534.00,113.54
1533.00,113.53
1532.00,113.52
1531.00,113.53
1530.00,113.53
1529.00,113.53
1528.00,113.52
1527.00,113.52
1526.00,113.53
1525.00,113.53
1524.00,113.53
1523.00,113.53
1522.00,113.53
1521.00,113.54
1520.00,113.55
1519.00,113.56
1518.00,113.57
1517.00,113.58
1516.00,113.57
1515.00,113.57
1514.00,113.58
1513.00,113.58
1512.00,113.59
1511.00,113.58
1510.00,113.58
1509.00,113.59
1508.00,113.60
1507.00,113.61
1506.00,113.62
1505.00,113.62
1504.00,113.62
1503.00,113.61
1502.00,113.60
1501.00,113.58
1500.00,113.57
1499.00,113.56
1498.00,113.55
1497.00,113.56
1496.00,113.56
1495.00,113.56
1494.00,113.56
1493.00,113.57
1492.00,113.56
1491.00,113.56
1490.00,113.56
1489.00,113.56
1488.00,113.55
1487.00,113.55
1486.00,113.55
1485.00,113.55
1484.00,113.54
1483.00,113.54
1482.00,113.54
1481.00,113.54
1480.00,113.54
1479.00,113.55
1478.00,113.55
1477.00,113.55
1476.00,113.56
1475.00,113.57
1474.00,113.58
1473.00,113.60
1472.00,113.60
1471.00,113.60
1470.00,113.60
1469.00,113.60
1468.00,113.60
1467.00,113.60
1466.00,113.61
1465.00,113.61
1464.00,113.62
1463.00,113.62
1462.00,113.63
1461.00,113.63
1460.00,113.62
1459.00,113.62
1458.00,113.63
1457.00,113.63
1456.00,113.64
1455.00,113.64
1454.00,113.64
1453.00,113.63
1452.00,113.63
1451.00,113.62
1450.00,113.61
1449.00,113.61
1448.00,113.61
1447.00,113.60
1446.00,113.60
1445.00,113.59
1444.00,113.59
1443.00,113.58
1442.00,113.57
1441.00,113.56
1440.00,113.56
1439.00,113.56
1438.00,113.55
1437.00,113.55
1436.00,113.55
1435.00,113.54
1434.00,113.54
1433.00,113.54
1432.00,113.53
1431.00,113.52
1430.00,113.52
1429.00,113.52
1428.00,113.52
1427.00,113.52
1426.00,113.53
1425.00,113.53
1424.00,113.54
1423.00,113.54
1422.00,113.53
1421.00,113.54
1420.00,113.54
1419.00,113.55
1418.00,113.56
1417.00,113.57
1416.00,113.58
1415.00,113.58
1414.00,113.58
1413.00,113.58
1412.00,113.58
1411.00,113.59
1410.00,113.59
1409.00,113.59
1408.00,113.59
1407.00,113.59
1406.00,113.59
1405.00,113.60
1404.00,113.60
1403.00,113.60
1402.00,113.60
1401.00,113.60
1400.00,113.60
1399.00,113.60
1398.00,113.60
1397.00,113.61
1396.00,113.61
1395.00,113.61
1394.00,113.60
1393.00,113.60
1392.00,113.60
1391.00,113.59
1390.00,113.58
1389.00,113.58
1388.00,113.57
1387.00,113.57
1386.00,113.57
1385.00,113.56
1384.00,113.56
1383.00,113.56
1382.00,113.55
1381.00,113.55
1380.00,113.54
1379.00,113.54
1378.00,113.54
1377.00,113.54
1376.00,113.54
1375.00,113.54
1374.00,113.54
1373.00,113.54
1372.00,113.54
1371.00,113.55
1370.00,113.55
1369.00,113.55
1368.00,113.55
1367.00,113.55
1366.00,113.55
1365.00,113.56
1364.00,113.56
1363.00,113.56
1362.00,113.57
1361.00,113.57
1360.00,113.58
1359.00,113.58
1358.00,113.58
1357.00,113.58
1356.00,113.58
1355.00,113.58
1354.00,113.59
1353.00,113.59
1352.00,113.59
1351.00,113.59
1350.00,113.59
1349.00,113.59
1348.00,113.59
1347.00,113.59
1346.00,113.59
1345.00,113.59
1344.00,113.59
1343.00,113.59
1342.00,113.58
1341.00,113.58
1340.00,113.58
1339.00,113.57
1338.00,113.57
1337.00,113.57
1336.00,113.56
1335.00,113.56
1334.00,113.56
1333.00,113.55
1332.00,113.55
1331.00,113.54
1330.00,113.54
1329.00,113.54
1328.00,113.54
1327.00,113.53
1326.00,113.53
1325.00,113.53
1324.00,113.53
1323.00,113.53
1322.00,113.53
1321.00,113.53
1320.00,113.53
1319.00,113.54
1318.00,113.54
1317.00,113.54
1316.00,113.54
1315.00,113.55
1314.00,113.55
1313.00,113.55
1312.00,113.55
1311.00,113.56
1310.00,113.56
1309.00,113.56
1308.00,113.57
1307.00,113.57
1306.00,113.57
1305.00,113.57
1304.00,113.58
1303.00,113.58
1302.00,113.59
1301.00,113.59
1300.00,113.59
1299.00,113.59
1298.00,113.59
1297.00,113.58
1296.00,113.58
1295.00,113.58
1294.00,113.58
1293.00,113.57
1292.00,113.57
1291.00,113.57
1290.00,113.57
1289.00,113.56
1288.00,113.56
1287.00,113.55
1286.00,113.54
1285.00,113.54
1284.00,113.54
1283.00,113.53
1282.00,113.53
1281.00,113.52
1280.00,113.51
1279.00,113.51
1278.00,113.50
1277.00,113.50
1276.00,113.49
1275.00,113.49
1274.00,113.49
1273.00,113.48
1272.00,113.48
1271.00,113.48
1270.00,113.48
1269.00,113.47
1268.00,113.47
1267.00,113.47
1266.00,113.47
1265.00,113.47
1264.00,113.47
1263.00,113.47
1262.00,113.47
1261.00,113.48
1260.00,113.48
1259.00,113.49
1258.00,113.50
1257.00,113.50
1256.00,113.51
1255.00,113.52
1254.00,113.52
1253.00,113.53
1252.00,113.53
1251.00,113.54
1250.00,113.54
1249.00,113.55
1248.00,113.55
1247.00,113.56
1246.00,113.56
1245.00,113.56
1244.00,113.56
1243.00,113.56
1242.00,113.56
1241.00,113.56
1240.00,113.56
1239.00,113.56
1238.00,113.55
1237.00,113.55
1236.00,113.55
1235.00,113.54
1234.00,113.53
1233.00,113.53
1232.00,113.52
1231.00,113.52
1230.00,113.51
1229.00,113.51
1228.00,113.51
1227.00,113.50
1226.00,113.49
1225.00,113.48
1224.00,113.48
1223.00,113.47
1222.00,113.47
1221.00,113.46
1220.00,113.46
1219.00,113.46
1218.00,113.45
1217.00,113.44
1216.00,113.44
1215.00,113.44
1214.00,113.44
1213.00,113.44
1212.00,113.44
1211.00,113.44
1210.00,113.44
1209.00,113.44
1208.00,113.44
1207.00,113.45
1206.00,113.45
1205.00,113.45
1204.00,113.45
1203.00,113.46
1202.00,113.46
1201.00,113.47
1200.00,113.47
1199.00,113.47
1198.00,113.47
1197.00,113.47
1196.00,113.48
1195.00,113.48
1194.00,113.48
1193.00,113.48
1192.00,113.48
1191.00,113.48
1190.00,113.48
1189.00,113.48
1188.00,113.48
1187.00,113.48
1186.00,113.48
1185.00,113.47
1184.00,113.47
1183.00,113.46
1182.00,113.46
1181.00,113.45
1180.00,113.45
1179.00,113.44
1178.00,113.44
1177.00,113.43
1176.00,113.43
1175.00,113.42
1174.00,113.42
1173.00,113.41
1172.00,113.41
1171.00,113.40
1170.00,113.40
1169.00,113.39
1168.00,113.39
1167.00,113.39
1166.00,113.38
1165.00,113.38
1164.00,113.38
1163.00,113.37
1162.00,113.37
1161.00,113.37
1160.00,113.37
1159.00,113.37
1158.00,113.37
1157.00,113.37
1156.00,113.37
1155.00,113.38
1154.00,113.38
1153.00,113.38
1152.00,113.39
1151.00,113.39
1150.00,113.39
1149.00,113.39
1148.00,113.40
1147.00,113.40
1146.00,113.40
1145.00,113.41
1144.00,113.41
1143.00,113.41
1142.00,113.41
1141.00,113.41
1140.00,113.41
1139.00,113.42
1138.00,113.41
1137.00,113.41
1136.00,113.41
1135.00,113.41
1134.00,113.41
1133.00,113.41
1132.00,113.41
1131.00,113.40
1130.00,113.40
1129.00,113.40
1128.00,113.40
1127.00,113.39
1126.00,113.39
1125.00,113.38
1124.00,113.38
1123.00,113.38
1122.00,113.37
1121.00,113.36
1120.00,113.36
1119.00,113.36
1118.00,113.35
1117.00,113.35
1116.00,113.35
1115.00,113.35
1114.00,113.34
1113.00,113.34
1112.00,113.34
1111.00,113.34
1110.00,113.33
1109.00,113.33
1108.00,113.33
1107.00,113.33
1106.00,113.34
1105.00,113.34
1104.00,113.34
1103.00,113.34
1102.00,113.34
1101.00,113.34
1100.00,113.35
1099.00,113.35
1098.00,113.35
1097.00,113.35
1096.00,113.35
1095.00,113.35
1094.00,113.35
1093.00,113.35
1092.00,113.36
1091.00,113.36
1090.00,113.37
1089.00,113.37
1088.00,113.37
1087.00,113.37
1086.00,113.37
1085.00,113.37
1084.00,113.37
1083.00,113.37
1082.00,113.37
1081.00,113.36
1080.00,113.36
1079.00,113.35
1078.00,113.35
1077.00,113.34
1076.00,113.34
1075.00,113.33
1074.00,113.33
1073.00,113.33
1072.00,113.33
1071.00,113.32
1070.00,113.32
1069.00,113.31
1068.00,113.31
1067.00,113.30
1066.00,113.30
1065.00,113.30
1064.00,113.30
1063.00,113.29
1062.00,113.29
1061.00,113.29
1060.00,113.28
1059.00,113.28
1058.00,113.28
1057.00,113.29
1056.00,113.29
1055.00,113.29
1054.00,113.29
1053.00,113.29
1052.00,113.29
1051.00,113.30
1050.00,113.30
1049.00,113.31
1048.00,113.32
1047.00,113.33
1046.00,113.33
1045.00,113.34
1044.00,113.35
1043.00,113.36
1042.00,113.36
1041.00,113.36
1040.00,113.37
1039.00,113.38
1038.00,113.38
1037.00,113.39
1036.00,113.40
1035.00,113.40
1034.00,113.41
1033.00,113.41
1032.00,113.41
1031.00,113.42
1030.00,113.42
1029.00,113.42
1028.00,113.43
1027.00,113.43
1026.00,113.43
1025.00,113.43
1024.00,113.43
1023.00,113.43
1022.00,113.44
1021.00,113.44
1020.00,113.44
1019.00,113.45
1018.00,113.45
1017.00,113.45
1016.00,113.45
1015.00,113.45
1014.00,113.45
1013.00,113.45
1012.00,113.45
1011.00,113.46
1010.00,113.46
1009.00,113.46
1008.00,113.47
1007.00,113.47
1006.00,113.47
1005.00,113.47
1004.00,113.48
1003.00,113.49
1002.00,113.49
1001.00,113.50
1000.00,113.50
999.00,113.51
998.00,113.52
997.00,113.52
996.00,113.53
995.00,113.54
994.00,113.54
993.00,113.55
992.00,113.56
991.00,113.56
990.00,113.57
989.00,113.57
988.00,113.58
987.00,113.59
986.00,113.60
985.00,113.61
984.00,113.61
983.00,113.62
982.00,113.62
981.00,113.63
980.00,113.63
979.00,113.63
978.00,113.63
977.00,113.64
976.00,113.64
975.00,113.64
974.00,113.64
973.00,113.65
972.00,113.65
971.00,113.65
970.00,113.65
969.00,113.65
968.00,113.65
967.00,113.64
966.00,113.64
965.00,113.64
964.00,113.64
963.00,113.64
962.00,113.63
961.00,113.63
960.00,113.63
959.00,113.63
958.00,113.63
957.00,113.64
956.00,113.64
955.00,113.64
954.00,113.64
953.00,113.64
952.00,113.64
951.00,113.64
950.00,113.64
949.00,113.64
948.00,113.65
947.00,113.65
946.00,113.65
945.00,113.66
944.00,113.66
943.00,113.67
942.00,113.68
941.00,113.68
940.00,113.69
939.00,113.70
938.00,113.70
937.00,113.70
936.00,113.70
935.00,113.71
934.00,113.72
933.00,113.72
932.00,113.73
931.00,113.74
930.00,113.74
929.00,113.74
928.00,113.75
927.00,113.75
926.00,113.75
925.00,113.74
924.00,113.74
923.00,113.75
922.00,113.75
921.00,113.75
920.00,113.75
919.00,113.74
918.00,113.74
917.00,113.74
916.00,113.74
915.00,113.74
914.00,113.73
913.00,113.73
912.00,113.73
911.00,113.72
910.00,113.71
909.00,113.71
908.00,113.71
907.00,113.71
906.00,113.71
905.00,113.71
904.00,113.71
903.00,113.71
902.00,113.70
901.00,113.70
900.00,113.70
899.00,113.70
898.00,113.70
897.00,113.70
896.00,113.71
895.00,113.71
894.00,113.71
893.00,113.71
892.00,113.72
891.00,113.72
890.00,113.72
889.00,113.72
888.00,113.72
887.00,113.73
886.00,113.73
885.00,113.73
884.00,113.73
883.00,113.73
882.00,113.73
881.00,113.74
880.00,113.74
879.00,113.74
878.00,113.75
877.00,113.75
876.00,113.75
875.00,113.75
874.00,113.76
873.00,113.76
872.00,113.76
871.00,113.76
870.00,113.76
869.00,113.76
868.00,113.76
867.00,113.75
866.00,113.75
865.00,113.75
864.00,113.75
863.00,113.75
862.00,113.74
861.00,113.74
860.00,113.74
859.00,113.73
858.00,113.73
857.00,113.72
856.00,113.72
855.00,113.72
854.00,113.72
853.00,113.71
852.00,113.71
851.00,113.71
850.00,113.71
849.00,113.71
848.00,113.70
847.00,113.70
846.00,113.70
845.00,113.71
844.00,113.71
843.00,113.72
842.00,113.72
841.00,113.72
840.00,113.72
839.00,113.72
838.00,113.72
837.00,113.72
836.00,113.72
835.00,113.72
834.00,113.72
833.00,113.73
832.00,113.73
831.00,113.73
830.00,113.73
829.00,113.72
828.00,113.72
827.00,113.72
826.00,113.72
825.00,113.72
824.00,113.73
823.00,113.73
822.00,113.73
821.00,113.73
820.00,113.73
819.00,113.73
818.00,113.73
817.00,113.73
816.00,113.73
815.00,113.72
814.00,113.72
813.00,113.71
812.00,113.71
811.00,113.71
810.00,113.71
809.00,113.71
808.00,113.71
807.00,113.71
806.00,113.71
805.00,113.71
804.00,113.71
803.00,113.71
802.00,113.70
801.00,113.70
800.00,113.70
799.00,113.70
798.00,113.69
797.00,113.69
796.00,113.69
795.00,113.69
794.00,113.69
793.00,113.70
792.00,113.70
791.00,113.71
790.00,113.71
789.00,113.71
788.00,113.71
787.00,113.71
786.00,113.72
785.00,113.72
784.00,113.73
783.00,113.73
782.00,113.74
781.00,113.74
780.00,113.74
779.00,113.74
778.00,113.74
777.00,113.74
776.00,113.75
775.00,113.75
774.00,113.75
773.00,113.75
772.00,113.75
771.00,113.75
770.00,113.75
769.00,113.75
768.00,113.75
767.00,113.75
766.00,113.74
765.00,113.74
764.00,113.74
763.00,113.74
762.00,113.73
761.00,113.73
760.00,113.73
759.00,113.72
758.00,113.72
757.00,113.72
756.00,113.71
755.00,113.71
754.00,113.70
753.00,113.69
752.00,113.69
751.00,113.69
750.00,113.69
749.00,113.69
748.00,113.68
747.00,113.67
746.00,113.67
745.00,113.66
744.00,113.66
743.00,113.66
742.00,113.66
741.00,113.66
740.00,113.66
739.00,113.66
738.00,113.66
737.00,113.67
736.00,113.67
735.00,113.67
734.00,113.67
733.00,113.66
732.00,113.67
731.00,113.67
730.00,113.67
729.00,113.68
728.00,113.68
727.00,113.68
726.00,113.67
725.00,113.68
724.00,113.68
723.00,113.69
722.00,113.69
721.00,113.69
720.00,113.69
719.00,113.68
718.00,113.68
717.00,113.68
716.00,113.68
715.00,113.68
714.00,113.68
713.00,113.68
712.00,113.68
711.00,113.68
710.00,113.68
709.00,113.68
708.00,113.67
707.00,113.66
706.00,113.65
705.00,113.65
704.00,113.64
703.00,113.64
702.00,113.63
701.00,113.63
700.00,113.63
699.00,113.62
698.00,113.62
697.00,113.61
696.00,113.61
695.00,113.60
694.00,113.60
693.00,113.59
692.00,113.59
691.00,113.59
690.00,113.59
689.00,113.58
688.00,113.58
687.00,113.58
686.00,113.57
685.00,113.57
684.00,113.57
683.00,113.57
682.00,113.57
681.00,113.57
680.00,113.57
679.00,113.57
678.00,113.57
677.00,113.57
676.00,113.57
675.00,113.57
674.00,113.56
673.00,113.56
672.00,113.57
671.00,113.58
670.00,113.61
669.00,113.63
668.00,113.63
667.00,113.62
666.00,113.60
665.00,113.58
664.00,113.57
663.00,113.57
662.00,113.57
661.00,113.56
660.00,113.56
659.00,113.55
658.00,113.54
657.00,113.54
656.00,113.54
655.00,113.54
654.00,113.54
653.00,113.53
652.00,113.53
651.00,113.52
650.00,113.51
649.00,113.51
648.00,113.50
647.00,113.49
646.00,113.48
645.00,113.47
644.00,113.47
643.00,113.46
642.00,113.47
641.00,113.47
640.00,113.47
639.00,113.47
638.00,113.46
637.00,113.45
636.00,113.45
635.00,113.44
634.00,113.44
633.00,113.44
632.00,113.44
631.00,113.44
630.00,113.43
629.00,113.43
628.00,113.42
627.00,113.42
626.00,113.43
625.00,113.43
624.00,113.43
623.00,113.44
622.00,113.44
621.00,113.43
620.00,113.43
619.00,113.43
618.00,113.43
617.00,113.44
616.00,113.45
615.00,113.45
614.00,113.45
613.00,113.45
612.00,113.45
611.00,113.45
610.00,113.45
609.00,113.44
608.00,113.43
607.00,113.43
606.00,113.42
605.00,113.42
604.00,113.43
603.00,113.43
602.00,113.43
601.00,113.44
600.00,113.44
599.00,113.44
598.00,113.45
597.00,113.46
596.00,113.45
595.00,113.44
594.00,113.42
593.00,113.40
592.00,113.39
591.00,113.38
590.00,113.37
589.00,113.37
588.00,113.37
587.00,113.37
586.00,113.37
585.00,113.36
584.00,113.37
583.00,113.37
582.00,113.38
581.00,113.38
580.00,113.38
579.00,113.38
578.00,113.38
577.00,113.38
576.00,113.38
575.00,113.38
574.00,113.37
573.00,113.37
572.00,113.36
571.00,113.36
570.00,113.36
569.00,113.36
568.00,113.36
567.00,113.35
566.00,113.35
565.00,113.35
564.00,113.35
563.00,113.37
562.00,113.38
561.00,113.39
560.00,113.40
559.00,113.41
558.00,113.42
557.00,113.43
556.00,113.44
555.00,113.44
554.00,113.44
553.00,113.44
552.00,113.44
551.00,113.44
550.00,113.45
549.00,113.45
548.00,113.45
547.00,113.45
546.00,113.44
545.00,113.44
544.00,113.44
543.00,113.46
542.00,113.48
541.00,113.50
540.00,113.51
539.00,113.51
538.00,113.51
537.00,113.51
536.00,113.53
535.00,113.55
534.00,113.56
533.00,113.57
532.00,113.57
531.00,113.57
530.00,113.58
529.00,113.59
528.00,113.61
527.00,113.62
526.00,113.64
525.00,113.65
524.00,113.67
523.00,113.68
522.00,113.70
521.00,113.70
520.00,113.70
519.00,113.70
518.00,113.70
517.00,113.71
516.00,113.72
515.00,113.72
514.00,113.72
513.00,113.72
512.00,113.73
511.00,113.74
510.00,113.75
509.00,113.75
508.00,113.74
507.00,113.74
506.00,113.73
505.00,113.73
504.00,113.74
503.00,113.75
502.00,113.76
501.00,113.76
500.00,113.76
