3996.73391,0.00000
3994.67373,0.00017
3992.61356,0.00052
3990.55339,0.00076
3988.49322,0.00065
3986.43305,0.00024
3984.37287,0.00007
3982.31270,0.00021
3980.25253,0.00034
3978.19236,0.00058
3976.13219,0.00086
3974.07201,0.00081
3972.01184,0.00058
3969.95167,0.00051
3967.89150,0.00061
3965.83133,0.00072
3963.77115,0.00067
3961.71098,0.00046
3959.65081,0.00036
3957.59064,0.00051
3955.53046,0.00069
3953.47029,0.00064
3951.41012,0.00042
3949.34995,0.00042
3947.28978,0.00064
3945.22960,0.00068
3943.16943,0.00049
3941.10926,0.00038
3939.04909,0.00041
3936.98892,0.00044
3934.92874,0.00062
3932.86857,0.00106
3930.80840,0.00139
3928.74823,0.00135
3926.68805,0.00109
3924.62788,0.00074
3922.56771,0.00050
3920.50754,0.00053
3918.44737,0.00070
3916.38719,0.00074
3914.32702,0.00058
3912.26685,0.00043
3910.20668,0.00046
3908.14651,0.00062
3906.08633,0.00070
3904.02616,0.00055
3901.96599,0.00033
3899.90582,0.00027
3897.84565,0.00035
3895.78547,0.00065
3893.72530,0.00117
3891.66513,0.00161
3889.60496,0.00165
3887.54478,0.00145
3885.48461,0.00133
3883.42444,0.00136
3881.36427,0.00130
3879.30410,0.00115
3877.24392,0.00116
3875.18375,0.00126
3873.12358,0.00131
3871.06341,0.00125
3869.00324,0.00098
3866.94306,0.00073
3864.88289,0.00078
3862.82272,0.00094
3860.76255,0.00103
3858.70237,0.00118
3856.64220,0.00144
3854.58203,0.00145
3852.52186,0.00113
3850.46169,0.00101
3848.40151,0.00113
3846.34134,0.00115
3844.28117,0.00102
3842.22100,0.00105
3840.16083,0.00130
3838.10065,0.00137
3836.04048,0.00111
3833.98031,0.00068
3831.92014,0.00052
3829.85997,0.00079
3827.79979,0.00117
3825.73962,0.00144
3823.67945,0.00164
3821.61928,0.00176
3819.55910,0.00167
3817.49893,0.00136
3815.43876,0.00110
3813.37859,0.00113
3811.31842,0.00132
3809.25824,0.00143
3807.19807,0.00143
3805.13790,0.00147
3803.07773,0.00148
3801.01756,0.00128
3798.95738,0.00104
3796.89721,0.00094
3794.83704,0.00095
3792.77687,0.00124
3790.71670,0.00175
3788.65652,0.00196
3786.59635,0.00161
3784.53618,0.00123
3782.47601,0.00130
3780.41583,0.00159
3778.35566,0.00164
3776.29549,0.00136
3774.23532,0.00109
3772.17515,0.00112
3770.11497,0.00144
3768.05480,0.00175
3765.99463,0.00169
3763.93446,0.00141
3761.87429,0.00124
3759.81411,0.00109
3757.75394,0.00088
3755.69377,0.00083
3753.63360,0.00117
3751.57342,0.00191
3749.51325,0.00258
3747.45308,0.00278
3745.39291,0.00251
3743.33274,0.00176
3741.27256,0.00093
3739.21239,0.00041
3737.15222,0.00017
3735.09205,0.00023
3733.03188,0.00092
3730.97170,0.00185
3728.91153,0.00229
3726.85136,0.00220
3724.79119,0.00197
3722.73102,0.00201
3720.67084,0.00222
3718.61067,0.00237
3716.55050,0.00236
3714.49033,0.00192
3712.43015,0.00117
3710.36998,0.00089
3708.30981,0.00134
3706.24964,0.00180
3704.18947,0.00192
3702.12929,0.00178
3700.06912,0.00172
3698.00895,0.00183
3695.94878,0.00176
3693.88861,0.00136
3691.82843,0.00102
3689.76826,0.00125
3687.70809,0.00180
3685.64792,0.00199
3683.58775,0.00195
3681.52757,0.00196
3679.46740,0.00171
3677.40723,0.00127
3675.34706,0.00135
3673.28688,0.00173
3671.22671,0.00176
3669.16654,0.00177
3667.10637,0.00187
3665.04620,0.00193
3662.98602,0.00227
3660.92585,0.00268
3658.86568,0.00272
3656.80551,0.00257
3654.74534,0.00264
3652.68516,0.00274
3650.62499,0.00243
3648.56482,0.00205
3646.50465,0.00228
3644.44447,0.00297
3642.38430,0.00377
3640.32413,0.00451
3638.26396,0.00496
3636.20379,0.00514
3634.14361,0.00531
3632.08344,0.00555
3630.02327,0.00582
3627.96310,0.00611
3625.90293,0.00629
3623.84275,0.00618
3621.78258,0.00597
3619.72241,0.00614
3617.66224,0.00651
3615.60207,0.00646
3613.54189,0.00627
3611.48172,0.00641
3609.42155,0.00687
3607.36138,0.00745
3605.30120,0.00785
3603.24103,0.00787
3601.18086,0.00776
3599.12069,0.00790
3597.06052,0.00821
3595.00034,0.00847
3592.94017,0.00862
3590.88000,0.00866
3588.81983,0.00877
3586.75966,0.00905
3584.69948,0.00939
3582.63931,0.00961
3580.57914,0.00970
3578.51897,0.00979
3576.45879,0.01006
3574.39862,0.01030
3572.33845,0.01019
3570.27828,0.00992
3568.21811,0.00993
3566.15793,0.01044
3564.09776,0.01105
3562.03759,0.01138
3559.97742,0.01164
3557.91725,0.01183
3555.85707,0.01182
3553.79690,0.01176
3551.73673,0.01175
3549.67656,0.01175
3547.61639,0.01204
3545.55621,0.01273
3543.49604,0.01322
3541.43587,0.01322
3539.37570,0.01326
3537.31552,0.01370
3535.25535,0.01435
3533.19518,0.01475
3531.13501,0.01464
3529.07484,0.01439
3527.01466,0.01454
3524.95449,0.01500
3522.89432,0.01529
3520.83415,0.01529
3518.77398,0.01524
3516.71380,0.01527
3514.65363,0.01527
3512.59346,0.01526
3510.53329,0.01537
3508.47312,0.01552
3506.41294,0.01564
3504.35277,0.01602
3502.29260,0.01680
3500.23243,0.01742
3498.17225,0.01755
3496.11208,0.01747
3494.05191,0.01725
3491.99174,0.01691
3489.93157,0.01694
3487.87139,0.01763
3485.81122,0.01846
3483.75105,0.01881
3481.69088,0.01875
3479.63071,0.01868
3477.57053,0.01873
3475.51036,0.01889
3473.45019,0.01905
3471.39002,0.01920
3469.32984,0.01946
3467.26967,0.01961
3465.20950,0.01956
3463.14933,0.01963
3461.08916,0.01991
3459.02898,0.02013
3456.96881,0.02016
3454.90864,0.02011
3452.84847,0.02014
3450.78830,0.02044
3448.72812,0.02094
3446.66795,0.02113
3444.60778,0.02096
3442.54761,0.02101
3440.48744,0.02130
3438.42726,0.02141
3436.36709,0.02125
3434.30692,0.02107
3432.24675,0.02113
3430.18657,0.02138
3428.12640,0.02162
3426.06623,0.02176
3424.00606,0.02182
3421.94589,0.02191
3419.88571,0.02207
3417.82554,0.02223
3415.76537,0.02238
3413.70520,0.02250
3411.64503,0.02258
3409.58485,0.02278
3407.52468,0.02298
3405.46451,0.02307
3403.40434,0.02322
3401.34416,0.02329
3399.28399,0.02319
3397.22382,0.02321
3395.16365,0.02333
3393.10348,0.02336
3391.04330,0.02350
3388.98313,0.02368
3386.92296,0.02371
3384.86279,0.02364
3382.80262,0.02352
3380.74244,0.02341
3378.68227,0.02336
3376.62210,0.02342
3374.56193,0.02371
3372.50176,0.02406
3370.44158,0.02414
3368.38141,0.02407
3366.32124,0.02413
3364.26107,0.02442
3362.20089,0.02471
3360.14072,0.02474
3358.08055,0.02466
3356.02038,0.02468
3353.96021,0.02472
3351.90003,0.02473
3349.83986,0.02486
3347.77969,0.02498
3345.71952,0.02486
3343.65935,0.02467
3341.59917,0.02457
3339.53900,0.02461
3337.47883,0.02480
3335.41866,0.02506
3333.35849,0.02528
3331.29831,0.02545
3329.23814,0.02541
3327.17797,0.02515
3325.11780,0.02506
3323.05762,0.02521
3320.99745,0.02535
3318.93728,0.02530
3316.87711,0.02521
3314.81694,0.02515
3312.75676,0.02501
3310.69659,0.02485
3308.63642,0.02497
3306.57625,0.02529
3304.51608,0.02546
3302.45590,0.02564
3300.39573,0.02604
3298.33556,0.02628
3296.27539,0.02610
3294.21521,0.02576
3292.15504,0.02558
3290.09487,0.02544
3288.03470,0.02515
3285.97453,0.02497
3283.91435,0.02511
3281.85418,0.02544
3279.79401,0.02574
3277.73384,0.02586
3275.67367,0.02584
3273.61349,0.02591
3271.55332,0.02611
3269.49315,0.02613
3267.43298,0.02581
3265.37281,0.02551
3263.31263,0.02547
3261.25246,0.02547
3259.19229,0.02540
3257.13212,0.02553
3255.07194,0.02582
3253.01177,0.02600
3250.95160,0.02601
3248.89143,0.02592
3246.83126,0.02581
3244.77108,0.02581
3242.71091,0.02596
3240.65074,0.02609
3238.59057,0.02624
3236.53040,0.02639
3234.47022,0.02636
3232.41005,0.02631
3230.34988,0.02630
3228.28971,0.02617
3226.22954,0.02611
3224.16936,0.02613
3222.10919,0.02602
3220.04902,0.02593
3217.98885,0.02597
3215.92867,0.02594
3213.86850,0.02575
3211.80833,0.02563
3209.74816,0.02573
3207.68799,0.02594
3205.62781,0.02603
3203.56764,0.02595
3201.50747,0.02587
3199.44730,0.02596
3197.38713,0.02611
3195.32695,0.02602
3193.26678,0.02562
3191.20661,0.02531
3189.14644,0.02519
3187.08626,0.02500
3185.02609,0.02484
3182.96592,0.02488
3180.90575,0.02497
3178.84558,0.02498
3176.78540,0.02502
3174.72523,0.02514
3172.66506,0.02534
3170.60489,0.02539
3168.54472,0.02529
3166.48454,0.02528
3164.42437,0.02527
3162.36420,0.02506
3160.30403,0.02469
3158.24386,0.02439
3156.18368,0.02429
3154.12351,0.02446
3152.06334,0.02478
3150.00317,0.02487
3147.94299,0.02465
3145.88282,0.02441
3143.82265,0.02425
3141.76248,0.02423
3139.70231,0.02425
3137.64213,0.02413
3135.58196,0.02403
3133.52179,0.02397
3131.46162,0.02383
3129.40145,0.02368
3127.34127,0.02357
3125.28110,0.02358
3123.22093,0.02367
3121.16076,0.02357
3119.10058,0.02335
3117.04041,0.02316
3114.98024,0.02302
3112.92007,0.02296
3110.85990,0.02301
3108.79972,0.02294
3106.73955,0.02270
3104.67938,0.02259
3102.61921,0.02260
3100.55904,0.02249
3098.49886,0.02229
3096.43869,0.02207
3094.37852,0.02174
3092.31835,0.02147
3090.25818,0.02154
3088.19800,0.02171
3086.13783,0.02168
3084.07766,0.02155
3082.01749,0.02144
3079.95731,0.02129
3077.89714,0.02114
3075.83697,0.02107
3073.77680,0.02114
3071.71663,0.02123
3069.65645,0.02132
3067.59628,0.02150
3065.53611,0.02148
3063.47594,0.02100
3061.41577,0.02048
3059.35559,0.02030
3057.29542,0.02030
3055.23525,0.02027
3053.17508,0.02026
3051.11491,0.02039
3049.05473,0.02057
3046.99456,0.02062
3044.93439,0.02040
3042.87422,0.01998
3040.81404,0.01956
3038.75387,0.01937
3036.69370,0.01936
3034.63353,0.01919
3032.57336,0.01902
3030.51318,0.01911
3028.45301,0.01919
3026.39284,0.01899
3024.33267,0.01878
3022.27250,0.01884
3020.21232,0.01884
3018.15215,0.01850
3016.09198,0.01814
3014.03181,0.01806
3011.97163,0.01816
3009.91146,0.01823
3007.85129,0.01806
3005.79112,0.01767
3003.73095,0.01752
3001.67077,0.01773
2999.61060,0.01784
2997.55043,0.01763
2995.49026,0.01746
2993.43009,0.01757
2991.36991,0.01771
2989.30974,0.01757
2987.24957,0.01735
2985.18940,0.01728
2983.12923,0.01723
2981.06905,0.01700
2979.00888,0.01670
2976.94871,0.01658
2974.88854,0.01657
2972.82836,0.01651
2970.76819,0.01653
2968.70802,0.01662
2966.64785,0.01656
2964.58768,0.01642
2962.52750,0.01631
2960.46733,0.01631
2958.40716,0.01631
2956.34699,0.01630
2954.28682,0.01639
2952.22664,0.01650
2950.16647,0.01654
2948.10630,0.01641
2946.04613,0.01605
2943.98596,0.01580
2941.92578,0.01589
2939.86561,0.01604
2937.80544,0.01597
2935.74527,0.01583
2933.68509,0.01567
2931.62492,0.01551
2929.56475,0.01533
2927.50458,0.01514
2925.44441,0.01527
2923.38423,0.01564
2921.32406,0.01574
2919.26389,0.01549
2917.20372,0.01517
2915.14355,0.01494
2913.08337,0.01481
2911.02320,0.01483
2908.96303,0.01495
2906.90286,0.01488
2904.84268,0.01469
2902.78251,0.01473
2900.72234,0.01486
2898.66217,0.01481
2896.60200,0.01466
2894.54182,0.01458
2892.48165,0.01471
2890.42148,0.01491
2888.36131,0.01488
2886.30114,0.01481
2884.24096,0.01484
2882.18079,0.01482
2880.12062,0.01467
2878.06045,0.01433
2876.00028,0.01408
2873.94010,0.01410
2871.87993,0.01417
2869.81976,0.01408
2867.75959,0.01402
2865.69941,0.01408
2863.63924,0.01409
2861.57907,0.01395
2859.51890,0.01375
2857.45873,0.01369
2855.39855,0.01375
2853.33838,0.01373
2851.27821,0.01343
2849.21804,0.01309
2847.15787,0.01307
2845.09769,0.01320
2843.03752,0.01324
2840.97735,0.01320
2838.91718,0.01309
2836.85700,0.01298
2834.79683,0.01286
2832.73666,0.01277
2830.67649,0.01283
2828.61632,0.01286
2826.55614,0.01269
2824.49597,0.01257
2822.43580,0.01263
2820.37563,0.01255
2818.31546,0.01232
2816.25528,0.01222
2814.19511,0.01230
2812.13494,0.01232
2810.07477,0.01226
2808.01460,0.01221
2805.95442,0.01221
2803.89425,0.01219
2801.83408,0.01209
2799.77391,0.01203
2797.71373,0.01205
2795.65356,0.01192
2793.59339,0.01167
2791.53322,0.01152
2789.47305,0.01155
2787.41287,0.01160
2785.35270,0.01147
2783.29253,0.01134
2781.23236,0.01149
2779.17219,0.01178
2777.11201,0.01179
2775.05184,0.01155
2772.99167,0.01143
2770.93150,0.01137
2768.87133,0.01118
2766.81115,0.01108
2764.75098,0.01120
2762.69081,0.01122
2760.63064,0.01108
2758.57046,0.01095
2756.51029,0.01083
2754.45012,0.01081
2752.38995,0.01095
2750.32978,0.01104
2748.26960,0.01089
2746.20943,0.01071
2744.14926,0.01061
2742.08909,0.01064
2740.02892,0.01087
2737.96874,0.01109
2735.90857,0.01100
2733.84840,0.01065
2731.78823,0.01045
2729.72805,0.01048
2727.66788,0.01036
2725.60771,0.01021
2723.54754,0.01033
2721.48737,0.01037
2719.42719,0.01020
2717.36702,0.01014
2715.30685,0.01015
2713.24668,0.00996
2711.18651,0.00968
2709.12633,0.00959
2707.06616,0.00964
2705.00599,0.00968
2702.94582,0.00970
2700.88565,0.00974
2698.82547,0.00969
2696.76530,0.00954
2694.70513,0.00947
2692.64496,0.00946
2690.58478,0.00941
2688.52461,0.00926
2686.46444,0.00909
2684.40427,0.00904
2682.34410,0.00913
2680.28392,0.00920
2678.22375,0.00911
2676.16358,0.00901
2674.10341,0.00901
2672.04324,0.00896
2669.98306,0.00884
2667.92289,0.00877
2665.86272,0.00870
2663.80255,0.00858
2661.74238,0.00846
2659.68220,0.00844
2657.62203,0.00856
2655.56186,0.00867
2653.50169,0.00879
2651.44151,0.00888
2649.38134,0.00877
2647.32117,0.00871
2645.26100,0.00874
2643.20083,0.00866
2641.14065,0.00859
2639.08048,0.00850
2637.02031,0.00817
2634.96014,0.00788
2632.89997,0.00793
2630.83979,0.00799
2628.77962,0.00781
2626.71945,0.00770
2624.65928,0.00787
2622.59910,0.00802
2620.53893,0.00790
2618.47876,0.00767
2616.41859,0.00755
2614.35842,0.00747
2612.29824,0.00732
2610.23807,0.00715
2608.17790,0.00703
2606.11773,0.00700
2604.05756,0.00711
2601.99738,0.00728
2599.93721,0.00740
2597.87704,0.00738
2595.81687,0.00740
2593.75670,0.00741
2591.69652,0.00705
2589.63635,0.00671
2587.57618,0.00685
2585.51601,0.00692
2583.45583,0.00670
2581.39566,0.00665
2579.33549,0.00667
2577.27532,0.00652
2575.21515,0.00664
2573.15497,0.00687
2571.09480,0.00677
2569.03463,0.00690
2566.97446,0.00734
2564.91429,0.00715
2562.85411,0.00648
2560.79394,0.00632
2558.73377,0.00673
2556.67360,0.00709
2554.61342,0.00721
2552.55325,0.00732
2550.49308,0.00746
2548.43291,0.00730
2546.37274,0.00675
2544.31256,0.00640
2542.25239,0.00668
2540.19222,0.00723
2538.13205,0.00739
2536.07188,0.00704
2534.01170,0.00678
2531.95153,0.00714
2529.89136,0.00748
2527.83119,0.00711
2525.77102,0.00661
2523.71084,0.00662
2521.65067,0.00685
2519.59050,0.00691
2517.53033,0.00697
2515.47015,0.00730
2513.40998,0.00752
2511.34981,0.00728
2509.28964,0.00699
2507.22947,0.00704
2505.16929,0.00718
2503.10912,0.00705
2501.04895,0.00685
2498.98878,0.00678
2496.92861,0.00699
2494.86843,0.00739
2492.80826,0.00749
2490.74809,0.00724
2488.68792,0.00714
2486.62775,0.00724
2484.56757,0.00733
2482.50740,0.00731
2480.44723,0.00718
2478.38706,0.00691
2476.32688,0.00656
2474.26671,0.00655
2472.20654,0.00695
2470.14637,0.00719
2468.08620,0.00732
2466.02602,0.00751
2463.96585,0.00737
2461.90568,0.00710
2459.84551,0.00713
2457.78534,0.00736
2455.72516,0.00759
2453.66499,0.00779
2451.60482,0.00780
2449.54465,0.00759
2447.48447,0.00750
2445.42430,0.00767
2443.36413,0.00793
2441.30396,0.00802
2439.24379,0.00785
2437.18361,0.00757
2435.12344,0.00729
2433.06327,0.00727
2431.00310,0.00755
2428.94293,0.00782
2426.88275,0.00781
2424.82258,0.00755
2422.76241,0.00725
2420.70224,0.00696
2418.64207,0.00667
2416.58189,0.00653
2414.52172,0.00675
2412.46155,0.00721
2410.40138,0.00757
2408.34120,0.00768
2406.28103,0.00753
2404.22086,0.00738
2402.16069,0.00748
2400.10052,0.00750
2398.04034,0.00714
2395.98017,0.00677
2393.92000,0.00674
2391.85983,0.00710
2389.79966,0.00760
2387.73948,0.00794
2385.67931,0.00796
2383.61914,0.00758
2381.55897,0.00693
2379.49880,0.00656
2377.43862,0.00681
2375.37845,0.00765
2373.31828,0.00867
2371.25811,0.00915
2369.19793,0.00854
2367.13776,0.00710
2365.07759,0.00617
2363.01742,0.00658
2360.95725,0.00729
2358.89707,0.00887
2356.83690,0.01032
2354.77673,0.01032
2352.71656,0.00904
2350.65639,0.00695
2348.59621,0.00592
2346.53604,0.00731
2344.47587,0.00838
2342.41570,0.00869
2340.35552,0.00854
2338.29535,0.00846
2336.23518,0.00878
2334.17501,0.00869
2332.11484,0.00814
2330.05466,0.00756
2327.99449,0.00773
2325.93432,0.00843
2323.87415,0.00896
2321.81398,0.00865
2319.75380,0.00817
2317.69363,0.00776
2315.63346,0.00799
2313.57329,0.00851
2311.51312,0.00832
2309.45294,0.00748
2307.39277,0.00708
2305.33260,0.00747
2303.27243,0.00781
2301.21225,0.00771
2299.15208,0.00740
2297.09191,0.00729
2295.03174,0.00758
2292.97157,0.00785
2290.91139,0.00784
2288.85122,0.00775
2286.79105,0.00742
2284.73088,0.00682
2282.67071,0.00665
2280.61053,0.00690
2278.55036,0.00660
2276.49019,0.00584
2274.43002,0.00581
2272.36984,0.00663
2270.30967,0.00716
2268.24950,0.00707
2266.18933,0.00696
2264.12916,0.00720
2262.06898,0.00751
2260.00881,0.00734
2257.94864,0.00673
2255.88847,0.00654
2253.82830,0.00703
2251.76812,0.00741
2249.70795,0.00711
2247.64778,0.00658
2245.58761,0.00638
2243.52744,0.00636
2241.46726,0.00652
2239.40709,0.00678
2237.34692,0.00663
2235.28675,0.00596
2233.22657,0.00554
2231.16640,0.00585
2229.10623,0.00586
2227.04606,0.00507
2224.98589,0.00440
2222.92571,0.00444
2220.86554,0.00516
2218.80537,0.00595
2216.74520,0.00597
2214.68503,0.00565
2212.62485,0.00541
2210.56468,0.00511
2208.50451,0.00492
2206.44434,0.00451
2204.38417,0.00419
2202.32399,0.00483
2200.26382,0.00614
2198.20365,0.00690
2196.14348,0.00685
2194.08330,0.00663
2192.02313,0.00583
2189.96296,0.00438
2187.90279,0.00429
2185.84262,0.00586
2183.78244,0.00632
2181.72227,0.00539
2179.66210,0.00539
2177.60193,0.00600
2175.54176,0.00576
2173.48158,0.00457
2171.42141,0.00322
2169.36124,0.00250
2167.30107,0.00274
2165.24089,0.00331
2163.18072,0.00285
2161.12055,0.00209
2159.06038,0.00226
2157.00021,0.00235
2154.94003,0.00272
2152.87986,0.00408
2150.81969,0.00461
2148.75952,0.00413
2146.69935,0.00409
2144.63917,0.00426
2142.57900,0.00439
2140.51883,0.00456
2138.45866,0.00464
2136.39849,0.00500
2134.33831,0.00526
2132.27814,0.00483
2130.21797,0.00471
2128.15780,0.00518
2126.09762,0.00515
2124.03745,0.00442
2121.97728,0.00389
2119.91711,0.00419
2117.85694,0.00475
2115.79676,0.00504
2113.73659,0.00523
2111.67642,0.00542
2109.61625,0.00545
2107.55608,0.00522
2105.49590,0.00502
2103.43573,0.00519
2101.37556,0.00539
2099.31539,0.00519
2097.25521,0.00469
2095.19504,0.00450
2093.13487,0.00498
2091.07470,0.00525
2089.01453,0.00461
2086.95435,0.00391
2084.89418,0.00410
2082.83401,0.00488
2080.77384,0.00555
2078.71367,0.00552
2076.65349,0.00481
2074.59332,0.00435
2072.53315,0.00419
2070.47298,0.00372
2068.41281,0.00333
2066.35263,0.00324
2064.29246,0.00309
2062.23229,0.00289
2060.17212,0.00285
2058.11194,0.00298
2056.05177,0.00296
2053.99160,0.00239
2051.93143,0.00160
2049.87126,0.00173
2047.81108,0.00284
2045.75091,0.00343
2043.69074,0.00342
2041.63057,0.00360
2039.57040,0.00378
2037.51022,0.00400
2035.45005,0.00411
2033.38988,0.00381
2031.32971,0.00337
2029.26954,0.00344
2027.20936,0.00422
2025.14919,0.00459
2023.08902,0.00366
2021.02885,0.00276
2018.96867,0.00333
2016.90850,0.00405
2014.84833,0.00365
2012.78816,0.00323
2010.72799,0.00280
2008.66781,0.00180
2006.60764,0.00127
2004.54747,0.00139
2002.48730,0.00151
2000.42713,0.00222
1998.36695,0.00376
1996.30678,0.00476
1994.24661,0.00438
1992.18644,0.00295
1990.12626,0.00165
1988.06609,0.00182
1986.00592,0.00327
1983.94575,0.00469
1981.88558,0.00503
1979.82540,0.00405
1977.76523,0.00317
1975.70506,0.00299
1973.64489,0.00254
1971.58472,0.00243
1969.52454,0.00302
1967.46437,0.00351
1965.40420,0.00413
1963.34403,0.00467
1961.28386,0.00428
1959.22368,0.00340
1957.16351,0.00313
1955.10334,0.00349
1953.04317,0.00371
1950.98299,0.00352
1948.92282,0.00369
1946.86265,0.00426
1944.80248,0.00411
1942.74231,0.00347
1940.68213,0.00335
1938.62196,0.00359
1936.56179,0.00385
1934.50162,0.00405
1932.44145,0.00400
1930.38127,0.00339
1928.32110,0.00246
1926.26093,0.00201
1924.20076,0.00209
1922.14059,0.00227
1920.08041,0.00264
1918.02024,0.00330
1915.96007,0.00380
1913.89990,0.00372
1911.83972,0.00327
1909.77955,0.00307
1907.71938,0.00308
1905.65921,0.00296
1903.59904,0.00276
1901.53886,0.00265
1899.47869,0.00287
1897.41852,0.00351
1895.35835,0.00404
1893.29818,0.00381
1891.23800,0.00318
1889.17783,0.00290
1887.11766,0.00302
1885.05749,0.00331
1882.99731,0.00359
1880.93714,0.00358
1878.87697,0.00317
1876.81680,0.00271
1874.75663,0.00280
1872.69645,0.00339
1870.63628,0.00381
1868.57611,0.00372
1866.51594,0.00342
1864.45577,0.00312
1862.39559,0.00276
1860.33542,0.00248
1858.27525,0.00253
1856.21508,0.00270
1854.15491,0.00276
1852.09473,0.00286
1850.03456,0.00312
1847.97439,0.00336
1845.91422,0.00352
1843.85404,0.00357
1841.79387,0.00345
1839.73370,0.00318
1837.67353,0.00284
1835.61336,0.00263
1833.55318,0.00279
1831.49301,0.00326
1829.43284,0.00357
1827.37267,0.00346
1825.31250,0.00328
1823.25232,0.00327
1821.19215,0.00331
1819.13198,0.00330
1817.07181,0.00325
1815.01163,0.00318
1812.95146,0.00315
1810.89129,0.00326
1808.83112,0.00350
1806.77095,0.00350
1804.71077,0.00323
1802.65060,0.00310
1800.59043,0.00327
1798.53026,0.00345
1796.47009,0.00350
1794.40991,0.00361
1792.34974,0.00378
1790.28957,0.00384
1788.22940,0.00375
1786.16923,0.00364
1784.10905,0.00368
1782.04888,0.00381
1779.98871,0.00379
1777.92854,0.00357
1775.86836,0.00339
1773.80819,0.00331
1771.74802,0.00328
1769.68785,0.00338
1767.62768,0.00369
1765.56750,0.00402
1763.50733,0.00420
1761.44716,0.00423
1759.38699,0.00417
1757.32682,0.00411
1755.26664,0.00412
1753.20647,0.00419
1751.14630,0.00429
1749.08613,0.00438
1747.02596,0.00426
1744.96578,0.00395
1742.90561,0.00377
1740.84544,0.00393
1738.78527,0.00422
1736.72509,0.00431
1734.66492,0.00433
1732.60475,0.00464
1730.54458,0.00501
1728.48441,0.00516
1726.42423,0.00520
1724.36406,0.00524
1722.30389,0.00526
1720.24372,0.00528
1718.18355,0.00556
1716.12337,0.00612
1714.06320,0.00639
1712.00303,0.00617
1709.94286,0.00582
1707.88268,0.00564
1705.82251,0.00561
1703.76234,0.00559
1701.70217,0.00572
1699.64200,0.00623
1697.58182,0.00701
1695.52165,0.00775
1693.46148,0.00807
1691.40131,0.00797
1689.34114,0.00775
1687.28096,0.00774
1685.22079,0.00820
1683.16062,0.00886
1681.10045,0.00899
1679.04028,0.00878
1676.98010,0.00859
1674.91993,0.00856
1672.85976,0.00871
1670.79959,0.00888
1668.73941,0.00912
1666.67924,0.00943
1664.61907,0.00972
1662.55890,0.00998
1660.49873,0.01012
1658.43855,0.01009
1656.37838,0.00999
1654.31821,0.01001
1652.25804,0.01008
1650.19787,0.00992
1648.13769,0.00981
1646.07752,0.01002
1644.01735,0.01019
1641.95718,0.01006
1639.89701,0.00985
1637.83683,0.00980
1635.77666,0.00998
1633.71649,0.01013
1631.65632,0.01002
1629.59614,0.00984
1627.53597,0.00973
1625.47580,0.00956
1623.41563,0.00929
1621.35546,0.00910
1619.29528,0.00909
1617.23511,0.00921
1615.17494,0.00925
1613.11477,0.00905
1611.05460,0.00879
1608.99442,0.00865
1606.93425,0.00856
1604.87408,0.00847
1602.81391,0.00834
1600.75373,0.00815
1598.69356,0.00797
1596.63339,0.00782
1594.57322,0.00764
1592.51305,0.00742
1590.45287,0.00724
1588.39270,0.00712
1586.33253,0.00696
1584.27236,0.00666
1582.21219,0.00632
1580.15201,0.00608
1578.09184,0.00598
1576.03167,0.00604
1573.97150,0.00609
1571.91133,0.00595
1569.85115,0.00574
1567.79098,0.00558
1565.73081,0.00537
1563.67064,0.00502
1561.61046,0.00462
1559.55029,0.00447
1557.49012,0.00470
1555.42995,0.00472
1553.36978,0.00449
1551.30960,0.00434
1549.24943,0.00432
1547.18926,0.00423
1545.12909,0.00397
1543.06892,0.00370
1541.00874,0.00361
1538.94857,0.00356
1536.88840,0.00355
1534.82823,0.00364
1532.76805,0.00371
1530.70788,0.00369
1528.64771,0.00370
1526.58754,0.00367
1524.52737,0.00334
1522.46719,0.00285
1520.40702,0.00244
1518.34685,0.00223
1516.28668,0.00230
1514.22651,0.00260
1512.16633,0.00285
1510.10616,0.00289
1508.04599,0.00280
1505.98582,0.00279
1503.92565,0.00273
1501.86547,0.00258
1499.80530,0.00250
1497.74513,0.00256
1495.68496,0.00267
1493.62478,0.00267
1491.56461,0.00257
1489.50444,0.00252
1487.44427,0.00254
1485.38410,0.00260
1483.32392,0.00272
1481.26375,0.00287
1479.20358,0.00291
1477.14341,0.00282
1475.08324,0.00272
1473.02306,0.00273
1470.96289,0.00278
1468.90272,0.00274
1466.84255,0.00270
1464.78238,0.00287
1462.72220,0.00315
1460.66203,0.00331
1458.60186,0.00341
1456.54169,0.00355
1454.48151,0.00354
1452.42134,0.00337
1450.36117,0.00319
1448.30100,0.00312
1446.24083,0.00318
1444.18065,0.00324
1442.12048,0.00312
1440.06031,0.00287
1438.00014,0.00275
1435.93997,0.00292
1433.87979,0.00307
1431.81962,0.00309
1429.75945,0.00323
1427.69928,0.00350
1425.63910,0.00365
1423.57893,0.00360
1421.51876,0.00351
1419.45859,0.00349
1417.39842,0.00349
1415.33824,0.00342
1413.27807,0.00339
1411.21790,0.00346
1409.15773,0.00352
1407.09756,0.00354
1405.03738,0.00356
1402.97721,0.00345
1400.91704,0.00324
1398.85687,0.00315
1396.79670,0.00325
1394.73652,0.00337
1392.67635,0.00343
1390.61618,0.00343
1388.55601,0.00335
1386.49583,0.00328
1384.43566,0.00324
1382.37549,0.00319
1380.31532,0.00316
1378.25515,0.00316
1376.19497,0.00312
1374.13480,0.00309
1372.07463,0.00309
1370.01446,0.00306
1367.95429,0.00305
1365.89411,0.00308
1363.83394,0.00303
1361.77377,0.00289
1359.71360,0.00281
1357.65343,0.00282
1355.59325,0.00278
1353.53308,0.00273
1351.47291,0.00278
1349.41274,0.00280
1347.35256,0.00265
1345.29239,0.00250
1343.23222,0.00252
1341.17205,0.00260
1339.11188,0.00257
1337.05170,0.00250
1334.99153,0.00254
1332.93136,0.00260
1330.87119,0.00250
1328.81102,0.00229
1326.75084,0.00225
1324.69067,0.00244
1322.63050,0.00261
1320.57033,0.00259
1318.51015,0.00247
1316.44998,0.00242
1314.38981,0.00246
1312.32964,0.00253
1310.26947,0.00261
1308.20929,0.00271
1306.14912,0.00278
1304.08895,0.00276
1302.02878,0.00272
1299.96861,0.00280
1297.90843,0.00294
1295.84826,0.00302
1293.78809,0.00307
1291.72792,0.00303
1289.66775,0.00295
1287.60757,0.00303
1285.54740,0.00319
1283.48723,0.00328
1281.42706,0.00328
1279.36688,0.00320
1277.30671,0.00322
1275.24654,0.00339
1273.18637,0.00347
1271.12620,0.00342
1269.06602,0.00338
1267.00585,0.00344
1264.94568,0.00352
1262.88551,0.00346
1260.82534,0.00332
1258.76516,0.00326
1256.70499,0.00320
1254.64482,0.00313
1252.58465,0.00324
1250.52447,0.00345
1248.46430,0.00352
1246.40413,0.00352
1244.34396,0.00354
1242.28379,0.00344
1240.22361,0.00322
1238.16344,0.00311
1236.10327,0.00308
1234.04310,0.00295
1231.98293,0.00278
1229.92275,0.00270
1227.86258,0.00264
1225.80241,0.00253
1223.74224,0.00250
1221.68207,0.00254
1219.62189,0.00247
1217.56172,0.00228
1215.50155,0.00222
1213.44138,0.00229
1211.38120,0.00221
1209.32103,0.00202
1207.26086,0.00193
1205.20069,0.00190
1203.14052,0.00181
1201.08034,0.00178
1199.02017,0.00191
1196.96000,0.00209
1194.89983,0.00209
1192.83966,0.00201
1190.77948,0.00212
1188.71931,0.00231
1186.65914,0.00245
1184.59897,0.00267
1182.53880,0.00300
1180.47862,0.00337
1178.41845,0.00385
1176.35828,0.00443
1174.29811,0.00501
1172.23793,0.00542
1170.17776,0.00563
1168.11759,0.00585
1166.05742,0.00623
1163.99725,0.00670
1161.93707,0.00715
1159.87690,0.00758
1157.81673,0.00795
1155.75656,0.00817
1153.69639,0.00845
1151.63621,0.00896
1149.57604,0.00951
1147.51587,0.01001
1145.45570,0.01044
1143.39552,0.01082
1141.33535,0.01124
1139.27518,0.01181
1137.21501,0.01245
1135.15484,0.01299
1133.09466,0.01348
1131.03449,0.01406
1128.97432,0.01463
1126.91415,0.01513
1124.85398,0.01574
1122.79380,0.01639
1120.73363,0.01688
1118.67346,0.01741
1116.61329,0.01816
1114.55312,0.01897
1112.49294,0.01977
1110.43277,0.02042
1108.37260,0.02081
1106.31243,0.02111
1104.25225,0.02159
1102.19208,0.02231
1100.13191,0.02303
1098.07174,0.02360
1096.01157,0.02421
1093.95139,0.02480
1091.89122,0.02524
1089.83105,0.02565
1087.77088,0.02606
1085.71071,0.02641
1083.65053,0.02681
1081.59036,0.02740
1079.53019,0.02796
1077.47002,0.02830
1075.40985,0.02864
1073.34967,0.02901
1071.28950,0.02912
1069.22933,0.02901
1067.16916,0.02899
1065.10898,0.02903
1063.04881,0.02894
1060.98864,0.02871
1058.92847,0.02839
1056.86830,0.02807
1054.80812,0.02785
1052.74795,0.02763
1050.68778,0.02732
1048.62761,0.02694
1046.56744,0.02630
1044.50726,0.02555
1042.44709,0.02503
1040.38692,0.02463
1038.32675,0.02398
1036.26657,0.02317
1034.20640,0.02258
1032.14623,0.02218
1030.08606,0.02169
1028.02589,0.02110
1025.96571,0.02055
1023.90554,0.02012
1021.84537,0.01971
1019.78520,0.01911
1017.72503,0.01856
1015.66485,0.01819
1013.60468,0.01784
1011.54451,0.01767
1009.48434,0.01767
1007.42417,0.01766
1005.36399,0.01780
1003.30382,0.01804
1001.24365,0.01811
999.18348,0.01818
997.12330,0.01849
995.06313,0.01900
993.00296,0.01946
990.94279,0.01983
988.88262,0.02012
986.82244,0.02032
984.76227,0.02063
982.70210,0.02103
980.64193,0.02122
978.58176,0.02092
976.52158,0.02023
974.46141,0.01971
972.40124,0.01937
970.34107,0.01865
968.28089,0.01767
966.22072,0.01692
964.16055,0.01635
962.10038,0.01574
960.04021,0.01506
957.98003,0.01448
955.91986,0.01412
953.85969,0.01380
951.79952,0.01331
949.73935,0.01283
947.67917,0.01253
945.61900,0.01238
943.55883,0.01215
941.49866,0.01180
939.43849,0.01151
937.37831,0.01146
935.31814,0.01166
933.25797,0.01169
931.19780,0.01132
929.13762,0.01095
927.07745,0.01088
925.01728,0.01092
922.95711,0.01084
920.89694,0.01066
918.83676,0.01047
916.77659,0.01017
914.71642,0.00986
912.65625,0.00973
910.59608,0.00972
908.53590,0.00957
906.47573,0.00946
904.41556,0.00962
902.35539,0.00970
900.29522,0.00953
898.23504,0.00944
896.17487,0.00962
894.11470,0.00972
892.05453,0.00962
889.99435,0.00957
887.93418,0.00972
885.87401,0.00998
883.81384,0.01010
881.75367,0.01011
879.69349,0.01014
877.63332,0.01022
875.57315,0.01062
873.51298,0.01123
871.45281,0.01136
869.39263,0.01114
867.33246,0.01108
865.27229,0.01132
863.21212,0.01185
861.15194,0.01228
859.09177,0.01226
857.03160,0.01174
854.97143,0.01107
852.91126,0.01062
850.85108,0.01046
848.79091,0.01057
846.73074,0.01087
844.67057,0.01095
842.61040,0.01044
840.55022,0.00967
838.49005,0.00931
836.42988,0.00933
834.36971,0.00925
832.30954,0.00876
830.24936,0.00796
828.18919,0.00745
826.12902,0.00756
824.06885,0.00773
822.00867,0.00774
819.94850,0.00783
817.88833,0.00754
815.82816,0.00690
813.76799,0.00668
811.70781,0.00671
809.64764,0.00656
807.58747,0.00618
805.52730,0.00592
803.46713,0.00595
801.40695,0.00596
799.34678,0.00587
797.28661,0.00599
795.22644,0.00630
793.16627,0.00643
791.10609,0.00633
789.04592,0.00611
786.98575,0.00585
784.92558,0.00574
782.86540,0.00590
780.80523,0.00614
778.74506,0.00600
776.68489,0.00546
774.62472,0.00516
772.56454,0.00519
770.50437,0.00534
768.44420,0.00559
766.38403,0.00578
764.32386,0.00568
762.26368,0.00526
760.20351,0.00489
758.14334,0.00478
756.08317,0.00503
754.02299,0.00526
751.96282,0.00485
749.90265,0.00431
747.84248,0.00406
745.78231,0.00408
743.72213,0.00436
741.66196,0.00449
739.60179,0.00477
737.54162,0.00524
735.48145,0.00527
733.42127,0.00511
731.36110,0.00522
729.30093,0.00543
727.24076,0.00547
725.18059,0.00544
723.12041,0.00518
721.06024,0.00494
719.00007,0.00470
716.93990,0.00485
714.87972,0.00534
712.81955,0.00528
710.75938,0.00449
708.69921,0.00390
706.63904,0.00410
704.57886,0.00477
702.51869,0.00524
700.45852,0.00514
698.39835,0.00460
696.33818,0.00390
694.27800,0.00314
692.21783,0.00241
690.15766,0.00211
688.09749,0.00242
686.03731,0.00294
683.97714,0.00345
681.91697,0.00406
679.85680,0.00436
677.79663,0.00417
675.73645,0.00427
673.67628,0.00411
671.61611,0.00291
669.55594,0.00364
667.49577,0.00560
665.43559,0.00450
663.37542,0.00544
661.31525,0.00548
659.25508,0.00445
657.19491,0.00386
655.13473,0.00390
653.07456,0.00406
651.01439,0.00407
648.95422,0.00422
646.89404,0.00479
644.83387,0.00542
642.77370,0.00517
640.71353,0.00431
638.65336,0.00364
636.59318,0.00348
634.53301,0.00411
632.47284,0.00474
630.41267,0.00391
628.35250,0.00261
626.29232,0.00294
624.23215,0.00407
622.17198,0.00473
620.11181,0.00424
618.05164,0.00255
615.99146,0.00216
613.93129,0.00371
611.87112,0.00525
609.81095,0.00499
607.75077,0.00305
605.69060,0.00049
603.63043,0.00000
601.57026,0.00072
599.51009,0.00000
