3996.73391,0.00083
3994.67373,0.00076
3992.61356,0.00076
3990.55339,0.00056
3988.49322,0.00022
3986.43305,0.00000
3984.37287,0.00012
3982.31270,0.00031
3980.25253,0.00026
3978.19236,0.00030
3976.13219,0.00058
3974.07201,0.00087
3972.01184,0.00106
3969.95167,0.00112
3967.89150,0.00110
3965.83133,0.00111
3963.77115,0.00109
3961.71098,0.00106
3959.65081,0.00109
3957.59064,0.00104
3955.53046,0.00082
3953.47029,0.00063
3951.41012,0.00069
3949.34995,0.00098
3947.28978,0.00118
3945.22960,0.00109
3943.16943,0.00092
3941.10926,0.00075
3939.04909,0.00054
3936.98892,0.00057
3934.92874,0.00090
3932.86857,0.00121
3930.80840,0.00130
3928.74823,0.00123
3926.68805,0.00110
3924.62788,0.00084
3922.56771,0.00056
3920.50754,0.00047
3918.44737,0.00050
3916.38719,0.00049
3914.32702,0.00051
3912.26685,0.00064
3910.20668,0.00086
3908.14651,0.00115
3906.08633,0.00128
3904.02616,0.00113
3901.96599,0.00101
3899.90582,0.00117
3897.84565,0.00129
3895.78547,0.00133
3893.72530,0.00160
3891.66513,0.00192
3889.60496,0.00185
3887.54478,0.00148
3885.48461,0.00117
3883.42444,0.00096
3881.36427,0.00064
3879.30410,0.00033
3877.24392,0.00046
3875.18375,0.00095
3873.12358,0.00136
3871.06341,0.00135
3869.00324,0.00082
3866.94306,0.00030
3864.88289,0.00041
3862.82272,0.00088
3860.76255,0.00109
3858.70237,0.00124
3856.64220,0.00164
3854.58203,0.00202
3852.52186,0.00189
3850.46169,0.00148
3848.40151,0.00120
3846.34134,0.00107
3844.28117,0.00104
3842.22100,0.00111
3840.16083,0.00125
3838.10065,0.00133
3836.04048,0.00121
3833.98031,0.00098
3831.92014,0.00092
3829.85997,0.00116
3827.79979,0.00147
3825.73962,0.00152
3823.67945,0.00138
3821.61928,0.00125
3819.55910,0.00108
3817.49893,0.00087
3815.43876,0.00066
3813.37859,0.00062
3811.31842,0.00090
3809.25824,0.00121
3807.19807,0.00133
3805.13790,0.00132
3803.07773,0.00125
3801.01756,0.00120
3798.95738,0.00120
3796.89721,0.00117
3794.83704,0.00117
3792.77687,0.00123
3790.71670,0.00131
3788.65652,0.00130
3786.59635,0.00102
3784.53618,0.00072
3782.47601,0.00082
3780.41583,0.00110
3778.35566,0.00105
3776.29549,0.00079
3774.23532,0.00072
3772.17515,0.00083
3770.11497,0.00095
3768.05480,0.00118
3765.99463,0.00151
3763.93446,0.00161
3761.87429,0.00142
3759.81411,0.00106
3757.75394,0.00052
3755.69377,0.00005
3753.63360,0.00042
3751.57342,0.00187
3749.51325,0.00309
3747.45308,0.00299
3745.39291,0.00232
3743.33274,0.00169
3741.27256,0.00111
3739.21239,0.00067
3737.15222,0.00065
3735.09205,0.00104
3733.03188,0.00141
3730.97170,0.00136
3728.91153,0.00121
3726.85136,0.00129
3724.79119,0.00139
3722.73102,0.00126
3720.67084,0.00120
3718.61067,0.00138
3716.55050,0.00155
3714.49033,0.00151
3712.43015,0.00119
3710.36998,0.00077
3708.30981,0.00089
3706.24964,0.00145
3704.18947,0.00186
3702.12929,0.00186
3700.06912,0.00156
3698.00895,0.00124
3695.94878,0.00112
3693.88861,0.00119
3691.82843,0.00127
3689.76826,0.00143
3687.70809,0.00165
3685.64792,0.00168
3683.58775,0.00148
3681.52757,0.00110
3679.46740,0.00062
3677.40723,0.00052
3675.34706,0.00105
3673.28688,0.00154
3671.22671,0.00148
3669.16654,0.00121
3667.10637,0.00117
3665.04620,0.00142
3662.98602,0.00182
3660.92585,0.00210
3658.86568,0.00221
3656.80551,0.00234
3654.74534,0.00240
3652.68516,0.00217
3650.62499,0.00191
3648.56482,0.00203
3646.50465,0.00253
3644.44447,0.00319
3642.38430,0.00372
3640.32413,0.00397
3638.26396,0.00422
3636.20379,0.00472
3634.14361,0.00523
3632.08344,0.00542
3630.02327,0.00549
3627.96310,0.00569
3625.90293,0.00589
3623.84275,0.00593
3621.78258,0.00584
3619.72241,0.00600
3617.66224,0.00646
3615.60207,0.00668
3613.54189,0.00666
3611.48172,0.00671
3609.42155,0.00702
3607.36138,0.00757
3605.30120,0.00808
3603.24103,0.00840
3601.18086,0.00852
3599.12069,0.00856
3597.06052,0.00873
3595.00034,0.00901
3592.94017,0.00919
3590.88000,0.00924
3588.81983,0.00954
3586.75966,0.01014
3584.69948,0.01047
3582.63931,0.01031
3580.57914,0.01015
3578.51897,0.01035
3576.45879,0.01068
3574.39862,0.01083
3572.33845,0.01090
3570.27828,0.01108
3568.21811,0.01153
3566.15793,0.01234
3564.09776,0.01304
3562.03759,0.01320
3559.97742,0.01312
3557.91725,0.01312
3555.85707,0.01320
3553.79690,0.01338
3551.73673,0.01351
3549.67656,0.01365
3547.61639,0.01421
3545.55621,0.01504
3543.49604,0.01546
3541.43587,0.01540
3539.37570,0.01536
3537.31552,0.01566
3535.25535,0.01613
3533.19518,0.01637
3531.13501,0.01639
3529.07484,0.01652
3527.01466,0.01685
3524.95449,0.01706
3522.89432,0.01697
3520.83415,0.01682
3518.77398,0.01686
3516.71380,0.01709
3514.65363,0.01732
3512.59346,0.01746
3510.53329,0.01750
3508.47312,0.01740
3506.41294,0.01754
3504.35277,0.01827
3502.29260,0.01913
3500.23243,0.01956
3498.17225,0.01982
3496.11208,0.02021
3494.05191,0.02037
3491.99174,0.02018
3489.93157,0.02022
3487.87139,0.02067
3485.81122,0.02106
3483.75105,0.02118
3481.69088,0.02126
3479.63071,0.02146
3477.57053,0.02159
3475.51036,0.02158
3473.45019,0.02144
3471.39002,0.02129
3469.32984,0.02146
3467.26967,0.02200
3465.20950,0.02259
3463.14933,0.02301
3461.08916,0.02337
3459.02898,0.02358
3456.96881,0.02350
3454.90864,0.02336
3452.84847,0.02342
3450.78830,0.02371
3448.72812,0.02418
3446.66795,0.02454
3444.60778,0.02471
3442.54761,0.02490
3440.48744,0.02500
3438.42726,0.02493
3436.36709,0.02479
3434.30692,0.02456
3432.24675,0.02438
3430.18657,0.02445
3428.12640,0.02469
3426.06623,0.02518
3424.00606,0.02575
3421.94589,0.02606
3419.88571,0.02610
3417.82554,0.02595
3415.76537,0.02562
3413.70520,0.02544
3411.64503,0.02560
3409.58485,0.02590
3407.52468,0.02607
3405.46451,0.02622
3403.40434,0.02651
3401.34416,0.02677
3399.28399,0.02692
3397.22382,0.02703
3395.16365,0.02687
3393.10348,0.02657
3391.04330,0.02668
3388.98313,0.02714
3386.92296,0.02738
3384.86279,0.02734
3382.80262,0.02732
3380.74244,0.02744
3378.68227,0.02770
3376.62210,0.02787
3374.56193,0.02798
3372.50176,0.02817
3370.44158,0.02819
3368.38141,0.02805
3366.32124,0.02804
3364.26107,0.02805
3362.20089,0.02803
3360.14072,0.02829
3358.08055,0.02867
3356.02038,0.02878
3353.96021,0.02871
3351.90003,0.02864
3349.83986,0.02861
3347.77969,0.02850
3345.71952,0.02826
3343.65935,0.02810
3341.59917,0.02816
3339.53900,0.02831
3337.47883,0.02843
3335.41866,0.02860
3333.35849,0.02878
3331.29831,0.02897
3329.23814,0.02909
3327.17797,0.02889
3325.11780,0.02861
3323.05762,0.02859
3320.99745,0.02865
3318.93728,0.02859
3316.87711,0.02865
3314.81694,0.02879
3312.75676,0.02866
3310.69659,0.02844
3308.63642,0.02855
3306.57625,0.02896
3304.51608,0.02926
3302.45590,0.02937
3300.39573,0.02948
3298.33556,0.02957
3296.27539,0.02941
3294.21521,0.02903
3292.15504,0.02878
3290.09487,0.02875
3288.03470,0.02871
3285.97453,0.02863
3283.91435,0.02870
3281.85418,0.02882
3279.79401,0.02890
3277.73384,0.02911
3275.67367,0.02934
3273.61349,0.02939
3271.55332,0.02953
3269.49315,0.02968
3267.43298,0.02954
3265.37281,0.02929
3263.31263,0.02904
3261.25246,0.02879
3259.19229,0.02874
3257.13212,0.02891
3255.07194,0.02894
3253.01177,0.02870
3250.95160,0.02851
3248.89143,0.02867
3246.83126,0.02898
3244.77108,0.02925
3242.71091,0.02950
3240.65074,0.02952
3238.59057,0.02938
3236.53040,0.02929
3234.47022,0.02917
3232.41005,0.02912
3230.34988,0.02917
3228.28971,0.02903
3226.22954,0.02889
3224.16936,0.02897
3222.10919,0.02904
3220.04902,0.02906
3217.98885,0.02896
3215.92867,0.02865
3213.86850,0.02841
3211.80833,0.02836
3209.74816,0.02840
3207.68799,0.02852
3205.62781,0.02861
3203.56764,0.02861
3201.50747,0.02868
3199.44730,0.02879
3197.38713,0.02867
3195.32695,0.02836
3193.26678,0.02810
3191.20661,0.02802
3189.14644,0.02802
3187.08626,0.02795
3185.02609,0.02791
3182.96592,0.02789
3180.90575,0.02771
3178.84558,0.02754
3176.78540,0.02756
3174.72523,0.02760
3172.66506,0.02760
3170.60489,0.02746
3168.54472,0.02726
3166.48454,0.02740
3164.42437,0.02749
3162.36420,0.02708
3160.30403,0.02663
3158.24386,0.02649
3156.18368,0.02644
3154.12351,0.02648
3152.06334,0.02685
3150.00317,0.02717
3147.94299,0.02705
3145.88282,0.02674
3143.82265,0.02654
3141.76248,0.02642
3139.70231,0.02641
3137.64213,0.02651
3135.58196,0.02664
3133.52179,0.02661
3131.46162,0.02628
3129.40145,0.02587
3127.34127,0.02556
3125.28110,0.02529
3123.22093,0.02516
3121.16076,0.02514
3119.10058,0.02514
3117.04041,0.02522
3114.98024,0.02524
3112.92007,0.02503
3110.85990,0.02476
3108.79972,0.02448
3106.73955,0.02429
3104.67938,0.02422
3102.61921,0.02406
3100.55904,0.02383
3098.49886,0.02375
3096.43869,0.02368
3094.37852,0.02337
3092.31835,0.02311
3090.25818,0.02322
3088.19800,0.02337
3086.13783,0.02322
3084.07766,0.02293
3082.01749,0.02267
3079.95731,0.02253
3077.89714,0.02262
3075.83697,0.02277
3073.77680,0.02268
3071.71663,0.02255
3069.65645,0.02254
3067.59628,0.02262
3065.53611,0.02268
3063.47594,0.02242
3061.41577,0.02191
3059.35559,0.02159
3057.29542,0.02156
3055.23525,0.02160
3053.17508,0.02162
3051.11491,0.02161
3049.05473,0.02156
3046.99456,0.02142
3044.93439,0.02131
3042.87422,0.02127
3040.81404,0.02108
3038.75387,0.02080
3036.69370,0.02063
3034.63353,0.02040
3032.57336,0.02008
3030.51318,0.01987
3028.45301,0.01979
3026.39284,0.01974
3024.33267,0.01960
3022.27250,0.01943
3020.21232,0.01927
3018.15215,0.01901
3016.09198,0.01883
3014.03181,0.01893
3011.97163,0.01895
3009.91146,0.01870
3007.85129,0.01852
3005.79112,0.01851
3003.73095,0.01842
3001.67077,0.01839
2999.61060,0.01850
2997.55043,0.01835
2995.49026,0.01795
2993.43009,0.01779
2991.36991,0.01792
2989.30974,0.01796
2987.24957,0.01782
2985.18940,0.01783
2983.12923,0.01780
2981.06905,0.01749
2979.00888,0.01732
2976.94871,0.01743
2974.88854,0.01750
2972.82836,0.01726
2970.76819,0.01696
2968.70802,0.01685
2966.64785,0.01686
2964.58768,0.01691
2962.52750,0.01689
2960.46733,0.01669
2958.40716,0.01648
2956.34699,0.01647
2954.28682,0.01655
2952.22664,0.01659
2950.16647,0.01680
2948.10630,0.01696
2946.04613,0.01682
2943.98596,0.01675
2941.92578,0.01686
2939.86561,0.01676
2937.80544,0.01645
2935.74527,0.01633
2933.68509,0.01637
2931.62492,0.01633
2929.56475,0.01612
2927.50458,0.01592
2925.44441,0.01594
2923.38423,0.01602
2921.32406,0.01599
2919.26389,0.01589
2917.20372,0.01574
2915.14355,0.01555
2913.08337,0.01539
2911.02320,0.01540
2908.96303,0.01541
2906.90286,0.01527
2904.84268,0.01519
2902.78251,0.01517
2900.72234,0.01512
2898.66217,0.01511
2896.60200,0.01514
2894.54182,0.01515
2892.48165,0.01522
2890.42148,0.01542
2888.36131,0.01548
2886.30114,0.01543
2884.24096,0.01553
2882.18079,0.01560
2880.12062,0.01547
2878.06045,0.01524
2876.00028,0.01499
2873.94010,0.01482
2871.87993,0.01478
2869.81976,0.01463
2867.75959,0.01439
2865.69941,0.01428
2863.63924,0.01429
2861.57907,0.01428
2859.51890,0.01418
2857.45873,0.01405
2855.39855,0.01400
2853.33838,0.01400
2851.27821,0.01382
2849.21804,0.01354
2847.15787,0.01342
2845.09769,0.01332
2843.03752,0.01331
2840.97735,0.01362
2838.91718,0.01384
2836.85700,0.01356
2834.79683,0.01314
2832.73666,0.01298
2830.67649,0.01298
2828.61632,0.01301
2826.55614,0.01300
2824.49597,0.01289
2822.43580,0.01275
2820.37563,0.01270
2818.31546,0.01278
2816.25528,0.01295
2814.19511,0.01299
2812.13494,0.01278
2810.07477,0.01250
2808.01460,0.01234
2805.95442,0.01228
2803.89425,0.01224
2801.83408,0.01223
2799.77391,0.01222
2797.71373,0.01209
2795.65356,0.01188
2793.59339,0.01173
2791.53322,0.01168
2789.47305,0.01171
2787.41287,0.01169
2785.35270,0.01148
2783.29253,0.01128
2781.23236,0.01145
2779.17219,0.01185
2777.11201,0.01187
2775.05184,0.01152
2772.99167,0.01133
2770.93150,0.01129
2768.87133,0.01121
2766.81115,0.01124
2764.75098,0.01136
2762.69081,0.01131
2760.63064,0.01107
2758.57046,0.01088
2756.51029,0.01093
2754.45012,0.01111
2752.38995,0.01116
2750.32978,0.01101
2748.26960,0.01078
2746.20943,0.01065
2744.14926,0.01063
2742.08909,0.01072
2740.02892,0.01085
2737.96874,0.01084
2735.90857,0.01066
2733.84840,0.01045
2731.78823,0.01042
2729.72805,0.01045
2727.66788,0.01034
2725.60771,0.01023
2723.54754,0.01029
2721.48737,0.01038
2719.42719,0.01030
2717.36702,0.01006
2715.30685,0.00992
2713.24668,0.00990
2711.18651,0.00982
2709.12633,0.00972
2707.06616,0.00963
2705.00599,0.00956
2702.94582,0.00964
2700.88565,0.00982
2698.82547,0.00988
2696.76530,0.00974
2694.70513,0.00955
2692.64496,0.00947
2690.58478,0.00948
2688.52461,0.00949
2686.46444,0.00936
2684.40427,0.00909
2682.34410,0.00900
2680.28392,0.00907
2678.22375,0.00899
2676.16358,0.00878
2674.10341,0.00876
2672.04324,0.00884
2669.98306,0.00879
2667.92289,0.00861
2665.86272,0.00848
2663.80255,0.00852
2661.74238,0.00860
2659.68220,0.00861
2657.62203,0.00864
2655.56186,0.00868
2653.50169,0.00863
2651.44151,0.00850
2649.38134,0.00837
2647.32117,0.00835
2645.26100,0.00841
2643.20083,0.00835
2641.14065,0.00820
2639.08048,0.00811
2637.02031,0.00799
2634.96014,0.00773
2632.89997,0.00752
2630.83979,0.00750
2628.77962,0.00753
2626.71945,0.00751
2624.65928,0.00753
2622.59910,0.00772
2620.53893,0.00786
2618.47876,0.00762
2616.41859,0.00708
2614.35842,0.00669
2612.29824,0.00675
2610.23807,0.00708
2608.17790,0.00718
2606.11773,0.00690
2604.05756,0.00661
2601.99738,0.00669
2599.93721,0.00702
2597.87704,0.00728
2595.81687,0.00761
2593.75670,0.00789
2591.69652,0.00740
2589.63635,0.00658
2587.57618,0.00639
2585.51601,0.00638
2583.45583,0.00620
2581.39566,0.00629
2579.33549,0.00641
2577.27532,0.00616
2575.21515,0.00610
2573.15497,0.00635
2571.09480,0.00641
2569.03463,0.00639
2566.97446,0.00651
2564.91429,0.00652
2562.85411,0.00645
2560.79394,0.00657
2558.73377,0.00674
2556.67360,0.00673
2554.61342,0.00662
2552.55325,0.00662
2550.49308,0.00678
2548.43291,0.00676
2546.37274,0.00629
2544.31256,0.00586
2542.25239,0.00599
2540.19222,0.00630
2538.13205,0.00645
2536.07188,0.00651
2534.01170,0.00647
2531.95153,0.00646
2529.89136,0.00642
2527.83119,0.00626
2525.77102,0.00622
2523.71084,0.00647
2521.65067,0.00672
2519.59050,0.00652
2517.53033,0.00606
2515.47015,0.00609
2513.40998,0.00639
2511.34981,0.00641
2509.28964,0.00629
2507.22947,0.00622
2505.16929,0.00622
2503.10912,0.00624
2501.04895,0.00626
2498.98878,0.00625
2496.92861,0.00639
2494.86843,0.00690
2492.80826,0.00736
2490.74809,0.00757
2488.68792,0.00771
2486.62775,0.00755
2484.56757,0.00700
2482.50740,0.00668
2480.44723,0.00681
2478.38706,0.00669
2476.32688,0.00618
2474.26671,0.00614
2472.20654,0.00657
2470.14637,0.00664
2468.08620,0.00655
2466.02602,0.00677
2463.96585,0.00696
2461.90568,0.00695
2459.84551,0.00702
2457.78534,0.00720
2455.72516,0.00715
2453.66499,0.00687
2451.60482,0.00661
2449.54465,0.00651
2447.48447,0.00659
2445.42430,0.00674
2443.36413,0.00684
2441.30396,0.00694
2439.24379,0.00692
2437.18361,0.00680
2435.12344,0.00684
2433.06327,0.00693
2431.00310,0.00706
2428.94293,0.00714
2426.88275,0.00696
2424.82258,0.00677
2422.76241,0.00674
2420.70224,0.00660
2418.64207,0.00638
2416.58189,0.00621
2414.52172,0.00619
2412.46155,0.00651
2410.40138,0.00680
2408.34120,0.00670
2406.28103,0.00649
2404.22086,0.00658
2402.16069,0.00683
2400.10052,0.00689
2398.04034,0.00652
2395.98017,0.00615
2393.92000,0.00622
2391.85983,0.00677
2389.79966,0.00724
2387.73948,0.00718
2385.67931,0.00673
2383.61914,0.00636
2381.55897,0.00628
2379.49880,0.00640
2377.43862,0.00655
2375.37845,0.00687
2373.31828,0.00746
2371.25811,0.00766
2369.19793,0.00676
2367.13776,0.00542
2365.07759,0.00468
2363.01742,0.00446
2360.95725,0.00492
2358.89707,0.00642
2356.83690,0.00809
2354.77673,0.00852
2352.71656,0.00765
2350.65639,0.00674
2348.59621,0.00632
2346.53604,0.00648
2344.47587,0.00719
2342.41570,0.00787
2340.35552,0.00820
2338.29535,0.00847
2336.23518,0.00837
2334.17501,0.00782
2332.11484,0.00758
2330.05466,0.00818
2327.99449,0.00918
2325.93432,0.00965
2323.87415,0.00895
2321.81398,0.00769
2319.75380,0.00707
2317.69363,0.00726
2315.63346,0.00771
2313.57329,0.00794
2311.51312,0.00754
2309.45294,0.00681
2307.39277,0.00650
2305.33260,0.00648
2303.27243,0.00631
2301.21225,0.00620
2299.15208,0.00628
2297.09191,0.00642
2295.03174,0.00664
2292.97157,0.00671
2290.91139,0.00656
2288.85122,0.00658
2286.79105,0.00666
2284.73088,0.00635
2282.67071,0.00593
2280.61053,0.00574
2278.55036,0.00562
2276.49019,0.00552
2274.43002,0.00568
2272.36984,0.00597
2270.30967,0.00603
2268.24950,0.00589
2266.18933,0.00565
2264.12916,0.00551
2262.06898,0.00572
2260.00881,0.00599
2257.94864,0.00612
2255.88847,0.00648
2253.82830,0.00694
2251.76812,0.00692
2249.70795,0.00639
2247.64778,0.00576
2245.58761,0.00545
2243.52744,0.00537
2241.46726,0.00535
2239.40709,0.00555
2237.34692,0.00562
2235.28675,0.00518
2233.22657,0.00469
2231.16640,0.00432
2229.10623,0.00346
2227.04606,0.00270
2224.98589,0.00335
2222.92571,0.00472
2220.86554,0.00532
2218.80537,0.00505
2216.74520,0.00452
2214.68503,0.00405
2212.62485,0.00373
2210.56468,0.00407
2208.50451,0.00496
2206.44434,0.00491
2204.38417,0.00366
2202.32399,0.00299
2200.26382,0.00329
2198.20365,0.00355
2196.14348,0.00373
2194.08330,0.00381
2192.02313,0.00361
2189.96296,0.00322
2187.90279,0.00285
2185.84262,0.00286
2183.78244,0.00299
2181.72227,0.00337
2179.66210,0.00409
2177.60193,0.00398
2175.54176,0.00313
2173.48158,0.00275
2171.42141,0.00320
2169.36124,0.00397
2167.30107,0.00473
2165.24089,0.00556
2163.18072,0.00523
2161.12055,0.00337
2159.06038,0.00169
2157.00021,0.00072
2154.94003,0.00082
2152.87986,0.00271
2150.81969,0.00453
2148.75952,0.00437
2146.69935,0.00329
2144.63917,0.00300
2142.57900,0.00361
2140.51883,0.00410
2138.45866,0.00398
2136.39849,0.00350
2134.33831,0.00311
2132.27814,0.00290
2130.21797,0.00298
2128.15780,0.00335
2126.09762,0.00327
2124.03745,0.00270
2121.97728,0.00269
2119.91711,0.00318
2117.85694,0.00372
2115.79676,0.00434
2113.73659,0.00473
2111.67642,0.00500
2109.61625,0.00513
2107.55608,0.00437
2105.49590,0.00343
2103.43573,0.00359
2101.37556,0.00409
2099.31539,0.00400
2097.25521,0.00359
2095.19504,0.00353
2093.13487,0.00399
2091.07470,0.00426
2089.01453,0.00409
2086.95435,0.00384
2084.89418,0.00377
2082.83401,0.00403
2080.77384,0.00451
2078.71367,0.00487
2076.65349,0.00459
2074.59332,0.00354
2072.53315,0.00245
2070.47298,0.00237
2068.41281,0.00299
2066.35263,0.00337
2064.29246,0.00345
2062.23229,0.00348
2060.17212,0.00349
2058.11194,0.00354
2056.05177,0.00339
2053.99160,0.00300
2051.93143,0.00295
2049.87126,0.00331
2047.81108,0.00379
2045.75091,0.00400
2043.69074,0.00362
2041.63057,0.00319
2039.57040,0.00338
2037.51022,0.00350
2035.45005,0.00298
2033.38988,0.00255
2031.32971,0.00246
2029.26954,0.00305
2027.20936,0.00391
2025.14919,0.00298
2023.08902,0.00096
2021.02885,0.00047
2018.96867,0.00132
2016.90850,0.00171
2014.84833,0.00160
2012.78816,0.00190
2010.72799,0.00209
2008.66781,0.00234
2006.60764,0.00307
2004.54747,0.00320
2002.48730,0.00276
2000.42713,0.00253
1998.36695,0.00259
1996.30678,0.00267
1994.24661,0.00244
1992.18644,0.00152
1990.12626,0.00032
1988.06609,0.00047
1986.00592,0.00199
1983.94575,0.00287
1981.88558,0.00235
1979.82540,0.00153
1977.76523,0.00182
1975.70506,0.00285
1973.64489,0.00283
1971.58472,0.00247
1969.52454,0.00283
1967.46437,0.00288
1965.40420,0.00259
1963.34403,0.00220
1961.28386,0.00132
1959.22368,0.00059
1957.16351,0.00062
1955.10334,0.00104
1953.04317,0.00112
1950.98299,0.00108
1948.92282,0.00184
1946.86265,0.00250
1944.80248,0.00194
1942.74231,0.00129
1940.68213,0.00153
1938.62196,0.00211
1936.56179,0.00255
1934.50162,0.00267
1932.44145,0.00248
1930.38127,0.00207
1928.32110,0.00161
1926.26093,0.00153
1924.20076,0.00162
1922.14059,0.00123
1920.08041,0.00067
1918.02024,0.00088
1915.96007,0.00163
1913.89990,0.00178
1911.83972,0.00134
1909.77955,0.00115
1907.71938,0.00128
1905.65921,0.00131
1903.59904,0.00124
1901.53886,0.00115
1899.47869,0.00134
1897.41852,0.00209
1895.35835,0.00286
1893.29818,0.00288
1891.23800,0.00223
1889.17783,0.00160
1887.11766,0.00155
1885.05749,0.00196
1882.99731,0.00227
1880.93714,0.00225
1878.87697,0.00207
1876.81680,0.00201
1874.75663,0.00223
1872.69645,0.00258
1870.63628,0.00263
1868.57611,0.00232
1866.51594,0.00223
1864.45577,0.00245
1862.39559,0.00230
1860.33542,0.00171
1858.27525,0.00139
1856.21508,0.00158
1854.15491,0.00183
1852.09473,0.00193
1850.03456,0.00193
1847.97439,0.00189
1845.91422,0.00201
1843.85404,0.00222
1841.79387,0.00225
1839.73370,0.00210
1837.67353,0.00196
1835.61336,0.00198
1833.55318,0.00226
1831.49301,0.00266
1829.43284,0.00282
1827.37267,0.00267
1825.31250,0.00252
1823.25232,0.00247
1821.19215,0.00240
1819.13198,0.00234
1817.07181,0.00233
1815.01163,0.00236
1812.95146,0.00239
1810.89129,0.00236
1808.83112,0.00231
1806.77095,0.00229
1804.71077,0.00230
1802.65060,0.00232
1800.59043,0.00237
1798.53026,0.00247
1796.47009,0.00269
1794.40991,0.00319
1792.34974,0.00376
1790.28957,0.00379
1788.22940,0.00334
1786.16923,0.00298
1784.10905,0.00289
1782.04888,0.00296
1779.98871,0.00301
1777.92854,0.00291
1775.86836,0.00280
1773.80819,0.00282
1771.74802,0.00287
1769.68785,0.00287
1767.62768,0.00291
1765.56750,0.00304
1763.50733,0.00324
1761.44716,0.00343
1759.38699,0.00348
1757.32682,0.00350
1755.26664,0.00359
1753.20647,0.00376
1751.14630,0.00404
1749.08613,0.00421
1747.02596,0.00409
1744.96578,0.00388
1742.90561,0.00390
1740.84544,0.00415
1738.78527,0.00440
1736.72509,0.00443
1734.66492,0.00433
1732.60475,0.00436
1730.54458,0.00444
1728.48441,0.00444
1726.42423,0.00444
1724.36406,0.00448
1722.30389,0.00447
1720.24372,0.00453
1718.18355,0.00493
1716.12337,0.00552
1714.06320,0.00576
1712.00303,0.00564
1709.94286,0.00541
1707.88268,0.00521
1705.82251,0.00515
1703.76234,0.00520
1701.70217,0.00550
1699.64200,0.00632
1697.58182,0.00727
1695.52165,0.00773
1693.46148,0.00762
1691.40131,0.00742
1689.34114,0.00753
1687.28096,0.00796
1685.22079,0.00849
1683.16062,0.00875
1681.10045,0.00861
1679.04028,0.00847
1676.98010,0.00850
1674.91993,0.00867
1672.85976,0.00885
1670.79959,0.00898
1668.73941,0.00915
1666.67924,0.00942
1664.61907,0.00973
1662.55890,0.01003
1660.49873,0.01022
1658.43855,0.01032
1656.37838,0.01048
1654.31821,0.01075
1652.25804,0.01091
1650.19787,0.01073
1648.13769,0.01067
1646.07752,0.01090
1644.01735,0.01088
1641.95718,0.01046
1639.89701,0.01007
1637.83683,0.01013
1635.77666,0.01057
1633.71649,0.01066
1631.65632,0.01035
1629.59614,0.01013
1627.53597,0.01007
1625.47580,0.01001
1623.41563,0.00993
1621.35546,0.00982
1619.29528,0.00970
1617.23511,0.00976
1615.17494,0.00988
1613.11477,0.00969
1611.05460,0.00936
1608.99442,0.00921
1606.93425,0.00923
1604.87408,0.00921
1602.81391,0.00906
1600.75373,0.00882
1598.69356,0.00860
1596.63339,0.00844
1594.57322,0.00822
1592.51305,0.00791
1590.45287,0.00761
1588.39270,0.00741
1586.33253,0.00718
1584.27236,0.00679
1582.21219,0.00639
1580.15201,0.00621
1578.09184,0.00623
1576.03167,0.00623
1573.97150,0.00602
1571.91133,0.00585
1569.85115,0.00588
1567.79098,0.00586
1565.73081,0.00555
1563.67064,0.00508
1561.61046,0.00479
1559.55029,0.00496
1557.49012,0.00526
1555.42995,0.00501
1553.36978,0.00444
1551.30960,0.00409
1549.24943,0.00398
1547.18926,0.00383
1545.12909,0.00373
1543.06892,0.00393
1541.00874,0.00425
1538.94857,0.00404
1536.88840,0.00352
1534.82823,0.00332
1532.76805,0.00334
1530.70788,0.00327
1528.64771,0.00327
1526.58754,0.00337
1524.52737,0.00342
1522.46719,0.00341
1520.40702,0.00321
1518.34685,0.00280
1516.28668,0.00242
1514.22651,0.00232
1512.16633,0.00257
1510.10616,0.00300
1508.04599,0.00318
1505.98582,0.00290
1503.92565,0.00251
1501.86547,0.00228
1499.80530,0.00229
1497.74513,0.00247
1495.68496,0.00258
1493.62478,0.00243
1491.56461,0.00237
1489.50444,0.00250
1487.44427,0.00249
1485.38410,0.00225
1483.32392,0.00216
1481.26375,0.00231
1479.20358,0.00246
1477.14341,0.00257
1475.08324,0.00281
1473.02306,0.00304
1470.96289,0.00292
1468.90272,0.00257
1466.84255,0.00245
1464.78238,0.00265
1462.72220,0.00284
1460.66203,0.00301
1458.60186,0.00339
1456.54169,0.00371
1454.48151,0.00358
1452.42134,0.00331
1450.36117,0.00319
1448.30100,0.00312
1446.24083,0.00300
1444.18065,0.00290
1442.12048,0.00281
1440.06031,0.00271
1438.00014,0.00272
1435.93997,0.00289
1433.87979,0.00296
1431.81962,0.00294
1429.75945,0.00311
1427.69928,0.00340
1425.63910,0.00352
1423.57893,0.00343
1421.51876,0.00334
1419.45859,0.00344
1417.39842,0.00366
1415.33824,0.00376
1413.27807,0.00377
1411.21790,0.00376
1409.15773,0.00371
1407.09756,0.00360
1405.03738,0.00349
1402.97721,0.00341
1400.91704,0.00343
1398.85687,0.00357
1396.79670,0.00369
1394.73652,0.00368
1392.67635,0.00358
1390.61618,0.00351
1388.55601,0.00345
1386.49583,0.00329
1384.43566,0.00310
1382.37549,0.00309
1380.31532,0.00322
1378.25515,0.00331
1376.19497,0.00329
1374.13480,0.00320
1372.07463,0.00308
1370.01446,0.00298
1367.95429,0.00298
1365.89411,0.00308
1363.83394,0.00321
1361.77377,0.00320
1359.71360,0.00300
1357.65343,0.00277
1355.59325,0.00263
1353.53308,0.00254
1351.47291,0.00252
1349.41274,0.00256
1347.35256,0.00250
1345.29239,0.00239
1343.23222,0.00239
1341.17205,0.00245
1339.11188,0.00250
1337.05170,0.00253
1334.99153,0.00254
1332.93136,0.00251
1330.87119,0.00237
1328.81102,0.00221
1326.75084,0.00219
1324.69067,0.00232
1322.63050,0.00244
1320.57033,0.00242
1318.51015,0.00233
1316.44998,0.00232
1314.38981,0.00242
1312.32964,0.00250
1310.26947,0.00248
1308.20929,0.00240
1306.14912,0.00231
1304.08895,0.00229
1302.02878,0.00239
1299.96861,0.00261
1297.90843,0.00281
1295.84826,0.00280
1293.78809,0.00266
1291.72792,0.00262
1289.66775,0.00269
1287.60757,0.00274
1285.54740,0.00278
1283.48723,0.00286
1281.42706,0.00288
1279.36688,0.00285
1277.30671,0.00286
1275.24654,0.00291
1273.18637,0.00300
1271.12620,0.00311
1269.06602,0.00317
1267.00585,0.00310
1264.94568,0.00297
1262.88551,0.00295
1260.82534,0.00305
1258.76516,0.00313
1256.70499,0.00316
1254.64482,0.00321
1252.58465,0.00326
1250.52447,0.00320
1248.46430,0.00305
1246.40413,0.00293
1244.34396,0.00293
1242.28379,0.00288
1240.22361,0.00271
1238.16344,0.00256
1236.10327,0.00253
1234.04310,0.00255
1231.98293,0.00255
1229.92275,0.00252
1227.86258,0.00240
1225.80241,0.00219
1223.74224,0.00197
1221.68207,0.00183
1219.62189,0.00174
1217.56172,0.00165
1215.50155,0.00160
1213.44138,0.00167
1211.38120,0.00173
1209.32103,0.00166
1207.26086,0.00156
1205.20069,0.00146
1203.14052,0.00131
1201.08034,0.00129
1199.02017,0.00153
1196.96000,0.00176
1194.89983,0.00178
1192.83966,0.00180
1190.77948,0.00195
1188.71931,0.00215
1186.65914,0.00245
1184.59897,0.00281
1182.53880,0.00310
1180.47862,0.00347
1178.41845,0.00403
1176.35828,0.00458
1174.29811,0.00500
1172.23793,0.00539
1170.17776,0.00583
1168.11759,0.00637
1166.05742,0.00698
1163.99725,0.00749
1161.93707,0.00787
1159.87690,0.00824
1157.81673,0.00865
1155.75656,0.00901
1153.69639,0.00943
1151.63621,0.01003
1149.57604,0.01066
1147.51587,0.01120
1145.45570,0.01175
1143.39552,0.01227
1141.33535,0.01283
1139.27518,0.01353
1137.21501,0.01424
1135.15484,0.01484
1133.09466,0.01537
1131.03449,0.01605
1128.97432,0.01684
1126.91415,0.01753
1124.85398,0.01819
1122.79380,0.01884
1120.73363,0.01925
1118.67346,0.01972
1116.61329,0.02062
1114.55312,0.02157
1112.49294,0.02231
1110.43277,0.02313
1108.37260,0.02399
1106.31243,0.02460
1104.25225,0.02514
1102.19208,0.02586
1100.13191,0.02652
1098.07174,0.02704
1096.01157,0.02761
1093.95139,0.02815
1091.89122,0.02860
1089.83105,0.02909
1087.77088,0.02968
1085.71071,0.03031
1083.65053,0.03101
1081.59036,0.03181
1079.53019,0.03234
1077.47002,0.03248
1075.40985,0.03263
1073.34967,0.03300
1071.28950,0.03325
1069.22933,0.03324
1067.16916,0.03321
1065.10898,0.03325
1063.04881,0.03331
1060.98864,0.03320
1058.92847,0.03279
1056.86830,0.03226
1054.80812,0.03173
1052.74795,0.03120
1050.68778,0.03066
1048.62761,0.03009
1046.56744,0.02944
1044.50726,0.02889
1042.44709,0.02852
1040.38692,0.02807
1038.32675,0.02729
1036.26657,0.02631
1034.20640,0.02546
1032.14623,0.02495
1030.08606,0.02456
1028.02589,0.02384
1025.96571,0.02290
1023.90554,0.02222
1021.84537,0.02180
1019.78520,0.02138
1017.72503,0.02103
1015.66485,0.02069
1013.60468,0.02019
1011.54451,0.01970
1009.48434,0.01935
1007.42417,0.01928
1005.36399,0.01950
1003.30382,0.01969
1001.24365,0.01987
999.18348,0.02025
997.12330,0.02082
995.06313,0.02141
993.00296,0.02183
990.94279,0.02212
988.88262,0.02231
986.82244,0.02234
984.76227,0.02238
982.70210,0.02253
980.64193,0.02252
978.58176,0.02203
976.52158,0.02135
974.46141,0.02088
972.40124,0.02041
970.34107,0.01966
968.28089,0.01863
966.22072,0.01752
964.16055,0.01673
962.10038,0.01620
960.04021,0.01552
957.98003,0.01484
955.91986,0.01440
953.85969,0.01411
951.79952,0.01371
949.73935,0.01319
947.67917,0.01276
945.61900,0.01244
943.55883,0.01212
941.49866,0.01177
939.43849,0.01144
937.37831,0.01131
935.31814,0.01140
933.25797,0.01130
931.19780,0.01094
929.13762,0.01073
927.07745,0.01077
925.01728,0.01086
922.95711,0.01073
920.89694,0.01036
918.83676,0.00999
916.77659,0.00967
914.71642,0.00944
912.65625,0.00921
910.59608,0.00882
908.53590,0.00856
906.47573,0.00865
904.41556,0.00892
902.35539,0.00912
900.29522,0.00905
898.23504,0.00886
896.17487,0.00888
894.11470,0.00924
892.05453,0.00971
889.99435,0.00991
887.93418,0.00995
885.87401,0.00991
883.81384,0.00967
881.75367,0.00964
879.69349,0.01007
877.63332,0.01044
875.57315,0.01059
873.51298,0.01092
871.45281,0.01128
869.39263,0.01145
867.33246,0.01146
865.27229,0.01138
863.21212,0.01154
861.15194,0.01187
859.09177,0.01189
857.03160,0.01161
854.97143,0.01120
852.91126,0.01081
850.85108,0.01062
848.79091,0.01047
846.73074,0.01002
844.67057,0.00968
842.61040,0.00964
840.55022,0.00928
838.49005,0.00855
836.42988,0.00819
834.36971,0.00832
832.30954,0.00822
830.24936,0.00763
828.18919,0.00697
826.12902,0.00674
824.06885,0.00670
822.00867,0.00654
819.94850,0.00661
817.88833,0.00643
815.82816,0.00568
813.76799,0.00544
811.70781,0.00576
809.64764,0.00561
807.58747,0.00508
805.52730,0.00493
803.46713,0.00517
801.40695,0.00527
799.34678,0.00507
797.28661,0.00488
795.22644,0.00513
793.16627,0.00555
791.10609,0.00557
789.04592,0.00524
786.98575,0.00513
784.92558,0.00527
782.86540,0.00543
780.80523,0.00564
778.74506,0.00540
776.68489,0.00478
774.62472,0.00444
772.56454,0.00412
770.50437,0.00396
768.44420,0.00451
766.38403,0.00536
764.32386,0.00575
762.26368,0.00545
760.20351,0.00493
758.14334,0.00475
756.08317,0.00484
754.02299,0.00457
751.96282,0.00381
749.90265,0.00362
747.84248,0.00432
745.78231,0.00499
743.72213,0.00513
741.66196,0.00473
739.60179,0.00401
737.54162,0.00364
735.48145,0.00393
733.42127,0.00425
731.36110,0.00434
729.30093,0.00443
727.24076,0.00443
725.18059,0.00456
723.12041,0.00464
721.06024,0.00427
719.00007,0.00372
716.93990,0.00342
714.87972,0.00379
712.81955,0.00466
710.75938,0.00512
708.69921,0.00494
706.63904,0.00481
704.57886,0.00493
702.51869,0.00495
700.45852,0.00478
698.39835,0.00448
696.33818,0.00405
694.27800,0.00356
692.21783,0.00307
690.15766,0.00283
688.09749,0.00299
686.03731,0.00332
683.97714,0.00385
681.91697,0.00467
679.85680,0.00496
677.79663,0.00451
675.73645,0.00441
673.67628,0.00457
671.61611,0.00397
669.55594,0.00319
667.49577,0.00379
665.43559,0.00509
663.37542,0.00556
661.31525,0.00517
659.25508,0.00484
657.19491,0.00468
655.13473,0.00413
653.07456,0.00333
651.01439,0.00305
648.95422,0.00381
646.89404,0.00518
644.83387,0.00598
642.77370,0.00549
640.71353,0.00485
638.65336,0.00516
636.59318,0.00527
634.53301,0.00428
632.47284,0.00265
630.41267,0.00117
628.35250,0.00080
626.29232,0.00164
624.23215,0.00286
622.17198,0.00308
620.11181,0.00283
618.05164,0.00286
615.99146,0.00337
613.93129,0.00421
611.87112,0.00420
609.81095,0.00341
607.75077,0.00262
605.69060,0.00092
603.63043,0.00000
601.57026,0.00051
599.51009,0.00000
