3996.73391,0.00013
3994.67373,0.00014
3992.61356,0.00017
3990.55339,0.00024
3988.49322,0.00025
3986.43305,0.00009
3984.37287,0.00000
3982.31270,0.00012
3980.25253,0.00014
3978.19236,0.00031
3976.13219,0.00065
3974.07201,0.00066
3972.01184,0.00053
3969.95167,0.00065
3967.89150,0.00089
3965.83133,0.00103
3963.77115,0.00096
3961.71098,0.00073
3959.65081,0.00074
3957.59064,0.00112
3955.53046,0.00115
3953.47029,0.00072
3951.41012,0.00059
3949.34995,0.00096
3947.28978,0.00117
3945.22960,0.00120
3943.16943,0.00121
3941.10926,0.00087
3939.04909,0.00060
3936.98892,0.00048
3934.92874,0.00061
3932.86857,0.00129
3930.80840,0.00170
3928.74823,0.00152
3926.68805,0.00149
3924.62788,0.00133
3922.56771,0.00073
3920.50754,0.00082
3918.44737,0.00152
3916.38719,0.00160
3914.32702,0.00112
3912.26685,0.00102
3910.20668,0.00103
3908.14651,0.00105
3906.08633,0.00160
3904.02616,0.00190
3901.96599,0.00142
3899.90582,0.00100
3897.84565,0.00028
3895.78547,0.00009
3893.72530,0.00150
3891.66513,0.00260
3889.60496,0.00168
3887.54478,0.00139
3885.48461,0.00182
3883.42444,0.00151
3881.36427,0.00189
3879.30410,0.00149
3877.24392,0.00062
3875.18375,0.00095
3873.12358,0.00119
3871.06341,0.00149
3869.00324,0.00092
3866.94306,0.00024
3864.88289,0.00133
3862.82272,0.00174
3860.76255,0.00073
3858.70237,0.00005
3856.64220,0.00146
3854.58203,0.00418
3852.52186,0.00364
3850.46169,0.00090
3848.40151,0.00018
3846.34134,0.00093
3844.28117,0.00162
3842.22100,0.00170
3840.16083,0.00189
3838.10065,0.00181
3836.04048,0.00099
3833.98031,0.00078
3831.92014,0.00110
3829.85997,0.00117
3827.79979,0.00148
3825.73962,0.00147
3823.67945,0.00194
3821.61928,0.00294
3819.55910,0.00178
3817.49893,0.00143
3815.43876,0.00180
3813.37859,0.00098
3811.31842,0.00096
3809.25824,0.00202
3807.19807,0.00241
3805.13790,0.00142
3803.07773,0.00192
3801.01756,0.00245
3798.95738,0.00158
3796.89721,0.00190
3794.83704,0.00215
3792.77687,0.00215
3790.71670,0.00248
3788.65652,0.00259
3786.59635,0.00249
3784.53618,0.00221
3782.47601,0.00210
3780.41583,0.00272
3778.35566,0.00274
3776.29549,0.00202
3774.23532,0.00170
3772.17515,0.00206
3770.11497,0.00258
3768.05480,0.00251
3765.99463,0.00248
3763.93446,0.00206
3761.87429,0.00181
3759.81411,0.00194
3757.75394,0.00134
3755.69377,0.00090
3753.63360,0.00198
3751.57342,0.00339
3749.51325,0.00260
3747.45308,0.00182
3745.39291,0.00320
3743.33274,0.00251
3741.27256,0.00025
3739.21239,0.00006
3737.15222,0.00143
3735.09205,0.00231
3733.03188,0.00194
3730.97170,0.00116
3728.91153,0.00116
3726.85136,0.00203
3724.79119,0.00231
3722.73102,0.00222
3720.67084,0.00223
3718.61067,0.00216
3716.55050,0.00198
3714.49033,0.00243
3712.43015,0.00327
3710.36998,0.00270
3708.30981,0.00147
3706.24964,0.00122
3704.18947,0.00211
3702.12929,0.00290
3700.06912,0.00239
3698.00895,0.00185
3695.94878,0.00181
3693.88861,0.00179
3691.82843,0.00246
3689.76826,0.00364
3687.70809,0.00342
3685.64792,0.00221
3683.58775,0.00176
3681.52757,0.00201
3679.46740,0.00245
3677.40723,0.00332
3675.34706,0.00334
3673.28688,0.00179
3671.22671,0.00257
3669.16654,0.00346
3667.10637,0.00260
3665.04620,0.00253
3662.98602,0.00302
3660.92585,0.00316
3658.86568,0.00357
3656.80551,0.00418
3654.74534,0.00351
3652.68516,0.00351
3650.62499,0.00515
3648.56482,0.00523
3646.50465,0.00378
3644.44447,0.00363
3642.38430,0.00477
3640.32413,0.00555
3638.26396,0.00576
3636.20379,0.00579
3634.14361,0.00567
3632.08344,0.00590
3630.02327,0.00739
3627.96310,0.00746
3625.90293,0.00581
3623.84275,0.00556
3621.78258,0.00704
3619.72241,0.00896
3617.66224,0.00953
3615.60207,0.00930
3613.54189,0.00909
3611.48172,0.00866
3609.42155,0.00892
3607.36138,0.00937
3605.30120,0.00921
3603.24103,0.00927
3601.18086,0.00963
3599.12069,0.00986
3597.06052,0.01053
3595.00034,0.01122
3592.94017,0.01073
3590.88000,0.01028
3588.81983,0.01150
3586.75966,0.01255
3584.69948,0.01215
3582.63931,0.01194
3580.57914,0.01216
3578.51897,0.01236
3576.45879,0.01257
3574.39862,0.01252
3572.33845,0.01223
3570.27828,0.01266
3568.21811,0.01410
3566.15793,0.01489
3564.09776,0.01458
3562.03759,0.01455
3559.97742,0.01489
3557.91725,0.01499
3555.85707,0.01506
3553.79690,0.01543
3551.73673,0.01538
3549.67656,0.01495
3547.61639,0.01541
3545.55621,0.01639
3543.49604,0.01679
3541.43587,0.01679
3539.37570,0.01709
3537.31552,0.01778
3535.25535,0.01816
3533.19518,0.01802
3531.13501,0.01790
3529.07484,0.01800
3527.01466,0.01827
3524.95449,0.01872
3522.89432,0.01894
3520.83415,0.01875
3518.77398,0.01874
3516.71380,0.01896
3514.65363,0.01918
3512.59346,0.01938
3510.53329,0.01958
3508.47312,0.01968
3506.41294,0.02011
3504.35277,0.02103
3502.29260,0.02135
3500.23243,0.02110
3498.17225,0.02129
3496.11208,0.02178
3494.05191,0.02198
3491.99174,0.02198
3489.93157,0.02217
3487.87139,0.02255
3485.81122,0.02288
3483.75105,0.02326
3481.69088,0.02355
3479.63071,0.02350
3477.57053,0.02342
3475.51036,0.02346
3473.45019,0.02353
3471.39002,0.02374
3469.32984,0.02422
3467.26967,0.02477
3465.20950,0.02513
3463.14933,0.02552
3461.08916,0.02585
3459.02898,0.02585
3456.96881,0.02555
3454.90864,0.02540
3452.84847,0.02558
3450.78830,0.02598
3448.72812,0.02670
3446.66795,0.02709
3444.60778,0.02693
3442.54761,0.02707
3440.48744,0.02728
3438.42726,0.02743
3436.36709,0.02758
3434.30692,0.02749
3432.24675,0.02721
3430.18657,0.02704
3428.12640,0.02707
3426.06623,0.02722
3424.00606,0.02763
3421.94589,0.02822
3419.88571,0.02843
3417.82554,0.02818
3415.76537,0.02799
3413.70520,0.02813
3411.64503,0.02863
3409.58485,0.02909
3407.52468,0.02917
3405.46451,0.02908
3403.40434,0.02907
3401.34416,0.02899
3399.28399,0.02891
3397.22382,0.02897
3395.16365,0.02897
3393.10348,0.02907
3391.04330,0.02950
3388.98313,0.02993
3386.92296,0.02994
3384.86279,0.02974
3382.80262,0.02964
3380.74244,0.02973
3378.68227,0.02984
3376.62210,0.02992
3374.56193,0.03008
3372.50176,0.03024
3370.44158,0.03031
3368.38141,0.03037
3366.32124,0.03058
3364.26107,0.03085
3362.20089,0.03105
3360.14072,0.03104
3358.08055,0.03080
3356.02038,0.03074
3353.96021,0.03089
3351.90003,0.03091
3349.83986,0.03085
3347.77969,0.03071
3345.71952,0.03047
3343.65935,0.03033
3341.59917,0.03040
3339.53900,0.03042
3337.47883,0.03032
3335.41866,0.03044
3333.35849,0.03076
3331.29831,0.03098
3329.23814,0.03102
3327.17797,0.03100
3325.11780,0.03098
3323.05762,0.03094
3320.99745,0.03097
3318.93728,0.03111
3316.87711,0.03122
3314.81694,0.03128
3312.75676,0.03146
3310.69659,0.03161
3308.63642,0.03140
3306.57625,0.03102
3304.51608,0.03112
3302.45590,0.03171
3300.39573,0.03207
3298.33556,0.03187
3296.27539,0.03145
3294.21521,0.03125
3292.15504,0.03144
3290.09487,0.03158
3288.03470,0.03137
3285.97453,0.03118
3283.91435,0.03127
3281.85418,0.03143
3279.79401,0.03150
3277.73384,0.03155
3275.67367,0.03164
3273.61349,0.03173
3271.55332,0.03175
3269.49315,0.03172
3267.43298,0.03165
3265.37281,0.03143
3263.31263,0.03114
3261.25246,0.03093
3259.19229,0.03094
3257.13212,0.03117
3255.07194,0.03133
3253.01177,0.03121
3250.95160,0.03110
3248.89143,0.03116
3246.83126,0.03122
3244.77108,0.03139
3242.71091,0.03165
3240.65074,0.03175
3238.59057,0.03174
3236.53040,0.03178
3234.47022,0.03163
3232.41005,0.03143
3230.34988,0.03147
3228.28971,0.03142
3226.22954,0.03109
3224.16936,0.03083
3222.10919,0.03092
3220.04902,0.03123
3217.98885,0.03129
3215.92867,0.03116
3213.86850,0.03118
3211.80833,0.03121
3209.74816,0.03108
3207.68799,0.03083
3205.62781,0.03070
3203.56764,0.03069
3201.50747,0.03076
3199.44730,0.03094
3197.38713,0.03102
3195.32695,0.03081
3193.26678,0.03049
3191.20661,0.03031
3189.14644,0.03027
3187.08626,0.03012
3185.02609,0.02997
3182.96592,0.02997
3180.90575,0.03008
3178.84558,0.03018
3176.78540,0.03005
3174.72523,0.02985
3172.66506,0.02996
3170.60489,0.03026
3168.54472,0.03030
3166.48454,0.03011
3164.42437,0.02991
3162.36420,0.02965
3160.30403,0.02923
3158.24386,0.02880
3156.18368,0.02867
3154.12351,0.02889
3152.06334,0.02919
3150.00317,0.02911
3147.94299,0.02871
3145.88282,0.02850
3143.82265,0.02862
3141.76248,0.02885
3139.70231,0.02900
3137.64213,0.02893
3135.58196,0.02872
3133.52179,0.02844
3131.46162,0.02809
3129.40145,0.02792
3127.34127,0.02789
3125.28110,0.02774
3123.22093,0.02762
3121.16076,0.02751
3119.10058,0.02730
3117.04041,0.02710
3114.98024,0.02689
3112.92007,0.02671
3110.85990,0.02674
3108.79972,0.02680
3106.73955,0.02667
3104.67938,0.02641
3102.61921,0.02625
3100.55904,0.02614
3098.49886,0.02599
3096.43869,0.02582
3094.37852,0.02559
3092.31835,0.02549
3090.25818,0.02549
3088.19800,0.02534
3086.13783,0.02515
3084.07766,0.02508
3082.01749,0.02514
3079.95731,0.02515
3077.89714,0.02498
3075.83697,0.02471
3073.77680,0.02448
3071.71663,0.02435
3069.65645,0.02443
3067.59628,0.02461
3065.53611,0.02459
3063.47594,0.02420
3061.41577,0.02368
3059.35559,0.02348
3057.29542,0.02353
3055.23525,0.02347
3053.17508,0.02339
3051.11491,0.02330
3049.05473,0.02312
3046.99456,0.02307
3044.93439,0.02322
3042.87422,0.02320
3040.81404,0.02286
3038.75387,0.02258
3036.69370,0.02249
3034.63353,0.02228
3032.57336,0.02204
3030.51318,0.02193
3028.45301,0.02177
3026.39284,0.02159
3024.33267,0.02145
3022.27250,0.02138
3020.21232,0.02124
3018.15215,0.02096
3016.09198,0.02080
3014.03181,0.02081
3011.97163,0.02076
3009.91146,0.02062
3007.85129,0.02053
3005.79112,0.02045
3003.73095,0.02037
3001.67077,0.02039
2999.61060,0.02039
2997.55043,0.02010
2995.49026,0.01977
2993.43009,0.01971
2991.36991,0.01975
2989.30974,0.01964
2987.24957,0.01935
2985.18940,0.01909
2983.12923,0.01908
2981.06905,0.01915
2979.00888,0.01908
2976.94871,0.01890
2974.88854,0.01883
2972.82836,0.01891
2970.76819,0.01904
2968.70802,0.01915
2966.64785,0.01914
2964.58768,0.01900
2962.52750,0.01880
2960.46733,0.01866
2958.40716,0.01862
2956.34699,0.01864
2954.28682,0.01861
2952.22664,0.01851
2950.16647,0.01852
2948.10630,0.01850
2946.04613,0.01842
2943.98596,0.01848
2941.92578,0.01852
2939.86561,0.01831
2937.80544,0.01811
2935.74527,0.01808
2933.68509,0.01812
2931.62492,0.01811
2929.56475,0.01791
2927.50458,0.01768
2925.44441,0.01773
2923.38423,0.01785
2921.32406,0.01766
2919.26389,0.01735
2917.20372,0.01723
2915.14355,0.01726
2913.08337,0.01719
2911.02320,0.01704
2908.96303,0.01690
2906.90286,0.01672
2904.84268,0.01656
2902.78251,0.01665
2900.72234,0.01693
2898.66217,0.01695
2896.60200,0.01675
2894.54182,0.01669
2892.48165,0.01679
2890.42148,0.01689
2888.36131,0.01684
2886.30114,0.01666
2884.24096,0.01658
2882.18079,0.01659
2880.12062,0.01648
2878.06045,0.01624
2876.00028,0.01607
2873.94010,0.01604
2871.87993,0.01596
2869.81976,0.01589
2867.75959,0.01594
2865.69941,0.01604
2863.63924,0.01600
2861.57907,0.01575
2859.51890,0.01550
2857.45873,0.01547
2855.39855,0.01544
2853.33838,0.01523
2851.27821,0.01501
2849.21804,0.01494
2847.15787,0.01501
2845.09769,0.01499
2843.03752,0.01487
2840.97735,0.01489
2838.91718,0.01499
2836.85700,0.01492
2834.79683,0.01467
2832.73666,0.01441
2830.67649,0.01438
2828.61632,0.01462
2826.55614,0.01475
2824.49597,0.01463
2822.43580,0.01438
2820.37563,0.01418
2818.31546,0.01412
2816.25528,0.01414
2814.19511,0.01410
2812.13494,0.01397
2810.07477,0.01383
2808.01460,0.01374
2805.95442,0.01370
2803.89425,0.01374
2801.83408,0.01375
2799.77391,0.01361
2797.71373,0.01338
2795.65356,0.01320
2793.59339,0.01314
2791.53322,0.01314
2789.47305,0.01313
2787.41287,0.01306
2785.35270,0.01293
2783.29253,0.01286
2781.23236,0.01299
2779.17219,0.01309
2777.11201,0.01288
2775.05184,0.01267
2772.99167,0.01271
2770.93150,0.01284
2768.87133,0.01278
2766.81115,0.01260
2764.75098,0.01255
2762.69081,0.01258
2760.63064,0.01245
2758.57046,0.01217
2756.51029,0.01211
2754.45012,0.01232
2752.38995,0.01247
2750.32978,0.01238
2748.26960,0.01222
2746.20943,0.01203
2744.14926,0.01186
2742.08909,0.01188
2740.02892,0.01205
2737.96874,0.01214
2735.90857,0.01198
2733.84840,0.01171
2731.78823,0.01162
2729.72805,0.01172
2727.66788,0.01175
2725.60771,0.01154
2723.54754,0.01132
2721.48737,0.01130
2719.42719,0.01134
2717.36702,0.01129
2715.30685,0.01123
2713.24668,0.01113
2711.18651,0.01093
2709.12633,0.01073
2707.06616,0.01061
2705.00599,0.01065
2702.94582,0.01079
2700.88565,0.01089
2698.82547,0.01087
2696.76530,0.01077
2694.70513,0.01069
2692.64496,0.01069
2690.58478,0.01070
2688.52461,0.01065
2686.46444,0.01046
2684.40427,0.01013
2682.34410,0.00993
2680.28392,0.01002
2678.22375,0.01014
2676.16358,0.01018
2674.10341,0.01012
2672.04324,0.00998
2669.98306,0.00980
2667.92289,0.00963
2665.86272,0.00955
2663.80255,0.00956
2661.74238,0.00962
2659.68220,0.00965
2657.62203,0.00970
2655.56186,0.00962
2653.50169,0.00947
2651.44151,0.00948
2649.38134,0.00948
2647.32117,0.00939
2645.26100,0.00932
2643.20083,0.00932
2641.14065,0.00933
2639.08048,0.00930
2637.02031,0.00924
2634.96014,0.00920
2632.89997,0.00916
2630.83979,0.00901
2628.77962,0.00868
2626.71945,0.00838
2624.65928,0.00836
2622.59910,0.00850
2620.53893,0.00849
2618.47876,0.00832
2616.41859,0.00825
2614.35842,0.00834
2612.29824,0.00845
2610.23807,0.00836
2608.17790,0.00803
2606.11773,0.00768
2604.05756,0.00763
2601.99738,0.00790
2599.93721,0.00817
2597.87704,0.00827
2595.81687,0.00831
2593.75670,0.00811
2591.69652,0.00762
2589.63635,0.00753
2587.57618,0.00784
2585.51601,0.00763
2583.45583,0.00721
2581.39566,0.00736
2579.33549,0.00763
2577.27532,0.00757
2575.21515,0.00735
2573.15497,0.00709
2571.09480,0.00694
2569.03463,0.00718
2566.97446,0.00759
2564.91429,0.00749
2562.85411,0.00696
2560.79394,0.00687
2558.73377,0.00722
2556.67360,0.00736
2554.61342,0.00742
2552.55325,0.00766
2550.49308,0.00777
2548.43291,0.00756
2546.37274,0.00722
2544.31256,0.00722
2542.25239,0.00755
2540.19222,0.00784
2538.13205,0.00808
2536.07188,0.00802
2534.01170,0.00764
2531.95153,0.00766
2529.89136,0.00789
2527.83119,0.00766
2525.77102,0.00734
2523.71084,0.00747
2521.65067,0.00795
2519.59050,0.00823
2517.53033,0.00808
2515.47015,0.00807
2513.40998,0.00826
2511.34981,0.00818
2509.28964,0.00787
2507.22947,0.00755
2505.16929,0.00735
2503.10912,0.00724
2501.04895,0.00726
2498.98878,0.00741
2496.92861,0.00756
2494.86843,0.00790
2492.80826,0.00821
2490.74809,0.00818
2488.68792,0.00791
2486.62775,0.00759
2484.56757,0.00740
2482.50740,0.00743
2480.44723,0.00762
2478.38706,0.00767
2476.32688,0.00753
2474.26671,0.00747
2472.20654,0.00741
2470.14637,0.00733
2468.08620,0.00776
2466.02602,0.00832
2463.96585,0.00827
2461.90568,0.00813
2459.84551,0.00828
2457.78534,0.00825
2455.72516,0.00804
2453.66499,0.00786
2451.60482,0.00757
2449.54465,0.00750
2447.48447,0.00788
2445.42430,0.00812
2443.36413,0.00804
2441.30396,0.00809
2439.24379,0.00816
2437.18361,0.00800
2435.12344,0.00790
2433.06327,0.00806
2431.00310,0.00825
2428.94293,0.00809
2426.88275,0.00777
2424.82258,0.00760
2422.76241,0.00760
2420.70224,0.00762
2418.64207,0.00742
2416.58189,0.00698
2414.52172,0.00687
2412.46155,0.00743
2410.40138,0.00810
2408.34120,0.00822
2406.28103,0.00782
2404.22086,0.00761
2402.16069,0.00775
2400.10052,0.00774
2398.04034,0.00754
2395.98017,0.00745
2393.92000,0.00750
2391.85983,0.00771
2389.79966,0.00789
2387.73948,0.00781
2385.67931,0.00757
2383.61914,0.00741
2381.55897,0.00736
2379.49880,0.00729
2377.43862,0.00721
2375.37845,0.00738
2373.31828,0.00768
2371.25811,0.00772
2369.19793,0.00722
2367.13776,0.00595
2365.07759,0.00430
2363.01742,0.00368
2360.95725,0.00427
2358.89707,0.00650
2356.83690,0.00873
2354.77673,0.00932
2352.71656,0.00846
2350.65639,0.00672
2348.59621,0.00593
2346.53604,0.00767
2344.47587,0.00897
2342.41570,0.00943
2340.35552,0.00922
2338.29535,0.00880
2336.23518,0.00856
2334.17501,0.00832
2332.11484,0.00800
2330.05466,0.00757
2327.99449,0.00785
2325.93432,0.00840
2323.87415,0.00867
2321.81398,0.00834
2319.75380,0.00812
2317.69363,0.00786
2315.63346,0.00800
2313.57329,0.00817
2311.51312,0.00765
2309.45294,0.00702
2307.39277,0.00721
2305.33260,0.00770
2303.27243,0.00765
2301.21225,0.00746
2299.15208,0.00755
2297.09191,0.00781
2295.03174,0.00785
2292.97157,0.00745
2290.91139,0.00702
2288.85122,0.00706
2286.79105,0.00723
2284.73088,0.00707
2282.67071,0.00685
2280.61053,0.00677
2278.55036,0.00664
2276.49019,0.00662
2274.43002,0.00701
2272.36984,0.00745
2270.30967,0.00725
2268.24950,0.00657
2266.18933,0.00622
2264.12916,0.00655
2262.06898,0.00711
2260.00881,0.00723
2257.94864,0.00691
2255.88847,0.00668
2253.82830,0.00643
2251.76812,0.00623
2249.70795,0.00637
2247.64778,0.00656
2245.58761,0.00629
2243.52744,0.00582
2241.46726,0.00575
2239.40709,0.00614
2237.34692,0.00655
2235.28675,0.00626
2233.22657,0.00569
2231.16640,0.00558
2229.10623,0.00529
2227.04606,0.00480
2224.98589,0.00483
2222.92571,0.00553
2220.86554,0.00659
2218.80537,0.00699
2216.74520,0.00589
2214.68503,0.00417
2212.62485,0.00348
2210.56468,0.00440
2208.50451,0.00607
2206.44434,0.00659
2204.38417,0.00545
2202.32399,0.00483
2200.26382,0.00552
2198.20365,0.00590
2196.14348,0.00557
2194.08330,0.00548
2192.02313,0.00564
2189.96296,0.00523
2187.90279,0.00425
2185.84262,0.00382
2183.78244,0.00411
2181.72227,0.00417
2179.66210,0.00409
2177.60193,0.00436
2175.54176,0.00474
2173.48158,0.00519
2171.42141,0.00530
2169.36124,0.00429
2167.30107,0.00310
2165.24089,0.00297
2163.18072,0.00283
2161.12055,0.00219
2159.06038,0.00166
2157.00021,0.00082
2154.94003,0.00047
2152.87986,0.00188
2150.81969,0.00386
2148.75952,0.00494
2146.69935,0.00509
2144.63917,0.00459
2142.57900,0.00422
2140.51883,0.00400
2138.45866,0.00355
2136.39849,0.00347
2134.33831,0.00391
2132.27814,0.00406
2130.21797,0.00408
2128.15780,0.00439
2126.09762,0.00447
2124.03745,0.00415
2121.97728,0.00394
2119.91711,0.00433
2117.85694,0.00508
2115.79676,0.00552
2113.73659,0.00531
2111.67642,0.00474
2109.61625,0.00428
2107.55608,0.00409
2105.49590,0.00439
2103.43573,0.00520
2101.37556,0.00557
2099.31539,0.00500
2097.25521,0.00419
2095.19504,0.00421
2093.13487,0.00499
2091.07470,0.00532
2089.01453,0.00495
2086.95435,0.00468
2084.89418,0.00466
2082.83401,0.00451
2080.77384,0.00472
2078.71367,0.00571
2076.65349,0.00607
2074.59332,0.00498
2072.53315,0.00369
2070.47298,0.00315
2068.41281,0.00332
2066.35263,0.00345
2064.29246,0.00291
2062.23229,0.00232
2060.17212,0.00222
2058.11194,0.00275
2056.05177,0.00390
2053.99160,0.00433
2051.93143,0.00354
2049.87126,0.00273
2047.81108,0.00288
2045.75091,0.00407
2043.69074,0.00566
2041.63057,0.00668
2039.57040,0.00649
2037.51022,0.00584
2035.45005,0.00561
2033.38988,0.00510
2031.32971,0.00362
2029.26954,0.00242
2027.20936,0.00235
2025.14919,0.00222
2023.08902,0.00153
2021.02885,0.00102
2018.96867,0.00114
2016.90850,0.00158
2014.84833,0.00144
2012.78816,0.00105
2010.72799,0.00085
2008.66781,0.00051
2006.60764,0.00054
2004.54747,0.00120
2002.48730,0.00163
2000.42713,0.00168
1998.36695,0.00175
1996.30678,0.00177
1994.24661,0.00228
1992.18644,0.00293
1990.12626,0.00232
1988.06609,0.00188
1986.00592,0.00290
1983.94575,0.00427
1981.88558,0.00428
1979.82540,0.00255
1977.76523,0.00087
1975.70506,0.00054
1973.64489,0.00052
1971.58472,0.00082
1969.52454,0.00261
1967.46437,0.00454
1965.40420,0.00474
1963.34403,0.00391
1961.28386,0.00298
1959.22368,0.00238
1957.16351,0.00250
1955.10334,0.00311
1953.04317,0.00328
1950.98299,0.00304
1948.92282,0.00335
1946.86265,0.00387
1944.80248,0.00386
1942.74231,0.00346
1940.68213,0.00274
1938.62196,0.00258
1936.56179,0.00290
1934.50162,0.00324
1932.44145,0.00347
1930.38127,0.00286
1928.32110,0.00163
1926.26093,0.00115
1924.20076,0.00186
1922.14059,0.00209
1920.08041,0.00184
1918.02024,0.00250
1915.96007,0.00294
1913.89990,0.00269
1911.83972,0.00233
1909.77955,0.00227
1907.71938,0.00235
1905.65921,0.00245
1903.59904,0.00270
1901.53886,0.00292
1899.47869,0.00313
1897.41852,0.00371
1895.35835,0.00408
1893.29818,0.00334
1891.23800,0.00270
1889.17783,0.00262
1887.11766,0.00235
1885.05749,0.00236
1882.99731,0.00250
1880.93714,0.00246
1878.87697,0.00237
1876.81680,0.00235
1874.75663,0.00244
1872.69645,0.00269
1870.63628,0.00328
1868.57611,0.00350
1866.51594,0.00283
1864.45577,0.00227
1862.39559,0.00198
1860.33542,0.00163
1858.27525,0.00159
1856.21508,0.00199
1854.15491,0.00228
1852.09473,0.00227
1850.03456,0.00227
1847.97439,0.00226
1845.91422,0.00263
1843.85404,0.00298
1841.79387,0.00236
1839.73370,0.00209
1837.67353,0.00235
1835.61336,0.00227
1833.55318,0.00232
1831.49301,0.00315
1829.43284,0.00336
1827.37267,0.00262
1825.31250,0.00264
1823.25232,0.00271
1821.19215,0.00260
1819.13198,0.00283
1817.07181,0.00297
1815.01163,0.00277
1812.95146,0.00279
1810.89129,0.00296
1808.83112,0.00269
1806.77095,0.00235
1804.71077,0.00239
1802.65060,0.00287
1800.59043,0.00319
1798.53026,0.00283
1796.47009,0.00256
1794.40991,0.00336
1792.34974,0.00431
1790.28957,0.00343
1788.22940,0.00225
1786.16923,0.00228
1784.10905,0.00268
1782.04888,0.00307
1779.98871,0.00313
1777.92854,0.00253
1775.86836,0.00247
1773.80819,0.00347
1771.74802,0.00383
1769.68785,0.00301
1767.62768,0.00272
1765.56750,0.00282
1763.50733,0.00353
1761.44716,0.00393
1759.38699,0.00347
1757.32682,0.00347
1755.26664,0.00325
1753.20647,0.00342
1751.14630,0.00427
1749.08613,0.00407
1747.02596,0.00314
1744.96578,0.00282
1742.90561,0.00323
1740.84544,0.00384
1738.78527,0.00353
1736.72509,0.00346
1734.66492,0.00498
1732.60475,0.00485
1730.54458,0.00396
1728.48441,0.00388
1726.42423,0.00402
1724.36406,0.00425
1722.30389,0.00400
1720.24372,0.00452
1718.18355,0.00641
1716.12337,0.00689
1714.06320,0.00595
1712.00303,0.00516
1709.94286,0.00494
1707.88268,0.00531
1705.82251,0.00547
1703.76234,0.00468
1701.70217,0.00524
1699.64200,0.00615
1697.58182,0.00644
1695.52165,0.00719
1693.46148,0.00653
1691.40131,0.00640
1689.34114,0.00674
1687.28096,0.00737
1685.22079,0.00979
1683.16062,0.01022
1681.10045,0.00823
1679.04028,0.00756
1676.98010,0.00849
1674.91993,0.00909
1672.85976,0.00861
1670.79959,0.00949
1668.73941,0.00992
1666.67924,0.00886
1664.61907,0.00930
1662.55890,0.01051
1660.49873,0.00999
1658.43855,0.00891
1656.37838,0.00945
1654.31821,0.01202
1652.25804,0.01142
1650.19787,0.00874
1648.13769,0.01014
1646.07752,0.01167
1644.01735,0.01044
1641.95718,0.00949
1639.89701,0.00941
1637.83683,0.01061
1635.77666,0.01213
1633.71649,0.01082
1631.65632,0.00946
1629.59614,0.00992
1627.53597,0.01020
1625.47580,0.01006
1623.41563,0.01003
1621.35546,0.00889
1619.29528,0.00880
1617.23511,0.01035
1615.17494,0.01000
1613.11477,0.00883
1611.05460,0.00890
1608.99442,0.00921
1606.93425,0.00907
1604.87408,0.00892
1602.81391,0.00892
1600.75373,0.00871
1598.69356,0.00837
1596.63339,0.00818
1594.57322,0.00790
1592.51305,0.00748
1590.45287,0.00727
1588.39270,0.00724
1586.33253,0.00713
1584.27236,0.00682
1582.21219,0.00622
1580.15201,0.00568
1578.09184,0.00641
1576.03167,0.00698
1573.97150,0.00527
1571.91133,0.00490
1569.85115,0.00611
1567.79098,0.00559
1565.73081,0.00449
1563.67064,0.00342
1561.61046,0.00409
1559.55029,0.00702
1557.49012,0.00568
1555.42995,0.00322
1553.36978,0.00288
1551.30960,0.00338
1549.24943,0.00346
1547.18926,0.00286
1545.12909,0.00293
1543.06892,0.00389
1541.00874,0.00547
1538.94857,0.00428
1536.88840,0.00162
1534.82823,0.00233
1532.76805,0.00336
1530.70788,0.00238
1528.64771,0.00233
1526.58754,0.00267
1524.52737,0.00244
1522.46719,0.00297
1520.40702,0.00260
1518.34685,0.00185
1516.28668,0.00188
1514.22651,0.00126
1512.16633,0.00083
1510.10616,0.00161
1508.04599,0.00403
1505.98582,0.00410
1503.92565,0.00135
1501.86547,0.00064
1499.80530,0.00188
1497.74513,0.00287
1495.68496,0.00206
1493.62478,0.00080
1491.56461,0.00154
1489.50444,0.00274
1487.44427,0.00227
1485.38410,0.00147
1483.32392,0.00157
1481.26375,0.00194
1479.20358,0.00174
1477.14341,0.00177
1475.08324,0.00257
1473.02306,0.00348
1470.96289,0.00250
1468.90272,0.00120
1466.84255,0.00195
1464.78238,0.00286
1462.72220,0.00197
1460.66203,0.00189
1458.60186,0.00402
1456.54169,0.00471
1454.48151,0.00275
1452.42134,0.00196
1450.36117,0.00259
1448.30100,0.00324
1446.24083,0.00301
1444.18065,0.00256
1442.12048,0.00230
1440.06031,0.00213
1438.00014,0.00289
1435.93997,0.00312
1433.87979,0.00218
1431.81962,0.00242
1429.75945,0.00311
1427.69928,0.00297
1425.63910,0.00289
1423.57893,0.00273
1421.51876,0.00285
1419.45859,0.00392
1417.39842,0.00375
1415.33824,0.00292
1413.27807,0.00297
1411.21790,0.00326
1409.15773,0.00312
1407.09756,0.00315
1405.03738,0.00328
1402.97721,0.00277
1400.91704,0.00268
1398.85687,0.00308
1396.79670,0.00323
1394.73652,0.00331
1392.67635,0.00284
1390.61618,0.00270
1388.55601,0.00339
1386.49583,0.00341
1384.43566,0.00275
1382.37549,0.00263
1380.31532,0.00287
1378.25515,0.00297
1376.19497,0.00317
1374.13480,0.00322
1372.07463,0.00262
1370.01446,0.00237
1367.95429,0.00242
1365.89411,0.00247
1363.83394,0.00302
1361.77377,0.00310
1359.71360,0.00246
1357.65343,0.00222
1355.59325,0.00237
1353.53308,0.00235
1351.47291,0.00230
1349.41274,0.00236
1347.35256,0.00225
1345.29239,0.00191
1343.23222,0.00166
1341.17205,0.00198
1339.11188,0.00237
1337.05170,0.00217
1334.99153,0.00192
1332.93136,0.00184
1330.87119,0.00176
1328.81102,0.00171
1326.75084,0.00181
1324.69067,0.00197
1322.63050,0.00212
1320.57033,0.00227
1318.51015,0.00217
1316.44998,0.00184
1314.38981,0.00186
1312.32964,0.00213
1310.26947,0.00230
1308.20929,0.00237
1306.14912,0.00226
1304.08895,0.00210
1302.02878,0.00202
1299.96861,0.00203
1297.90843,0.00215
1295.84826,0.00228
1293.78809,0.00237
1291.72792,0.00236
1289.66775,0.00231
1287.60757,0.00232
1285.54740,0.00230
1283.48723,0.00222
1281.42706,0.00220
1279.36688,0.00229
1277.30671,0.00242
1275.24654,0.00250
1273.18637,0.00258
1271.12620,0.00274
1269.06602,0.00284
1267.00585,0.00281
1264.94568,0.00265
1262.88551,0.00250
1260.82534,0.00253
1258.76516,0.00254
1256.70499,0.00250
1254.64482,0.00256
1252.58465,0.00274
1250.52447,0.00286
1248.46430,0.00282
1246.40413,0.00276
1244.34396,0.00265
1242.28379,0.00239
1240.22361,0.00220
1238.16344,0.00221
1236.10327,0.00222
1234.04310,0.00212
1231.98293,0.00195
1229.92275,0.00178
1227.86258,0.00158
1225.80241,0.00136
1223.74224,0.00119
1221.68207,0.00115
1219.62189,0.00119
1217.56172,0.00120
1215.50155,0.00120
1213.44138,0.00119
1211.38120,0.00106
1209.32103,0.00086
1207.26086,0.00080
1205.20069,0.00093
1203.14052,0.00094
1201.08034,0.00089
1199.02017,0.00099
1196.96000,0.00114
1194.89983,0.00123
1192.83966,0.00133
1190.77948,0.00136
1188.71931,0.00136
1186.65914,0.00158
1184.59897,0.00197
1182.53880,0.00233
1180.47862,0.00269
1178.41845,0.00312
1176.35828,0.00358
1174.29811,0.00410
1172.23793,0.00464
1170.17776,0.00509
1168.11759,0.00552
1166.05742,0.00588
1163.99725,0.00614
1161.93707,0.00648
1159.87690,0.00703
1157.81673,0.00764
1155.75656,0.00805
1153.69639,0.00829
1151.63621,0.00874
1149.57604,0.00943
1147.51587,0.01005
1145.45570,0.01052
1143.39552,0.01092
1141.33535,0.01144
1139.27518,0.01215
1137.21501,0.01290
1135.15484,0.01358
1133.09466,0.01413
1131.03449,0.01463
1128.97432,0.01523
1126.91415,0.01588
1124.85398,0.01657
1122.79380,0.01742
1120.73363,0.01827
1118.67346,0.01891
1116.61329,0.01955
1114.55312,0.02025
1112.49294,0.02093
1110.43277,0.02168
1108.37260,0.02249
1106.31243,0.02314
1104.25225,0.02373
1102.19208,0.02452
1100.13191,0.02517
1098.07174,0.02558
1096.01157,0.02616
1093.95139,0.02684
1091.89122,0.02739
1089.83105,0.02794
1087.77088,0.02852
1085.71071,0.02904
1083.65053,0.02958
1081.59036,0.03023
1079.53019,0.03079
1077.47002,0.03108
1075.40985,0.03123
1073.34967,0.03141
1071.28950,0.03155
1069.22933,0.03155
1067.16916,0.03160
1065.10898,0.03174
1063.04881,0.03162
1060.98864,0.03126
1058.92847,0.03082
1056.86830,0.03021
1054.80812,0.02966
1052.74795,0.02943
1050.68778,0.02933
1048.62761,0.02897
1046.56744,0.02817
1044.50726,0.02719
1042.44709,0.02648
1040.38692,0.02596
1038.32675,0.02536
1036.26657,0.02462
1034.20640,0.02390
1032.14623,0.02332
1030.08606,0.02269
1028.02589,0.02189
1025.96571,0.02112
1023.90554,0.02061
1021.84537,0.02019
1019.78520,0.01962
1017.72503,0.01915
1015.66485,0.01873
1013.60468,0.01819
1011.54451,0.01784
1009.48434,0.01785
1007.42417,0.01810
1005.36399,0.01846
1003.30382,0.01863
1001.24365,0.01857
999.18348,0.01856
997.12330,0.01877
995.06313,0.01912
993.00296,0.01951
990.94279,0.01998
988.88262,0.02047
986.82244,0.02075
984.76227,0.02092
982.70210,0.02107
980.64193,0.02089
978.58176,0.02019
976.52158,0.01937
974.46141,0.01882
972.40124,0.01827
970.34107,0.01750
968.28089,0.01673
966.22072,0.01608
964.16055,0.01546
962.10038,0.01474
960.04021,0.01388
957.98003,0.01323
955.91986,0.01299
953.85969,0.01270
951.79952,0.01197
949.73935,0.01120
947.67917,0.01080
945.61900,0.01057
943.55883,0.01031
941.49866,0.01009
939.43849,0.01007
937.37831,0.01018
935.31814,0.01021
933.25797,0.01004
931.19780,0.00966
929.13762,0.00935
927.07745,0.00929
925.01728,0.00931
922.95711,0.00926
920.89694,0.00906
918.83676,0.00871
916.77659,0.00833
914.71642,0.00817
912.65625,0.00807
910.59608,0.00767
908.53590,0.00732
906.47573,0.00726
904.41556,0.00726
902.35539,0.00743
900.29522,0.00754
898.23504,0.00736
896.17487,0.00731
894.11470,0.00771
892.05453,0.00807
889.99435,0.00803
887.93418,0.00808
885.87401,0.00844
883.81384,0.00877
881.75367,0.00898
879.69349,0.00906
877.63332,0.00899
875.57315,0.00903
873.51298,0.00928
871.45281,0.00949
869.39263,0.00959
867.33246,0.00971
865.27229,0.00986
863.21212,0.01006
861.15194,0.01028
859.09177,0.01014
857.03160,0.00975
854.97143,0.00970
852.91126,0.00984
850.85108,0.00972
848.79091,0.00928
846.73074,0.00863
844.67057,0.00824
842.61040,0.00816
840.55022,0.00780
838.49005,0.00728
836.42988,0.00716
834.36971,0.00723
832.30954,0.00691
830.24936,0.00622
828.18919,0.00573
826.12902,0.00567
824.06885,0.00546
822.00867,0.00502
819.94850,0.00499
817.88833,0.00492
815.82816,0.00433
813.76799,0.00409
811.70781,0.00437
809.64764,0.00452
807.58747,0.00427
805.52730,0.00377
803.46713,0.00334
801.40695,0.00326
799.34678,0.00344
797.28661,0.00361
795.22644,0.00387
793.16627,0.00411
791.10609,0.00398
789.04592,0.00375
786.98575,0.00384
784.92558,0.00414
782.86540,0.00410
780.80523,0.00373
778.74506,0.00359
776.68489,0.00355
774.62472,0.00322
772.56454,0.00297
770.50437,0.00318
768.44420,0.00351
766.38403,0.00364
764.32386,0.00368
762.26368,0.00355
760.20351,0.00307
758.14334,0.00272
756.08317,0.00294
754.02299,0.00328
751.96282,0.00311
749.90265,0.00274
747.84248,0.00288
745.78231,0.00326
743.72213,0.00336
741.66196,0.00326
739.60179,0.00312
737.54162,0.00296
735.48145,0.00290
733.42127,0.00296
731.36110,0.00310
729.30093,0.00323
727.24076,0.00331
725.18059,0.00364
723.12041,0.00383
721.06024,0.00357
719.00007,0.00296
716.93990,0.00279
714.87972,0.00312
712.81955,0.00349
710.75938,0.00355
708.69921,0.00321
706.63904,0.00285
704.57886,0.00299
702.51869,0.00350
700.45852,0.00385
698.39835,0.00348
696.33818,0.00254
694.27800,0.00194
692.21783,0.00205
690.15766,0.00230
688.09749,0.00211
686.03731,0.00180
683.97714,0.00212
681.91697,0.00309
679.85680,0.00362
677.79663,0.00324
675.73645,0.00281
673.67628,0.00213
671.61611,0.00085
669.55594,0.00162
667.49577,0.00323
665.43559,0.00094
663.37542,0.00190
661.31525,0.00294
659.25508,0.00310
657.19491,0.00312
655.13473,0.00264
653.07456,0.00157
651.01439,0.00117
648.95422,0.00199
646.89404,0.00267
644.83387,0.00231
642.77370,0.00129
640.71353,0.00086
638.65336,0.00172
636.59318,0.00326
634.53301,0.00399
632.47284,0.00327
630.41267,0.00163
628.35250,0.00022
626.29232,0.00032
624.23215,0.00177
622.17198,0.00166
620.11181,0.00023
618.05164,0.00024
615.99146,0.00085
613.93129,0.00142
611.87112,0.00267
609.81095,0.00307
607.75077,0.00237
605.69060,0.00111
603.63043,0.00004
601.57026,0.00000
599.51009,0.00000
