3996.73391,0.00031
3994.67373,0.00048
3992.61356,0.00056
3990.55339,0.00043
3988.49322,0.00024
3986.43305,0.00012
3984.37287,0.00005
3982.31270,0.00000
3980.25253,0.00006
3978.19236,0.00034
3976.13219,0.00062
3974.07201,0.00048
3972.01184,0.00013
3969.95167,0.00005
3967.89150,0.00021
3965.83133,0.00033
3963.77115,0.00039
3961.71098,0.00034
3959.65081,0.00020
3957.59064,0.00022
3955.53046,0.00037
3953.47029,0.00042
3951.41012,0.00043
3949.34995,0.00045
3947.28978,0.00033
3945.22960,0.00017
3943.16943,0.00023
3941.10926,0.00054
3939.04909,0.00082
3936.98892,0.00084
3934.92874,0.00084
3932.86857,0.00087
3930.80840,0.00058
3928.74823,0.00016
3926.68805,0.00013
3924.62788,0.00046
3922.56771,0.00065
3920.50754,0.00058
3918.44737,0.00056
3916.38719,0.00076
3914.32702,0.00103
3912.26685,0.00121
3910.20668,0.00132
3908.14651,0.00141
3906.08633,0.00153
3904.02616,0.00156
3901.96599,0.00124
3899.90582,0.00074
3897.84565,0.00047
3895.78547,0.00052
3893.72530,0.00082
3891.66513,0.00128
3889.60496,0.00154
3887.54478,0.00139
3885.48461,0.00102
3883.42444,0.00069
3881.36427,0.00058
3879.30410,0.00074
3877.24392,0.00109
3875.18375,0.00147
3873.12358,0.00170
3871.06341,0.00198
3869.00324,0.00242
3866.94306,0.00254
3864.88289,0.00211
3862.82272,0.00146
3860.76255,0.00101
3858.70237,0.00088
3856.64220,0.00100
3854.58203,0.00122
3852.52186,0.00131
3850.46169,0.00126
3848.40151,0.00120
3846.34134,0.00132
3844.28117,0.00165
3842.22100,0.00217
3840.16083,0.00277
3838.10065,0.00298
3836.04048,0.00243
3833.98031,0.00148
3831.92014,0.00080
3829.85997,0.00072
3827.79979,0.00113
3825.73962,0.00169
3823.67945,0.00207
3821.61928,0.00242
3819.55910,0.00295
3817.49893,0.00336
3815.43876,0.00318
3813.37859,0.00233
3811.31842,0.00147
3809.25824,0.00105
3807.19807,0.00095
3805.13790,0.00100
3803.07773,0.00131
3801.01756,0.00165
3798.95738,0.00176
3796.89721,0.00195
3794.83704,0.00206
3792.77687,0.00176
3790.71670,0.00135
3788.65652,0.00115
3786.59635,0.00103
3784.53618,0.00086
3782.47601,0.00087
3780.41583,0.00120
3778.35566,0.00133
3776.29549,0.00103
3774.23532,0.00083
3772.17515,0.00101
3770.11497,0.00133
3768.05480,0.00149
3765.99463,0.00148
3763.93446,0.00133
3761.87429,0.00125
3759.81411,0.00131
3757.75394,0.00122
3755.69377,0.00110
3753.63360,0.00145
3751.57342,0.00222
3749.51325,0.00277
3747.45308,0.00300
3745.39291,0.00289
3743.33274,0.00229
3741.27256,0.00160
3739.21239,0.00133
3737.15222,0.00167
3735.09205,0.00243
3733.03188,0.00285
3730.97170,0.00258
3728.91153,0.00233
3726.85136,0.00230
3724.79119,0.00218
3722.73102,0.00206
3720.67084,0.00210
3718.61067,0.00204
3716.55050,0.00172
3714.49033,0.00163
3712.43015,0.00207
3710.36998,0.00235
3708.30981,0.00210
3706.24964,0.00187
3704.18947,0.00193
3702.12929,0.00216
3700.06912,0.00237
3698.00895,0.00253
3695.94878,0.00269
3693.88861,0.00278
3691.82843,0.00277
3689.76826,0.00284
3687.70809,0.00286
3685.64792,0.00259
3683.58775,0.00228
3681.52757,0.00232
3679.46740,0.00267
3677.40723,0.00320
3675.34706,0.00385
3673.28688,0.00423
3671.22671,0.00413
3669.16654,0.00375
3667.10637,0.00353
3665.04620,0.00392
3662.98602,0.00463
3660.92585,0.00492
3658.86568,0.00474
3656.80551,0.00465
3654.74534,0.00479
3652.68516,0.00518
3650.62499,0.00591
3648.56482,0.00637
3646.50465,0.00618
3644.44447,0.00613
3642.38430,0.00659
3640.32413,0.00730
3638.26396,0.00798
3636.20379,0.00861
3634.14361,0.00917
3632.08344,0.00961
3630.02327,0.01007
3627.96310,0.01043
3625.90293,0.01037
3623.84275,0.01033
3621.78258,0.01078
3619.72241,0.01138
3617.66224,0.01164
3615.60207,0.01175
3613.54189,0.01194
3611.48172,0.01220
3609.42155,0.01237
3607.36138,0.01255
3605.30120,0.01311
3603.24103,0.01394
3601.18086,0.01461
3599.12069,0.01476
3597.06052,0.01456
3595.00034,0.01447
3592.94017,0.01457
3590.88000,0.01478
3588.81983,0.01536
3586.75966,0.01627
3584.69948,0.01702
3582.63931,0.01735
3580.57914,0.01745
3578.51897,0.01749
3576.45879,0.01761
3574.39862,0.01796
3572.33845,0.01849
3570.27828,0.01913
3568.21811,0.01977
3566.15793,0.02016
3564.09776,0.02035
3562.03759,0.02051
3559.97742,0.02067
3557.91725,0.02093
3555.85707,0.02135
3553.79690,0.02174
3551.73673,0.02201
3549.67656,0.02237
3547.61639,0.02279
3545.55621,0.02300
3543.49604,0.02310
3541.43587,0.02330
3539.37570,0.02351
3537.31552,0.02376
3535.25535,0.02425
3533.19518,0.02485
3531.13501,0.02527
3529.07484,0.02549
3527.01466,0.02571
3524.95449,0.02602
3522.89432,0.02638
3520.83415,0.02673
3518.77398,0.02691
3516.71380,0.02708
3514.65363,0.02753
3512.59346,0.02805
3510.53329,0.02822
3508.47312,0.02812
3506.41294,0.02821
3504.35277,0.02860
3502.29260,0.02906
3500.23243,0.02950
3498.17225,0.02980
3496.11208,0.02995
3494.05191,0.03024
3491.99174,0.03076
3489.93157,0.03133
3487.87139,0.03175
3485.81122,0.03202
3483.75105,0.03223
3481.69088,0.03236
3479.63071,0.03231
3477.57053,0.03232
3475.51036,0.03248
3473.45019,0.03262
3471.39002,0.03275
3469.32984,0.03300
3467.26967,0.03346
3465.20950,0.03394
3463.14933,0.03419
3461.08916,0.03427
3459.02898,0.03437
3456.96881,0.03462
3454.90864,0.03496
3452.84847,0.03526
3450.78830,0.03564
3448.72812,0.03626
3446.66795,0.03689
3444.60778,0.03697
3442.54761,0.03651
3440.48744,0.03615
3438.42726,0.03635
3436.36709,0.03684
3434.30692,0.03716
3432.24675,0.03729
3430.18657,0.03746
3428.12640,0.03788
3426.06623,0.03838
3424.00606,0.03868
3421.94589,0.03868
3419.88571,0.03865
3417.82554,0.03873
3415.76537,0.03880
3413.70520,0.03881
3411.64503,0.03889
3409.58485,0.03922
3407.52468,0.03974
3405.46451,0.04015
3403.40434,0.04016
3401.34416,0.03978
3399.28399,0.03961
3397.22382,0.03973
3395.16365,0.03978
3393.10348,0.03988
3391.04330,0.04007
3388.98313,0.04034
3386.92296,0.04063
3384.86279,0.04064
3382.80262,0.04047
3380.74244,0.04041
3378.68227,0.04049
3376.62210,0.04069
3374.56193,0.04095
3372.50176,0.04110
3370.44158,0.04116
3368.38141,0.04122
3366.32124,0.04115
3364.26107,0.04107
3362.20089,0.04114
3360.14072,0.04127
3358.08055,0.04133
3356.02038,0.04137
3353.96021,0.04146
3351.90003,0.04158
3349.83986,0.04168
3347.77969,0.04152
3345.71952,0.04112
3343.65935,0.04096
3341.59917,0.04115
3339.53900,0.04138
3337.47883,0.04135
3335.41866,0.04109
3333.35849,0.04124
3331.29831,0.04177
3329.23814,0.04187
3327.17797,0.04164
3325.11780,0.04155
3323.05762,0.04147
3320.99745,0.04139
3318.93728,0.04164
3316.87711,0.04195
3314.81694,0.04189
3312.75676,0.04181
3310.69659,0.04199
3308.63642,0.04210
3306.57625,0.04185
3304.51608,0.04142
3302.45590,0.04124
3300.39573,0.04144
3298.33556,0.04163
3296.27539,0.04163
3294.21521,0.04159
3292.15504,0.04174
3290.09487,0.04205
3288.03470,0.04212
3285.97453,0.04193
3283.91435,0.04195
3281.85418,0.04196
3279.79401,0.04153
3277.73384,0.04122
3275.67367,0.04154
3273.61349,0.04202
3271.55332,0.04218
3269.49315,0.04203
3267.43298,0.04174
3265.37281,0.04165
3263.31263,0.04180
3261.25246,0.04186
3259.19229,0.04189
3257.13212,0.04200
3255.07194,0.04195
3253.01177,0.04181
3250.95160,0.04180
3248.89143,0.04184
3246.83126,0.04183
3244.77108,0.04171
3242.71091,0.04160
3240.65074,0.04162
3238.59057,0.04166
3236.53040,0.04158
3234.47022,0.04149
3232.41005,0.04141
3230.34988,0.04122
3228.28971,0.04119
3226.22954,0.04150
3224.16936,0.04161
3222.10919,0.04147
3220.04902,0.04151
3217.98885,0.04156
3215.92867,0.04144
3213.86850,0.04135
3211.80833,0.04146
3209.74816,0.04163
3207.68799,0.04159
3205.62781,0.04133
3203.56764,0.04097
3201.50747,0.04068
3199.44730,0.04061
3197.38713,0.04053
3195.32695,0.04042
3193.26678,0.04043
3191.20661,0.04048
3189.14644,0.04053
3187.08626,0.04059
3185.02609,0.04047
3182.96592,0.04037
3180.90575,0.04045
3178.84558,0.04044
3176.78540,0.04015
3174.72523,0.03969
3172.66506,0.03940
3170.60489,0.03958
3168.54472,0.03979
3166.48454,0.03946
3164.42437,0.03897
3162.36420,0.03873
3160.30403,0.03866
3158.24386,0.03864
3156.18368,0.03857
3154.12351,0.03844
3152.06334,0.03833
3150.00317,0.03826
3147.94299,0.03809
3145.88282,0.03789
3143.82265,0.03791
3141.76248,0.03799
3139.70231,0.03781
3137.64213,0.03756
3135.58196,0.03741
3133.52179,0.03715
3131.46162,0.03680
3129.40145,0.03649
3127.34127,0.03620
3125.28110,0.03611
3123.22093,0.03626
3121.16076,0.03640
3119.10058,0.03643
3117.04041,0.03635
3114.98024,0.03617
3112.92007,0.03603
3110.85990,0.03591
3108.79972,0.03571
3106.73955,0.03561
3104.67938,0.03561
3102.61921,0.03547
3100.55904,0.03513
3098.49886,0.03485
3096.43869,0.03495
3094.37852,0.03512
3092.31835,0.03492
3090.25818,0.03455
3088.19800,0.03430
3086.13783,0.03429
3084.07766,0.03428
3082.01749,0.03397
3079.95731,0.03365
3077.89714,0.03351
3075.83697,0.03341
3073.77680,0.03340
3071.71663,0.03342
3069.65645,0.03327
3067.59628,0.03298
3065.53611,0.03268
3063.47594,0.03254
3061.41577,0.03249
3059.35559,0.03229
3057.29542,0.03191
3055.23525,0.03162
3053.17508,0.03155
3051.11491,0.03148
3049.05473,0.03132
3046.99456,0.03108
3044.93439,0.03072
3042.87422,0.03049
3040.81404,0.03053
3038.75387,0.03044
3036.69370,0.03018
3034.63353,0.03002
3032.57336,0.02991
3030.51318,0.02981
3028.45301,0.02956
3026.39284,0.02913
3024.33267,0.02888
3022.27250,0.02894
3020.21232,0.02907
3018.15215,0.02910
3016.09198,0.02887
3014.03181,0.02851
3011.97163,0.02828
3009.91146,0.02806
3007.85129,0.02794
3005.79112,0.02787
3003.73095,0.02750
3001.67077,0.02700
2999.61060,0.02678
2997.55043,0.02676
2995.49026,0.02672
2993.43009,0.02663
2991.36991,0.02649
2989.30974,0.02640
2987.24957,0.02639
2985.18940,0.02619
2983.12923,0.02593
2981.06905,0.02595
2979.00888,0.02584
2976.94871,0.02556
2974.88854,0.02573
2972.82836,0.02601
2970.76819,0.02589
2968.70802,0.02569
2966.64785,0.02562
2964.58768,0.02537
2962.52750,0.02489
2960.46733,0.02444
2958.40716,0.02430
2956.34699,0.02446
2954.28682,0.02463
2952.22664,0.02455
2950.16647,0.02449
2948.10630,0.02470
2946.04613,0.02485
2943.98596,0.02468
2941.92578,0.02434
2939.86561,0.02412
2937.80544,0.02404
2935.74527,0.02395
2933.68509,0.02396
2931.62492,0.02399
2929.56475,0.02395
2927.50458,0.02388
2925.44441,0.02367
2923.38423,0.02337
2921.32406,0.02317
2919.26389,0.02311
2917.20372,0.02303
2915.14355,0.02288
2913.08337,0.02272
2911.02320,0.02253
2908.96303,0.02240
2906.90286,0.02234
2904.84268,0.02227
2902.78251,0.02216
2900.72234,0.02209
2898.66217,0.02193
2896.60200,0.02165
2894.54182,0.02150
2892.48165,0.02150
2890.42148,0.02152
2888.36131,0.02157
2886.30114,0.02155
2884.24096,0.02142
2882.18079,0.02134
2880.12062,0.02141
2878.06045,0.02150
2876.00028,0.02139
2873.94010,0.02119
2871.87993,0.02109
2869.81976,0.02094
2867.75959,0.02069
2865.69941,0.02066
2863.63924,0.02072
2861.57907,0.02065
2859.51890,0.02048
2857.45873,0.02030
2855.39855,0.02013
2853.33838,0.02008
2851.27821,0.02016
2849.21804,0.02009
2847.15787,0.01980
2845.09769,0.01948
2843.03752,0.01936
2840.97735,0.01929
2838.91718,0.01914
2836.85700,0.01905
2834.79683,0.01898
2832.73666,0.01900
2830.67649,0.01903
2828.61632,0.01876
2826.55614,0.01838
2824.49597,0.01820
2822.43580,0.01808
2820.37563,0.01792
2818.31546,0.01788
2816.25528,0.01801
2814.19511,0.01802
2812.13494,0.01783
2810.07477,0.01777
2808.01460,0.01787
2805.95442,0.01786
2803.89425,0.01764
2801.83408,0.01747
2799.77391,0.01740
2797.71373,0.01720
2795.65356,0.01684
2793.59339,0.01666
2791.53322,0.01676
2789.47305,0.01693
2787.41287,0.01692
2785.35270,0.01678
2783.29253,0.01671
2781.23236,0.01664
2779.17219,0.01641
2777.11201,0.01617
2775.05184,0.01608
2772.99167,0.01616
2770.93150,0.01630
2768.87133,0.01634
2766.81115,0.01633
2764.75098,0.01634
2762.69081,0.01620
2760.63064,0.01601
2758.57046,0.01598
2756.51029,0.01593
2754.45012,0.01577
2752.38995,0.01566
2750.32978,0.01564
2748.26960,0.01564
2746.20943,0.01562
2744.14926,0.01557
2742.08909,0.01546
2740.02892,0.01533
2737.96874,0.01522
2735.90857,0.01508
2733.84840,0.01491
2731.78823,0.01469
2729.72805,0.01458
2727.66788,0.01467
2725.60771,0.01471
2723.54754,0.01447
2721.48737,0.01416
2719.42719,0.01419
2717.36702,0.01450
2715.30685,0.01460
2713.24668,0.01451
2711.18651,0.01439
2709.12633,0.01421
2707.06616,0.01409
2705.00599,0.01397
2702.94582,0.01374
2700.88565,0.01355
2698.82547,0.01353
2696.76530,0.01363
2694.70513,0.01374
2692.64496,0.01363
2690.58478,0.01342
2688.52461,0.01336
2686.46444,0.01332
2684.40427,0.01317
2682.34410,0.01303
2680.28392,0.01299
2678.22375,0.01301
2676.16358,0.01303
2674.10341,0.01303
2672.04324,0.01293
2669.98306,0.01269
2667.92289,0.01253
2665.86272,0.01255
2663.80255,0.01264
2661.74238,0.01277
2659.68220,0.01283
2657.62203,0.01263
2655.56186,0.01229
2653.50169,0.01211
2651.44151,0.01206
2649.38134,0.01217
2647.32117,0.01238
2645.26100,0.01235
2643.20083,0.01202
2641.14065,0.01177
2639.08048,0.01171
2637.02031,0.01167
2634.96014,0.01163
2632.89997,0.01171
2630.83979,0.01166
2628.77962,0.01129
2626.71945,0.01103
2624.65928,0.01091
2622.59910,0.01045
2620.53893,0.01003
2618.47876,0.01007
2616.41859,0.01020
2614.35842,0.01019
2612.29824,0.01029
2610.23807,0.01047
2608.17790,0.01056
2606.11773,0.01058
2604.05756,0.01058
2601.99738,0.01066
2599.93721,0.01068
2597.87704,0.01043
2595.81687,0.01011
2593.75670,0.01000
2591.69652,0.01003
2589.63635,0.00994
2587.57618,0.00988
2585.51601,0.01005
2583.45583,0.01025
2581.39566,0.01021
2579.33549,0.01005
2577.27532,0.01023
2575.21515,0.01059
2573.15497,0.01057
2571.09480,0.01030
2569.03463,0.01004
2566.97446,0.00960
2564.91429,0.00924
2562.85411,0.00935
2560.79394,0.00969
2558.73377,0.00976
2556.67360,0.00967
2554.61342,0.00981
2552.55325,0.00988
2550.49308,0.00963
2548.43291,0.00933
2546.37274,0.00911
2544.31256,0.00896
2542.25239,0.00910
2540.19222,0.00958
2538.13205,0.01002
2536.07188,0.01008
2534.01170,0.00993
2531.95153,0.00981
2529.89136,0.00985
2527.83119,0.01012
2525.77102,0.01055
2523.71084,0.01090
2521.65067,0.01101
2519.59050,0.01085
2517.53033,0.01029
2515.47015,0.00987
2513.40998,0.01020
2511.34981,0.01056
2509.28964,0.01047
2507.22947,0.01032
2505.16929,0.01031
2503.10912,0.01032
2501.04895,0.01029
2498.98878,0.01049
2496.92861,0.01091
2494.86843,0.01087
2492.80826,0.01050
2490.74809,0.01037
2488.68792,0.01030
2486.62775,0.01008
2484.56757,0.00991
2482.50740,0.00999
2480.44723,0.01018
2478.38706,0.01031
2476.32688,0.01053
2474.26671,0.01080
2472.20654,0.01082
2470.14637,0.01060
2468.08620,0.01051
2466.02602,0.01052
2463.96585,0.01066
2461.90568,0.01104
2459.84551,0.01119
2457.78534,0.01103
2455.72516,0.01080
2453.66499,0.01060
2451.60482,0.01074
2449.54465,0.01118
2447.48447,0.01124
2445.42430,0.01091
2443.36413,0.01087
2441.30396,0.01104
2439.24379,0.01103
2437.18361,0.01093
2435.12344,0.01076
2433.06327,0.01074
2431.00310,0.01097
2428.94293,0.01097
2426.88275,0.01084
2424.82258,0.01086
2422.76241,0.01077
2420.70224,0.01064
2418.64207,0.01071
2416.58189,0.01085
2414.52172,0.01102
2412.46155,0.01094
2410.40138,0.01056
2408.34120,0.01061
2406.28103,0.01109
2404.22086,0.01120
2402.16069,0.01094
2400.10052,0.01091
2398.04034,0.01111
2395.98017,0.01122
2393.92000,0.01111
2391.85983,0.01099
2389.79966,0.01102
2387.73948,0.01102
2385.67931,0.01094
2383.61914,0.01086
2381.55897,0.01069
2379.49880,0.01015
2377.43862,0.00933
2375.37845,0.00922
2373.31828,0.01024
2371.25811,0.01166
2369.19793,0.01281
2367.13776,0.01303
2365.07759,0.01150
2363.01742,0.00864
2360.95725,0.00571
2358.89707,0.00597
2356.83690,0.00816
2354.77673,0.00910
2352.71656,0.00887
2350.65639,0.00751
2348.59621,0.00667
2346.53604,0.00801
2344.47587,0.00919
2342.41570,0.01128
2340.35552,0.01224
2338.29535,0.01085
2336.23518,0.00968
2334.17501,0.00967
2332.11484,0.01002
2330.05466,0.00958
2327.99449,0.00887
2325.93432,0.00878
2323.87415,0.00978
2321.81398,0.01037
2319.75380,0.01022
2317.69363,0.00984
2315.63346,0.01004
2313.57329,0.01047
2311.51312,0.01068
2309.45294,0.01063
2307.39277,0.01046
2305.33260,0.01024
2303.27243,0.01015
2301.21225,0.01040
2299.15208,0.01057
2297.09191,0.01061
2295.03174,0.01073
2292.97157,0.01072
2290.91139,0.01040
2288.85122,0.01011
2286.79105,0.01014
2284.73088,0.01028
2282.67071,0.01024
2280.61053,0.01004
2278.55036,0.00992
2276.49019,0.00994
2274.43002,0.00999
2272.36984,0.01019
2270.30967,0.01062
2268.24950,0.01094
2266.18933,0.01071
2264.12916,0.01001
2262.06898,0.00953
2260.00881,0.00978
2257.94864,0.01029
2255.88847,0.01017
2253.82830,0.00924
2251.76812,0.00864
2249.70795,0.00903
2247.64778,0.00925
2245.58761,0.00911
2243.52744,0.00930
2241.46726,0.00938
2239.40709,0.00927
2237.34692,0.00934
2235.28675,0.00967
2233.22657,0.00994
2231.16640,0.00977
2229.10623,0.00915
2227.04606,0.00829
2224.98589,0.00760
2222.92571,0.00789
2220.86554,0.00899
2218.80537,0.00907
2216.74520,0.00814
2214.68503,0.00817
2212.62485,0.00844
2210.56468,0.00745
2208.50451,0.00720
2206.44434,0.00887
2204.38417,0.01018
2202.32399,0.01002
2200.26382,0.00944
2198.20365,0.00863
2196.14348,0.00777
2194.08330,0.00763
2192.02313,0.00749
2189.96296,0.00664
2187.90279,0.00659
2185.84262,0.00734
2183.78244,0.00749
2181.72227,0.00765
2179.66210,0.00797
2177.60193,0.00763
2175.54176,0.00705
2173.48158,0.00738
2171.42141,0.00896
2169.36124,0.01032
2167.30107,0.00954
2165.24089,0.00727
2163.18072,0.00519
2161.12055,0.00346
2159.06038,0.00374
2157.00021,0.00636
2154.94003,0.00810
2152.87986,0.00752
2150.81969,0.00565
2148.75952,0.00487
2146.69935,0.00585
2144.63917,0.00724
2142.57900,0.00836
2140.51883,0.00838
2138.45866,0.00702
2136.39849,0.00593
2134.33831,0.00630
2132.27814,0.00695
2130.21797,0.00710
2128.15780,0.00713
2126.09762,0.00681
2124.03745,0.00683
2121.97728,0.00770
2119.91711,0.00815
2117.85694,0.00776
2115.79676,0.00756
2113.73659,0.00813
2111.67642,0.00903
2109.61625,0.00929
2107.55608,0.00918
2105.49590,0.00950
2103.43573,0.00920
2101.37556,0.00818
2099.31539,0.00806
2097.25521,0.00830
2095.19504,0.00744
2093.13487,0.00637
2091.07470,0.00677
2089.01453,0.00849
2086.95435,0.00983
2084.89418,0.00964
2082.83401,0.00867
2080.77384,0.00838
2078.71367,0.00872
2076.65349,0.00892
2074.59332,0.00890
2072.53315,0.00867
2070.47298,0.00823
2068.41281,0.00813
2066.35263,0.00820
2064.29246,0.00746
2062.23229,0.00620
2060.17212,0.00591
2058.11194,0.00653
2056.05177,0.00717
2053.99160,0.00760
2051.93143,0.00756
2049.87126,0.00746
2047.81108,0.00772
2045.75091,0.00774
2043.69074,0.00725
2041.63057,0.00717
2039.57040,0.00758
2037.51022,0.00762
2035.45005,0.00748
2033.38988,0.00738
2031.32971,0.00696
2029.26954,0.00671
2027.20936,0.00751
2025.14919,0.00834
2023.08902,0.00789
2021.02885,0.00655
2018.96867,0.00574
2016.90850,0.00630
2014.84833,0.00700
2012.78816,0.00719
2010.72799,0.00676
2008.66781,0.00508
2006.60764,0.00378
2004.54747,0.00454
2002.48730,0.00615
2000.42713,0.00678
1998.36695,0.00642
1996.30678,0.00644
1994.24661,0.00725
1992.18644,0.00762
1990.12626,0.00726
1988.06609,0.00761
1986.00592,0.00850
1983.94575,0.00783
1981.88558,0.00562
1979.82540,0.00429
1977.76523,0.00402
1975.70506,0.00381
1973.64489,0.00459
1971.58472,0.00641
1969.52454,0.00703
1967.46437,0.00578
1965.40420,0.00420
1963.34403,0.00367
1961.28386,0.00457
1959.22368,0.00587
1957.16351,0.00639
1955.10334,0.00630
1953.04317,0.00672
1950.98299,0.00751
1948.92282,0.00734
1946.86265,0.00663
1944.80248,0.00658
1942.74231,0.00683
1940.68213,0.00652
1938.62196,0.00599
1936.56179,0.00606
1934.50162,0.00665
1932.44145,0.00714
1930.38127,0.00722
1928.32110,0.00700
1926.26093,0.00682
1924.20076,0.00708
1922.14059,0.00766
1920.08041,0.00798
1918.02024,0.00793
1915.96007,0.00796
1913.89990,0.00829
1911.83972,0.00811
1909.77955,0.00705
1907.71938,0.00626
1905.65921,0.00645
1903.59904,0.00691
1901.53886,0.00683
1899.47869,0.00634
1897.41852,0.00614
1895.35835,0.00639
1893.29818,0.00673
1891.23800,0.00684
1889.17783,0.00668
1887.11766,0.00662
1885.05749,0.00684
1882.99731,0.00702
1880.93714,0.00703
1878.87697,0.00695
1876.81680,0.00671
1874.75663,0.00654
1872.69645,0.00678
1870.63628,0.00716
1868.57611,0.00738
1866.51594,0.00742
1864.45577,0.00733
1862.39559,0.00726
1860.33542,0.00717
1858.27525,0.00698
1856.21508,0.00687
1854.15491,0.00689
1852.09473,0.00677
1850.03456,0.00665
1847.97439,0.00683
1845.91422,0.00720
1843.85404,0.00731
1841.79387,0.00714
1839.73370,0.00699
1837.67353,0.00689
1835.61336,0.00682
1833.55318,0.00689
1831.49301,0.00716
1829.43284,0.00745
1827.37267,0.00751
1825.31250,0.00730
1823.25232,0.00702
1821.19215,0.00687
1819.13198,0.00688
1817.07181,0.00677
1815.01163,0.00644
1812.95146,0.00630
1810.89129,0.00658
1808.83112,0.00687
1806.77095,0.00688
1804.71077,0.00688
1802.65060,0.00710
1800.59043,0.00732
1798.53026,0.00739
1796.47009,0.00747
1794.40991,0.00754
1792.34974,0.00743
1790.28957,0.00720
1788.22940,0.00704
1786.16923,0.00699
1784.10905,0.00701
1782.04888,0.00709
1779.98871,0.00710
1777.92854,0.00701
1775.86836,0.00703
1773.80819,0.00729
1771.74802,0.00768
1769.68785,0.00783
1767.62768,0.00762
1765.56750,0.00740
1763.50733,0.00747
1761.44716,0.00768
1759.38699,0.00785
1757.32682,0.00796
1755.26664,0.00806
1753.20647,0.00824
1751.14630,0.00853
1749.08613,0.00887
1747.02596,0.00913
1744.96578,0.00921
1742.90561,0.00922
1740.84544,0.00939
1738.78527,0.00963
1736.72509,0.00972
1734.66492,0.00970
1732.60475,0.00959
1730.54458,0.00942
1728.48441,0.00943
1726.42423,0.00973
1724.36406,0.01010
1722.30389,0.01034
1720.24372,0.01063
1718.18355,0.01108
1716.12337,0.01135
1714.06320,0.01137
1712.00303,0.01132
1709.94286,0.01132
1707.88268,0.01146
1705.82251,0.01170
1703.76234,0.01200
1701.70217,0.01254
1699.64200,0.01316
1697.58182,0.01348
1695.52165,0.01347
1693.46148,0.01340
1691.40131,0.01362
1689.34114,0.01414
1687.28096,0.01479
1685.22079,0.01549
1683.16062,0.01590
1681.10045,0.01590
1679.04028,0.01594
1676.98010,0.01624
1674.91993,0.01666
1672.85976,0.01707
1670.79959,0.01749
1668.73941,0.01773
1666.67924,0.01775
1664.61907,0.01777
1662.55890,0.01784
1660.49873,0.01803
1658.43855,0.01842
1656.37838,0.01897
1654.31821,0.01948
1652.25804,0.01965
1650.19787,0.01977
1648.13769,0.02001
1646.07752,0.01992
1644.01735,0.01946
1641.95718,0.01922
1639.89701,0.01932
1637.83683,0.01950
1635.77666,0.01940
1633.71649,0.01896
1631.65632,0.01854
1629.59614,0.01832
1627.53597,0.01820
1625.47580,0.01795
1623.41563,0.01750
1621.35546,0.01708
1619.29528,0.01690
1617.23511,0.01658
1615.17494,0.01590
1613.11477,0.01541
1611.05460,0.01541
1608.99442,0.01550
1606.93425,0.01530
1604.87408,0.01495
1602.81391,0.01463
1600.75373,0.01435
1598.69356,0.01407
1596.63339,0.01376
1594.57322,0.01344
1592.51305,0.01317
1590.45287,0.01292
1588.39270,0.01266
1586.33253,0.01233
1584.27236,0.01197
1582.21219,0.01166
1580.15201,0.01150
1578.09184,0.01149
1576.03167,0.01139
1573.97150,0.01112
1571.91133,0.01095
1569.85115,0.01085
1567.79098,0.01065
1565.73081,0.01045
1563.67064,0.01041
1561.61046,0.01076
1559.55029,0.01135
1557.49012,0.01115
1555.42995,0.01008
1553.36978,0.00922
1551.30960,0.00906
1549.24943,0.00917
1547.18926,0.00924
1545.12909,0.00951
1543.06892,0.00997
1541.00874,0.01005
1538.94857,0.00940
1536.88840,0.00866
1534.82823,0.00824
1532.76805,0.00810
1530.70788,0.00816
1528.64771,0.00829
1526.58754,0.00834
1524.52737,0.00835
1522.46719,0.00851
1520.40702,0.00865
1518.34685,0.00845
1516.28668,0.00803
1514.22651,0.00768
1512.16633,0.00761
1510.10616,0.00786
1508.04599,0.00806
1505.98582,0.00765
1503.92565,0.00714
1501.86547,0.00712
1499.80530,0.00744
1497.74513,0.00756
1495.68496,0.00719
1493.62478,0.00690
1491.56461,0.00711
1489.50444,0.00742
1487.44427,0.00726
1485.38410,0.00681
1483.32392,0.00656
1481.26375,0.00660
1479.20358,0.00680
1477.14341,0.00711
1475.08324,0.00734
1473.02306,0.00727
1470.96289,0.00705
1468.90272,0.00700
1466.84255,0.00707
1464.78238,0.00713
1462.72220,0.00717
1460.66203,0.00738
1458.60186,0.00777
1456.54169,0.00798
1454.48151,0.00774
1452.42134,0.00744
1450.36117,0.00739
1448.30100,0.00744
1446.24083,0.00728
1444.18065,0.00702
1442.12048,0.00696
1440.06031,0.00720
1438.00014,0.00749
1435.93997,0.00753
1433.87979,0.00737
1431.81962,0.00710
1429.75945,0.00684
1427.69928,0.00678
1425.63910,0.00696
1423.57893,0.00724
1421.51876,0.00754
1419.45859,0.00769
1417.39842,0.00744
1415.33824,0.00702
1413.27807,0.00685
1411.21790,0.00697
1409.15773,0.00707
1407.09756,0.00698
1405.03738,0.00676
1402.97721,0.00659
1400.91704,0.00664
1398.85687,0.00688
1396.79670,0.00702
1394.73652,0.00692
1392.67635,0.00679
1390.61618,0.00683
1388.55601,0.00689
1386.49583,0.00673
1384.43566,0.00650
1382.37549,0.00644
1380.31532,0.00657
1378.25515,0.00687
1376.19497,0.00725
1374.13480,0.00745
1372.07463,0.00737
1370.01446,0.00725
1367.95429,0.00721
1365.89411,0.00717
1363.83394,0.00707
1361.77377,0.00685
1359.71360,0.00658
1357.65343,0.00651
1355.59325,0.00663
1353.53308,0.00667
1351.47291,0.00647
1349.41274,0.00624
1347.35256,0.00621
1345.29239,0.00635
1343.23222,0.00648
1341.17205,0.00652
1339.11188,0.00648
1337.05170,0.00635
1334.99153,0.00615
1332.93136,0.00604
1330.87119,0.00615
1328.81102,0.00627
1326.75084,0.00619
1324.69067,0.00603
1322.63050,0.00601
1320.57033,0.00614
1318.51015,0.00617
1316.44998,0.00598
1314.38981,0.00573
1312.32964,0.00559
1310.26947,0.00562
1308.20929,0.00571
1306.14912,0.00574
1304.08895,0.00573
1302.02878,0.00568
1299.96861,0.00555
1297.90843,0.00548
1295.84826,0.00558
1293.78809,0.00578
1291.72792,0.00590
1289.66775,0.00587
1287.60757,0.00578
1285.54740,0.00581
1283.48723,0.00596
1281.42706,0.00604
1279.36688,0.00595
1277.30671,0.00585
1275.24654,0.00595
1273.18637,0.00624
1271.12620,0.00644
1269.06602,0.00634
1267.00585,0.00611
1264.94568,0.00599
1262.88551,0.00596
1260.82534,0.00593
1258.76516,0.00598
1256.70499,0.00612
1254.64482,0.00620
1252.58465,0.00617
1250.52447,0.00613
1248.46430,0.00618
1246.40413,0.00625
1244.34396,0.00613
1242.28379,0.00585
1240.22361,0.00569
1238.16344,0.00570
1236.10327,0.00568
1234.04310,0.00569
1231.98293,0.00587
1229.92275,0.00599
1227.86258,0.00589
1225.80241,0.00585
1223.74224,0.00591
1221.68207,0.00579
1219.62189,0.00551
1217.56172,0.00539
1215.50155,0.00540
1213.44138,0.00538
1211.38120,0.00537
1209.32103,0.00531
1207.26086,0.00526
1205.20069,0.00532
1203.14052,0.00528
1201.08034,0.00517
1199.02017,0.00531
1196.96000,0.00555
1194.89983,0.00552
1192.83966,0.00530
1190.77948,0.00523
1188.71931,0.00528
1186.65914,0.00541
1184.59897,0.00569
1182.53880,0.00598
1180.47862,0.00621
1178.41845,0.00640
1176.35828,0.00657
1174.29811,0.00697
1172.23793,0.00768
1170.17776,0.00840
1168.11759,0.00889
1166.05742,0.00924
1163.99725,0.00957
1161.93707,0.00991
1159.87690,0.01028
1157.81673,0.01064
1155.75656,0.01093
1153.69639,0.01118
1151.63621,0.01151
1149.57604,0.01199
1147.51587,0.01247
1145.45570,0.01273
1143.39552,0.01299
1141.33535,0.01342
1139.27518,0.01389
1137.21501,0.01439
1135.15484,0.01486
1133.09466,0.01523
1131.03449,0.01563
1128.97432,0.01614
1126.91415,0.01671
1124.85398,0.01715
1122.79380,0.01754
1120.73363,0.01813
1118.67346,0.01885
1116.61329,0.01944
1114.55312,0.01991
1112.49294,0.02047
1110.43277,0.02126
1108.37260,0.02224
1106.31243,0.02322
1104.25225,0.02407
1102.19208,0.02483
1100.13191,0.02566
1098.07174,0.02648
1096.01157,0.02712
1093.95139,0.02767
1091.89122,0.02820
1089.83105,0.02867
1087.77088,0.02927
1085.71071,0.03009
1083.65053,0.03075
1081.59036,0.03111
1079.53019,0.03157
1077.47002,0.03217
1075.40985,0.03251
1073.34967,0.03264
1071.28950,0.03282
1069.22933,0.03318
1067.16916,0.03360
1065.10898,0.03383
1063.04881,0.03387
1060.98864,0.03394
1058.92847,0.03399
1056.86830,0.03383
1054.80812,0.03343
1052.74795,0.03294
1050.68778,0.03254
1048.62761,0.03212
1046.56744,0.03151
1044.50726,0.03094
1042.44709,0.03040
1040.38692,0.02969
1038.32675,0.02884
1036.26657,0.02806
1034.20640,0.02749
1032.14623,0.02703
1030.08606,0.02660
1028.02589,0.02627
1025.96571,0.02585
1023.90554,0.02517
1021.84537,0.02434
1019.78520,0.02352
1017.72503,0.02297
1015.66485,0.02269
1013.60468,0.02244
1011.54451,0.02219
1009.48434,0.02197
1007.42417,0.02178
1005.36399,0.02167
1003.30382,0.02162
1001.24365,0.02163
999.18348,0.02184
997.12330,0.02223
995.06313,0.02265
993.00296,0.02317
990.94279,0.02382
988.88262,0.02427
986.82244,0.02429
984.76227,0.02417
982.70210,0.02402
980.64193,0.02380
978.58176,0.02348
976.52158,0.02294
974.46141,0.02221
972.40124,0.02136
970.34107,0.02035
968.28089,0.01927
966.22072,0.01835
964.16055,0.01760
962.10038,0.01685
960.04021,0.01611
957.98003,0.01557
955.91986,0.01524
953.85969,0.01485
951.79952,0.01440
949.73935,0.01416
947.67917,0.01398
945.61900,0.01372
943.55883,0.01362
941.49866,0.01375
939.43849,0.01394
937.37831,0.01406
935.31814,0.01400
933.25797,0.01385
931.19780,0.01359
929.13762,0.01343
927.07745,0.01349
925.01728,0.01355
922.95711,0.01341
920.89694,0.01290
918.83676,0.01235
916.77659,0.01224
914.71642,0.01221
912.65625,0.01180
910.59608,0.01111
908.53590,0.01056
906.47573,0.01034
904.41556,0.01027
902.35539,0.01020
900.29522,0.01018
898.23504,0.01001
896.17487,0.00974
894.11470,0.00982
892.05453,0.01034
889.99435,0.01078
887.93418,0.01075
885.87401,0.01057
883.81384,0.01081
881.75367,0.01147
879.69349,0.01189
877.63332,0.01191
875.57315,0.01186
873.51298,0.01199
871.45281,0.01239
869.39263,0.01276
867.33246,0.01287
865.27229,0.01311
863.21212,0.01337
861.15194,0.01322
859.09177,0.01288
857.03160,0.01249
854.97143,0.01224
852.91126,0.01224
850.85108,0.01228
848.79091,0.01235
846.73074,0.01224
844.67057,0.01175
842.61040,0.01136
840.55022,0.01138
838.49005,0.01128
836.42988,0.01104
834.36971,0.01088
832.30954,0.01059
830.24936,0.01034
828.18919,0.01021
826.12902,0.01002
824.06885,0.00973
822.00867,0.00928
819.94850,0.00899
817.88833,0.00918
815.82816,0.00946
813.76799,0.00918
811.70781,0.00863
809.64764,0.00871
807.58747,0.00912
805.52730,0.00910
803.46713,0.00848
801.40695,0.00767
799.34678,0.00749
797.28661,0.00794
795.22644,0.00814
793.16627,0.00785
791.10609,0.00764
789.04592,0.00781
786.98575,0.00809
784.92558,0.00834
782.86540,0.00853
780.80523,0.00823
778.74506,0.00750
776.68489,0.00686
774.62472,0.00657
772.56454,0.00701
770.50437,0.00778
768.44420,0.00803
766.38403,0.00803
764.32386,0.00832
762.26368,0.00873
760.20351,0.00889
758.14334,0.00871
756.08317,0.00843
754.02299,0.00813
751.96282,0.00793
749.90265,0.00786
747.84248,0.00767
745.78231,0.00737
743.72213,0.00730
741.66196,0.00751
739.60179,0.00797
737.54162,0.00845
735.48145,0.00858
733.42127,0.00856
731.36110,0.00879
729.30093,0.00902
727.24076,0.00877
725.18059,0.00805
723.12041,0.00722
721.06024,0.00720
719.00007,0.00756
716.93990,0.00769
714.87972,0.00755
712.81955,0.00772
710.75938,0.00815
708.69921,0.00807
706.63904,0.00736
704.57886,0.00699
702.51869,0.00747
700.45852,0.00805
698.39835,0.00808
696.33818,0.00799
694.27800,0.00833
692.21783,0.00893
690.15766,0.00962
688.09749,0.01012
686.03731,0.00981
683.97714,0.00864
681.91697,0.00760
679.85680,0.00739
677.79663,0.00749
675.73645,0.00756
673.67628,0.00765
671.61611,0.00788
669.55594,0.01040
667.49577,0.01151
665.43559,0.00739
663.37542,0.00714
661.31525,0.00820
659.25508,0.00864
657.19491,0.00873
655.13473,0.00871
653.07456,0.00868
651.01439,0.00936
648.95422,0.01052
646.89404,0.01055
644.83387,0.00916
642.77370,0.00724
640.71353,0.00633
638.65336,0.00708
636.59318,0.00886
634.53301,0.00976
632.47284,0.00935
630.41267,0.00873
628.35250,0.00861
626.29232,0.00861
624.23215,0.00782
622.17198,0.00622
620.11181,0.00457
618.05164,0.00376
615.99146,0.00464
613.93129,0.00561
611.87112,0.00473
609.81095,0.00280
607.75077,0.00130
605.69060,0.00009
603.63043,0.00000
601.57026,0.00031
599.51009,0.00000
