3996.73391,0.00074
3994.67373,0.00047
3992.61356,0.00057
3990.55339,0.00093
3988.49322,0.00140
3986.43305,0.00172
3984.37287,0.00162
3982.31270,0.00134
3980.25253,0.00110
3978.19236,0.00095
3976.13219,0.00116
3974.07201,0.00171
3972.01184,0.00205
3969.95167,0.00193
3967.89150,0.00141
3965.83133,0.00060
3963.77115,0.00000
3961.71098,0.00011
3959.65081,0.00058
3957.59064,0.00092
3955.53046,0.00098
3953.47029,0.00093
3951.41012,0.00103
3949.34995,0.00121
3947.28978,0.00128
3945.22960,0.00120
3943.16943,0.00105
3941.10926,0.00084
3939.04909,0.00069
3936.98892,0.00077
3934.92874,0.00102
3932.86857,0.00126
3930.80840,0.00130
3928.74823,0.00100
3926.68805,0.00086
3924.62788,0.00126
3922.56771,0.00162
3920.50754,0.00133
3918.44737,0.00074
3916.38719,0.00049
3914.32702,0.00053
3912.26685,0.00051
3910.20668,0.00043
3908.14651,0.00039
3906.08633,0.00040
3904.02616,0.00059
3901.96599,0.00095
3899.90582,0.00131
3897.84565,0.00150
3895.78547,0.00133
3893.72530,0.00112
3891.66513,0.00117
3889.60496,0.00123
3887.54478,0.00106
3885.48461,0.00073
3883.42444,0.00049
3881.36427,0.00048
3879.30410,0.00045
3877.24392,0.00018
3875.18375,0.00000
3873.12358,0.00020
3871.06341,0.00069
3869.00324,0.00104
3866.94306,0.00077
3864.88289,0.00035
3862.82272,0.00068
3860.76255,0.00145
3858.70237,0.00160
3856.64220,0.00104
3854.58203,0.00071
3852.52186,0.00133
3850.46169,0.00193
3848.40151,0.00183
3846.34134,0.00136
3844.28117,0.00101
3842.22100,0.00102
3840.16083,0.00121
3838.10065,0.00118
3836.04048,0.00105
3833.98031,0.00108
3831.92014,0.00125
3829.85997,0.00134
3827.79979,0.00135
3825.73962,0.00145
3823.67945,0.00154
3821.61928,0.00143
3819.55910,0.00120
3817.49893,0.00090
3815.43876,0.00060
3813.37859,0.00028
3811.31842,0.00013
3809.25824,0.00039
3807.19807,0.00075
3805.13790,0.00067
3803.07773,0.00037
3801.01756,0.00034
3798.95738,0.00073
3796.89721,0.00131
3794.83704,0.00164
3792.77687,0.00162
3790.71670,0.00142
3788.65652,0.00096
3786.59635,0.00055
3784.53618,0.00068
3782.47601,0.00109
3780.41583,0.00110
3778.35566,0.00080
3776.29549,0.00066
3774.23532,0.00066
3772.17515,0.00052
3770.11497,0.00035
3768.05480,0.00039
3765.99463,0.00066
3763.93446,0.00094
3761.87429,0.00121
3759.81411,0.00145
3757.75394,0.00137
3755.69377,0.00090
3753.63360,0.00050
3751.57342,0.00065
3749.51325,0.00100
3747.45308,0.00071
3745.39291,0.00030
3743.33274,0.00055
3741.27256,0.00080
3739.21239,0.00045
3737.15222,0.00009
3735.09205,0.00054
3733.03188,0.00131
3730.97170,0.00149
3728.91153,0.00122
3726.85136,0.00099
3724.79119,0.00118
3722.73102,0.00170
3720.67084,0.00201
3718.61067,0.00185
3716.55050,0.00112
3714.49033,0.00036
3712.43015,0.00045
3710.36998,0.00131
3708.30981,0.00194
3706.24964,0.00177
3704.18947,0.00122
3702.12929,0.00107
3700.06912,0.00128
3698.00895,0.00129
3695.94878,0.00115
3693.88861,0.00103
3691.82843,0.00088
3689.76826,0.00089
3687.70809,0.00106
3685.64792,0.00120
3683.58775,0.00128
3681.52757,0.00139
3679.46740,0.00165
3677.40723,0.00212
3675.34706,0.00267
3673.28688,0.00290
3671.22671,0.00266
3669.16654,0.00231
3667.10637,0.00205
3665.04620,0.00182
3662.98602,0.00151
3660.92585,0.00102
3658.86568,0.00056
3656.80551,0.00061
3654.74534,0.00095
3652.68516,0.00087
3650.62499,0.00091
3648.56482,0.00225
3646.50465,0.00396
3644.44447,0.00439
3642.38430,0.00379
3640.32413,0.00330
3638.26396,0.00344
3636.20379,0.00380
3634.14361,0.00399
3632.08344,0.00412
3630.02327,0.00441
3627.96310,0.00457
3625.90293,0.00424
3623.84275,0.00399
3621.78258,0.00431
3619.72241,0.00514
3617.66224,0.00610
3615.60207,0.00668
3613.54189,0.00684
3611.48172,0.00692
3609.42155,0.00687
3607.36138,0.00664
3605.30120,0.00650
3603.24103,0.00674
3601.18086,0.00726
3599.12069,0.00744
3597.06052,0.00715
3595.00034,0.00700
3592.94017,0.00715
3590.88000,0.00718
3588.81983,0.00726
3586.75966,0.00777
3584.69948,0.00835
3582.63931,0.00860
3580.57914,0.00871
3578.51897,0.00893
3576.45879,0.00919
3574.39862,0.00923
3572.33845,0.00891
3570.27828,0.00857
3568.21811,0.00888
3566.15793,0.00983
3564.09776,0.01063
3562.03759,0.01105
3559.97742,0.01129
3557.91725,0.01130
3555.85707,0.01106
3553.79690,0.01100
3551.73673,0.01124
3549.67656,0.01142
3547.61639,0.01162
3545.55621,0.01201
3543.49604,0.01241
3541.43587,0.01272
3539.37570,0.01286
3537.31552,0.01290
3535.25535,0.01313
3533.19518,0.01359
3531.13501,0.01404
3529.07484,0.01443
3527.01466,0.01478
3524.95449,0.01502
3522.89432,0.01512
3520.83415,0.01518
3518.77398,0.01511
3516.71380,0.01500
3514.65363,0.01507
3512.59346,0.01514
3510.53329,0.01525
3508.47312,0.01566
3506.41294,0.01620
3504.35277,0.01650
3502.29260,0.01662
3500.23243,0.01686
3498.17225,0.01716
3496.11208,0.01738
3494.05191,0.01762
3491.99174,0.01790
3489.93157,0.01800
3487.87139,0.01796
3485.81122,0.01805
3483.75105,0.01826
3481.69088,0.01843
3479.63071,0.01838
3477.57053,0.01817
3475.51036,0.01821
3473.45019,0.01847
3471.39002,0.01881
3469.32984,0.01908
3467.26967,0.01912
3465.20950,0.01931
3463.14933,0.01985
3461.08916,0.02022
3459.02898,0.02015
3456.96881,0.02006
3454.90864,0.02015
3452.84847,0.02035
3450.78830,0.02061
3448.72812,0.02075
3446.66795,0.02071
3444.60778,0.02081
3442.54761,0.02098
3440.48744,0.02094
3438.42726,0.02089
3436.36709,0.02115
3434.30692,0.02171
3432.24675,0.02229
3430.18657,0.02257
3428.12640,0.02252
3426.06623,0.02242
3424.00606,0.02234
3421.94589,0.02228
3419.88571,0.02229
3417.82554,0.02237
3415.76537,0.02242
3413.70520,0.02246
3411.64503,0.02258
3409.58485,0.02272
3407.52468,0.02282
3405.46451,0.02302
3403.40434,0.02339
3401.34416,0.02388
3399.28399,0.02399
3397.22382,0.02368
3395.16365,0.02358
3393.10348,0.02388
3391.04330,0.02407
3388.98313,0.02388
3386.92296,0.02359
3384.86279,0.02363
3382.80262,0.02394
3380.74244,0.02418
3378.68227,0.02438
3376.62210,0.02471
3374.56193,0.02507
3372.50176,0.02530
3370.44158,0.02544
3368.38141,0.02552
3366.32124,0.02542
3364.26107,0.02526
3362.20089,0.02526
3360.14072,0.02520
3358.08055,0.02502
3356.02038,0.02503
3353.96021,0.02521
3351.90003,0.02526
3349.83986,0.02525
3347.77969,0.02545
3345.71952,0.02573
3343.65935,0.02600
3341.59917,0.02630
3339.53900,0.02642
3337.47883,0.02648
3335.41866,0.02658
3333.35849,0.02665
3331.29831,0.02680
3329.23814,0.02668
3327.17797,0.02626
3325.11780,0.02616
3323.05762,0.02629
3320.99745,0.02638
3318.93728,0.02649
3316.87711,0.02675
3314.81694,0.02722
3312.75676,0.02739
3310.69659,0.02696
3308.63642,0.02640
3306.57625,0.02624
3304.51608,0.02652
3302.45590,0.02669
3300.39573,0.02646
3298.33556,0.02618
3296.27539,0.02632
3294.21521,0.02696
3292.15504,0.02750
3290.09487,0.02747
3288.03470,0.02737
3285.97453,0.02762
3283.91435,0.02769
3281.85418,0.02734
3279.79401,0.02716
3277.73384,0.02739
3275.67367,0.02768
3273.61349,0.02765
3271.55332,0.02736
3269.49315,0.02717
3267.43298,0.02714
3265.37281,0.02712
3263.31263,0.02709
3261.25246,0.02709
3259.19229,0.02721
3257.13212,0.02741
3255.07194,0.02755
3253.01177,0.02767
3250.95160,0.02780
3248.89143,0.02791
3246.83126,0.02808
3244.77108,0.02830
3242.71091,0.02836
3240.65074,0.02827
3238.59057,0.02814
3236.53040,0.02796
3234.47022,0.02773
3232.41005,0.02759
3230.34988,0.02779
3228.28971,0.02813
3226.22954,0.02821
3224.16936,0.02821
3222.10919,0.02831
3220.04902,0.02822
3217.98885,0.02792
3215.92867,0.02772
3213.86850,0.02770
3211.80833,0.02785
3209.74816,0.02815
3207.68799,0.02823
3205.62781,0.02783
3203.56764,0.02725
3201.50747,0.02700
3199.44730,0.02733
3197.38713,0.02789
3195.32695,0.02807
3193.26678,0.02795
3191.20661,0.02786
3189.14644,0.02767
3187.08626,0.02745
3185.02609,0.02754
3182.96592,0.02793
3180.90575,0.02819
3178.84558,0.02800
3176.78540,0.02761
3174.72523,0.02738
3172.66506,0.02731
3170.60489,0.02724
3168.54472,0.02716
3166.48454,0.02721
3164.42437,0.02716
3162.36420,0.02689
3160.30403,0.02668
3158.24386,0.02662
3156.18368,0.02663
3154.12351,0.02671
3152.06334,0.02680
3150.00317,0.02694
3147.94299,0.02706
3145.88282,0.02684
3143.82265,0.02638
3141.76248,0.02606
3139.70231,0.02590
3137.64213,0.02569
3135.58196,0.02560
3133.52179,0.02586
3131.46162,0.02616
3129.40145,0.02611
3127.34127,0.02582
3125.28110,0.02560
3123.22093,0.02551
3121.16076,0.02549
3119.10058,0.02545
3117.04041,0.02538
3114.98024,0.02529
3112.92007,0.02518
3110.85990,0.02519
3108.79972,0.02522
3106.73955,0.02501
3104.67938,0.02464
3102.61921,0.02439
3100.55904,0.02426
3098.49886,0.02404
3096.43869,0.02379
3094.37852,0.02393
3092.31835,0.02431
3090.25818,0.02438
3088.19800,0.02424
3086.13783,0.02411
3084.07766,0.02394
3082.01749,0.02368
3079.95731,0.02343
3077.89714,0.02334
3075.83697,0.02336
3073.77680,0.02337
3071.71663,0.02349
3069.65645,0.02356
3067.59628,0.02325
3065.53611,0.02284
3063.47594,0.02284
3061.41577,0.02311
3059.35559,0.02309
3057.29542,0.02263
3055.23525,0.02211
3053.17508,0.02194
3051.11491,0.02205
3049.05473,0.02207
3046.99456,0.02199
3044.93439,0.02200
3042.87422,0.02202
3040.81404,0.02187
3038.75387,0.02155
3036.69370,0.02131
3034.63353,0.02126
3032.57336,0.02142
3030.51318,0.02154
3028.45301,0.02130
3026.39284,0.02098
3024.33267,0.02093
3022.27250,0.02089
3020.21232,0.02058
3018.15215,0.02023
3016.09198,0.02016
3014.03181,0.02035
3011.97163,0.02051
3009.91146,0.02041
3007.85129,0.02013
3005.79112,0.01991
3003.73095,0.01981
3001.67077,0.01973
2999.61060,0.01965
2997.55043,0.01955
2995.49026,0.01942
2993.43009,0.01933
2991.36991,0.01926
2989.30974,0.01909
2987.24957,0.01870
2985.18940,0.01839
2983.12923,0.01843
2981.06905,0.01858
2979.00888,0.01859
2976.94871,0.01850
2974.88854,0.01842
2972.82836,0.01837
2970.76819,0.01834
2968.70802,0.01837
2966.64785,0.01845
2964.58768,0.01849
2962.52750,0.01830
2960.46733,0.01805
2958.40716,0.01797
2956.34699,0.01794
2954.28682,0.01782
2952.22664,0.01774
2950.16647,0.01779
2948.10630,0.01771
2946.04613,0.01750
2943.98596,0.01754
2941.92578,0.01765
2939.86561,0.01751
2937.80544,0.01732
2935.74527,0.01734
2933.68509,0.01743
2931.62492,0.01734
2929.56475,0.01716
2927.50458,0.01696
2925.44441,0.01682
2923.38423,0.01672
2921.32406,0.01664
2919.26389,0.01657
2917.20372,0.01654
2915.14355,0.01677
2913.08337,0.01702
2911.02320,0.01697
2908.96303,0.01687
2906.90286,0.01692
2904.84268,0.01688
2902.78251,0.01655
2900.72234,0.01638
2898.66217,0.01654
2896.60200,0.01673
2894.54182,0.01691
2892.48165,0.01704
2890.42148,0.01691
2888.36131,0.01651
2886.30114,0.01612
2884.24096,0.01595
2882.18079,0.01585
2880.12062,0.01568
2878.06045,0.01564
2876.00028,0.01582
2873.94010,0.01605
2871.87993,0.01624
2869.81976,0.01640
2867.75959,0.01640
2865.69941,0.01607
2863.63924,0.01561
2861.57907,0.01537
2859.51890,0.01533
2857.45873,0.01526
2855.39855,0.01522
2853.33838,0.01512
2851.27821,0.01486
2849.21804,0.01480
2847.15787,0.01494
2845.09769,0.01497
2843.03752,0.01496
2840.97735,0.01509
2838.91718,0.01520
2836.85700,0.01500
2834.79683,0.01464
2832.73666,0.01447
2830.67649,0.01447
2828.61632,0.01449
2826.55614,0.01451
2824.49597,0.01444
2822.43580,0.01428
2820.37563,0.01430
2818.31546,0.01447
2816.25528,0.01440
2814.19511,0.01413
2812.13494,0.01403
2810.07477,0.01400
2808.01460,0.01396
2805.95442,0.01408
2803.89425,0.01423
2801.83408,0.01418
2799.77391,0.01399
2797.71373,0.01385
2795.65356,0.01385
2793.59339,0.01391
2791.53322,0.01385
2789.47305,0.01361
2787.41287,0.01342
2785.35270,0.01343
2783.29253,0.01344
2781.23236,0.01340
2779.17219,0.01341
2777.11201,0.01339
2775.05184,0.01344
2772.99167,0.01348
2770.93150,0.01324
2768.87133,0.01285
2766.81115,0.01262
2764.75098,0.01263
2762.69081,0.01275
2760.63064,0.01281
2758.57046,0.01274
2756.51029,0.01263
2754.45012,0.01261
2752.38995,0.01258
2750.32978,0.01244
2748.26960,0.01233
2746.20943,0.01223
2744.14926,0.01214
2742.08909,0.01203
2740.02892,0.01186
2737.96874,0.01179
2735.90857,0.01194
2733.84840,0.01207
2731.78823,0.01200
2729.72805,0.01190
2727.66788,0.01176
2725.60771,0.01162
2723.54754,0.01163
2721.48737,0.01162
2719.42719,0.01152
2717.36702,0.01146
2715.30685,0.01136
2713.24668,0.01120
2711.18651,0.01116
2709.12633,0.01108
2707.06616,0.01094
2705.00599,0.01090
2702.94582,0.01085
2700.88565,0.01080
2698.82547,0.01082
2696.76530,0.01085
2694.70513,0.01084
2692.64496,0.01063
2690.58478,0.01032
2688.52461,0.01015
2686.46444,0.01010
2684.40427,0.01011
2682.34410,0.01024
2680.28392,0.01034
2678.22375,0.01027
2676.16358,0.01015
2674.10341,0.01001
2672.04324,0.00984
2669.98306,0.00976
2667.92289,0.00974
2665.86272,0.00980
2663.80255,0.00996
2661.74238,0.00996
2659.68220,0.00974
2657.62203,0.00945
2655.56186,0.00909
2653.50169,0.00886
2651.44151,0.00892
2649.38134,0.00907
2647.32117,0.00903
2645.26100,0.00890
2643.20083,0.00884
2641.14065,0.00870
2639.08048,0.00863
2637.02031,0.00871
2634.96014,0.00876
2632.89997,0.00872
2630.83979,0.00854
2628.77962,0.00826
2626.71945,0.00815
2624.65928,0.00815
2622.59910,0.00802
2620.53893,0.00794
2618.47876,0.00805
2616.41859,0.00809
2614.35842,0.00777
2612.29824,0.00736
2610.23807,0.00723
2608.17790,0.00735
2606.11773,0.00757
2604.05756,0.00778
2601.99738,0.00770
2599.93721,0.00736
2597.87704,0.00738
2595.81687,0.00771
2593.75670,0.00773
2591.69652,0.00743
2589.63635,0.00717
2587.57618,0.00699
2585.51601,0.00674
2583.45583,0.00657
2581.39566,0.00680
2579.33549,0.00731
2577.27532,0.00761
2575.21515,0.00735
2573.15497,0.00701
2571.09480,0.00694
2569.03463,0.00679
2566.97446,0.00667
2564.91429,0.00693
2562.85411,0.00700
2560.79394,0.00666
2558.73377,0.00651
2556.67360,0.00668
2554.61342,0.00695
2552.55325,0.00727
2550.49308,0.00739
2548.43291,0.00718
2546.37274,0.00689
2544.31256,0.00661
2542.25239,0.00659
2540.19222,0.00680
2538.13205,0.00685
2536.07188,0.00682
2534.01170,0.00676
2531.95153,0.00667
2529.89136,0.00660
2527.83119,0.00652
2525.77102,0.00659
2523.71084,0.00695
2521.65067,0.00710
2519.59050,0.00698
2517.53033,0.00699
2515.47015,0.00708
2513.40998,0.00730
2511.34981,0.00729
2509.28964,0.00704
2507.22947,0.00710
2505.16929,0.00725
2503.10912,0.00717
2501.04895,0.00707
2498.98878,0.00711
2496.92861,0.00710
2494.86843,0.00707
2492.80826,0.00716
2490.74809,0.00729
2488.68792,0.00727
2486.62775,0.00722
2484.56757,0.00752
2482.50740,0.00779
2480.44723,0.00767
2478.38706,0.00754
2476.32688,0.00772
2474.26671,0.00791
2472.20654,0.00774
2470.14637,0.00761
2468.08620,0.00782
2466.02602,0.00789
2463.96585,0.00766
2461.90568,0.00770
2459.84551,0.00816
2457.78534,0.00844
2455.72516,0.00823
2453.66499,0.00807
2451.60482,0.00820
2449.54465,0.00816
2447.48447,0.00775
2445.42430,0.00745
2443.36413,0.00746
2441.30396,0.00745
2439.24379,0.00738
2437.18361,0.00749
2435.12344,0.00777
2433.06327,0.00784
2431.00310,0.00783
2428.94293,0.00795
2426.88275,0.00805
2424.82258,0.00820
2422.76241,0.00833
2420.70224,0.00821
2418.64207,0.00810
2416.58189,0.00821
2414.52172,0.00836
2412.46155,0.00835
2410.40138,0.00816
2408.34120,0.00810
2406.28103,0.00831
2404.22086,0.00845
2402.16069,0.00839
2400.10052,0.00838
2398.04034,0.00841
2395.98017,0.00845
2393.92000,0.00829
2391.85983,0.00809
2389.79966,0.00808
2387.73948,0.00823
2385.67931,0.00834
2383.61914,0.00827
2381.55897,0.00809
2379.49880,0.00807
2377.43862,0.00831
2375.37845,0.00866
2373.31828,0.00870
2371.25811,0.00853
2369.19793,0.00852
2367.13776,0.00859
2365.07759,0.00906
2363.01742,0.01055
2360.95725,0.01121
2358.89707,0.01074
2356.83690,0.00957
2354.77673,0.00879
2352.71656,0.00845
2350.65639,0.00739
2348.59621,0.00681
2346.53604,0.00829
2344.47587,0.00887
2342.41570,0.00902
2340.35552,0.00931
2338.29535,0.00949
2336.23518,0.00912
2334.17501,0.00791
2332.11484,0.00697
2330.05466,0.00705
2327.99449,0.00807
2325.93432,0.00866
2323.87415,0.00835
2321.81398,0.00759
2319.75380,0.00774
2317.69363,0.00802
2315.63346,0.00797
2313.57329,0.00777
2311.51312,0.00784
2309.45294,0.00816
2307.39277,0.00820
2305.33260,0.00804
2303.27243,0.00807
2301.21225,0.00820
2299.15208,0.00799
2297.09191,0.00772
2295.03174,0.00782
2292.97157,0.00793
2290.91139,0.00761
2288.85122,0.00711
2286.79105,0.00684
2284.73088,0.00702
2282.67071,0.00737
2280.61053,0.00734
2278.55036,0.00692
2276.49019,0.00654
2274.43002,0.00645
2272.36984,0.00646
2270.30967,0.00623
2268.24950,0.00605
2266.18933,0.00603
2264.12916,0.00594
2262.06898,0.00626
2260.00881,0.00709
2257.94864,0.00755
2255.88847,0.00740
2253.82830,0.00668
2251.76812,0.00552
2249.70795,0.00506
2247.64778,0.00601
2245.58761,0.00705
2243.52744,0.00707
2241.46726,0.00643
2239.40709,0.00579
2237.34692,0.00566
2235.28675,0.00606
2233.22657,0.00628
2231.16640,0.00650
2229.10623,0.00703
2227.04606,0.00683
2224.98589,0.00576
2222.92571,0.00520
2220.86554,0.00522
2218.80537,0.00500
2216.74520,0.00459
2214.68503,0.00468
2212.62485,0.00525
2210.56468,0.00548
2208.50451,0.00509
2206.44434,0.00477
2204.38417,0.00452
2202.32399,0.00394
2200.26382,0.00384
2198.20365,0.00455
2196.14348,0.00500
2194.08330,0.00462
2192.02313,0.00436
2189.96296,0.00526
2187.90279,0.00632
2185.84262,0.00618
2183.78244,0.00525
2181.72227,0.00452
2179.66210,0.00384
2177.60193,0.00232
2175.54176,0.00110
2173.48158,0.00248
2171.42141,0.00525
2169.36124,0.00590
2167.30107,0.00463
2165.24089,0.00415
2163.18072,0.00377
2161.12055,0.00249
2159.06038,0.00208
2157.00021,0.00315
2154.94003,0.00350
2152.87986,0.00287
2150.81969,0.00293
2148.75952,0.00321
2146.69935,0.00338
2144.63917,0.00392
2142.57900,0.00437
2140.51883,0.00426
2138.45866,0.00354
2136.39849,0.00261
2134.33831,0.00238
2132.27814,0.00310
2130.21797,0.00378
2128.15780,0.00385
2126.09762,0.00361
2124.03745,0.00328
2121.97728,0.00319
2119.91711,0.00365
2117.85694,0.00417
2115.79676,0.00384
2113.73659,0.00328
2111.67642,0.00373
2109.61625,0.00449
2107.55608,0.00453
2105.49590,0.00420
2103.43573,0.00411
2101.37556,0.00441
2099.31539,0.00435
2097.25521,0.00375
2095.19504,0.00337
2093.13487,0.00349
2091.07470,0.00402
2089.01453,0.00450
2086.95435,0.00427
2084.89418,0.00401
2082.83401,0.00410
2080.77384,0.00398
2078.71367,0.00385
2076.65349,0.00373
2074.59332,0.00368
2072.53315,0.00426
2070.47298,0.00478
2068.41281,0.00412
2066.35263,0.00304
2064.29246,0.00262
2062.23229,0.00285
2060.17212,0.00364
2058.11194,0.00434
2056.05177,0.00403
2053.99160,0.00358
2051.93143,0.00379
2049.87126,0.00376
2047.81108,0.00359
2045.75091,0.00363
2043.69074,0.00311
2041.63057,0.00217
2039.57040,0.00213
2037.51022,0.00304
2035.45005,0.00322
2033.38988,0.00268
2031.32971,0.00282
2029.26954,0.00315
2027.20936,0.00288
2025.14919,0.00247
2023.08902,0.00216
2021.02885,0.00223
2018.96867,0.00271
2016.90850,0.00263
2014.84833,0.00210
2012.78816,0.00188
2010.72799,0.00205
2008.66781,0.00226
2006.60764,0.00222
2004.54747,0.00229
2002.48730,0.00281
2000.42713,0.00380
1998.36695,0.00474
1996.30678,0.00472
1994.24661,0.00353
1992.18644,0.00243
1990.12626,0.00208
1988.06609,0.00236
1986.00592,0.00310
1983.94575,0.00279
1981.88558,0.00180
1979.82540,0.00219
1977.76523,0.00235
1975.70506,0.00074
1973.64489,0.00000
1971.58472,0.00092
1969.52454,0.00149
1967.46437,0.00153
1965.40420,0.00186
1963.34403,0.00260
1961.28386,0.00338
1959.22368,0.00394
1957.16351,0.00468
1955.10334,0.00478
1953.04317,0.00320
1950.98299,0.00133
1948.92282,0.00067
1946.86265,0.00105
1944.80248,0.00199
1942.74231,0.00263
1940.68213,0.00270
1938.62196,0.00289
1936.56179,0.00310
1934.50162,0.00293
1932.44145,0.00245
1930.38127,0.00220
1928.32110,0.00239
1926.26093,0.00245
1924.20076,0.00222
1922.14059,0.00240
1920.08041,0.00298
1918.02024,0.00305
1915.96007,0.00266
1913.89990,0.00275
1911.83972,0.00331
1909.77955,0.00343
1907.71938,0.00306
1905.65921,0.00298
1903.59904,0.00325
1901.53886,0.00349
1899.47869,0.00353
1897.41852,0.00328
1895.35835,0.00294
1893.29818,0.00284
1891.23800,0.00284
1889.17783,0.00265
1887.11766,0.00215
1885.05749,0.00172
1882.99731,0.00184
1880.93714,0.00236
1878.87697,0.00285
1876.81680,0.00343
1874.75663,0.00397
1872.69645,0.00383
1870.63628,0.00306
1868.57611,0.00249
1866.51594,0.00248
1864.45577,0.00268
1862.39559,0.00294
1860.33542,0.00325
1858.27525,0.00343
1856.21508,0.00332
1854.15491,0.00309
1852.09473,0.00295
1850.03456,0.00304
1847.97439,0.00346
1845.91422,0.00388
1843.85404,0.00378
1841.79387,0.00342
1839.73370,0.00327
1837.67353,0.00326
1835.61336,0.00321
1833.55318,0.00309
1831.49301,0.00307
1829.43284,0.00326
1827.37267,0.00354
1825.31250,0.00370
1823.25232,0.00360
1821.19215,0.00341
1819.13198,0.00338
1817.07181,0.00347
1815.01163,0.00349
1812.95146,0.00340
1810.89129,0.00325
1808.83112,0.00315
1806.77095,0.00320
1804.71077,0.00343
1802.65060,0.00371
1800.59043,0.00383
1798.53026,0.00371
1796.47009,0.00347
1794.40991,0.00337
1792.34974,0.00357
1790.28957,0.00379
1788.22940,0.00366
1786.16923,0.00341
1784.10905,0.00342
1782.04888,0.00368
1779.98871,0.00392
1777.92854,0.00392
1775.86836,0.00368
1773.80819,0.00343
1771.74802,0.00350
1769.68785,0.00393
1767.62768,0.00423
1765.56750,0.00410
1763.50733,0.00383
1761.44716,0.00383
1759.38699,0.00394
1757.32682,0.00403
1755.26664,0.00414
1753.20647,0.00419
1751.14630,0.00427
1749.08613,0.00456
1747.02596,0.00484
1744.96578,0.00493
1742.90561,0.00507
1740.84544,0.00528
1738.78527,0.00532
1736.72509,0.00530
1734.66492,0.00551
1732.60475,0.00578
1730.54458,0.00582
1728.48441,0.00562
1726.42423,0.00532
1724.36406,0.00527
1722.30389,0.00558
1720.24372,0.00585
1718.18355,0.00586
1716.12337,0.00590
1714.06320,0.00611
1712.00303,0.00628
1709.94286,0.00631
1707.88268,0.00634
1705.82251,0.00650
1703.76234,0.00662
1701.70217,0.00652
1699.64200,0.00667
1697.58182,0.00738
1695.52165,0.00806
1693.46148,0.00826
1691.40131,0.00824
1689.34114,0.00822
1687.28096,0.00818
1685.22079,0.00825
1683.16062,0.00859
1681.10045,0.00883
1679.04028,0.00893
1676.98010,0.00918
1674.91993,0.00965
1672.85976,0.01005
1670.79959,0.01021
1668.73941,0.01023
1666.67924,0.01014
1664.61907,0.01011
1662.55890,0.01037
1660.49873,0.01076
1658.43855,0.01097
1656.37838,0.01106
1654.31821,0.01120
1652.25804,0.01141
1650.19787,0.01139
1648.13769,0.01123
1646.07752,0.01112
1644.01735,0.01113
1641.95718,0.01119
1639.89701,0.01121
1637.83683,0.01113
1635.77666,0.01088
1633.71649,0.01051
1631.65632,0.01030
1629.59614,0.01027
1627.53597,0.01024
1625.47580,0.01007
1623.41563,0.00983
1621.35546,0.00963
1619.29528,0.00940
1617.23511,0.00922
1615.17494,0.00925
1613.11477,0.00925
1611.05460,0.00904
1608.99442,0.00876
1606.93425,0.00856
1604.87408,0.00842
1602.81391,0.00826
1600.75373,0.00802
1598.69356,0.00776
1596.63339,0.00757
1594.57322,0.00750
1592.51305,0.00744
1590.45287,0.00726
1588.39270,0.00693
1586.33253,0.00656
1584.27236,0.00634
1582.21219,0.00619
1580.15201,0.00592
1578.09184,0.00565
1576.03167,0.00557
1573.97150,0.00564
1571.91133,0.00570
1569.85115,0.00569
1567.79098,0.00554
1565.73081,0.00534
1563.67064,0.00508
1561.61046,0.00472
1559.55029,0.00442
1557.49012,0.00452
1555.42995,0.00467
1553.36978,0.00457
1551.30960,0.00438
1549.24943,0.00425
1547.18926,0.00411
1545.12909,0.00379
1543.06892,0.00335
1541.00874,0.00328
1538.94857,0.00364
1536.88840,0.00376
1534.82823,0.00378
1532.76805,0.00388
1530.70788,0.00377
1528.64771,0.00345
1526.58754,0.00312
1524.52737,0.00293
1522.46719,0.00289
1520.40702,0.00287
1518.34685,0.00285
1516.28668,0.00291
1514.22651,0.00292
1512.16633,0.00279
1510.10616,0.00271
1508.04599,0.00280
1505.98582,0.00285
1503.92565,0.00273
1501.86547,0.00261
1499.80530,0.00255
1497.74513,0.00249
1495.68496,0.00244
1493.62478,0.00235
1491.56461,0.00230
1489.50444,0.00228
1487.44427,0.00214
1485.38410,0.00198
1483.32392,0.00197
1481.26375,0.00199
1479.20358,0.00189
1477.14341,0.00182
1475.08324,0.00200
1473.02306,0.00222
1470.96289,0.00210
1468.90272,0.00178
1466.84255,0.00167
1464.78238,0.00182
1462.72220,0.00194
1460.66203,0.00200
1458.60186,0.00225
1456.54169,0.00256
1454.48151,0.00250
1452.42134,0.00230
1450.36117,0.00219
1448.30100,0.00214
1446.24083,0.00205
1444.18065,0.00188
1442.12048,0.00169
1440.06031,0.00149
1438.00014,0.00141
1435.93997,0.00165
1433.87979,0.00193
1431.81962,0.00197
1429.75945,0.00192
1427.69928,0.00195
1425.63910,0.00209
1423.57893,0.00223
1421.51876,0.00236
1419.45859,0.00249
1417.39842,0.00247
1415.33824,0.00231
1413.27807,0.00214
1411.21790,0.00200
1409.15773,0.00190
1407.09756,0.00188
1405.03738,0.00183
1402.97721,0.00168
1400.91704,0.00159
1398.85687,0.00170
1396.79670,0.00180
1394.73652,0.00169
1392.67635,0.00151
1390.61618,0.00141
1388.55601,0.00132
1386.49583,0.00120
1384.43566,0.00118
1382.37549,0.00131
1380.31532,0.00141
1378.25515,0.00142
1376.19497,0.00144
1374.13480,0.00150
1372.07463,0.00160
1370.01446,0.00177
1367.95429,0.00186
1365.89411,0.00185
1363.83394,0.00184
1361.77377,0.00177
1359.71360,0.00151
1357.65343,0.00116
1355.59325,0.00099
1353.53308,0.00106
1351.47291,0.00120
1349.41274,0.00119
1347.35256,0.00106
1345.29239,0.00097
1343.23222,0.00096
1341.17205,0.00101
1339.11188,0.00113
1337.05170,0.00120
1334.99153,0.00106
1332.93136,0.00083
1330.87119,0.00073
1328.81102,0.00074
1326.75084,0.00080
1324.69067,0.00091
1322.63050,0.00104
1320.57033,0.00120
1318.51015,0.00136
1316.44998,0.00144
1314.38981,0.00144
1312.32964,0.00140
1310.26947,0.00133
1308.20929,0.00137
1306.14912,0.00149
1304.08895,0.00151
1302.02878,0.00144
1299.96861,0.00147
1297.90843,0.00162
1295.84826,0.00181
1293.78809,0.00192
1291.72792,0.00197
1289.66775,0.00208
1287.60757,0.00214
1285.54740,0.00208
1283.48723,0.00199
1281.42706,0.00185
1279.36688,0.00173
1277.30671,0.00172
1275.24654,0.00176
1273.18637,0.00179
1271.12620,0.00180
1269.06602,0.00181
1267.00585,0.00177
1264.94568,0.00163
1262.88551,0.00159
1260.82534,0.00185
1258.76516,0.00203
1256.70499,0.00185
1254.64482,0.00158
1252.58465,0.00155
1250.52447,0.00167
1248.46430,0.00172
1246.40413,0.00168
1244.34396,0.00162
1242.28379,0.00147
1240.22361,0.00128
1238.16344,0.00120
1236.10327,0.00122
1234.04310,0.00125
1231.98293,0.00114
1229.92275,0.00089
1227.86258,0.00058
1225.80241,0.00027
1223.74224,0.00016
1221.68207,0.00036
1219.62189,0.00061
1217.56172,0.00058
1215.50155,0.00037
1213.44138,0.00022
1211.38120,0.00015
1209.32103,0.00004
1207.26086,0.00000
1205.20069,0.00005
1203.14052,0.00003
1201.08034,-0.00001
1199.02017,0.00008
1196.96000,0.00023
1194.89983,0.00038
1192.83966,0.00053
1190.77948,0.00077
1188.71931,0.00113
1186.65914,0.00144
1184.59897,0.00180
1182.53880,0.00227
1180.47862,0.00258
1178.41845,0.00286
1176.35828,0.00343
1174.29811,0.00406
1172.23793,0.00457
1170.17776,0.00500
1168.11759,0.00538
1166.05742,0.00584
1163.99725,0.00646
1161.93707,0.00710
1159.87690,0.00759
1157.81673,0.00807
1155.75656,0.00856
1153.69639,0.00891
1151.63621,0.00925
1149.57604,0.00973
1147.51587,0.01033
1145.45570,0.01096
1143.39552,0.01161
1141.33535,0.01230
1139.27518,0.01290
1137.21501,0.01336
1135.15484,0.01390
1133.09466,0.01465
1131.03449,0.01549
1128.97432,0.01626
1126.91415,0.01688
1124.85398,0.01754
1122.79380,0.01836
1120.73363,0.01929
1118.67346,0.02042
1116.61329,0.02154
1114.55312,0.02227
1112.49294,0.02271
1110.43277,0.02319
1108.37260,0.02393
1106.31243,0.02489
1104.25225,0.02579
1102.19208,0.02658
1100.13191,0.02727
1098.07174,0.02795
1096.01157,0.02866
1093.95139,0.02929
1091.89122,0.02982
1089.83105,0.03047
1087.77088,0.03121
1085.71071,0.03176
1083.65053,0.03222
1081.59036,0.03284
1079.53019,0.03347
1077.47002,0.03394
1075.40985,0.03426
1073.34967,0.03455
1071.28950,0.03487
1069.22933,0.03519
1067.16916,0.03548
1065.10898,0.03573
1063.04881,0.03586
1060.98864,0.03582
1058.92847,0.03563
1056.86830,0.03528
1054.80812,0.03485
1052.74795,0.03430
1050.68778,0.03362
1048.62761,0.03295
1046.56744,0.03221
1044.50726,0.03134
1042.44709,0.03058
1040.38692,0.02991
1038.32675,0.02916
1036.26657,0.02859
1034.20640,0.02809
1032.14623,0.02717
1030.08606,0.02617
1028.02589,0.02552
1025.96571,0.02493
1023.90554,0.02420
1021.84537,0.02341
1019.78520,0.02271
1017.72503,0.02207
1015.66485,0.02149
1013.60468,0.02128
1011.54451,0.02131
1009.48434,0.02122
1007.42417,0.02118
1005.36399,0.02136
1003.30382,0.02162
1001.24365,0.02185
999.18348,0.02223
997.12330,0.02278
995.06313,0.02343
993.00296,0.02407
990.94279,0.02460
988.88262,0.02503
986.82244,0.02543
984.76227,0.02587
982.70210,0.02631
980.64193,0.02653
978.58176,0.02640
976.52158,0.02616
974.46141,0.02577
972.40124,0.02498
970.34107,0.02401
968.28089,0.02318
966.22072,0.02242
964.16055,0.02167
962.10038,0.02098
960.04021,0.02035
957.98003,0.01972
955.91986,0.01907
953.85969,0.01852
951.79952,0.01797
949.73935,0.01729
947.67917,0.01668
945.61900,0.01624
943.55883,0.01596
941.49866,0.01586
939.43849,0.01593
937.37831,0.01609
935.31814,0.01616
933.25797,0.01604
931.19780,0.01567
929.13762,0.01519
927.07745,0.01497
925.01728,0.01505
922.95711,0.01514
920.89694,0.01513
918.83676,0.01494
916.77659,0.01453
914.71642,0.01401
912.65625,0.01343
910.59608,0.01302
908.53590,0.01294
906.47573,0.01275
904.41556,0.01227
902.35539,0.01199
900.29522,0.01209
898.23504,0.01235
896.17487,0.01247
894.11470,0.01233
892.05453,0.01245
889.99435,0.01294
887.93418,0.01327
885.87401,0.01342
883.81384,0.01360
881.75367,0.01377
879.69349,0.01417
877.63332,0.01486
875.57315,0.01530
873.51298,0.01530
871.45281,0.01521
869.39263,0.01543
867.33246,0.01597
865.27229,0.01640
863.21212,0.01637
861.15194,0.01610
859.09177,0.01586
857.03160,0.01581
854.97143,0.01574
852.91126,0.01555
850.85108,0.01566
848.79091,0.01592
846.73074,0.01557
844.67057,0.01477
842.61040,0.01428
840.55022,0.01393
838.49005,0.01326
836.42988,0.01260
834.36971,0.01208
832.30954,0.01159
830.24936,0.01131
828.18919,0.01121
826.12902,0.01084
824.06885,0.01013
822.00867,0.00953
819.94850,0.00957
817.88833,0.00986
815.82816,0.00973
813.76799,0.00949
811.70781,0.00915
809.64764,0.00854
807.58747,0.00803
805.52730,0.00771
803.46713,0.00764
801.40695,0.00765
799.34678,0.00717
797.28661,0.00646
795.22644,0.00612
793.16627,0.00625
791.10609,0.00669
789.04592,0.00701
786.98575,0.00712
784.92558,0.00702
782.86540,0.00668
780.80523,0.00637
778.74506,0.00605
776.68489,0.00564
774.62472,0.00521
772.56454,0.00497
770.50437,0.00505
768.44420,0.00528
766.38403,0.00557
764.32386,0.00576
762.26368,0.00567
760.20351,0.00534
758.14334,0.00517
756.08317,0.00516
754.02299,0.00484
751.96282,0.00439
749.90265,0.00407
747.84248,0.00397
745.78231,0.00427
743.72213,0.00447
741.66196,0.00406
739.60179,0.00325
737.54162,0.00251
735.48145,0.00216
733.42127,0.00225
731.36110,0.00285
729.30093,0.00390
727.24076,0.00447
725.18059,0.00411
723.12041,0.00361
721.06024,0.00345
719.00007,0.00328
716.93990,0.00296
714.87972,0.00252
712.81955,0.00235
710.75938,0.00255
708.69921,0.00284
706.63904,0.00300
704.57886,0.00293
702.51869,0.00294
700.45852,0.00298
698.39835,0.00246
696.33818,0.00191
694.27800,0.00230
692.21783,0.00323
690.15766,0.00378
688.09749,0.00356
686.03731,0.00276
683.97714,0.00223
681.91697,0.00217
679.85680,0.00188
677.79663,0.00161
675.73645,0.00171
673.67628,0.00126
671.61611,0.00000
669.55594,0.00119
667.49577,0.00347
665.43559,0.00106
663.37542,0.00150
661.31525,0.00209
659.25508,0.00191
657.19491,0.00204
655.13473,0.00256
653.07456,0.00275
651.01439,0.00230
648.95422,0.00190
646.89404,0.00228
644.83387,0.00273
642.77370,0.00262
640.71353,0.00332
638.65336,0.00487
636.59318,0.00508
634.53301,0.00337
632.47284,0.00173
630.41267,0.00131
628.35250,0.00173
626.29232,0.00250
624.23215,0.00294
622.17198,0.00257
620.11181,0.00234
618.05164,0.00194
615.99146,0.00134
613.93129,0.00140
611.87112,0.00084
609.81095,0.00000
607.75077,0.00046
605.69060,0.00087
603.63043,0.00009
601.57026,-0.00005
599.51009,0.00000
