3996.73391,-0.00211
3994.67373,-0.00208
3992.61356,-0.00226
3990.55339,-0.00235
3988.49322,-0.00199
3986.43305,-0.00131
3984.37287,-0.00087
3982.31270,-0.00086
3980.25253,-0.00115
3978.19236,-0.00129
3976.13219,-0.00091
3974.07201,-0.00024
3972.01184,0.00031
3969.95167,0.00040
3967.89150,0.00004
3965.83133,-0.00031
3963.77115,-0.00013
3961.71098,0.00023
3959.65081,0.00025
3957.59064,0.00012
3955.53046,-0.00000
3953.47029,0.00000
3951.41012,0.00036
3949.34995,0.00088
3947.28978,0.00103
3945.22960,0.00108
3943.16943,0.00126
3941.10926,0.00097
3939.04909,0.00039
3936.98892,0.00000
3934.92874,0.00018
3932.86857,0.00116
3930.80840,0.00174
3928.74823,0.00144
3926.68805,0.00143
3924.62788,0.00179
3922.56771,0.00161
3920.50754,0.00139
3918.44737,0.00145
3916.38719,0.00138
3914.32702,0.00121
3912.26685,0.00119
3910.20668,0.00090
3908.14651,0.00052
3906.08633,0.00073
3904.02616,0.00091
3901.96599,0.00084
3899.90582,0.00118
3897.84565,0.00092
3895.78547,0.00037
3893.72530,0.00117
3891.66513,0.00222
3889.60496,0.00159
3887.54478,0.00137
3885.48461,0.00178
3883.42444,0.00135
3881.36427,0.00156
3879.30410,0.00107
3877.24392,0.00000
3875.18375,0.00031
3873.12358,0.00087
3871.06341,0.00153
3869.00324,0.00139
3866.94306,0.00082
3864.88289,0.00148
3862.82272,0.00171
3860.76255,0.00116
3858.70237,0.00045
3856.64220,0.00068
3854.58203,0.00257
3852.52186,0.00291
3850.46169,0.00110
3848.40151,0.00028
3846.34134,0.00054
3844.28117,0.00089
3842.22100,0.00090
3840.16083,0.00131
3838.10065,0.00172
3836.04048,0.00138
3833.98031,0.00122
3831.92014,0.00137
3829.85997,0.00127
3827.79979,0.00122
3825.73962,0.00075
3823.67945,0.00093
3821.61928,0.00218
3819.55910,0.00166
3817.49893,0.00162
3815.43876,0.00209
3813.37859,0.00092
3811.31842,0.00014
3809.25824,0.00093
3807.19807,0.00179
3805.13790,0.00111
3803.07773,0.00150
3801.01756,0.00189
3798.95738,0.00077
3796.89721,0.00095
3794.83704,0.00128
3792.77687,0.00120
3790.71670,0.00111
3788.65652,0.00078
3786.59635,0.00083
3784.53618,0.00105
3782.47601,0.00108
3780.41583,0.00147
3778.35566,0.00140
3776.29549,0.00073
3774.23532,0.00036
3772.17515,0.00061
3770.11497,0.00107
3768.05480,0.00099
3765.99463,0.00086
3763.93446,0.00030
3761.87429,0.00046
3759.81411,0.00164
3757.75394,0.00156
3755.69377,0.00043
3753.63360,0.00090
3751.57342,0.00268
3749.51325,0.00201
3747.45308,0.00020
3745.39291,0.00099
3743.33274,0.00116
3741.27256,0.00000
3739.21239,0.00046
3737.15222,0.00236
3735.09205,0.00350
3733.03188,0.00284
3730.97170,0.00160
3728.91153,0.00129
3726.85136,0.00225
3724.79119,0.00278
3722.73102,0.00260
3720.67084,0.00226
3718.61067,0.00161
3716.55050,0.00053
3714.49033,0.00024
3712.43015,0.00139
3710.36998,0.00204
3708.30981,0.00129
3706.24964,0.00056
3704.18947,0.00086
3702.12929,0.00172
3700.06912,0.00191
3698.00895,0.00181
3695.94878,0.00154
3693.88861,0.00084
3691.82843,0.00073
3689.76826,0.00146
3687.70809,0.00159
3685.64792,0.00107
3683.58775,0.00106
3681.52757,0.00116
3679.46740,0.00117
3677.40723,0.00215
3675.34706,0.00280
3673.28688,0.00123
3671.22671,0.00168
3669.16654,0.00264
3667.10637,0.00169
3665.04620,0.00140
3662.98602,0.00182
3660.92585,0.00172
3658.86568,0.00157
3656.80551,0.00163
3654.74534,0.00090
3652.68516,0.00145
3650.62499,0.00424
3648.56482,0.00575
3646.50465,0.00466
3644.44447,0.00360
3642.38430,0.00384
3640.32413,0.00426
3638.26396,0.00438
3636.20379,0.00435
3634.14361,0.00411
3632.08344,0.00408
3630.02327,0.00536
3627.96310,0.00562
3625.90293,0.00410
3623.84275,0.00372
3621.78258,0.00514
3619.72241,0.00705
3617.66224,0.00731
3615.60207,0.00686
3613.54189,0.00707
3611.48172,0.00711
3609.42155,0.00724
3607.36138,0.00715
3605.30120,0.00659
3603.24103,0.00699
3601.18086,0.00829
3599.12069,0.00902
3597.06052,0.00909
3595.00034,0.00895
3592.94017,0.00812
3590.88000,0.00747
3588.81983,0.00830
3586.75966,0.00948
3584.69948,0.00989
3582.63931,0.01010
3580.57914,0.01021
3578.51897,0.01006
3576.45879,0.00982
3574.39862,0.00963
3572.33845,0.00946
3570.27828,0.00994
3568.21811,0.01145
3566.15793,0.01253
3564.09776,0.01264
3562.03759,0.01290
3559.97742,0.01309
3557.91725,0.01285
3555.85707,0.01269
3553.79690,0.01287
3551.73673,0.01277
3549.67656,0.01248
3547.61639,0.01295
3545.55621,0.01362
3543.49604,0.01380
3541.43587,0.01411
3539.37570,0.01463
3537.31552,0.01488
3535.25535,0.01473
3533.19518,0.01470
3531.13501,0.01527
3529.07484,0.01602
3527.01466,0.01641
3524.95449,0.01661
3522.89432,0.01683
3520.83415,0.01696
3518.77398,0.01709
3516.71380,0.01710
3514.65363,0.01711
3512.59346,0.01739
3510.53329,0.01777
3508.47312,0.01781
3506.41294,0.01786
3504.35277,0.01849
3502.29260,0.01887
3500.23243,0.01874
3498.17225,0.01899
3496.11208,0.01965
3494.05191,0.02004
3491.99174,0.02011
3489.93157,0.02028
3487.87139,0.02049
3485.81122,0.02037
3483.75105,0.02025
3481.69088,0.02035
3479.63071,0.02022
3477.57053,0.02008
3475.51036,0.02033
3473.45019,0.02059
3471.39002,0.02074
3469.32984,0.02112
3467.26967,0.02176
3465.20950,0.02232
3463.14933,0.02253
3461.08916,0.02238
3459.02898,0.02228
3456.96881,0.02248
3454.90864,0.02282
3452.84847,0.02311
3450.78830,0.02316
3448.72812,0.02315
3446.66795,0.02315
3444.60778,0.02321
3442.54761,0.02347
3440.48744,0.02350
3438.42726,0.02351
3436.36709,0.02373
3434.30692,0.02412
3432.24675,0.02469
3430.18657,0.02514
3428.12640,0.02508
3426.06623,0.02473
3424.00606,0.02470
3421.94589,0.02504
3419.88571,0.02527
3417.82554,0.02545
3415.76537,0.02567
3413.70520,0.02555
3411.64503,0.02532
3409.58485,0.02538
3407.52468,0.02553
3405.46451,0.02568
3403.40434,0.02609
3401.34416,0.02654
3399.28399,0.02666
3397.22382,0.02653
3395.16365,0.02653
3393.10348,0.02688
3391.04330,0.02712
3388.98313,0.02695
3386.92296,0.02661
3384.86279,0.02637
3382.80262,0.02646
3380.74244,0.02669
3378.68227,0.02675
3376.62210,0.02678
3374.56193,0.02690
3372.50176,0.02707
3370.44158,0.02728
3368.38141,0.02760
3366.32124,0.02798
3364.26107,0.02825
3362.20089,0.02819
3360.14072,0.02787
3358.08055,0.02782
3356.02038,0.02808
3353.96021,0.02820
3351.90003,0.02809
3349.83986,0.02796
3347.77969,0.02799
3345.71952,0.02819
3343.65935,0.02849
3341.59917,0.02878
3339.53900,0.02891
3337.47883,0.02889
3335.41866,0.02867
3333.35849,0.02849
3331.29831,0.02872
3329.23814,0.02902
3327.17797,0.02905
3325.11780,0.02907
3323.05762,0.02911
3320.99745,0.02926
3318.93728,0.02954
3316.87711,0.02962
3314.81694,0.02954
3312.75676,0.02954
3310.69659,0.02950
3308.63642,0.02927
3306.57625,0.02910
3304.51608,0.02929
3302.45590,0.02944
3300.39573,0.02928
3298.33556,0.02900
3296.27539,0.02902
3294.21521,0.02965
3292.15504,0.03042
3290.09487,0.03067
3288.03470,0.03066
3285.97453,0.03059
3283.91435,0.03022
3281.85418,0.02978
3279.79401,0.02965
3277.73384,0.02971
3275.67367,0.02983
3273.61349,0.02996
3271.55332,0.02992
3269.49315,0.02990
3267.43298,0.02999
3265.37281,0.02984
3263.31263,0.02958
3261.25246,0.02960
3259.19229,0.03011
3257.13212,0.03091
3255.07194,0.03130
3253.01177,0.03103
3250.95160,0.03075
3248.89143,0.03086
3246.83126,0.03107
3244.77108,0.03109
3242.71091,0.03087
3240.65074,0.03059
3238.59057,0.03048
3236.53040,0.03058
3234.47022,0.03077
3232.41005,0.03085
3230.34988,0.03086
3228.28971,0.03102
3226.22954,0.03111
3224.16936,0.03092
3222.10919,0.03075
3220.04902,0.03060
3217.98885,0.03044
3215.92867,0.03065
3213.86850,0.03092
3211.80833,0.03070
3209.74816,0.03044
3207.68799,0.03051
3205.62781,0.03052
3203.56764,0.03028
3201.50747,0.03031
3199.44730,0.03071
3197.38713,0.03081
3195.32695,0.03047
3193.26678,0.03009
3191.20661,0.02982
3189.14644,0.02971
3187.08626,0.02958
3185.02609,0.02956
3182.96592,0.02992
3180.90575,0.03039
3178.84558,0.03054
3176.78540,0.03038
3174.72523,0.03021
3172.66506,0.03014
3170.60489,0.03000
3168.54472,0.02986
3166.48454,0.02990
3164.42437,0.02996
3162.36420,0.02989
3160.30403,0.02981
3158.24386,0.02982
3156.18368,0.02971
3154.12351,0.02945
3152.06334,0.02929
3150.00317,0.02937
3147.94299,0.02963
3145.88282,0.02962
3143.82265,0.02926
3141.76248,0.02908
3139.70231,0.02919
3137.64213,0.02910
3135.58196,0.02885
3133.52179,0.02887
3131.46162,0.02892
3129.40145,0.02866
3127.34127,0.02847
3125.28110,0.02852
3123.22093,0.02847
3121.16076,0.02831
3119.10058,0.02828
3117.04041,0.02830
3114.98024,0.02824
3112.92007,0.02810
3110.85990,0.02781
3108.79972,0.02748
3106.73955,0.02742
3104.67938,0.02743
3102.61921,0.02725
3100.55904,0.02699
3098.49886,0.02675
3096.43869,0.02651
3094.37852,0.02641
3092.31835,0.02654
3090.25818,0.02663
3088.19800,0.02654
3086.13783,0.02633
3084.07766,0.02609
3082.01749,0.02596
3079.95731,0.02592
3077.89714,0.02586
3075.83697,0.02578
3073.77680,0.02578
3071.71663,0.02586
3069.65645,0.02583
3067.59628,0.02571
3065.53611,0.02570
3063.47594,0.02572
3061.41577,0.02555
3059.35559,0.02528
3057.29542,0.02510
3055.23525,0.02491
3053.17508,0.02466
3051.11491,0.02438
3049.05473,0.02417
3046.99456,0.02420
3044.93439,0.02416
3042.87422,0.02388
3040.81404,0.02383
3038.75387,0.02398
3036.69370,0.02384
3034.63353,0.02358
3032.57336,0.02356
3030.51318,0.02358
3028.45301,0.02346
3026.39284,0.02336
3024.33267,0.02328
3022.27250,0.02317
3020.21232,0.02298
3018.15215,0.02271
3016.09198,0.02256
3014.03181,0.02257
3011.97163,0.02253
3009.91146,0.02237
3007.85129,0.02212
3005.79112,0.02175
3003.73095,0.02134
3001.67077,0.02125
2999.61060,0.02144
2997.55043,0.02142
2995.49026,0.02129
2993.43009,0.02127
2991.36991,0.02119
2989.30974,0.02105
2987.24957,0.02087
2985.18940,0.02066
2983.12923,0.02057
2981.06905,0.02061
2979.00888,0.02070
2976.94871,0.02068
2974.88854,0.02067
2972.82836,0.02071
2970.76819,0.02064
2968.70802,0.02048
2966.64785,0.02034
2964.58768,0.02027
2962.52750,0.02009
2960.46733,0.02002
2958.40716,0.02006
2956.34699,0.01993
2954.28682,0.01978
2952.22664,0.01987
2950.16647,0.02018
2948.10630,0.02015
2946.04613,0.01971
2943.98596,0.01959
2941.92578,0.01975
2939.86561,0.01964
2937.80544,0.01946
2935.74527,0.01951
2933.68509,0.01966
2931.62492,0.01978
2929.56475,0.01976
2927.50458,0.01955
2925.44441,0.01922
2923.38423,0.01885
2921.32406,0.01856
2919.26389,0.01857
2917.20372,0.01871
2915.14355,0.01873
2913.08337,0.01874
2911.02320,0.01871
2908.96303,0.01867
2906.90286,0.01883
2904.84268,0.01889
2902.78251,0.01861
2900.72234,0.01843
2898.66217,0.01850
2896.60200,0.01859
2894.54182,0.01885
2892.48165,0.01912
2890.42148,0.01894
2888.36131,0.01845
2886.30114,0.01819
2884.24096,0.01816
2882.18079,0.01804
2880.12062,0.01780
2878.06045,0.01764
2876.00028,0.01775
2873.94010,0.01793
2871.87993,0.01801
2869.81976,0.01809
2867.75959,0.01807
2865.69941,0.01778
2863.63924,0.01735
2861.57907,0.01705
2859.51890,0.01696
2857.45873,0.01703
2855.39855,0.01720
2853.33838,0.01725
2851.27821,0.01698
2849.21804,0.01670
2847.15787,0.01661
2845.09769,0.01669
2843.03752,0.01689
2840.97735,0.01709
2838.91718,0.01720
2836.85700,0.01702
2834.79683,0.01662
2832.73666,0.01641
2830.67649,0.01641
2828.61632,0.01641
2826.55614,0.01648
2824.49597,0.01673
2822.43580,0.01676
2820.37563,0.01643
2818.31546,0.01618
2816.25528,0.01610
2814.19511,0.01599
2812.13494,0.01599
2810.07477,0.01613
2808.01460,0.01608
2805.95442,0.01580
2803.89425,0.01575
2801.83408,0.01590
2799.77391,0.01585
2797.71373,0.01577
2795.65356,0.01582
2793.59339,0.01587
2791.53322,0.01584
2789.47305,0.01569
2787.41287,0.01553
2785.35270,0.01537
2783.29253,0.01513
2781.23236,0.01494
2779.17219,0.01489
2777.11201,0.01482
2775.05184,0.01481
2772.99167,0.01492
2770.93150,0.01494
2768.87133,0.01483
2766.81115,0.01463
2764.75098,0.01442
2762.69081,0.01445
2760.63064,0.01454
2758.57046,0.01441
2756.51029,0.01433
2754.45012,0.01438
2752.38995,0.01429
2750.32978,0.01409
2748.26960,0.01402
2746.20943,0.01410
2744.14926,0.01407
2742.08909,0.01373
2740.02892,0.01342
2737.96874,0.01353
2735.90857,0.01376
2733.84840,0.01372
2731.78823,0.01346
2729.72805,0.01332
2727.66788,0.01338
2725.60771,0.01341
2723.54754,0.01343
2721.48737,0.01347
2719.42719,0.01331
2717.36702,0.01307
2715.30685,0.01298
2713.24668,0.01294
2711.18651,0.01286
2709.12633,0.01281
2707.06616,0.01277
2705.00599,0.01276
2702.94582,0.01271
2700.88565,0.01272
2698.82547,0.01280
2696.76530,0.01273
2694.70513,0.01255
2692.64496,0.01232
2690.58478,0.01213
2688.52461,0.01217
2686.46444,0.01224
2684.40427,0.01217
2682.34410,0.01216
2680.28392,0.01207
2678.22375,0.01178
2676.16358,0.01161
2674.10341,0.01156
2672.04324,0.01144
2669.98306,0.01136
2667.92289,0.01133
2665.86272,0.01139
2663.80255,0.01156
2661.74238,0.01146
2659.68220,0.01114
2657.62203,0.01090
2655.56186,0.01079
2653.50169,0.01089
2651.44151,0.01111
2649.38134,0.01115
2647.32117,0.01098
2645.26100,0.01080
2643.20083,0.01066
2641.14065,0.01043
2639.08048,0.01022
2637.02031,0.01031
2634.96014,0.01054
2632.89997,0.01043
2630.83979,0.00999
2628.77962,0.00964
2626.71945,0.00956
2624.65928,0.00964
2622.59910,0.00967
2620.53893,0.00954
2618.47876,0.00935
2616.41859,0.00909
2614.35842,0.00897
2612.29824,0.00912
2610.23807,0.00937
2608.17790,0.00961
2606.11773,0.00971
2604.05756,0.00968
2601.99738,0.00956
2599.93721,0.00915
2597.87704,0.00885
2595.81687,0.00898
2593.75670,0.00923
2591.69652,0.00933
2589.63635,0.00932
2587.57618,0.00922
2585.51601,0.00886
2583.45583,0.00853
2581.39566,0.00871
2579.33549,0.00902
2577.27532,0.00878
2575.21515,0.00836
2573.15497,0.00829
2571.09480,0.00819
2569.03463,0.00779
2566.97446,0.00764
2564.91429,0.00794
2562.85411,0.00831
2560.79394,0.00839
2558.73377,0.00824
2556.67360,0.00836
2554.61342,0.00885
2552.55325,0.00917
2550.49308,0.00893
2548.43291,0.00844
2546.37274,0.00808
2544.31256,0.00766
2542.25239,0.00746
2540.19222,0.00781
2538.13205,0.00811
2536.07188,0.00817
2534.01170,0.00835
2531.95153,0.00851
2529.89136,0.00855
2527.83119,0.00853
2525.77102,0.00845
2523.71084,0.00850
2521.65067,0.00862
2519.59050,0.00875
2517.53033,0.00876
2515.47015,0.00835
2513.40998,0.00815
2511.34981,0.00828
2509.28964,0.00830
2507.22947,0.00824
2505.16929,0.00818
2503.10912,0.00813
2501.04895,0.00822
2498.98878,0.00851
2496.92861,0.00885
2494.86843,0.00900
2492.80826,0.00895
2490.74809,0.00883
2488.68792,0.00865
2486.62775,0.00862
2484.56757,0.00879
2482.50740,0.00875
2480.44723,0.00863
2478.38706,0.00878
2476.32688,0.00908
2474.26671,0.00936
2472.20654,0.00952
2470.14637,0.00953
2468.08620,0.00946
2466.02602,0.00936
2463.96585,0.00943
2461.90568,0.00968
2459.84551,0.00976
2457.78534,0.00970
2455.72516,0.00977
2453.66499,0.00998
2451.60482,0.00996
2449.54465,0.00963
2447.48447,0.00920
2445.42430,0.00892
2443.36413,0.00893
2441.30396,0.00896
2439.24379,0.00875
2437.18361,0.00872
2435.12344,0.00916
2433.06327,0.00949
2431.00310,0.00944
2428.94293,0.00936
2426.88275,0.00940
2424.82258,0.00961
2422.76241,0.00980
2420.70224,0.00968
2418.64207,0.00953
2416.58189,0.00954
2414.52172,0.00955
2412.46155,0.00969
2410.40138,0.00978
2408.34120,0.00942
2406.28103,0.00902
2404.22086,0.00893
2402.16069,0.00913
2400.10052,0.00967
2398.04034,0.00997
2395.98017,0.00993
2393.92000,0.00968
2391.85983,0.00951
2389.79966,0.00959
2387.73948,0.00984
2385.67931,0.01000
2383.61914,0.00994
2381.55897,0.00981
2379.49880,0.00982
2377.43862,0.01005
2375.37845,0.01027
2373.31828,0.01036
2371.25811,0.01034
2369.19793,0.01015
2367.13776,0.00999
2365.07759,0.01031
2363.01742,0.01091
2360.95725,0.01154
2358.89707,0.01064
2356.83690,0.00970
2354.77673,0.00962
2352.71656,0.00945
2350.65639,0.00990
2348.59621,0.01032
2346.53604,0.00922
2344.47587,0.00928
2342.41570,0.01008
2340.35552,0.01117
2338.29535,0.01255
2336.23518,0.01306
2334.17501,0.01228
2332.11484,0.01068
2330.05466,0.00979
2327.99449,0.01010
2325.93432,0.01068
2323.87415,0.00998
2321.81398,0.00891
2319.75380,0.00834
2317.69363,0.00863
2315.63346,0.00917
2313.57329,0.00974
2311.51312,0.01023
2309.45294,0.01051
2307.39277,0.01039
2305.33260,0.00974
2303.27243,0.00905
2301.21225,0.00880
2299.15208,0.00902
2297.09191,0.00923
2295.03174,0.00920
2292.97157,0.00907
2290.91139,0.00907
2288.85122,0.00925
2286.79105,0.00918
2284.73088,0.00884
2282.67071,0.00878
2280.61053,0.00885
2278.55036,0.00863
2276.49019,0.00843
2274.43002,0.00849
2272.36984,0.00861
2270.30967,0.00878
2268.24950,0.00900
2266.18933,0.00875
2264.12916,0.00787
2262.06898,0.00743
2260.00881,0.00799
2257.94864,0.00839
2255.88847,0.00810
2253.82830,0.00762
2251.76812,0.00713
2249.70795,0.00704
2247.64778,0.00759
2245.58761,0.00787
2243.52744,0.00723
2241.46726,0.00645
2239.40709,0.00646
2237.34692,0.00687
2235.28675,0.00728
2233.22657,0.00745
2231.16640,0.00738
2229.10623,0.00771
2227.04606,0.00772
2224.98589,0.00696
2222.92571,0.00658
2220.86554,0.00680
2218.80537,0.00719
2216.74520,0.00724
2214.68503,0.00686
2212.62485,0.00645
2210.56468,0.00571
2208.50451,0.00451
2206.44434,0.00387
2204.38417,0.00415
2202.32399,0.00499
2200.26382,0.00617
2198.20365,0.00667
2196.14348,0.00627
2194.08330,0.00562
2192.02313,0.00537
2189.96296,0.00592
2187.90279,0.00612
2185.84262,0.00523
2183.78244,0.00487
2181.72227,0.00603
2179.66210,0.00679
2177.60193,0.00565
2175.54176,0.00466
2173.48158,0.00601
2171.42141,0.00753
2169.36124,0.00664
2167.30107,0.00497
2165.24089,0.00490
2163.18072,0.00543
2161.12055,0.00458
2159.06038,0.00341
2157.00021,0.00371
2154.94003,0.00349
2152.87986,0.00225
2150.81969,0.00250
2148.75952,0.00346
2146.69935,0.00349
2144.63917,0.00330
2142.57900,0.00332
2140.51883,0.00362
2138.45866,0.00413
2136.39849,0.00454
2134.33831,0.00475
2132.27814,0.00486
2130.21797,0.00491
2128.15780,0.00471
2126.09762,0.00444
2124.03745,0.00450
2121.97728,0.00475
2119.91711,0.00512
2117.85694,0.00534
2115.79676,0.00508
2113.73659,0.00495
2111.67642,0.00540
2109.61625,0.00560
2107.55608,0.00523
2105.49590,0.00488
2103.43573,0.00465
2101.37556,0.00481
2099.31539,0.00515
2097.25521,0.00500
2095.19504,0.00467
2093.13487,0.00477
2091.07470,0.00525
2089.01453,0.00540
2086.95435,0.00480
2084.89418,0.00425
2082.83401,0.00429
2080.77384,0.00436
2078.71367,0.00457
2076.65349,0.00527
2074.59332,0.00579
2072.53315,0.00600
2070.47298,0.00599
2068.41281,0.00541
2066.35263,0.00467
2064.29246,0.00429
2062.23229,0.00423
2060.17212,0.00423
2058.11194,0.00392
2056.05177,0.00364
2053.99160,0.00387
2051.93143,0.00411
2049.87126,0.00385
2047.81108,0.00356
2045.75091,0.00356
2043.69074,0.00382
2041.63057,0.00419
2039.57040,0.00431
2037.51022,0.00409
2035.45005,0.00310
2033.38988,0.00156
2031.32971,0.00087
2029.26954,0.00107
2027.20936,0.00076
2025.14919,0.00000
2023.08902,0.00020
2021.02885,0.00189
2018.96867,0.00425
2016.90850,0.00594
2014.84833,0.00554
2012.78816,0.00366
2010.72799,0.00322
2008.66781,0.00499
2006.60764,0.00621
2004.54747,0.00574
2002.48730,0.00491
2000.42713,0.00452
1998.36695,0.00435
1996.30678,0.00393
1994.24661,0.00328
1992.18644,0.00264
1990.12626,0.00204
1988.06609,0.00243
1986.00592,0.00406
1983.94575,0.00476
1981.88558,0.00356
1979.82540,0.00266
1977.76523,0.00273
1975.70506,0.00303
1973.64489,0.00397
1971.58472,0.00437
1969.52454,0.00289
1967.46437,0.00076
1965.40420,0.00000
1963.34403,0.00115
1961.28386,0.00250
1959.22368,0.00310
1957.16351,0.00405
1955.10334,0.00485
1953.04317,0.00396
1950.98299,0.00216
1948.92282,0.00126
1946.86265,0.00156
1944.80248,0.00231
1942.74231,0.00286
1940.68213,0.00298
1938.62196,0.00331
1936.56179,0.00343
1934.50162,0.00330
1932.44145,0.00361
1930.38127,0.00389
1928.32110,0.00371
1926.26093,0.00318
1924.20076,0.00283
1922.14059,0.00265
1920.08041,0.00299
1918.02024,0.00379
1915.96007,0.00389
1913.89990,0.00406
1911.83972,0.00454
1909.77955,0.00455
1907.71938,0.00413
1905.65921,0.00411
1903.59904,0.00457
1901.53886,0.00478
1899.47869,0.00460
1897.41852,0.00429
1895.35835,0.00402
1893.29818,0.00398
1891.23800,0.00447
1889.17783,0.00447
1887.11766,0.00346
1885.05749,0.00293
1882.99731,0.00321
1880.93714,0.00374
1878.87697,0.00427
1876.81680,0.00471
1874.75663,0.00463
1872.69645,0.00396
1870.63628,0.00370
1868.57611,0.00383
1866.51594,0.00357
1864.45577,0.00349
1862.39559,0.00384
1860.33542,0.00408
1858.27525,0.00395
1856.21508,0.00357
1854.15491,0.00326
1852.09473,0.00317
1850.03456,0.00319
1847.97439,0.00326
1845.91422,0.00387
1843.85404,0.00437
1841.79387,0.00382
1839.73370,0.00377
1837.67353,0.00425
1835.61336,0.00412
1833.55318,0.00387
1831.49301,0.00438
1829.43284,0.00458
1827.37267,0.00423
1825.31250,0.00456
1823.25232,0.00449
1821.19215,0.00397
1819.13198,0.00386
1817.07181,0.00391
1815.01163,0.00383
1812.95146,0.00399
1810.89129,0.00422
1808.83112,0.00394
1806.77095,0.00359
1804.71077,0.00373
1802.65060,0.00441
1800.59043,0.00478
1798.53026,0.00419
1796.47009,0.00365
1794.40991,0.00423
1792.34974,0.00516
1790.28957,0.00471
1788.22940,0.00402
1786.16923,0.00424
1784.10905,0.00452
1782.04888,0.00468
1779.98871,0.00463
1777.92854,0.00401
1775.86836,0.00382
1773.80819,0.00468
1771.74802,0.00519
1769.68785,0.00464
1767.62768,0.00425
1765.56750,0.00392
1763.50733,0.00442
1761.44716,0.00512
1759.38699,0.00504
1757.32682,0.00504
1755.26664,0.00446
1753.20647,0.00428
1751.14630,0.00530
1749.08613,0.00578
1747.02596,0.00539
1744.96578,0.00527
1742.90561,0.00573
1740.84544,0.00618
1738.78527,0.00549
1736.72509,0.00524
1734.66492,0.00696
1732.60475,0.00695
1730.54458,0.00592
1728.48441,0.00583
1726.42423,0.00599
1724.36406,0.00613
1722.30389,0.00582
1720.24372,0.00627
1718.18355,0.00784
1716.12337,0.00793
1714.06320,0.00699
1712.00303,0.00658
1709.94286,0.00679
1707.88268,0.00733
1705.82251,0.00745
1703.76234,0.00676
1701.70217,0.00749
1699.64200,0.00822
1697.58182,0.00807
1695.52165,0.00853
1693.46148,0.00792
1691.40131,0.00808
1689.34114,0.00859
1687.28096,0.00894
1685.22079,0.01097
1683.16062,0.01147
1681.10045,0.00971
1679.04028,0.00910
1676.98010,0.01012
1674.91993,0.01096
1672.85976,0.01070
1670.79959,0.01161
1668.73941,0.01195
1666.67924,0.01083
1664.61907,0.01134
1662.55890,0.01268
1660.49873,0.01224
1658.43855,0.01119
1656.37838,0.01177
1654.31821,0.01444
1652.25804,0.01401
1650.19787,0.01137
1648.13769,0.01248
1646.07752,0.01353
1644.01735,0.01213
1641.95718,0.01142
1639.89701,0.01165
1637.83683,0.01286
1635.77666,0.01383
1633.71649,0.01204
1631.65632,0.01075
1629.59614,0.01144
1627.53597,0.01187
1625.47580,0.01181
1623.41563,0.01173
1621.35546,0.01043
1619.29528,0.01009
1617.23511,0.01142
1615.17494,0.01118
1613.11477,0.01030
1611.05460,0.01056
1608.99442,0.01090
1606.93425,0.01069
1604.87408,0.01036
1602.81391,0.01012
1600.75373,0.00972
1598.69356,0.00931
1596.63339,0.00919
1594.57322,0.00909
1592.51305,0.00880
1590.45287,0.00849
1588.39270,0.00821
1586.33253,0.00797
1584.27236,0.00774
1582.21219,0.00720
1580.15201,0.00665
1578.09184,0.00735
1576.03167,0.00783
1573.97150,0.00602
1571.91133,0.00569
1569.85115,0.00714
1567.79098,0.00683
1565.73081,0.00576
1563.67064,0.00469
1561.61046,0.00525
1559.55029,0.00789
1557.49012,0.00639
1555.42995,0.00414
1553.36978,0.00403
1551.30960,0.00448
1549.24943,0.00433
1547.18926,0.00364
1545.12909,0.00360
1543.06892,0.00422
1541.00874,0.00570
1538.94857,0.00505
1536.88840,0.00280
1534.82823,0.00357
1532.76805,0.00472
1530.70788,0.00382
1528.64771,0.00345
1526.58754,0.00328
1524.52737,0.00286
1522.46719,0.00351
1520.40702,0.00327
1518.34685,0.00270
1516.28668,0.00309
1514.22651,0.00267
1512.16633,0.00196
1510.10616,0.00234
1508.04599,0.00468
1505.98582,0.00492
1503.92565,0.00221
1501.86547,0.00141
1499.80530,0.00251
1497.74513,0.00343
1495.68496,0.00274
1493.62478,0.00164
1491.56461,0.00250
1489.50444,0.00361
1487.44427,0.00295
1485.38410,0.00220
1483.32392,0.00245
1481.26375,0.00274
1479.20358,0.00230
1477.14341,0.00218
1475.08324,0.00294
1473.02306,0.00374
1470.96289,0.00270
1468.90272,0.00148
1466.84255,0.00229
1464.78238,0.00315
1462.72220,0.00212
1460.66203,0.00179
1458.60186,0.00374
1456.54169,0.00450
1454.48151,0.00268
1452.42134,0.00198
1450.36117,0.00264
1448.30100,0.00325
1446.24083,0.00293
1444.18065,0.00231
1442.12048,0.00194
1440.06031,0.00185
1438.00014,0.00279
1435.93997,0.00315
1433.87979,0.00216
1431.81962,0.00219
1429.75945,0.00270
1427.69928,0.00260
1425.63910,0.00269
1423.57893,0.00263
1421.51876,0.00278
1419.45859,0.00388
1417.39842,0.00373
1415.33824,0.00289
1413.27807,0.00280
1411.21790,0.00287
1409.15773,0.00267
1407.09756,0.00283
1405.03738,0.00308
1402.97721,0.00259
1400.91704,0.00248
1398.85687,0.00276
1396.79670,0.00264
1394.73652,0.00254
1392.67635,0.00202
1390.61618,0.00186
1388.55601,0.00250
1386.49583,0.00252
1384.43566,0.00198
1382.37549,0.00202
1380.31532,0.00221
1378.25515,0.00217
1376.19497,0.00238
1374.13480,0.00261
1372.07463,0.00222
1370.01446,0.00206
1367.95429,0.00211
1365.89411,0.00219
1363.83394,0.00275
1361.77377,0.00280
1359.71360,0.00214
1357.65343,0.00187
1355.59325,0.00196
1353.53308,0.00193
1351.47291,0.00180
1349.41274,0.00171
1347.35256,0.00163
1345.29239,0.00153
1343.23222,0.00153
1341.17205,0.00192
1339.11188,0.00215
1337.05170,0.00174
1334.99153,0.00145
1332.93136,0.00157
1330.87119,0.00177
1328.81102,0.00178
1326.75084,0.00169
1324.69067,0.00164
1322.63050,0.00168
1320.57033,0.00181
1318.51015,0.00186
1316.44998,0.00177
1314.38981,0.00188
1312.32964,0.00192
1310.26947,0.00182
1308.20929,0.00195
1306.14912,0.00210
1304.08895,0.00206
1302.02878,0.00198
1299.96861,0.00202
1297.90843,0.00219
1295.84826,0.00233
1293.78809,0.00239
1291.72792,0.00245
1289.66775,0.00259
1287.60757,0.00265
1285.54740,0.00255
1283.48723,0.00242
1281.42706,0.00226
1279.36688,0.00212
1277.30671,0.00199
1275.24654,0.00194
1273.18637,0.00207
1271.12620,0.00220
1269.06602,0.00217
1267.00585,0.00214
1264.94568,0.00215
1262.88551,0.00214
1260.82534,0.00225
1258.76516,0.00236
1256.70499,0.00232
1254.64482,0.00224
1252.58465,0.00219
1250.52447,0.00203
1248.46430,0.00180
1246.40413,0.00178
1244.34396,0.00189
1242.28379,0.00187
1240.22361,0.00184
1238.16344,0.00184
1236.10327,0.00179
1234.04310,0.00163
1231.98293,0.00133
1229.92275,0.00110
1227.86258,0.00103
1225.80241,0.00090
1223.74224,0.00079
1221.68207,0.00083
1219.62189,0.00084
1217.56172,0.00062
1215.50155,0.00026
1213.44138,0.00000
1211.38120,0.00002
1209.32103,0.00011
1207.26086,0.00013
1205.20069,0.00019
1203.14052,0.00018
1201.08034,0.00004
1199.02017,0.00002
1196.96000,0.00027
1194.89983,0.00058
1192.83966,0.00081
1190.77948,0.00100
1188.71931,0.00119
1186.65914,0.00146
1184.59897,0.00183
1182.53880,0.00226
1180.47862,0.00271
1178.41845,0.00321
1176.35828,0.00383
1174.29811,0.00441
1172.23793,0.00484
1170.17776,0.00535
1168.11759,0.00597
1166.05742,0.00655
1163.99725,0.00717
1161.93707,0.00792
1159.87690,0.00853
1157.81673,0.00894
1155.75656,0.00937
1153.69639,0.00979
1151.63621,0.01019
1149.57604,0.01075
1147.51587,0.01141
1145.45570,0.01199
1143.39552,0.01259
1141.33535,0.01347
1139.27518,0.01441
1137.21501,0.01505
1135.15484,0.01554
1133.09466,0.01629
1131.03449,0.01735
1128.97432,0.01837
1126.91415,0.01916
1124.85398,0.01991
1122.79380,0.02066
1120.73363,0.02133
1118.67346,0.02220
1116.61329,0.02333
1114.55312,0.02432
1112.49294,0.02498
1110.43277,0.02548
1108.37260,0.02610
1106.31243,0.02684
1104.25225,0.02765
1102.19208,0.02863
1100.13191,0.02970
1098.07174,0.03064
1096.01157,0.03130
1093.95139,0.03185
1091.89122,0.03252
1089.83105,0.03329
1087.77088,0.03405
1085.71071,0.03480
1083.65053,0.03545
1081.59036,0.03603
1079.53019,0.03674
1077.47002,0.03743
1075.40985,0.03782
1073.34967,0.03790
1071.28950,0.03792
1069.22933,0.03816
1067.16916,0.03854
1065.10898,0.03869
1063.04881,0.03873
1060.98864,0.03894
1058.92847,0.03894
1056.86830,0.03851
1054.80812,0.03795
1052.74795,0.03741
1050.68778,0.03675
1048.62761,0.03597
1046.56744,0.03522
1044.50726,0.03463
1042.44709,0.03411
1040.38692,0.03324
1038.32675,0.03209
1036.26657,0.03128
1034.20640,0.03076
1032.14623,0.03008
1030.08606,0.02939
1028.02589,0.02862
1025.96571,0.02752
1023.90554,0.02650
1021.84537,0.02585
1019.78520,0.02531
1017.72503,0.02468
1015.66485,0.02405
1013.60468,0.02366
1011.54451,0.02353
1009.48434,0.02350
1007.42417,0.02344
1005.36399,0.02335
1003.30382,0.02339
1001.24365,0.02369
999.18348,0.02415
997.12330,0.02465
995.06313,0.02534
993.00296,0.02614
990.94279,0.02676
988.88262,0.02733
986.82244,0.02787
984.76227,0.02816
982.70210,0.02829
980.64193,0.02839
978.58176,0.02826
976.52158,0.02802
974.46141,0.02776
972.40124,0.02708
970.34107,0.02593
968.28089,0.02482
966.22072,0.02399
964.16055,0.02332
962.10038,0.02252
960.04021,0.02168
957.98003,0.02101
955.91986,0.02032
953.85969,0.01957
951.79952,0.01890
949.73935,0.01826
947.67917,0.01769
945.61900,0.01718
943.55883,0.01694
941.49866,0.01702
939.43849,0.01693
937.37831,0.01661
935.31814,0.01637
933.25797,0.01622
931.19780,0.01591
929.13762,0.01574
927.07745,0.01609
925.01728,0.01635
922.95711,0.01606
920.89694,0.01551
918.83676,0.01493
916.77659,0.01450
914.71642,0.01437
912.65625,0.01412
910.59608,0.01349
908.53590,0.01301
906.47573,0.01308
904.41556,0.01344
902.35539,0.01362
900.29522,0.01336
898.23504,0.01299
896.17487,0.01281
894.11470,0.01266
892.05453,0.01276
889.99435,0.01340
887.93418,0.01403
885.87401,0.01422
883.81384,0.01434
881.75367,0.01462
879.69349,0.01495
877.63332,0.01526
875.57315,0.01551
873.51298,0.01583
871.45281,0.01623
869.39263,0.01647
867.33246,0.01661
865.27229,0.01658
863.21212,0.01644
861.15194,0.01646
859.09177,0.01644
857.03160,0.01636
854.97143,0.01632
852.91126,0.01609
850.85108,0.01573
848.79091,0.01543
846.73074,0.01506
844.67057,0.01455
842.61040,0.01430
840.55022,0.01410
838.49005,0.01340
836.42988,0.01246
834.36971,0.01157
832.30954,0.01085
830.24936,0.01074
828.18919,0.01092
826.12902,0.01057
824.06885,0.00982
822.00867,0.00936
819.94850,0.00947
817.88833,0.00964
815.82816,0.00927
813.76799,0.00875
811.70781,0.00849
809.64764,0.00832
807.58747,0.00822
805.52730,0.00828
803.46713,0.00816
801.40695,0.00737
799.34678,0.00621
797.28661,0.00562
795.22644,0.00569
793.16627,0.00569
791.10609,0.00561
789.04592,0.00573
786.98575,0.00591
784.92558,0.00609
782.86540,0.00598
780.80523,0.00540
778.74506,0.00497
776.68489,0.00519
774.62472,0.00557
772.56454,0.00540
770.50437,0.00459
768.44420,0.00389
766.38403,0.00396
764.32386,0.00450
762.26368,0.00499
760.20351,0.00509
758.14334,0.00497
756.08317,0.00493
754.02299,0.00440
751.96282,0.00333
749.90265,0.00271
747.84248,0.00279
745.78231,0.00328
743.72213,0.00395
741.66196,0.00409
739.60179,0.00328
737.54162,0.00227
735.48145,0.00205
733.42127,0.00233
731.36110,0.00219
729.30093,0.00172
727.24076,0.00172
725.18059,0.00224
723.12041,0.00267
721.06024,0.00253
719.00007,0.00266
716.93990,0.00275
714.87972,0.00258
712.81955,0.00267
710.75938,0.00293
708.69921,0.00291
706.63904,0.00258
704.57886,0.00225
702.51869,0.00204
700.45852,0.00202
698.39835,0.00223
696.33818,0.00254
694.27800,0.00262
692.21783,0.00233
690.15766,0.00208
688.09749,0.00227
686.03731,0.00277
683.97714,0.00315
681.91697,0.00294
679.85680,0.00213
677.79663,0.00142
675.73645,0.00157
673.67628,0.00232
671.61611,0.00234
669.55594,0.00025
667.49577,0.00000
665.43559,0.00399
663.37542,0.00378
661.31525,0.00262
659.25508,0.00253
657.19491,0.00321
655.13473,0.00359
653.07456,0.00317
651.01439,0.00225
648.95422,0.00127
646.89404,0.00097
644.83387,0.00116
642.77370,0.00110
640.71353,0.00128
638.65336,0.00247
636.59318,0.00359
634.53301,0.00374
632.47284,0.00349
630.41267,0.00343
628.35250,0.00387
626.29232,0.00484
624.23215,0.00554
622.17198,0.00518
620.11181,0.00364
618.05164,0.00142
615.99146,0.00071
613.93129,0.00266
611.87112,0.00376
609.81095,0.00310
607.75077,0.00380
605.69060,0.00434
603.63043,0.00251
601.57026,0.00047
599.51009,0.00000
