3996.73391,0.00048
3994.67373,0.00008
3992.61356,0.00000
3990.55339,0.00018
3988.49322,0.00076
3986.43305,0.00126
3984.37287,0.00117
3982.31270,0.00082
3980.25253,0.00074
3978.19236,0.00088
3976.13219,0.00115
3974.07201,0.00156
3972.01184,0.00191
3969.95167,0.00189
3967.89150,0.00155
3965.83133,0.00103
3963.77115,0.00061
3961.71098,0.00075
3959.65081,0.00118
3957.59064,0.00134
3955.53046,0.00134
3953.47029,0.00131
3951.41012,0.00118
3949.34995,0.00111
3947.28978,0.00117
3945.22960,0.00096
3943.16943,0.00073
3941.10926,0.00109
3939.04909,0.00135
3936.98892,0.00130
3934.92874,0.00110
3932.86857,0.00079
3930.80840,0.00102
3928.74823,0.00161
3926.68805,0.00173
3924.62788,0.00168
3922.56771,0.00195
3920.50754,0.00182
3918.44737,0.00132
3916.38719,0.00125
3914.32702,0.00156
3912.26685,0.00162
3910.20668,0.00169
3908.14651,0.00176
3906.08633,0.00126
3904.02616,0.00106
3901.96599,0.00165
3899.90582,0.00204
3897.84565,0.00270
3895.78547,0.00306
3893.72530,0.00206
3891.66513,0.00124
3889.60496,0.00211
3887.54478,0.00241
3885.48461,0.00202
3883.42444,0.00215
3881.36427,0.00151
3879.30410,0.00157
3877.24392,0.00200
3875.18375,0.00147
3873.12358,0.00140
3871.06341,0.00129
3869.00324,0.00178
3866.94306,0.00235
3864.88289,0.00155
3862.82272,0.00176
3860.76255,0.00301
3858.70237,0.00361
3856.64220,0.00240
3854.58203,0.00000
3852.52186,0.00053
3850.46169,0.00317
3848.40151,0.00376
3846.34134,0.00289
3844.28117,0.00240
3842.22100,0.00269
3840.16083,0.00211
3838.10065,0.00110
3836.04048,0.00162
3833.98031,0.00246
3831.92014,0.00265
3829.85997,0.00272
3827.79979,0.00257
3825.73962,0.00286
3823.67945,0.00250
3821.61928,0.00131
3819.55910,0.00218
3817.49893,0.00245
3815.43876,0.00190
3813.37859,0.00242
3811.31842,0.00242
3809.25824,0.00159
3807.19807,0.00137
3805.13790,0.00241
3803.07773,0.00198
3801.01756,0.00158
3798.95738,0.00282
3796.89721,0.00304
3794.83704,0.00310
3792.77687,0.00315
3790.71670,0.00266
3788.65652,0.00212
3786.59635,0.00175
3784.53618,0.00187
3782.47601,0.00198
3780.41583,0.00128
3778.35566,0.00128
3776.29549,0.00219
3774.23532,0.00247
3772.17515,0.00187
3770.11497,0.00133
3768.05480,0.00175
3765.99463,0.00218
3763.93446,0.00271
3761.87429,0.00271
3759.81411,0.00230
3757.75394,0.00301
3755.69377,0.00383
3753.63360,0.00313
3751.57342,0.00224
3749.51325,0.00345
3747.45308,0.00395
3745.39291,0.00166
3743.33274,0.00138
3741.27256,0.00306
3739.21239,0.00304
3737.15222,0.00183
3735.09205,0.00166
3733.03188,0.00274
3730.97170,0.00360
3728.91153,0.00338
3726.85136,0.00244
3724.79119,0.00229
3722.73102,0.00260
3720.67084,0.00298
3718.61067,0.00338
3716.55050,0.00343
3714.49033,0.00232
3712.43015,0.00090
3710.36998,0.00148
3708.30981,0.00302
3706.24964,0.00340
3704.18947,0.00251
3702.12929,0.00191
3700.06912,0.00259
3698.00895,0.00301
3695.94878,0.00297
3693.88861,0.00289
3691.82843,0.00174
3689.76826,0.00013
3687.70809,0.00051
3685.64792,0.00202
3683.58775,0.00268
3681.52757,0.00284
3679.46740,0.00299
3677.40723,0.00272
3675.34706,0.00336
3673.28688,0.00507
3671.22671,0.00373
3669.16654,0.00244
3667.10637,0.00338
3665.04620,0.00343
3662.98602,0.00263
3660.92585,0.00215
3658.86568,0.00171
3656.80551,0.00156
3654.74534,0.00275
3652.68516,0.00283
3650.62499,0.00101
3648.56482,0.00106
3646.50465,0.00341
3644.44447,0.00506
3642.38430,0.00506
3640.32413,0.00469
3638.26396,0.00471
3636.20379,0.00491
3634.14361,0.00504
3632.08344,0.00506
3630.02327,0.00433
3627.96310,0.00477
3625.90293,0.00626
3623.84275,0.00645
3621.78258,0.00566
3619.72241,0.00535
3617.66224,0.00649
3615.60207,0.00725
3613.54189,0.00732
3611.48172,0.00804
3609.42155,0.00821
3607.36138,0.00771
3605.30120,0.00760
3603.24103,0.00763
3601.18086,0.00792
3599.12069,0.00845
3597.06052,0.00823
3595.00034,0.00772
3592.94017,0.00791
3590.88000,0.00788
3588.81983,0.00691
3586.75966,0.00717
3584.69948,0.00908
3582.63931,0.01012
3580.57914,0.01011
3578.51897,0.01000
3576.45879,0.00975
3574.39862,0.00953
3572.33845,0.00962
3570.27828,0.00941
3568.21811,0.00897
3566.15793,0.00978
3564.09776,0.01116
3562.03759,0.01141
3559.97742,0.01106
3557.91725,0.01097
3555.85707,0.01100
3553.79690,0.01087
3551.73673,0.01091
3549.67656,0.01116
3547.61639,0.01137
3545.55621,0.01185
3543.49604,0.01235
3541.43587,0.01241
3539.37570,0.01222
3537.31552,0.01218
3535.25535,0.01269
3533.19518,0.01338
3531.13501,0.01367
3529.07484,0.01387
3527.01466,0.01430
3524.95449,0.01451
3522.89432,0.01447
3520.83415,0.01454
3518.77398,0.01456
3516.71380,0.01459
3514.65363,0.01463
3512.59346,0.01455
3510.53329,0.01459
3508.47312,0.01524
3506.41294,0.01585
3504.35277,0.01566
3502.29260,0.01562
3500.23243,0.01609
3498.17225,0.01647
3496.11208,0.01686
3494.05191,0.01735
3491.99174,0.01756
3489.93157,0.01734
3487.87139,0.01718
3485.81122,0.01730
3483.75105,0.01720
3481.69088,0.01708
3479.63071,0.01734
3477.57053,0.01750
3475.51036,0.01745
3473.45019,0.01743
3471.39002,0.01765
3469.32984,0.01814
3467.26967,0.01847
3465.20950,0.01856
3463.14933,0.01865
3461.08916,0.01889
3459.02898,0.01928
3456.96881,0.01960
3454.90864,0.01967
3452.84847,0.01971
3450.78830,0.01989
3448.72812,0.01961
3446.66795,0.01920
3444.60778,0.01948
3442.54761,0.01989
3440.48744,0.02000
3438.42726,0.01996
3436.36709,0.02007
3434.30692,0.02034
3432.24675,0.02043
3430.18657,0.02052
3428.12640,0.02082
3426.06623,0.02103
3424.00606,0.02104
3421.94589,0.02104
3419.88571,0.02124
3417.82554,0.02158
3415.76537,0.02173
3413.70520,0.02150
3411.64503,0.02112
3409.58485,0.02109
3407.52468,0.02138
3405.46451,0.02174
3403.40434,0.02218
3401.34416,0.02264
3399.28399,0.02269
3397.22382,0.02232
3395.16365,0.02227
3393.10348,0.02262
3391.04330,0.02283
3388.98313,0.02247
3386.92296,0.02193
3384.86279,0.02183
3382.80262,0.02213
3380.74244,0.02247
3378.68227,0.02274
3376.62210,0.02305
3374.56193,0.02336
3372.50176,0.02338
3370.44158,0.02307
3368.38141,0.02297
3366.32124,0.02320
3364.26107,0.02335
3362.20089,0.02322
3360.14072,0.02301
3358.08055,0.02287
3356.02038,0.02284
3353.96021,0.02307
3351.90003,0.02337
3349.83986,0.02347
3347.77969,0.02349
3345.71952,0.02363
3343.65935,0.02400
3341.59917,0.02425
3339.53900,0.02409
3337.47883,0.02405
3335.41866,0.02418
3333.35849,0.02419
3331.29831,0.02436
3329.23814,0.02457
3327.17797,0.02455
3325.11780,0.02455
3323.05762,0.02467
3320.99745,0.02471
3318.93728,0.02444
3316.87711,0.02421
3314.81694,0.02452
3312.75676,0.02488
3310.69659,0.02458
3308.63642,0.02410
3306.57625,0.02416
3304.51608,0.02459
3302.45590,0.02480
3300.39573,0.02460
3298.33556,0.02426
3296.27539,0.02418
3294.21521,0.02458
3292.15504,0.02506
3290.09487,0.02518
3288.03470,0.02513
3285.97453,0.02518
3283.91435,0.02521
3281.85418,0.02501
3279.79401,0.02481
3277.73384,0.02482
3275.67367,0.02493
3273.61349,0.02495
3271.55332,0.02486
3269.49315,0.02488
3267.43298,0.02507
3265.37281,0.02514
3263.31263,0.02508
3261.25246,0.02504
3259.19229,0.02512
3257.13212,0.02542
3255.07194,0.02577
3253.01177,0.02583
3250.95160,0.02567
3248.89143,0.02560
3246.83126,0.02573
3244.77108,0.02599
3242.71091,0.02613
3240.65074,0.02601
3238.59057,0.02578
3236.53040,0.02560
3234.47022,0.02549
3232.41005,0.02544
3230.34988,0.02557
3228.28971,0.02578
3226.22954,0.02581
3224.16936,0.02581
3222.10919,0.02602
3220.04902,0.02612
3217.98885,0.02587
3215.92867,0.02547
3213.86850,0.02523
3211.80833,0.02526
3209.74816,0.02546
3207.68799,0.02570
3205.62781,0.02563
3203.56764,0.02538
3201.50747,0.02536
3199.44730,0.02558
3197.38713,0.02570
3195.32695,0.02562
3193.26678,0.02551
3191.20661,0.02546
3189.14644,0.02527
3187.08626,0.02507
3185.02609,0.02523
3182.96592,0.02558
3180.90575,0.02568
3178.84558,0.02549
3176.78540,0.02538
3174.72523,0.02519
3172.66506,0.02494
3170.60489,0.02492
3168.54472,0.02494
3166.48454,0.02497
3164.42437,0.02492
3162.36420,0.02462
3160.30403,0.02441
3158.24386,0.02440
3156.18368,0.02416
3154.12351,0.02385
3152.06334,0.02396
3150.00317,0.02435
3147.94299,0.02463
3145.88282,0.02457
3143.82265,0.02428
3141.76248,0.02422
3139.70231,0.02437
3137.64213,0.02428
3135.58196,0.02388
3133.52179,0.02355
3131.46162,0.02341
3129.40145,0.02333
3127.34127,0.02350
3125.28110,0.02374
3123.22093,0.02351
3121.16076,0.02300
3119.10058,0.02269
3117.04041,0.02256
3114.98024,0.02241
3112.92007,0.02236
3110.85990,0.02256
3108.79972,0.02269
3106.73955,0.02256
3104.67938,0.02239
3102.61921,0.02223
3100.55904,0.02210
3098.49886,0.02200
3096.43869,0.02176
3094.37852,0.02158
3092.31835,0.02173
3090.25818,0.02203
3088.19800,0.02210
3086.13783,0.02182
3084.07766,0.02146
3082.01749,0.02125
3079.95731,0.02128
3077.89714,0.02142
3075.83697,0.02143
3073.77680,0.02134
3071.71663,0.02121
3069.65645,0.02102
3067.59628,0.02099
3065.53611,0.02115
3063.47594,0.02123
3061.41577,0.02112
3059.35559,0.02098
3057.29542,0.02086
3055.23525,0.02072
3053.17508,0.02060
3051.11491,0.02054
3049.05473,0.02042
3046.99456,0.02018
3044.93439,0.01983
3042.87422,0.01951
3040.81404,0.01957
3038.75387,0.01984
3036.69370,0.01983
3034.63353,0.01967
3032.57336,0.01968
3030.51318,0.01978
3028.45301,0.01958
3026.39284,0.01912
3024.33267,0.01886
3022.27250,0.01884
3020.21232,0.01875
3018.15215,0.01849
3016.09198,0.01830
3014.03181,0.01832
3011.97163,0.01837
3009.91146,0.01824
3007.85129,0.01802
3005.79112,0.01787
3003.73095,0.01774
3001.67077,0.01765
2999.61060,0.01767
2997.55043,0.01765
2995.49026,0.01756
2993.43009,0.01743
2991.36991,0.01726
2989.30974,0.01725
2987.24957,0.01728
2985.18940,0.01729
2983.12923,0.01733
2981.06905,0.01731
2979.00888,0.01721
2976.94871,0.01704
2974.88854,0.01686
2972.82836,0.01668
2970.76819,0.01645
2968.70802,0.01635
2966.64785,0.01654
2964.58768,0.01658
2962.52750,0.01626
2960.46733,0.01604
2958.40716,0.01614
2956.34699,0.01623
2954.28682,0.01620
2952.22664,0.01610
2950.16647,0.01597
2948.10630,0.01595
2946.04613,0.01608
2943.98596,0.01627
2941.92578,0.01618
2939.86561,0.01579
2937.80544,0.01560
2935.74527,0.01582
2933.68509,0.01621
2931.62492,0.01636
2929.56475,0.01605
2927.50458,0.01566
2925.44441,0.01553
2923.38423,0.01530
2921.32406,0.01496
2919.26389,0.01485
2917.20372,0.01485
2915.14355,0.01482
2913.08337,0.01492
2911.02320,0.01507
2908.96303,0.01512
2906.90286,0.01522
2904.84268,0.01518
2902.78251,0.01496
2900.72234,0.01496
2898.66217,0.01507
2896.60200,0.01504
2894.54182,0.01505
2892.48165,0.01510
2890.42148,0.01488
2888.36131,0.01453
2886.30114,0.01433
2884.24096,0.01441
2882.18079,0.01460
2880.12062,0.01457
2878.06045,0.01438
2876.00028,0.01433
2873.94010,0.01441
2871.87993,0.01454
2869.81976,0.01468
2867.75959,0.01465
2865.69941,0.01438
2863.63924,0.01407
2861.57907,0.01395
2859.51890,0.01393
2857.45873,0.01383
2855.39855,0.01364
2853.33838,0.01350
2851.27821,0.01350
2849.21804,0.01350
2847.15787,0.01345
2845.09769,0.01347
2843.03752,0.01359
2840.97735,0.01378
2838.91718,0.01394
2836.85700,0.01374
2834.79683,0.01317
2832.73666,0.01274
2830.67649,0.01277
2828.61632,0.01306
2826.55614,0.01324
2824.49597,0.01322
2822.43580,0.01306
2820.37563,0.01287
2818.31546,0.01276
2816.25528,0.01281
2814.19511,0.01283
2812.13494,0.01264
2810.07477,0.01240
2808.01460,0.01241
2805.95442,0.01252
2803.89425,0.01259
2801.83408,0.01270
2799.77391,0.01275
2797.71373,0.01273
2795.65356,0.01271
2793.59339,0.01272
2791.53322,0.01275
2789.47305,0.01265
2787.41287,0.01238
2785.35270,0.01211
2783.29253,0.01188
2781.23236,0.01176
2779.17219,0.01183
2777.11201,0.01183
2775.05184,0.01169
2772.99167,0.01172
2770.93150,0.01169
2768.87133,0.01152
2766.81115,0.01146
2764.75098,0.01140
2762.69081,0.01132
2760.63064,0.01130
2758.57046,0.01130
2756.51029,0.01136
2754.45012,0.01146
2752.38995,0.01137
2750.32978,0.01110
2748.26960,0.01098
2746.20943,0.01113
2744.14926,0.01125
2742.08909,0.01115
2740.02892,0.01094
2737.96874,0.01080
2735.90857,0.01085
2733.84840,0.01090
2731.78823,0.01071
2729.72805,0.01057
2727.66788,0.01059
2725.60771,0.01057
2723.54754,0.01052
2721.48737,0.01039
2719.42719,0.01015
2717.36702,0.01003
2715.30685,0.00999
2713.24668,0.01010
2711.18651,0.01027
2709.12633,0.01014
2707.06616,0.00980
2705.00599,0.00971
2702.94582,0.00989
2700.88565,0.01014
2698.82547,0.01029
2696.76530,0.01026
2694.70513,0.01013
2692.64496,0.00988
2690.58478,0.00957
2688.52461,0.00942
2686.46444,0.00937
2684.40427,0.00937
2682.34410,0.00932
2680.28392,0.00912
2678.22375,0.00902
2676.16358,0.00912
2674.10341,0.00901
2672.04324,0.00875
2669.98306,0.00874
2667.92289,0.00884
2665.86272,0.00888
2663.80255,0.00889
2661.74238,0.00876
2659.68220,0.00865
2657.62203,0.00868
2655.56186,0.00855
2653.50169,0.00834
2651.44151,0.00838
2649.38134,0.00865
2647.32117,0.00876
2645.26100,0.00853
2643.20083,0.00822
2641.14065,0.00806
2639.08048,0.00795
2637.02031,0.00789
2634.96014,0.00809
2632.89997,0.00822
2630.83979,0.00794
2628.77962,0.00756
2626.71945,0.00746
2624.65928,0.00747
2622.59910,0.00739
2620.53893,0.00727
2618.47876,0.00718
2616.41859,0.00724
2614.35842,0.00737
2612.29824,0.00745
2610.23807,0.00744
2608.17790,0.00731
2606.11773,0.00712
2604.05756,0.00697
2601.99738,0.00683
2599.93721,0.00667
2597.87704,0.00677
2595.81687,0.00704
2593.75670,0.00699
2591.69652,0.00665
2589.63635,0.00628
2587.57618,0.00611
2585.51601,0.00620
2583.45583,0.00636
2581.39566,0.00658
2579.33549,0.00663
2577.27532,0.00631
2575.21515,0.00603
2573.15497,0.00622
2571.09480,0.00649
2569.03463,0.00645
2566.97446,0.00641
2564.91429,0.00659
2562.85411,0.00656
2560.79394,0.00627
2558.73377,0.00616
2556.67360,0.00627
2554.61342,0.00634
2552.55325,0.00631
2550.49308,0.00625
2548.43291,0.00634
2546.37274,0.00661
2544.31256,0.00657
2542.25239,0.00614
2540.19222,0.00586
2538.13205,0.00585
2536.07188,0.00603
2534.01170,0.00627
2531.95153,0.00644
2529.89136,0.00662
2527.83119,0.00662
2525.77102,0.00653
2523.71084,0.00670
2521.65067,0.00681
2519.59050,0.00682
2517.53033,0.00679
2515.47015,0.00652
2513.40998,0.00634
2511.34981,0.00646
2509.28964,0.00668
2507.22947,0.00682
2505.16929,0.00675
2503.10912,0.00666
2501.04895,0.00667
2498.98878,0.00665
2496.92861,0.00682
2494.86843,0.00717
2492.80826,0.00714
2490.74809,0.00684
2488.68792,0.00677
2486.62775,0.00685
2484.56757,0.00687
2482.50740,0.00682
2480.44723,0.00659
2478.38706,0.00649
2476.32688,0.00709
2474.26671,0.00800
2472.20654,0.00808
2470.14637,0.00748
2468.08620,0.00727
2466.02602,0.00753
2463.96585,0.00775
2461.90568,0.00785
2459.84551,0.00782
2457.78534,0.00754
2455.72516,0.00725
2453.66499,0.00726
2451.60482,0.00743
2449.54465,0.00743
2447.48447,0.00720
2445.42430,0.00714
2443.36413,0.00748
2441.30396,0.00772
2439.24379,0.00750
2437.18361,0.00738
2435.12344,0.00770
2433.06327,0.00785
2431.00310,0.00758
2428.94293,0.00719
2426.88275,0.00680
2424.82258,0.00688
2422.76241,0.00725
2420.70224,0.00735
2418.64207,0.00753
2416.58189,0.00771
2414.52172,0.00753
2412.46155,0.00741
2410.40138,0.00754
2408.34120,0.00760
2406.28103,0.00763
2404.22086,0.00746
2402.16069,0.00720
2400.10052,0.00735
2398.04034,0.00744
2395.98017,0.00741
2393.92000,0.00749
2391.85983,0.00777
2389.79966,0.00794
2387.73948,0.00785
2385.67931,0.00772
2383.61914,0.00776
2381.55897,0.00800
2379.49880,0.00843
2377.43862,0.00888
2375.37845,0.00889
2373.31828,0.00871
2371.25811,0.00902
2369.19793,0.00942
2367.13776,0.00888
2365.07759,0.00782
2363.01742,0.00774
2360.95725,0.00994
2358.89707,0.01013
2356.83690,0.00895
2354.77673,0.00848
2352.71656,0.00852
2350.65639,0.01010
2348.59621,0.01095
2346.53604,0.00813
2344.47587,0.00781
2342.41570,0.00898
2340.35552,0.00993
2338.29535,0.01052
2336.23518,0.01042
2334.17501,0.00946
2332.11484,0.00789
2330.05466,0.00728
2327.99449,0.00746
2325.93432,0.00825
2323.87415,0.00791
2321.81398,0.00738
2319.75380,0.00743
2317.69363,0.00842
2315.63346,0.00850
2313.57329,0.00800
2311.51312,0.00813
2309.45294,0.00850
2307.39277,0.00834
2305.33260,0.00780
2303.27243,0.00756
2301.21225,0.00752
2299.15208,0.00744
2297.09191,0.00708
2295.03174,0.00678
2292.97157,0.00699
2290.91139,0.00729
2288.85122,0.00719
2286.79105,0.00693
2284.73088,0.00712
2282.67071,0.00775
2280.61053,0.00781
2278.55036,0.00686
2276.49019,0.00590
2274.43002,0.00589
2272.36984,0.00636
2270.30967,0.00675
2268.24950,0.00714
2266.18933,0.00703
2264.12916,0.00613
2262.06898,0.00570
2260.00881,0.00612
2257.94864,0.00647
2255.88847,0.00672
2253.82830,0.00709
2251.76812,0.00691
2249.70795,0.00632
2247.64778,0.00625
2245.58761,0.00631
2243.52744,0.00589
2241.46726,0.00543
2239.40709,0.00532
2237.34692,0.00524
2235.28675,0.00514
2233.22657,0.00528
2231.16640,0.00601
2229.10623,0.00745
2227.04606,0.00837
2224.98589,0.00776
2222.92571,0.00644
2220.86554,0.00528
2218.80537,0.00423
2216.74520,0.00336
2214.68503,0.00323
2212.62485,0.00368
2210.56468,0.00354
2208.50451,0.00301
2206.44434,0.00328
2204.38417,0.00397
2202.32399,0.00441
2200.26382,0.00509
2198.20365,0.00561
2196.14348,0.00555
2194.08330,0.00554
2192.02313,0.00556
2189.96296,0.00542
2187.90279,0.00487
2185.84262,0.00389
2183.78244,0.00336
2181.72227,0.00327
2179.66210,0.00293
2177.60193,0.00305
2175.54176,0.00416
2173.48158,0.00519
2171.42141,0.00588
2169.36124,0.00603
2167.30107,0.00547
2165.24089,0.00525
2163.18072,0.00497
2161.12055,0.00368
2159.06038,0.00267
2157.00021,0.00302
2154.94003,0.00250
2152.87986,0.00092
2150.81969,0.00070
2148.75952,0.00119
2146.69935,0.00153
2144.63917,0.00206
2142.57900,0.00219
2140.51883,0.00197
2138.45866,0.00207
2136.39849,0.00237
2134.33831,0.00263
2132.27814,0.00283
2130.21797,0.00282
2128.15780,0.00282
2126.09762,0.00314
2124.03745,0.00346
2121.97728,0.00352
2119.91711,0.00362
2117.85694,0.00373
2115.79676,0.00353
2113.73659,0.00336
2111.67642,0.00369
2109.61625,0.00392
2107.55608,0.00383
2105.49590,0.00403
2103.43573,0.00417
2101.37556,0.00400
2099.31539,0.00390
2097.25521,0.00375
2095.19504,0.00345
2093.13487,0.00333
2091.07470,0.00363
2089.01453,0.00402
2086.95435,0.00384
2084.89418,0.00345
2082.83401,0.00356
2080.77384,0.00377
2078.71367,0.00349
2076.65349,0.00301
2074.59332,0.00288
2072.53315,0.00326
2070.47298,0.00337
2068.41281,0.00301
2066.35263,0.00296
2064.29246,0.00327
2062.23229,0.00353
2060.17212,0.00351
2058.11194,0.00337
2056.05177,0.00331
2053.99160,0.00316
2051.93143,0.00302
2049.87126,0.00290
2047.81108,0.00257
2045.75091,0.00259
2043.69074,0.00321
2041.63057,0.00349
2039.57040,0.00281
2037.51022,0.00165
2035.45005,0.00049
2033.38988,0.00000
2031.32971,0.00081
2029.26954,0.00206
2027.20936,0.00249
2025.14919,0.00225
2023.08902,0.00216
2021.02885,0.00238
2018.96867,0.00248
2016.90850,0.00291
2014.84833,0.00356
2012.78816,0.00293
2010.72799,0.00156
2008.66781,0.00130
2006.60764,0.00190
2004.54747,0.00235
2002.48730,0.00293
2000.42713,0.00380
1998.36695,0.00433
1996.30678,0.00429
1994.24661,0.00355
1992.18644,0.00219
1990.12626,0.00166
1988.06609,0.00286
1986.00592,0.00471
1983.94575,0.00499
1981.88558,0.00392
1979.82540,0.00367
1977.76523,0.00369
1975.70506,0.00213
1973.64489,0.00093
1971.58472,0.00195
1969.52454,0.00274
1967.46437,0.00168
1965.40420,0.00051
1963.34403,0.00004
1961.28386,0.00020
1959.22368,0.00136
1957.16351,0.00315
1955.10334,0.00424
1953.04317,0.00377
1950.98299,0.00284
1948.92282,0.00248
1946.86265,0.00246
1944.80248,0.00247
1942.74231,0.00221
1940.68213,0.00214
1938.62196,0.00226
1936.56179,0.00234
1934.50162,0.00211
1932.44145,0.00175
1930.38127,0.00204
1928.32110,0.00269
1926.26093,0.00268
1924.20076,0.00189
1922.14059,0.00169
1920.08041,0.00219
1918.02024,0.00250
1915.96007,0.00292
1913.89990,0.00292
1911.83972,0.00251
1909.77955,0.00211
1907.71938,0.00188
1905.65921,0.00175
1903.59904,0.00181
1901.53886,0.00225
1899.47869,0.00274
1897.41852,0.00273
1895.35835,0.00268
1893.29818,0.00317
1891.23800,0.00300
1889.17783,0.00208
1887.11766,0.00138
1885.05749,0.00108
1882.99731,0.00153
1880.93714,0.00229
1878.87697,0.00277
1876.81680,0.00321
1874.75663,0.00372
1872.69645,0.00359
1870.63628,0.00221
1868.57611,0.00101
1866.51594,0.00147
1864.45577,0.00228
1862.39559,0.00254
1860.33542,0.00246
1858.27525,0.00220
1856.21508,0.00192
1854.15491,0.00191
1852.09473,0.00214
1850.03456,0.00226
1847.97439,0.00235
1845.91422,0.00214
1843.85404,0.00198
1841.79387,0.00266
1839.73370,0.00287
1837.67353,0.00271
1835.61336,0.00306
1833.55318,0.00329
1831.49301,0.00270
1829.43284,0.00246
1827.37267,0.00292
1825.31250,0.00288
1823.25232,0.00285
1821.19215,0.00276
1819.13198,0.00241
1817.07181,0.00239
1815.01163,0.00263
1812.95146,0.00243
1810.89129,0.00216
1808.83112,0.00261
1806.77095,0.00326
1804.71077,0.00343
1802.65060,0.00305
1800.59043,0.00271
1798.53026,0.00302
1796.47009,0.00337
1794.40991,0.00284
1792.34974,0.00216
1790.28957,0.00285
1788.22940,0.00347
1786.16923,0.00314
1784.10905,0.00297
1782.04888,0.00296
1779.98871,0.00302
1777.92854,0.00350
1775.86836,0.00356
1773.80819,0.00265
1771.74802,0.00227
1769.68785,0.00314
1767.62768,0.00376
1765.56750,0.00404
1763.50733,0.00353
1761.44716,0.00316
1759.38699,0.00354
1757.32682,0.00362
1755.26664,0.00419
1753.20647,0.00428
1751.14630,0.00343
1749.08613,0.00349
1747.02596,0.00423
1744.96578,0.00457
1742.90561,0.00452
1740.84544,0.00431
1738.78527,0.00469
1736.72509,0.00468
1734.66492,0.00332
1732.60475,0.00371
1730.54458,0.00463
1728.48441,0.00466
1726.42423,0.00467
1724.36406,0.00476
1722.30389,0.00529
1720.24372,0.00499
1718.18355,0.00353
1716.12337,0.00367
1714.06320,0.00500
1712.00303,0.00589
1709.94286,0.00595
1707.88268,0.00537
1705.82251,0.00533
1703.76234,0.00645
1701.70217,0.00605
1699.64200,0.00538
1697.58182,0.00583
1695.52165,0.00598
1693.46148,0.00727
1691.40131,0.00774
1689.34114,0.00761
1687.28096,0.00730
1685.22079,0.00560
1683.16062,0.00589
1681.10045,0.00797
1679.04028,0.00846
1676.98010,0.00758
1674.91993,0.00737
1672.85976,0.00844
1670.79959,0.00827
1668.73941,0.00835
1666.67924,0.00941
1664.61907,0.00892
1662.55890,0.00812
1660.49873,0.00922
1658.43855,0.01052
1656.37838,0.01000
1654.31821,0.00762
1652.25804,0.00851
1650.19787,0.01127
1648.13769,0.00984
1646.07752,0.00823
1644.01735,0.00938
1641.95718,0.01021
1639.89701,0.01013
1637.83683,0.00896
1635.77666,0.00752
1633.71649,0.00850
1631.65632,0.00938
1629.59614,0.00863
1627.53597,0.00808
1625.47580,0.00784
1623.41563,0.00748
1621.35546,0.00826
1619.29528,0.00799
1617.23511,0.00625
1615.17494,0.00667
1613.11477,0.00774
1611.05460,0.00727
1608.99442,0.00653
1606.93425,0.00645
1604.87408,0.00645
1602.81391,0.00624
1600.75373,0.00617
1598.69356,0.00607
1596.63339,0.00570
1594.57322,0.00547
1592.51305,0.00550
1590.45287,0.00540
1588.39270,0.00520
1586.33253,0.00502
1584.27236,0.00489
1582.21219,0.00507
1580.15201,0.00529
1578.09184,0.00431
1576.03167,0.00355
1573.97150,0.00511
1571.91133,0.00536
1569.85115,0.00399
1567.79098,0.00427
1565.73081,0.00501
1563.67064,0.00543
1561.61046,0.00400
1559.55029,0.00073
1557.49012,0.00217
1555.42995,0.00439
1553.36978,0.00433
1551.30960,0.00375
1549.24943,0.00372
1547.18926,0.00416
1545.12909,0.00372
1543.06892,0.00250
1541.00874,0.00096
1538.94857,0.00205
1536.88840,0.00436
1534.82823,0.00345
1532.76805,0.00236
1530.70788,0.00331
1528.64771,0.00340
1526.58754,0.00303
1524.52737,0.00308
1522.46719,0.00224
1520.40702,0.00211
1518.34685,0.00250
1516.28668,0.00240
1514.22651,0.00306
1512.16633,0.00356
1510.10616,0.00296
1508.04599,0.00069
1505.98582,0.00035
1503.92565,0.00272
1501.86547,0.00334
1499.80530,0.00213
1497.74513,0.00105
1495.68496,0.00167
1493.62478,0.00283
1491.56461,0.00210
1489.50444,0.00088
1487.44427,0.00119
1485.38410,0.00191
1483.32392,0.00192
1481.26375,0.00174
1479.20358,0.00204
1477.14341,0.00203
1475.08324,0.00130
1473.02306,0.00047
1470.96289,0.00132
1468.90272,0.00241
1466.84255,0.00170
1464.78238,0.00112
1462.72220,0.00228
1460.66203,0.00254
1458.60186,0.00067
1456.54169,0.00019
1454.48151,0.00206
1452.42134,0.00261
1450.36117,0.00181
1448.30100,0.00110
1446.24083,0.00118
1444.18065,0.00141
1442.12048,0.00150
1440.06031,0.00143
1438.00014,0.00040
1435.93997,0.00014
1433.87979,0.00136
1431.81962,0.00136
1429.75945,0.00076
1427.69928,0.00104
1425.63910,0.00135
1423.57893,0.00167
1421.51876,0.00168
1419.45859,0.00091
1417.39842,0.00133
1415.33824,0.00197
1413.27807,0.00152
1411.21790,0.00094
1409.15773,0.00092
1407.09756,0.00085
1405.03738,0.00069
1402.97721,0.00109
1400.91704,0.00116
1398.85687,0.00093
1396.79670,0.00086
1394.73652,0.00059
1392.67635,0.00090
1390.61618,0.00097
1388.55601,0.00020
1386.49583,0.00004
1384.43566,0.00062
1382.37549,0.00075
1380.31532,0.00061
1378.25515,0.00062
1376.19497,0.00047
1374.13480,0.00035
1372.07463,0.00085
1370.01446,0.00108
1367.95429,0.00113
1365.89411,0.00128
1363.83394,0.00089
1361.77377,0.00073
1359.71360,0.00107
1357.65343,0.00101
1355.59325,0.00073
1353.53308,0.00073
1351.47291,0.00076
1349.41274,0.00057
1347.35256,0.00047
1345.29239,0.00064
1343.23222,0.00081
1341.17205,0.00060
1339.11188,0.00048
1337.05170,0.00081
1334.99153,0.00089
1332.93136,0.00068
1330.87119,0.00058
1328.81102,0.00053
1326.75084,0.00040
1324.69067,0.00034
1322.63050,0.00042
1320.57033,0.00045
1318.51015,0.00060
1316.44998,0.00091
1314.38981,0.00093
1312.32964,0.00080
1310.26947,0.00082
1308.20929,0.00084
1306.14912,0.00084
1304.08895,0.00084
1302.02878,0.00087
1299.96861,0.00098
1297.90843,0.00103
1295.84826,0.00102
1293.78809,0.00107
1291.72792,0.00117
1289.66775,0.00129
1287.60757,0.00151
1285.54740,0.00165
1283.48723,0.00151
1281.42706,0.00125
1279.36688,0.00116
1277.30671,0.00125
1275.24654,0.00140
1273.18637,0.00141
1271.12620,0.00131
1269.06602,0.00126
1267.00585,0.00123
1264.94568,0.00121
1262.88551,0.00128
1260.82534,0.00139
1258.76516,0.00152
1256.70499,0.00156
1254.64482,0.00146
1252.58465,0.00130
1250.52447,0.00118
1248.46430,0.00118
1246.40413,0.00121
1244.34396,0.00116
1242.28379,0.00108
1240.22361,0.00098
1238.16344,0.00089
1236.10327,0.00089
1234.04310,0.00087
1231.98293,0.00074
1229.92275,0.00057
1227.86258,0.00049
1225.80241,0.00051
1223.74224,0.00059
1221.68207,0.00073
1219.62189,0.00069
1217.56172,0.00035
1215.50155,0.00002
1213.44138,0.00000
1211.38120,0.00012
1209.32103,0.00017
1207.26086,0.00012
1205.20069,0.00014
1203.14052,0.00031
1201.08034,0.00034
1199.02017,0.00013
1196.96000,-0.00001
1194.89983,0.00003
1192.83966,0.00016
1190.77948,0.00040
1188.71931,0.00077
1186.65914,0.00116
1184.59897,0.00152
1182.53880,0.00194
1180.47862,0.00224
1178.41845,0.00240
1176.35828,0.00272
1174.29811,0.00317
1172.23793,0.00358
1170.17776,0.00404
1168.11759,0.00453
1166.05742,0.00491
1163.99725,0.00526
1161.93707,0.00581
1159.87690,0.00638
1157.81673,0.00674
1155.75656,0.00705
1153.69639,0.00745
1151.63621,0.00780
1149.57604,0.00809
1147.51587,0.00841
1145.45570,0.00876
1143.39552,0.00924
1141.33535,0.00998
1139.27518,0.01081
1137.21501,0.01143
1135.15484,0.01175
1133.09466,0.01220
1131.03449,0.01297
1128.97432,0.01367
1126.91415,0.01422
1124.85398,0.01483
1122.79380,0.01538
1120.73363,0.01585
1118.67346,0.01656
1116.61329,0.01772
1114.55312,0.01892
1112.49294,0.01956
1110.43277,0.01971
1108.37260,0.02001
1106.31243,0.02065
1104.25225,0.02150
1102.19208,0.02243
1100.13191,0.02314
1098.07174,0.02364
1096.01157,0.02407
1093.95139,0.02436
1091.89122,0.02467
1089.83105,0.02529
1087.77088,0.02596
1085.71071,0.02644
1083.65053,0.02696
1081.59036,0.02750
1079.53019,0.02785
1077.47002,0.02808
1075.40985,0.02840
1073.34967,0.02884
1071.28950,0.02918
1069.22933,0.02932
1067.16916,0.02951
1065.10898,0.02977
1063.04881,0.02982
1060.98864,0.02962
1058.92847,0.02933
1056.86830,0.02904
1054.80812,0.02883
1052.74795,0.02847
1050.68778,0.02784
1048.62761,0.02717
1046.56744,0.02648
1044.50726,0.02584
1042.44709,0.02536
1040.38692,0.02473
1038.32675,0.02391
1036.26657,0.02337
1034.20640,0.02287
1032.14623,0.02189
1030.08606,0.02091
1028.02589,0.02037
1025.96571,0.01991
1023.90554,0.01930
1021.84537,0.01853
1019.78520,0.01770
1017.72503,0.01716
1015.66485,0.01704
1013.60468,0.01698
1011.54451,0.01668
1009.48434,0.01651
1007.42417,0.01686
1005.36399,0.01739
1003.30382,0.01764
1001.24365,0.01766
999.18348,0.01785
997.12330,0.01841
995.06313,0.01914
993.00296,0.01976
990.94279,0.02013
988.88262,0.02044
986.82244,0.02081
984.76227,0.02117
982.70210,0.02141
980.64193,0.02134
978.58176,0.02112
976.52158,0.02116
974.46141,0.02117
972.40124,0.02069
970.34107,0.01998
968.28089,0.01934
966.22072,0.01874
964.16055,0.01815
962.10038,0.01757
960.04021,0.01697
957.98003,0.01628
955.91986,0.01557
953.85969,0.01504
951.79952,0.01463
949.73935,0.01430
947.67917,0.01418
945.61900,0.01394
943.55883,0.01357
941.49866,0.01358
939.43849,0.01368
937.37831,0.01350
935.31814,0.01327
933.25797,0.01308
931.19780,0.01287
929.13762,0.01277
927.07745,0.01288
925.01728,0.01299
922.95711,0.01291
920.89694,0.01267
918.83676,0.01227
916.77659,0.01188
914.71642,0.01174
912.65625,0.01153
910.59608,0.01118
908.53590,0.01105
906.47573,0.01092
904.41556,0.01076
902.35539,0.01081
900.29522,0.01092
898.23504,0.01096
896.17487,0.01079
894.11470,0.01047
892.05453,0.01064
889.99435,0.01135
887.93418,0.01173
885.87401,0.01145
883.81384,0.01127
881.75367,0.01160
879.69349,0.01204
877.63332,0.01239
875.57315,0.01268
873.51298,0.01269
871.45281,0.01249
869.39263,0.01260
867.33246,0.01308
865.27229,0.01329
863.21212,0.01318
861.15194,0.01337
859.09177,0.01373
857.03160,0.01364
854.97143,0.01322
852.91126,0.01308
850.85108,0.01312
848.79091,0.01291
846.73074,0.01259
844.67057,0.01221
842.61040,0.01198
840.55022,0.01203
838.49005,0.01185
836.42988,0.01119
834.36971,0.01033
832.30954,0.00970
830.24936,0.00953
828.18919,0.00931
826.12902,0.00868
824.06885,0.00809
822.00867,0.00790
819.94850,0.00814
817.88833,0.00845
815.82816,0.00841
813.76799,0.00808
811.70781,0.00774
809.64764,0.00765
807.58747,0.00754
805.52730,0.00717
803.46713,0.00693
801.40695,0.00680
799.34678,0.00636
797.28661,0.00582
795.22644,0.00536
793.16627,0.00486
791.10609,0.00467
789.04592,0.00497
786.98575,0.00555
784.92558,0.00569
782.86540,0.00514
780.80523,0.00479
778.74506,0.00485
776.68489,0.00494
774.62472,0.00509
772.56454,0.00520
770.50437,0.00500
768.44420,0.00457
766.38403,0.00435
764.32386,0.00434
762.26368,0.00425
760.20351,0.00403
758.14334,0.00386
756.08317,0.00390
754.02299,0.00409
751.96282,0.00398
749.90265,0.00339
747.84248,0.00286
745.78231,0.00273
743.72213,0.00298
741.66196,0.00317
739.60179,0.00300
737.54162,0.00292
735.48145,0.00293
733.42127,0.00253
731.36110,0.00210
729.30093,0.00230
727.24076,0.00280
725.18059,0.00306
723.12041,0.00316
721.06024,0.00274
719.00007,0.00292
716.93990,0.00298
714.87972,0.00260
712.81955,0.00247
710.75938,0.00284
708.69921,0.00359
706.63904,0.00414
704.57886,0.00383
702.51869,0.00309
700.45852,0.00299
698.39835,0.00343
696.33818,0.00354
694.27800,0.00348
692.21783,0.00386
690.15766,0.00432
688.09749,0.00412
686.03731,0.00328
683.97714,0.00243
681.91697,0.00224
679.85680,0.00279
677.79663,0.00352
675.73645,0.00415
673.67628,0.00509
671.61611,0.00604
669.55594,0.00292
667.49577,0.00000
665.43559,0.00585
663.37542,0.00479
661.31525,0.00240
659.25508,0.00173
657.19491,0.00267
655.13473,0.00402
653.07456,0.00429
651.01439,0.00371
648.95422,0.00341
646.89404,0.00359
644.83387,0.00328
642.77370,0.00257
640.71353,0.00212
638.65336,0.00272
636.59318,0.00355
634.53301,0.00321
632.47284,0.00276
630.41267,0.00364
628.35250,0.00447
626.29232,0.00379
624.23215,0.00337
622.17198,0.00309
620.11181,0.00221
618.05164,0.00160
615.99146,0.00202
613.93129,0.00335
611.87112,0.00332
609.81095,0.00164
607.75077,0.00137
605.69060,0.00238
603.63043,0.00207
601.57026,0.00071
599.51009,0.00000
