3996.73391,-0.00400
3994.67373,-0.00379
3992.61356,-0.00361
3990.55339,-0.00347
3988.49322,-0.00326
3986.43305,-0.00282
3984.37287,-0.00242
3982.31270,-0.00224
3980.25253,-0.00225
3978.19236,-0.00223
3976.13219,-0.00192
3974.07201,-0.00138
3972.01184,-0.00089
3969.95167,-0.00064
3967.89150,-0.00076
3965.83133,-0.00113
3963.77115,-0.00112
3961.71098,-0.00071
3959.65081,-0.00048
3957.59064,-0.00047
3955.53046,-0.00052
3953.47029,-0.00052
3951.41012,-0.00024
3949.34995,0.00012
3947.28978,0.00000
3945.22960,-0.00007
3943.16943,0.00017
3941.10926,0.00001
3939.04909,0.00000
3936.98892,0.00047
3934.92874,0.00118
3932.86857,0.00165
3930.80840,0.00143
3928.74823,0.00106
3926.68805,0.00134
3924.62788,0.00151
3922.56771,0.00102
3920.50754,0.00092
3918.44737,0.00122
3916.38719,0.00113
3914.32702,0.00088
3912.26685,0.00092
3910.20668,0.00080
3908.14651,0.00062
3906.08633,0.00112
3904.02616,0.00164
3901.96599,0.00166
3899.90582,0.00177
3897.84565,0.00144
3895.78547,0.00135
3893.72530,0.00251
3891.66513,0.00311
3889.60496,0.00189
3887.54478,0.00173
3885.48461,0.00227
3883.42444,0.00152
3881.36427,0.00127
3879.30410,0.00065
3877.24392,0.00000
3875.18375,0.00078
3873.12358,0.00145
3871.06341,0.00203
3869.00324,0.00156
3866.94306,0.00063
3864.88289,0.00109
3862.82272,0.00117
3860.76255,0.00069
3858.70237,0.00036
3856.64220,0.00106
3854.58203,0.00289
3852.52186,0.00248
3850.46169,0.00046
3848.40151,0.00030
3846.34134,0.00126
3844.28117,0.00177
3842.22100,0.00177
3840.16083,0.00245
3838.10065,0.00285
3836.04048,0.00178
3833.98031,0.00095
3831.92014,0.00069
3829.85997,0.00031
3827.79979,0.00046
3825.73962,0.00061
3823.67945,0.00117
3821.61928,0.00208
3819.55910,0.00102
3817.49893,0.00095
3815.43876,0.00148
3813.37859,0.00055
3811.31842,0.00033
3809.25824,0.00135
3807.19807,0.00177
3805.13790,0.00082
3803.07773,0.00163
3801.01756,0.00254
3798.95738,0.00164
3796.89721,0.00174
3794.83704,0.00182
3792.77687,0.00165
3790.71670,0.00160
3788.65652,0.00142
3786.59635,0.00168
3784.53618,0.00187
3782.47601,0.00139
3780.41583,0.00109
3778.35566,0.00075
3776.29549,0.00054
3774.23532,0.00099
3772.17515,0.00167
3770.11497,0.00173
3768.05480,0.00106
3765.99463,0.00107
3763.93446,0.00114
3761.87429,0.00160
3759.81411,0.00239
3757.75394,0.00170
3755.69377,0.00069
3753.63360,0.00196
3751.57342,0.00409
3749.51325,0.00301
3747.45308,0.00097
3745.39291,0.00175
3743.33274,0.00171
3741.27256,0.00041
3739.21239,0.00062
3737.15222,0.00170
3735.09205,0.00211
3733.03188,0.00154
3730.97170,0.00073
3728.91153,0.00057
3726.85136,0.00130
3724.79119,0.00166
3722.73102,0.00163
3720.67084,0.00149
3718.61067,0.00109
3716.55050,0.00069
3714.49033,0.00131
3712.43015,0.00264
3710.36998,0.00250
3708.30981,0.00108
3706.24964,0.00047
3704.18947,0.00118
3702.12929,0.00219
3700.06912,0.00214
3698.00895,0.00175
3695.94878,0.00169
3693.88861,0.00188
3691.82843,0.00281
3689.76826,0.00353
3687.70809,0.00260
3685.64792,0.00149
3683.58775,0.00156
3681.52757,0.00185
3679.46740,0.00217
3677.40723,0.00363
3675.34706,0.00449
3673.28688,0.00290
3671.22671,0.00335
3669.16654,0.00399
3667.10637,0.00270
3665.04620,0.00243
3662.98602,0.00296
3660.92585,0.00293
3658.86568,0.00288
3656.80551,0.00313
3654.74534,0.00251
3652.68516,0.00283
3650.62499,0.00495
3648.56482,0.00571
3646.50465,0.00470
3644.44447,0.00427
3642.38430,0.00490
3640.32413,0.00532
3638.26396,0.00533
3636.20379,0.00527
3634.14361,0.00517
3632.08344,0.00556
3630.02327,0.00731
3627.96310,0.00773
3625.90293,0.00636
3623.84275,0.00617
3621.78258,0.00752
3619.72241,0.00925
3617.66224,0.00960
3615.60207,0.00935
3613.54189,0.00961
3611.48172,0.00971
3609.42155,0.01003
3607.36138,0.00985
3605.30120,0.00909
3603.24103,0.00950
3601.18086,0.01068
3599.12069,0.01117
3597.06052,0.01129
3595.00034,0.01156
3592.94017,0.01133
3590.88000,0.01128
3588.81983,0.01213
3586.75966,0.01253
3584.69948,0.01225
3582.63931,0.01263
3580.57914,0.01336
3578.51897,0.01378
3576.45879,0.01390
3574.39862,0.01371
3572.33845,0.01320
3570.27828,0.01326
3568.21811,0.01462
3566.15793,0.01585
3564.09776,0.01603
3562.03759,0.01617
3559.97742,0.01635
3557.91725,0.01631
3555.85707,0.01645
3553.79690,0.01685
3551.73673,0.01687
3549.67656,0.01670
3547.61639,0.01725
3545.55621,0.01798
3543.49604,0.01808
3541.43587,0.01806
3539.37570,0.01837
3537.31552,0.01877
3535.25535,0.01898
3533.19518,0.01939
3531.13501,0.02031
3529.07484,0.02113
3527.01466,0.02121
3524.95449,0.02098
3522.89432,0.02089
3520.83415,0.02082
3518.77398,0.02100
3516.71380,0.02141
3514.65363,0.02166
3512.59346,0.02177
3510.53329,0.02213
3508.47312,0.02256
3506.41294,0.02294
3504.35277,0.02335
3502.29260,0.02328
3500.23243,0.02315
3498.17225,0.02378
3496.11208,0.02475
3494.05191,0.02537
3491.99174,0.02567
3489.93157,0.02584
3487.87139,0.02595
3485.81122,0.02591
3483.75105,0.02589
3481.69088,0.02605
3479.63071,0.02615
3477.57053,0.02632
3475.51036,0.02655
3473.45019,0.02657
3471.39002,0.02686
3469.32984,0.02762
3467.26967,0.02816
3465.20950,0.02818
3463.14933,0.02815
3461.08916,0.02831
3459.02898,0.02873
3456.96881,0.02923
3454.90864,0.02941
3452.84847,0.02933
3450.78830,0.02927
3448.72812,0.02932
3446.66795,0.02924
3444.60778,0.02930
3442.54761,0.02976
3440.48744,0.03006
3438.42726,0.03034
3436.36709,0.03074
3434.30692,0.03093
3432.24675,0.03102
3430.18657,0.03141
3428.12640,0.03202
3426.06623,0.03220
3424.00606,0.03193
3421.94589,0.03192
3419.88571,0.03222
3417.82554,0.03248
3415.76537,0.03257
3413.70520,0.03238
3411.64503,0.03205
3409.58485,0.03204
3407.52468,0.03227
3405.46451,0.03242
3403.40434,0.03274
3401.34416,0.03333
3399.28399,0.03370
3397.22382,0.03355
3395.16365,0.03342
3393.10348,0.03384
3391.04330,0.03433
3388.98313,0.03441
3386.92296,0.03422
3384.86279,0.03413
3382.80262,0.03440
3380.74244,0.03481
3378.68227,0.03504
3376.62210,0.03515
3374.56193,0.03522
3372.50176,0.03526
3370.44158,0.03539
3368.38141,0.03562
3366.32124,0.03587
3364.26107,0.03592
3362.20089,0.03563
3360.14072,0.03517
3358.08055,0.03494
3356.02038,0.03516
3353.96021,0.03564
3351.90003,0.03596
3349.83986,0.03591
3347.77969,0.03581
3345.71952,0.03589
3343.65935,0.03610
3341.59917,0.03633
3339.53900,0.03649
3337.47883,0.03665
3335.41866,0.03677
3333.35849,0.03683
3331.29831,0.03705
3329.23814,0.03735
3327.17797,0.03737
3325.11780,0.03718
3323.05762,0.03707
3320.99745,0.03719
3318.93728,0.03735
3316.87711,0.03748
3314.81694,0.03770
3312.75676,0.03778
3310.69659,0.03756
3308.63642,0.03719
3306.57625,0.03708
3304.51608,0.03736
3302.45590,0.03753
3300.39573,0.03744
3298.33556,0.03746
3296.27539,0.03766
3294.21521,0.03804
3292.15504,0.03848
3290.09487,0.03868
3288.03470,0.03874
3285.97453,0.03891
3283.91435,0.03898
3281.85418,0.03866
3279.79401,0.03823
3277.73384,0.03799
3275.67367,0.03790
3273.61349,0.03805
3271.55332,0.03821
3269.49315,0.03821
3267.43298,0.03814
3265.37281,0.03811
3263.31263,0.03815
3261.25246,0.03821
3259.19229,0.03844
3257.13212,0.03875
3255.07194,0.03888
3253.01177,0.03884
3250.95160,0.03886
3248.89143,0.03898
3246.83126,0.03906
3244.77108,0.03909
3242.71091,0.03904
3240.65074,0.03888
3238.59057,0.03870
3236.53040,0.03860
3234.47022,0.03850
3232.41005,0.03844
3230.34988,0.03861
3228.28971,0.03897
3226.22954,0.03907
3224.16936,0.03885
3222.10919,0.03865
3220.04902,0.03850
3217.98885,0.03841
3215.92867,0.03861
3213.86850,0.03880
3211.80833,0.03860
3209.74816,0.03838
3207.68799,0.03840
3205.62781,0.03844
3203.56764,0.03835
3201.50747,0.03836
3199.44730,0.03858
3197.38713,0.03857
3195.32695,0.03809
3193.26678,0.03769
3191.20661,0.03768
3189.14644,0.03769
3187.08626,0.03755
3185.02609,0.03751
3182.96592,0.03766
3180.90575,0.03781
3178.84558,0.03780
3176.78540,0.03755
3174.72523,0.03729
3172.66506,0.03737
3170.60489,0.03762
3168.54472,0.03758
3166.48454,0.03724
3164.42437,0.03682
3162.36420,0.03634
3160.30403,0.03610
3158.24386,0.03620
3156.18368,0.03622
3154.12351,0.03625
3152.06334,0.03659
3150.00317,0.03706
3147.94299,0.03731
3145.88282,0.03709
3143.82265,0.03659
3141.76248,0.03626
3139.70231,0.03617
3137.64213,0.03610
3135.58196,0.03590
3133.52179,0.03568
3131.46162,0.03552
3129.40145,0.03532
3127.34127,0.03512
3125.28110,0.03494
3123.22093,0.03473
3121.16076,0.03454
3119.10058,0.03430
3117.04041,0.03404
3114.98024,0.03395
3112.92007,0.03412
3110.85990,0.03435
3108.79972,0.03425
3106.73955,0.03383
3104.67938,0.03359
3102.61921,0.03369
3100.55904,0.03371
3098.49886,0.03348
3096.43869,0.03321
3094.37852,0.03299
3092.31835,0.03285
3090.25818,0.03269
3088.19800,0.03256
3086.13783,0.03251
3084.07766,0.03228
3082.01749,0.03193
3079.95731,0.03178
3077.89714,0.03175
3075.83697,0.03168
3073.77680,0.03177
3071.71663,0.03197
3069.65645,0.03198
3067.59628,0.03172
3065.53611,0.03144
3063.47594,0.03140
3061.41577,0.03140
3059.35559,0.03108
3057.29542,0.03059
3055.23525,0.03026
3053.17508,0.03017
3051.11491,0.03014
3049.05473,0.02994
3046.99456,0.02965
3044.93439,0.02934
3042.87422,0.02914
3040.81404,0.02921
3038.75387,0.02938
3036.69370,0.02939
3034.63353,0.02930
3032.57336,0.02931
3030.51318,0.02925
3028.45301,0.02886
3026.39284,0.02843
3024.33267,0.02824
3022.27250,0.02810
3020.21232,0.02771
3018.15215,0.02726
3016.09198,0.02712
3014.03181,0.02724
3011.97163,0.02719
3009.91146,0.02674
3007.85129,0.02628
3005.79112,0.02616
3003.73095,0.02622
3001.67077,0.02629
2999.61060,0.02627
2997.55043,0.02602
2995.49026,0.02577
2993.43009,0.02561
2991.36991,0.02537
2989.30974,0.02514
2987.24957,0.02503
2985.18940,0.02502
2983.12923,0.02506
2981.06905,0.02498
2979.00888,0.02484
2976.94871,0.02473
2974.88854,0.02460
2972.82836,0.02449
2970.76819,0.02431
2968.70802,0.02419
2966.64785,0.02438
2964.58768,0.02447
2962.52750,0.02414
2960.46733,0.02378
2958.40716,0.02376
2956.34699,0.02396
2954.28682,0.02416
2952.22664,0.02426
2950.16647,0.02438
2948.10630,0.02447
2946.04613,0.02437
2943.98596,0.02429
2941.92578,0.02418
2939.86561,0.02387
2937.80544,0.02373
2935.74527,0.02392
2933.68509,0.02402
2931.62492,0.02391
2929.56475,0.02375
2927.50458,0.02351
2925.44441,0.02322
2923.38423,0.02300
2921.32406,0.02286
2919.26389,0.02278
2917.20372,0.02271
2915.14355,0.02265
2913.08337,0.02278
2911.02320,0.02289
2908.96303,0.02270
2906.90286,0.02253
2904.84268,0.02254
2902.78251,0.02248
2900.72234,0.02251
2898.66217,0.02259
2896.60200,0.02254
2894.54182,0.02246
2892.48165,0.02242
2890.42148,0.02226
2888.36131,0.02189
2886.30114,0.02145
2884.24096,0.02128
2882.18079,0.02138
2880.12062,0.02139
2878.06045,0.02126
2876.00028,0.02127
2873.94010,0.02138
2871.87993,0.02151
2869.81976,0.02160
2867.75959,0.02140
2865.69941,0.02096
2863.63924,0.02068
2861.57907,0.02074
2859.51890,0.02086
2857.45873,0.02076
2855.39855,0.02062
2853.33838,0.02056
2851.27821,0.02044
2849.21804,0.02022
2847.15787,0.01991
2845.09769,0.01967
2843.03752,0.01972
2840.97735,0.01993
2838.91718,0.01999
2836.85700,0.01981
2834.79683,0.01943
2832.73666,0.01901
2830.67649,0.01889
2828.61632,0.01907
2826.55614,0.01917
2824.49597,0.01912
2822.43580,0.01895
2820.37563,0.01873
2818.31546,0.01872
2816.25528,0.01878
2814.19511,0.01861
2812.13494,0.01838
2810.07477,0.01824
2808.01460,0.01824
2805.95442,0.01839
2803.89425,0.01852
2801.83408,0.01853
2799.77391,0.01838
2797.71373,0.01822
2795.65356,0.01815
2793.59339,0.01812
2791.53322,0.01796
2789.47305,0.01766
2787.41287,0.01747
2785.35270,0.01741
2783.29253,0.01728
2781.23236,0.01715
2779.17219,0.01713
2777.11201,0.01708
2775.05184,0.01702
2772.99167,0.01706
2770.93150,0.01703
2768.87133,0.01683
2766.81115,0.01671
2764.75098,0.01674
2762.69081,0.01671
2760.63064,0.01667
2758.57046,0.01660
2756.51029,0.01642
2754.45012,0.01619
2752.38995,0.01606
2750.32978,0.01604
2748.26960,0.01602
2746.20943,0.01584
2744.14926,0.01560
2742.08909,0.01554
2740.02892,0.01549
2737.96874,0.01533
2735.90857,0.01538
2733.84840,0.01550
2731.78823,0.01542
2729.72805,0.01530
2727.66788,0.01512
2725.60771,0.01483
2723.54754,0.01467
2721.48737,0.01471
2719.42719,0.01460
2717.36702,0.01440
2715.30685,0.01447
2713.24668,0.01454
2711.18651,0.01435
2709.12633,0.01421
2707.06616,0.01412
2705.00599,0.01395
2702.94582,0.01381
2700.88565,0.01381
2698.82547,0.01389
2696.76530,0.01391
2694.70513,0.01377
2692.64496,0.01351
2690.58478,0.01332
2688.52461,0.01324
2686.46444,0.01319
2684.40427,0.01314
2682.34410,0.01301
2680.28392,0.01272
2678.22375,0.01242
2676.16358,0.01241
2674.10341,0.01254
2672.04324,0.01247
2669.98306,0.01237
2667.92289,0.01240
2665.86272,0.01246
2663.80255,0.01245
2661.74238,0.01235
2659.68220,0.01216
2657.62203,0.01188
2655.56186,0.01163
2653.50169,0.01162
2651.44151,0.01182
2649.38134,0.01192
2647.32117,0.01180
2645.26100,0.01170
2643.20083,0.01159
2641.14065,0.01130
2639.08048,0.01101
2637.02031,0.01087
2634.96014,0.01085
2632.89997,0.01081
2630.83979,0.01067
2628.77962,0.01055
2626.71945,0.01044
2624.65928,0.01050
2622.59910,0.01055
2620.53893,0.01007
2618.47876,0.00950
2616.41859,0.00948
2614.35842,0.00980
2612.29824,0.01015
2610.23807,0.01031
2608.17790,0.01014
2606.11773,0.00982
2604.05756,0.00972
2601.99738,0.00979
2599.93721,0.00966
2597.87704,0.00953
2595.81687,0.00949
2593.75670,0.00944
2591.69652,0.00934
2589.63635,0.00913
2587.57618,0.00898
2585.51601,0.00884
2583.45583,0.00865
2581.39566,0.00879
2579.33549,0.00902
2577.27532,0.00885
2575.21515,0.00860
2573.15497,0.00865
2571.09480,0.00884
2569.03463,0.00884
2566.97446,0.00893
2564.91429,0.00914
2562.85411,0.00892
2560.79394,0.00853
2558.73377,0.00844
2556.67360,0.00865
2554.61342,0.00890
2552.55325,0.00885
2550.49308,0.00865
2548.43291,0.00868
2546.37274,0.00873
2544.31256,0.00852
2542.25239,0.00846
2540.19222,0.00861
2538.13205,0.00861
2536.07188,0.00863
2534.01170,0.00868
2531.95153,0.00854
2529.89136,0.00839
2527.83119,0.00824
2525.77102,0.00825
2523.71084,0.00862
2521.65067,0.00878
2519.59050,0.00868
2517.53033,0.00868
2515.47015,0.00874
2513.40998,0.00886
2511.34981,0.00878
2509.28964,0.00841
2507.22947,0.00829
2505.16929,0.00845
2503.10912,0.00846
2501.04895,0.00831
2498.98878,0.00842
2496.92861,0.00891
2494.86843,0.00921
2492.80826,0.00911
2490.74809,0.00896
2488.68792,0.00898
2486.62775,0.00917
2484.56757,0.00912
2482.50740,0.00872
2480.44723,0.00857
2478.38706,0.00876
2476.32688,0.00914
2474.26671,0.00953
2472.20654,0.00973
2470.14637,0.00978
2468.08620,0.00977
2466.02602,0.00973
2463.96585,0.00976
2461.90568,0.00976
2459.84551,0.00970
2457.78534,0.00982
2455.72516,0.00993
2453.66499,0.00992
2451.60482,0.00990
2449.54465,0.00977
2447.48447,0.00954
2445.42430,0.00937
2443.36413,0.00941
2441.30396,0.00962
2439.24379,0.00966
2437.18361,0.00967
2435.12344,0.00989
2433.06327,0.00990
2431.00310,0.00970
2428.94293,0.00951
2426.88275,0.00927
2424.82258,0.00936
2422.76241,0.00966
2420.70224,0.00975
2418.64207,0.00974
2416.58189,0.00962
2414.52172,0.00956
2412.46155,0.00970
2410.40138,0.00968
2408.34120,0.00947
2406.28103,0.00934
2404.22086,0.00933
2402.16069,0.00947
2400.10052,0.00970
2398.04034,0.00973
2395.98017,0.00979
2393.92000,0.00990
2391.85983,0.00999
2389.79966,0.01017
2387.73948,0.01045
2385.67931,0.01056
2383.61914,0.01031
2381.55897,0.00996
2379.49880,0.00979
2377.43862,0.00969
2375.37845,0.00941
2373.31828,0.00974
2371.25811,0.01080
2369.19793,0.01142
2367.13776,0.01154
2365.07759,0.01186
2363.01742,0.01230
2360.95725,0.01451
2358.89707,0.01372
2356.83690,0.01085
2354.77673,0.00917
2352.71656,0.00928
2350.65639,0.01218
2348.59621,0.01380
2346.53604,0.00967
2344.47587,0.00853
2342.41570,0.00907
2340.35552,0.01020
2338.29535,0.01195
2336.23518,0.01223
2334.17501,0.01124
2332.11484,0.01007
2330.05466,0.01021
2327.99449,0.01078
2325.93432,0.01138
2323.87415,0.01009
2321.81398,0.00906
2319.75380,0.00923
2317.69363,0.01095
2315.63346,0.01144
2313.57329,0.01057
2311.51312,0.00995
2309.45294,0.00984
2307.39277,0.00951
2305.33260,0.00889
2303.27243,0.00871
2301.21225,0.00899
2299.15208,0.00945
2297.09191,0.00948
2295.03174,0.00915
2292.97157,0.00894
2290.91139,0.00901
2288.85122,0.00925
2286.79105,0.00934
2284.73088,0.00939
2282.67071,0.00959
2280.61053,0.00942
2278.55036,0.00844
2276.49019,0.00718
2274.43002,0.00670
2272.36984,0.00704
2270.30967,0.00754
2268.24950,0.00787
2266.18933,0.00785
2264.12916,0.00751
2262.06898,0.00767
2260.00881,0.00851
2257.94864,0.00906
2255.88847,0.00870
2253.82830,0.00809
2251.76812,0.00775
2249.70795,0.00767
2247.64778,0.00767
2245.58761,0.00731
2243.52744,0.00662
2241.46726,0.00629
2239.40709,0.00688
2237.34692,0.00758
2235.28675,0.00726
2233.22657,0.00632
2231.16640,0.00603
2229.10623,0.00674
2227.04606,0.00711
2224.98589,0.00660
2222.92571,0.00678
2220.86554,0.00776
2218.80537,0.00758
2216.74520,0.00603
2214.68503,0.00512
2212.62485,0.00577
2210.56468,0.00631
2208.50451,0.00552
2206.44434,0.00465
2204.38417,0.00481
2202.32399,0.00514
2200.26382,0.00487
2198.20365,0.00491
2196.14348,0.00562
2194.08330,0.00599
2192.02313,0.00600
2189.96296,0.00631
2187.90279,0.00685
2185.84262,0.00705
2183.78244,0.00625
2181.72227,0.00497
2179.66210,0.00409
2177.60193,0.00337
2175.54176,0.00346
2173.48158,0.00500
2171.42141,0.00678
2169.36124,0.00710
2167.30107,0.00652
2165.24089,0.00706
2163.18072,0.00762
2161.12055,0.00624
2159.06038,0.00446
2157.00021,0.00389
2154.94003,0.00284
2152.87986,0.00159
2150.81969,0.00221
2148.75952,0.00344
2146.69935,0.00396
2144.63917,0.00411
2142.57900,0.00327
2140.51883,0.00245
2138.45866,0.00281
2136.39849,0.00301
2134.33831,0.00278
2132.27814,0.00275
2130.21797,0.00290
2128.15780,0.00316
2126.09762,0.00329
2124.03745,0.00304
2121.97728,0.00282
2119.91711,0.00320
2117.85694,0.00374
2115.79676,0.00397
2113.73659,0.00410
2111.67642,0.00405
2109.61625,0.00367
2107.55608,0.00337
2105.49590,0.00351
2103.43573,0.00416
2101.37556,0.00492
2099.31539,0.00468
2097.25521,0.00359
2095.19504,0.00300
2093.13487,0.00344
2091.07470,0.00430
2089.01453,0.00462
2086.95435,0.00435
2084.89418,0.00421
2082.83401,0.00422
2080.77384,0.00399
2078.71367,0.00376
2076.65349,0.00384
2074.59332,0.00387
2072.53315,0.00390
2070.47298,0.00411
2068.41281,0.00405
2066.35263,0.00391
2064.29246,0.00379
2062.23229,0.00362
2060.17212,0.00363
2058.11194,0.00346
2056.05177,0.00306
2053.99160,0.00330
2051.93143,0.00411
2049.87126,0.00401
2047.81108,0.00324
2045.75091,0.00328
2043.69074,0.00361
2041.63057,0.00287
2039.57040,0.00201
2037.51022,0.00297
2035.45005,0.00451
2033.38988,0.00412
2031.32971,0.00215
2029.26954,0.00047
2027.20936,0.00043
2025.14919,0.00212
2023.08902,0.00338
2021.02885,0.00287
2018.96867,0.00236
2016.90850,0.00271
2014.84833,0.00260
2012.78816,0.00230
2010.72799,0.00297
2008.66781,0.00378
2006.60764,0.00351
2004.54747,0.00288
2002.48730,0.00302
2000.42713,0.00363
1998.36695,0.00385
1996.30678,0.00312
1994.24661,0.00208
1992.18644,0.00148
1990.12626,0.00105
1988.06609,0.00185
1986.00592,0.00377
1983.94575,0.00460
1981.88558,0.00377
1979.82540,0.00251
1977.76523,0.00145
1975.70506,0.00042
1973.64489,0.00000
1971.58472,0.00110
1969.52454,0.00288
1967.46437,0.00383
1965.40420,0.00356
1963.34403,0.00280
1961.28386,0.00206
1959.22368,0.00201
1957.16351,0.00333
1955.10334,0.00476
1953.04317,0.00449
1950.98299,0.00289
1948.92282,0.00132
1946.86265,0.00060
1944.80248,0.00131
1942.74231,0.00255
1940.68213,0.00255
1938.62196,0.00221
1936.56179,0.00220
1934.50162,0.00196
1932.44145,0.00153
1930.38127,0.00157
1928.32110,0.00211
1926.26093,0.00252
1924.20076,0.00277
1922.14059,0.00277
1920.08041,0.00300
1918.02024,0.00334
1915.96007,0.00299
1913.89990,0.00312
1911.83972,0.00349
1909.77955,0.00308
1907.71938,0.00218
1905.65921,0.00189
1903.59904,0.00240
1901.53886,0.00295
1899.47869,0.00314
1897.41852,0.00309
1895.35835,0.00303
1893.29818,0.00309
1891.23800,0.00353
1889.17783,0.00346
1887.11766,0.00240
1885.05749,0.00185
1882.99731,0.00205
1880.93714,0.00233
1878.87697,0.00267
1876.81680,0.00314
1874.75663,0.00329
1872.69645,0.00279
1870.63628,0.00238
1868.57611,0.00221
1866.51594,0.00177
1864.45577,0.00167
1862.39559,0.00215
1860.33542,0.00255
1858.27525,0.00251
1856.21508,0.00222
1854.15491,0.00202
1852.09473,0.00204
1850.03456,0.00228
1847.97439,0.00264
1845.91422,0.00317
1843.85404,0.00318
1841.79387,0.00224
1839.73370,0.00212
1837.67353,0.00278
1835.61336,0.00303
1833.55318,0.00304
1831.49301,0.00354
1829.43284,0.00350
1827.37267,0.00284
1825.31250,0.00308
1823.25232,0.00313
1821.19215,0.00273
1819.13198,0.00264
1817.07181,0.00265
1815.01163,0.00257
1812.95146,0.00285
1810.89129,0.00327
1808.83112,0.00316
1806.77095,0.00287
1804.71077,0.00286
1802.65060,0.00330
1800.59043,0.00356
1798.53026,0.00303
1796.47009,0.00245
1794.40991,0.00279
1792.34974,0.00347
1790.28957,0.00300
1788.22940,0.00241
1786.16923,0.00266
1784.10905,0.00303
1782.04888,0.00350
1779.98871,0.00379
1777.92854,0.00338
1775.86836,0.00335
1773.80819,0.00427
1771.74802,0.00456
1769.68785,0.00361
1767.62768,0.00303
1765.56750,0.00279
1763.50733,0.00329
1761.44716,0.00383
1759.38699,0.00377
1757.32682,0.00397
1755.26664,0.00359
1753.20647,0.00360
1751.14630,0.00473
1749.08613,0.00525
1747.02596,0.00497
1744.96578,0.00486
1742.90561,0.00520
1740.84544,0.00560
1738.78527,0.00504
1736.72509,0.00508
1734.66492,0.00702
1732.60475,0.00687
1730.54458,0.00557
1728.48441,0.00539
1726.42423,0.00561
1724.36406,0.00580
1722.30389,0.00547
1720.24372,0.00595
1718.18355,0.00755
1716.12337,0.00754
1714.06320,0.00657
1712.00303,0.00631
1709.94286,0.00675
1707.88268,0.00760
1705.82251,0.00799
1703.76234,0.00723
1701.70217,0.00773
1699.64200,0.00849
1697.58182,0.00861
1695.52165,0.00932
1693.46148,0.00879
1691.40131,0.00886
1689.34114,0.00924
1687.28096,0.00957
1685.22079,0.01159
1683.16062,0.01204
1681.10045,0.01044
1679.04028,0.01019
1676.98010,0.01155
1674.91993,0.01258
1672.85976,0.01252
1670.79959,0.01363
1668.73941,0.01396
1666.67924,0.01276
1664.61907,0.01338
1662.55890,0.01489
1660.49873,0.01449
1658.43855,0.01347
1656.37838,0.01419
1654.31821,0.01689
1652.25804,0.01621
1650.19787,0.01346
1648.13769,0.01490
1646.07752,0.01652
1644.01735,0.01538
1641.95718,0.01454
1639.89701,0.01458
1637.83683,0.01577
1635.77666,0.01689
1633.71649,0.01516
1631.65632,0.01378
1629.59614,0.01427
1627.53597,0.01444
1625.47580,0.01422
1623.41563,0.01419
1621.35546,0.01303
1619.29528,0.01284
1617.23511,0.01422
1615.17494,0.01380
1613.11477,0.01273
1611.05460,0.01296
1608.99442,0.01332
1606.93425,0.01306
1604.87408,0.01266
1602.81391,0.01238
1600.75373,0.01193
1598.69356,0.01148
1596.63339,0.01142
1594.57322,0.01144
1592.51305,0.01112
1590.45287,0.01061
1588.39270,0.01017
1586.33253,0.00985
1584.27236,0.00951
1582.21219,0.00883
1580.15201,0.00804
1578.09184,0.00847
1576.03167,0.00889
1573.97150,0.00726
1571.91133,0.00700
1569.85115,0.00821
1567.79098,0.00755
1565.73081,0.00636
1563.67064,0.00545
1561.61046,0.00636
1559.55029,0.00913
1557.49012,0.00731
1555.42995,0.00484
1553.36978,0.00476
1551.30960,0.00520
1549.24943,0.00492
1547.18926,0.00408
1545.12909,0.00393
1543.06892,0.00441
1541.00874,0.00579
1538.94857,0.00509
1536.88840,0.00274
1534.82823,0.00336
1532.76805,0.00429
1530.70788,0.00327
1528.64771,0.00310
1526.58754,0.00326
1524.52737,0.00290
1522.46719,0.00343
1520.40702,0.00313
1518.34685,0.00244
1516.28668,0.00255
1514.22651,0.00189
1512.16633,0.00123
1510.10616,0.00200
1508.04599,0.00471
1505.98582,0.00482
1503.92565,0.00178
1501.86547,0.00096
1499.80530,0.00226
1497.74513,0.00320
1495.68496,0.00226
1493.62478,0.00103
1491.56461,0.00189
1489.50444,0.00307
1487.44427,0.00252
1485.38410,0.00171
1483.32392,0.00171
1481.26375,0.00189
1479.20358,0.00166
1477.14341,0.00191
1475.08324,0.00297
1473.02306,0.00394
1470.96289,0.00285
1468.90272,0.00151
1466.84255,0.00227
1464.78238,0.00317
1462.72220,0.00228
1460.66203,0.00227
1458.60186,0.00453
1456.54169,0.00516
1454.48151,0.00293
1452.42134,0.00200
1450.36117,0.00266
1448.30100,0.00338
1446.24083,0.00314
1444.18065,0.00257
1442.12048,0.00229
1440.06031,0.00230
1438.00014,0.00326
1435.93997,0.00355
1433.87979,0.00252
1431.81962,0.00257
1429.75945,0.00305
1427.69928,0.00291
1425.63910,0.00317
1423.57893,0.00344
1421.51876,0.00376
1419.45859,0.00481
1417.39842,0.00450
1415.33824,0.00352
1413.27807,0.00341
1411.21790,0.00353
1409.15773,0.00333
1407.09756,0.00344
1405.03738,0.00362
1402.97721,0.00304
1400.91704,0.00291
1398.85687,0.00348
1396.79670,0.00378
1394.73652,0.00373
1392.67635,0.00290
1390.61618,0.00250
1388.55601,0.00313
1386.49583,0.00319
1384.43566,0.00259
1382.37549,0.00254
1380.31532,0.00278
1378.25515,0.00288
1376.19497,0.00319
1374.13480,0.00343
1372.07463,0.00300
1370.01446,0.00285
1367.95429,0.00295
1365.89411,0.00294
1363.83394,0.00327
1361.77377,0.00319
1359.71360,0.00252
1357.65343,0.00219
1355.59325,0.00220
1353.53308,0.00218
1351.47291,0.00211
1349.41274,0.00205
1347.35256,0.00194
1345.29239,0.00180
1343.23222,0.00172
1341.17205,0.00200
1339.11188,0.00229
1337.05170,0.00207
1334.99153,0.00175
1332.93136,0.00169
1330.87119,0.00173
1328.81102,0.00165
1326.75084,0.00151
1324.69067,0.00146
1322.63050,0.00156
1320.57033,0.00189
1318.51015,0.00215
1316.44998,0.00211
1314.38981,0.00212
1312.32964,0.00211
1310.26947,0.00204
1308.20929,0.00215
1306.14912,0.00216
1304.08895,0.00200
1302.02878,0.00196
1299.96861,0.00210
1297.90843,0.00225
1295.84826,0.00236
1293.78809,0.00242
1291.72792,0.00247
1289.66775,0.00267
1287.60757,0.00288
1285.54740,0.00284
1283.48723,0.00267
1281.42706,0.00247
1279.36688,0.00241
1277.30671,0.00257
1275.24654,0.00274
1273.18637,0.00283
1271.12620,0.00280
1269.06602,0.00270
1267.00585,0.00270
1264.94568,0.00269
1262.88551,0.00263
1260.82534,0.00278
1258.76516,0.00299
1256.70499,0.00302
1254.64482,0.00292
1252.58465,0.00280
1250.52447,0.00270
1248.46430,0.00267
1246.40413,0.00275
1244.34396,0.00276
1242.28379,0.00257
1240.22361,0.00234
1238.16344,0.00225
1236.10327,0.00216
1234.04310,0.00189
1231.98293,0.00160
1229.92275,0.00149
1227.86258,0.00143
1225.80241,0.00127
1223.74224,0.00114
1221.68207,0.00101
1219.62189,0.00074
1217.56172,0.00039
1215.50155,0.00012
1213.44138,0.00000
1211.38120,0.00006
1209.32103,0.00005
1207.26086,-0.00011
1205.20069,-0.00016
1203.14052,-0.00008
1201.08034,-0.00003
1199.02017,-0.00002
1196.96000,0.00007
1194.89983,0.00027
1192.83966,0.00045
1190.77948,0.00072
1188.71931,0.00112
1186.65914,0.00144
1184.59897,0.00197
1182.53880,0.00275
1180.47862,0.00328
1178.41845,0.00358
1176.35828,0.00412
1174.29811,0.00490
1172.23793,0.00576
1170.17776,0.00671
1168.11759,0.00751
1166.05742,0.00799
1163.99725,0.00852
1161.93707,0.00937
1159.87690,0.01026
1157.81673,0.01094
1155.75656,0.01154
1153.69639,0.01217
1151.63621,0.01281
1149.57604,0.01346
1147.51587,0.01417
1145.45570,0.01481
1143.39552,0.01544
1141.33535,0.01626
1139.27518,0.01717
1137.21501,0.01799
1135.15484,0.01877
1133.09466,0.01976
1131.03449,0.02092
1128.97432,0.02195
1126.91415,0.02284
1124.85398,0.02379
1122.79380,0.02473
1120.73363,0.02564
1118.67346,0.02673
1116.61329,0.02793
1114.55312,0.02894
1112.49294,0.02965
1110.43277,0.03052
1108.37260,0.03182
1106.31243,0.03310
1104.25225,0.03414
1102.19208,0.03515
1100.13191,0.03615
1098.07174,0.03714
1096.01157,0.03808
1093.95139,0.03891
1091.89122,0.03981
1089.83105,0.04074
1087.77088,0.04161
1085.71071,0.04251
1083.65053,0.04350
1081.59036,0.04448
1079.53019,0.04533
1077.47002,0.04599
1075.40985,0.04651
1073.34967,0.04699
1071.28950,0.04750
1069.22933,0.04791
1067.16916,0.04817
1065.10898,0.04840
1063.04881,0.04863
1060.98864,0.04879
1058.92847,0.04878
1056.86830,0.04856
1054.80812,0.04823
1052.74795,0.04777
1050.68778,0.04717
1048.62761,0.04652
1046.56744,0.04572
1044.50726,0.04479
1042.44709,0.04403
1040.38692,0.04326
1038.32675,0.04233
1036.26657,0.04158
1034.20640,0.04088
1032.14623,0.03981
1030.08606,0.03859
1028.02589,0.03755
1025.96571,0.03667
1023.90554,0.03581
1021.84537,0.03481
1019.78520,0.03377
1017.72503,0.03276
1015.66485,0.03186
1013.60468,0.03136
1011.54451,0.03120
1009.48434,0.03119
1007.42417,0.03118
1005.36399,0.03096
1003.30382,0.03076
1001.24365,0.03089
999.18348,0.03128
997.12330,0.03184
995.06313,0.03255
993.00296,0.03332
990.94279,0.03412
988.88262,0.03487
986.82244,0.03542
984.76227,0.03590
982.70210,0.03624
980.64193,0.03611
978.58176,0.03566
976.52158,0.03521
974.46141,0.03465
972.40124,0.03381
970.34107,0.03281
968.28089,0.03172
966.22072,0.03058
964.16055,0.02945
962.10038,0.02826
960.04021,0.02723
957.98003,0.02643
955.91986,0.02559
953.85969,0.02468
951.79952,0.02382
949.73935,0.02323
947.67917,0.02279
945.61900,0.02199
943.55883,0.02138
941.49866,0.02151
939.43849,0.02167
937.37831,0.02137
935.31814,0.02099
933.25797,0.02069
931.19780,0.02018
929.13762,0.01956
927.07745,0.01945
925.01728,0.01973
922.95711,0.01976
920.89694,0.01955
918.83676,0.01921
916.77659,0.01866
914.71642,0.01810
912.65625,0.01754
910.59608,0.01681
908.53590,0.01612
906.47573,0.01580
904.41556,0.01577
902.35539,0.01588
900.29522,0.01583
898.23504,0.01574
896.17487,0.01596
894.11470,0.01615
892.05453,0.01625
889.99435,0.01669
887.93418,0.01713
885.87401,0.01720
883.81384,0.01736
881.75367,0.01773
879.69349,0.01790
877.63332,0.01799
875.57315,0.01856
873.51298,0.01946
871.45281,0.01987
869.39263,0.01975
867.33246,0.01989
865.27229,0.02034
863.21212,0.02048
861.15194,0.02023
859.09177,0.01992
857.03160,0.01981
854.97143,0.01988
852.91126,0.01976
850.85108,0.01960
848.79091,0.01975
846.73074,0.01968
844.67057,0.01900
842.61040,0.01829
840.55022,0.01783
838.49005,0.01743
836.42988,0.01700
834.36971,0.01642
832.30954,0.01583
830.24936,0.01554
828.18919,0.01524
826.12902,0.01442
824.06885,0.01346
822.00867,0.01291
819.94850,0.01273
817.88833,0.01265
815.82816,0.01242
813.76799,0.01210
811.70781,0.01191
809.64764,0.01179
807.58747,0.01138
805.52730,0.01069
803.46713,0.01046
801.40695,0.01058
799.34678,0.01037
797.28661,0.00990
795.22644,0.00944
793.16627,0.00896
791.10609,0.00865
789.04592,0.00880
786.98575,0.00929
784.92558,0.00954
782.86540,0.00931
780.80523,0.00923
778.74506,0.00923
776.68489,0.00903
774.62472,0.00899
772.56454,0.00902
770.50437,0.00871
768.44420,0.00823
766.38403,0.00813
764.32386,0.00834
762.26368,0.00861
760.20351,0.00863
758.14334,0.00839
756.08317,0.00820
754.02299,0.00779
751.96282,0.00706
749.90265,0.00638
747.84248,0.00629
745.78231,0.00698
743.72213,0.00756
741.66196,0.00724
739.60179,0.00642
737.54162,0.00617
735.48145,0.00658
733.42127,0.00676
731.36110,0.00650
729.30093,0.00638
727.24076,0.00650
725.18059,0.00643
723.12041,0.00636
721.06024,0.00603
719.00007,0.00677
716.93990,0.00709
714.87972,0.00640
712.81955,0.00580
710.75938,0.00598
708.69921,0.00672
706.63904,0.00728
704.57886,0.00726
702.51869,0.00705
700.45852,0.00735
698.39835,0.00789
696.33818,0.00812
694.27800,0.00849
692.21783,0.00927
690.15766,0.00988
688.09749,0.00984
686.03731,0.00920
683.97714,0.00855
681.91697,0.00821
679.85680,0.00779
677.79663,0.00704
675.73645,0.00655
673.67628,0.00747
671.61611,0.00886
669.55594,0.00395
667.49577,0.00000
665.43559,0.00948
663.37542,0.00872
661.31525,0.00623
659.25508,0.00606
657.19491,0.00666
655.13473,0.00700
653.07456,0.00722
651.01439,0.00713
648.95422,0.00658
646.89404,0.00648
644.83387,0.00571
642.77370,0.00390
640.71353,0.00263
638.65336,0.00312
636.59318,0.00417
634.53301,0.00415
632.47284,0.00309
630.41267,0.00200
628.35250,0.00160
626.29232,0.00206
624.23215,0.00276
622.17198,0.00352
620.11181,0.00361
618.05164,0.00192
615.99146,-0.00035
613.93129,-0.00096
611.87112,0.00016
609.81095,0.00131
607.75077,0.00112
605.69060,0.00001
603.63043,-0.00098
601.57026,-0.00093
599.51009,0.00000
