3996.73391,0.00044
3994.67373,0.00047
3992.61356,0.00046
3990.55339,0.00036
3988.49322,0.00058
3986.43305,0.00114
3984.37287,0.00146
3982.31270,0.00124
3980.25253,0.00064
3978.19236,0.00015
3976.13219,0.00020
3974.07201,0.00068
3972.01184,0.00125
3969.95167,0.00161
3967.89150,0.00147
3965.83133,0.00081
3963.77115,0.00014
3961.71098,0.00000
3959.65081,0.00023
3957.59064,0.00041
3955.53046,0.00049
3953.47029,0.00057
3951.41012,0.00063
3949.34995,0.00060
3947.28978,0.00043
3945.22960,0.00017
3943.16943,0.00002
3941.10926,0.00000
3939.04909,0.00002
3936.98892,0.00013
3934.92874,0.00037
3932.86857,0.00072
3930.80840,0.00103
3928.74823,0.00104
3926.68805,0.00087
3924.62788,0.00079
3922.56771,0.00070
3920.50754,0.00057
3918.44737,0.00065
3916.38719,0.00093
3914.32702,0.00101
3912.26685,0.00085
3910.20668,0.00077
3908.14651,0.00077
3906.08633,0.00076
3904.02616,0.00090
3901.96599,0.00111
3899.90582,0.00122
3897.84565,0.00117
3895.78547,0.00098
3893.72530,0.00084
3891.66513,0.00076
3889.60496,0.00053
3887.54478,0.00043
3885.48461,0.00071
3883.42444,0.00101
3881.36427,0.00096
3879.30410,0.00069
3877.24392,0.00037
3875.18375,0.00029
3873.12358,0.00060
3871.06341,0.00107
3869.00324,0.00130
3866.94306,0.00104
3864.88289,0.00078
3862.82272,0.00105
3860.76255,0.00137
3858.70237,0.00102
3856.64220,0.00027
3854.58203,0.00013
3852.52186,0.00103
3850.46169,0.00163
3848.40151,0.00125
3846.34134,0.00059
3844.28117,0.00033
3842.22100,0.00046
3840.16083,0.00048
3838.10065,0.00038
3836.04048,0.00055
3833.98031,0.00078
3831.92014,0.00079
3829.85997,0.00056
3827.79979,0.00029
3825.73962,0.00024
3823.67945,0.00037
3821.61928,0.00063
3819.55910,0.00105
3817.49893,0.00131
3815.43876,0.00127
3813.37859,0.00102
3811.31842,0.00079
3809.25824,0.00075
3807.19807,0.00064
3805.13790,0.00025
3803.07773,0.00002
3801.01756,0.00029
3798.95738,0.00076
3796.89721,0.00132
3794.83704,0.00170
3792.77687,0.00157
3790.71670,0.00115
3788.65652,0.00078
3786.59635,0.00059
3784.53618,0.00055
3782.47601,0.00052
3780.41583,0.00048
3778.35566,0.00066
3776.29549,0.00092
3774.23532,0.00079
3772.17515,0.00034
3770.11497,0.00015
3768.05480,0.00043
3765.99463,0.00076
3763.93446,0.00075
3761.87429,0.00062
3759.81411,0.00074
3757.75394,0.00090
3755.69377,0.00072
3753.63360,0.00075
3751.57342,0.00146
3749.51325,0.00190
3747.45308,0.00131
3745.39291,0.00063
3743.33274,0.00061
3741.27256,0.00093
3739.21239,0.00114
3737.15222,0.00146
3735.09205,0.00222
3733.03188,0.00269
3730.97170,0.00209
3728.91153,0.00122
3726.85136,0.00095
3724.79119,0.00129
3722.73102,0.00163
3720.67084,0.00168
3718.61067,0.00149
3716.55050,0.00082
3714.49033,0.00000
3712.43015,0.00005
3710.36998,0.00091
3708.30981,0.00147
3706.24964,0.00135
3704.18947,0.00091
3702.12929,0.00076
3700.06912,0.00100
3698.00895,0.00117
3695.94878,0.00126
3693.88861,0.00145
3691.82843,0.00163
3689.76826,0.00182
3687.70809,0.00183
3685.64792,0.00158
3683.58775,0.00138
3681.52757,0.00141
3679.46740,0.00175
3677.40723,0.00258
3675.34706,0.00350
3673.28688,0.00369
3671.22671,0.00344
3669.16654,0.00320
3667.10637,0.00286
3665.04620,0.00256
3662.98602,0.00230
3660.92585,0.00190
3658.86568,0.00147
3656.80551,0.00125
3654.74534,0.00126
3652.68516,0.00136
3650.62499,0.00183
3648.56482,0.00308
3646.50465,0.00438
3644.44447,0.00464
3642.38430,0.00414
3640.32413,0.00374
3638.26396,0.00371
3636.20379,0.00378
3634.14361,0.00377
3632.08344,0.00396
3630.02327,0.00468
3627.96310,0.00531
3625.90293,0.00492
3623.84275,0.00408
3621.78258,0.00401
3619.72241,0.00499
3617.66224,0.00601
3615.60207,0.00624
3613.54189,0.00635
3611.48172,0.00692
3609.42155,0.00727
3607.36138,0.00691
3605.30120,0.00656
3603.24103,0.00688
3601.18086,0.00765
3599.12069,0.00794
3597.06052,0.00757
3595.00034,0.00734
3592.94017,0.00751
3590.88000,0.00756
3588.81983,0.00755
3586.75966,0.00796
3584.69948,0.00881
3582.63931,0.00952
3580.57914,0.00993
3578.51897,0.01019
3576.45879,0.01026
3574.39862,0.01012
3572.33845,0.00980
3570.27828,0.00952
3568.21811,0.00970
3566.15793,0.01044
3564.09776,0.01112
3562.03759,0.01133
3559.97742,0.01131
3557.91725,0.01152
3555.85707,0.01198
3553.79690,0.01225
3551.73673,0.01210
3549.67656,0.01180
3547.61639,0.01191
3545.55621,0.01245
3543.49604,0.01288
3541.43587,0.01301
3539.37570,0.01305
3537.31552,0.01308
3535.25535,0.01328
3533.19518,0.01377
3531.13501,0.01436
3529.07484,0.01487
3527.01466,0.01527
3524.95449,0.01541
3522.89432,0.01527
3520.83415,0.01512
3518.77398,0.01517
3516.71380,0.01547
3514.65363,0.01585
3512.59346,0.01604
3510.53329,0.01599
3508.47312,0.01598
3506.41294,0.01614
3504.35277,0.01633
3502.29260,0.01644
3500.23243,0.01660
3498.17225,0.01695
3496.11208,0.01741
3494.05191,0.01784
3491.99174,0.01824
3489.93157,0.01843
3487.87139,0.01834
3485.81122,0.01819
3483.75105,0.01810
3481.69088,0.01822
3479.63071,0.01866
3477.57053,0.01913
3475.51036,0.01924
3473.45019,0.01887
3471.39002,0.01863
3469.32984,0.01890
3467.26967,0.01927
3465.20950,0.01963
3463.14933,0.02007
3461.08916,0.02040
3459.02898,0.02059
3456.96881,0.02077
3454.90864,0.02095
3452.84847,0.02118
3450.78830,0.02144
3448.72812,0.02148
3446.66795,0.02122
3444.60778,0.02121
3442.54761,0.02153
3440.48744,0.02163
3438.42726,0.02152
3436.36709,0.02172
3434.30692,0.02234
3432.24675,0.02272
3430.18657,0.02264
3428.12640,0.02271
3426.06623,0.02307
3424.00606,0.02310
3421.94589,0.02277
3419.88571,0.02267
3417.82554,0.02290
3415.76537,0.02315
3413.70520,0.02323
3411.64503,0.02316
3409.58485,0.02319
3407.52468,0.02330
3405.46451,0.02334
3403.40434,0.02350
3401.34416,0.02379
3399.28399,0.02387
3397.22382,0.02389
3395.16365,0.02416
3393.10348,0.02444
3391.04330,0.02441
3388.98313,0.02417
3386.92296,0.02402
3384.86279,0.02418
3382.80262,0.02450
3380.74244,0.02461
3378.68227,0.02450
3376.62210,0.02446
3374.56193,0.02450
3372.50176,0.02446
3370.44158,0.02451
3368.38141,0.02491
3366.32124,0.02539
3364.26107,0.02548
3362.20089,0.02523
3360.14072,0.02492
3358.08055,0.02486
3356.02038,0.02505
3353.96021,0.02532
3351.90003,0.02567
3349.83986,0.02593
3347.77969,0.02598
3345.71952,0.02592
3343.65935,0.02587
3341.59917,0.02588
3339.53900,0.02602
3337.47883,0.02618
3335.41866,0.02609
3333.35849,0.02603
3331.29831,0.02631
3329.23814,0.02652
3327.17797,0.02645
3325.11780,0.02645
3323.05762,0.02656
3320.99745,0.02670
3318.93728,0.02672
3316.87711,0.02661
3314.81694,0.02676
3312.75676,0.02703
3310.69659,0.02688
3308.63642,0.02639
3306.57625,0.02613
3304.51608,0.02628
3302.45590,0.02645
3300.39573,0.02654
3298.33556,0.02654
3296.27539,0.02656
3294.21521,0.02689
3292.15504,0.02725
3290.09487,0.02729
3288.03470,0.02728
3285.97453,0.02743
3283.91435,0.02735
3281.85418,0.02684
3279.79401,0.02649
3277.73384,0.02670
3275.67367,0.02713
3273.61349,0.02732
3271.55332,0.02715
3269.49315,0.02681
3267.43298,0.02677
3265.37281,0.02709
3263.31263,0.02720
3261.25246,0.02704
3259.19229,0.02715
3257.13212,0.02745
3255.07194,0.02759
3253.01177,0.02767
3250.95160,0.02773
3248.89143,0.02758
3246.83126,0.02745
3244.77108,0.02762
3242.71091,0.02768
3240.65074,0.02727
3238.59057,0.02684
3236.53040,0.02674
3234.47022,0.02685
3232.41005,0.02700
3230.34988,0.02714
3228.28971,0.02716
3226.22954,0.02712
3224.16936,0.02721
3222.10919,0.02742
3220.04902,0.02751
3217.98885,0.02726
3215.92867,0.02699
3213.86850,0.02703
3211.80833,0.02726
3209.74816,0.02754
3207.68799,0.02770
3205.62781,0.02746
3203.56764,0.02687
3201.50747,0.02642
3199.44730,0.02654
3197.38713,0.02689
3195.32695,0.02695
3193.26678,0.02690
3191.20661,0.02691
3189.14644,0.02668
3187.08626,0.02634
3185.02609,0.02639
3182.96592,0.02679
3180.90575,0.02699
3178.84558,0.02698
3176.78540,0.02700
3174.72523,0.02689
3172.66506,0.02671
3170.60489,0.02663
3168.54472,0.02661
3166.48454,0.02651
3164.42437,0.02625
3162.36420,0.02598
3160.30403,0.02582
3158.24386,0.02571
3156.18368,0.02555
3154.12351,0.02557
3152.06334,0.02588
3150.00317,0.02618
3147.94299,0.02618
3145.88282,0.02581
3143.82265,0.02531
3141.76248,0.02502
3139.70231,0.02509
3137.64213,0.02532
3135.58196,0.02537
3133.52179,0.02532
3131.46162,0.02524
3129.40145,0.02492
3127.34127,0.02455
3125.28110,0.02447
3123.22093,0.02460
3121.16076,0.02477
3119.10058,0.02490
3117.04041,0.02477
3114.98024,0.02444
3112.92007,0.02436
3110.85990,0.02450
3108.79972,0.02456
3106.73955,0.02452
3104.67938,0.02430
3102.61921,0.02393
3100.55904,0.02372
3098.49886,0.02360
3096.43869,0.02334
3094.37852,0.02326
3092.31835,0.02342
3090.25818,0.02349
3088.19800,0.02342
3086.13783,0.02327
3084.07766,0.02288
3082.01749,0.02251
3079.95731,0.02247
3077.89714,0.02258
3075.83697,0.02261
3073.77680,0.02260
3071.71663,0.02265
3069.65645,0.02272
3067.59628,0.02277
3065.53611,0.02285
3063.47594,0.02280
3061.41577,0.02250
3059.35559,0.02215
3057.29542,0.02194
3055.23525,0.02175
3053.17508,0.02148
3051.11491,0.02115
3049.05473,0.02096
3046.99456,0.02101
3044.93439,0.02106
3042.87422,0.02101
3040.81404,0.02091
3038.75387,0.02075
3036.69370,0.02065
3034.63353,0.02078
3032.57336,0.02095
3030.51318,0.02084
3028.45301,0.02049
3026.39284,0.02037
3024.33267,0.02053
3022.27250,0.02046
3020.21232,0.02013
3018.15215,0.01984
3016.09198,0.01972
3014.03181,0.01974
3011.97163,0.01964
3009.91146,0.01934
3007.85129,0.01901
3005.79112,0.01879
3003.73095,0.01871
3001.67077,0.01893
2999.61060,0.01925
2997.55043,0.01920
2995.49026,0.01891
2993.43009,0.01869
2991.36991,0.01849
2989.30974,0.01828
2987.24957,0.01798
2985.18940,0.01766
2983.12923,0.01771
2981.06905,0.01813
2979.00888,0.01845
2976.94871,0.01839
2974.88854,0.01814
2972.82836,0.01797
2970.76819,0.01782
2968.70802,0.01758
2966.64785,0.01748
2964.58768,0.01757
2962.52750,0.01745
2960.46733,0.01737
2958.40716,0.01760
2956.34699,0.01763
2954.28682,0.01734
2952.22664,0.01718
2950.16647,0.01734
2948.10630,0.01752
2946.04613,0.01750
2943.98596,0.01753
2941.92578,0.01753
2939.86561,0.01727
2937.80544,0.01713
2935.74527,0.01742
2933.68509,0.01779
2931.62492,0.01784
2929.56475,0.01757
2927.50458,0.01724
2925.44441,0.01700
2923.38423,0.01684
2921.32406,0.01679
2919.26389,0.01686
2917.20372,0.01676
2915.14355,0.01659
2913.08337,0.01666
2911.02320,0.01669
2908.96303,0.01648
2906.90286,0.01630
2904.84268,0.01624
2902.78251,0.01624
2900.72234,0.01637
2898.66217,0.01646
2896.60200,0.01644
2894.54182,0.01645
2892.48165,0.01645
2890.42148,0.01630
2888.36131,0.01603
2886.30114,0.01576
2884.24096,0.01572
2882.18079,0.01573
2880.12062,0.01545
2878.06045,0.01527
2876.00028,0.01552
2873.94010,0.01577
2871.87993,0.01589
2869.81976,0.01605
2867.75959,0.01605
2865.69941,0.01563
2863.63924,0.01518
2861.57907,0.01514
2859.51890,0.01534
2857.45873,0.01540
2855.39855,0.01516
2853.33838,0.01485
2851.27821,0.01476
2849.21804,0.01472
2847.15787,0.01451
2845.09769,0.01436
2843.03752,0.01445
2840.97735,0.01470
2838.91718,0.01481
2836.85700,0.01450
2834.79683,0.01406
2832.73666,0.01387
2830.67649,0.01396
2828.61632,0.01412
2826.55614,0.01422
2824.49597,0.01413
2822.43580,0.01381
2820.37563,0.01359
2818.31546,0.01370
2816.25528,0.01389
2814.19511,0.01398
2812.13494,0.01395
2810.07477,0.01377
2808.01460,0.01361
2805.95442,0.01373
2803.89425,0.01395
2801.83408,0.01396
2799.77391,0.01382
2797.71373,0.01378
2795.65356,0.01372
2793.59339,0.01358
2791.53322,0.01352
2789.47305,0.01340
2787.41287,0.01321
2785.35270,0.01313
2783.29253,0.01313
2781.23236,0.01309
2779.17219,0.01299
2777.11201,0.01296
2775.05184,0.01308
2772.99167,0.01311
2770.93150,0.01285
2768.87133,0.01256
2766.81115,0.01256
2764.75098,0.01276
2762.69081,0.01292
2760.63064,0.01294
2758.57046,0.01285
2756.51029,0.01284
2754.45012,0.01285
2752.38995,0.01260
2750.32978,0.01222
2748.26960,0.01210
2746.20943,0.01219
2744.14926,0.01226
2742.08909,0.01226
2740.02892,0.01212
2737.96874,0.01189
2735.90857,0.01184
2733.84840,0.01185
2731.78823,0.01163
2729.72805,0.01145
2727.66788,0.01150
2725.60771,0.01153
2723.54754,0.01139
2721.48737,0.01120
2719.42719,0.01121
2717.36702,0.01142
2715.30685,0.01154
2713.24668,0.01143
2711.18651,0.01115
2709.12633,0.01092
2707.06616,0.01087
2705.00599,0.01087
2702.94582,0.01091
2700.88565,0.01096
2698.82547,0.01082
2696.76530,0.01053
2694.70513,0.01047
2692.64496,0.01065
2690.58478,0.01066
2688.52461,0.01046
2686.46444,0.01036
2684.40427,0.01033
2682.34410,0.01025
2680.28392,0.01016
2678.22375,0.01008
2676.16358,0.01013
2674.10341,0.01023
2672.04324,0.01021
2669.98306,0.01012
2667.92289,0.00996
2665.86272,0.00983
2663.80255,0.00981
2661.74238,0.00975
2659.68220,0.00965
2657.62203,0.00967
2655.56186,0.00965
2653.50169,0.00955
2651.44151,0.00967
2649.38134,0.00979
2647.32117,0.00963
2645.26100,0.00938
2643.20083,0.00928
2641.14065,0.00923
2639.08048,0.00907
2637.02031,0.00901
2634.96014,0.00922
2632.89997,0.00939
2630.83979,0.00922
2628.77962,0.00884
2626.71945,0.00852
2624.65928,0.00842
2622.59910,0.00839
2620.53893,0.00832
2618.47876,0.00831
2616.41859,0.00820
2614.35842,0.00807
2612.29824,0.00828
2610.23807,0.00845
2608.17790,0.00810
2606.11773,0.00799
2604.05756,0.00842
2601.99738,0.00855
2599.93721,0.00831
2597.87704,0.00839
2595.81687,0.00854
2593.75670,0.00837
2591.69652,0.00802
2589.63635,0.00756
2587.57618,0.00717
2585.51601,0.00696
2583.45583,0.00699
2581.39566,0.00728
2579.33549,0.00759
2577.27532,0.00767
2575.21515,0.00756
2573.15497,0.00768
2571.09480,0.00788
2569.03463,0.00763
2566.97446,0.00751
2564.91429,0.00789
2562.85411,0.00806
2560.79394,0.00776
2558.73377,0.00754
2556.67360,0.00769
2554.61342,0.00787
2552.55325,0.00795
2550.49308,0.00796
2548.43291,0.00800
2546.37274,0.00797
2544.31256,0.00764
2542.25239,0.00743
2540.19222,0.00747
2538.13205,0.00740
2536.07188,0.00748
2534.01170,0.00771
2531.95153,0.00764
2529.89136,0.00752
2527.83119,0.00750
2525.77102,0.00748
2523.71084,0.00751
2521.65067,0.00758
2519.59050,0.00761
2517.53033,0.00750
2515.47015,0.00745
2513.40998,0.00781
2511.34981,0.00813
2509.28964,0.00780
2507.22947,0.00738
2505.16929,0.00736
2503.10912,0.00755
2501.04895,0.00772
2498.98878,0.00773
2496.92861,0.00778
2494.86843,0.00805
2492.80826,0.00816
2490.74809,0.00787
2488.68792,0.00757
2486.62775,0.00755
2484.56757,0.00765
2482.50740,0.00761
2480.44723,0.00741
2478.38706,0.00732
2476.32688,0.00767
2474.26671,0.00832
2472.20654,0.00864
2470.14637,0.00849
2468.08620,0.00820
2466.02602,0.00790
2463.96585,0.00778
2461.90568,0.00811
2459.84551,0.00863
2457.78534,0.00891
2455.72516,0.00897
2453.66499,0.00910
2451.60482,0.00921
2449.54465,0.00887
2447.48447,0.00815
2445.42430,0.00775
2443.36413,0.00801
2441.30396,0.00832
2439.24379,0.00816
2437.18361,0.00793
2435.12344,0.00798
2433.06327,0.00798
2431.00310,0.00781
2428.94293,0.00768
2426.88275,0.00774
2424.82258,0.00812
2422.76241,0.00851
2420.70224,0.00864
2418.64207,0.00864
2416.58189,0.00857
2414.52172,0.00845
2412.46155,0.00844
2410.40138,0.00839
2408.34120,0.00830
2406.28103,0.00833
2404.22086,0.00844
2402.16069,0.00858
2400.10052,0.00874
2398.04034,0.00866
2395.98017,0.00861
2393.92000,0.00871
2391.85983,0.00886
2389.79966,0.00905
2387.73948,0.00923
2385.67931,0.00920
2383.61914,0.00898
2381.55897,0.00890
2379.49880,0.00907
2377.43862,0.00903
2375.37845,0.00889
2373.31828,0.00937
2371.25811,0.01044
2369.19793,0.01106
2367.13776,0.01016
2365.07759,0.00834
2363.01742,0.00763
2360.95725,0.00768
2358.89707,0.00834
2356.83690,0.00905
2354.77673,0.00964
2352.71656,0.00947
2350.65639,0.00805
2348.59621,0.00745
2346.53604,0.00902
2344.47587,0.00934
2342.41570,0.00947
2340.35552,0.01037
2338.29535,0.01072
2336.23518,0.01018
2334.17501,0.00915
2332.11484,0.00823
2330.05466,0.00773
2327.99449,0.00791
2325.93432,0.00822
2323.87415,0.00868
2321.81398,0.00883
2319.75380,0.00897
2317.69363,0.00862
2315.63346,0.00823
2313.57329,0.00812
2311.51312,0.00851
2309.45294,0.00917
2307.39277,0.00936
2305.33260,0.00903
2303.27243,0.00865
2301.21225,0.00853
2299.15208,0.00836
2297.09191,0.00802
2295.03174,0.00776
2292.97157,0.00785
2290.91139,0.00823
2288.85122,0.00852
2286.79105,0.00849
2284.73088,0.00836
2282.67071,0.00837
2280.61053,0.00833
2278.55036,0.00793
2276.49019,0.00735
2274.43002,0.00700
2272.36984,0.00701
2270.30967,0.00723
2268.24950,0.00752
2266.18933,0.00741
2264.12916,0.00677
2262.06898,0.00653
2260.00881,0.00690
2257.94864,0.00709
2255.88847,0.00715
2253.82830,0.00721
2251.76812,0.00685
2249.70795,0.00642
2247.64778,0.00647
2245.58761,0.00661
2243.52744,0.00645
2241.46726,0.00585
2239.40709,0.00552
2237.34692,0.00638
2235.28675,0.00744
2233.22657,0.00739
2231.16640,0.00701
2229.10623,0.00727
2227.04606,0.00720
2224.98589,0.00595
2222.92571,0.00506
2220.86554,0.00552
2218.80537,0.00592
2216.74520,0.00566
2214.68503,0.00585
2212.62485,0.00657
2210.56468,0.00642
2208.50451,0.00538
2206.44434,0.00476
2204.38417,0.00495
2202.32399,0.00546
2200.26382,0.00574
2198.20365,0.00591
2196.14348,0.00627
2194.08330,0.00641
2192.02313,0.00628
2189.96296,0.00569
2187.90279,0.00472
2185.84262,0.00471
2183.78244,0.00540
2181.72227,0.00556
2179.66210,0.00523
2177.60193,0.00479
2175.54176,0.00486
2173.48158,0.00583
2171.42141,0.00699
2169.36124,0.00698
2167.30107,0.00573
2165.24089,0.00491
2163.18072,0.00485
2161.12055,0.00376
2159.06038,0.00237
2157.00021,0.00344
2154.94003,0.00485
2152.87986,0.00501
2150.81969,0.00550
2148.75952,0.00554
2146.69935,0.00499
2144.63917,0.00522
2142.57900,0.00564
2140.51883,0.00504
2138.45866,0.00381
2136.39849,0.00332
2134.33831,0.00368
2132.27814,0.00394
2130.21797,0.00386
2128.15780,0.00352
2126.09762,0.00305
2124.03745,0.00305
2121.97728,0.00372
2119.91711,0.00467
2117.85694,0.00505
2115.79676,0.00463
2113.73659,0.00440
2111.67642,0.00481
2109.61625,0.00532
2107.55608,0.00551
2105.49590,0.00541
2103.43573,0.00526
2101.37556,0.00517
2099.31539,0.00478
2097.25521,0.00438
2095.19504,0.00452
2093.13487,0.00463
2091.07470,0.00465
2089.01453,0.00489
2086.95435,0.00491
2084.89418,0.00478
2082.83401,0.00475
2080.77384,0.00441
2078.71367,0.00388
2076.65349,0.00387
2074.59332,0.00431
2072.53315,0.00470
2070.47298,0.00480
2068.41281,0.00456
2066.35263,0.00428
2064.29246,0.00390
2062.23229,0.00372
2060.17212,0.00401
2058.11194,0.00443
2056.05177,0.00452
2053.99160,0.00419
2051.93143,0.00380
2049.87126,0.00353
2047.81108,0.00347
2045.75091,0.00349
2043.69074,0.00358
2041.63057,0.00385
2039.57040,0.00386
2037.51022,0.00403
2035.45005,0.00441
2033.38988,0.00430
2031.32971,0.00382
2029.26954,0.00351
2027.20936,0.00390
2025.14919,0.00461
2023.08902,0.00497
2021.02885,0.00539
2018.96867,0.00552
2016.90850,0.00422
2014.84833,0.00230
2012.78816,0.00106
2010.72799,0.00099
2008.66781,0.00222
2006.60764,0.00350
2004.54747,0.00336
2002.48730,0.00283
2000.42713,0.00371
1998.36695,0.00519
1996.30678,0.00543
1994.24661,0.00417
1992.18644,0.00258
1990.12626,0.00195
1988.06609,0.00268
1986.00592,0.00418
1983.94575,0.00453
1981.88558,0.00332
1979.82540,0.00216
1977.76523,0.00105
1975.70506,0.00000
1973.64489,0.00090
1971.58472,0.00348
1969.52454,0.00483
1967.46437,0.00412
1965.40420,0.00288
1963.34403,0.00186
1961.28386,0.00159
1959.22368,0.00311
1957.16351,0.00524
1955.10334,0.00557
1953.04317,0.00398
1950.98299,0.00241
1948.92282,0.00200
1946.86265,0.00241
1944.80248,0.00326
1942.74231,0.00392
1940.68213,0.00364
1938.62196,0.00310
1936.56179,0.00326
1934.50162,0.00372
1932.44145,0.00367
1930.38127,0.00335
1928.32110,0.00327
1926.26093,0.00331
1924.20076,0.00335
1922.14059,0.00366
1920.08041,0.00406
1918.02024,0.00424
1915.96007,0.00428
1913.89990,0.00420
1911.83972,0.00416
1909.77955,0.00417
1907.71938,0.00423
1905.65921,0.00455
1903.59904,0.00487
1901.53886,0.00482
1899.47869,0.00461
1897.41852,0.00447
1895.35835,0.00440
1893.29818,0.00452
1891.23800,0.00468
1889.17783,0.00440
1887.11766,0.00373
1885.05749,0.00345
1882.99731,0.00379
1880.93714,0.00418
1878.87697,0.00431
1876.81680,0.00448
1874.75663,0.00464
1872.69645,0.00439
1870.63628,0.00384
1868.57611,0.00365
1866.51594,0.00391
1864.45577,0.00404
1862.39559,0.00392
1860.33542,0.00380
1858.27525,0.00376
1856.21508,0.00372
1854.15491,0.00375
1852.09473,0.00387
1850.03456,0.00416
1847.97439,0.00465
1845.91422,0.00495
1843.85404,0.00480
1841.79387,0.00461
1839.73370,0.00466
1837.67353,0.00487
1835.61336,0.00501
1833.55318,0.00507
1831.49301,0.00517
1829.43284,0.00501
1827.37267,0.00451
1825.31250,0.00434
1823.25232,0.00458
1821.19215,0.00472
1819.13198,0.00462
1817.07181,0.00441
1815.01163,0.00421
1812.95146,0.00418
1810.89129,0.00424
1808.83112,0.00423
1806.77095,0.00420
1804.71077,0.00434
1802.65060,0.00463
1800.59043,0.00480
1798.53026,0.00473
1796.47009,0.00459
1794.40991,0.00453
1792.34974,0.00462
1790.28957,0.00477
1788.22940,0.00470
1786.16923,0.00452
1784.10905,0.00454
1782.04888,0.00474
1779.98871,0.00487
1777.92854,0.00475
1775.86836,0.00449
1773.80819,0.00439
1771.74802,0.00469
1769.68785,0.00510
1767.62768,0.00522
1765.56750,0.00512
1763.50733,0.00505
1761.44716,0.00513
1759.38699,0.00521
1757.32682,0.00515
1755.26664,0.00502
1753.20647,0.00501
1751.14630,0.00533
1749.08613,0.00582
1747.02596,0.00604
1744.96578,0.00605
1742.90561,0.00619
1740.84544,0.00636
1738.78527,0.00634
1736.72509,0.00634
1734.66492,0.00658
1732.60475,0.00672
1730.54458,0.00655
1728.48441,0.00640
1726.42423,0.00640
1724.36406,0.00646
1722.30389,0.00655
1720.24372,0.00672
1718.18355,0.00692
1716.12337,0.00697
1714.06320,0.00694
1712.00303,0.00704
1709.94286,0.00720
1707.88268,0.00732
1705.82251,0.00739
1703.76234,0.00742
1701.70217,0.00759
1699.64200,0.00806
1697.58182,0.00842
1695.52165,0.00833
1693.46148,0.00825
1691.40131,0.00852
1689.34114,0.00881
1687.28096,0.00889
1685.22079,0.00914
1683.16062,0.00961
1681.10045,0.00977
1679.04028,0.00972
1676.98010,0.00976
1674.91993,0.00995
1672.85976,0.01031
1670.79959,0.01081
1668.73941,0.01118
1666.67924,0.01121
1664.61907,0.01125
1662.55890,0.01153
1660.49873,0.01171
1658.43855,0.01169
1656.37838,0.01177
1654.31821,0.01212
1652.25804,0.01255
1650.19787,0.01271
1648.13769,0.01257
1646.07752,0.01226
1644.01735,0.01201
1641.95718,0.01190
1639.89701,0.01196
1637.83683,0.01216
1635.77666,0.01205
1633.71649,0.01152
1631.65632,0.01115
1629.59614,0.01108
1627.53597,0.01104
1625.47580,0.01082
1623.41563,0.01044
1621.35546,0.01008
1619.29528,0.00989
1617.23511,0.00988
1615.17494,0.00989
1613.11477,0.00978
1611.05460,0.00965
1608.99442,0.00958
1606.93425,0.00945
1604.87408,0.00928
1602.81391,0.00919
1600.75373,0.00902
1598.69356,0.00869
1596.63339,0.00847
1594.57322,0.00846
1592.51305,0.00841
1590.45287,0.00815
1588.39270,0.00773
1586.33253,0.00741
1584.27236,0.00730
1582.21219,0.00716
1580.15201,0.00688
1578.09184,0.00670
1576.03167,0.00665
1573.97150,0.00656
1571.91133,0.00650
1569.85115,0.00646
1567.79098,0.00626
1565.73081,0.00593
1563.67064,0.00568
1561.61046,0.00558
1559.55029,0.00556
1557.49012,0.00547
1555.42995,0.00528
1553.36978,0.00504
1551.30960,0.00480
1549.24943,0.00472
1547.18926,0.00490
1545.12909,0.00516
1543.06892,0.00516
1541.00874,0.00482
1538.94857,0.00439
1536.88840,0.00414
1534.82823,0.00410
1532.76805,0.00419
1530.70788,0.00423
1528.64771,0.00416
1526.58754,0.00402
1524.52737,0.00393
1522.46719,0.00390
1520.40702,0.00380
1518.34685,0.00371
1516.28668,0.00376
1514.22651,0.00380
1512.16633,0.00376
1510.10616,0.00389
1508.04599,0.00421
1505.98582,0.00409
1503.92565,0.00354
1501.86547,0.00324
1499.80530,0.00324
1497.74513,0.00324
1495.68496,0.00315
1493.62478,0.00310
1491.56461,0.00319
1489.50444,0.00320
1487.44427,0.00301
1485.38410,0.00290
1483.32392,0.00294
1481.26375,0.00299
1479.20358,0.00296
1477.14341,0.00291
1475.08324,0.00296
1473.02306,0.00313
1470.96289,0.00318
1468.90272,0.00308
1466.84255,0.00306
1464.78238,0.00318
1462.72220,0.00331
1460.66203,0.00347
1458.60186,0.00374
1456.54169,0.00386
1454.48151,0.00363
1452.42134,0.00329
1450.36117,0.00307
1448.30100,0.00305
1446.24083,0.00301
1444.18065,0.00285
1442.12048,0.00269
1440.06031,0.00258
1438.00014,0.00255
1435.93997,0.00268
1433.87979,0.00282
1431.81962,0.00283
1429.75945,0.00281
1427.69928,0.00293
1425.63910,0.00316
1423.57893,0.00333
1421.51876,0.00340
1419.45859,0.00348
1417.39842,0.00351
1415.33824,0.00338
1413.27807,0.00317
1411.21790,0.00298
1409.15773,0.00284
1407.09756,0.00274
1405.03738,0.00266
1402.97721,0.00253
1400.91704,0.00247
1398.85687,0.00255
1396.79670,0.00266
1394.73652,0.00266
1392.67635,0.00254
1390.61618,0.00242
1388.55601,0.00228
1386.49583,0.00212
1384.43566,0.00211
1382.37549,0.00227
1380.31532,0.00235
1378.25515,0.00229
1376.19497,0.00228
1374.13480,0.00233
1372.07463,0.00239
1370.01446,0.00250
1367.95429,0.00261
1365.89411,0.00264
1363.83394,0.00266
1361.77377,0.00263
1359.71360,0.00244
1357.65343,0.00214
1355.59325,0.00188
1353.53308,0.00182
1351.47291,0.00187
1349.41274,0.00183
1347.35256,0.00174
1345.29239,0.00169
1343.23222,0.00168
1341.17205,0.00171
1339.11188,0.00182
1337.05170,0.00192
1334.99153,0.00187
1332.93136,0.00170
1330.87119,0.00153
1328.81102,0.00140
1326.75084,0.00137
1324.69067,0.00146
1322.63050,0.00159
1320.57033,0.00176
1318.51015,0.00190
1316.44998,0.00183
1314.38981,0.00162
1312.32964,0.00152
1310.26947,0.00159
1308.20929,0.00174
1306.14912,0.00184
1304.08895,0.00182
1302.02878,0.00175
1299.96861,0.00176
1297.90843,0.00185
1295.84826,0.00198
1293.78809,0.00204
1291.72792,0.00203
1289.66775,0.00208
1287.60757,0.00217
1285.54740,0.00211
1283.48723,0.00196
1281.42706,0.00188
1279.36688,0.00189
1277.30671,0.00189
1275.24654,0.00195
1273.18637,0.00202
1271.12620,0.00195
1269.06602,0.00183
1267.00585,0.00178
1264.94568,0.00181
1262.88551,0.00198
1260.82534,0.00220
1258.76516,0.00225
1256.70499,0.00215
1254.64482,0.00204
1252.58465,0.00199
1250.52447,0.00197
1248.46430,0.00195
1246.40413,0.00185
1244.34396,0.00169
1242.28379,0.00166
1240.22361,0.00178
1238.16344,0.00181
1236.10327,0.00168
1234.04310,0.00152
1231.98293,0.00128
1229.92275,0.00102
1227.86258,0.00085
1225.80241,0.00089
1223.74224,0.00110
1221.68207,0.00121
1219.62189,0.00107
1217.56172,0.00083
1215.50155,0.00060
1213.44138,0.00043
1211.38120,0.00041
1209.32103,0.00037
1207.26086,0.00032
1205.20069,0.00040
1203.14052,0.00050
1201.08034,0.00051
1199.02017,0.00045
1196.96000,0.00043
1194.89983,0.00050
1192.83966,0.00062
1190.77948,0.00071
1188.71931,0.00075
1186.65914,0.00094
1184.59897,0.00151
1182.53880,0.00220
1180.47862,0.00253
1178.41845,0.00260
1176.35828,0.00285
1174.29811,0.00328
1172.23793,0.00376
1170.17776,0.00431
1168.11759,0.00486
1166.05742,0.00521
1163.99725,0.00545
1161.93707,0.00594
1159.87690,0.00659
1157.81673,0.00707
1155.75656,0.00737
1153.69639,0.00772
1151.63621,0.00811
1149.57604,0.00836
1147.51587,0.00876
1145.45570,0.00942
1143.39552,0.01006
1141.33535,0.01069
1139.27518,0.01123
1137.21501,0.01154
1135.15484,0.01195
1133.09466,0.01264
1131.03449,0.01342
1128.97432,0.01418
1126.91415,0.01482
1124.85398,0.01537
1122.79380,0.01586
1120.73363,0.01630
1118.67346,0.01700
1116.61329,0.01806
1114.55312,0.01906
1112.49294,0.01970
1110.43277,0.02012
1108.37260,0.02072
1106.31243,0.02157
1104.25225,0.02237
1102.19208,0.02296
1100.13191,0.02349
1098.07174,0.02415
1096.01157,0.02499
1093.95139,0.02572
1091.89122,0.02615
1089.83105,0.02655
1087.77088,0.02705
1085.71071,0.02769
1083.65053,0.02845
1081.59036,0.02909
1079.53019,0.02954
1077.47002,0.02990
1075.40985,0.03023
1073.34967,0.03055
1071.28950,0.03085
1069.22933,0.03103
1067.16916,0.03112
1065.10898,0.03118
1063.04881,0.03116
1060.98864,0.03106
1058.92847,0.03081
1056.86830,0.03049
1054.80812,0.03042
1052.74795,0.03029
1050.68778,0.02970
1048.62761,0.02892
1046.56744,0.02816
1044.50726,0.02746
1042.44709,0.02688
1040.38692,0.02620
1038.32675,0.02549
1036.26657,0.02502
1034.20640,0.02450
1032.14623,0.02358
1030.08606,0.02261
1028.02589,0.02204
1025.96571,0.02162
1023.90554,0.02093
1021.84537,0.02009
1019.78520,0.01939
1017.72503,0.01890
1015.66485,0.01864
1013.60468,0.01856
1011.54451,0.01836
1009.48434,0.01826
1007.42417,0.01843
1005.36399,0.01844
1003.30382,0.01840
1001.24365,0.01864
999.18348,0.01899
997.12330,0.01943
995.06313,0.02012
993.00296,0.02072
990.94279,0.02109
988.88262,0.02151
986.82244,0.02199
984.76227,0.02234
982.70210,0.02242
980.64193,0.02224
978.58176,0.02191
976.52158,0.02155
974.46141,0.02125
972.40124,0.02084
970.34107,0.02010
968.28089,0.01911
966.22072,0.01822
964.16055,0.01744
962.10038,0.01664
960.04021,0.01588
957.98003,0.01526
955.91986,0.01485
953.85969,0.01459
951.79952,0.01422
949.73935,0.01372
947.67917,0.01318
945.61900,0.01277
943.55883,0.01272
941.49866,0.01290
939.43849,0.01297
937.37831,0.01278
935.31814,0.01235
933.25797,0.01192
931.19780,0.01163
929.13762,0.01142
927.07745,0.01137
925.01728,0.01157
922.95711,0.01172
920.89694,0.01158
918.83676,0.01119
916.77659,0.01065
914.71642,0.01029
912.65625,0.01016
910.59608,0.01006
908.53590,0.00999
906.47573,0.00981
904.41556,0.00949
902.35539,0.00925
900.29522,0.00909
898.23504,0.00908
896.17487,0.00921
894.11470,0.00932
892.05453,0.00956
889.99435,0.01003
887.93418,0.01034
885.87401,0.01028
883.81384,0.01026
881.75367,0.01044
879.69349,0.01073
877.63332,0.01113
875.57315,0.01144
873.51298,0.01146
871.45281,0.01130
869.39263,0.01151
867.33246,0.01232
865.27229,0.01261
863.21212,0.01212
861.15194,0.01202
859.09177,0.01240
857.03160,0.01255
854.97143,0.01237
852.91126,0.01220
850.85108,0.01216
848.79091,0.01197
846.73074,0.01141
844.67057,0.01061
842.61040,0.01027
840.55022,0.01033
838.49005,0.01005
836.42988,0.00955
834.36971,0.00906
832.30954,0.00851
830.24936,0.00816
828.18919,0.00807
826.12902,0.00789
824.06885,0.00755
822.00867,0.00739
819.94850,0.00760
817.88833,0.00779
815.82816,0.00760
813.76799,0.00714
811.70781,0.00646
809.64764,0.00594
807.58747,0.00595
805.52730,0.00611
803.46713,0.00602
801.40695,0.00577
799.34678,0.00537
797.28661,0.00492
795.22644,0.00440
793.16627,0.00392
791.10609,0.00407
789.04592,0.00454
786.98575,0.00485
784.92558,0.00509
782.86540,0.00519
780.80523,0.00517
778.74506,0.00497
776.68489,0.00465
774.62472,0.00451
772.56454,0.00445
770.50437,0.00418
768.44420,0.00386
766.38403,0.00395
764.32386,0.00419
762.26368,0.00393
760.20351,0.00334
758.14334,0.00337
756.08317,0.00416
754.02299,0.00437
751.96282,0.00350
749.90265,0.00280
747.84248,0.00295
745.78231,0.00326
743.72213,0.00336
741.66196,0.00333
739.60179,0.00311
737.54162,0.00281
735.48145,0.00272
733.42127,0.00284
731.36110,0.00272
729.30093,0.00237
727.24076,0.00248
725.18059,0.00298
723.12041,0.00311
721.06024,0.00316
719.00007,0.00325
716.93990,0.00350
714.87972,0.00341
712.81955,0.00296
710.75938,0.00290
708.69921,0.00336
706.63904,0.00374
704.57886,0.00360
702.51869,0.00320
700.45852,0.00287
698.39835,0.00250
696.33818,0.00220
694.27800,0.00230
692.21783,0.00284
690.15766,0.00343
688.09749,0.00330
686.03731,0.00236
683.97714,0.00158
681.91697,0.00132
679.85680,0.00105
677.79663,0.00102
675.73645,0.00162
673.67628,0.00158
671.61611,0.00000
669.55594,0.00027
667.49577,0.00215
665.43559,0.00023
663.37542,0.00062
661.31525,0.00094
659.25508,0.00127
657.19491,0.00226
655.13473,0.00335
653.07456,0.00358
651.01439,0.00231
648.95422,0.00076
646.89404,0.00080
644.83387,0.00204
642.77370,0.00236
640.71353,0.00172
638.65336,0.00147
636.59318,0.00143
634.53301,0.00077
632.47284,0.00000
630.41267,-0.00017
628.35250,0.00049
626.29232,0.00149
624.23215,0.00237
622.17198,0.00218
620.11181,0.00104
618.05164,0.00002
615.99146,0.00010
613.93129,0.00169
611.87112,0.00284
609.81095,0.00202
607.75077,0.00091
605.69060,0.00078
603.63043,0.00011
601.57026,-0.00079
599.51009,0.00000
