3996.73391,0.00059
3994.67373,0.00034
3992.61356,0.00021
3990.55339,0.00023
3988.49322,0.00023
3986.43305,0.00028
3984.37287,0.00049
3982.31270,0.00081
3980.25253,0.00104
3978.19236,0.00095
3976.13219,0.00066
3974.07201,0.00054
3972.01184,0.00063
3969.95167,0.00057
3967.89150,0.00024
3965.83133,0.00000
3963.77115,0.00009
3961.71098,0.00039
3959.65081,0.00072
3957.59064,0.00095
3955.53046,0.00096
3953.47029,0.00075
3951.41012,0.00063
3949.34995,0.00080
3947.28978,0.00101
3945.22960,0.00096
3943.16943,0.00078
3941.10926,0.00060
3939.04909,0.00046
3936.98892,0.00041
3934.92874,0.00046
3932.86857,0.00046
3930.80840,0.00039
3928.74823,0.00047
3926.68805,0.00063
3924.62788,0.00058
3922.56771,0.00049
3920.50754,0.00075
3918.44737,0.00108
3916.38719,0.00092
3914.32702,0.00059
3912.26685,0.00066
3910.20668,0.00093
3908.14651,0.00122
3906.08633,0.00151
3904.02616,0.00142
3901.96599,0.00090
3899.90582,0.00058
3897.84565,0.00080
3895.78547,0.00134
3893.72530,0.00166
3891.66513,0.00149
3889.60496,0.00130
3887.54478,0.00139
3885.48461,0.00118
3883.42444,0.00064
3881.36427,0.00022
3879.30410,0.00016
3877.24392,0.00077
3875.18375,0.00155
3873.12358,0.00180
3871.06341,0.00149
3869.00324,0.00090
3866.94306,0.00066
3864.88289,0.00074
3862.82272,0.00065
3860.76255,0.00056
3858.70237,0.00090
3856.64220,0.00167
3854.58203,0.00196
3852.52186,0.00102
3850.46169,0.00025
3848.40151,0.00061
3846.34134,0.00144
3844.28117,0.00193
3842.22100,0.00186
3840.16083,0.00147
3838.10065,0.00101
3836.04048,0.00080
3833.98031,0.00086
3831.92014,0.00098
3829.85997,0.00115
3827.79979,0.00129
3825.73962,0.00145
3823.67945,0.00194
3821.61928,0.00239
3819.55910,0.00226
3817.49893,0.00183
3815.43876,0.00121
3813.37859,0.00082
3811.31842,0.00109
3809.25824,0.00163
3807.19807,0.00185
3805.13790,0.00167
3803.07773,0.00106
3801.01756,0.00015
3798.95738,0.00000
3796.89721,0.00046
3794.83704,0.00062
3792.77687,0.00070
3790.71670,0.00096
3788.65652,0.00110
3786.59635,0.00109
3784.53618,0.00125
3782.47601,0.00162
3780.41583,0.00174
3778.35566,0.00148
3776.29549,0.00136
3774.23532,0.00172
3772.17515,0.00214
3770.11497,0.00201
3768.05480,0.00137
3765.99463,0.00082
3763.93446,0.00083
3761.87429,0.00129
3759.81411,0.00144
3757.75394,0.00114
3755.69377,0.00110
3753.63360,0.00127
3751.57342,0.00096
3749.51325,0.00050
3747.45308,0.00075
3745.39291,0.00095
3743.33274,0.00067
3741.27256,0.00089
3739.21239,0.00183
3737.15222,0.00262
3735.09205,0.00226
3733.03188,0.00117
3730.97170,0.00106
3728.91153,0.00175
3726.85136,0.00216
3724.79119,0.00207
3722.73102,0.00166
3720.67084,0.00110
3718.61067,0.00082
3716.55050,0.00123
3714.49033,0.00212
3712.43015,0.00244
3710.36998,0.00165
3708.30981,0.00088
3706.24964,0.00097
3704.18947,0.00131
3702.12929,0.00112
3700.06912,0.00062
3698.00895,0.00069
3695.94878,0.00133
3693.88861,0.00189
3691.82843,0.00222
3689.76826,0.00220
3687.70809,0.00168
3685.64792,0.00119
3683.58775,0.00107
3681.52757,0.00127
3679.46740,0.00178
3677.40723,0.00226
3675.34706,0.00214
3673.28688,0.00194
3671.22671,0.00209
3669.16654,0.00164
3667.10637,0.00106
3665.04620,0.00116
3662.98602,0.00142
3660.92585,0.00142
3658.86568,0.00151
3656.80551,0.00179
3654.74534,0.00196
3652.68516,0.00208
3650.62499,0.00216
3648.56482,0.00182
3646.50465,0.00143
3644.44447,0.00151
3642.38430,0.00154
3640.32413,0.00140
3638.26396,0.00173
3636.20379,0.00260
3634.14361,0.00329
3632.08344,0.00336
3630.02327,0.00292
3627.96310,0.00256
3625.90293,0.00307
3623.84275,0.00399
3621.78258,0.00430
3619.72241,0.00379
3617.66224,0.00344
3615.60207,0.00380
3613.54189,0.00408
3611.48172,0.00389
3609.42155,0.00401
3607.36138,0.00474
3605.30120,0.00531
3603.24103,0.00550
3601.18086,0.00572
3599.12069,0.00609
3597.06052,0.00614
3595.00034,0.00561
3592.94017,0.00505
3590.88000,0.00495
3588.81983,0.00494
3586.75966,0.00471
3584.69948,0.00480
3582.63931,0.00543
3580.57914,0.00617
3578.51897,0.00661
3576.45879,0.00668
3574.39862,0.00669
3572.33845,0.00706
3570.27828,0.00783
3568.21811,0.00856
3566.15793,0.00859
3564.09776,0.00801
3562.03759,0.00757
3559.97742,0.00749
3557.91725,0.00769
3555.85707,0.00809
3553.79690,0.00852
3551.73673,0.00886
3549.67656,0.00909
3547.61639,0.00916
3545.55621,0.00914
3543.49604,0.00922
3541.43587,0.00937
3539.37570,0.00953
3537.31552,0.00978
3535.25535,0.01014
3533.19518,0.01053
3531.13501,0.01093
3529.07484,0.01133
3527.01466,0.01151
3524.95449,0.01127
3522.89432,0.01081
3520.83415,0.01058
3518.77398,0.01075
3516.71380,0.01101
3514.65363,0.01109
3512.59346,0.01102
3510.53329,0.01092
3508.47312,0.01094
3506.41294,0.01121
3504.35277,0.01153
3502.29260,0.01186
3500.23243,0.01230
3498.17225,0.01262
3496.11208,0.01262
3494.05191,0.01246
3491.99174,0.01240
3489.93157,0.01256
3487.87139,0.01278
3485.81122,0.01290
3483.75105,0.01303
3481.69088,0.01319
3479.63071,0.01340
3477.57053,0.01360
3475.51036,0.01375
3473.45019,0.01377
3471.39002,0.01371
3469.32984,0.01380
3467.26967,0.01413
3465.20950,0.01452
3463.14933,0.01473
3461.08916,0.01465
3459.02898,0.01457
3456.96881,0.01478
3454.90864,0.01495
3452.84847,0.01489
3450.78830,0.01496
3448.72812,0.01524
3446.66795,0.01530
3444.60778,0.01496
3442.54761,0.01460
3440.48744,0.01460
3438.42726,0.01515
3436.36709,0.01599
3434.30692,0.01643
3432.24675,0.01635
3430.18657,0.01621
3428.12640,0.01620
3426.06623,0.01623
3424.00606,0.01637
3421.94589,0.01669
3419.88571,0.01700
3417.82554,0.01709
3415.76537,0.01703
3413.70520,0.01692
3411.64503,0.01683
3409.58485,0.01690
3407.52468,0.01696
3405.46451,0.01700
3403.40434,0.01727
3401.34416,0.01758
3399.28399,0.01759
3397.22382,0.01747
3395.16365,0.01747
3393.10348,0.01759
3391.04330,0.01769
3388.98313,0.01791
3386.92296,0.01831
3384.86279,0.01846
3382.80262,0.01820
3380.74244,0.01792
3378.68227,0.01799
3376.62210,0.01830
3374.56193,0.01847
3372.50176,0.01847
3370.44158,0.01859
3368.38141,0.01894
3366.32124,0.01929
3364.26107,0.01941
3362.20089,0.01947
3360.14072,0.01950
3358.08055,0.01935
3356.02038,0.01917
3353.96021,0.01922
3351.90003,0.01948
3349.83986,0.01972
3347.77969,0.01982
3345.71952,0.01983
3343.65935,0.01976
3341.59917,0.01963
3339.53900,0.01962
3337.47883,0.01982
3335.41866,0.01995
3333.35849,0.01970
3331.29831,0.01939
3329.23814,0.01952
3327.17797,0.02005
3325.11780,0.02056
3323.05762,0.02072
3320.99745,0.02051
3318.93728,0.02021
3316.87711,0.02018
3314.81694,0.02041
3312.75676,0.02051
3310.69659,0.02042
3308.63642,0.02044
3306.57625,0.02053
3304.51608,0.02049
3302.45590,0.02051
3300.39573,0.02076
3298.33556,0.02096
3296.27539,0.02082
3294.21521,0.02058
3292.15504,0.02049
3290.09487,0.02068
3288.03470,0.02090
3285.97453,0.02082
3283.91435,0.02066
3281.85418,0.02071
3279.79401,0.02092
3277.73384,0.02111
3275.67367,0.02120
3273.61349,0.02123
3271.55332,0.02132
3269.49315,0.02152
3267.43298,0.02172
3265.37281,0.02177
3263.31263,0.02171
3261.25246,0.02168
3259.19229,0.02160
3257.13212,0.02137
3255.07194,0.02125
3253.01177,0.02137
3250.95160,0.02150
3248.89143,0.02143
3246.83126,0.02120
3244.77108,0.02109
3242.71091,0.02113
3240.65074,0.02112
3238.59057,0.02103
3236.53040,0.02112
3234.47022,0.02151
3232.41005,0.02182
3230.34988,0.02184
3228.28971,0.02185
3226.22954,0.02191
3224.16936,0.02183
3222.10919,0.02175
3220.04902,0.02190
3217.98885,0.02205
3215.92867,0.02205
3213.86850,0.02212
3211.80833,0.02208
3209.74816,0.02169
3207.68799,0.02137
3205.62781,0.02146
3203.56764,0.02183
3201.50747,0.02207
3199.44730,0.02195
3197.38713,0.02180
3195.32695,0.02165
3193.26678,0.02128
3191.20661,0.02115
3189.14644,0.02152
3187.08626,0.02185
3185.02609,0.02174
3182.96592,0.02164
3180.90575,0.02177
3178.84558,0.02175
3176.78540,0.02160
3174.72523,0.02165
3172.66506,0.02172
3170.60489,0.02160
3168.54472,0.02135
3166.48454,0.02112
3164.42437,0.02109
3162.36420,0.02117
3160.30403,0.02113
3158.24386,0.02118
3156.18368,0.02137
3154.12351,0.02154
3152.06334,0.02157
3150.00317,0.02134
3147.94299,0.02109
3145.88282,0.02117
3143.82265,0.02136
3141.76248,0.02140
3139.70231,0.02132
3137.64213,0.02114
3135.58196,0.02099
3133.52179,0.02096
3131.46162,0.02091
3129.40145,0.02077
3127.34127,0.02061
3125.28110,0.02055
3123.22093,0.02075
3121.16076,0.02108
3119.10058,0.02113
3117.04041,0.02078
3114.98024,0.02042
3112.92007,0.02038
3110.85990,0.02042
3108.79972,0.02026
3106.73955,0.01997
3104.67938,0.01966
3102.61921,0.01954
3100.55904,0.01967
3098.49886,0.01975
3096.43869,0.01964
3094.37852,0.01954
3092.31835,0.01953
3090.25818,0.01949
3088.19800,0.01944
3086.13783,0.01947
3084.07766,0.01950
3082.01749,0.01936
3079.95731,0.01911
3077.89714,0.01895
3075.83697,0.01903
3073.77680,0.01923
3071.71663,0.01930
3069.65645,0.01929
3067.59628,0.01931
3065.53611,0.01925
3063.47594,0.01892
3061.41577,0.01847
3059.35559,0.01805
3057.29542,0.01779
3055.23525,0.01783
3053.17508,0.01792
3051.11491,0.01786
3049.05473,0.01778
3046.99456,0.01786
3044.93439,0.01801
3042.87422,0.01798
3040.81404,0.01781
3038.75387,0.01767
3036.69370,0.01742
3034.63353,0.01712
3032.57336,0.01700
3030.51318,0.01700
3028.45301,0.01705
3026.39284,0.01718
3024.33267,0.01730
3022.27250,0.01735
3020.21232,0.01719
3018.15215,0.01677
3016.09198,0.01644
3014.03181,0.01645
3011.97163,0.01656
3009.91146,0.01651
3007.85129,0.01630
3005.79112,0.01609
3003.73095,0.01593
3001.67077,0.01580
2999.61060,0.01583
2997.55043,0.01592
2995.49026,0.01586
2993.43009,0.01577
2991.36991,0.01574
2989.30974,0.01579
2987.24957,0.01575
2985.18940,0.01559
2983.12923,0.01541
2981.06905,0.01516
2979.00888,0.01491
2976.94871,0.01474
2974.88854,0.01473
2972.82836,0.01493
2970.76819,0.01521
2968.70802,0.01532
2966.64785,0.01512
2964.58768,0.01502
2962.52750,0.01528
2960.46733,0.01542
2958.40716,0.01527
2956.34699,0.01512
2954.28682,0.01503
2952.22664,0.01493
2950.16647,0.01493
2948.10630,0.01502
2946.04613,0.01513
2943.98596,0.01529
2941.92578,0.01536
2939.86561,0.01528
2937.80544,0.01526
2935.74527,0.01537
2933.68509,0.01535
2931.62492,0.01514
2929.56475,0.01507
2927.50458,0.01510
2925.44441,0.01506
2923.38423,0.01506
2921.32406,0.01511
2919.26389,0.01499
2917.20372,0.01476
2915.14355,0.01467
2913.08337,0.01469
2911.02320,0.01468
2908.96303,0.01460
2906.90286,0.01455
2904.84268,0.01455
2902.78251,0.01450
2900.72234,0.01449
2898.66217,0.01445
2896.60200,0.01426
2894.54182,0.01405
2892.48165,0.01389
2890.42148,0.01383
2888.36131,0.01396
2886.30114,0.01413
2884.24096,0.01417
2882.18079,0.01415
2880.12062,0.01405
2878.06045,0.01398
2876.00028,0.01414
2873.94010,0.01440
2871.87993,0.01445
2869.81976,0.01417
2867.75959,0.01380
2865.69941,0.01363
2863.63924,0.01359
2861.57907,0.01364
2859.51890,0.01385
2857.45873,0.01396
2855.39855,0.01384
2853.33838,0.01369
2851.27821,0.01369
2849.21804,0.01371
2847.15787,0.01359
2845.09769,0.01342
2843.03752,0.01332
2840.97735,0.01323
2838.91718,0.01309
2836.85700,0.01303
2834.79683,0.01309
2832.73666,0.01306
2830.67649,0.01285
2828.61632,0.01264
2826.55614,0.01269
2824.49597,0.01297
2822.43580,0.01314
2820.37563,0.01297
2818.31546,0.01271
2816.25528,0.01251
2814.19511,0.01232
2812.13494,0.01234
2810.07477,0.01248
2808.01460,0.01242
2805.95442,0.01225
2803.89425,0.01223
2801.83408,0.01227
2799.77391,0.01221
2797.71373,0.01213
2795.65356,0.01221
2793.59339,0.01234
2791.53322,0.01215
2789.47305,0.01189
2787.41287,0.01185
2785.35270,0.01189
2783.29253,0.01190
2781.23236,0.01187
2779.17219,0.01180
2777.11201,0.01180
2775.05184,0.01177
2772.99167,0.01163
2770.93150,0.01158
2768.87133,0.01157
2766.81115,0.01156
2764.75098,0.01172
2762.69081,0.01178
2760.63064,0.01161
2758.57046,0.01151
2756.51029,0.01157
2754.45012,0.01164
2752.38995,0.01159
2750.32978,0.01137
2748.26960,0.01103
2746.20943,0.01074
2744.14926,0.01065
2742.08909,0.01077
2740.02892,0.01088
2737.96874,0.01089
2735.90857,0.01097
2733.84840,0.01121
2731.78823,0.01128
2729.72805,0.01097
2727.66788,0.01068
2725.60771,0.01067
2723.54754,0.01068
2721.48737,0.01055
2719.42719,0.01041
2717.36702,0.01033
2715.30685,0.01031
2713.24668,0.01029
2711.18651,0.01030
2709.12633,0.01027
2707.06616,0.01005
2705.00599,0.00987
2702.94582,0.00986
2700.88565,0.00980
2698.82547,0.00955
2696.76530,0.00934
2694.70513,0.00942
2692.64496,0.00969
2690.58478,0.00982
2688.52461,0.00967
2686.46444,0.00953
2684.40427,0.00953
2682.34410,0.00947
2680.28392,0.00927
2678.22375,0.00919
2676.16358,0.00926
2674.10341,0.00918
2672.04324,0.00900
2669.98306,0.00900
2667.92289,0.00903
2665.86272,0.00903
2663.80255,0.00914
2661.74238,0.00909
2659.68220,0.00887
2657.62203,0.00868
2655.56186,0.00865
2653.50169,0.00876
2651.44151,0.00878
2649.38134,0.00863
2647.32117,0.00844
2645.26100,0.00828
2643.20083,0.00816
2641.14065,0.00817
2639.08048,0.00816
2637.02031,0.00810
2634.96014,0.00821
2632.89997,0.00837
2630.83979,0.00830
2628.77962,0.00818
2626.71945,0.00822
2624.65928,0.00812
2622.59910,0.00784
2620.53893,0.00773
2618.47876,0.00768
2616.41859,0.00750
2614.35842,0.00749
2612.29824,0.00754
2610.23807,0.00736
2608.17790,0.00702
2606.11773,0.00668
2604.05756,0.00657
2601.99738,0.00674
2599.93721,0.00698
2597.87704,0.00714
2595.81687,0.00720
2593.75670,0.00707
2591.69652,0.00684
2589.63635,0.00688
2587.57618,0.00715
2585.51601,0.00726
2583.45583,0.00728
2581.39566,0.00728
2579.33549,0.00706
2577.27532,0.00694
2575.21515,0.00701
2573.15497,0.00706
2571.09480,0.00718
2569.03463,0.00706
2566.97446,0.00673
2564.91429,0.00676
2562.85411,0.00690
2560.79394,0.00682
2558.73377,0.00669
2556.67360,0.00648
2554.61342,0.00637
2552.55325,0.00669
2550.49308,0.00687
2548.43291,0.00678
2546.37274,0.00693
2544.31256,0.00703
2542.25239,0.00681
2540.19222,0.00678
2538.13205,0.00688
2536.07188,0.00668
2534.01170,0.00653
2531.95153,0.00657
2529.89136,0.00620
2527.83119,0.00556
2525.77102,0.00546
2523.71084,0.00591
2521.65067,0.00616
2519.59050,0.00619
2517.53033,0.00626
2515.47015,0.00638
2513.40998,0.00650
2511.34981,0.00653
2509.28964,0.00655
2507.22947,0.00670
2505.16929,0.00696
2503.10912,0.00693
2501.04895,0.00652
2498.98878,0.00643
2496.92861,0.00698
2494.86843,0.00760
2492.80826,0.00777
2490.74809,0.00738
2488.68792,0.00683
2486.62775,0.00687
2484.56757,0.00721
2482.50740,0.00717
2480.44723,0.00720
2478.38706,0.00747
2476.32688,0.00741
2474.26671,0.00712
2472.20654,0.00712
2470.14637,0.00735
2468.08620,0.00748
2466.02602,0.00758
2463.96585,0.00759
2461.90568,0.00745
2459.84551,0.00747
2457.78534,0.00756
2455.72516,0.00751
2453.66499,0.00769
2451.60482,0.00798
2449.54465,0.00774
2447.48447,0.00726
2445.42430,0.00715
2443.36413,0.00707
2441.30396,0.00678
2439.24379,0.00678
2437.18361,0.00687
2435.12344,0.00664
2433.06327,0.00656
2431.00310,0.00687
2428.94293,0.00713
2426.88275,0.00712
2424.82258,0.00702
2422.76241,0.00699
2420.70224,0.00708
2418.64207,0.00737
2416.58189,0.00767
2414.52172,0.00761
2412.46155,0.00734
2410.40138,0.00722
2408.34120,0.00725
2406.28103,0.00738
2404.22086,0.00751
2402.16069,0.00739
2400.10052,0.00709
2398.04034,0.00693
2395.98017,0.00707
2393.92000,0.00714
2391.85983,0.00707
2389.79966,0.00710
2387.73948,0.00723
2385.67931,0.00726
2383.61914,0.00713
2381.55897,0.00697
2379.49880,0.00691
2377.43862,0.00690
2375.37845,0.00687
2373.31828,0.00716
2371.25811,0.00786
2369.19793,0.00823
2367.13776,0.00780
2365.07759,0.00661
2363.01742,0.00516
2360.95725,0.00530
2358.89707,0.00587
2356.83690,0.00632
2354.77673,0.00647
2352.71656,0.00619
2350.65639,0.00695
2348.59621,0.00796
2346.53604,0.00712
2344.47587,0.00649
2342.41570,0.00598
2340.35552,0.00596
2338.29535,0.00685
2336.23518,0.00732
2334.17501,0.00703
2332.11484,0.00706
2330.05466,0.00794
2327.99449,0.00850
2325.93432,0.00846
2323.87415,0.00798
2321.81398,0.00791
2319.75380,0.00800
2317.69363,0.00811
2315.63346,0.00797
2313.57329,0.00771
2311.51312,0.00740
2309.45294,0.00720
2307.39277,0.00732
2305.33260,0.00747
2303.27243,0.00742
2301.21225,0.00737
2299.15208,0.00759
2297.09191,0.00777
2295.03174,0.00759
2292.97157,0.00718
2290.91139,0.00682
2288.85122,0.00662
2286.79105,0.00658
2284.73088,0.00660
2282.67071,0.00671
2280.61053,0.00700
2278.55036,0.00732
2276.49019,0.00751
2274.43002,0.00741
2272.36984,0.00704
2270.30967,0.00662
2268.24950,0.00614
2266.18933,0.00566
2264.12916,0.00555
2262.06898,0.00584
2260.00881,0.00604
2257.94864,0.00595
2255.88847,0.00573
2253.82830,0.00544
2251.76812,0.00535
2249.70795,0.00536
2247.64778,0.00507
2245.58761,0.00482
2243.52744,0.00493
2241.46726,0.00523
2239.40709,0.00590
2237.34692,0.00626
2235.28675,0.00593
2233.22657,0.00561
2231.16640,0.00522
2229.10623,0.00472
2227.04606,0.00465
2224.98589,0.00469
2222.92571,0.00430
2220.86554,0.00399
2218.80537,0.00426
2216.74520,0.00497
2214.68503,0.00520
2212.62485,0.00447
2210.56468,0.00392
2208.50451,0.00418
2206.44434,0.00466
2204.38417,0.00519
2202.32399,0.00506
2200.26382,0.00390
2198.20365,0.00335
2196.14348,0.00343
2194.08330,0.00296
2192.02313,0.00261
2189.96296,0.00366
2187.90279,0.00567
2185.84262,0.00592
2183.78244,0.00441
2181.72227,0.00393
2179.66210,0.00417
2177.60193,0.00357
2175.54176,0.00292
2173.48158,0.00312
2171.42141,0.00370
2169.36124,0.00427
2167.30107,0.00487
2165.24089,0.00542
2163.18072,0.00547
2161.12055,0.00439
2159.06038,0.00277
2157.00021,0.00246
2154.94003,0.00312
2152.87986,0.00340
2150.81969,0.00316
2148.75952,0.00319
2146.69935,0.00392
2144.63917,0.00424
2142.57900,0.00377
2140.51883,0.00319
2138.45866,0.00260
2136.39849,0.00163
2134.33831,0.00088
2132.27814,0.00138
2130.21797,0.00242
2128.15780,0.00309
2126.09762,0.00339
2124.03745,0.00348
2121.97728,0.00369
2119.91711,0.00369
2117.85694,0.00335
2115.79676,0.00342
2113.73659,0.00359
2111.67642,0.00344
2109.61625,0.00350
2107.55608,0.00381
2105.49590,0.00359
2103.43573,0.00267
2101.37556,0.00228
2099.31539,0.00255
2097.25521,0.00231
2095.19504,0.00183
2093.13487,0.00199
2091.07470,0.00244
2089.01453,0.00294
2086.95435,0.00349
2084.89418,0.00377
2082.83401,0.00381
2080.77384,0.00359
2078.71367,0.00301
2076.65349,0.00257
2074.59332,0.00267
2072.53315,0.00316
2070.47298,0.00407
2068.41281,0.00476
2066.35263,0.00469
2064.29246,0.00452
2062.23229,0.00414
2060.17212,0.00323
2058.11194,0.00294
2056.05177,0.00384
2053.99160,0.00461
2051.93143,0.00433
2049.87126,0.00370
2047.81108,0.00383
2045.75091,0.00482
2043.69074,0.00557
2041.63057,0.00508
2039.57040,0.00386
2037.51022,0.00286
2035.45005,0.00163
2033.38988,0.00030
2031.32971,0.00000
2029.26954,0.00072
2027.20936,0.00130
2025.14919,0.00138
2023.08902,0.00178
2021.02885,0.00214
2018.96867,0.00202
2016.90850,0.00190
2014.84833,0.00164
2012.78816,0.00168
2010.72799,0.00241
2008.66781,0.00284
2006.60764,0.00243
2004.54747,0.00212
2002.48730,0.00247
2000.42713,0.00281
1998.36695,0.00277
1996.30678,0.00270
1994.24661,0.00258
1992.18644,0.00232
1990.12626,0.00279
1988.06609,0.00400
1986.00592,0.00460
1983.94575,0.00421
1981.88558,0.00345
1979.82540,0.00277
1977.76523,0.00205
1975.70506,0.00111
1973.64489,0.00071
1971.58472,0.00178
1969.52454,0.00329
1967.46437,0.00347
1965.40420,0.00277
1963.34403,0.00234
1961.28386,0.00193
1959.22368,0.00150
1957.16351,0.00179
1955.10334,0.00282
1953.04317,0.00346
1950.98299,0.00263
1948.92282,0.00139
1946.86265,0.00134
1944.80248,0.00181
1942.74231,0.00171
1940.68213,0.00144
1938.62196,0.00151
1936.56179,0.00165
1934.50162,0.00140
1932.44145,0.00084
1930.38127,0.00074
1928.32110,0.00130
1926.26093,0.00191
1924.20076,0.00232
1922.14059,0.00232
1920.08041,0.00185
1918.02024,0.00157
1915.96007,0.00178
1913.89990,0.00195
1911.83972,0.00201
1909.77955,0.00222
1907.71938,0.00249
1905.65921,0.00273
1903.59904,0.00266
1901.53886,0.00210
1899.47869,0.00162
1897.41852,0.00179
1895.35835,0.00230
1893.29818,0.00255
1891.23800,0.00246
1889.17783,0.00234
1887.11766,0.00237
1885.05749,0.00253
1882.99731,0.00269
1880.93714,0.00268
1878.87697,0.00247
1876.81680,0.00229
1874.75663,0.00220
1872.69645,0.00210
1870.63628,0.00208
1868.57611,0.00223
1866.51594,0.00240
1864.45577,0.00242
1862.39559,0.00229
1860.33542,0.00224
1858.27525,0.00234
1856.21508,0.00242
1854.15491,0.00247
1852.09473,0.00256
1850.03456,0.00255
1847.97439,0.00247
1845.91422,0.00243
1843.85404,0.00249
1841.79387,0.00263
1839.73370,0.00274
1837.67353,0.00270
1835.61336,0.00259
1833.55318,0.00267
1831.49301,0.00305
1829.43284,0.00344
1827.37267,0.00341
1825.31250,0.00299
1823.25232,0.00263
1821.19215,0.00257
1819.13198,0.00267
1817.07181,0.00271
1815.01163,0.00279
1812.95146,0.00299
1810.89129,0.00319
1808.83112,0.00326
1806.77095,0.00327
1804.71077,0.00338
1802.65060,0.00346
1800.59043,0.00322
1798.53026,0.00295
1796.47009,0.00306
1794.40991,0.00339
1792.34974,0.00362
1790.28957,0.00353
1788.22940,0.00326
1786.16923,0.00310
1784.10905,0.00317
1782.04888,0.00335
1779.98871,0.00342
1777.92854,0.00340
1775.86836,0.00345
1773.80819,0.00354
1771.74802,0.00348
1769.68785,0.00339
1767.62768,0.00346
1765.56750,0.00364
1763.50733,0.00383
1761.44716,0.00388
1759.38699,0.00379
1757.32682,0.00370
1755.26664,0.00365
1753.20647,0.00363
1751.14630,0.00363
1749.08613,0.00362
1747.02596,0.00369
1744.96578,0.00389
1742.90561,0.00414
1740.84544,0.00432
1738.78527,0.00432
1736.72509,0.00408
1734.66492,0.00376
1732.60475,0.00367
1730.54458,0.00393
1728.48441,0.00416
1726.42423,0.00425
1724.36406,0.00442
1722.30389,0.00470
1720.24372,0.00496
1718.18355,0.00519
1716.12337,0.00536
1714.06320,0.00537
1712.00303,0.00522
1709.94286,0.00513
1707.88268,0.00533
1705.82251,0.00566
1703.76234,0.00579
1701.70217,0.00568
1699.64200,0.00557
1697.58182,0.00558
1695.52165,0.00560
1693.46148,0.00572
1691.40131,0.00596
1689.34114,0.00623
1687.28096,0.00653
1685.22079,0.00689
1683.16062,0.00708
1681.10045,0.00692
1679.04028,0.00678
1676.98010,0.00691
1674.91993,0.00707
1672.85976,0.00715
1670.79959,0.00741
1668.73941,0.00772
1666.67924,0.00778
1664.61907,0.00775
1662.55890,0.00777
1660.49873,0.00772
1658.43855,0.00768
1656.37838,0.00782
1654.31821,0.00794
1652.25804,0.00768
1650.19787,0.00749
1648.13769,0.00761
1646.07752,0.00765
1644.01735,0.00743
1641.95718,0.00732
1639.89701,0.00749
1637.83683,0.00770
1635.77666,0.00765
1633.71649,0.00746
1631.65632,0.00742
1629.59614,0.00751
1627.53597,0.00761
1625.47580,0.00762
1623.41563,0.00756
1621.35546,0.00759
1619.29528,0.00781
1617.23511,0.00804
1615.17494,0.00797
1613.11477,0.00768
1611.05460,0.00741
1608.99442,0.00725
1606.93425,0.00718
1604.87408,0.00714
1602.81391,0.00698
1600.75373,0.00672
1598.69356,0.00659
1596.63339,0.00654
1594.57322,0.00634
1592.51305,0.00606
1590.45287,0.00585
1588.39270,0.00562
1586.33253,0.00539
1584.27236,0.00521
1582.21219,0.00508
1580.15201,0.00500
1578.09184,0.00501
1576.03167,0.00499
1573.97150,0.00476
1571.91133,0.00442
1569.85115,0.00421
1567.79098,0.00420
1565.73081,0.00426
1563.67064,0.00434
1561.61046,0.00449
1559.55029,0.00453
1557.49012,0.00416
1555.42995,0.00382
1553.36978,0.00382
1551.30960,0.00384
1549.24943,0.00365
1547.18926,0.00357
1545.12909,0.00375
1543.06892,0.00382
1541.00874,0.00361
1538.94857,0.00316
1536.88840,0.00279
1534.82823,0.00270
1532.76805,0.00272
1530.70788,0.00270
1528.64771,0.00270
1526.58754,0.00268
1524.52737,0.00258
1522.46719,0.00246
1520.40702,0.00249
1518.34685,0.00270
1516.28668,0.00276
1514.22651,0.00261
1512.16633,0.00256
1510.10616,0.00265
1508.04599,0.00247
1505.98582,0.00197
1503.92565,0.00167
1501.86547,0.00161
1499.80530,0.00162
1497.74513,0.00179
1495.68496,0.00212
1493.62478,0.00242
1491.56461,0.00258
1489.50444,0.00248
1487.44427,0.00221
1485.38410,0.00210
1483.32392,0.00216
1481.26375,0.00228
1479.20358,0.00244
1477.14341,0.00264
1475.08324,0.00277
1473.02306,0.00266
1470.96289,0.00248
1468.90272,0.00250
1466.84255,0.00262
1464.78238,0.00271
1462.72220,0.00279
1460.66203,0.00298
1458.60186,0.00315
1456.54169,0.00306
1454.48151,0.00279
1452.42134,0.00261
1450.36117,0.00260
1448.30100,0.00269
1446.24083,0.00276
1444.18065,0.00279
1442.12048,0.00276
1440.06031,0.00261
1438.00014,0.00238
1435.93997,0.00231
1433.87979,0.00253
1431.81962,0.00284
1429.75945,0.00299
1427.69928,0.00290
1425.63910,0.00280
1423.57893,0.00283
1421.51876,0.00296
1419.45859,0.00306
1417.39842,0.00300
1415.33824,0.00285
1413.27807,0.00281
1411.21790,0.00286
1409.15773,0.00290
1407.09756,0.00290
1405.03738,0.00290
1402.97721,0.00294
1400.91704,0.00300
1398.85687,0.00300
1396.79670,0.00292
1394.73652,0.00284
1392.67635,0.00284
1390.61618,0.00288
1388.55601,0.00288
1386.49583,0.00284
1384.43566,0.00287
1382.37549,0.00291
1380.31532,0.00286
1378.25515,0.00284
1376.19497,0.00292
1374.13480,0.00302
1372.07463,0.00310
1370.01446,0.00320
1367.95429,0.00335
1365.89411,0.00350
1363.83394,0.00354
1361.77377,0.00341
1359.71360,0.00323
1357.65343,0.00306
1355.59325,0.00287
1353.53308,0.00280
1351.47291,0.00297
1349.41274,0.00312
1347.35256,0.00308
1345.29239,0.00296
1343.23222,0.00294
1341.17205,0.00298
1339.11188,0.00295
1337.05170,0.00279
1334.99153,0.00266
1332.93136,0.00270
1330.87119,0.00284
1328.81102,0.00290
1326.75084,0.00283
1324.69067,0.00278
1322.63050,0.00282
1320.57033,0.00292
1318.51015,0.00302
1316.44998,0.00308
1314.38981,0.00303
1312.32964,0.00291
1310.26947,0.00287
1308.20929,0.00285
1306.14912,0.00280
1304.08895,0.00280
1302.02878,0.00287
1299.96861,0.00301
1297.90843,0.00317
1295.84826,0.00325
1293.78809,0.00330
1291.72792,0.00334
1289.66775,0.00333
1287.60757,0.00329
1285.54740,0.00327
1283.48723,0.00330
1281.42706,0.00339
1279.36688,0.00350
1277.30671,0.00357
1275.24654,0.00357
1273.18637,0.00351
1271.12620,0.00339
1269.06602,0.00329
1267.00585,0.00325
1264.94568,0.00329
1262.88551,0.00337
1260.82534,0.00341
1258.76516,0.00341
1256.70499,0.00339
1254.64482,0.00331
1252.58465,0.00321
1250.52447,0.00320
1248.46430,0.00320
1246.40413,0.00315
1244.34396,0.00309
1242.28379,0.00303
1240.22361,0.00291
1238.16344,0.00279
1236.10327,0.00270
1234.04310,0.00262
1231.98293,0.00266
1229.92275,0.00282
1227.86258,0.00282
1225.80241,0.00255
1223.74224,0.00226
1221.68207,0.00216
1219.62189,0.00214
1217.56172,0.00207
1215.50155,0.00203
1213.44138,0.00205
1211.38120,0.00202
1209.32103,0.00198
1207.26086,0.00191
1205.20069,0.00181
1203.14052,0.00189
1201.08034,0.00209
1199.02017,0.00229
1196.96000,0.00259
1194.89983,0.00287
1192.83966,0.00309
1190.77948,0.00338
1188.71931,0.00374
1186.65914,0.00403
1184.59897,0.00427
1182.53880,0.00455
1180.47862,0.00495
1178.41845,0.00548
1176.35828,0.00610
1174.29811,0.00675
1172.23793,0.00734
1170.17776,0.00777
1168.11759,0.00812
1166.05742,0.00852
1163.99725,0.00904
1161.93707,0.00958
1159.87690,0.01006
1157.81673,0.01049
1155.75656,0.01080
1153.69639,0.01098
1151.63621,0.01125
1149.57604,0.01176
1147.51587,0.01239
1145.45570,0.01303
1143.39552,0.01360
1141.33535,0.01416
1139.27518,0.01472
1137.21501,0.01518
1135.15484,0.01567
1133.09466,0.01629
1131.03449,0.01678
1128.97432,0.01716
1126.91415,0.01764
1124.85398,0.01811
1122.79380,0.01859
1120.73363,0.01912
1118.67346,0.01957
1116.61329,0.02005
1114.55312,0.02067
1112.49294,0.02127
1110.43277,0.02181
1108.37260,0.02238
1106.31243,0.02292
1104.25225,0.02337
1102.19208,0.02390
1100.13191,0.02447
1098.07174,0.02498
1096.01157,0.02546
1093.95139,0.02600
1091.89122,0.02664
1089.83105,0.02727
1087.77088,0.02766
1085.71071,0.02781
1083.65053,0.02809
1081.59036,0.02874
1079.53019,0.02940
1077.47002,0.02986
1075.40985,0.03017
1073.34967,0.03051
1071.28950,0.03095
1069.22933,0.03132
1067.16916,0.03161
1065.10898,0.03184
1063.04881,0.03203
1060.98864,0.03216
1058.92847,0.03210
1056.86830,0.03191
1054.80812,0.03171
1052.74795,0.03151
1050.68778,0.03134
1048.62761,0.03122
1046.56744,0.03108
1044.50726,0.03082
1042.44709,0.03043
1040.38692,0.02988
1038.32675,0.02923
1036.26657,0.02855
1034.20640,0.02790
1032.14623,0.02739
1030.08606,0.02694
1028.02589,0.02651
1025.96571,0.02611
1023.90554,0.02562
1021.84537,0.02500
1019.78520,0.02444
1017.72503,0.02396
1015.66485,0.02354
1013.60468,0.02318
1011.54451,0.02291
1009.48434,0.02274
1007.42417,0.02264
1005.36399,0.02261
1003.30382,0.02258
1001.24365,0.02240
999.18348,0.02231
997.12330,0.02261
995.06313,0.02292
993.00296,0.02307
990.94279,0.02337
988.88262,0.02393
986.82244,0.02463
984.76227,0.02511
982.70210,0.02515
980.64193,0.02485
978.58176,0.02454
976.52158,0.02419
974.46141,0.02380
972.40124,0.02354
970.34107,0.02323
968.28089,0.02276
966.22072,0.02215
964.16055,0.02148
962.10038,0.02096
960.04021,0.02034
957.98003,0.01941
955.91986,0.01876
953.85969,0.01869
951.79952,0.01868
949.73935,0.01839
947.67917,0.01790
945.61900,0.01745
943.55883,0.01723
941.49866,0.01721
939.43849,0.01729
937.37831,0.01736
935.31814,0.01742
933.25797,0.01761
931.19780,0.01779
929.13762,0.01780
927.07745,0.01778
925.01728,0.01779
922.95711,0.01778
920.89694,0.01768
918.83676,0.01738
916.77659,0.01698
914.71642,0.01664
912.65625,0.01638
910.59608,0.01620
908.53590,0.01594
906.47573,0.01535
904.41556,0.01490
902.35539,0.01496
900.29522,0.01493
898.23504,0.01461
896.17487,0.01457
894.11470,0.01481
892.05453,0.01508
889.99435,0.01547
887.93418,0.01567
885.87401,0.01549
883.81384,0.01544
881.75367,0.01576
879.69349,0.01612
877.63332,0.01635
875.57315,0.01659
873.51298,0.01682
871.45281,0.01691
869.39263,0.01692
867.33246,0.01693
865.27229,0.01710
863.21212,0.01742
861.15194,0.01732
859.09177,0.01673
857.03160,0.01637
854.97143,0.01626
852.91126,0.01608
850.85108,0.01595
848.79091,0.01571
846.73074,0.01510
844.67057,0.01430
842.61040,0.01349
840.55022,0.01296
838.49005,0.01292
836.42988,0.01296
834.36971,0.01281
832.30954,0.01268
830.24936,0.01261
828.18919,0.01211
826.12902,0.01124
824.06885,0.01061
822.00867,0.01032
819.94850,0.01011
817.88833,0.00993
815.82816,0.00985
813.76799,0.00997
811.70781,0.01014
809.64764,0.00998
807.58747,0.00955
805.52730,0.00910
803.46713,0.00878
801.40695,0.00861
799.34678,0.00856
797.28661,0.00856
795.22644,0.00836
793.16627,0.00830
791.10609,0.00858
789.04592,0.00850
786.98575,0.00803
784.92558,0.00781
782.86540,0.00788
780.80523,0.00799
778.74506,0.00793
776.68489,0.00770
774.62472,0.00768
772.56454,0.00772
770.50437,0.00741
768.44420,0.00707
766.38403,0.00701
764.32386,0.00682
762.26368,0.00645
760.20351,0.00631
758.14334,0.00622
756.08317,0.00618
754.02299,0.00646
751.96282,0.00668
749.90265,0.00681
747.84248,0.00685
745.78231,0.00645
743.72213,0.00605
741.66196,0.00603
739.60179,0.00612
737.54162,0.00605
735.48145,0.00554
733.42127,0.00490
731.36110,0.00464
729.30093,0.00481
727.24076,0.00514
725.18059,0.00533
723.12041,0.00549
721.06024,0.00503
719.00007,0.00454
716.93990,0.00444
714.87972,0.00479
712.81955,0.00525
710.75938,0.00550
708.69921,0.00575
706.63904,0.00619
704.57886,0.00677
702.51869,0.00676
700.45852,0.00567
698.39835,0.00437
696.33818,0.00399
694.27800,0.00447
692.21783,0.00489
690.15766,0.00467
688.09749,0.00420
686.03731,0.00431
683.97714,0.00516
681.91697,0.00611
679.85680,0.00644
677.79663,0.00607
675.73645,0.00575
673.67628,0.00613
671.61611,0.00605
669.55594,0.00268
667.49577,0.00000
665.43559,0.00349
663.37542,0.00468
661.31525,0.00519
659.25508,0.00571
657.19491,0.00514
655.13473,0.00349
653.07456,0.00213
651.01439,0.00191
648.95422,0.00232
646.89404,0.00259
644.83387,0.00251
642.77370,0.00266
640.71353,0.00283
638.65336,0.00255
636.59318,0.00208
634.53301,0.00217
632.47284,0.00328
630.41267,0.00444
628.35250,0.00409
626.29232,0.00222
624.23215,0.00040
622.17198,0.00025
620.11181,0.00233
618.05164,0.00359
615.99146,0.00231
613.93129,0.00132
611.87112,0.00190
609.81095,0.00138
607.75077,-0.00047
605.69060,-0.00099
603.63043,-0.00067
601.57026,-0.00077
599.51009,0.00000
