Created as New Dataset,Sample 357 By Analyst Date Thursday, February 06 2025
cm-1,%T
4000.00,121.17
3999.00,121.17
3998.00,121.16
3997.00,121.16
3996.00,121.15
3995.00,121.15
3994.00,121.14
3993.00,121.14
3992.00,121.14
3991.00,121.13
3990.00,121.13
3989.00,121.12
3988.00,121.12
3987.00,121.11
3986.00,121.10
3985.00,121.10
3984.00,121.09
3983.00,121.08
3982.00,121.07
3981.00,121.07
3980.00,121.06
3979.00,121.06
3978.00,121.05
3977.00,121.04
3976.00,121.04
3975.00,121.03
3974.00,121.03
3973.00,121.02
3972.00,121.02
3971.00,121.02
3970.00,121.01
3969.00,121.01
3968.00,121.01
3967.00,121.01
3966.00,121.01
3965.00,121.00
3964.00,121.00
3963.00,121.00
3962.00,121.00
3961.00,121.01
3960.00,121.01
3959.00,121.01
3958.00,121.02
3957.00,121.02
3956.00,121.02
3955.00,121.02
3954.00,121.03
3953.00,121.03
3952.00,121.03
3951.00,121.04
3950.00,121.04
3949.00,121.04
3948.00,121.05
3947.00,121.05
3946.00,121.05
3945.00,121.05
3944.00,121.05
3943.00,121.05
3942.00,121.05
3941.00,121.05
3940.00,121.05
3939.00,121.04
3938.00,121.04
3937.00,121.03
3936.00,121.03
3935.00,121.03
3934.00,121.02
3933.00,121.01
3932.00,121.01
3931.00,121.00
3930.00,120.99
3929.00,120.99
3928.00,120.98
3927.00,120.97
3926.00,120.97
3925.00,120.96
3924.00,120.96
3923.00,120.96
3922.00,120.95
3921.00,120.94
3920.00,120.94
3919.00,120.94
3918.00,120.93
3917.00,120.93
3916.00,120.92
3915.00,120.92
3914.00,120.91
3913.00,120.91
3912.00,120.91
3911.00,120.91
3910.00,120.91
3909.00,120.91
3908.00,120.91
3907.00,120.91
3906.00,120.91
3905.00,120.91
3904.00,120.92
3903.00,120.93
3902.00,120.94
3901.00,120.94
3900.00,120.93
3899.00,120.94
3898.00,120.95
3897.00,120.95
3896.00,120.94
3895.00,120.94
3894.00,120.95
3893.00,120.95
3892.00,120.95
3891.00,120.95
3890.00,120.96
3889.00,120.96
3888.00,120.95
3887.00,120.93
3886.00,120.93
3885.00,120.94
3884.00,120.95
3883.00,120.94
3882.00,120.92
3881.00,120.92
3880.00,120.93
3879.00,120.94
3878.00,120.94
3877.00,120.92
3876.00,120.90
3875.00,120.90
3874.00,120.91
3873.00,120.92
3872.00,120.91
3871.00,120.88
3870.00,120.87
3869.00,120.89
3868.00,120.89
3867.00,120.87
3866.00,120.86
3865.00,120.86
3864.00,120.88
3863.00,120.88
3862.00,120.87
3861.00,120.87
3860.00,120.86
3859.00,120.86
3858.00,120.86
3857.00,120.86
3856.00,120.86
3855.00,120.84
3854.00,120.83
3853.00,120.85
3852.00,120.86
3851.00,120.86
3850.00,120.85
3849.00,120.87
3848.00,120.89
3847.00,120.91
3846.00,120.90
3845.00,120.90
3844.00,120.89
3843.00,120.90
3842.00,120.90
3841.00,120.90
3840.00,120.89
3839.00,120.89
3838.00,120.89
3837.00,120.89
3836.00,120.88
3835.00,120.88
3834.00,120.88
3833.00,120.87
3832.00,120.87
3831.00,120.87
3830.00,120.87
3829.00,120.85
3828.00,120.84
3827.00,120.83
3826.00,120.83
3825.00,120.83
3824.00,120.83
3823.00,120.80
3822.00,120.78
3821.00,120.79
3820.00,120.80
3819.00,120.79
3818.00,120.76
3817.00,120.74
3816.00,120.74
3815.00,120.75
3814.00,120.74
3813.00,120.72
3812.00,120.71
3811.00,120.72
3810.00,120.73
3809.00,120.73
3808.00,120.71
3807.00,120.71
3806.00,120.72
3805.00,120.73
3804.00,120.72
3803.00,120.70
3802.00,120.70
3801.00,120.72
3800.00,120.74
3799.00,120.73
3798.00,120.72
3797.00,120.72
3796.00,120.74
3795.00,120.76
3794.00,120.75
3793.00,120.74
3792.00,120.74
3791.00,120.74
3790.00,120.75
3789.00,120.75
3788.00,120.75
3787.00,120.75
3786.00,120.75
3785.00,120.75
3784.00,120.75
3783.00,120.76
3782.00,120.76
3781.00,120.75
3780.00,120.75
3779.00,120.75
3778.00,120.76
3777.00,120.75
3776.00,120.74
3775.00,120.74
3774.00,120.74
3773.00,120.74
3772.00,120.74
3771.00,120.73
3770.00,120.73
3769.00,120.74
3768.00,120.74
3767.00,120.73
3766.00,120.72
3765.00,120.72
3764.00,120.73
3763.00,120.73
3762.00,120.71
3761.00,120.71
3760.00,120.71
3759.00,120.72
3758.00,120.71
3757.00,120.71
3756.00,120.70
3755.00,120.70
3754.00,120.69
3753.00,120.67
3752.00,120.67
3751.00,120.66
3750.00,120.65
3749.00,120.66
3748.00,120.66
3747.00,120.66
3746.00,120.65
3745.00,120.64
3744.00,120.65
3743.00,120.67
3742.00,120.65
3741.00,120.63
3740.00,120.64
3739.00,120.66
3738.00,120.66
3737.00,120.64
3736.00,120.62
3735.00,120.63
3734.00,120.63
3733.00,120.62
3732.00,120.61
3731.00,120.61
3730.00,120.60
3729.00,120.59
3728.00,120.57
3727.00,120.56
3726.00,120.56
3725.00,120.56
3724.00,120.55
3723.00,120.54
3722.00,120.54
3721.00,120.54
3720.00,120.54
3719.00,120.54
3718.00,120.53
3717.00,120.53
3716.00,120.53
3715.00,120.53
3714.00,120.52
3713.00,120.52
3712.00,120.52
3711.00,120.53
3710.00,120.53
3709.00,120.54
3708.00,120.54
3707.00,120.55
3706.00,120.56
3705.00,120.57
3704.00,120.57
3703.00,120.58
3702.00,120.60
3701.00,120.62
3700.00,120.63
3699.00,120.65
3698.00,120.66
3697.00,120.67
3696.00,120.70
3695.00,120.72
3694.00,120.73
3693.00,120.75
3692.00,120.77
3691.00,120.79
3690.00,120.81
3689.00,120.83
3688.00,120.84
3687.00,120.86
3686.00,120.86
3685.00,120.87
3684.00,120.88
3683.00,120.90
3682.00,120.91
3681.00,120.91
3680.00,120.91
3679.00,120.92
3678.00,120.93
3677.00,120.92
3676.00,120.92
3675.00,120.93
3674.00,120.94
3673.00,120.93
3672.00,120.91
3671.00,120.90
3670.00,120.91
3669.00,120.92
3668.00,120.91
3667.00,120.89
3666.00,120.88
3665.00,120.88
3664.00,120.88
3663.00,120.87
3662.00,120.86
3661.00,120.84
3660.00,120.84
3659.00,120.83
3658.00,120.82
3657.00,120.81
3656.00,120.80
3655.00,120.80
3654.00,120.79
3653.00,120.78
3652.00,120.77
3651.00,120.77
3650.00,120.78
3649.00,120.78
3648.00,120.77
3647.00,120.76
3646.00,120.76
3645.00,120.76
3644.00,120.75
3643.00,120.75
3642.00,120.74
3641.00,120.74
3640.00,120.74
3639.00,120.73
3638.00,120.73
3637.00,120.74
3636.00,120.74
3635.00,120.74
3634.00,120.74
3633.00,120.75
3632.00,120.76
3631.00,120.75
3630.00,120.75
3629.00,120.76
3628.00,120.78
3627.00,120.78
3626.00,120.77
3625.00,120.77
3624.00,120.79
3623.00,120.80
3622.00,120.81
3621.00,120.80
3620.00,120.80
3619.00,120.81
3618.00,120.81
3617.00,120.82
3616.00,120.81
3615.00,120.81
3614.00,120.81
3613.00,120.81
3612.00,120.81
3611.00,120.80
3610.00,120.79
3609.00,120.78
3608.00,120.78
3607.00,120.78
3606.00,120.77
3605.00,120.77
3604.00,120.76
3603.00,120.76
3602.00,120.76
3601.00,120.76
3600.00,120.76
3599.00,120.76
3598.00,120.76
3597.00,120.76
3596.00,120.77
3595.00,120.77
3594.00,120.78
3593.00,120.78
3592.00,120.79
3591.00,120.79
3590.00,120.79
3589.00,120.80
3588.00,120.81
3587.00,120.82
3586.00,120.82
3585.00,120.83
3584.00,120.83
3583.00,120.84
3582.00,120.85
3581.00,120.85
3580.00,120.86
3579.00,120.86
3578.00,120.87
3577.00,120.87
3576.00,120.88
3575.00,120.89
3574.00,120.89
3573.00,120.90
3572.00,120.90
3571.00,120.91
3570.00,120.91
3569.00,120.91
3568.00,120.92
3567.00,120.92
3566.00,120.93
3565.00,120.93
3564.00,120.93
3563.00,120.93
3562.00,120.93
3561.00,120.93
3560.00,120.93
3559.00,120.93
3558.00,120.92
3557.00,120.92
3556.00,120.92
3555.00,120.92
3554.00,120.92
3553.00,120.92
3552.00,120.92
3551.00,120.92
3550.00,120.92
3549.00,120.91
3548.00,120.91
3547.00,120.91
3546.00,120.91
3545.00,120.91
3544.00,120.91
3543.00,120.90
3542.00,120.90
3541.00,120.91
3540.00,120.91
3539.00,120.91
3538.00,120.91
3537.00,120.91
3536.00,120.91
3535.00,120.92
3534.00,120.92
3533.00,120.92
3532.00,120.93
3531.00,120.93
3530.00,120.93
3529.00,120.94
3528.00,120.94
3527.00,120.94
3526.00,120.95
3525.00,120.95
3524.00,120.95
3523.00,120.95
3522.00,120.96
3521.00,120.96
3520.00,120.95
3519.00,120.95
3518.00,120.95
3517.00,120.95
3516.00,120.95
3515.00,120.94
3514.00,120.94
3513.00,120.94
3512.00,120.93
3511.00,120.93
3510.00,120.93
3509.00,120.92
3508.00,120.92
3507.00,120.91
3506.00,120.91
3505.00,120.90
3504.00,120.90
3503.00,120.90
3502.00,120.89
3501.00,120.89
3500.00,120.89
3499.00,120.88
3498.00,120.88
3497.00,120.88
3496.00,120.88
3495.00,120.88
3494.00,120.88
3493.00,120.88
3492.00,120.89
3491.00,120.89
3490.00,120.89
3489.00,120.90
3488.00,120.90
3487.00,120.91
3486.00,120.91
3485.00,120.92
3484.00,120.93
3483.00,120.93
3482.00,120.94
3481.00,120.95
3480.00,120.96
3479.00,120.97
3478.00,120.98
3477.00,120.98
3476.00,120.99
3475.00,121.00
3474.00,121.01
3473.00,121.01
3472.00,121.02
3471.00,121.03
3470.00,121.04
3469.00,121.05
3468.00,121.05
3467.00,121.06
3466.00,121.06
3465.00,121.07
3464.00,121.07
3463.00,121.07
3462.00,121.07
3461.00,121.08
3460.00,121.08
3459.00,121.08
3458.00,121.08
3457.00,121.08
3456.00,121.08
3455.00,121.08
3454.00,121.08
3453.00,121.08
3452.00,121.08
3451.00,121.08
3450.00,121.08
3449.00,121.08
3448.00,121.08
3447.00,121.08
3446.00,121.08
3445.00,121.09
3444.00,121.09
3443.00,121.09
3442.00,121.10
3441.00,121.10
3440.00,121.10
3439.00,121.11
3438.00,121.11
3437.00,121.12
3436.00,121.12
3435.00,121.13
3434.00,121.13
3433.00,121.13
3432.00,121.14
3431.00,121.15
3430.00,121.15
3429.00,121.15
3428.00,121.15
3427.00,121.16
3426.00,121.16
3425.00,121.17
3424.00,121.17
3423.00,121.17
3422.00,121.17
3421.00,121.17
3420.00,121.16
3419.00,121.16
3418.00,121.16
3417.00,121.15
3416.00,121.15
3415.00,121.14
3414.00,121.14
3413.00,121.13
3412.00,121.12
3411.00,121.11
3410.00,121.10
3409.00,121.08
3408.00,121.07
3407.00,121.06
3406.00,121.04
3405.00,121.03
3404.00,121.02
3403.00,121.01
3402.00,120.99
3401.00,120.98
3400.00,120.97
3399.00,120.95
3398.00,120.94
3397.00,120.93
3396.00,120.92
3395.00,120.90
3394.00,120.89
3393.00,120.89
3392.00,120.88
3391.00,120.87
3390.00,120.86
3389.00,120.86
3388.00,120.85
3387.00,120.85
3386.00,120.84
3385.00,120.84
3384.00,120.83
3383.00,120.83
3382.00,120.83
3381.00,120.83
3380.00,120.83
3379.00,120.83
3378.00,120.83
3377.00,120.83
3376.00,120.83
3375.00,120.83
3374.00,120.84
3373.00,120.84
3372.00,120.84
3371.00,120.84
3370.00,120.85
3369.00,120.85
3368.00,120.84
3367.00,120.84
3366.00,120.84
3365.00,120.84
3364.00,120.84
3363.00,120.84
3362.00,120.84
3361.00,120.84
3360.00,120.83
3359.00,120.83
3358.00,120.83
3357.00,120.83
3356.00,120.82
3355.00,120.82
3354.00,120.82
3353.00,120.82
3352.00,120.81
3351.00,120.81
3350.00,120.81
3349.00,120.81
3348.00,120.80
3347.00,120.80
3346.00,120.80
3345.00,120.80
3344.00,120.79
3343.00,120.79
3342.00,120.79
3341.00,120.79
3340.00,120.79
3339.00,120.79
3338.00,120.79
3337.00,120.80
3336.00,120.80
3335.00,120.80
3334.00,120.81
3333.00,120.81
3332.00,120.81
3331.00,120.82
3330.00,120.82
3329.00,120.83
3328.00,120.84
3327.00,120.85
3326.00,120.85
3325.00,120.86
3324.00,120.87
3323.00,120.88
3322.00,120.89
3321.00,120.89
3320.00,120.90
3319.00,120.91
3318.00,120.92
3317.00,120.93
3316.00,120.94
3315.00,120.95
3314.00,120.96
3313.00,120.97
3312.00,120.98
3311.00,121.00
3310.00,121.01
3309.00,121.03
3308.00,121.05
3307.00,121.06
3306.00,121.07
3305.00,121.08
3304.00,121.09
3303.00,121.09
3302.00,121.09
3301.00,121.09
3300.00,121.08
3299.00,121.07
3298.00,121.05
3297.00,121.04
3296.00,121.02
3295.00,121.00
3294.00,120.98
3293.00,120.96
3292.00,120.94
3291.00,120.93
3290.00,120.91
3289.00,120.89
3288.00,120.87
3287.00,120.86
3286.00,120.85
3285.00,120.84
3284.00,120.82
3283.00,120.81
3282.00,120.80
3281.00,120.80
3280.00,120.79
3279.00,120.78
3278.00,120.78
3277.00,120.77
3276.00,120.76
3275.00,120.76
3274.00,120.76
3273.00,120.76
3272.00,120.76
3271.00,120.75
3270.00,120.75
3269.00,120.75
3268.00,120.75
3267.00,120.75
3266.00,120.75
3265.00,120.75
3264.00,120.75
3263.00,120.75
3262.00,120.75
3261.00,120.75
3260.00,120.76
3259.00,120.76
3258.00,120.76
3257.00,120.76
3256.00,120.77
3255.00,120.77
3254.00,120.77
3253.00,120.77
3252.00,120.77
3251.00,120.77
3250.00,120.77
3249.00,120.76
3248.00,120.76
3247.00,120.76
3246.00,120.76
3245.00,120.76
3244.00,120.75
3243.00,120.75
3242.00,120.75
3241.00,120.75
3240.00,120.75
3239.00,120.75
3238.00,120.75
3237.00,120.75
3236.00,120.74
3235.00,120.74
3234.00,120.74
3233.00,120.74
3232.00,120.74
3231.00,120.75
3230.00,120.75
3229.00,120.75
3228.00,120.76
3227.00,120.76
3226.00,120.76
3225.00,120.77
3224.00,120.77
3223.00,120.78
3222.00,120.79
3221.00,120.80
3220.00,120.80
3219.00,120.81
3218.00,120.82
3217.00,120.83
3216.00,120.84
3215.00,120.84
3214.00,120.85
3213.00,120.86
3212.00,120.87
3211.00,120.88
3210.00,120.89
3209.00,120.89
3208.00,120.90
3207.00,120.90
3206.00,120.91
3205.00,120.92
3204.00,120.92
3203.00,120.92
3202.00,120.93
3201.00,120.93
3200.00,120.93
3199.00,120.93
3198.00,120.93
3197.00,120.93
3196.00,120.93
3195.00,120.92
3194.00,120.92
3193.00,120.92
3192.00,120.91
3191.00,120.91
3190.00,120.90
3189.00,120.90
3188.00,120.90
3187.00,120.89
3186.00,120.89
3185.00,120.89
3184.00,120.88
3183.00,120.88
3182.00,120.88
3181.00,120.88
3180.00,120.88
3179.00,120.87
3178.00,120.87
3177.00,120.87
3176.00,120.86
3175.00,120.86
3174.00,120.86
3173.00,120.85
3172.00,120.85
3171.00,120.85
3170.00,120.85
3169.00,120.86
3168.00,120.86
3167.00,120.87
3166.00,120.87
3165.00,120.88
3164.00,120.88
3163.00,120.89
3162.00,120.89
3161.00,120.90
3160.00,120.91
3159.00,120.91
3158.00,120.92
3157.00,120.92
3156.00,120.92
3155.00,120.93
3154.00,120.93
3153.00,120.93
3152.00,120.93
3151.00,120.93
3150.00,120.93
3149.00,120.93
3148.00,120.93
3147.00,120.93
3146.00,120.92
3145.00,120.92
3144.00,120.92
3143.00,120.92
3142.00,120.92
3141.00,120.92
3140.00,120.91
3139.00,120.91
3138.00,120.91
3137.00,120.90
3136.00,120.90
3135.00,120.90
3134.00,120.89
3133.00,120.89
3132.00,120.89
3131.00,120.89
3130.00,120.89
3129.00,120.89
3128.00,120.89
3127.00,120.89
3126.00,120.89
3125.00,120.90
3124.00,120.90
3123.00,120.90
3122.00,120.91
3121.00,120.91
3120.00,120.92
3119.00,120.93
3118.00,120.93
3117.00,120.94
3116.00,120.95
3115.00,120.96
3114.00,120.97
3113.00,120.98
3112.00,120.99
3111.00,121.00
3110.00,121.01
3109.00,121.02
3108.00,121.03
3107.00,121.04
3106.00,121.05
3105.00,121.06
3104.00,121.06
3103.00,121.07
3102.00,121.08
3101.00,121.08
3100.00,121.08
3099.00,121.08
3098.00,121.09
3097.00,121.09
3096.00,121.09
3095.00,121.08
3094.00,121.08
3093.00,121.08
3092.00,121.08
3091.00,121.08
3090.00,121.08
3089.00,121.08
3088.00,121.09
3087.00,121.09
3086.00,121.09
3085.00,121.09
3084.00,121.09
3083.00,121.09
3082.00,121.09
3081.00,121.10
3080.00,121.10
3079.00,121.10
3078.00,121.10
3077.00,121.10
3076.00,121.09
3075.00,121.09
3074.00,121.09
3073.00,121.09
3072.00,121.09
3071.00,121.09
3070.00,121.09
3069.00,121.09
3068.00,121.10
3067.00,121.10
3066.00,121.10
3065.00,121.10
3064.00,121.10
3063.00,121.11
3062.00,121.11
3061.00,121.12
3060.00,121.12
3059.00,121.12
3058.00,121.13
3057.00,121.13
3056.00,121.13
3055.00,121.14
3054.00,121.14
3053.00,121.15
3052.00,121.15
3051.00,121.15
3050.00,121.15
3049.00,121.16
3048.00,121.16
3047.00,121.16
3046.00,121.17
3045.00,121.17
3044.00,121.17
3043.00,121.17
3042.00,121.17
3041.00,121.17
3040.00,121.17
3039.00,121.16
3038.00,121.16
3037.00,121.16
3036.00,121.16
3035.00,121.15
3034.00,121.15
3033.00,121.15
3032.00,121.14
3031.00,121.14
3030.00,121.13
3029.00,121.13
3028.00,121.12
3027.00,121.12
3026.00,121.11
3025.00,121.11
3024.00,121.11
3023.00,121.10
3022.00,121.10
3021.00,121.10
3020.00,121.10
3019.00,121.10
3018.00,121.10
3017.00,121.10
3016.00,121.10
3015.00,121.10
3014.00,121.10
3013.00,121.10
3012.00,121.10
3011.00,121.10
3010.00,121.11
3009.00,121.11
3008.00,121.11
3007.00,121.12
3006.00,121.12
3005.00,121.12
3004.00,121.12
3003.00,121.12
3002.00,121.13
3001.00,121.13
3000.00,121.13
2999.00,121.13
2998.00,121.13
2997.00,121.13
2996.00,121.13
2995.00,121.13
2994.00,121.13
2993.00,121.13
2992.00,121.13
2991.00,121.13
2990.00,121.13
2989.00,121.13
2988.00,121.12
2987.00,121.12
2986.00,121.12
2985.00,121.12
2984.00,121.12
2983.00,121.11
2982.00,121.11
2981.00,121.10
2980.00,121.10
2979.00,121.09
2978.00,121.09
2977.00,121.09
2976.00,121.08
2975.00,121.08
2974.00,121.07
2973.00,121.07
2972.00,121.07
2971.00,121.06
2970.00,121.06
2969.00,121.06
2968.00,121.06
2967.00,121.06
2966.00,121.06
2965.00,121.05
2964.00,121.05
2963.00,121.05
2962.00,121.06
2961.00,121.06
2960.00,121.06
2959.00,121.07
2958.00,121.07
2957.00,121.08
2956.00,121.08
2955.00,121.09
2954.00,121.09
2953.00,121.09
2952.00,121.10
2951.00,121.10
2950.00,121.11
2949.00,121.11
2948.00,121.12
2947.00,121.12
2946.00,121.12
2945.00,121.13
2944.00,121.13
2943.00,121.13
2942.00,121.14
2941.00,121.14
2940.00,121.14
2939.00,121.14
2938.00,121.14
2937.00,121.14
2936.00,121.14
2935.00,121.14
2934.00,121.14
2933.00,121.14
2932.00,121.14
2931.00,121.14
2930.00,121.14
2929.00,121.13
2928.00,121.13
2927.00,121.12
2926.00,121.12
2925.00,121.11
2924.00,121.11
2923.00,121.11
2922.00,121.10
2921.00,121.10
2920.00,121.09
2919.00,121.09
2918.00,121.09
2917.00,121.08
2916.00,121.08
2915.00,121.07
2914.00,121.07
2913.00,121.06
2912.00,121.06
2911.00,121.05
2910.00,121.05
2909.00,121.05
2908.00,121.05
2907.00,121.05
2906.00,121.05
2905.00,121.05
2904.00,121.05
2903.00,121.05
2902.00,121.05
2901.00,121.06
2900.00,121.06
2899.00,121.07
2898.00,121.07
2897.00,121.08
2896.00,121.09
2895.00,121.09
2894.00,121.10
2893.00,121.10
2892.00,121.10
2891.00,121.11
2890.00,121.11
2889.00,121.11
2888.00,121.11
2887.00,121.12
2886.00,121.12
2885.00,121.12
2884.00,121.12
2883.00,121.11
2882.00,121.11
2881.00,121.11
2880.00,121.11
2879.00,121.11
2878.00,121.10
2877.00,121.10
2876.00,121.09
2875.00,121.09
2874.00,121.08
2873.00,121.08
2872.00,121.07
2871.00,121.07
2870.00,121.06
2869.00,121.06
2868.00,121.05
2867.00,121.05
2866.00,121.04
2865.00,121.04
2864.00,121.03
2863.00,121.03
2862.00,121.03
2861.00,121.03
2860.00,121.03
2859.00,121.04
2858.00,121.04
2857.00,121.04
2856.00,121.04
2855.00,121.05
2854.00,121.05
2853.00,121.06
2852.00,121.07
2851.00,121.07
2850.00,121.08
2849.00,121.08
2848.00,121.08
2847.00,121.08
2846.00,121.09
2845.00,121.09
2844.00,121.09
2843.00,121.10
2842.00,121.10
2841.00,121.10
2840.00,121.11
2839.00,121.11
2838.00,121.11
2837.00,121.12
2836.00,121.12
2835.00,121.12
2834.00,121.12
2833.00,121.12
2832.00,121.12
2831.00,121.11
2830.00,121.11
2829.00,121.11
2828.00,121.10
2827.00,121.10
2826.00,121.10
2825.00,121.09
2824.00,121.08
2823.00,121.08
2822.00,121.07
2821.00,121.06
2820.00,121.05
2819.00,121.05
2818.00,121.04
2817.00,121.03
2816.00,121.02
2815.00,121.02
2814.00,121.01
2813.00,121.00
2812.00,121.00
2811.00,120.99
2810.00,120.99
2809.00,120.99
2808.00,120.99
2807.00,120.99
2806.00,120.99
2805.00,120.99
2804.00,120.99
2803.00,121.00
2802.00,121.00
2801.00,121.00
2800.00,121.00
2799.00,121.01
2798.00,121.01
2797.00,121.01
2796.00,121.02
2795.00,121.02
2794.00,121.03
2793.00,121.03
2792.00,121.04
2791.00,121.04
2790.00,121.05
2789.00,121.05
2788.00,121.05
2787.00,121.05
2786.00,121.05
2785.00,121.06
2784.00,121.06
2783.00,121.05
2782.00,121.05
2781.00,121.05
2780.00,121.05
2779.00,121.05
2778.00,121.05
2777.00,121.04
2776.00,121.04
2775.00,121.04
2774.00,121.03
2773.00,121.03
2772.00,121.02
2771.00,121.02
2770.00,121.01
2769.00,121.01
2768.00,121.00
2767.00,120.99
2766.00,120.99
2765.00,120.98
2764.00,120.98
2763.00,120.97
2762.00,120.97
2761.00,120.96
2760.00,120.96
2759.00,120.95
2758.00,120.95
2757.00,120.95
2756.00,120.95
2755.00,120.95
2754.00,120.95
2753.00,120.95
2752.00,120.95
2751.00,120.95
2750.00,120.95
2749.00,120.96
2748.00,120.96
2747.00,120.97
2746.00,120.97
2745.00,120.98
2744.00,120.98
2743.00,120.99
2742.00,120.99
2741.00,121.00
2740.00,121.00
2739.00,121.01
2738.00,121.01
2737.00,121.02
2736.00,121.02
2735.00,121.03
2734.00,121.03
2733.00,121.03
2732.00,121.03
2731.00,121.03
2730.00,121.03
2729.00,121.02
2728.00,121.02
2727.00,121.01
2726.00,121.00
2725.00,121.00
2724.00,120.99
2723.00,120.98
2722.00,120.97
2721.00,120.96
2720.00,120.96
2719.00,120.95
2718.00,120.94
2717.00,120.93
2716.00,120.92
2715.00,120.91
2714.00,120.91
2713.00,120.90
2712.00,120.89
2711.00,120.88
2710.00,120.87
2709.00,120.87
2708.00,120.86
2707.00,120.86
2706.00,120.85
2705.00,120.85
2704.00,120.84
2703.00,120.84
2702.00,120.84
2701.00,120.84
2700.00,120.83
2699.00,120.83
2698.00,120.83
2697.00,120.84
2696.00,120.84
2695.00,120.84
2694.00,120.84
2693.00,120.85
2692.00,120.85
2691.00,120.86
2690.00,120.86
2689.00,120.87
2688.00,120.87
2687.00,120.88
2686.00,120.89
2685.00,120.90
2684.00,120.90
2683.00,120.91
2682.00,120.91
2681.00,120.92
2680.00,120.93
2679.00,120.93
2678.00,120.93
2677.00,120.94
2676.00,120.94
2675.00,120.94
2674.00,120.94
2673.00,120.94
2672.00,120.94
2671.00,120.93
2670.00,120.93
2669.00,120.93
2668.00,120.92
2667.00,120.91
2666.00,120.91
2665.00,120.90
2664.00,120.88
2663.00,120.87
2662.00,120.86
2661.00,120.85
2660.00,120.84
2659.00,120.83
2658.00,120.82
2657.00,120.81
2656.00,120.80
2655.00,120.79
2654.00,120.79
2653.00,120.78
2652.00,120.77
2651.00,120.77
2650.00,120.76
2649.00,120.76
2648.00,120.76
2647.00,120.75
2646.00,120.75
2645.00,120.75
2644.00,120.75
2643.00,120.75
2642.00,120.75
2641.00,120.76
2640.00,120.76
2639.00,120.76
2638.00,120.76
2637.00,120.77
2636.00,120.77
2635.00,120.77
2634.00,120.78
2633.00,120.78
2632.00,120.79
2631.00,120.79
2630.00,120.80
2629.00,120.80
2628.00,120.81
2627.00,120.81
2626.00,120.82
2625.00,120.82
2624.00,120.82
2623.00,120.83
2622.00,120.83
2621.00,120.83
2620.00,120.83
2619.00,120.83
2618.00,120.83
2617.00,120.83
2616.00,120.83
2615.00,120.83
2614.00,120.83
2613.00,120.83
2612.00,120.82
2611.00,120.82
2610.00,120.81
2609.00,120.81
2608.00,120.80
2607.00,120.80
2606.00,120.79
2605.00,120.79
2604.00,120.78
2603.00,120.78
2602.00,120.77
2601.00,120.77
2600.00,120.76
2599.00,120.76
2598.00,120.76
2597.00,120.75
2596.00,120.75
2595.00,120.75
2594.00,120.75
2593.00,120.75
2592.00,120.75
2591.00,120.76
2590.00,120.76
2589.00,120.77
2588.00,120.77
2587.00,120.78
2586.00,120.78
2585.00,120.78
2584.00,120.79
2583.00,120.79
2582.00,120.80
2581.00,120.80
2580.00,120.81
2579.00,120.81
2578.00,120.82
2577.00,120.82
2576.00,120.82
2575.00,120.83
2574.00,120.83
2573.00,120.83
2572.00,120.83
2571.00,120.83
2570.00,120.83
2569.00,120.83
2568.00,120.82
2567.00,120.82
2566.00,120.82
2565.00,120.81
2564.00,120.81
2563.00,120.80
2562.00,120.79
2561.00,120.79
2560.00,120.78
2559.00,120.77
2558.00,120.76
2557.00,120.76
2556.00,120.75
2555.00,120.74
2554.00,120.73
2553.00,120.72
2552.00,120.71
2551.00,120.70
2550.00,120.69
2549.00,120.68
2548.00,120.67
2547.00,120.66
2546.00,120.65
2545.00,120.65
2544.00,120.64
2543.00,120.63
2542.00,120.63
2541.00,120.63
2540.00,120.62
2539.00,120.62
2538.00,120.63
2537.00,120.63
2536.00,120.63
2535.00,120.63
2534.00,120.64
2533.00,120.64
2532.00,120.65
2531.00,120.65
2530.00,120.66
2529.00,120.66
2528.00,120.67
2527.00,120.67
2526.00,120.67
2525.00,120.68
2524.00,120.68
2523.00,120.68
2522.00,120.68
2521.00,120.68
2520.00,120.68
2519.00,120.68
2518.00,120.68
2517.00,120.67
2516.00,120.67
2515.00,120.66
2514.00,120.66
2513.00,120.65
2512.00,120.64
2511.00,120.63
2510.00,120.63
2509.00,120.62
2508.00,120.61
2507.00,120.60
2506.00,120.59
2505.00,120.58
2504.00,120.56
2503.00,120.55
2502.00,120.54
2501.00,120.53
2500.00,120.52
2499.00,120.51
2498.00,120.50
2497.00,120.50
2496.00,120.49
2495.00,120.48
2494.00,120.48
2493.00,120.47
2492.00,120.47
2491.00,120.46
2490.00,120.46
2489.00,120.46
2488.00,120.45
2487.00,120.45
2486.00,120.45
2485.00,120.46
2484.00,120.46
2483.00,120.46
2482.00,120.46
2481.00,120.46
2480.00,120.46
2479.00,120.47
2478.00,120.47
2477.00,120.47
2476.00,120.48
2475.00,120.48
2474.00,120.48
2473.00,120.48
2472.00,120.49
2471.00,120.49
2470.00,120.49
2469.00,120.49
2468.00,120.50
2467.00,120.50
2466.00,120.50
2465.00,120.50
2464.00,120.50
2463.00,120.50
2462.00,120.49
2461.00,120.49
2460.00,120.49
2459.00,120.48
2458.00,120.48
2457.00,120.47
2456.00,120.47
2455.00,120.46
2454.00,120.46
2453.00,120.45
2452.00,120.44
2451.00,120.44
2450.00,120.43
2449.00,120.43
2448.00,120.43
2447.00,120.43
2446.00,120.42
2445.00,120.42
2444.00,120.42
2443.00,120.43
2442.00,120.43
2441.00,120.43
2440.00,120.43
2439.00,120.44
2438.00,120.44
2437.00,120.44
2436.00,120.45
2435.00,120.46
2434.00,120.46
2433.00,120.47
2432.00,120.48
2431.00,120.49
2430.00,120.50
2429.00,120.51
2428.00,120.52
2427.00,120.53
2426.00,120.54
2425.00,120.56
2424.00,120.57
2423.00,120.58
2422.00,120.60
2421.00,120.61
2420.00,120.62
2419.00,120.63
2418.00,120.64
2417.00,120.65
2416.00,120.65
2415.00,120.66
2414.00,120.67
2413.00,120.67
2412.00,120.67
2411.00,120.67
2410.00,120.67
2409.00,120.66
2408.00,120.66
2407.00,120.66
2406.00,120.65
2405.00,120.65
2404.00,120.64
2403.00,120.63
2402.00,120.62
2401.00,120.61
2400.00,120.60
2399.00,120.59
2398.00,120.58
2397.00,120.57
2396.00,120.56
2395.00,120.55
2394.00,120.54
2393.00,120.53
2392.00,120.52
2391.00,120.52
2390.00,120.51
2389.00,120.50
2388.00,120.50
2387.00,120.49
2386.00,120.49
2385.00,120.48
2384.00,120.47
2383.00,120.47
2382.00,120.46
2381.00,120.46
2380.00,120.46
2379.00,120.46
2378.00,120.46
2377.00,120.47
2376.00,120.48
2375.00,120.48
2374.00,120.49
2373.00,120.49
2372.00,120.49
2371.00,120.49
2370.00,120.48
2369.00,120.47
2368.00,120.46
2367.00,120.45
2366.00,120.44
2365.00,120.43
2364.00,120.43
2363.00,120.43
2362.00,120.43
2361.00,120.43
2360.00,120.43
2359.00,120.43
2358.00,120.43
2357.00,120.42
2356.00,120.42
2355.00,120.42
2354.00,120.42
2353.00,120.43
2352.00,120.43
2351.00,120.42
2350.00,120.41
2349.00,120.40
2348.00,120.40
2347.00,120.41
2346.00,120.40
2345.00,120.39
2344.00,120.39
2343.00,120.38
2342.00,120.38
2341.00,120.38
2340.00,120.38
2339.00,120.38
2338.00,120.38
2337.00,120.38
2336.00,120.38
2335.00,120.38
2334.00,120.38
2333.00,120.37
2332.00,120.37
2331.00,120.38
2330.00,120.39
2329.00,120.38
2328.00,120.37
2327.00,120.37
2326.00,120.36
2325.00,120.36
2324.00,120.36
2323.00,120.35
2322.00,120.35
2321.00,120.34
2320.00,120.34
2319.00,120.35
2318.00,120.35
2317.00,120.35
2316.00,120.34
2315.00,120.34
2314.00,120.35
2313.00,120.36
2312.00,120.37
2311.00,120.37
2310.00,120.38
2309.00,120.38
2308.00,120.39
2307.00,120.39
2306.00,120.40
2305.00,120.40
2304.00,120.40
2303.00,120.41
2302.00,120.41
2301.00,120.41
2300.00,120.40
2299.00,120.40
2298.00,120.40
2297.00,120.40
2296.00,120.40
2295.00,120.40
2294.00,120.39
2293.00,120.39
2292.00,120.38
2291.00,120.38
2290.00,120.38
2289.00,120.37
2288.00,120.37
2287.00,120.36
2286.00,120.36
2285.00,120.35
2284.00,120.35
2283.00,120.35
2282.00,120.34
2281.00,120.34
2280.00,120.33
2279.00,120.33
2278.00,120.32
2277.00,120.32
2276.00,120.32
2275.00,120.32
2274.00,120.33
2273.00,120.33
2272.00,120.33
2271.00,120.33
2270.00,120.34
2269.00,120.35
2268.00,120.35
2267.00,120.36
2266.00,120.37
2265.00,120.37
2264.00,120.38
2263.00,120.39
2262.00,120.39
2261.00,120.40
2260.00,120.40
2259.00,120.41
2258.00,120.42
2257.00,120.42
2256.00,120.43
2255.00,120.43
2254.00,120.43
2253.00,120.43
2252.00,120.43
2251.00,120.43
2250.00,120.43
2249.00,120.43
2248.00,120.43
2247.00,120.42
2246.00,120.42
2245.00,120.41
2244.00,120.41
2243.00,120.40
2242.00,120.39
2241.00,120.38
2240.00,120.37
2239.00,120.36
2238.00,120.35
2237.00,120.34
2236.00,120.32
2235.00,120.31
2234.00,120.30
2233.00,120.29
2232.00,120.28
2231.00,120.27
2230.00,120.26
2229.00,120.25
2228.00,120.24
2227.00,120.23
2226.00,120.22
2225.00,120.22
2224.00,120.21
2223.00,120.21
2222.00,120.21
2221.00,120.21
2220.00,120.21
2219.00,120.21
2218.00,120.22
2217.00,120.22
2216.00,120.23
2215.00,120.23
2214.00,120.24
2213.00,120.24
2212.00,120.25
2211.00,120.26
2210.00,120.26
2209.00,120.26
2208.00,120.27
2207.00,120.27
2206.00,120.27
2205.00,120.27
2204.00,120.27
2203.00,120.27
2202.00,120.27
2201.00,120.27
2200.00,120.27
2199.00,120.26
2198.00,120.26
2197.00,120.25
2196.00,120.24
2195.00,120.24
2194.00,120.23
2193.00,120.22
2192.00,120.21
2191.00,120.19
2190.00,120.18
2189.00,120.17
2188.00,120.16
2187.00,120.15
2186.00,120.13
2185.00,120.12
2184.00,120.11
2183.00,120.10
2182.00,120.10
2181.00,120.09
2180.00,120.08
2179.00,120.08
2178.00,120.07
2177.00,120.07
2176.00,120.06
2175.00,120.06
2174.00,120.06
2173.00,120.06
2172.00,120.06
2171.00,120.07
2170.00,120.07
2169.00,120.08
2168.00,120.09
2167.00,120.09
2166.00,120.10
2165.00,120.11
2164.00,120.12
2163.00,120.13
2162.00,120.15
2161.00,120.16
2160.00,120.17
2159.00,120.18
2158.00,120.19
2157.00,120.20
2156.00,120.21
2155.00,120.21
2154.00,120.22
2153.00,120.22
2152.00,120.23
2151.00,120.23
2150.00,120.23
2149.00,120.23
2148.00,120.23
2147.00,120.23
2146.00,120.23
2145.00,120.23
2144.00,120.22
2143.00,120.22
2142.00,120.21
2141.00,120.20
2140.00,120.19
2139.00,120.18
2138.00,120.17
2137.00,120.16
2136.00,120.15
2135.00,120.14
2134.00,120.13
2133.00,120.12
2132.00,120.11
2131.00,120.10
2130.00,120.09
2129.00,120.08
2128.00,120.07
2127.00,120.07
2126.00,120.06
2125.00,120.06
2124.00,120.05
2123.00,120.05
2122.00,120.05
2121.00,120.04
2120.00,120.04
2119.00,120.04
2118.00,120.05
2117.00,120.05
2116.00,120.05
2115.00,120.06
2114.00,120.06
2113.00,120.06
2112.00,120.07
2111.00,120.07
2110.00,120.08
2109.00,120.08
2108.00,120.09
2107.00,120.10
2106.00,120.10
2105.00,120.10
2104.00,120.11
2103.00,120.11
2102.00,120.12
2101.00,120.12
2100.00,120.13
2099.00,120.13
2098.00,120.14
2097.00,120.14
2096.00,120.15
2095.00,120.15
2094.00,120.15
2093.00,120.16
2092.00,120.16
2091.00,120.16
2090.00,120.16
2089.00,120.16
2088.00,120.16
2087.00,120.16
2086.00,120.16
2085.00,120.15
2084.00,120.15
2083.00,120.15
2082.00,120.14
2081.00,120.14
2080.00,120.13
2079.00,120.13
2078.00,120.12
2077.00,120.11
2076.00,120.10
2075.00,120.09
2074.00,120.08
2073.00,120.08
2072.00,120.07
2071.00,120.07
2070.00,120.07
2069.00,120.06
2068.00,120.06
2067.00,120.05
2066.00,120.05
2065.00,120.05
2064.00,120.05
2063.00,120.04
2062.00,120.04
2061.00,120.04
2060.00,120.05
2059.00,120.05
2058.00,120.05
2057.00,120.05
2056.00,120.06
2055.00,120.06
2054.00,120.07
2053.00,120.08
2052.00,120.08
2051.00,120.09
2050.00,120.10
2049.00,120.11
2048.00,120.11
2047.00,120.12
2046.00,120.13
2045.00,120.13
2044.00,120.14
2043.00,120.15
2042.00,120.16
2041.00,120.16
2040.00,120.17
2039.00,120.18
2038.00,120.18
2037.00,120.18
2036.00,120.19
2035.00,120.19
2034.00,120.19
2033.00,120.18
2032.00,120.18
2031.00,120.18
2030.00,120.17
2029.00,120.16
2028.00,120.15
2027.00,120.14
2026.00,120.13
2025.00,120.12
2024.00,120.11
2023.00,120.10
2022.00,120.09
2021.00,120.08
2020.00,120.07
2019.00,120.06
2018.00,120.05
2017.00,120.04
2016.00,120.03
2015.00,120.03
2014.00,120.02
2013.00,120.02
2012.00,120.02
2011.00,120.02
2010.00,120.02
2009.00,120.03
2008.00,120.03
2007.00,120.04
2006.00,120.05
2005.00,120.06
2004.00,120.08
2003.00,120.09
2002.00,120.10
2001.00,120.12
2000.00,120.13
1999.00,120.15
1998.00,120.17
1997.00,120.18
1996.00,120.20
1995.00,120.22
1994.00,120.23
1993.00,120.25
1992.00,120.27
1991.00,120.29
1990.00,120.30
1989.00,120.32
1988.00,120.33
1987.00,120.35
1986.00,120.36
1985.00,120.37
1984.00,120.38
1983.00,120.39
1982.00,120.39
1981.00,120.40
1980.00,120.40
1979.00,120.40
1978.00,120.40
1977.00,120.40
1976.00,120.39
1975.00,120.38
1974.00,120.37
1973.00,120.36
1972.00,120.34
1971.00,120.33
1970.00,120.31
1969.00,120.30
1968.00,120.29
1967.00,120.27
1966.00,120.26
1965.00,120.26
1964.00,120.25
1963.00,120.25
1962.00,120.25
1961.00,120.26
1960.00,120.27
1959.00,120.28
1958.00,120.30
1957.00,120.31
1956.00,120.33
1955.00,120.36
1954.00,120.38
1953.00,120.41
1952.00,120.43
1951.00,120.45
1950.00,120.47
1949.00,120.49
1948.00,120.50
1947.00,120.51
1946.00,120.52
1945.00,120.52
1944.00,120.53
1943.00,120.53
1942.00,120.53
1941.00,120.53
1940.00,120.51
1939.00,120.50
1938.00,120.49
1937.00,120.47
1936.00,120.45
1935.00,120.44
1934.00,120.42
1933.00,120.40
1932.00,120.39
1931.00,120.37
1930.00,120.36
1929.00,120.34
1928.00,120.33
1927.00,120.32
1926.00,120.31
1925.00,120.30
1924.00,120.30
1923.00,120.29
1922.00,120.29
1921.00,120.28
1920.00,120.27
1919.00,120.27
1918.00,120.27
1917.00,120.26
1916.00,120.25
1915.00,120.25
1914.00,120.24
1913.00,120.23
1912.00,120.22
1911.00,120.21
1910.00,120.20
1909.00,120.19
1908.00,120.19
1907.00,120.18
1906.00,120.18
1905.00,120.17
1904.00,120.17
1903.00,120.17
1902.00,120.18
1901.00,120.18
1900.00,120.18
1899.00,120.19
1898.00,120.20
1897.00,120.21
1896.00,120.22
1895.00,120.23
1894.00,120.24
1893.00,120.24
1892.00,120.25
1891.00,120.27
1890.00,120.29
1889.00,120.30
1888.00,120.31
1887.00,120.32
1886.00,120.33
1885.00,120.34
1884.00,120.35
1883.00,120.37
1882.00,120.38
1881.00,120.39
1880.00,120.40
1879.00,120.41
1878.00,120.42
1877.00,120.42
1876.00,120.42
1875.00,120.42
1874.00,120.42
1873.00,120.42
1872.00,120.41
1871.00,120.41
1870.00,120.40
1869.00,120.40
1868.00,120.39
1867.00,120.38
1866.00,120.37
1865.00,120.36
1864.00,120.35
1863.00,120.35
1862.00,120.34
1861.00,120.34
1860.00,120.34
1859.00,120.34
1858.00,120.34
1857.00,120.35
1856.00,120.36
1855.00,120.37
1854.00,120.38
1853.00,120.40
1852.00,120.42
1851.00,120.43
1850.00,120.45
1849.00,120.46
1848.00,120.48
1847.00,120.49
1846.00,120.51
1845.00,120.53
1844.00,120.55
1843.00,120.57
1842.00,120.57
1841.00,120.58
1840.00,120.59
1839.00,120.60
1838.00,120.60
1837.00,120.61
1836.00,120.61
1835.00,120.62
1834.00,120.62
1833.00,120.61
1832.00,120.61
1831.00,120.61
1830.00,120.62
1829.00,120.63
1828.00,120.63
1827.00,120.63
1826.00,120.64
1825.00,120.64
1824.00,120.64
1823.00,120.65
1822.00,120.65
1821.00,120.66
1820.00,120.66
1819.00,120.66
1818.00,120.67
1817.00,120.67
1816.00,120.67
1815.00,120.66
1814.00,120.66
1813.00,120.66
1812.00,120.66
1811.00,120.66
1810.00,120.67
1809.00,120.67
1808.00,120.66
1807.00,120.66
1806.00,120.67
1805.00,120.67
1804.00,120.67
1803.00,120.67
1802.00,120.68
1801.00,120.69
1800.00,120.69
1799.00,120.71
1798.00,120.72
1797.00,120.73
1796.00,120.74
1795.00,120.74
1794.00,120.75
1793.00,120.76
1792.00,120.77
1791.00,120.79
1790.00,120.81
1789.00,120.82
1788.00,120.83
1787.00,120.85
1786.00,120.86
1785.00,120.87
1784.00,120.88
1783.00,120.89
1782.00,120.90
1781.00,120.91
1780.00,120.91
1779.00,120.92
1778.00,120.92
1777.00,120.93
1776.00,120.92
1775.00,120.92
1774.00,120.91
1773.00,120.91
1772.00,120.91
1771.00,120.92
1770.00,120.92
1769.00,120.93
1768.00,120.93
1767.00,120.92
1766.00,120.91
1765.00,120.90
1764.00,120.89
1763.00,120.88
1762.00,120.87
1761.00,120.86
1760.00,120.85
1759.00,120.85
1758.00,120.85
1757.00,120.84
1756.00,120.84
1755.00,120.82
1754.00,120.81
1753.00,120.81
1752.00,120.81
1751.00,120.80
1750.00,120.80
1749.00,120.80
1748.00,120.80
1747.00,120.80
1746.00,120.80
1745.00,120.81
1744.00,120.81
1743.00,120.82
1742.00,120.82
1741.00,120.83
1740.00,120.84
1739.00,120.84
1738.00,120.85
1737.00,120.85
1736.00,120.87
1735.00,120.88
1734.00,120.89
1733.00,120.88
1732.00,120.88
1731.00,120.89
1730.00,120.91
1729.00,120.92
1728.00,120.93
1727.00,120.93
1726.00,120.94
1725.00,120.94
1724.00,120.95
1723.00,120.95
1722.00,120.95
1721.00,120.94
1720.00,120.94
1719.00,120.94
1718.00,120.95
1717.00,120.95
1716.00,120.94
1715.00,120.94
1714.00,120.94
1713.00,120.93
1712.00,120.92
1711.00,120.92
1710.00,120.91
1709.00,120.90
1708.00,120.89
1707.00,120.88
1706.00,120.87
1705.00,120.85
1704.00,120.84
1703.00,120.83
1702.00,120.83
1701.00,120.83
1700.00,120.82
1699.00,120.81
1698.00,120.80
1697.00,120.79
1696.00,120.79
1695.00,120.79
1694.00,120.79
1693.00,120.80
1692.00,120.81
1691.00,120.82
1690.00,120.82
1689.00,120.82
1688.00,120.82
1687.00,120.82
1686.00,120.82
1685.00,120.83
1684.00,120.84
1683.00,120.85
1682.00,120.86
1681.00,120.87
1680.00,120.89
1679.00,120.89
1678.00,120.90
1677.00,120.90
1676.00,120.91
1675.00,120.91
1674.00,120.90
1673.00,120.89
1672.00,120.89
1671.00,120.90
1670.00,120.91
1669.00,120.92
1668.00,120.92
1667.00,120.91
1666.00,120.90
1665.00,120.90
1664.00,120.89
1663.00,120.89
1662.00,120.88
1661.00,120.88
1660.00,120.88
1659.00,120.87
1658.00,120.86
1657.00,120.84
1656.00,120.82
1655.00,120.80
1654.00,120.80
1653.00,120.80
1652.00,120.79
1651.00,120.77
1650.00,120.76
1649.00,120.76
1648.00,120.77
1647.00,120.77
1646.00,120.77
1645.00,120.76
1644.00,120.77
1643.00,120.77
1642.00,120.78
1641.00,120.79
1640.00,120.79
1639.00,120.79
1638.00,120.80
1637.00,120.82
1636.00,120.83
1635.00,120.83
1634.00,120.82
1633.00,120.82
1632.00,120.82
1631.00,120.83
1630.00,120.83
1629.00,120.83
1628.00,120.83
1627.00,120.84
1626.00,120.85
1625.00,120.85
1624.00,120.87
1623.00,120.87
1622.00,120.88
1621.00,120.88
1620.00,120.88
1619.00,120.87
1618.00,120.87
1617.00,120.86
1616.00,120.87
1615.00,120.87
1614.00,120.88
1613.00,120.89
1612.00,120.90
1611.00,120.90
1610.00,120.90
1609.00,120.90
1608.00,120.90
1607.00,120.91
1606.00,120.90
1605.00,120.90
1604.00,120.89
1603.00,120.88
1602.00,120.88
1601.00,120.87
1600.00,120.87
1599.00,120.86
1598.00,120.85
1597.00,120.84
1596.00,120.83
1595.00,120.82
1594.00,120.81
1593.00,120.80
1592.00,120.80
1591.00,120.80
1590.00,120.80
1589.00,120.80
1588.00,120.80
1587.00,120.80
1586.00,120.80
1585.00,120.81
1584.00,120.82
1583.00,120.82
1582.00,120.83
1581.00,120.83
1580.00,120.84
1579.00,120.85
1578.00,120.87
1577.00,120.88
1576.00,120.90
1575.00,120.90
1574.00,120.89
1573.00,120.89
1572.00,120.90
1571.00,120.90
1570.00,120.90
1569.00,120.90
1568.00,120.92
1567.00,120.92
1566.00,120.93
1565.00,120.93
1564.00,120.93
1563.00,120.91
1562.00,120.89
1561.00,120.85
1560.00,120.82
1559.00,120.82
1558.00,120.83
1557.00,120.85
1556.00,120.88
1555.00,120.89
1554.00,120.89
1553.00,120.88
1552.00,120.87
1551.00,120.86
1550.00,120.86
1549.00,120.86
1548.00,120.86
1547.00,120.87
1546.00,120.86
1545.00,120.86
1544.00,120.86
1543.00,120.87
1542.00,120.87
1541.00,120.87
1540.00,120.87
1539.00,120.86
1538.00,120.85
1537.00,120.83
1536.00,120.83
1535.00,120.83
1534.00,120.83
1533.00,120.82
1532.00,120.81
1531.00,120.80
1530.00,120.80
1529.00,120.80
1528.00,120.81
1527.00,120.82
1526.00,120.83
1525.00,120.83
1524.00,120.81
1523.00,120.80
1522.00,120.79
1521.00,120.79
1520.00,120.81
1519.00,120.83
1518.00,120.86
1517.00,120.87
1516.00,120.88
1515.00,120.88
1514.00,120.88
1513.00,120.88
1512.00,120.88
1511.00,120.88
1510.00,120.88
1509.00,120.89
1508.00,120.90
1507.00,120.93
1506.00,120.95
1505.00,120.94
1504.00,120.92
1503.00,120.91
1502.00,120.90
1501.00,120.89
1500.00,120.87
1499.00,120.85
1498.00,120.83
1497.00,120.81
1496.00,120.81
1495.00,120.81
1494.00,120.81
1493.00,120.80
1492.00,120.79
1491.00,120.78
1490.00,120.78
1489.00,120.78
1488.00,120.78
1487.00,120.79
1486.00,120.80
1485.00,120.81
1484.00,120.82
1483.00,120.82
1482.00,120.82
1481.00,120.82
1480.00,120.82
1479.00,120.82
1478.00,120.82
1477.00,120.82
1476.00,120.82
1475.00,120.84
1474.00,120.86
1473.00,120.88
1472.00,120.90
1471.00,120.90
1470.00,120.90
1469.00,120.91
1468.00,120.91
1467.00,120.91
1466.00,120.92
1465.00,120.92
1464.00,120.93
1463.00,120.94
1462.00,120.95
1461.00,120.95
1460.00,120.94
1459.00,120.94
1458.00,120.94
1457.00,120.95
1456.00,120.95
1455.00,120.95
1454.00,120.95
1453.00,120.95
1452.00,120.95
1451.00,120.94
1450.00,120.93
1449.00,120.92
1448.00,120.91
1447.00,120.91
1446.00,120.91
1445.00,120.91
1444.00,120.90
1443.00,120.89
1442.00,120.88
1441.00,120.87
1440.00,120.86
1439.00,120.84
1438.00,120.83
1437.00,120.83
1436.00,120.82
1435.00,120.82
1434.00,120.81
1433.00,120.82
1432.00,120.81
1431.00,120.81
1430.00,120.80
1429.00,120.81
1428.00,120.81
1427.00,120.81
1426.00,120.81
1425.00,120.82
1424.00,120.83
1423.00,120.83
1422.00,120.82
1421.00,120.82
1420.00,120.81
1419.00,120.82
1418.00,120.84
1417.00,120.86
1416.00,120.88
1415.00,120.90
1414.00,120.90
1413.00,120.91
1412.00,120.92
1411.00,120.92
1410.00,120.93
1409.00,120.93
1408.00,120.93
1407.00,120.92
1406.00,120.92
1405.00,120.93
1404.00,120.93
1403.00,120.93
1402.00,120.92
1401.00,120.92
1400.00,120.91
1399.00,120.91
1398.00,120.92
1397.00,120.92
1396.00,120.92
1395.00,120.92
1394.00,120.92
1393.00,120.92
1392.00,120.91
1391.00,120.91
1390.00,120.90
1389.00,120.90
1388.00,120.90
1387.00,120.89
1386.00,120.88
1385.00,120.87
1384.00,120.86
1383.00,120.85
1382.00,120.85
1381.00,120.84
1380.00,120.84
1379.00,120.84
1378.00,120.83
1377.00,120.83
1376.00,120.83
1375.00,120.83
1374.00,120.82
1373.00,120.83
1372.00,120.83
1371.00,120.84
1370.00,120.84
1369.00,120.84
1368.00,120.85
1367.00,120.85
1366.00,120.85
1365.00,120.85
1364.00,120.86
1363.00,120.87
1362.00,120.88
1361.00,120.89
1360.00,120.90
1359.00,120.91
1358.00,120.91
1357.00,120.91
1356.00,120.91
1355.00,120.92
1354.00,120.93
1353.00,120.93
1352.00,120.94
1351.00,120.94
1350.00,120.94
1349.00,120.94
1348.00,120.94
1347.00,120.94
1346.00,120.93
1345.00,120.93
1344.00,120.93
1343.00,120.92
1342.00,120.91
1341.00,120.91
1340.00,120.90
1339.00,120.90
1338.00,120.90
1337.00,120.89
1336.00,120.88
1335.00,120.87
1334.00,120.87
1333.00,120.86
1332.00,120.85
1331.00,120.85
1330.00,120.84
1329.00,120.84
1328.00,120.83
1327.00,120.83
1326.00,120.83
1325.00,120.83
1324.00,120.83
1323.00,120.83
1322.00,120.82
1321.00,120.83
1320.00,120.83
1319.00,120.84
1318.00,120.84
1317.00,120.84
1316.00,120.85
1315.00,120.85
1314.00,120.86
1313.00,120.86
1312.00,120.87
1311.00,120.88
1310.00,120.88
1309.00,120.89
1308.00,120.90
1307.00,120.90
1306.00,120.91
1305.00,120.91
1304.00,120.92
1303.00,120.92
1302.00,120.93
1301.00,120.93
1300.00,120.93
1299.00,120.93
1298.00,120.93
1297.00,120.93
1296.00,120.93
1295.00,120.93
1294.00,120.92
1293.00,120.92
1292.00,120.91
1291.00,120.91
1290.00,120.90
1289.00,120.89
1288.00,120.88
1287.00,120.87
1286.00,120.86
1285.00,120.85
1284.00,120.84
1283.00,120.84
1282.00,120.83
1281.00,120.82
1280.00,120.81
1279.00,120.80
1278.00,120.79
1277.00,120.78
1276.00,120.78
1275.00,120.78
1274.00,120.77
1273.00,120.77
1272.00,120.76
1271.00,120.76
1270.00,120.75
1269.00,120.75
1268.00,120.74
1267.00,120.74
1266.00,120.74
1265.00,120.74
1264.00,120.74
1263.00,120.74
1262.00,120.74
1261.00,120.74
1260.00,120.75
1259.00,120.76
1258.00,120.77
1257.00,120.79
1256.00,120.80
1255.00,120.82
1254.00,120.83
1253.00,120.84
1252.00,120.85
1251.00,120.86
1250.00,120.86
1249.00,120.87
1248.00,120.88
1247.00,120.89
1246.00,120.90
1245.00,120.90
1244.00,120.90
1243.00,120.89
1242.00,120.89
1241.00,120.89
1240.00,120.89
1239.00,120.88
1238.00,120.88
1237.00,120.87
1236.00,120.87
1235.00,120.86
1234.00,120.85
1233.00,120.84
1232.00,120.83
1231.00,120.82
1230.00,120.81
1229.00,120.80
1228.00,120.80
1227.00,120.78
1226.00,120.77
1225.00,120.76
1224.00,120.75
1223.00,120.74
1222.00,120.74
1221.00,120.73
1220.00,120.73
1219.00,120.72
1218.00,120.71
1217.00,120.71
1216.00,120.70
1215.00,120.70
1214.00,120.70
1213.00,120.70
1212.00,120.70
1211.00,120.71
1210.00,120.71
1209.00,120.71
1208.00,120.71
1207.00,120.72
1206.00,120.72
1205.00,120.73
1204.00,120.74
1203.00,120.74
1202.00,120.75
1201.00,120.76
1200.00,120.76
1199.00,120.77
1198.00,120.77
1197.00,120.77
1196.00,120.78
1195.00,120.79
1194.00,120.79
1193.00,120.79
1192.00,120.79
1191.00,120.79
1190.00,120.79
1189.00,120.78
1188.00,120.78
1187.00,120.78
1186.00,120.78
1185.00,120.77
1184.00,120.77
1183.00,120.76
1182.00,120.75
1181.00,120.74
1180.00,120.73
1179.00,120.73
1178.00,120.72
1177.00,120.71
1176.00,120.70
1175.00,120.69
1174.00,120.68
1173.00,120.67
1172.00,120.67
1171.00,120.66
1170.00,120.65
1169.00,120.64
1168.00,120.64
1167.00,120.64
1166.00,120.63
1165.00,120.63
1164.00,120.62
1163.00,120.62
1162.00,120.61
1161.00,120.61
1160.00,120.62
1159.00,120.62
1158.00,120.62
1157.00,120.62
1156.00,120.62
1155.00,120.62
1154.00,120.63
1153.00,120.63
1152.00,120.64
1151.00,120.65
1150.00,120.65
1149.00,120.66
1148.00,120.66
1147.00,120.67
1146.00,120.67
1145.00,120.68
1144.00,120.69
1143.00,120.69
1142.00,120.70
1141.00,120.70
1140.00,120.70
1139.00,120.70
1138.00,120.70
1137.00,120.70
1136.00,120.70
1135.00,120.70
1134.00,120.70
1133.00,120.70
1132.00,120.70
1131.00,120.69
1130.00,120.68
1129.00,120.67
1128.00,120.67
1127.00,120.66
1126.00,120.66
1125.00,120.65
1124.00,120.64
1123.00,120.64
1122.00,120.63
1121.00,120.62
1120.00,120.62
1119.00,120.61
1118.00,120.60
1117.00,120.59
1116.00,120.59
1115.00,120.58
1114.00,120.57
1113.00,120.57
1112.00,120.56
1111.00,120.56
1110.00,120.56
1109.00,120.56
1108.00,120.56
1107.00,120.56
1106.00,120.56
1105.00,120.56
1104.00,120.56
1103.00,120.57
1102.00,120.57
1101.00,120.57
1100.00,120.58
1099.00,120.58
1098.00,120.59
1097.00,120.59
1096.00,120.59
1095.00,120.60
1094.00,120.60
1093.00,120.60
1092.00,120.61
1091.00,120.62
1090.00,120.62
1089.00,120.62
1088.00,120.62
1087.00,120.62
1086.00,120.62
1085.00,120.62
1084.00,120.62
1083.00,120.62
1082.00,120.62
1081.00,120.62
1080.00,120.62
1079.00,120.61
1078.00,120.60
1077.00,120.59
1076.00,120.58
1075.00,120.58
1074.00,120.57
1073.00,120.56
1072.00,120.56
1071.00,120.56
1070.00,120.55
1069.00,120.54
1068.00,120.53
1067.00,120.52
1066.00,120.51
1065.00,120.51
1064.00,120.51
1063.00,120.50
1062.00,120.50
1061.00,120.50
1060.00,120.49
1059.00,120.49
1058.00,120.49
1057.00,120.49
1056.00,120.49
1055.00,120.49
1054.00,120.49
1053.00,120.49
1052.00,120.48
1051.00,120.48
1050.00,120.49
1049.00,120.50
1048.00,120.52
1047.00,120.54
1046.00,120.55
1045.00,120.57
1044.00,120.59
1043.00,120.60
1042.00,120.61
1041.00,120.62
1040.00,120.63
1039.00,120.64
1038.00,120.65
1037.00,120.66
1036.00,120.67
1035.00,120.67
1034.00,120.67
1033.00,120.68
1032.00,120.68
1031.00,120.69
1030.00,120.69
1029.00,120.70
1028.00,120.70
1027.00,120.71
1026.00,120.71
1025.00,120.71
1024.00,120.71
1023.00,120.71
1022.00,120.71
1021.00,120.72
1020.00,120.72
1019.00,120.72
1018.00,120.72
1017.00,120.72
1016.00,120.72
1015.00,120.72
1014.00,120.72
1013.00,120.72
1012.00,120.73
1011.00,120.73
1010.00,120.74
1009.00,120.74
1008.00,120.75
1007.00,120.75
1006.00,120.75
1005.00,120.76
1004.00,120.77
1003.00,120.78
1002.00,120.79
1001.00,120.80
1000.00,120.80
999.00,120.81
998.00,120.82
997.00,120.83
996.00,120.84
995.00,120.85
994.00,120.87
993.00,120.88
992.00,120.89
991.00,120.90
990.00,120.91
989.00,120.92
988.00,120.93
987.00,120.94
986.00,120.95
985.00,120.97
984.00,120.98
983.00,120.99
982.00,120.99
981.00,121.00
980.00,121.00
979.00,121.00
978.00,121.01
977.00,121.01
976.00,121.02
975.00,121.02
974.00,121.03
973.00,121.02
972.00,121.02
971.00,121.02
970.00,121.02
969.00,121.02
968.00,121.02
967.00,121.02
966.00,121.01
965.00,121.01
964.00,121.00
963.00,121.00
962.00,120.99
961.00,120.99
960.00,120.99
959.00,120.99
958.00,120.99
957.00,120.99
956.00,120.99
955.00,120.99
954.00,120.99
953.00,120.99
952.00,120.99
951.00,121.00
950.00,121.00
949.00,121.01
948.00,121.02
947.00,121.02
946.00,121.03
945.00,121.03
944.00,121.04
943.00,121.04
942.00,121.05
941.00,121.07
940.00,121.08
939.00,121.09
938.00,121.09
937.00,121.10
936.00,121.11
935.00,121.12
934.00,121.13
933.00,121.14
932.00,121.15
931.00,121.15
930.00,121.16
929.00,121.16
928.00,121.16
927.00,121.16
926.00,121.16
925.00,121.16
924.00,121.16
923.00,121.17
922.00,121.17
921.00,121.17
920.00,121.17
919.00,121.17
918.00,121.16
917.00,121.15
916.00,121.14
915.00,121.14
914.00,121.14
913.00,121.13
912.00,121.13
911.00,121.12
910.00,121.11
909.00,121.10
908.00,121.10
907.00,121.10
906.00,121.09
905.00,121.09
904.00,121.09
903.00,121.08
902.00,121.08
901.00,121.08
900.00,121.08
899.00,121.08
898.00,121.08
897.00,121.08
896.00,121.08
895.00,121.09
894.00,121.09
893.00,121.09
892.00,121.10
891.00,121.10
890.00,121.11
889.00,121.11
888.00,121.12
887.00,121.12
886.00,121.13
885.00,121.13
884.00,121.13
883.00,121.13
882.00,121.14
881.00,121.14
880.00,121.15
879.00,121.15
878.00,121.16
877.00,121.16
876.00,121.16
875.00,121.16
874.00,121.17
873.00,121.17
872.00,121.17
871.00,121.17
870.00,121.17
869.00,121.17
868.00,121.16
867.00,121.16
866.00,121.16
865.00,121.15
864.00,121.15
863.00,121.14
862.00,121.14
861.00,121.13
860.00,121.13
859.00,121.13
858.00,121.12
857.00,121.12
856.00,121.11
855.00,121.11
854.00,121.10
853.00,121.10
852.00,121.10
851.00,121.09
850.00,121.09
849.00,121.08
848.00,121.08
847.00,121.08
846.00,121.08
845.00,121.08
844.00,121.09
843.00,121.09
842.00,121.09
841.00,121.09
840.00,121.09
839.00,121.10
838.00,121.10
837.00,121.10
836.00,121.10
835.00,121.10
834.00,121.10
833.00,121.11
832.00,121.11
831.00,121.11
830.00,121.10
829.00,121.10
828.00,121.10
827.00,121.09
826.00,121.09
825.00,121.10
824.00,121.10
823.00,121.10
822.00,121.11
821.00,121.11
820.00,121.11
819.00,121.11
818.00,121.11
817.00,121.11
816.00,121.11
815.00,121.11
814.00,121.11
813.00,121.11
812.00,121.10
811.00,121.10
810.00,121.09
809.00,121.08
808.00,121.08
807.00,121.07
806.00,121.07
805.00,121.07
804.00,121.07
803.00,121.07
802.00,121.07
801.00,121.06
800.00,121.06
799.00,121.06
798.00,121.06
797.00,121.06
796.00,121.06
795.00,121.06
794.00,121.06
793.00,121.07
792.00,121.07
791.00,121.08
790.00,121.08
789.00,121.09
788.00,121.09
787.00,121.10
786.00,121.10
785.00,121.11
784.00,121.11
783.00,121.12
782.00,121.12
781.00,121.13
780.00,121.13
779.00,121.14
778.00,121.14
777.00,121.15
776.00,121.16
775.00,121.16
774.00,121.17
773.00,121.17
772.00,121.17
771.00,121.17
770.00,121.17
769.00,121.16
768.00,121.16
767.00,121.16
766.00,121.16
765.00,121.16
764.00,121.16
763.00,121.16
762.00,121.16
761.00,121.15
760.00,121.14
759.00,121.14
758.00,121.14
757.00,121.13
756.00,121.12
755.00,121.11
754.00,121.10
753.00,121.10
752.00,121.09
751.00,121.09
750.00,121.08
749.00,121.07
748.00,121.07
747.00,121.06
746.00,121.06
745.00,121.06
744.00,121.06
743.00,121.06
742.00,121.05
741.00,121.05
740.00,121.04
739.00,121.04
738.00,121.05
737.00,121.05
736.00,121.05
735.00,121.05
734.00,121.05
733.00,121.05
732.00,121.06
731.00,121.07
730.00,121.07
729.00,121.07
728.00,121.07
727.00,121.07
726.00,121.08
725.00,121.08
724.00,121.09
723.00,121.10
722.00,121.11
721.00,121.11
720.00,121.11
719.00,121.10
718.00,121.10
717.00,121.10
716.00,121.10
715.00,121.09
714.00,121.09
713.00,121.09
712.00,121.09
711.00,121.09
710.00,121.09
709.00,121.08
708.00,121.07
707.00,121.07
706.00,121.06
705.00,121.05
704.00,121.05
703.00,121.04
702.00,121.04
701.00,121.03
700.00,121.02
699.00,121.02
698.00,121.01
697.00,121.01
696.00,121.01
695.00,121.01
694.00,121.00
693.00,120.99
692.00,120.98
691.00,120.97
690.00,120.95
689.00,120.94
688.00,120.93
687.00,120.93
686.00,120.93
685.00,120.92
684.00,120.93
683.00,120.93
682.00,120.93
681.00,120.94
680.00,120.94
679.00,120.94
678.00,120.93
677.00,120.93
676.00,120.93
675.00,120.92
674.00,120.93
673.00,120.93
672.00,120.95
671.00,120.96
670.00,120.93
669.00,120.87
668.00,120.83
667.00,120.86
666.00,120.90
665.00,120.94
664.00,120.96
663.00,120.96
662.00,120.96
661.00,120.95
660.00,120.95
659.00,120.95
658.00,120.94
657.00,120.93
656.00,120.92
655.00,120.91
654.00,120.89
653.00,120.88
652.00,120.87
651.00,120.85
650.00,120.85
649.00,120.85
648.00,120.84
647.00,120.84
646.00,120.84
645.00,120.84
644.00,120.83
643.00,120.83
642.00,120.82
641.00,120.81
640.00,120.80
639.00,120.79
638.00,120.78
637.00,120.77
636.00,120.76
635.00,120.76
634.00,120.76
633.00,120.76
632.00,120.75
631.00,120.75
630.00,120.74
629.00,120.75
628.00,120.75
627.00,120.75
626.00,120.75
625.00,120.76
624.00,120.75
623.00,120.75
622.00,120.75
621.00,120.75
620.00,120.75
619.00,120.76
618.00,120.77
617.00,120.78
616.00,120.78
615.00,120.78
614.00,120.78
613.00,120.77
612.00,120.76
611.00,120.76
610.00,120.77
609.00,120.78
608.00,120.78
607.00,120.78
606.00,120.77
605.00,120.77
604.00,120.76
603.00,120.76
602.00,120.76
601.00,120.75
600.00,120.74
599.00,120.74
598.00,120.73
597.00,120.73
596.00,120.73
595.00,120.72
594.00,120.72
593.00,120.72
592.00,120.71
591.00,120.71
590.00,120.71
589.00,120.70
588.00,120.70
587.00,120.69
586.00,120.68
585.00,120.68
584.00,120.68
583.00,120.68
582.00,120.68
581.00,120.67
580.00,120.65
579.00,120.64
578.00,120.65
577.00,120.66
576.00,120.68
575.00,120.69
574.00,120.70
573.00,120.70
572.00,120.70
571.00,120.69
570.00,120.69
569.00,120.68
568.00,120.68
567.00,120.68
566.00,120.68
565.00,120.69
564.00,120.70
563.00,120.70
562.00,120.70
561.00,120.70
560.00,120.70
559.00,120.70
558.00,120.71
557.00,120.72
556.00,120.73
555.00,120.74
554.00,120.74
553.00,120.74
552.00,120.74
551.00,120.74
550.00,120.75
549.00,120.75
548.00,120.76
547.00,120.76
546.00,120.76
545.00,120.77
544.00,120.78
543.00,120.80
542.00,120.81
541.00,120.82
540.00,120.82
539.00,120.82
538.00,120.82
537.00,120.82
536.00,120.83
535.00,120.83
534.00,120.84
533.00,120.85
532.00,120.87
531.00,120.90
530.00,120.93
529.00,120.95
528.00,120.97
527.00,120.97
526.00,120.97
525.00,120.97
524.00,120.99
523.00,121.01
522.00,121.03
521.00,121.06
520.00,121.07
519.00,121.09
518.00,121.10
517.00,121.11
516.00,121.12
515.00,121.12
514.00,121.12
513.00,121.12
512.00,121.13
511.00,121.14
510.00,121.15
509.00,121.15
508.00,121.14
507.00,121.14
506.00,121.14
505.00,121.15
504.00,121.17
503.00,121.18
502.00,121.17
501.00,121.17
500.00,121.16
