Created as New Dataset,Sample 348 By Analyst Date Thursday, February 06 2025
cm-1,%T
4000.00,122.56
3999.00,122.56
3998.00,122.55
3997.00,122.55
3996.00,122.55
3995.00,122.54
3994.00,122.54
3993.00,122.53
3992.00,122.53
3991.00,122.52
3990.00,122.52
3989.00,122.51
3988.00,122.51
3987.00,122.50
3986.00,122.49
3985.00,122.49
3984.00,122.48
3983.00,122.48
3982.00,122.47
3981.00,122.46
3980.00,122.45
3979.00,122.44
3978.00,122.44
3977.00,122.43
3976.00,122.42
3975.00,122.42
3974.00,122.41
3973.00,122.40
3972.00,122.40
3971.00,122.39
3970.00,122.39
3969.00,122.39
3968.00,122.39
3967.00,122.38
3966.00,122.38
3965.00,122.38
3964.00,122.38
3963.00,122.38
3962.00,122.38
3961.00,122.38
3960.00,122.38
3959.00,122.39
3958.00,122.39
3957.00,122.39
3956.00,122.40
3955.00,122.40
3954.00,122.40
3953.00,122.40
3952.00,122.40
3951.00,122.40
3950.00,122.40
3949.00,122.40
3948.00,122.40
3947.00,122.40
3946.00,122.40
3945.00,122.40
3944.00,122.40
3943.00,122.40
3942.00,122.40
3941.00,122.41
3940.00,122.41
3939.00,122.41
3938.00,122.41
3937.00,122.40
3936.00,122.40
3935.00,122.39
3934.00,122.38
3933.00,122.37
3932.00,122.36
3931.00,122.35
3930.00,122.34
3929.00,122.34
3928.00,122.33
3927.00,122.33
3926.00,122.32
3925.00,122.31
3924.00,122.30
3923.00,122.30
3922.00,122.29
3921.00,122.28
3920.00,122.27
3919.00,122.26
3918.00,122.26
3917.00,122.26
3916.00,122.25
3915.00,122.26
3914.00,122.26
3913.00,122.26
3912.00,122.26
3911.00,122.26
3910.00,122.26
3909.00,122.25
3908.00,122.24
3907.00,122.23
3906.00,122.22
3905.00,122.21
3904.00,122.19
3903.00,122.19
3902.00,122.19
3901.00,122.19
3900.00,122.20
3899.00,122.20
3898.00,122.22
3897.00,122.23
3896.00,122.25
3895.00,122.25
3894.00,122.26
3893.00,122.27
3892.00,122.27
3891.00,122.26
3890.00,122.26
3889.00,122.27
3888.00,122.27
3887.00,122.27
3886.00,122.25
3885.00,122.23
3884.00,122.24
3883.00,122.24
3882.00,122.24
3881.00,122.23
3880.00,122.22
3879.00,122.22
3878.00,122.23
3877.00,122.24
3876.00,122.23
3875.00,122.21
3874.00,122.19
3873.00,122.19
3872.00,122.20
3871.00,122.19
3870.00,122.17
3869.00,122.15
3868.00,122.15
3867.00,122.17
3866.00,122.16
3865.00,122.15
3864.00,122.14
3863.00,122.16
3862.00,122.17
3861.00,122.16
3860.00,122.15
3859.00,122.14
3858.00,122.14
3857.00,122.15
3856.00,122.17
3855.00,122.19
3854.00,122.18
3853.00,122.17
3852.00,122.18
3851.00,122.21
3850.00,122.21
3849.00,122.19
3848.00,122.18
3847.00,122.19
3846.00,122.20
3845.00,122.20
3844.00,122.20
3843.00,122.19
3842.00,122.18
3841.00,122.18
3840.00,122.18
3839.00,122.17
3838.00,122.17
3837.00,122.17
3836.00,122.17
3835.00,122.17
3834.00,122.17
3833.00,122.17
3832.00,122.17
3831.00,122.16
3830.00,122.16
3829.00,122.16
3828.00,122.16
3827.00,122.14
3826.00,122.13
3825.00,122.12
3824.00,122.12
3823.00,122.11
3822.00,122.09
3821.00,122.06
3820.00,122.04
3819.00,122.06
3818.00,122.07
3817.00,122.06
3816.00,122.04
3815.00,122.04
3814.00,122.06
3813.00,122.07
3812.00,122.05
3811.00,122.04
3810.00,122.04
3809.00,122.05
3808.00,122.05
3807.00,122.03
3806.00,122.01
3805.00,122.01
3804.00,122.02
3803.00,122.02
3802.00,122.01
3801.00,121.99
3800.00,122.00
3799.00,122.02
3798.00,122.03
3797.00,122.02
3796.00,122.01
3795.00,122.03
3794.00,122.05
3793.00,122.06
3792.00,122.06
3791.00,122.06
3790.00,122.07
3789.00,122.07
3788.00,122.08
3787.00,122.08
3786.00,122.08
3785.00,122.08
3784.00,122.07
3783.00,122.07
3782.00,122.07
3781.00,122.07
3780.00,122.07
3779.00,122.06
3778.00,122.07
3777.00,122.08
3776.00,122.08
3775.00,122.07
3774.00,122.06
3773.00,122.06
3772.00,122.07
3771.00,122.06
3770.00,122.05
3769.00,122.04
3768.00,122.04
3767.00,122.03
3766.00,122.03
3765.00,122.02
3764.00,122.01
3763.00,122.02
3762.00,122.02
3761.00,122.01
3760.00,122.00
3759.00,121.99
3758.00,121.99
3757.00,121.98
3756.00,121.96
3755.00,121.95
3754.00,121.95
3753.00,121.95
3752.00,121.94
3751.00,121.94
3750.00,121.92
3749.00,121.90
3748.00,121.89
3747.00,121.90
3746.00,121.91
3745.00,121.90
3744.00,121.88
3743.00,121.89
3742.00,121.92
3741.00,121.91
3740.00,121.88
3739.00,121.86
3738.00,121.85
3737.00,121.84
3736.00,121.82
3735.00,121.81
3734.00,121.82
3733.00,121.83
3732.00,121.83
3731.00,121.83
3730.00,121.84
3729.00,121.84
3728.00,121.84
3727.00,121.83
3726.00,121.82
3725.00,121.82
3724.00,121.82
3723.00,121.81
3722.00,121.81
3721.00,121.81
3720.00,121.81
3719.00,121.82
3718.00,121.81
3717.00,121.81
3716.00,121.81
3715.00,121.81
3714.00,121.81
3713.00,121.81
3712.00,121.80
3711.00,121.80
3710.00,121.81
3709.00,121.82
3708.00,121.82
3707.00,121.83
3706.00,121.84
3705.00,121.86
3704.00,121.88
3703.00,121.90
3702.00,121.91
3701.00,121.93
3700.00,121.95
3699.00,121.97
3698.00,121.99
3697.00,122.01
3696.00,122.03
3695.00,122.05
3694.00,122.07
3693.00,122.08
3692.00,122.10
3691.00,122.12
3690.00,122.14
3689.00,122.16
3688.00,122.18
3687.00,122.20
3686.00,122.23
3685.00,122.25
3684.00,122.26
3683.00,122.27
3682.00,122.28
3681.00,122.29
3680.00,122.28
3679.00,122.28
3678.00,122.29
3677.00,122.29
3676.00,122.28
3675.00,122.25
3674.00,122.25
3673.00,122.27
3672.00,122.27
3671.00,122.26
3670.00,122.25
3669.00,122.26
3668.00,122.28
3667.00,122.29
3666.00,122.29
3665.00,122.28
3664.00,122.28
3663.00,122.28
3662.00,122.27
3661.00,122.26
3660.00,122.24
3659.00,122.24
3658.00,122.23
3657.00,122.21
3656.00,122.19
3655.00,122.16
3654.00,122.14
3653.00,122.12
3652.00,122.10
3651.00,122.08
3650.00,122.06
3649.00,122.05
3648.00,122.04
3647.00,122.04
3646.00,122.05
3645.00,122.06
3644.00,122.07
3643.00,122.08
3642.00,122.09
3641.00,122.10
3640.00,122.11
3639.00,122.12
3638.00,122.11
3637.00,122.11
3636.00,122.11
3635.00,122.10
3634.00,122.09
3633.00,122.08
3632.00,122.07
3631.00,122.08
3630.00,122.08
3629.00,122.07
3628.00,122.07
3627.00,122.10
3626.00,122.12
3625.00,122.12
3624.00,122.12
3623.00,122.12
3622.00,122.14
3621.00,122.14
3620.00,122.13
3619.00,122.13
3618.00,122.12
3617.00,122.12
3616.00,122.12
3615.00,122.11
3614.00,122.10
3613.00,122.10
3612.00,122.10
3611.00,122.10
3610.00,122.10
3609.00,122.09
3608.00,122.09
3607.00,122.10
3606.00,122.10
3605.00,122.11
3604.00,122.11
3603.00,122.11
3602.00,122.11
3601.00,122.12
3600.00,122.12
3599.00,122.12
3598.00,122.11
3597.00,122.11
3596.00,122.11
3595.00,122.11
3594.00,122.11
3593.00,122.12
3592.00,122.12
3591.00,122.12
3590.00,122.12
3589.00,122.11
3588.00,122.11
3587.00,122.12
3586.00,122.13
3585.00,122.15
3584.00,122.17
3583.00,122.18
3582.00,122.20
3581.00,122.22
3580.00,122.23
3579.00,122.25
3578.00,122.26
3577.00,122.26
3576.00,122.27
3575.00,122.28
3574.00,122.28
3573.00,122.29
3572.00,122.28
3571.00,122.28
3570.00,122.27
3569.00,122.26
3568.00,122.25
3567.00,122.25
3566.00,122.25
3565.00,122.26
3564.00,122.27
3563.00,122.28
3562.00,122.30
3561.00,122.31
3560.00,122.32
3559.00,122.33
3558.00,122.33
3557.00,122.33
3556.00,122.33
3555.00,122.33
3554.00,122.33
3553.00,122.32
3552.00,122.32
3551.00,122.31
3550.00,122.30
3549.00,122.30
3548.00,122.29
3547.00,122.28
3546.00,122.27
3545.00,122.27
3544.00,122.28
3543.00,122.28
3542.00,122.28
3541.00,122.29
3540.00,122.29
3539.00,122.30
3538.00,122.30
3537.00,122.30
3536.00,122.30
3535.00,122.30
3534.00,122.31
3533.00,122.31
3532.00,122.32
3531.00,122.32
3530.00,122.32
3529.00,122.32
3528.00,122.32
3527.00,122.32
3526.00,122.32
3525.00,122.32
3524.00,122.32
3523.00,122.33
3522.00,122.33
3521.00,122.34
3520.00,122.35
3519.00,122.35
3518.00,122.35
3517.00,122.35
3516.00,122.35
3515.00,122.35
3514.00,122.34
3513.00,122.34
3512.00,122.33
3511.00,122.33
3510.00,122.32
3509.00,122.32
3508.00,122.31
3507.00,122.31
3506.00,122.30
3505.00,122.29
3504.00,122.28
3503.00,122.28
3502.00,122.28
3501.00,122.27
3500.00,122.27
3499.00,122.27
3498.00,122.27
3497.00,122.27
3496.00,122.27
3495.00,122.27
3494.00,122.27
3493.00,122.28
3492.00,122.28
3491.00,122.28
3490.00,122.28
3489.00,122.29
3488.00,122.29
3487.00,122.29
3486.00,122.30
3485.00,122.30
3484.00,122.31
3483.00,122.31
3482.00,122.32
3481.00,122.33
3480.00,122.34
3479.00,122.35
3478.00,122.36
3477.00,122.37
3476.00,122.38
3475.00,122.39
3474.00,122.40
3473.00,122.41
3472.00,122.42
3471.00,122.42
3470.00,122.43
3469.00,122.44
3468.00,122.45
3467.00,122.45
3466.00,122.46
3465.00,122.46
3464.00,122.47
3463.00,122.47
3462.00,122.47
3461.00,122.48
3460.00,122.48
3459.00,122.49
3458.00,122.49
3457.00,122.49
3456.00,122.49
3455.00,122.49
3454.00,122.49
3453.00,122.49
3452.00,122.49
3451.00,122.49
3450.00,122.49
3449.00,122.48
3448.00,122.48
3447.00,122.48
3446.00,122.48
3445.00,122.48
3444.00,122.49
3443.00,122.49
3442.00,122.50
3441.00,122.50
3440.00,122.50
3439.00,122.50
3438.00,122.51
3437.00,122.51
3436.00,122.52
3435.00,122.52
3434.00,122.53
3433.00,122.53
3432.00,122.54
3431.00,122.54
3430.00,122.54
3429.00,122.55
3428.00,122.55
3427.00,122.55
3426.00,122.56
3425.00,122.56
3424.00,122.56
3423.00,122.56
3422.00,122.56
3421.00,122.56
3420.00,122.56
3419.00,122.56
3418.00,122.55
3417.00,122.55
3416.00,122.55
3415.00,122.54
3414.00,122.53
3413.00,122.53
3412.00,122.52
3411.00,122.51
3410.00,122.50
3409.00,122.48
3408.00,122.47
3407.00,122.46
3406.00,122.44
3405.00,122.43
3404.00,122.41
3403.00,122.40
3402.00,122.38
3401.00,122.37
3400.00,122.36
3399.00,122.34
3398.00,122.33
3397.00,122.32
3396.00,122.30
3395.00,122.29
3394.00,122.28
3393.00,122.27
3392.00,122.26
3391.00,122.25
3390.00,122.24
3389.00,122.23
3388.00,122.22
3387.00,122.22
3386.00,122.21
3385.00,122.21
3384.00,122.20
3383.00,122.20
3382.00,122.20
3381.00,122.19
3380.00,122.20
3379.00,122.20
3378.00,122.20
3377.00,122.20
3376.00,122.20
3375.00,122.20
3374.00,122.20
3373.00,122.20
3372.00,122.20
3371.00,122.20
3370.00,122.20
3369.00,122.20
3368.00,122.20
3367.00,122.20
3366.00,122.20
3365.00,122.20
3364.00,122.20
3363.00,122.20
3362.00,122.20
3361.00,122.20
3360.00,122.20
3359.00,122.19
3358.00,122.19
3357.00,122.19
3356.00,122.19
3355.00,122.19
3354.00,122.18
3353.00,122.18
3352.00,122.18
3351.00,122.18
3350.00,122.17
3349.00,122.17
3348.00,122.17
3347.00,122.17
3346.00,122.17
3345.00,122.16
3344.00,122.16
3343.00,122.16
3342.00,122.15
3341.00,122.15
3340.00,122.15
3339.00,122.15
3338.00,122.15
3337.00,122.15
3336.00,122.16
3335.00,122.16
3334.00,122.16
3333.00,122.17
3332.00,122.17
3331.00,122.17
3330.00,122.18
3329.00,122.19
3328.00,122.20
3327.00,122.20
3326.00,122.21
3325.00,122.21
3324.00,122.22
3323.00,122.23
3322.00,122.24
3321.00,122.25
3320.00,122.26
3319.00,122.27
3318.00,122.28
3317.00,122.29
3316.00,122.31
3315.00,122.32
3314.00,122.33
3313.00,122.34
3312.00,122.36
3311.00,122.37
3310.00,122.39
3309.00,122.40
3308.00,122.42
3307.00,122.44
3306.00,122.45
3305.00,122.47
3304.00,122.48
3303.00,122.49
3302.00,122.49
3301.00,122.49
3300.00,122.48
3299.00,122.46
3298.00,122.45
3297.00,122.43
3296.00,122.41
3295.00,122.38
3294.00,122.36
3293.00,122.34
3292.00,122.32
3291.00,122.30
3290.00,122.28
3289.00,122.26
3288.00,122.25
3287.00,122.23
3286.00,122.21
3285.00,122.20
3284.00,122.19
3283.00,122.17
3282.00,122.16
3281.00,122.15
3280.00,122.14
3279.00,122.13
3278.00,122.12
3277.00,122.12
3276.00,122.11
3275.00,122.10
3274.00,122.10
3273.00,122.09
3272.00,122.09
3271.00,122.09
3270.00,122.09
3269.00,122.08
3268.00,122.09
3267.00,122.09
3266.00,122.09
3265.00,122.09
3264.00,122.09
3263.00,122.09
3262.00,122.09
3261.00,122.10
3260.00,122.10
3259.00,122.10
3258.00,122.10
3257.00,122.11
3256.00,122.11
3255.00,122.11
3254.00,122.11
3253.00,122.11
3252.00,122.11
3251.00,122.11
3250.00,122.11
3249.00,122.11
3248.00,122.11
3247.00,122.11
3246.00,122.11
3245.00,122.11
3244.00,122.11
3243.00,122.11
3242.00,122.10
3241.00,122.10
3240.00,122.10
3239.00,122.10
3238.00,122.10
3237.00,122.10
3236.00,122.09
3235.00,122.09
3234.00,122.09
3233.00,122.09
3232.00,122.09
3231.00,122.10
3230.00,122.10
3229.00,122.10
3228.00,122.10
3227.00,122.11
3226.00,122.11
3225.00,122.12
3224.00,122.12
3223.00,122.13
3222.00,122.13
3221.00,122.14
3220.00,122.15
3219.00,122.16
3218.00,122.16
3217.00,122.17
3216.00,122.18
3215.00,122.19
3214.00,122.20
3213.00,122.21
3212.00,122.22
3211.00,122.23
3210.00,122.24
3209.00,122.25
3208.00,122.25
3207.00,122.26
3206.00,122.27
3205.00,122.28
3204.00,122.28
3203.00,122.29
3202.00,122.29
3201.00,122.30
3200.00,122.30
3199.00,122.30
3198.00,122.30
3197.00,122.30
3196.00,122.30
3195.00,122.30
3194.00,122.29
3193.00,122.29
3192.00,122.29
3191.00,122.28
3190.00,122.27
3189.00,122.27
3188.00,122.27
3187.00,122.26
3186.00,122.26
3185.00,122.26
3184.00,122.25
3183.00,122.25
3182.00,122.25
3181.00,122.25
3180.00,122.24
3179.00,122.24
3178.00,122.23
3177.00,122.23
3176.00,122.22
3175.00,122.22
3174.00,122.22
3173.00,122.21
3172.00,122.21
3171.00,122.21
3170.00,122.21
3169.00,122.21
3168.00,122.21
3167.00,122.22
3166.00,122.22
3165.00,122.23
3164.00,122.23
3163.00,122.24
3162.00,122.24
3161.00,122.25
3160.00,122.26
3159.00,122.27
3158.00,122.27
3157.00,122.28
3156.00,122.28
3155.00,122.28
3154.00,122.29
3153.00,122.29
3152.00,122.29
3151.00,122.29
3150.00,122.29
3149.00,122.29
3148.00,122.29
3147.00,122.29
3146.00,122.29
3145.00,122.29
3144.00,122.29
3143.00,122.29
3142.00,122.29
3141.00,122.28
3140.00,122.28
3139.00,122.28
3138.00,122.27
3137.00,122.27
3136.00,122.27
3135.00,122.27
3134.00,122.27
3133.00,122.26
3132.00,122.26
3131.00,122.26
3130.00,122.26
3129.00,122.25
3128.00,122.25
3127.00,122.25
3126.00,122.26
3125.00,122.26
3124.00,122.26
3123.00,122.26
3122.00,122.27
3121.00,122.27
3120.00,122.27
3119.00,122.28
3118.00,122.29
3117.00,122.30
3116.00,122.31
3115.00,122.32
3114.00,122.33
3113.00,122.34
3112.00,122.35
3111.00,122.36
3110.00,122.37
3109.00,122.38
3108.00,122.40
3107.00,122.41
3106.00,122.42
3105.00,122.43
3104.00,122.44
3103.00,122.44
3102.00,122.45
3101.00,122.45
3100.00,122.45
3099.00,122.46
3098.00,122.46
3097.00,122.46
3096.00,122.46
3095.00,122.46
3094.00,122.47
3093.00,122.47
3092.00,122.47
3091.00,122.47
3090.00,122.48
3089.00,122.48
3088.00,122.48
3087.00,122.48
3086.00,122.48
3085.00,122.48
3084.00,122.48
3083.00,122.48
3082.00,122.48
3081.00,122.49
3080.00,122.49
3079.00,122.49
3078.00,122.49
3077.00,122.49
3076.00,122.49
3075.00,122.49
3074.00,122.49
3073.00,122.49
3072.00,122.49
3071.00,122.48
3070.00,122.48
3069.00,122.48
3068.00,122.48
3067.00,122.48
3066.00,122.48
3065.00,122.48
3064.00,122.49
3063.00,122.49
3062.00,122.49
3061.00,122.50
3060.00,122.50
3059.00,122.50
3058.00,122.51
3057.00,122.51
3056.00,122.51
3055.00,122.52
3054.00,122.52
3053.00,122.52
3052.00,122.53
3051.00,122.53
3050.00,122.54
3049.00,122.54
3048.00,122.54
3047.00,122.55
3046.00,122.55
3045.00,122.55
3044.00,122.56
3043.00,122.56
3042.00,122.56
3041.00,122.56
3040.00,122.56
3039.00,122.56
3038.00,122.56
3037.00,122.55
3036.00,122.55
3035.00,122.55
3034.00,122.54
3033.00,122.54
3032.00,122.53
3031.00,122.53
3030.00,122.53
3029.00,122.52
3028.00,122.52
3027.00,122.51
3026.00,122.51
3025.00,122.50
3024.00,122.50
3023.00,122.50
3022.00,122.49
3021.00,122.49
3020.00,122.49
3019.00,122.49
3018.00,122.48
3017.00,122.48
3016.00,122.48
3015.00,122.48
3014.00,122.48
3013.00,122.48
3012.00,122.48
3011.00,122.48
3010.00,122.49
3009.00,122.49
3008.00,122.49
3007.00,122.49
3006.00,122.50
3005.00,122.50
3004.00,122.50
3003.00,122.50
3002.00,122.50
3001.00,122.50
3000.00,122.51
2999.00,122.51
2998.00,122.51
2997.00,122.51
2996.00,122.51
2995.00,122.51
2994.00,122.51
2993.00,122.51
2992.00,122.51
2991.00,122.51
2990.00,122.51
2989.00,122.51
2988.00,122.51
2987.00,122.51
2986.00,122.51
2985.00,122.51
2984.00,122.50
2983.00,122.50
2982.00,122.50
2981.00,122.49
2980.00,122.49
2979.00,122.48
2978.00,122.48
2977.00,122.48
2976.00,122.47
2975.00,122.47
2974.00,122.46
2973.00,122.46
2972.00,122.45
2971.00,122.45
2970.00,122.44
2969.00,122.44
2968.00,122.44
2967.00,122.44
2966.00,122.43
2965.00,122.43
2964.00,122.43
2963.00,122.43
2962.00,122.43
2961.00,122.44
2960.00,122.44
2959.00,122.44
2958.00,122.44
2957.00,122.45
2956.00,122.45
2955.00,122.46
2954.00,122.46
2953.00,122.46
2952.00,122.47
2951.00,122.47
2950.00,122.48
2949.00,122.48
2948.00,122.48
2947.00,122.49
2946.00,122.49
2945.00,122.49
2944.00,122.50
2943.00,122.50
2942.00,122.50
2941.00,122.51
2940.00,122.51
2939.00,122.51
2938.00,122.52
2937.00,122.52
2936.00,122.52
2935.00,122.52
2934.00,122.52
2933.00,122.52
2932.00,122.51
2931.00,122.51
2930.00,122.51
2929.00,122.51
2928.00,122.51
2927.00,122.51
2926.00,122.50
2925.00,122.50
2924.00,122.50
2923.00,122.50
2922.00,122.49
2921.00,122.49
2920.00,122.49
2919.00,122.48
2918.00,122.48
2917.00,122.47
2916.00,122.46
2915.00,122.46
2914.00,122.45
2913.00,122.44
2912.00,122.44
2911.00,122.43
2910.00,122.42
2909.00,122.42
2908.00,122.41
2907.00,122.41
2906.00,122.41
2905.00,122.41
2904.00,122.41
2903.00,122.42
2902.00,122.42
2901.00,122.42
2900.00,122.42
2899.00,122.43
2898.00,122.43
2897.00,122.44
2896.00,122.44
2895.00,122.45
2894.00,122.45
2893.00,122.46
2892.00,122.46
2891.00,122.47
2890.00,122.47
2889.00,122.48
2888.00,122.48
2887.00,122.48
2886.00,122.48
2885.00,122.48
2884.00,122.48
2883.00,122.48
2882.00,122.48
2881.00,122.48
2880.00,122.47
2879.00,122.47
2878.00,122.47
2877.00,122.47
2876.00,122.46
2875.00,122.46
2874.00,122.45
2873.00,122.45
2872.00,122.44
2871.00,122.44
2870.00,122.43
2869.00,122.43
2868.00,122.42
2867.00,122.41
2866.00,122.41
2865.00,122.40
2864.00,122.40
2863.00,122.40
2862.00,122.40
2861.00,122.40
2860.00,122.40
2859.00,122.40
2858.00,122.40
2857.00,122.41
2856.00,122.41
2855.00,122.41
2854.00,122.42
2853.00,122.43
2852.00,122.43
2851.00,122.44
2850.00,122.44
2849.00,122.45
2848.00,122.45
2847.00,122.45
2846.00,122.45
2845.00,122.46
2844.00,122.46
2843.00,122.46
2842.00,122.46
2841.00,122.47
2840.00,122.47
2839.00,122.47
2838.00,122.47
2837.00,122.48
2836.00,122.48
2835.00,122.48
2834.00,122.48
2833.00,122.48
2832.00,122.48
2831.00,122.48
2830.00,122.48
2829.00,122.47
2828.00,122.47
2827.00,122.47
2826.00,122.46
2825.00,122.46
2824.00,122.45
2823.00,122.44
2822.00,122.44
2821.00,122.43
2820.00,122.42
2819.00,122.41
2818.00,122.41
2817.00,122.40
2816.00,122.39
2815.00,122.38
2814.00,122.38
2813.00,122.37
2812.00,122.36
2811.00,122.36
2810.00,122.35
2809.00,122.35
2808.00,122.35
2807.00,122.35
2806.00,122.34
2805.00,122.34
2804.00,122.34
2803.00,122.34
2802.00,122.34
2801.00,122.35
2800.00,122.35
2799.00,122.35
2798.00,122.35
2797.00,122.36
2796.00,122.36
2795.00,122.37
2794.00,122.37
2793.00,122.37
2792.00,122.38
2791.00,122.38
2790.00,122.39
2789.00,122.39
2788.00,122.39
2787.00,122.39
2786.00,122.39
2785.00,122.40
2784.00,122.40
2783.00,122.40
2782.00,122.40
2781.00,122.40
2780.00,122.40
2779.00,122.40
2778.00,122.40
2777.00,122.39
2776.00,122.39
2775.00,122.39
2774.00,122.38
2773.00,122.38
2772.00,122.38
2771.00,122.37
2770.00,122.37
2769.00,122.36
2768.00,122.36
2767.00,122.35
2766.00,122.34
2765.00,122.34
2764.00,122.33
2763.00,122.32
2762.00,122.32
2761.00,122.31
2760.00,122.31
2759.00,122.30
2758.00,122.30
2757.00,122.30
2756.00,122.30
2755.00,122.29
2754.00,122.29
2753.00,122.29
2752.00,122.30
2751.00,122.30
2750.00,122.30
2749.00,122.30
2748.00,122.30
2747.00,122.30
2746.00,122.31
2745.00,122.31
2744.00,122.32
2743.00,122.32
2742.00,122.33
2741.00,122.33
2740.00,122.34
2739.00,122.34
2738.00,122.35
2737.00,122.36
2736.00,122.36
2735.00,122.36
2734.00,122.36
2733.00,122.37
2732.00,122.37
2731.00,122.37
2730.00,122.36
2729.00,122.36
2728.00,122.36
2727.00,122.35
2726.00,122.34
2725.00,122.34
2724.00,122.33
2723.00,122.32
2722.00,122.31
2721.00,122.31
2720.00,122.30
2719.00,122.29
2718.00,122.28
2717.00,122.27
2716.00,122.26
2715.00,122.25
2714.00,122.25
2713.00,122.24
2712.00,122.23
2711.00,122.22
2710.00,122.21
2709.00,122.20
2708.00,122.20
2707.00,122.19
2706.00,122.19
2705.00,122.18
2704.00,122.17
2703.00,122.17
2702.00,122.17
2701.00,122.17
2700.00,122.16
2699.00,122.16
2698.00,122.16
2697.00,122.16
2696.00,122.16
2695.00,122.16
2694.00,122.16
2693.00,122.17
2692.00,122.17
2691.00,122.18
2690.00,122.18
2689.00,122.19
2688.00,122.19
2687.00,122.20
2686.00,122.21
2685.00,122.21
2684.00,122.22
2683.00,122.22
2682.00,122.23
2681.00,122.24
2680.00,122.24
2679.00,122.25
2678.00,122.26
2677.00,122.26
2676.00,122.27
2675.00,122.27
2674.00,122.27
2673.00,122.27
2672.00,122.27
2671.00,122.26
2670.00,122.26
2669.00,122.26
2668.00,122.25
2667.00,122.25
2666.00,122.24
2665.00,122.23
2664.00,122.22
2663.00,122.21
2662.00,122.20
2661.00,122.19
2660.00,122.17
2659.00,122.16
2658.00,122.15
2657.00,122.14
2656.00,122.13
2655.00,122.12
2654.00,122.11
2653.00,122.10
2652.00,122.10
2651.00,122.09
2650.00,122.08
2649.00,122.08
2648.00,122.07
2647.00,122.07
2646.00,122.07
2645.00,122.06
2644.00,122.06
2643.00,122.06
2642.00,122.06
2641.00,122.06
2640.00,122.06
2639.00,122.07
2638.00,122.07
2637.00,122.07
2636.00,122.07
2635.00,122.08
2634.00,122.08
2633.00,122.09
2632.00,122.09
2631.00,122.10
2630.00,122.10
2629.00,122.11
2628.00,122.11
2627.00,122.12
2626.00,122.12
2625.00,122.13
2624.00,122.13
2623.00,122.14
2622.00,122.14
2621.00,122.14
2620.00,122.15
2619.00,122.15
2618.00,122.15
2617.00,122.15
2616.00,122.15
2615.00,122.15
2614.00,122.15
2613.00,122.15
2612.00,122.15
2611.00,122.14
2610.00,122.14
2609.00,122.13
2608.00,122.13
2607.00,122.12
2606.00,122.12
2605.00,122.11
2604.00,122.11
2603.00,122.10
2602.00,122.10
2601.00,122.09
2600.00,122.08
2599.00,122.08
2598.00,122.08
2597.00,122.07
2596.00,122.07
2595.00,122.07
2594.00,122.07
2593.00,122.07
2592.00,122.07
2591.00,122.07
2590.00,122.07
2589.00,122.08
2588.00,122.08
2587.00,122.08
2586.00,122.09
2585.00,122.09
2584.00,122.09
2583.00,122.10
2582.00,122.10
2581.00,122.11
2580.00,122.11
2579.00,122.12
2578.00,122.12
2577.00,122.13
2576.00,122.13
2575.00,122.13
2574.00,122.14
2573.00,122.14
2572.00,122.14
2571.00,122.14
2570.00,122.14
2569.00,122.14
2568.00,122.13
2567.00,122.13
2566.00,122.13
2565.00,122.12
2564.00,122.12
2563.00,122.11
2562.00,122.11
2561.00,122.10
2560.00,122.10
2559.00,122.09
2558.00,122.08
2557.00,122.07
2556.00,122.06
2555.00,122.05
2554.00,122.04
2553.00,122.03
2552.00,122.02
2551.00,122.01
2550.00,122.00
2549.00,121.99
2548.00,121.98
2547.00,121.97
2546.00,121.96
2545.00,121.95
2544.00,121.95
2543.00,121.94
2542.00,121.93
2541.00,121.93
2540.00,121.92
2539.00,121.92
2538.00,121.92
2537.00,121.92
2536.00,121.92
2535.00,121.93
2534.00,121.93
2533.00,121.93
2532.00,121.94
2531.00,121.94
2530.00,121.95
2529.00,121.95
2528.00,121.95
2527.00,121.96
2526.00,121.96
2525.00,121.96
2524.00,121.97
2523.00,121.97
2522.00,121.97
2521.00,121.97
2520.00,121.97
2519.00,121.97
2518.00,121.97
2517.00,121.96
2516.00,121.96
2515.00,121.96
2514.00,121.95
2513.00,121.94
2512.00,121.94
2511.00,121.93
2510.00,121.92
2509.00,121.91
2508.00,121.90
2507.00,121.89
2506.00,121.88
2505.00,121.87
2504.00,121.86
2503.00,121.85
2502.00,121.84
2501.00,121.83
2500.00,121.81
2499.00,121.80
2498.00,121.79
2497.00,121.78
2496.00,121.78
2495.00,121.77
2494.00,121.76
2493.00,121.75
2492.00,121.75
2491.00,121.75
2490.00,121.74
2489.00,121.74
2488.00,121.74
2487.00,121.74
2486.00,121.74
2485.00,121.74
2484.00,121.74
2483.00,121.74
2482.00,121.73
2481.00,121.73
2480.00,121.73
2479.00,121.74
2478.00,121.74
2477.00,121.74
2476.00,121.74
2475.00,121.74
2474.00,121.75
2473.00,121.75
2472.00,121.75
2471.00,121.75
2470.00,121.76
2469.00,121.76
2468.00,121.76
2467.00,121.77
2466.00,121.77
2465.00,121.77
2464.00,121.77
2463.00,121.77
2462.00,121.77
2461.00,121.76
2460.00,121.76
2459.00,121.76
2458.00,121.75
2457.00,121.75
2456.00,121.75
2455.00,121.74
2454.00,121.74
2453.00,121.73
2452.00,121.73
2451.00,121.72
2450.00,121.72
2449.00,121.72
2448.00,121.71
2447.00,121.71
2446.00,121.71
2445.00,121.71
2444.00,121.71
2443.00,121.71
2442.00,121.71
2441.00,121.71
2440.00,121.72
2439.00,121.72
2438.00,121.72
2437.00,121.73
2436.00,121.73
2435.00,121.74
2434.00,121.75
2433.00,121.75
2432.00,121.76
2431.00,121.77
2430.00,121.78
2429.00,121.79
2428.00,121.80
2427.00,121.82
2426.00,121.83
2425.00,121.84
2424.00,121.86
2423.00,121.87
2422.00,121.88
2421.00,121.89
2420.00,121.90
2419.00,121.92
2418.00,121.92
2417.00,121.93
2416.00,121.94
2415.00,121.95
2414.00,121.95
2413.00,121.96
2412.00,121.96
2411.00,121.96
2410.00,121.96
2409.00,121.96
2408.00,121.96
2407.00,121.95
2406.00,121.95
2405.00,121.94
2404.00,121.93
2403.00,121.93
2402.00,121.92
2401.00,121.91
2400.00,121.90
2399.00,121.89
2398.00,121.88
2397.00,121.87
2396.00,121.86
2395.00,121.85
2394.00,121.84
2393.00,121.83
2392.00,121.83
2391.00,121.82
2390.00,121.81
2389.00,121.80
2388.00,121.80
2387.00,121.79
2386.00,121.79
2385.00,121.78
2384.00,121.77
2383.00,121.77
2382.00,121.77
2381.00,121.76
2380.00,121.76
2379.00,121.76
2378.00,121.76
2377.00,121.77
2376.00,121.77
2375.00,121.77
2374.00,121.77
2373.00,121.76
2372.00,121.76
2371.00,121.76
2370.00,121.75
2369.00,121.75
2368.00,121.74
2367.00,121.73
2366.00,121.72
2365.00,121.72
2364.00,121.73
2363.00,121.73
2362.00,121.72
2361.00,121.71
2360.00,121.70
2359.00,121.70
2358.00,121.70
2357.00,121.71
2356.00,121.72
2355.00,121.72
2354.00,121.72
2353.00,121.72
2352.00,121.72
2351.00,121.71
2350.00,121.70
2349.00,121.69
2348.00,121.69
2347.00,121.69
2346.00,121.68
2345.00,121.67
2344.00,121.66
2343.00,121.66
2342.00,121.66
2341.00,121.66
2340.00,121.66
2339.00,121.67
2338.00,121.68
2337.00,121.68
2336.00,121.67
2335.00,121.66
2334.00,121.66
2333.00,121.67
2332.00,121.67
2331.00,121.67
2330.00,121.67
2329.00,121.67
2328.00,121.68
2327.00,121.67
2326.00,121.66
2325.00,121.65
2324.00,121.65
2323.00,121.65
2322.00,121.66
2321.00,121.66
2320.00,121.65
2319.00,121.64
2318.00,121.63
2317.00,121.63
2316.00,121.64
2315.00,121.64
2314.00,121.65
2313.00,121.65
2312.00,121.66
2311.00,121.66
2310.00,121.67
2309.00,121.68
2308.00,121.69
2307.00,121.70
2306.00,121.70
2305.00,121.70
2304.00,121.70
2303.00,121.70
2302.00,121.70
2301.00,121.70
2300.00,121.70
2299.00,121.70
2298.00,121.70
2297.00,121.69
2296.00,121.69
2295.00,121.69
2294.00,121.68
2293.00,121.68
2292.00,121.67
2291.00,121.67
2290.00,121.66
2289.00,121.66
2288.00,121.65
2287.00,121.65
2286.00,121.65
2285.00,121.64
2284.00,121.64
2283.00,121.63
2282.00,121.62
2281.00,121.62
2280.00,121.61
2279.00,121.60
2278.00,121.60
2277.00,121.60
2276.00,121.60
2275.00,121.60
2274.00,121.60
2273.00,121.60
2272.00,121.60
2271.00,121.60
2270.00,121.61
2269.00,121.61
2268.00,121.62
2267.00,121.62
2266.00,121.63
2265.00,121.64
2264.00,121.64
2263.00,121.65
2262.00,121.65
2261.00,121.66
2260.00,121.66
2259.00,121.67
2258.00,121.68
2257.00,121.68
2256.00,121.69
2255.00,121.69
2254.00,121.69
2253.00,121.70
2252.00,121.70
2251.00,121.70
2250.00,121.70
2249.00,121.70
2248.00,121.70
2247.00,121.70
2246.00,121.69
2245.00,121.69
2244.00,121.68
2243.00,121.67
2242.00,121.66
2241.00,121.65
2240.00,121.64
2239.00,121.63
2238.00,121.62
2237.00,121.61
2236.00,121.60
2235.00,121.59
2234.00,121.57
2233.00,121.56
2232.00,121.55
2231.00,121.54
2230.00,121.53
2229.00,121.52
2228.00,121.51
2227.00,121.50
2226.00,121.49
2225.00,121.48
2224.00,121.48
2223.00,121.47
2222.00,121.47
2221.00,121.47
2220.00,121.47
2219.00,121.47
2218.00,121.47
2217.00,121.47
2216.00,121.48
2215.00,121.48
2214.00,121.49
2213.00,121.49
2212.00,121.50
2211.00,121.50
2210.00,121.51
2209.00,121.51
2208.00,121.52
2207.00,121.52
2206.00,121.52
2205.00,121.52
2204.00,121.52
2203.00,121.52
2202.00,121.52
2201.00,121.52
2200.00,121.51
2199.00,121.51
2198.00,121.50
2197.00,121.50
2196.00,121.49
2195.00,121.49
2194.00,121.48
2193.00,121.47
2192.00,121.46
2191.00,121.45
2190.00,121.43
2189.00,121.42
2188.00,121.41
2187.00,121.40
2186.00,121.39
2185.00,121.38
2184.00,121.37
2183.00,121.36
2182.00,121.35
2181.00,121.34
2180.00,121.33
2179.00,121.33
2178.00,121.32
2177.00,121.32
2176.00,121.31
2175.00,121.31
2174.00,121.31
2173.00,121.31
2172.00,121.31
2171.00,121.32
2170.00,121.32
2169.00,121.33
2168.00,121.33
2167.00,121.34
2166.00,121.35
2165.00,121.36
2164.00,121.37
2163.00,121.38
2162.00,121.39
2161.00,121.40
2160.00,121.41
2159.00,121.42
2158.00,121.43
2157.00,121.44
2156.00,121.45
2155.00,121.45
2154.00,121.46
2153.00,121.46
2152.00,121.47
2151.00,121.47
2150.00,121.48
2149.00,121.48
2148.00,121.48
2147.00,121.48
2146.00,121.48
2145.00,121.47
2144.00,121.47
2143.00,121.46
2142.00,121.46
2141.00,121.45
2140.00,121.44
2139.00,121.43
2138.00,121.42
2137.00,121.41
2136.00,121.40
2135.00,121.39
2134.00,121.38
2133.00,121.37
2132.00,121.36
2131.00,121.35
2130.00,121.34
2129.00,121.33
2128.00,121.33
2127.00,121.32
2126.00,121.31
2125.00,121.31
2124.00,121.30
2123.00,121.30
2122.00,121.30
2121.00,121.30
2120.00,121.29
2119.00,121.29
2118.00,121.29
2117.00,121.30
2116.00,121.30
2115.00,121.30
2114.00,121.30
2113.00,121.31
2112.00,121.31
2111.00,121.31
2110.00,121.32
2109.00,121.32
2108.00,121.33
2107.00,121.33
2106.00,121.33
2105.00,121.34
2104.00,121.34
2103.00,121.35
2102.00,121.35
2101.00,121.36
2100.00,121.36
2099.00,121.37
2098.00,121.37
2097.00,121.38
2096.00,121.38
2095.00,121.38
2094.00,121.39
2093.00,121.39
2092.00,121.39
2091.00,121.40
2090.00,121.40
2089.00,121.40
2088.00,121.40
2087.00,121.40
2086.00,121.40
2085.00,121.40
2084.00,121.40
2083.00,121.40
2082.00,121.39
2081.00,121.39
2080.00,121.38
2079.00,121.38
2078.00,121.37
2077.00,121.36
2076.00,121.36
2075.00,121.35
2074.00,121.34
2073.00,121.34
2072.00,121.34
2071.00,121.33
2070.00,121.33
2069.00,121.32
2068.00,121.31
2067.00,121.30
2066.00,121.30
2065.00,121.29
2064.00,121.29
2063.00,121.29
2062.00,121.29
2061.00,121.29
2060.00,121.29
2059.00,121.29
2058.00,121.29
2057.00,121.29
2056.00,121.29
2055.00,121.30
2054.00,121.30
2053.00,121.31
2052.00,121.32
2051.00,121.32
2050.00,121.33
2049.00,121.33
2048.00,121.34
2047.00,121.35
2046.00,121.36
2045.00,121.37
2044.00,121.37
2043.00,121.38
2042.00,121.39
2041.00,121.40
2040.00,121.41
2039.00,121.42
2038.00,121.42
2037.00,121.43
2036.00,121.43
2035.00,121.43
2034.00,121.44
2033.00,121.44
2032.00,121.43
2031.00,121.43
2030.00,121.42
2029.00,121.42
2028.00,121.41
2027.00,121.40
2026.00,121.39
2025.00,121.38
2024.00,121.37
2023.00,121.36
2022.00,121.34
2021.00,121.33
2020.00,121.32
2019.00,121.31
2018.00,121.30
2017.00,121.29
2016.00,121.28
2015.00,121.27
2014.00,121.27
2013.00,121.27
2012.00,121.26
2011.00,121.26
2010.00,121.27
2009.00,121.27
2008.00,121.28
2007.00,121.28
2006.00,121.29
2005.00,121.31
2004.00,121.32
2003.00,121.33
2002.00,121.34
2001.00,121.36
2000.00,121.37
1999.00,121.39
1998.00,121.41
1997.00,121.43
1996.00,121.44
1995.00,121.46
1994.00,121.48
1993.00,121.50
1992.00,121.52
1991.00,121.54
1990.00,121.56
1989.00,121.57
1988.00,121.59
1987.00,121.61
1986.00,121.62
1985.00,121.64
1984.00,121.65
1983.00,121.66
1982.00,121.67
1981.00,121.67
1980.00,121.68
1979.00,121.68
1978.00,121.68
1977.00,121.68
1976.00,121.67
1975.00,121.66
1974.00,121.65
1973.00,121.64
1972.00,121.63
1971.00,121.61
1970.00,121.59
1969.00,121.58
1968.00,121.56
1967.00,121.55
1966.00,121.54
1965.00,121.53
1964.00,121.53
1963.00,121.53
1962.00,121.53
1961.00,121.54
1960.00,121.55
1959.00,121.56
1958.00,121.58
1957.00,121.60
1956.00,121.62
1955.00,121.64
1954.00,121.67
1953.00,121.70
1952.00,121.72
1951.00,121.74
1950.00,121.76
1949.00,121.77
1948.00,121.79
1947.00,121.80
1946.00,121.80
1945.00,121.81
1944.00,121.81
1943.00,121.81
1942.00,121.81
1941.00,121.80
1940.00,121.79
1939.00,121.78
1938.00,121.76
1937.00,121.75
1936.00,121.73
1935.00,121.71
1934.00,121.69
1933.00,121.67
1932.00,121.65
1931.00,121.64
1930.00,121.62
1929.00,121.61
1928.00,121.60
1927.00,121.59
1926.00,121.58
1925.00,121.57
1924.00,121.56
1923.00,121.56
1922.00,121.55
1921.00,121.55
1920.00,121.55
1919.00,121.55
1918.00,121.54
1917.00,121.53
1916.00,121.52
1915.00,121.52
1914.00,121.51
1913.00,121.50
1912.00,121.49
1911.00,121.48
1910.00,121.47
1909.00,121.46
1908.00,121.45
1907.00,121.45
1906.00,121.45
1905.00,121.44
1904.00,121.44
1903.00,121.44
1902.00,121.44
1901.00,121.44
1900.00,121.44
1899.00,121.45
1898.00,121.46
1897.00,121.47
1896.00,121.48
1895.00,121.49
1894.00,121.50
1893.00,121.50
1892.00,121.51
1891.00,121.53
1890.00,121.54
1889.00,121.56
1888.00,121.57
1887.00,121.58
1886.00,121.60
1885.00,121.61
1884.00,121.62
1883.00,121.63
1882.00,121.65
1881.00,121.66
1880.00,121.67
1879.00,121.68
1878.00,121.69
1877.00,121.69
1876.00,121.70
1875.00,121.70
1874.00,121.70
1873.00,121.70
1872.00,121.69
1871.00,121.69
1870.00,121.68
1869.00,121.67
1868.00,121.67
1867.00,121.66
1866.00,121.66
1865.00,121.65
1864.00,121.64
1863.00,121.63
1862.00,121.63
1861.00,121.62
1860.00,121.62
1859.00,121.62
1858.00,121.63
1857.00,121.64
1856.00,121.65
1855.00,121.66
1854.00,121.68
1853.00,121.70
1852.00,121.71
1851.00,121.73
1850.00,121.75
1849.00,121.76
1848.00,121.78
1847.00,121.80
1846.00,121.82
1845.00,121.85
1844.00,121.86
1843.00,121.86
1842.00,121.87
1841.00,121.87
1840.00,121.88
1839.00,121.89
1838.00,121.90
1837.00,121.90
1836.00,121.91
1835.00,121.91
1834.00,121.91
1833.00,121.91
1832.00,121.91
1831.00,121.91
1830.00,121.91
1829.00,121.91
1828.00,121.91
1827.00,121.92
1826.00,121.92
1825.00,121.93
1824.00,121.94
1823.00,121.95
1822.00,121.95
1821.00,121.96
1820.00,121.97
1819.00,121.97
1818.00,121.97
1817.00,121.98
1816.00,121.98
1815.00,121.98
1814.00,121.98
1813.00,121.98
1812.00,121.98
1811.00,121.98
1810.00,121.99
1809.00,121.99
1808.00,121.99
1807.00,121.99
1806.00,121.99
1805.00,121.99
1804.00,121.99
1803.00,121.99
1802.00,122.00
1801.00,122.01
1800.00,122.02
1799.00,122.03
1798.00,122.04
1797.00,122.04
1796.00,122.05
1795.00,122.06
1794.00,122.07
1793.00,122.08
1792.00,122.10
1791.00,122.12
1790.00,122.13
1789.00,122.15
1788.00,122.16
1787.00,122.17
1786.00,122.18
1785.00,122.19
1784.00,122.20
1783.00,122.21
1782.00,122.22
1781.00,122.23
1780.00,122.24
1779.00,122.25
1778.00,122.25
1777.00,122.25
1776.00,122.25
1775.00,122.26
1774.00,122.26
1773.00,122.26
1772.00,122.26
1771.00,122.25
1770.00,122.25
1769.00,122.25
1768.00,122.26
1767.00,122.26
1766.00,122.25
1765.00,122.25
1764.00,122.24
1763.00,122.22
1762.00,122.21
1761.00,122.20
1760.00,122.19
1759.00,122.19
1758.00,122.19
1757.00,122.19
1756.00,122.18
1755.00,122.16
1754.00,122.15
1753.00,122.15
1752.00,122.14
1751.00,122.12
1750.00,122.12
1749.00,122.12
1748.00,122.13
1747.00,122.13
1746.00,122.13
1745.00,122.13
1744.00,122.14
1743.00,122.15
1742.00,122.17
1741.00,122.18
1740.00,122.19
1739.00,122.18
1738.00,122.18
1737.00,122.19
1736.00,122.20
1735.00,122.21
1734.00,122.20
1733.00,122.20
1732.00,122.20
1731.00,122.21
1730.00,122.23
1729.00,122.25
1728.00,122.26
1727.00,122.27
1726.00,122.27
1725.00,122.27
1724.00,122.28
1723.00,122.28
1722.00,122.28
1721.00,122.28
1720.00,122.28
1719.00,122.28
1718.00,122.28
1717.00,122.28
1716.00,122.27
1715.00,122.27
1714.00,122.27
1713.00,122.27
1712.00,122.27
1711.00,122.26
1710.00,122.26
1709.00,122.25
1708.00,122.24
1707.00,122.22
1706.00,122.20
1705.00,122.19
1704.00,122.18
1703.00,122.19
1702.00,122.21
1701.00,122.21
1700.00,122.19
1699.00,122.15
1698.00,122.12
1697.00,122.11
1696.00,122.12
1695.00,122.14
1694.00,122.15
1693.00,122.16
1692.00,122.16
1691.00,122.16
1690.00,122.16
1689.00,122.15
1688.00,122.16
1687.00,122.16
1686.00,122.17
1685.00,122.18
1684.00,122.19
1683.00,122.19
1682.00,122.20
1681.00,122.20
1680.00,122.21
1679.00,122.22
1678.00,122.23
1677.00,122.24
1676.00,122.25
1675.00,122.25
1674.00,122.24
1673.00,122.23
1672.00,122.24
1671.00,122.25
1670.00,122.25
1669.00,122.25
1668.00,122.25
1667.00,122.24
1666.00,122.24
1665.00,122.24
1664.00,122.24
1663.00,122.23
1662.00,122.22
1661.00,122.22
1660.00,122.22
1659.00,122.21
1658.00,122.20
1657.00,122.18
1656.00,122.18
1655.00,122.17
1654.00,122.17
1653.00,122.16
1652.00,122.15
1651.00,122.12
1650.00,122.10
1649.00,122.10
1648.00,122.10
1647.00,122.10
1646.00,122.11
1645.00,122.11
1644.00,122.12
1643.00,122.12
1642.00,122.13
1641.00,122.14
1640.00,122.14
1639.00,122.14
1638.00,122.16
1637.00,122.17
1636.00,122.18
1635.00,122.18
1634.00,122.17
1633.00,122.17
1632.00,122.17
1631.00,122.17
1630.00,122.17
1629.00,122.17
1628.00,122.17
1627.00,122.18
1626.00,122.19
1625.00,122.21
1624.00,122.22
1623.00,122.22
1622.00,122.22
1621.00,122.22
1620.00,122.22
1619.00,122.22
1618.00,122.22
1617.00,122.22
1616.00,122.22
1615.00,122.23
1614.00,122.23
1613.00,122.24
1612.00,122.24
1611.00,122.24
1610.00,122.24
1609.00,122.24
1608.00,122.25
1607.00,122.25
1606.00,122.25
1605.00,122.25
1604.00,122.25
1603.00,122.24
1602.00,122.23
1601.00,122.23
1600.00,122.22
1599.00,122.21
1598.00,122.20
1597.00,122.19
1596.00,122.18
1595.00,122.17
1594.00,122.16
1593.00,122.15
1592.00,122.15
1591.00,122.15
1590.00,122.15
1589.00,122.15
1588.00,122.15
1587.00,122.15
1586.00,122.15
1585.00,122.16
1584.00,122.16
1583.00,122.17
1582.00,122.17
1581.00,122.18
1580.00,122.19
1579.00,122.21
1578.00,122.23
1577.00,122.24
1576.00,122.24
1575.00,122.23
1574.00,122.23
1573.00,122.23
1572.00,122.24
1571.00,122.25
1570.00,122.25
1569.00,122.25
1568.00,122.25
1567.00,122.26
1566.00,122.26
1565.00,122.26
1564.00,122.25
1563.00,122.24
1562.00,122.22
1561.00,122.20
1560.00,122.18
1559.00,122.17
1558.00,122.19
1557.00,122.20
1556.00,122.21
1555.00,122.21
1554.00,122.21
1553.00,122.21
1552.00,122.20
1551.00,122.19
1550.00,122.19
1549.00,122.19
1548.00,122.19
1547.00,122.19
1546.00,122.18
1545.00,122.18
1544.00,122.19
1543.00,122.20
1542.00,122.21
1541.00,122.21
1540.00,122.22
1539.00,122.22
1538.00,122.20
1537.00,122.18
1536.00,122.16
1535.00,122.16
1534.00,122.15
1533.00,122.13
1532.00,122.12
1531.00,122.12
1530.00,122.12
1529.00,122.12
1528.00,122.12
1527.00,122.13
1526.00,122.13
1525.00,122.13
1524.00,122.12
1523.00,122.11
1522.00,122.10
1521.00,122.11
1520.00,122.12
1519.00,122.14
1518.00,122.16
1517.00,122.17
1516.00,122.17
1515.00,122.18
1514.00,122.18
1513.00,122.19
1512.00,122.19
1511.00,122.19
1510.00,122.19
1509.00,122.20
1508.00,122.22
1507.00,122.25
1506.00,122.27
1505.00,122.27
1504.00,122.25
1503.00,122.24
1502.00,122.23
1501.00,122.23
1500.00,122.22
1499.00,122.20
1498.00,122.19
1497.00,122.18
1496.00,122.17
1495.00,122.17
1494.00,122.16
1493.00,122.15
1492.00,122.14
1491.00,122.13
1490.00,122.12
1489.00,122.12
1488.00,122.13
1487.00,122.15
1486.00,122.16
1485.00,122.17
1484.00,122.17
1483.00,122.17
1482.00,122.17
1481.00,122.17
1480.00,122.17
1479.00,122.17
1478.00,122.17
1477.00,122.16
1476.00,122.17
1475.00,122.18
1474.00,122.19
1473.00,122.21
1472.00,122.22
1471.00,122.23
1470.00,122.24
1469.00,122.25
1468.00,122.26
1467.00,122.27
1466.00,122.27
1465.00,122.28
1464.00,122.28
1463.00,122.29
1462.00,122.29
1461.00,122.28
1460.00,122.28
1459.00,122.28
1458.00,122.28
1457.00,122.28
1456.00,122.29
1455.00,122.29
1454.00,122.29
1453.00,122.29
1452.00,122.29
1451.00,122.29
1450.00,122.28
1449.00,122.27
1448.00,122.27
1447.00,122.27
1446.00,122.26
1445.00,122.26
1444.00,122.25
1443.00,122.24
1442.00,122.24
1441.00,122.23
1440.00,122.22
1439.00,122.20
1438.00,122.19
1437.00,122.18
1436.00,122.17
1435.00,122.16
1434.00,122.16
1433.00,122.16
1432.00,122.16
1431.00,122.15
1430.00,122.15
1429.00,122.15
1428.00,122.15
1427.00,122.15
1426.00,122.16
1425.00,122.16
1424.00,122.16
1423.00,122.16
1422.00,122.16
1421.00,122.16
1420.00,122.15
1419.00,122.15
1418.00,122.18
1417.00,122.20
1416.00,122.22
1415.00,122.23
1414.00,122.25
1413.00,122.25
1412.00,122.26
1411.00,122.26
1410.00,122.26
1409.00,122.27
1408.00,122.27
1407.00,122.26
1406.00,122.26
1405.00,122.27
1404.00,122.27
1403.00,122.27
1402.00,122.26
1401.00,122.25
1400.00,122.24
1399.00,122.24
1398.00,122.24
1397.00,122.25
1396.00,122.25
1395.00,122.25
1394.00,122.26
1393.00,122.26
1392.00,122.26
1391.00,122.25
1390.00,122.25
1389.00,122.24
1388.00,122.23
1387.00,122.23
1386.00,122.23
1385.00,122.23
1384.00,122.23
1383.00,122.22
1382.00,122.21
1381.00,122.20
1380.00,122.20
1379.00,122.20
1378.00,122.19
1377.00,122.19
1376.00,122.18
1375.00,122.17
1374.00,122.17
1373.00,122.18
1372.00,122.19
1371.00,122.19
1370.00,122.19
1369.00,122.20
1368.00,122.20
1367.00,122.21
1366.00,122.21
1365.00,122.20
1364.00,122.20
1363.00,122.21
1362.00,122.23
1361.00,122.24
1360.00,122.25
1359.00,122.26
1358.00,122.26
1357.00,122.26
1356.00,122.27
1355.00,122.27
1354.00,122.28
1353.00,122.29
1352.00,122.29
1351.00,122.29
1350.00,122.29
1349.00,122.29
1348.00,122.29
1347.00,122.29
1346.00,122.29
1345.00,122.29
1344.00,122.28
1343.00,122.27
1342.00,122.26
1341.00,122.25
1340.00,122.25
1339.00,122.25
1338.00,122.25
1337.00,122.24
1336.00,122.24
1335.00,122.24
1334.00,122.23
1333.00,122.23
1332.00,122.22
1331.00,122.21
1330.00,122.21
1329.00,122.20
1328.00,122.20
1327.00,122.20
1326.00,122.20
1325.00,122.20
1324.00,122.19
1323.00,122.19
1322.00,122.19
1321.00,122.19
1320.00,122.19
1319.00,122.19
1318.00,122.20
1317.00,122.20
1316.00,122.21
1315.00,122.21
1314.00,122.22
1313.00,122.22
1312.00,122.23
1311.00,122.24
1310.00,122.24
1309.00,122.25
1308.00,122.26
1307.00,122.26
1306.00,122.27
1305.00,122.27
1304.00,122.28
1303.00,122.28
1302.00,122.29
1301.00,122.29
1300.00,122.29
1299.00,122.29
1298.00,122.29
1297.00,122.29
1296.00,122.29
1295.00,122.29
1294.00,122.28
1293.00,122.28
1292.00,122.28
1291.00,122.27
1290.00,122.26
1289.00,122.26
1288.00,122.25
1287.00,122.24
1286.00,122.23
1285.00,122.22
1284.00,122.21
1283.00,122.21
1282.00,122.20
1281.00,122.19
1280.00,122.18
1279.00,122.17
1278.00,122.16
1277.00,122.16
1276.00,122.15
1275.00,122.15
1274.00,122.14
1273.00,122.14
1272.00,122.13
1271.00,122.13
1270.00,122.13
1269.00,122.12
1268.00,122.12
1267.00,122.12
1266.00,122.12
1265.00,122.12
1264.00,122.12
1263.00,122.12
1262.00,122.12
1261.00,122.12
1260.00,122.13
1259.00,122.14
1258.00,122.16
1257.00,122.17
1256.00,122.19
1255.00,122.20
1254.00,122.21
1253.00,122.22
1252.00,122.23
1251.00,122.24
1250.00,122.24
1249.00,122.25
1248.00,122.26
1247.00,122.27
1246.00,122.27
1245.00,122.28
1244.00,122.27
1243.00,122.27
1242.00,122.27
1241.00,122.27
1240.00,122.26
1239.00,122.26
1238.00,122.26
1237.00,122.25
1236.00,122.24
1235.00,122.23
1234.00,122.22
1233.00,122.21
1232.00,122.20
1231.00,122.20
1230.00,122.19
1229.00,122.18
1228.00,122.17
1227.00,122.16
1226.00,122.15
1225.00,122.14
1224.00,122.13
1223.00,122.12
1222.00,122.12
1221.00,122.12
1220.00,122.11
1219.00,122.10
1218.00,122.10
1217.00,122.09
1216.00,122.09
1215.00,122.08
1214.00,122.09
1213.00,122.09
1212.00,122.09
1211.00,122.09
1210.00,122.09
1209.00,122.09
1208.00,122.10
1207.00,122.10
1206.00,122.10
1205.00,122.11
1204.00,122.12
1203.00,122.12
1202.00,122.13
1201.00,122.14
1200.00,122.14
1199.00,122.15
1198.00,122.15
1197.00,122.15
1196.00,122.16
1195.00,122.17
1194.00,122.17
1193.00,122.18
1192.00,122.18
1191.00,122.18
1190.00,122.18
1189.00,122.17
1188.00,122.17
1187.00,122.17
1186.00,122.17
1185.00,122.16
1184.00,122.16
1183.00,122.15
1182.00,122.15
1181.00,122.14
1180.00,122.13
1179.00,122.12
1178.00,122.11
1177.00,122.11
1176.00,122.10
1175.00,122.09
1174.00,122.08
1173.00,122.07
1172.00,122.07
1171.00,122.06
1170.00,122.05
1169.00,122.05
1168.00,122.04
1167.00,122.04
1166.00,122.03
1165.00,122.02
1164.00,122.02
1163.00,122.01
1162.00,122.01
1161.00,122.01
1160.00,122.02
1159.00,122.02
1158.00,122.02
1157.00,122.02
1156.00,122.02
1155.00,122.02
1154.00,122.03
1153.00,122.03
1152.00,122.04
1151.00,122.04
1150.00,122.05
1149.00,122.05
1148.00,122.06
1147.00,122.06
1146.00,122.07
1145.00,122.07
1144.00,122.08
1143.00,122.09
1142.00,122.09
1141.00,122.10
1140.00,122.10
1139.00,122.10
1138.00,122.10
1137.00,122.10
1136.00,122.10
1135.00,122.10
1134.00,122.11
1133.00,122.11
1132.00,122.10
1131.00,122.10
1130.00,122.09
1129.00,122.08
1128.00,122.07
1127.00,122.07
1126.00,122.06
1125.00,122.06
1124.00,122.05
1123.00,122.05
1122.00,122.04
1121.00,122.03
1120.00,122.02
1119.00,122.01
1118.00,122.01
1117.00,122.00
1116.00,122.00
1115.00,121.99
1114.00,121.99
1113.00,121.98
1112.00,121.98
1111.00,121.97
1110.00,121.97
1109.00,121.97
1108.00,121.97
1107.00,121.97
1106.00,121.97
1105.00,121.97
1104.00,121.98
1103.00,121.98
1102.00,121.98
1101.00,121.99
1100.00,121.99
1099.00,122.00
1098.00,122.00
1097.00,122.00
1096.00,122.00
1095.00,122.01
1094.00,122.01
1093.00,122.02
1092.00,122.03
1091.00,122.03
1090.00,122.03
1089.00,122.03
1088.00,122.03
1087.00,122.03
1086.00,122.03
1085.00,122.03
1084.00,122.03
1083.00,122.03
1082.00,122.03
1081.00,122.02
1080.00,122.02
1079.00,122.02
1078.00,122.01
1077.00,122.01
1076.00,122.00
1075.00,121.99
1074.00,121.98
1073.00,121.98
1072.00,121.97
1071.00,121.97
1070.00,121.96
1069.00,121.95
1068.00,121.94
1067.00,121.93
1066.00,121.93
1065.00,121.93
1064.00,121.93
1063.00,121.92
1062.00,121.91
1061.00,121.90
1060.00,121.90
1059.00,121.90
1058.00,121.90
1057.00,121.90
1056.00,121.90
1055.00,121.90
1054.00,121.90
1053.00,121.90
1052.00,121.90
1051.00,121.89
1050.00,121.90
1049.00,121.91
1048.00,121.92
1047.00,121.94
1046.00,121.96
1045.00,121.97
1044.00,121.99
1043.00,122.00
1042.00,122.01
1041.00,122.01
1040.00,122.02
1039.00,122.03
1038.00,122.04
1037.00,122.05
1036.00,122.06
1035.00,122.07
1034.00,122.07
1033.00,122.07
1032.00,122.07
1031.00,122.08
1030.00,122.08
1029.00,122.09
1028.00,122.09
1027.00,122.09
1026.00,122.09
1025.00,122.09
1024.00,122.09
1023.00,122.10
1022.00,122.10
1021.00,122.11
1020.00,122.11
1019.00,122.11
1018.00,122.11
1017.00,122.11
1016.00,122.11
1015.00,122.11
1014.00,122.11
1013.00,122.12
1012.00,122.12
1011.00,122.12
1010.00,122.13
1009.00,122.13
1008.00,122.13
1007.00,122.14
1006.00,122.14
1005.00,122.14
1004.00,122.15
1003.00,122.16
1002.00,122.17
1001.00,122.19
1000.00,122.19
999.00,122.20
998.00,122.21
997.00,122.21
996.00,122.22
995.00,122.23
994.00,122.25
993.00,122.26
992.00,122.27
991.00,122.28
990.00,122.29
989.00,122.30
988.00,122.31
987.00,122.33
986.00,122.34
985.00,122.35
984.00,122.36
983.00,122.37
982.00,122.37
981.00,122.38
980.00,122.38
979.00,122.38
978.00,122.39
977.00,122.39
976.00,122.40
975.00,122.41
974.00,122.41
973.00,122.41
972.00,122.40
971.00,122.40
970.00,122.40
969.00,122.40
968.00,122.40
967.00,122.40
966.00,122.40
965.00,122.40
964.00,122.40
963.00,122.39
962.00,122.39
961.00,122.38
960.00,122.38
959.00,122.38
958.00,122.38
957.00,122.39
956.00,122.39
955.00,122.39
954.00,122.39
953.00,122.39
952.00,122.39
951.00,122.39
950.00,122.39
949.00,122.40
948.00,122.41
947.00,122.42
946.00,122.42
945.00,122.43
944.00,122.43
943.00,122.44
942.00,122.45
941.00,122.46
940.00,122.47
939.00,122.48
938.00,122.48
937.00,122.49
936.00,122.49
935.00,122.50
934.00,122.51
933.00,122.52
932.00,122.53
931.00,122.54
930.00,122.54
929.00,122.55
928.00,122.55
927.00,122.56
926.00,122.56
925.00,122.56
924.00,122.56
923.00,122.56
922.00,122.56
921.00,122.56
920.00,122.56
919.00,122.55
918.00,122.55
917.00,122.54
916.00,122.53
915.00,122.53
914.00,122.53
913.00,122.53
912.00,122.53
911.00,122.52
910.00,122.51
909.00,122.50
908.00,122.50
907.00,122.49
906.00,122.49
905.00,122.49
904.00,122.49
903.00,122.48
902.00,122.48
901.00,122.48
900.00,122.48
899.00,122.48
898.00,122.48
897.00,122.49
896.00,122.49
895.00,122.49
894.00,122.49
893.00,122.50
892.00,122.50
891.00,122.50
890.00,122.50
889.00,122.51
888.00,122.52
887.00,122.53
886.00,122.53
885.00,122.53
884.00,122.53
883.00,122.53
882.00,122.54
881.00,122.54
880.00,122.55
879.00,122.55
878.00,122.55
877.00,122.56
876.00,122.56
875.00,122.55
874.00,122.56
873.00,122.56
872.00,122.56
871.00,122.56
870.00,122.56
869.00,122.56
868.00,122.56
867.00,122.56
866.00,122.56
865.00,122.55
864.00,122.55
863.00,122.54
862.00,122.54
861.00,122.53
860.00,122.53
859.00,122.52
858.00,122.52
857.00,122.51
856.00,122.50
855.00,122.50
854.00,122.50
853.00,122.50
852.00,122.50
851.00,122.50
850.00,122.49
849.00,122.49
848.00,122.49
847.00,122.48
846.00,122.48
845.00,122.48
844.00,122.49
843.00,122.49
842.00,122.49
841.00,122.49
840.00,122.49
839.00,122.49
838.00,122.50
837.00,122.50
836.00,122.50
835.00,122.51
834.00,122.51
833.00,122.51
832.00,122.51
831.00,122.51
830.00,122.51
829.00,122.50
828.00,122.50
827.00,122.50
826.00,122.50
825.00,122.50
824.00,122.50
823.00,122.50
822.00,122.50
821.00,122.51
820.00,122.51
819.00,122.51
818.00,122.51
817.00,122.51
816.00,122.51
815.00,122.50
814.00,122.50
813.00,122.50
812.00,122.50
811.00,122.50
810.00,122.49
809.00,122.49
808.00,122.48
807.00,122.48
806.00,122.48
805.00,122.48
804.00,122.48
803.00,122.47
802.00,122.47
801.00,122.46
800.00,122.45
799.00,122.45
798.00,122.45
797.00,122.46
796.00,122.46
795.00,122.46
794.00,122.46
793.00,122.47
792.00,122.47
791.00,122.48
790.00,122.48
789.00,122.49
788.00,122.49
787.00,122.49
786.00,122.49
785.00,122.50
784.00,122.51
783.00,122.51
782.00,122.52
781.00,122.52
780.00,122.53
779.00,122.53
778.00,122.54
777.00,122.55
776.00,122.55
775.00,122.55
774.00,122.56
773.00,122.56
772.00,122.56
771.00,122.56
770.00,122.56
769.00,122.56
768.00,122.55
767.00,122.55
766.00,122.55
765.00,122.55
764.00,122.55
763.00,122.55
762.00,122.54
761.00,122.53
760.00,122.53
759.00,122.52
758.00,122.52
757.00,122.51
756.00,122.51
755.00,122.50
754.00,122.50
753.00,122.49
752.00,122.48
751.00,122.48
750.00,122.47
749.00,122.46
748.00,122.46
747.00,122.45
746.00,122.45
745.00,122.45
744.00,122.45
743.00,122.45
742.00,122.45
741.00,122.45
740.00,122.44
739.00,122.44
738.00,122.44
737.00,122.44
736.00,122.44
735.00,122.44
734.00,122.44
733.00,122.44
732.00,122.45
731.00,122.45
730.00,122.46
729.00,122.46
728.00,122.47
727.00,122.47
726.00,122.47
725.00,122.47
724.00,122.48
723.00,122.48
722.00,122.49
721.00,122.49
720.00,122.49
719.00,122.49
718.00,122.49
717.00,122.49
716.00,122.49
715.00,122.48
714.00,122.48
713.00,122.48
712.00,122.48
711.00,122.48
710.00,122.47
709.00,122.47
708.00,122.46
707.00,122.45
706.00,122.44
705.00,122.44
704.00,122.44
703.00,122.43
702.00,122.43
701.00,122.42
700.00,122.41
699.00,122.40
698.00,122.39
697.00,122.39
696.00,122.39
695.00,122.38
694.00,122.38
693.00,122.37
692.00,122.36
691.00,122.35
690.00,122.34
689.00,122.33
688.00,122.33
687.00,122.32
686.00,122.32
685.00,122.32
684.00,122.32
683.00,122.32
682.00,122.32
681.00,122.32
680.00,122.33
679.00,122.33
678.00,122.33
677.00,122.34
676.00,122.34
675.00,122.33
674.00,122.33
673.00,122.33
672.00,122.33
671.00,122.34
670.00,122.34
669.00,122.32
668.00,122.30
667.00,122.29
666.00,122.31
665.00,122.33
664.00,122.34
663.00,122.34
662.00,122.34
661.00,122.33
660.00,122.32
659.00,122.32
658.00,122.31
657.00,122.30
656.00,122.29
655.00,122.27
654.00,122.27
653.00,122.26
652.00,122.26
651.00,122.25
650.00,122.25
649.00,122.24
648.00,122.24
647.00,122.23
646.00,122.22
645.00,122.22
644.00,122.22
643.00,122.22
642.00,122.21
641.00,122.21
640.00,122.19
639.00,122.18
638.00,122.18
637.00,122.18
636.00,122.17
635.00,122.17
634.00,122.17
633.00,122.17
632.00,122.16
631.00,122.16
630.00,122.16
629.00,122.17
628.00,122.17
627.00,122.17
626.00,122.16
625.00,122.16
624.00,122.16
623.00,122.16
622.00,122.16
621.00,122.16
620.00,122.15
619.00,122.15
618.00,122.15
617.00,122.16
616.00,122.17
615.00,122.17
614.00,122.18
613.00,122.17
612.00,122.17
611.00,122.17
610.00,122.17
609.00,122.18
608.00,122.18
607.00,122.18
606.00,122.17
605.00,122.17
604.00,122.17
603.00,122.17
602.00,122.17
601.00,122.16
600.00,122.16
599.00,122.15
598.00,122.15
597.00,122.15
596.00,122.14
595.00,122.14
594.00,122.13
593.00,122.12
592.00,122.11
591.00,122.10
590.00,122.10
589.00,122.09
588.00,122.09
587.00,122.08
586.00,122.08
585.00,122.09
584.00,122.09
583.00,122.09
582.00,122.09
581.00,122.09
580.00,122.07
579.00,122.07
578.00,122.07
577.00,122.07
576.00,122.08
575.00,122.08
574.00,122.09
573.00,122.09
572.00,122.09
571.00,122.09
570.00,122.09
569.00,122.09
568.00,122.09
567.00,122.09
566.00,122.09
565.00,122.10
564.00,122.09
563.00,122.09
562.00,122.09
561.00,122.10
560.00,122.09
559.00,122.10
558.00,122.11
557.00,122.12
556.00,122.12
555.00,122.12
554.00,122.12
553.00,122.12
552.00,122.12
551.00,122.12
550.00,122.13
549.00,122.14
548.00,122.15
547.00,122.16
546.00,122.17
545.00,122.17
544.00,122.18
543.00,122.18
542.00,122.19
541.00,122.19
540.00,122.20
539.00,122.20
538.00,122.22
537.00,122.23
536.00,122.24
535.00,122.24
534.00,122.25
533.00,122.26
532.00,122.27
531.00,122.28
530.00,122.30
529.00,122.33
528.00,122.34
527.00,122.36
526.00,122.37
525.00,122.38
524.00,122.39
523.00,122.40
522.00,122.42
521.00,122.44
520.00,122.45
519.00,122.45
518.00,122.46
517.00,122.47
516.00,122.48
515.00,122.49
514.00,122.50
513.00,122.51
512.00,122.52
511.00,122.53
510.00,122.55
509.00,122.55
508.00,122.54
507.00,122.53
506.00,122.54
505.00,122.56
504.00,122.57
503.00,122.57
502.00,122.56
501.00,122.56
500.00,122.55
