Created as New Dataset,Sample 353 By Analyst Date Thursday, February 06 2025
cm-1,%T
4000.00,130.43
3999.00,130.43
3998.00,130.42
3997.00,130.42
3996.00,130.42
3995.00,130.41
3994.00,130.41
3993.00,130.40
3992.00,130.40
3991.00,130.40
3990.00,130.39
3989.00,130.39
3988.00,130.38
3987.00,130.38
3986.00,130.37
3985.00,130.36
3984.00,130.35
3983.00,130.35
3982.00,130.34
3981.00,130.33
3980.00,130.32
3979.00,130.31
3978.00,130.30
3977.00,130.29
3976.00,130.28
3975.00,130.26
3974.00,130.25
3973.00,130.24
3972.00,130.23
3971.00,130.22
3970.00,130.22
3969.00,130.21
3968.00,130.20
3967.00,130.20
3966.00,130.19
3965.00,130.19
3964.00,130.18
3963.00,130.18
3962.00,130.17
3961.00,130.17
3960.00,130.17
3959.00,130.17
3958.00,130.17
3957.00,130.17
3956.00,130.17
3955.00,130.17
3954.00,130.17
3953.00,130.17
3952.00,130.17
3951.00,130.17
3950.00,130.17
3949.00,130.17
3948.00,130.16
3947.00,130.16
3946.00,130.16
3945.00,130.15
3944.00,130.16
3943.00,130.16
3942.00,130.17
3941.00,130.17
3940.00,130.18
3939.00,130.18
3938.00,130.18
3937.00,130.17
3936.00,130.17
3935.00,130.16
3934.00,130.15
3933.00,130.14
3932.00,130.12
3931.00,130.11
3930.00,130.10
3929.00,130.09
3928.00,130.08
3927.00,130.07
3926.00,130.06
3925.00,130.06
3924.00,130.05
3923.00,130.04
3922.00,130.02
3921.00,130.01
3920.00,129.99
3919.00,129.98
3918.00,129.98
3917.00,129.98
3916.00,129.98
3915.00,129.98
3914.00,129.99
3913.00,130.00
3912.00,130.00
3911.00,130.00
3910.00,130.00
3909.00,129.99
3908.00,129.97
3907.00,129.94
3906.00,129.91
3905.00,129.88
3904.00,129.84
3903.00,129.81
3902.00,129.80
3901.00,129.80
3900.00,129.81
3899.00,129.82
3898.00,129.84
3897.00,129.87
3896.00,129.89
3895.00,129.91
3894.00,129.93
3893.00,129.94
3892.00,129.96
3891.00,129.96
3890.00,129.95
3889.00,129.93
3888.00,129.93
3887.00,129.93
3886.00,129.92
3885.00,129.90
3884.00,129.89
3883.00,129.89
3882.00,129.90
3881.00,129.90
3880.00,129.90
3879.00,129.90
3878.00,129.90
3877.00,129.90
3876.00,129.90
3875.00,129.89
3874.00,129.87
3873.00,129.85
3872.00,129.84
3871.00,129.83
3870.00,129.80
3869.00,129.77
3868.00,129.75
3867.00,129.75
3866.00,129.76
3865.00,129.75
3864.00,129.75
3863.00,129.76
3862.00,129.78
3861.00,129.79
3860.00,129.78
3859.00,129.76
3858.00,129.73
3857.00,129.71
3856.00,129.70
3855.00,129.69
3854.00,129.66
3853.00,129.64
3852.00,129.65
3851.00,129.69
3850.00,129.70
3849.00,129.70
3848.00,129.72
3847.00,129.75
3846.00,129.78
3845.00,129.80
3844.00,129.80
3843.00,129.78
3842.00,129.75
3841.00,129.72
3840.00,129.70
3839.00,129.69
3838.00,129.67
3837.00,129.66
3836.00,129.66
3835.00,129.67
3834.00,129.69
3833.00,129.71
3832.00,129.72
3831.00,129.73
3830.00,129.74
3829.00,129.76
3828.00,129.77
3827.00,129.76
3826.00,129.74
3825.00,129.71
3824.00,129.69
3823.00,129.67
3822.00,129.64
3821.00,129.61
3820.00,129.57
3819.00,129.56
3818.00,129.57
3817.00,129.58
3816.00,129.59
3815.00,129.59
3814.00,129.62
3813.00,129.65
3812.00,129.66
3811.00,129.65
3810.00,129.64
3809.00,129.64
3808.00,129.64
3807.00,129.62
3806.00,129.58
3805.00,129.54
3804.00,129.53
3803.00,129.53
3802.00,129.52
3801.00,129.50
3800.00,129.49
3799.00,129.51
3798.00,129.53
3797.00,129.54
3796.00,129.56
3795.00,129.58
3794.00,129.61
3793.00,129.64
3792.00,129.67
3791.00,129.68
3790.00,129.70
3789.00,129.71
3788.00,129.72
3787.00,129.72
3786.00,129.72
3785.00,129.71
3784.00,129.71
3783.00,129.69
3782.00,129.69
3781.00,129.68
3780.00,129.68
3779.00,129.68
3778.00,129.69
3777.00,129.70
3776.00,129.71
3775.00,129.71
3774.00,129.69
3773.00,129.69
3772.00,129.68
3771.00,129.68
3770.00,129.66
3769.00,129.64
3768.00,129.63
3767.00,129.63
3766.00,129.63
3765.00,129.62
3764.00,129.61
3763.00,129.60
3762.00,129.59
3761.00,129.59
3760.00,129.57
3759.00,129.56
3758.00,129.54
3757.00,129.52
3756.00,129.48
3755.00,129.44
3754.00,129.41
3753.00,129.38
3752.00,129.34
3751.00,129.31
3750.00,129.28
3749.00,129.25
3748.00,129.20
3747.00,129.18
3746.00,129.19
3745.00,129.21
3744.00,129.22
3743.00,129.22
3742.00,129.25
3741.00,129.26
3740.00,129.24
3739.00,129.22
3738.00,129.21
3737.00,129.20
3736.00,129.18
3735.00,129.17
3734.00,129.18
3733.00,129.20
3732.00,129.22
3731.00,129.23
3730.00,129.24
3729.00,129.26
3728.00,129.29
3727.00,129.30
3726.00,129.30
3725.00,129.30
3724.00,129.31
3723.00,129.31
3722.00,129.31
3721.00,129.32
3720.00,129.33
3719.00,129.34
3718.00,129.34
3717.00,129.34
3716.00,129.33
3715.00,129.31
3714.00,129.30
3713.00,129.28
3712.00,129.26
3711.00,129.25
3710.00,129.26
3709.00,129.29
3708.00,129.31
3707.00,129.33
3706.00,129.35
3705.00,129.38
3704.00,129.41
3703.00,129.44
3702.00,129.47
3701.00,129.50
3700.00,129.52
3699.00,129.55
3698.00,129.58
3697.00,129.61
3696.00,129.62
3695.00,129.64
3694.00,129.65
3693.00,129.64
3692.00,129.64
3691.00,129.64
3690.00,129.65
3689.00,129.67
3688.00,129.70
3687.00,129.73
3686.00,129.76
3685.00,129.80
3684.00,129.84
3683.00,129.87
3682.00,129.89
3681.00,129.89
3680.00,129.88
3679.00,129.85
3678.00,129.82
3677.00,129.80
3676.00,129.77
3675.00,129.73
3674.00,129.71
3673.00,129.70
3672.00,129.71
3671.00,129.72
3670.00,129.73
3669.00,129.75
3668.00,129.79
3667.00,129.83
3666.00,129.86
3665.00,129.87
3664.00,129.89
3663.00,129.91
3662.00,129.91
3661.00,129.90
3660.00,129.88
3659.00,129.86
3658.00,129.83
3657.00,129.81
3656.00,129.77
3655.00,129.72
3654.00,129.67
3653.00,129.61
3652.00,129.56
3651.00,129.50
3650.00,129.45
3649.00,129.43
3648.00,129.43
3647.00,129.45
3646.00,129.46
3645.00,129.48
3644.00,129.51
3643.00,129.56
3642.00,129.60
3641.00,129.63
3640.00,129.66
3639.00,129.68
3638.00,129.68
3637.00,129.68
3636.00,129.67
3635.00,129.67
3634.00,129.64
3633.00,129.61
3632.00,129.58
3631.00,129.57
3630.00,129.56
3629.00,129.55
3628.00,129.56
3627.00,129.59
3626.00,129.62
3625.00,129.64
3624.00,129.66
3623.00,129.67
3622.00,129.69
3621.00,129.71
3620.00,129.71
3619.00,129.70
3618.00,129.69
3617.00,129.68
3616.00,129.66
3615.00,129.66
3614.00,129.65
3613.00,129.65
3612.00,129.65
3611.00,129.66
3610.00,129.66
3609.00,129.66
3608.00,129.67
3607.00,129.68
3606.00,129.70
3605.00,129.71
3604.00,129.72
3603.00,129.73
3602.00,129.74
3601.00,129.75
3600.00,129.75
3599.00,129.74
3598.00,129.73
3597.00,129.72
3596.00,129.72
3595.00,129.72
3594.00,129.71
3593.00,129.71
3592.00,129.71
3591.00,129.70
3590.00,129.68
3589.00,129.67
3588.00,129.67
3587.00,129.67
3586.00,129.68
3585.00,129.71
3584.00,129.73
3583.00,129.75
3582.00,129.78
3581.00,129.82
3580.00,129.85
3579.00,129.87
3578.00,129.89
3577.00,129.90
3576.00,129.91
3575.00,129.92
3574.00,129.93
3573.00,129.93
3572.00,129.93
3571.00,129.91
3570.00,129.89
3569.00,129.88
3568.00,129.86
3567.00,129.86
3566.00,129.86
3565.00,129.87
3564.00,129.88
3563.00,129.90
3562.00,129.93
3561.00,129.96
3560.00,129.99
3559.00,130.02
3558.00,130.03
3557.00,130.04
3556.00,130.04
3555.00,130.03
3554.00,130.03
3553.00,130.03
3552.00,130.02
3551.00,130.01
3550.00,130.00
3549.00,129.99
3548.00,129.98
3547.00,129.97
3546.00,129.96
3545.00,129.96
3544.00,129.96
3543.00,129.97
3542.00,129.98
3541.00,129.99
3540.00,130.00
3539.00,130.00
3538.00,130.00
3537.00,130.01
3536.00,130.01
3535.00,130.02
3534.00,130.02
3533.00,130.02
3532.00,130.02
3531.00,130.02
3530.00,130.01
3529.00,130.01
3528.00,130.01
3527.00,130.00
3526.00,130.00
3525.00,130.00
3524.00,130.00
3523.00,130.01
3522.00,130.02
3521.00,130.03
3520.00,130.04
3519.00,130.05
3518.00,130.06
3517.00,130.07
3516.00,130.07
3515.00,130.07
3514.00,130.07
3513.00,130.06
3512.00,130.06
3511.00,130.06
3510.00,130.05
3509.00,130.04
3508.00,130.03
3507.00,130.02
3506.00,130.01
3505.00,130.00
3504.00,129.99
3503.00,129.99
3502.00,129.99
3501.00,129.98
3500.00,129.99
3499.00,129.98
3498.00,129.98
3497.00,129.98
3496.00,129.99
3495.00,129.99
3494.00,129.99
3493.00,130.00
3492.00,129.99
3491.00,129.99
3490.00,129.99
3489.00,130.00
3488.00,130.00
3487.00,130.00
3486.00,130.00
3485.00,130.01
3484.00,130.02
3483.00,130.02
3482.00,130.03
3481.00,130.04
3480.00,130.05
3479.00,130.06
3478.00,130.07
3477.00,130.09
3476.00,130.10
3475.00,130.12
3474.00,130.13
3473.00,130.15
3472.00,130.16
3471.00,130.17
3470.00,130.18
3469.00,130.19
3468.00,130.20
3467.00,130.22
3466.00,130.23
3465.00,130.24
3464.00,130.25
3463.00,130.26
3462.00,130.27
3461.00,130.28
3460.00,130.29
3459.00,130.30
3458.00,130.31
3457.00,130.32
3456.00,130.33
3455.00,130.34
3454.00,130.34
3453.00,130.35
3452.00,130.35
3451.00,130.35
3450.00,130.35
3449.00,130.35
3448.00,130.35
3447.00,130.35
3446.00,130.35
3445.00,130.35
3444.00,130.36
3443.00,130.36
3442.00,130.37
3441.00,130.37
3440.00,130.38
3439.00,130.38
3438.00,130.38
3437.00,130.39
3436.00,130.39
3435.00,130.39
3434.00,130.40
3433.00,130.40
3432.00,130.41
3431.00,130.41
3430.00,130.41
3429.00,130.41
3428.00,130.42
3427.00,130.42
3426.00,130.42
3425.00,130.42
3424.00,130.42
3423.00,130.42
3422.00,130.41
3421.00,130.41
3420.00,130.40
3419.00,130.40
3418.00,130.39
3417.00,130.39
3416.00,130.38
3415.00,130.38
3414.00,130.37
3413.00,130.36
3412.00,130.34
3411.00,130.33
3410.00,130.32
3409.00,130.30
3408.00,130.29
3407.00,130.27
3406.00,130.25
3405.00,130.23
3404.00,130.21
3403.00,130.19
3402.00,130.17
3401.00,130.15
3400.00,130.13
3399.00,130.12
3398.00,130.10
3397.00,130.08
3396.00,130.06
3395.00,130.04
3394.00,130.02
3393.00,130.00
3392.00,129.98
3391.00,129.97
3390.00,129.96
3389.00,129.96
3388.00,129.95
3387.00,129.94
3386.00,129.93
3385.00,129.91
3384.00,129.91
3383.00,129.90
3382.00,129.89
3381.00,129.89
3380.00,129.88
3379.00,129.88
3378.00,129.87
3377.00,129.87
3376.00,129.87
3375.00,129.87
3374.00,129.87
3373.00,129.86
3372.00,129.86
3371.00,129.86
3370.00,129.86
3369.00,129.86
3368.00,129.86
3367.00,129.86
3366.00,129.87
3365.00,129.87
3364.00,129.88
3363.00,129.88
3362.00,129.88
3361.00,129.88
3360.00,129.88
3359.00,129.89
3358.00,129.89
3357.00,129.89
3356.00,129.89
3355.00,129.89
3354.00,129.89
3353.00,129.89
3352.00,129.89
3351.00,129.89
3350.00,129.89
3349.00,129.89
3348.00,129.89
3347.00,129.89
3346.00,129.89
3345.00,129.89
3344.00,129.89
3343.00,129.89
3342.00,129.88
3341.00,129.88
3340.00,129.88
3339.00,129.88
3338.00,129.88
3337.00,129.88
3336.00,129.88
3335.00,129.89
3334.00,129.89
3333.00,129.89
3332.00,129.89
3331.00,129.90
3330.00,129.90
3329.00,129.91
3328.00,129.91
3327.00,129.91
3326.00,129.92
3325.00,129.93
3324.00,129.94
3323.00,129.95
3322.00,129.96
3321.00,129.97
3320.00,129.98
3319.00,129.99
3318.00,130.01
3317.00,130.02
3316.00,130.03
3315.00,130.05
3314.00,130.06
3313.00,130.08
3312.00,130.10
3311.00,130.12
3310.00,130.14
3309.00,130.17
3308.00,130.19
3307.00,130.22
3306.00,130.24
3305.00,130.27
3304.00,130.29
3303.00,130.31
3302.00,130.31
3301.00,130.31
3300.00,130.30
3299.00,130.28
3298.00,130.26
3297.00,130.23
3296.00,130.20
3295.00,130.17
3294.00,130.14
3293.00,130.11
3292.00,130.09
3291.00,130.06
3290.00,130.04
3289.00,130.01
3288.00,129.99
3287.00,129.96
3286.00,129.94
3285.00,129.92
3284.00,129.90
3283.00,129.88
3282.00,129.86
3281.00,129.85
3280.00,129.84
3279.00,129.82
3278.00,129.81
3277.00,129.79
3276.00,129.78
3275.00,129.76
3274.00,129.75
3273.00,129.75
3272.00,129.74
3271.00,129.74
3270.00,129.73
3269.00,129.74
3268.00,129.74
3267.00,129.74
3266.00,129.74
3265.00,129.74
3264.00,129.74
3263.00,129.75
3262.00,129.75
3261.00,129.75
3260.00,129.75
3259.00,129.76
3258.00,129.76
3257.00,129.76
3256.00,129.77
3255.00,129.77
3254.00,129.77
3253.00,129.78
3252.00,129.79
3251.00,129.79
3250.00,129.79
3249.00,129.79
3248.00,129.79
3247.00,129.79
3246.00,129.79
3245.00,129.80
3244.00,129.80
3243.00,129.80
3242.00,129.80
3241.00,129.80
3240.00,129.79
3239.00,129.79
3238.00,129.79
3237.00,129.79
3236.00,129.78
3235.00,129.78
3234.00,129.78
3233.00,129.78
3232.00,129.78
3231.00,129.79
3230.00,129.79
3229.00,129.79
3228.00,129.79
3227.00,129.80
3226.00,129.80
3225.00,129.80
3224.00,129.81
3223.00,129.82
3222.00,129.82
3221.00,129.83
3220.00,129.83
3219.00,129.84
3218.00,129.85
3217.00,129.86
3216.00,129.87
3215.00,129.88
3214.00,129.89
3213.00,129.90
3212.00,129.91
3211.00,129.92
3210.00,129.93
3209.00,129.94
3208.00,129.95
3207.00,129.96
3206.00,129.97
3205.00,129.99
3204.00,130.00
3203.00,130.00
3202.00,130.01
3201.00,130.02
3200.00,130.02
3199.00,130.03
3198.00,130.03
3197.00,130.03
3196.00,130.03
3195.00,130.03
3194.00,130.03
3193.00,130.03
3192.00,130.03
3191.00,130.03
3190.00,130.02
3189.00,130.02
3188.00,130.02
3187.00,130.02
3186.00,130.02
3185.00,130.02
3184.00,130.02
3183.00,130.02
3182.00,130.02
3181.00,130.02
3180.00,130.01
3179.00,130.01
3178.00,130.00
3177.00,130.00
3176.00,129.99
3175.00,129.98
3174.00,129.98
3173.00,129.97
3172.00,129.97
3171.00,129.96
3170.00,129.96
3169.00,129.96
3168.00,129.96
3167.00,129.97
3166.00,129.97
3165.00,129.97
3164.00,129.98
3163.00,129.99
3162.00,129.99
3161.00,130.00
3160.00,130.01
3159.00,130.01
3158.00,130.01
3157.00,130.02
3156.00,130.02
3155.00,130.02
3154.00,130.02
3153.00,130.03
3152.00,130.03
3151.00,130.03
3150.00,130.04
3149.00,130.04
3148.00,130.04
3147.00,130.04
3146.00,130.04
3145.00,130.04
3144.00,130.04
3143.00,130.04
3142.00,130.04
3141.00,130.04
3140.00,130.04
3139.00,130.04
3138.00,130.04
3137.00,130.04
3136.00,130.04
3135.00,130.03
3134.00,130.03
3133.00,130.03
3132.00,130.03
3131.00,130.03
3130.00,130.03
3129.00,130.03
3128.00,130.03
3127.00,130.03
3126.00,130.03
3125.00,130.03
3124.00,130.03
3123.00,130.02
3122.00,130.03
3121.00,130.03
3120.00,130.03
3119.00,130.03
3118.00,130.04
3117.00,130.05
3116.00,130.06
3115.00,130.07
3114.00,130.09
3113.00,130.10
3112.00,130.11
3111.00,130.12
3110.00,130.14
3109.00,130.15
3108.00,130.17
3107.00,130.18
3106.00,130.20
3105.00,130.21
3104.00,130.22
3103.00,130.23
3102.00,130.23
3101.00,130.24
3100.00,130.25
3099.00,130.26
3098.00,130.26
3097.00,130.26
3096.00,130.27
3095.00,130.27
3094.00,130.28
3093.00,130.29
3092.00,130.29
3091.00,130.30
3090.00,130.31
3089.00,130.31
3088.00,130.32
3087.00,130.33
3086.00,130.34
3085.00,130.35
3084.00,130.35
3083.00,130.36
3082.00,130.37
3081.00,130.37
3080.00,130.38
3079.00,130.38
3078.00,130.38
3077.00,130.39
3076.00,130.39
3075.00,130.39
3074.00,130.39
3073.00,130.39
3072.00,130.39
3071.00,130.38
3070.00,130.38
3069.00,130.37
3068.00,130.37
3067.00,130.36
3066.00,130.36
3065.00,130.36
3064.00,130.36
3063.00,130.36
3062.00,130.37
3061.00,130.37
3060.00,130.37
3059.00,130.37
3058.00,130.37
3057.00,130.37
3056.00,130.37
3055.00,130.37
3054.00,130.37
3053.00,130.37
3052.00,130.38
3051.00,130.38
3050.00,130.38
3049.00,130.39
3048.00,130.40
3047.00,130.40
3046.00,130.40
3045.00,130.41
3044.00,130.41
3043.00,130.42
3042.00,130.42
3041.00,130.42
3040.00,130.43
3039.00,130.43
3038.00,130.43
3037.00,130.43
3036.00,130.43
3035.00,130.42
3034.00,130.42
3033.00,130.42
3032.00,130.41
3031.00,130.41
3030.00,130.41
3029.00,130.41
3028.00,130.40
3027.00,130.40
3026.00,130.39
3025.00,130.39
3024.00,130.38
3023.00,130.38
3022.00,130.37
3021.00,130.37
3020.00,130.36
3019.00,130.36
3018.00,130.35
3017.00,130.35
3016.00,130.34
3015.00,130.34
3014.00,130.33
3013.00,130.33
3012.00,130.33
3011.00,130.33
3010.00,130.33
3009.00,130.34
3008.00,130.34
3007.00,130.34
3006.00,130.34
3005.00,130.34
3004.00,130.34
3003.00,130.35
3002.00,130.35
3001.00,130.35
3000.00,130.35
2999.00,130.35
2998.00,130.35
2997.00,130.36
2996.00,130.36
2995.00,130.36
2994.00,130.36
2993.00,130.37
2992.00,130.37
2991.00,130.37
2990.00,130.38
2989.00,130.38
2988.00,130.38
2987.00,130.39
2986.00,130.39
2985.00,130.39
2984.00,130.39
2983.00,130.38
2982.00,130.38
2981.00,130.38
2980.00,130.38
2979.00,130.37
2978.00,130.37
2977.00,130.37
2976.00,130.36
2975.00,130.36
2974.00,130.36
2973.00,130.35
2972.00,130.35
2971.00,130.34
2970.00,130.34
2969.00,130.33
2968.00,130.33
2967.00,130.33
2966.00,130.32
2965.00,130.32
2964.00,130.31
2963.00,130.31
2962.00,130.31
2961.00,130.31
2960.00,130.31
2959.00,130.31
2958.00,130.32
2957.00,130.32
2956.00,130.32
2955.00,130.32
2954.00,130.32
2953.00,130.32
2952.00,130.33
2951.00,130.33
2950.00,130.33
2949.00,130.34
2948.00,130.34
2947.00,130.34
2946.00,130.34
2945.00,130.35
2944.00,130.35
2943.00,130.36
2942.00,130.37
2941.00,130.37
2940.00,130.38
2939.00,130.38
2938.00,130.38
2937.00,130.38
2936.00,130.39
2935.00,130.39
2934.00,130.39
2933.00,130.39
2932.00,130.39
2931.00,130.39
2930.00,130.39
2929.00,130.39
2928.00,130.39
2927.00,130.39
2926.00,130.39
2925.00,130.39
2924.00,130.39
2923.00,130.39
2922.00,130.39
2921.00,130.38
2920.00,130.38
2919.00,130.37
2918.00,130.37
2917.00,130.36
2916.00,130.35
2915.00,130.34
2914.00,130.33
2913.00,130.32
2912.00,130.31
2911.00,130.30
2910.00,130.30
2909.00,130.29
2908.00,130.29
2907.00,130.29
2906.00,130.29
2905.00,130.28
2904.00,130.28
2903.00,130.28
2902.00,130.29
2901.00,130.29
2900.00,130.29
2899.00,130.29
2898.00,130.30
2897.00,130.30
2896.00,130.31
2895.00,130.31
2894.00,130.32
2893.00,130.33
2892.00,130.33
2891.00,130.34
2890.00,130.34
2889.00,130.35
2888.00,130.35
2887.00,130.35
2886.00,130.36
2885.00,130.36
2884.00,130.36
2883.00,130.36
2882.00,130.36
2881.00,130.36
2880.00,130.36
2879.00,130.36
2878.00,130.36
2877.00,130.36
2876.00,130.35
2875.00,130.35
2874.00,130.34
2873.00,130.34
2872.00,130.34
2871.00,130.33
2870.00,130.33
2869.00,130.33
2868.00,130.32
2867.00,130.31
2866.00,130.31
2865.00,130.30
2864.00,130.29
2863.00,130.29
2862.00,130.29
2861.00,130.29
2860.00,130.29
2859.00,130.29
2858.00,130.29
2857.00,130.29
2856.00,130.29
2855.00,130.30
2854.00,130.30
2853.00,130.30
2852.00,130.31
2851.00,130.31
2850.00,130.31
2849.00,130.31
2848.00,130.31
2847.00,130.31
2846.00,130.31
2845.00,130.31
2844.00,130.31
2843.00,130.31
2842.00,130.31
2841.00,130.31
2840.00,130.31
2839.00,130.32
2838.00,130.32
2837.00,130.32
2836.00,130.32
2835.00,130.33
2834.00,130.33
2833.00,130.33
2832.00,130.33
2831.00,130.33
2830.00,130.33
2829.00,130.33
2828.00,130.33
2827.00,130.33
2826.00,130.32
2825.00,130.32
2824.00,130.32
2823.00,130.31
2822.00,130.31
2821.00,130.30
2820.00,130.30
2819.00,130.29
2818.00,130.28
2817.00,130.28
2816.00,130.27
2815.00,130.27
2814.00,130.26
2813.00,130.25
2812.00,130.24
2811.00,130.24
2810.00,130.24
2809.00,130.23
2808.00,130.23
2807.00,130.23
2806.00,130.23
2805.00,130.23
2804.00,130.23
2803.00,130.23
2802.00,130.23
2801.00,130.23
2800.00,130.23
2799.00,130.23
2798.00,130.23
2797.00,130.23
2796.00,130.23
2795.00,130.23
2794.00,130.23
2793.00,130.23
2792.00,130.24
2791.00,130.24
2790.00,130.24
2789.00,130.24
2788.00,130.24
2787.00,130.24
2786.00,130.24
2785.00,130.24
2784.00,130.25
2783.00,130.25
2782.00,130.25
2781.00,130.25
2780.00,130.25
2779.00,130.24
2778.00,130.24
2777.00,130.24
2776.00,130.23
2775.00,130.23
2774.00,130.23
2773.00,130.23
2772.00,130.23
2771.00,130.22
2770.00,130.22
2769.00,130.21
2768.00,130.21
2767.00,130.20
2766.00,130.20
2765.00,130.19
2764.00,130.19
2763.00,130.18
2762.00,130.17
2761.00,130.17
2760.00,130.16
2759.00,130.16
2758.00,130.16
2757.00,130.15
2756.00,130.15
2755.00,130.14
2754.00,130.14
2753.00,130.14
2752.00,130.14
2751.00,130.13
2750.00,130.13
2749.00,130.13
2748.00,130.14
2747.00,130.14
2746.00,130.14
2745.00,130.14
2744.00,130.15
2743.00,130.15
2742.00,130.15
2741.00,130.16
2740.00,130.16
2739.00,130.17
2738.00,130.17
2737.00,130.18
2736.00,130.18
2735.00,130.18
2734.00,130.19
2733.00,130.19
2732.00,130.19
2731.00,130.19
2730.00,130.19
2729.00,130.19
2728.00,130.18
2727.00,130.18
2726.00,130.17
2725.00,130.17
2724.00,130.16
2723.00,130.15
2722.00,130.15
2721.00,130.14
2720.00,130.13
2719.00,130.13
2718.00,130.12
2717.00,130.11
2716.00,130.10
2715.00,130.10
2714.00,130.09
2713.00,130.08
2712.00,130.07
2711.00,130.06
2710.00,130.06
2709.00,130.05
2708.00,130.04
2707.00,130.03
2706.00,130.02
2705.00,130.02
2704.00,130.01
2703.00,130.00
2702.00,130.00
2701.00,129.99
2700.00,129.99
2699.00,129.98
2698.00,129.98
2697.00,129.98
2696.00,129.97
2695.00,129.97
2694.00,129.97
2693.00,129.97
2692.00,129.97
2691.00,129.98
2690.00,129.98
2689.00,129.98
2688.00,129.98
2687.00,129.99
2686.00,130.00
2685.00,130.00
2684.00,130.01
2683.00,130.02
2682.00,130.02
2681.00,130.03
2680.00,130.03
2679.00,130.04
2678.00,130.05
2677.00,130.05
2676.00,130.06
2675.00,130.06
2674.00,130.07
2673.00,130.07
2672.00,130.07
2671.00,130.06
2670.00,130.06
2669.00,130.06
2668.00,130.05
2667.00,130.05
2666.00,130.04
2665.00,130.03
2664.00,130.02
2663.00,130.01
2662.00,129.99
2661.00,129.98
2660.00,129.97
2659.00,129.95
2658.00,129.94
2657.00,129.93
2656.00,129.92
2655.00,129.90
2654.00,129.89
2653.00,129.88
2652.00,129.87
2651.00,129.86
2650.00,129.85
2649.00,129.85
2648.00,129.84
2647.00,129.83
2646.00,129.83
2645.00,129.82
2644.00,129.82
2643.00,129.82
2642.00,129.82
2641.00,129.82
2640.00,129.82
2639.00,129.82
2638.00,129.82
2637.00,129.82
2636.00,129.83
2635.00,129.83
2634.00,129.83
2633.00,129.84
2632.00,129.85
2631.00,129.85
2630.00,129.86
2629.00,129.87
2628.00,129.87
2627.00,129.88
2626.00,129.89
2625.00,129.90
2624.00,129.91
2623.00,129.91
2622.00,129.92
2621.00,129.92
2620.00,129.93
2619.00,129.93
2618.00,129.94
2617.00,129.94
2616.00,129.95
2615.00,129.95
2614.00,129.95
2613.00,129.95
2612.00,129.95
2611.00,129.94
2610.00,129.94
2609.00,129.94
2608.00,129.94
2607.00,129.93
2606.00,129.93
2605.00,129.92
2604.00,129.91
2603.00,129.91
2602.00,129.90
2601.00,129.89
2600.00,129.89
2599.00,129.88
2598.00,129.88
2597.00,129.87
2596.00,129.87
2595.00,129.87
2594.00,129.86
2593.00,129.86
2592.00,129.86
2591.00,129.86
2590.00,129.86
2589.00,129.86
2588.00,129.86
2587.00,129.86
2586.00,129.86
2585.00,129.86
2584.00,129.87
2583.00,129.87
2582.00,129.87
2581.00,129.88
2580.00,129.88
2579.00,129.88
2578.00,129.88
2577.00,129.88
2576.00,129.89
2575.00,129.89
2574.00,129.89
2573.00,129.89
2572.00,129.89
2571.00,129.89
2570.00,129.89
2569.00,129.89
2568.00,129.89
2567.00,129.88
2566.00,129.88
2565.00,129.87
2564.00,129.87
2563.00,129.87
2562.00,129.86
2561.00,129.86
2560.00,129.85
2559.00,129.84
2558.00,129.83
2557.00,129.83
2556.00,129.82
2555.00,129.81
2554.00,129.80
2553.00,129.79
2552.00,129.78
2551.00,129.77
2550.00,129.76
2549.00,129.74
2548.00,129.73
2547.00,129.72
2546.00,129.71
2545.00,129.71
2544.00,129.70
2543.00,129.69
2542.00,129.68
2541.00,129.67
2540.00,129.67
2539.00,129.67
2538.00,129.67
2537.00,129.67
2536.00,129.67
2535.00,129.67
2534.00,129.67
2533.00,129.67
2532.00,129.67
2531.00,129.68
2530.00,129.68
2529.00,129.68
2528.00,129.68
2527.00,129.68
2526.00,129.69
2525.00,129.69
2524.00,129.69
2523.00,129.69
2522.00,129.68
2521.00,129.68
2520.00,129.68
2519.00,129.68
2518.00,129.67
2517.00,129.67
2516.00,129.66
2515.00,129.66
2514.00,129.65
2513.00,129.64
2512.00,129.63
2511.00,129.62
2510.00,129.61
2509.00,129.60
2508.00,129.59
2507.00,129.58
2506.00,129.57
2505.00,129.56
2504.00,129.55
2503.00,129.53
2502.00,129.52
2501.00,129.51
2500.00,129.49
2499.00,129.48
2498.00,129.47
2497.00,129.46
2496.00,129.45
2495.00,129.44
2494.00,129.43
2493.00,129.42
2492.00,129.41
2491.00,129.41
2490.00,129.40
2489.00,129.40
2488.00,129.39
2487.00,129.39
2486.00,129.38
2485.00,129.38
2484.00,129.38
2483.00,129.37
2482.00,129.37
2481.00,129.37
2480.00,129.36
2479.00,129.36
2478.00,129.36
2477.00,129.35
2476.00,129.35
2475.00,129.35
2474.00,129.35
2473.00,129.36
2472.00,129.36
2471.00,129.36
2470.00,129.36
2469.00,129.36
2468.00,129.36
2467.00,129.37
2466.00,129.37
2465.00,129.37
2464.00,129.37
2463.00,129.37
2462.00,129.37
2461.00,129.37
2460.00,129.37
2459.00,129.37
2458.00,129.37
2457.00,129.37
2456.00,129.37
2455.00,129.36
2454.00,129.36
2453.00,129.36
2452.00,129.36
2451.00,129.36
2450.00,129.36
2449.00,129.36
2448.00,129.37
2447.00,129.37
2446.00,129.37
2445.00,129.37
2444.00,129.38
2443.00,129.38
2442.00,129.38
2441.00,129.39
2440.00,129.39
2439.00,129.40
2438.00,129.41
2437.00,129.41
2436.00,129.42
2435.00,129.43
2434.00,129.43
2433.00,129.44
2432.00,129.45
2431.00,129.46
2430.00,129.47
2429.00,129.48
2428.00,129.50
2427.00,129.51
2426.00,129.52
2425.00,129.54
2424.00,129.55
2423.00,129.57
2422.00,129.58
2421.00,129.60
2420.00,129.61
2419.00,129.62
2418.00,129.63
2417.00,129.64
2416.00,129.65
2415.00,129.66
2414.00,129.67
2413.00,129.67
2412.00,129.67
2411.00,129.68
2410.00,129.67
2409.00,129.67
2408.00,129.67
2407.00,129.66
2406.00,129.66
2405.00,129.65
2404.00,129.64
2403.00,129.63
2402.00,129.62
2401.00,129.61
2400.00,129.60
2399.00,129.59
2398.00,129.58
2397.00,129.57
2396.00,129.56
2395.00,129.55
2394.00,129.54
2393.00,129.53
2392.00,129.53
2391.00,129.52
2390.00,129.51
2389.00,129.50
2388.00,129.49
2387.00,129.49
2386.00,129.49
2385.00,129.49
2384.00,129.49
2383.00,129.49
2382.00,129.49
2381.00,129.49
2380.00,129.50
2379.00,129.51
2378.00,129.52
2377.00,129.53
2376.00,129.53
2375.00,129.53
2374.00,129.53
2373.00,129.53
2372.00,129.52
2371.00,129.52
2370.00,129.51
2369.00,129.51
2368.00,129.50
2367.00,129.49
2366.00,129.49
2365.00,129.50
2364.00,129.50
2363.00,129.50
2362.00,129.50
2361.00,129.50
2360.00,129.50
2359.00,129.51
2358.00,129.50
2357.00,129.50
2356.00,129.49
2355.00,129.48
2354.00,129.49
2353.00,129.50
2352.00,129.50
2351.00,129.49
2350.00,129.48
2349.00,129.48
2348.00,129.48
2347.00,129.48
2346.00,129.48
2345.00,129.46
2344.00,129.45
2343.00,129.44
2342.00,129.43
2341.00,129.43
2340.00,129.43
2339.00,129.43
2338.00,129.43
2337.00,129.43
2336.00,129.44
2335.00,129.44
2334.00,129.44
2333.00,129.44
2332.00,129.45
2331.00,129.45
2330.00,129.46
2329.00,129.44
2328.00,129.42
2327.00,129.40
2326.00,129.39
2325.00,129.38
2324.00,129.38
2323.00,129.36
2322.00,129.35
2321.00,129.33
2320.00,129.33
2319.00,129.32
2318.00,129.32
2317.00,129.30
2316.00,129.29
2315.00,129.29
2314.00,129.29
2313.00,129.30
2312.00,129.30
2311.00,129.30
2310.00,129.31
2309.00,129.31
2308.00,129.31
2307.00,129.31
2306.00,129.31
2305.00,129.31
2304.00,129.32
2303.00,129.32
2302.00,129.31
2301.00,129.31
2300.00,129.31
2299.00,129.31
2298.00,129.30
2297.00,129.30
2296.00,129.30
2295.00,129.30
2294.00,129.30
2293.00,129.29
2292.00,129.29
2291.00,129.29
2290.00,129.28
2289.00,129.28
2288.00,129.27
2287.00,129.27
2286.00,129.26
2285.00,129.26
2284.00,129.25
2283.00,129.25
2282.00,129.24
2281.00,129.24
2280.00,129.24
2279.00,129.23
2278.00,129.23
2277.00,129.23
2276.00,129.23
2275.00,129.23
2274.00,129.23
2273.00,129.23
2272.00,129.23
2271.00,129.23
2270.00,129.24
2269.00,129.24
2268.00,129.25
2267.00,129.25
2266.00,129.26
2265.00,129.26
2264.00,129.27
2263.00,129.27
2262.00,129.28
2261.00,129.28
2260.00,129.29
2259.00,129.29
2258.00,129.30
2257.00,129.30
2256.00,129.30
2255.00,129.31
2254.00,129.31
2253.00,129.32
2252.00,129.32
2251.00,129.32
2250.00,129.32
2249.00,129.32
2248.00,129.31
2247.00,129.31
2246.00,129.31
2245.00,129.30
2244.00,129.30
2243.00,129.29
2242.00,129.28
2241.00,129.27
2240.00,129.26
2239.00,129.24
2238.00,129.23
2237.00,129.22
2236.00,129.20
2235.00,129.19
2234.00,129.17
2233.00,129.16
2232.00,129.14
2231.00,129.13
2230.00,129.12
2229.00,129.10
2228.00,129.09
2227.00,129.08
2226.00,129.06
2225.00,129.05
2224.00,129.04
2223.00,129.04
2222.00,129.03
2221.00,129.02
2220.00,129.02
2219.00,129.02
2218.00,129.02
2217.00,129.02
2216.00,129.02
2215.00,129.02
2214.00,129.03
2213.00,129.03
2212.00,129.04
2211.00,129.04
2210.00,129.04
2209.00,129.04
2208.00,129.04
2207.00,129.05
2206.00,129.04
2205.00,129.04
2204.00,129.04
2203.00,129.04
2202.00,129.03
2201.00,129.03
2200.00,129.02
2199.00,129.02
2198.00,129.01
2197.00,129.00
2196.00,129.00
2195.00,128.99
2194.00,128.98
2193.00,128.97
2192.00,128.96
2191.00,128.95
2190.00,128.93
2189.00,128.92
2188.00,128.91
2187.00,128.90
2186.00,128.89
2185.00,128.88
2184.00,128.87
2183.00,128.86
2182.00,128.85
2181.00,128.85
2180.00,128.84
2179.00,128.83
2178.00,128.83
2177.00,128.82
2176.00,128.82
2175.00,128.82
2174.00,128.82
2173.00,128.82
2172.00,128.82
2171.00,128.82
2170.00,128.83
2169.00,128.84
2168.00,128.85
2167.00,128.85
2166.00,128.86
2165.00,128.87
2164.00,128.88
2163.00,128.90
2162.00,128.91
2161.00,128.92
2160.00,128.93
2159.00,128.94
2158.00,128.95
2157.00,128.96
2156.00,128.97
2155.00,128.97
2154.00,128.98
2153.00,128.98
2152.00,128.99
2151.00,128.99
2150.00,128.99
2149.00,128.99
2148.00,128.99
2147.00,128.99
2146.00,128.98
2145.00,128.98
2144.00,128.98
2143.00,128.97
2142.00,128.96
2141.00,128.95
2140.00,128.94
2139.00,128.93
2138.00,128.92
2137.00,128.91
2136.00,128.90
2135.00,128.88
2134.00,128.87
2133.00,128.86
2132.00,128.85
2131.00,128.84
2130.00,128.83
2129.00,128.82
2128.00,128.81
2127.00,128.80
2126.00,128.80
2125.00,128.79
2124.00,128.79
2123.00,128.79
2122.00,128.78
2121.00,128.78
2120.00,128.77
2119.00,128.77
2118.00,128.77
2117.00,128.77
2116.00,128.77
2115.00,128.78
2114.00,128.78
2113.00,128.78
2112.00,128.78
2111.00,128.79
2110.00,128.79
2109.00,128.79
2108.00,128.80
2107.00,128.80
2106.00,128.80
2105.00,128.81
2104.00,128.81
2103.00,128.81
2102.00,128.82
2101.00,128.83
2100.00,128.83
2099.00,128.84
2098.00,128.84
2097.00,128.85
2096.00,128.86
2095.00,128.87
2094.00,128.87
2093.00,128.87
2092.00,128.88
2091.00,128.88
2090.00,128.89
2089.00,128.89
2088.00,128.89
2087.00,128.89
2086.00,128.89
2085.00,128.89
2084.00,128.89
2083.00,128.89
2082.00,128.89
2081.00,128.89
2080.00,128.89
2079.00,128.88
2078.00,128.87
2077.00,128.87
2076.00,128.86
2075.00,128.85
2074.00,128.85
2073.00,128.84
2072.00,128.84
2071.00,128.83
2070.00,128.82
2069.00,128.81
2068.00,128.81
2067.00,128.80
2066.00,128.79
2065.00,128.79
2064.00,128.78
2063.00,128.78
2062.00,128.78
2061.00,128.77
2060.00,128.77
2059.00,128.77
2058.00,128.76
2057.00,128.76
2056.00,128.77
2055.00,128.77
2054.00,128.77
2053.00,128.77
2052.00,128.78
2051.00,128.78
2050.00,128.79
2049.00,128.80
2048.00,128.81
2047.00,128.81
2046.00,128.82
2045.00,128.83
2044.00,128.84
2043.00,128.85
2042.00,128.86
2041.00,128.87
2040.00,128.88
2039.00,128.90
2038.00,128.91
2037.00,128.91
2036.00,128.92
2035.00,128.92
2034.00,128.93
2033.00,128.93
2032.00,128.93
2031.00,128.92
2030.00,128.92
2029.00,128.91
2028.00,128.90
2027.00,128.89
2026.00,128.88
2025.00,128.87
2024.00,128.86
2023.00,128.84
2022.00,128.83
2021.00,128.82
2020.00,128.81
2019.00,128.79
2018.00,128.78
2017.00,128.77
2016.00,128.77
2015.00,128.76
2014.00,128.75
2013.00,128.75
2012.00,128.75
2011.00,128.75
2010.00,128.75
2009.00,128.76
2008.00,128.76
2007.00,128.77
2006.00,128.78
2005.00,128.80
2004.00,128.81
2003.00,128.83
2002.00,128.84
2001.00,128.86
2000.00,128.88
1999.00,128.90
1998.00,128.92
1997.00,128.94
1996.00,128.96
1995.00,128.99
1994.00,129.01
1993.00,129.03
1992.00,129.06
1991.00,129.08
1990.00,129.11
1989.00,129.13
1988.00,129.15
1987.00,129.18
1986.00,129.20
1985.00,129.22
1984.00,129.24
1983.00,129.25
1982.00,129.26
1981.00,129.27
1980.00,129.28
1979.00,129.29
1978.00,129.29
1977.00,129.29
1976.00,129.29
1975.00,129.28
1974.00,129.27
1973.00,129.25
1972.00,129.24
1971.00,129.22
1970.00,129.20
1969.00,129.18
1968.00,129.16
1967.00,129.14
1966.00,129.13
1965.00,129.12
1964.00,129.12
1963.00,129.12
1962.00,129.12
1961.00,129.13
1960.00,129.15
1959.00,129.17
1958.00,129.19
1957.00,129.22
1956.00,129.25
1955.00,129.28
1954.00,129.32
1953.00,129.35
1952.00,129.38
1951.00,129.40
1950.00,129.43
1949.00,129.45
1948.00,129.47
1947.00,129.48
1946.00,129.48
1945.00,129.48
1944.00,129.48
1943.00,129.48
1942.00,129.48
1941.00,129.46
1940.00,129.44
1939.00,129.42
1938.00,129.39
1937.00,129.37
1936.00,129.34
1935.00,129.31
1934.00,129.28
1933.00,129.26
1932.00,129.23
1931.00,129.21
1930.00,129.19
1929.00,129.18
1928.00,129.16
1927.00,129.15
1926.00,129.14
1925.00,129.13
1924.00,129.13
1923.00,129.13
1922.00,129.12
1921.00,129.12
1920.00,129.12
1919.00,129.12
1918.00,129.12
1917.00,129.11
1916.00,129.11
1915.00,129.10
1914.00,129.09
1913.00,129.07
1912.00,129.06
1911.00,129.05
1910.00,129.03
1909.00,129.02
1908.00,129.02
1907.00,129.01
1906.00,129.00
1905.00,128.99
1904.00,128.99
1903.00,128.98
1902.00,128.98
1901.00,128.98
1900.00,128.99
1899.00,128.99
1898.00,129.00
1897.00,129.00
1896.00,129.01
1895.00,129.03
1894.00,129.03
1893.00,129.04
1892.00,129.05
1891.00,129.07
1890.00,129.09
1889.00,129.11
1888.00,129.13
1887.00,129.14
1886.00,129.15
1885.00,129.17
1884.00,129.18
1883.00,129.20
1882.00,129.22
1881.00,129.24
1880.00,129.25
1879.00,129.27
1878.00,129.28
1877.00,129.29
1876.00,129.30
1875.00,129.31
1874.00,129.31
1873.00,129.31
1872.00,129.30
1871.00,129.30
1870.00,129.30
1869.00,129.29
1868.00,129.29
1867.00,129.28
1866.00,129.27
1865.00,129.26
1864.00,129.25
1863.00,129.24
1862.00,129.24
1861.00,129.23
1860.00,129.23
1859.00,129.24
1858.00,129.25
1857.00,129.26
1856.00,129.28
1855.00,129.30
1854.00,129.32
1853.00,129.34
1852.00,129.37
1851.00,129.39
1850.00,129.41
1849.00,129.43
1848.00,129.45
1847.00,129.47
1846.00,129.50
1845.00,129.53
1844.00,129.57
1843.00,129.59
1842.00,129.60
1841.00,129.61
1840.00,129.61
1839.00,129.62
1838.00,129.62
1837.00,129.62
1836.00,129.62
1835.00,129.63
1834.00,129.62
1833.00,129.62
1832.00,129.62
1831.00,129.62
1830.00,129.63
1829.00,129.63
1828.00,129.64
1827.00,129.64
1826.00,129.65
1825.00,129.67
1824.00,129.67
1823.00,129.67
1822.00,129.68
1821.00,129.69
1820.00,129.70
1819.00,129.71
1818.00,129.71
1817.00,129.72
1816.00,129.73
1815.00,129.73
1814.00,129.73
1813.00,129.73
1812.00,129.74
1811.00,129.75
1810.00,129.75
1809.00,129.76
1808.00,129.76
1807.00,129.77
1806.00,129.77
1805.00,129.78
1804.00,129.78
1803.00,129.79
1802.00,129.80
1801.00,129.82
1800.00,129.83
1799.00,129.84
1798.00,129.85
1797.00,129.86
1796.00,129.86
1795.00,129.87
1794.00,129.89
1793.00,129.90
1792.00,129.93
1791.00,129.96
1790.00,129.97
1789.00,129.99
1788.00,130.00
1787.00,130.01
1786.00,130.02
1785.00,130.04
1784.00,130.05
1783.00,130.07
1782.00,130.07
1781.00,130.08
1780.00,130.08
1779.00,130.09
1778.00,130.09
1777.00,130.09
1776.00,130.09
1775.00,130.09
1774.00,130.10
1773.00,130.10
1772.00,130.10
1771.00,130.09
1770.00,130.10
1769.00,130.11
1768.00,130.12
1767.00,130.11
1766.00,130.10
1765.00,130.09
1764.00,130.08
1763.00,130.08
1762.00,130.07
1761.00,130.06
1760.00,130.04
1759.00,130.04
1758.00,130.04
1757.00,130.04
1756.00,130.03
1755.00,130.02
1754.00,130.01
1753.00,130.00
1752.00,129.99
1751.00,129.99
1750.00,129.98
1749.00,129.99
1748.00,130.00
1747.00,130.00
1746.00,130.00
1745.00,130.00
1744.00,130.00
1743.00,130.00
1742.00,130.00
1741.00,130.01
1740.00,130.02
1739.00,130.03
1738.00,130.03
1737.00,130.04
1736.00,130.06
1735.00,130.07
1734.00,130.07
1733.00,130.07
1732.00,130.06
1731.00,130.08
1730.00,130.10
1729.00,130.11
1728.00,130.11
1727.00,130.11
1726.00,130.12
1725.00,130.12
1724.00,130.12
1723.00,130.13
1722.00,130.12
1721.00,130.12
1720.00,130.12
1719.00,130.13
1718.00,130.13
1717.00,130.12
1716.00,130.12
1715.00,130.12
1714.00,130.13
1713.00,130.12
1712.00,130.12
1711.00,130.11
1710.00,130.10
1709.00,130.09
1708.00,130.08
1707.00,130.08
1706.00,130.07
1705.00,130.06
1704.00,130.04
1703.00,130.04
1702.00,130.04
1701.00,130.04
1700.00,130.03
1699.00,130.03
1698.00,130.03
1697.00,130.03
1696.00,130.03
1695.00,130.01
1694.00,129.99
1693.00,129.99
1692.00,129.99
1691.00,129.99
1690.00,129.98
1689.00,129.98
1688.00,129.98
1687.00,129.99
1686.00,130.00
1685.00,130.00
1684.00,130.00
1683.00,130.01
1682.00,130.02
1681.00,130.04
1680.00,130.05
1679.00,130.04
1678.00,130.05
1677.00,130.07
1676.00,130.08
1675.00,130.08
1674.00,130.06
1673.00,130.04
1672.00,130.04
1671.00,130.05
1670.00,130.07
1669.00,130.08
1668.00,130.08
1667.00,130.08
1666.00,130.07
1665.00,130.06
1664.00,130.05
1663.00,130.05
1662.00,130.04
1661.00,130.04
1660.00,130.03
1659.00,130.02
1658.00,130.00
1657.00,129.98
1656.00,129.98
1655.00,129.98
1654.00,129.98
1653.00,129.98
1652.00,129.95
1651.00,129.92
1650.00,129.91
1649.00,129.92
1648.00,129.93
1647.00,129.92
1646.00,129.92
1645.00,129.92
1644.00,129.92
1643.00,129.93
1642.00,129.94
1641.00,129.94
1640.00,129.94
1639.00,129.94
1638.00,129.95
1637.00,129.96
1636.00,129.97
1635.00,129.98
1634.00,129.98
1633.00,129.98
1632.00,129.98
1631.00,129.97
1630.00,129.97
1629.00,129.96
1628.00,129.96
1627.00,129.96
1626.00,129.96
1625.00,129.97
1624.00,129.98
1623.00,129.99
1622.00,129.99
1621.00,130.00
1620.00,130.00
1619.00,130.01
1618.00,130.01
1617.00,130.01
1616.00,130.00
1615.00,130.00
1614.00,130.01
1613.00,130.03
1612.00,130.03
1611.00,130.03
1610.00,130.03
1609.00,130.04
1608.00,130.05
1607.00,130.06
1606.00,130.06
1605.00,130.06
1604.00,130.06
1603.00,130.05
1602.00,130.04
1601.00,130.04
1600.00,130.03
1599.00,130.03
1598.00,130.02
1597.00,130.01
1596.00,130.00
1595.00,129.99
1594.00,129.98
1593.00,129.97
1592.00,129.97
1591.00,129.96
1590.00,129.96
1589.00,129.96
1588.00,129.97
1587.00,129.97
1586.00,129.97
1585.00,129.98
1584.00,129.98
1583.00,129.98
1582.00,129.99
1581.00,129.99
1580.00,130.00
1579.00,130.00
1578.00,130.01
1577.00,130.02
1576.00,130.03
1575.00,130.02
1574.00,130.03
1573.00,130.03
1572.00,130.04
1571.00,130.03
1570.00,130.03
1569.00,130.04
1568.00,130.05
1567.00,130.05
1566.00,130.05
1565.00,130.05
1564.00,130.05
1563.00,130.05
1562.00,130.05
1561.00,130.04
1560.00,130.01
1559.00,129.98
1558.00,129.99
1557.00,130.00
1556.00,130.01
1555.00,130.02
1554.00,130.01
1553.00,129.99
1552.00,129.98
1551.00,129.98
1550.00,129.98
1549.00,129.98
1548.00,129.98
1547.00,129.98
1546.00,129.98
1545.00,129.98
1544.00,129.98
1543.00,129.99
1542.00,129.99
1541.00,129.99
1540.00,129.98
1539.00,129.97
1538.00,129.96
1537.00,129.95
1536.00,129.95
1535.00,129.95
1534.00,129.95
1533.00,129.94
1532.00,129.93
1531.00,129.91
1530.00,129.90
1529.00,129.89
1528.00,129.90
1527.00,129.90
1526.00,129.91
1525.00,129.91
1524.00,129.90
1523.00,129.89
1522.00,129.89
1521.00,129.90
1520.00,129.92
1519.00,129.94
1518.00,129.95
1517.00,129.97
1516.00,129.97
1515.00,129.98
1514.00,129.98
1513.00,129.99
1512.00,129.99
1511.00,129.99
1510.00,129.99
1509.00,130.00
1508.00,130.02
1507.00,130.05
1506.00,130.07
1505.00,130.07
1504.00,130.05
1503.00,130.04
1502.00,130.03
1501.00,130.01
1500.00,130.00
1499.00,129.98
1498.00,129.96
1497.00,129.96
1496.00,129.96
1495.00,129.96
1494.00,129.95
1493.00,129.94
1492.00,129.93
1491.00,129.93
1490.00,129.93
1489.00,129.94
1488.00,129.95
1487.00,129.96
1486.00,129.97
1485.00,129.97
1484.00,129.97
1483.00,129.97
1482.00,129.97
1481.00,129.97
1480.00,129.96
1479.00,129.96
1478.00,129.96
1477.00,129.96
1476.00,129.97
1475.00,129.98
1474.00,130.00
1473.00,130.02
1472.00,130.04
1471.00,130.05
1470.00,130.05
1469.00,130.05
1468.00,130.05
1467.00,130.06
1466.00,130.06
1465.00,130.07
1464.00,130.08
1463.00,130.08
1462.00,130.08
1461.00,130.08
1460.00,130.08
1459.00,130.08
1458.00,130.08
1457.00,130.10
1456.00,130.11
1455.00,130.11
1454.00,130.10
1453.00,130.10
1452.00,130.09
1451.00,130.07
1450.00,130.07
1449.00,130.06
1448.00,130.06
1447.00,130.06
1446.00,130.06
1445.00,130.05
1444.00,130.04
1443.00,130.03
1442.00,130.02
1441.00,130.01
1440.00,129.99
1439.00,129.98
1438.00,129.98
1437.00,129.98
1436.00,129.98
1435.00,129.98
1434.00,129.97
1433.00,129.96
1432.00,129.95
1431.00,129.95
1430.00,129.95
1429.00,129.95
1428.00,129.95
1427.00,129.95
1426.00,129.95
1425.00,129.95
1424.00,129.95
1423.00,129.95
1422.00,129.96
1421.00,129.97
1420.00,129.97
1419.00,129.97
1418.00,129.99
1417.00,130.00
1416.00,130.02
1415.00,130.03
1414.00,130.03
1413.00,130.04
1412.00,130.04
1411.00,130.05
1410.00,130.05
1409.00,130.06
1408.00,130.05
1407.00,130.05
1406.00,130.06
1405.00,130.06
1404.00,130.06
1403.00,130.06
1402.00,130.06
1401.00,130.06
1400.00,130.06
1399.00,130.06
1398.00,130.06
1397.00,130.06
1396.00,130.06
1395.00,130.07
1394.00,130.07
1393.00,130.07
1392.00,130.05
1391.00,130.04
1390.00,130.04
1389.00,130.05
1388.00,130.05
1387.00,130.05
1386.00,130.04
1385.00,130.02
1384.00,130.01
1383.00,130.00
1382.00,129.99
1381.00,129.98
1380.00,129.98
1379.00,129.98
1378.00,129.97
1377.00,129.97
1376.00,129.97
1375.00,129.97
1374.00,129.97
1373.00,129.97
1372.00,129.98
1371.00,129.98
1370.00,129.98
1369.00,129.98
1368.00,129.98
1367.00,129.98
1366.00,129.98
1365.00,129.98
1364.00,129.98
1363.00,129.99
1362.00,130.01
1361.00,130.03
1360.00,130.04
1359.00,130.04
1358.00,130.04
1357.00,130.04
1356.00,130.04
1355.00,130.05
1354.00,130.06
1353.00,130.06
1352.00,130.07
1351.00,130.07
1350.00,130.07
1349.00,130.07
1348.00,130.07
1347.00,130.07
1346.00,130.07
1345.00,130.06
1344.00,130.06
1343.00,130.05
1342.00,130.05
1341.00,130.04
1340.00,130.04
1339.00,130.04
1338.00,130.04
1337.00,130.03
1336.00,130.03
1335.00,130.02
1334.00,130.01
1333.00,130.01
1332.00,130.00
1331.00,129.99
1330.00,129.99
1329.00,129.98
1328.00,129.98
1327.00,129.97
1326.00,129.97
1325.00,129.97
1324.00,129.97
1323.00,129.97
1322.00,129.97
1321.00,129.97
1320.00,129.97
1319.00,129.97
1318.00,129.98
1317.00,129.99
1316.00,129.99
1315.00,129.99
1314.00,130.00
1313.00,130.00
1312.00,130.01
1311.00,130.02
1310.00,130.02
1309.00,130.03
1308.00,130.04
1307.00,130.04
1306.00,130.05
1305.00,130.05
1304.00,130.05
1303.00,130.06
1302.00,130.06
1301.00,130.07
1300.00,130.07
1299.00,130.07
1298.00,130.07
1297.00,130.07
1296.00,130.07
1295.00,130.06
1294.00,130.06
1293.00,130.05
1292.00,130.05
1291.00,130.04
1290.00,130.04
1289.00,130.03
1288.00,130.02
1287.00,130.01
1286.00,130.00
1285.00,129.99
1284.00,129.99
1283.00,129.98
1282.00,129.97
1281.00,129.97
1280.00,129.96
1279.00,129.95
1278.00,129.94
1277.00,129.94
1276.00,129.93
1275.00,129.93
1274.00,129.92
1273.00,129.92
1272.00,129.91
1271.00,129.91
1270.00,129.90
1269.00,129.90
1268.00,129.90
1267.00,129.90
1266.00,129.90
1265.00,129.90
1264.00,129.90
1263.00,129.90
1262.00,129.91
1261.00,129.91
1260.00,129.92
1259.00,129.92
1258.00,129.93
1257.00,129.95
1256.00,129.96
1255.00,129.97
1254.00,129.98
1253.00,129.99
1252.00,129.99
1251.00,130.00
1250.00,130.01
1249.00,130.02
1248.00,130.02
1247.00,130.03
1246.00,130.03
1245.00,130.03
1244.00,130.03
1243.00,130.03
1242.00,130.03
1241.00,130.02
1240.00,130.02
1239.00,130.02
1238.00,130.01
1237.00,130.01
1236.00,130.00
1235.00,129.99
1234.00,129.98
1233.00,129.97
1232.00,129.96
1231.00,129.95
1230.00,129.95
1229.00,129.94
1228.00,129.93
1227.00,129.92
1226.00,129.91
1225.00,129.90
1224.00,129.89
1223.00,129.88
1222.00,129.88
1221.00,129.87
1220.00,129.87
1219.00,129.86
1218.00,129.85
1217.00,129.85
1216.00,129.84
1215.00,129.84
1214.00,129.84
1213.00,129.85
1212.00,129.85
1211.00,129.85
1210.00,129.85
1209.00,129.85
1208.00,129.86
1207.00,129.86
1206.00,129.87
1205.00,129.87
1204.00,129.88
1203.00,129.89
1202.00,129.89
1201.00,129.90
1200.00,129.90
1199.00,129.91
1198.00,129.91
1197.00,129.91
1196.00,129.92
1195.00,129.93
1194.00,129.93
1193.00,129.94
1192.00,129.94
1191.00,129.93
1190.00,129.93
1189.00,129.93
1188.00,129.93
1187.00,129.93
1186.00,129.92
1185.00,129.92
1184.00,129.92
1183.00,129.91
1182.00,129.90
1181.00,129.89
1180.00,129.88
1179.00,129.87
1178.00,129.86
1177.00,129.86
1176.00,129.85
1175.00,129.84
1174.00,129.84
1173.00,129.83
1172.00,129.82
1171.00,129.81
1170.00,129.80
1169.00,129.79
1168.00,129.79
1167.00,129.79
1166.00,129.78
1165.00,129.78
1164.00,129.77
1163.00,129.77
1162.00,129.76
1161.00,129.76
1160.00,129.76
1159.00,129.76
1158.00,129.77
1157.00,129.77
1156.00,129.77
1155.00,129.77
1154.00,129.77
1153.00,129.78
1152.00,129.78
1151.00,129.79
1150.00,129.80
1149.00,129.80
1148.00,129.81
1147.00,129.81
1146.00,129.81
1145.00,129.82
1144.00,129.82
1143.00,129.83
1142.00,129.83
1141.00,129.84
1140.00,129.84
1139.00,129.84
1138.00,129.84
1137.00,129.84
1136.00,129.84
1135.00,129.84
1134.00,129.84
1133.00,129.84
1132.00,129.84
1131.00,129.84
1130.00,129.83
1129.00,129.82
1128.00,129.81
1127.00,129.81
1126.00,129.80
1125.00,129.80
1124.00,129.79
1123.00,129.78
1122.00,129.78
1121.00,129.77
1120.00,129.76
1119.00,129.76
1118.00,129.75
1117.00,129.75
1116.00,129.74
1115.00,129.73
1114.00,129.73
1113.00,129.72
1112.00,129.72
1111.00,129.72
1110.00,129.71
1109.00,129.71
1108.00,129.71
1107.00,129.71
1106.00,129.71
1105.00,129.71
1104.00,129.71
1103.00,129.71
1102.00,129.71
1101.00,129.71
1100.00,129.71
1099.00,129.72
1098.00,129.72
1097.00,129.73
1096.00,129.73
1095.00,129.73
1094.00,129.73
1093.00,129.73
1092.00,129.74
1091.00,129.74
1090.00,129.75
1089.00,129.74
1088.00,129.74
1087.00,129.74
1086.00,129.74
1085.00,129.73
1084.00,129.73
1083.00,129.73
1082.00,129.73
1081.00,129.73
1080.00,129.72
1079.00,129.71
1078.00,129.70
1077.00,129.69
1076.00,129.68
1075.00,129.67
1074.00,129.67
1073.00,129.66
1072.00,129.65
1071.00,129.65
1070.00,129.64
1069.00,129.63
1068.00,129.61
1067.00,129.61
1066.00,129.60
1065.00,129.60
1064.00,129.60
1063.00,129.59
1062.00,129.58
1061.00,129.58
1060.00,129.57
1059.00,129.57
1058.00,129.57
1057.00,129.57
1056.00,129.57
1055.00,129.57
1054.00,129.57
1053.00,129.56
1052.00,129.56
1051.00,129.56
1050.00,129.56
1049.00,129.57
1048.00,129.59
1047.00,129.61
1046.00,129.63
1045.00,129.65
1044.00,129.66
1043.00,129.67
1042.00,129.68
1041.00,129.69
1040.00,129.70
1039.00,129.71
1038.00,129.73
1037.00,129.75
1036.00,129.76
1035.00,129.76
1034.00,129.76
1033.00,129.76
1032.00,129.76
1031.00,129.77
1030.00,129.78
1029.00,129.79
1028.00,129.80
1027.00,129.80
1026.00,129.80
1025.00,129.80
1024.00,129.80
1023.00,129.80
1022.00,129.81
1021.00,129.81
1020.00,129.82
1019.00,129.82
1018.00,129.82
1017.00,129.82
1016.00,129.82
1015.00,129.82
1014.00,129.82
1013.00,129.82
1012.00,129.83
1011.00,129.84
1010.00,129.84
1009.00,129.85
1008.00,129.85
1007.00,129.85
1006.00,129.85
1005.00,129.86
1004.00,129.87
1003.00,129.89
1002.00,129.90
1001.00,129.91
1000.00,129.92
999.00,129.92
998.00,129.93
997.00,129.94
996.00,129.95
995.00,129.97
994.00,129.98
993.00,130.00
992.00,130.01
991.00,130.02
990.00,130.03
989.00,130.04
988.00,130.05
987.00,130.06
986.00,130.07
985.00,130.09
984.00,130.10
983.00,130.11
982.00,130.12
981.00,130.12
980.00,130.12
979.00,130.12
978.00,130.13
977.00,130.14
976.00,130.15
975.00,130.15
974.00,130.16
973.00,130.16
972.00,130.15
971.00,130.15
970.00,130.14
969.00,130.15
968.00,130.15
967.00,130.15
966.00,130.15
965.00,130.15
964.00,130.14
963.00,130.14
962.00,130.13
961.00,130.13
960.00,130.13
959.00,130.13
958.00,130.13
957.00,130.14
956.00,130.14
955.00,130.14
954.00,130.14
953.00,130.14
952.00,130.14
951.00,130.14
950.00,130.15
949.00,130.16
948.00,130.18
947.00,130.18
946.00,130.19
945.00,130.19
944.00,130.19
943.00,130.20
942.00,130.21
941.00,130.22
940.00,130.24
939.00,130.25
938.00,130.26
937.00,130.26
936.00,130.27
935.00,130.28
934.00,130.28
933.00,130.29
932.00,130.31
931.00,130.32
930.00,130.32
929.00,130.33
928.00,130.33
927.00,130.33
926.00,130.33
925.00,130.34
924.00,130.34
923.00,130.34
922.00,130.35
921.00,130.35
920.00,130.35
919.00,130.34
918.00,130.33
917.00,130.33
916.00,130.32
915.00,130.32
914.00,130.32
913.00,130.32
912.00,130.32
911.00,130.31
910.00,130.30
909.00,130.30
908.00,130.29
907.00,130.29
906.00,130.30
905.00,130.30
904.00,130.30
903.00,130.29
902.00,130.29
901.00,130.29
900.00,130.29
899.00,130.29
898.00,130.29
897.00,130.30
896.00,130.31
895.00,130.32
894.00,130.32
893.00,130.33
892.00,130.33
891.00,130.33
890.00,130.34
889.00,130.35
888.00,130.36
887.00,130.37
886.00,130.38
885.00,130.38
884.00,130.38
883.00,130.38
882.00,130.39
881.00,130.39
880.00,130.40
879.00,130.41
878.00,130.42
877.00,130.42
876.00,130.42
875.00,130.42
874.00,130.42
873.00,130.42
872.00,130.42
871.00,130.43
870.00,130.43
869.00,130.43
868.00,130.43
867.00,130.43
866.00,130.42
865.00,130.42
864.00,130.41
863.00,130.40
862.00,130.40
861.00,130.40
860.00,130.40
859.00,130.39
858.00,130.39
857.00,130.38
856.00,130.38
855.00,130.37
854.00,130.37
853.00,130.37
852.00,130.37
851.00,130.37
850.00,130.36
849.00,130.36
848.00,130.35
847.00,130.35
846.00,130.36
845.00,130.36
844.00,130.36
843.00,130.36
842.00,130.37
841.00,130.37
840.00,130.37
839.00,130.37
838.00,130.38
837.00,130.38
836.00,130.38
835.00,130.39
834.00,130.40
833.00,130.40
832.00,130.40
831.00,130.40
830.00,130.40
829.00,130.40
828.00,130.39
827.00,130.39
826.00,130.40
825.00,130.40
824.00,130.41
823.00,130.40
822.00,130.40
821.00,130.40
820.00,130.40
819.00,130.40
818.00,130.41
817.00,130.41
816.00,130.40
815.00,130.40
814.00,130.39
813.00,130.38
812.00,130.38
811.00,130.38
810.00,130.37
809.00,130.37
808.00,130.37
807.00,130.37
806.00,130.36
805.00,130.36
804.00,130.36
803.00,130.35
802.00,130.35
801.00,130.34
800.00,130.34
799.00,130.34
798.00,130.34
797.00,130.35
796.00,130.34
795.00,130.34
794.00,130.34
793.00,130.34
792.00,130.35
791.00,130.35
790.00,130.36
789.00,130.36
788.00,130.37
787.00,130.37
786.00,130.38
785.00,130.39
784.00,130.39
783.00,130.40
782.00,130.40
781.00,130.40
780.00,130.41
779.00,130.41
778.00,130.42
777.00,130.42
776.00,130.43
775.00,130.43
774.00,130.43
773.00,130.43
772.00,130.43
771.00,130.43
770.00,130.43
769.00,130.43
768.00,130.43
767.00,130.43
766.00,130.43
765.00,130.43
764.00,130.42
763.00,130.42
762.00,130.41
761.00,130.41
760.00,130.40
759.00,130.40
758.00,130.40
757.00,130.40
756.00,130.39
755.00,130.38
754.00,130.37
753.00,130.37
752.00,130.36
751.00,130.36
750.00,130.35
749.00,130.34
748.00,130.34
747.00,130.33
746.00,130.33
745.00,130.33
744.00,130.33
743.00,130.33
742.00,130.33
741.00,130.33
740.00,130.33
739.00,130.33
738.00,130.33
737.00,130.33
736.00,130.33
735.00,130.33
734.00,130.34
733.00,130.34
732.00,130.35
731.00,130.36
730.00,130.36
729.00,130.37
728.00,130.37
727.00,130.37
726.00,130.37
725.00,130.37
724.00,130.38
723.00,130.39
722.00,130.40
721.00,130.40
720.00,130.40
719.00,130.40
718.00,130.40
717.00,130.41
716.00,130.41
715.00,130.41
714.00,130.40
713.00,130.40
712.00,130.40
711.00,130.40
710.00,130.40
709.00,130.39
708.00,130.39
707.00,130.38
706.00,130.38
705.00,130.38
704.00,130.38
703.00,130.37
702.00,130.36
701.00,130.35
700.00,130.34
699.00,130.34
698.00,130.34
697.00,130.34
696.00,130.34
695.00,130.33
694.00,130.32
693.00,130.31
692.00,130.30
691.00,130.29
690.00,130.29
689.00,130.28
688.00,130.28
687.00,130.28
686.00,130.28
685.00,130.28
684.00,130.29
683.00,130.30
682.00,130.30
681.00,130.30
680.00,130.30
679.00,130.30
678.00,130.30
677.00,130.30
676.00,130.30
675.00,130.30
674.00,130.29
673.00,130.30
672.00,130.32
671.00,130.35
670.00,130.36
669.00,130.36
668.00,130.34
667.00,130.31
666.00,130.30
665.00,130.30
664.00,130.30
663.00,130.30
662.00,130.30
661.00,130.30
660.00,130.29
659.00,130.28
658.00,130.28
657.00,130.27
656.00,130.25
655.00,130.24
654.00,130.23
653.00,130.23
652.00,130.22
651.00,130.22
650.00,130.22
649.00,130.21
648.00,130.19
647.00,130.18
646.00,130.17
645.00,130.17
644.00,130.17
643.00,130.17
642.00,130.17
641.00,130.16
640.00,130.15
639.00,130.13
638.00,130.12
637.00,130.12
636.00,130.12
635.00,130.12
634.00,130.12
633.00,130.11
632.00,130.10
631.00,130.09
630.00,130.09
629.00,130.09
628.00,130.09
627.00,130.08
626.00,130.08
625.00,130.08
624.00,130.09
623.00,130.09
622.00,130.09
621.00,130.09
620.00,130.08
619.00,130.08
618.00,130.09
617.00,130.10
616.00,130.10
615.00,130.10
614.00,130.09
613.00,130.08
612.00,130.08
611.00,130.08
610.00,130.09
609.00,130.09
608.00,130.09
607.00,130.08
606.00,130.08
605.00,130.07
604.00,130.07
603.00,130.07
602.00,130.07
601.00,130.07
600.00,130.06
599.00,130.07
598.00,130.07
597.00,130.06
596.00,130.04
595.00,130.03
594.00,130.02
593.00,130.02
592.00,130.02
591.00,130.02
590.00,130.02
589.00,130.02
588.00,130.01
587.00,129.99
586.00,129.98
585.00,129.98
584.00,129.98
583.00,129.99
582.00,129.99
581.00,129.98
580.00,129.97
579.00,129.97
578.00,129.97
577.00,129.98
576.00,129.97
575.00,129.96
574.00,129.96
573.00,129.95
572.00,129.95
571.00,129.95
570.00,129.96
569.00,129.96
568.00,129.95
567.00,129.94
566.00,129.94
565.00,129.93
564.00,129.93
563.00,129.93
562.00,129.93
561.00,129.93
560.00,129.92
559.00,129.91
558.00,129.91
557.00,129.93
556.00,129.94
555.00,129.95
554.00,129.95
553.00,129.96
552.00,129.95
551.00,129.95
550.00,129.95
549.00,129.95
548.00,129.95
547.00,129.95
546.00,129.96
545.00,129.97
544.00,129.97
543.00,129.96
542.00,129.96
541.00,129.95
540.00,129.95
539.00,129.96
538.00,129.98
537.00,130.00
536.00,130.01
535.00,130.01
534.00,130.01
533.00,130.01
532.00,130.03
531.00,130.05
530.00,130.09
529.00,130.12
528.00,130.13
527.00,130.14
526.00,130.15
525.00,130.16
524.00,130.17
523.00,130.18
522.00,130.20
521.00,130.22
520.00,130.23
519.00,130.25
518.00,130.27
517.00,130.30
516.00,130.31
515.00,130.32
514.00,130.32
513.00,130.33
512.00,130.34
511.00,130.36
510.00,130.38
509.00,130.38
508.00,130.38
507.00,130.38
506.00,130.38
505.00,130.40
504.00,130.42
503.00,130.43
502.00,130.44
501.00,130.43
500.00,130.42
