Created as New Dataset,Sample 361 By Analyst Date Thursday, February 06 2025
cm-1,%T
4000.00,96.60
3999.00,96.60
3998.00,96.60
3997.00,96.59
3996.00,96.59
3995.00,96.59
3994.00,96.59
3993.00,96.59
3992.00,96.59
3991.00,96.59
3990.00,96.59
3989.00,96.59
3988.00,96.58
3987.00,96.58
3986.00,96.58
3985.00,96.58
3984.00,96.58
3983.00,96.58
3982.00,96.58
3981.00,96.58
3980.00,96.58
3979.00,96.58
3978.00,96.58
3977.00,96.58
3976.00,96.58
3975.00,96.58
3974.00,96.58
3973.00,96.58
3972.00,96.58
3971.00,96.58
3970.00,96.58
3969.00,96.58
3968.00,96.59
3967.00,96.59
3966.00,96.59
3965.00,96.59
3964.00,96.59
3963.00,96.59
3962.00,96.59
3961.00,96.59
3960.00,96.59
3959.00,96.60
3958.00,96.60
3957.00,96.60
3956.00,96.60
3955.00,96.60
3954.00,96.60
3953.00,96.60
3952.00,96.60
3951.00,96.59
3950.00,96.59
3949.00,96.59
3948.00,96.59
3947.00,96.59
3946.00,96.59
3945.00,96.59
3944.00,96.59
3943.00,96.59
3942.00,96.59
3941.00,96.59
3940.00,96.58
3939.00,96.59
3938.00,96.59
3937.00,96.58
3936.00,96.58
3935.00,96.57
3934.00,96.57
3933.00,96.57
3932.00,96.57
3931.00,96.57
3930.00,96.57
3929.00,96.56
3928.00,96.56
3927.00,96.56
3926.00,96.57
3925.00,96.57
3924.00,96.57
3923.00,96.56
3922.00,96.56
3921.00,96.56
3920.00,96.56
3919.00,96.56
3918.00,96.57
3917.00,96.57
3916.00,96.57
3915.00,96.58
3914.00,96.58
3913.00,96.59
3912.00,96.59
3911.00,96.60
3910.00,96.59
3909.00,96.58
3908.00,96.57
3907.00,96.56
3906.00,96.55
3905.00,96.55
3904.00,96.54
3903.00,96.53
3902.00,96.53
3901.00,96.54
3900.00,96.55
3899.00,96.57
3898.00,96.57
3897.00,96.57
3896.00,96.57
3895.00,96.57
3894.00,96.57
3893.00,96.57
3892.00,96.57
3891.00,96.57
3890.00,96.55
3889.00,96.53
3888.00,96.53
3887.00,96.55
3886.00,96.56
3885.00,96.55
3884.00,96.53
3883.00,96.52
3882.00,96.54
3881.00,96.55
3880.00,96.56
3879.00,96.55
3878.00,96.54
3877.00,96.54
3876.00,96.55
3875.00,96.55
3874.00,96.54
3873.00,96.51
3872.00,96.50
3871.00,96.51
3870.00,96.53
3869.00,96.52
3868.00,96.50
3867.00,96.50
3866.00,96.52
3865.00,96.54
3864.00,96.55
3863.00,96.55
3862.00,96.55
3861.00,96.56
3860.00,96.56
3859.00,96.55
3858.00,96.52
3857.00,96.48
3856.00,96.44
3855.00,96.43
3854.00,96.46
3853.00,96.48
3852.00,96.47
3851.00,96.47
3850.00,96.50
3849.00,96.54
3848.00,96.57
3847.00,96.58
3846.00,96.58
3845.00,96.58
3844.00,96.57
3843.00,96.56
3842.00,96.54
3841.00,96.52
3840.00,96.51
3839.00,96.51
3838.00,96.51
3837.00,96.51
3836.00,96.51
3835.00,96.51
3834.00,96.53
3833.00,96.54
3832.00,96.55
3831.00,96.56
3830.00,96.55
3829.00,96.56
3828.00,96.56
3827.00,96.56
3826.00,96.55
3825.00,96.53
3824.00,96.51
3823.00,96.52
3822.00,96.53
3821.00,96.53
3820.00,96.50
3819.00,96.48
3818.00,96.49
3817.00,96.52
3816.00,96.55
3815.00,96.55
3814.00,96.54
3813.00,96.55
3812.00,96.56
3811.00,96.56
3810.00,96.55
3809.00,96.55
3808.00,96.55
3807.00,96.56
3806.00,96.54
3805.00,96.52
3804.00,96.51
3803.00,96.53
3802.00,96.55
3801.00,96.55
3800.00,96.54
3799.00,96.53
3798.00,96.55
3797.00,96.58
3796.00,96.59
3795.00,96.59
3794.00,96.59
3793.00,96.60
3792.00,96.60
3791.00,96.61
3790.00,96.60
3789.00,96.60
3788.00,96.59
3787.00,96.59
3786.00,96.59
3785.00,96.59
3784.00,96.58
3783.00,96.58
3782.00,96.57
3781.00,96.58
3780.00,96.58
3779.00,96.58
3778.00,96.58
3777.00,96.57
3776.00,96.57
3775.00,96.58
3774.00,96.57
3773.00,96.56
3772.00,96.55
3771.00,96.56
3770.00,96.56
3769.00,96.55
3768.00,96.54
3767.00,96.55
3766.00,96.56
3765.00,96.56
3764.00,96.56
3763.00,96.55
3762.00,96.55
3761.00,96.56
3760.00,96.56
3759.00,96.56
3758.00,96.55
3757.00,96.54
3756.00,96.53
3755.00,96.51
3754.00,96.49
3753.00,96.47
3752.00,96.47
3751.00,96.47
3750.00,96.48
3749.00,96.46
3748.00,96.44
3747.00,96.43
3746.00,96.45
3745.00,96.49
3744.00,96.51
3743.00,96.50
3742.00,96.49
3741.00,96.51
3740.00,96.53
3739.00,96.53
3738.00,96.51
3737.00,96.51
3736.00,96.51
3735.00,96.51
3734.00,96.51
3733.00,96.52
3732.00,96.53
3731.00,96.54
3730.00,96.54
3729.00,96.54
3728.00,96.55
3727.00,96.56
3726.00,96.56
3725.00,96.55
3724.00,96.55
3723.00,96.55
3722.00,96.56
3721.00,96.56
3720.00,96.56
3719.00,96.57
3718.00,96.57
3717.00,96.56
3716.00,96.55
3715.00,96.53
3714.00,96.52
3713.00,96.52
3712.00,96.53
3711.00,96.53
3710.00,96.54
3709.00,96.55
3708.00,96.55
3707.00,96.56
3706.00,96.56
3705.00,96.56
3704.00,96.56
3703.00,96.57
3702.00,96.57
3701.00,96.57
3700.00,96.57
3699.00,96.57
3698.00,96.58
3697.00,96.59
3696.00,96.58
3695.00,96.57
3694.00,96.56
3693.00,96.54
3692.00,96.53
3691.00,96.52
3690.00,96.51
3689.00,96.52
3688.00,96.53
3687.00,96.53
3686.00,96.53
3685.00,96.55
3684.00,96.57
3683.00,96.57
3682.00,96.57
3681.00,96.56
3680.00,96.54
3679.00,96.51
3678.00,96.48
3677.00,96.48
3676.00,96.49
3675.00,96.48
3674.00,96.46
3673.00,96.44
3672.00,96.46
3671.00,96.49
3670.00,96.51
3669.00,96.51
3668.00,96.50
3667.00,96.52
3666.00,96.54
3665.00,96.55
3664.00,96.56
3663.00,96.56
3662.00,96.56
3661.00,96.55
3660.00,96.54
3659.00,96.53
3658.00,96.53
3657.00,96.54
3656.00,96.54
3655.00,96.52
3654.00,96.50
3653.00,96.49
3652.00,96.48
3651.00,96.48
3650.00,96.48
3649.00,96.49
3648.00,96.50
3647.00,96.51
3646.00,96.53
3645.00,96.54
3644.00,96.56
3643.00,96.58
3642.00,96.58
3641.00,96.58
3640.00,96.58
3639.00,96.58
3638.00,96.58
3637.00,96.58
3636.00,96.57
3635.00,96.57
3634.00,96.56
3633.00,96.54
3632.00,96.51
3631.00,96.49
3630.00,96.50
3629.00,96.52
3628.00,96.52
3627.00,96.51
3626.00,96.52
3625.00,96.54
3624.00,96.55
3623.00,96.54
3622.00,96.53
3621.00,96.52
3620.00,96.52
3619.00,96.52
3618.00,96.51
3617.00,96.51
3616.00,96.51
3615.00,96.51
3614.00,96.52
3613.00,96.51
3612.00,96.50
3611.00,96.50
3610.00,96.50
3609.00,96.52
3608.00,96.53
3607.00,96.53
3606.00,96.53
3605.00,96.53
3604.00,96.54
3603.00,96.54
3602.00,96.54
3601.00,96.55
3600.00,96.54
3599.00,96.54
3598.00,96.54
3597.00,96.54
3596.00,96.55
3595.00,96.55
3594.00,96.55
3593.00,96.55
3592.00,96.54
3591.00,96.53
3590.00,96.53
3589.00,96.53
3588.00,96.54
3587.00,96.54
3586.00,96.54
3585.00,96.55
3584.00,96.56
3583.00,96.56
3582.00,96.57
3581.00,96.57
3580.00,96.57
3579.00,96.57
3578.00,96.57
3577.00,96.57
3576.00,96.57
3575.00,96.56
3574.00,96.56
3573.00,96.55
3572.00,96.54
3571.00,96.53
3570.00,96.52
3569.00,96.51
3568.00,96.51
3567.00,96.51
3566.00,96.51
3565.00,96.51
3564.00,96.52
3563.00,96.52
3562.00,96.53
3561.00,96.53
3560.00,96.53
3559.00,96.54
3558.00,96.54
3557.00,96.54
3556.00,96.53
3555.00,96.53
3554.00,96.53
3553.00,96.54
3552.00,96.54
3551.00,96.53
3550.00,96.53
3549.00,96.53
3548.00,96.53
3547.00,96.53
3546.00,96.54
3545.00,96.54
3544.00,96.54
3543.00,96.55
3542.00,96.55
3541.00,96.56
3540.00,96.56
3539.00,96.56
3538.00,96.56
3537.00,96.56
3536.00,96.56
3535.00,96.56
3534.00,96.56
3533.00,96.56
3532.00,96.56
3531.00,96.56
3530.00,96.56
3529.00,96.56
3528.00,96.55
3527.00,96.55
3526.00,96.55
3525.00,96.55
3524.00,96.55
3523.00,96.55
3522.00,96.55
3521.00,96.55
3520.00,96.55
3519.00,96.55
3518.00,96.55
3517.00,96.55
3516.00,96.54
3515.00,96.54
3514.00,96.54
3513.00,96.54
3512.00,96.53
3511.00,96.53
3510.00,96.53
3509.00,96.53
3508.00,96.53
3507.00,96.52
3506.00,96.52
3505.00,96.52
3504.00,96.52
3503.00,96.52
3502.00,96.53
3501.00,96.53
3500.00,96.53
3499.00,96.53
3498.00,96.54
3497.00,96.54
3496.00,96.54
3495.00,96.54
3494.00,96.54
3493.00,96.54
3492.00,96.54
3491.00,96.55
3490.00,96.55
3489.00,96.55
3488.00,96.55
3487.00,96.55
3486.00,96.55
3485.00,96.55
3484.00,96.55
3483.00,96.55
3482.00,96.55
3481.00,96.55
3480.00,96.55
3479.00,96.56
3478.00,96.56
3477.00,96.56
3476.00,96.56
3475.00,96.56
3474.00,96.55
3473.00,96.55
3472.00,96.55
3471.00,96.55
3470.00,96.55
3469.00,96.54
3468.00,96.54
3467.00,96.54
3466.00,96.54
3465.00,96.53
3464.00,96.53
3463.00,96.53
3462.00,96.53
3461.00,96.53
3460.00,96.53
3459.00,96.52
3458.00,96.52
3457.00,96.52
3456.00,96.52
3455.00,96.52
3454.00,96.52
3453.00,96.52
3452.00,96.52
3451.00,96.52
3450.00,96.52
3449.00,96.52
3448.00,96.52
3447.00,96.52
3446.00,96.52
3445.00,96.52
3444.00,96.52
3443.00,96.52
3442.00,96.53
3441.00,96.53
3440.00,96.53
3439.00,96.53
3438.00,96.53
3437.00,96.54
3436.00,96.54
3435.00,96.54
3434.00,96.54
3433.00,96.54
3432.00,96.54
3431.00,96.54
3430.00,96.55
3429.00,96.55
3428.00,96.55
3427.00,96.55
3426.00,96.55
3425.00,96.55
3424.00,96.55
3423.00,96.55
3422.00,96.54
3421.00,96.54
3420.00,96.54
3419.00,96.54
3418.00,96.54
3417.00,96.54
3416.00,96.54
3415.00,96.54
3414.00,96.54
3413.00,96.54
3412.00,96.54
3411.00,96.53
3410.00,96.53
3409.00,96.53
3408.00,96.53
3407.00,96.53
3406.00,96.53
3405.00,96.53
3404.00,96.52
3403.00,96.52
3402.00,96.53
3401.00,96.53
3400.00,96.53
3399.00,96.53
3398.00,96.53
3397.00,96.53
3396.00,96.53
3395.00,96.53
3394.00,96.53
3393.00,96.54
3392.00,96.54
3391.00,96.54
3390.00,96.54
3389.00,96.55
3388.00,96.55
3387.00,96.55
3386.00,96.55
3385.00,96.55
3384.00,96.56
3383.00,96.56
3382.00,96.56
3381.00,96.56
3380.00,96.56
3379.00,96.57
3378.00,96.57
3377.00,96.57
3376.00,96.57
3375.00,96.57
3374.00,96.57
3373.00,96.57
3372.00,96.57
3371.00,96.57
3370.00,96.57
3369.00,96.57
3368.00,96.57
3367.00,96.57
3366.00,96.57
3365.00,96.56
3364.00,96.56
3363.00,96.56
3362.00,96.56
3361.00,96.56
3360.00,96.55
3359.00,96.55
3358.00,96.55
3357.00,96.55
3356.00,96.55
3355.00,96.54
3354.00,96.54
3353.00,96.54
3352.00,96.54
3351.00,96.54
3350.00,96.54
3349.00,96.54
3348.00,96.54
3347.00,96.54
3346.00,96.54
3345.00,96.54
3344.00,96.54
3343.00,96.54
3342.00,96.54
3341.00,96.54
3340.00,96.54
3339.00,96.54
3338.00,96.54
3337.00,96.54
3336.00,96.55
3335.00,96.55
3334.00,96.55
3333.00,96.55
3332.00,96.55
3331.00,96.56
3330.00,96.56
3329.00,96.56
3328.00,96.56
3327.00,96.56
3326.00,96.56
3325.00,96.56
3324.00,96.56
3323.00,96.56
3322.00,96.56
3321.00,96.56
3320.00,96.56
3319.00,96.56
3318.00,96.56
3317.00,96.56
3316.00,96.56
3315.00,96.56
3314.00,96.55
3313.00,96.55
3312.00,96.55
3311.00,96.55
3310.00,96.55
3309.00,96.54
3308.00,96.54
3307.00,96.54
3306.00,96.54
3305.00,96.53
3304.00,96.53
3303.00,96.53
3302.00,96.53
3301.00,96.53
3300.00,96.53
3299.00,96.53
3298.00,96.52
3297.00,96.52
3296.00,96.52
3295.00,96.52
3294.00,96.52
3293.00,96.52
3292.00,96.53
3291.00,96.53
3290.00,96.53
3289.00,96.53
3288.00,96.53
3287.00,96.54
3286.00,96.54
3285.00,96.54
3284.00,96.54
3283.00,96.54
3282.00,96.55
3281.00,96.55
3280.00,96.55
3279.00,96.55
3278.00,96.55
3277.00,96.56
3276.00,96.56
3275.00,96.56
3274.00,96.56
3273.00,96.56
3272.00,96.57
3271.00,96.57
3270.00,96.57
3269.00,96.57
3268.00,96.57
3267.00,96.57
3266.00,96.57
3265.00,96.57
3264.00,96.57
3263.00,96.57
3262.00,96.57
3261.00,96.56
3260.00,96.56
3259.00,96.56
3258.00,96.56
3257.00,96.55
3256.00,96.55
3255.00,96.55
3254.00,96.55
3253.00,96.54
3252.00,96.54
3251.00,96.54
3250.00,96.54
3249.00,96.54
3248.00,96.54
3247.00,96.54
3246.00,96.53
3245.00,96.53
3244.00,96.53
3243.00,96.53
3242.00,96.53
3241.00,96.53
3240.00,96.53
3239.00,96.53
3238.00,96.53
3237.00,96.53
3236.00,96.53
3235.00,96.53
3234.00,96.54
3233.00,96.54
3232.00,96.54
3231.00,96.54
3230.00,96.54
3229.00,96.54
3228.00,96.55
3227.00,96.55
3226.00,96.55
3225.00,96.55
3224.00,96.55
3223.00,96.55
3222.00,96.56
3221.00,96.56
3220.00,96.56
3219.00,96.56
3218.00,96.56
3217.00,96.56
3216.00,96.56
3215.00,96.56
3214.00,96.56
3213.00,96.56
3212.00,96.56
3211.00,96.56
3210.00,96.56
3209.00,96.55
3208.00,96.55
3207.00,96.55
3206.00,96.55
3205.00,96.55
3204.00,96.54
3203.00,96.54
3202.00,96.54
3201.00,96.54
3200.00,96.53
3199.00,96.53
3198.00,96.53
3197.00,96.53
3196.00,96.52
3195.00,96.52
3194.00,96.52
3193.00,96.52
3192.00,96.52
3191.00,96.52
3190.00,96.52
3189.00,96.52
3188.00,96.52
3187.00,96.52
3186.00,96.52
3185.00,96.52
3184.00,96.52
3183.00,96.52
3182.00,96.52
3181.00,96.53
3180.00,96.53
3179.00,96.53
3178.00,96.53
3177.00,96.53
3176.00,96.54
3175.00,96.54
3174.00,96.54
3173.00,96.54
3172.00,96.55
3171.00,96.55
3170.00,96.55
3169.00,96.55
3168.00,96.55
3167.00,96.55
3166.00,96.55
3165.00,96.55
3164.00,96.55
3163.00,96.55
3162.00,96.55
3161.00,96.55
3160.00,96.55
3159.00,96.55
3158.00,96.55
3157.00,96.55
3156.00,96.55
3155.00,96.54
3154.00,96.54
3153.00,96.54
3152.00,96.54
3151.00,96.54
3150.00,96.53
3149.00,96.53
3148.00,96.53
3147.00,96.53
3146.00,96.53
3145.00,96.52
3144.00,96.52
3143.00,96.52
3142.00,96.52
3141.00,96.52
3140.00,96.52
3139.00,96.51
3138.00,96.51
3137.00,96.51
3136.00,96.51
3135.00,96.51
3134.00,96.51
3133.00,96.51
3132.00,96.51
3131.00,96.51
3130.00,96.51
3129.00,96.52
3128.00,96.52
3127.00,96.52
3126.00,96.52
3125.00,96.52
3124.00,96.52
3123.00,96.53
3122.00,96.53
3121.00,96.53
3120.00,96.53
3119.00,96.53
3118.00,96.54
3117.00,96.54
3116.00,96.54
3115.00,96.54
3114.00,96.54
3113.00,96.54
3112.00,96.54
3111.00,96.54
3110.00,96.54
3109.00,96.54
3108.00,96.54
3107.00,96.54
3106.00,96.54
3105.00,96.54
3104.00,96.54
3103.00,96.53
3102.00,96.53
3101.00,96.53
3100.00,96.53
3099.00,96.53
3098.00,96.52
3097.00,96.52
3096.00,96.52
3095.00,96.52
3094.00,96.51
3093.00,96.51
3092.00,96.51
3091.00,96.51
3090.00,96.51
3089.00,96.50
3088.00,96.50
3087.00,96.50
3086.00,96.50
3085.00,96.50
3084.00,96.50
3083.00,96.50
3082.00,96.49
3081.00,96.49
3080.00,96.49
3079.00,96.49
3078.00,96.50
3077.00,96.50
3076.00,96.50
3075.00,96.50
3074.00,96.50
3073.00,96.50
3072.00,96.50
3071.00,96.51
3070.00,96.51
3069.00,96.51
3068.00,96.51
3067.00,96.52
3066.00,96.52
3065.00,96.52
3064.00,96.52
3063.00,96.52
3062.00,96.53
3061.00,96.53
3060.00,96.53
3059.00,96.53
3058.00,96.53
3057.00,96.53
3056.00,96.53
3055.00,96.53
3054.00,96.53
3053.00,96.53
3052.00,96.53
3051.00,96.52
3050.00,96.52
3049.00,96.52
3048.00,96.52
3047.00,96.52
3046.00,96.51
3045.00,96.51
3044.00,96.51
3043.00,96.51
3042.00,96.50
3041.00,96.50
3040.00,96.50
3039.00,96.50
3038.00,96.50
3037.00,96.49
3036.00,96.49
3035.00,96.49
3034.00,96.49
3033.00,96.49
3032.00,96.49
3031.00,96.49
3030.00,96.49
3029.00,96.49
3028.00,96.49
3027.00,96.49
3026.00,96.49
3025.00,96.49
3024.00,96.50
3023.00,96.50
3022.00,96.50
3021.00,96.50
3020.00,96.50
3019.00,96.51
3018.00,96.51
3017.00,96.51
3016.00,96.51
3015.00,96.52
3014.00,96.52
3013.00,96.52
3012.00,96.52
3011.00,96.52
3010.00,96.52
3009.00,96.53
3008.00,96.53
3007.00,96.53
3006.00,96.53
3005.00,96.53
3004.00,96.53
3003.00,96.53
3002.00,96.53
3001.00,96.53
3000.00,96.53
2999.00,96.52
2998.00,96.52
2997.00,96.52
2996.00,96.52
2995.00,96.52
2994.00,96.51
2993.00,96.51
2992.00,96.51
2991.00,96.51
2990.00,96.51
2989.00,96.50
2988.00,96.50
2987.00,96.50
2986.00,96.50
2985.00,96.49
2984.00,96.49
2983.00,96.49
2982.00,96.49
2981.00,96.49
2980.00,96.49
2979.00,96.49
2978.00,96.49
2977.00,96.49
2976.00,96.49
2975.00,96.49
2974.00,96.49
2973.00,96.49
2972.00,96.49
2971.00,96.49
2970.00,96.49
2969.00,96.49
2968.00,96.50
2967.00,96.50
2966.00,96.50
2965.00,96.50
2964.00,96.51
2963.00,96.51
2962.00,96.51
2961.00,96.51
2960.00,96.52
2959.00,96.52
2958.00,96.52
2957.00,96.52
2956.00,96.52
2955.00,96.53
2954.00,96.53
2953.00,96.53
2952.00,96.53
2951.00,96.53
2950.00,96.53
2949.00,96.53
2948.00,96.52
2947.00,96.52
2946.00,96.52
2945.00,96.52
2944.00,96.52
2943.00,96.52
2942.00,96.52
2941.00,96.51
2940.00,96.51
2939.00,96.51
2938.00,96.51
2937.00,96.50
2936.00,96.50
2935.00,96.50
2934.00,96.50
2933.00,96.50
2932.00,96.49
2931.00,96.49
2930.00,96.49
2929.00,96.49
2928.00,96.49
2927.00,96.49
2926.00,96.49
2925.00,96.49
2924.00,96.50
2923.00,96.50
2922.00,96.50
2921.00,96.50
2920.00,96.50
2919.00,96.50
2918.00,96.50
2917.00,96.50
2916.00,96.50
2915.00,96.51
2914.00,96.51
2913.00,96.51
2912.00,96.51
2911.00,96.51
2910.00,96.52
2909.00,96.52
2908.00,96.52
2907.00,96.52
2906.00,96.52
2905.00,96.53
2904.00,96.53
2903.00,96.53
2902.00,96.53
2901.00,96.53
2900.00,96.53
2899.00,96.53
2898.00,96.53
2897.00,96.53
2896.00,96.53
2895.00,96.53
2894.00,96.52
2893.00,96.52
2892.00,96.52
2891.00,96.52
2890.00,96.51
2889.00,96.51
2888.00,96.51
2887.00,96.51
2886.00,96.50
2885.00,96.50
2884.00,96.50
2883.00,96.50
2882.00,96.49
2881.00,96.49
2880.00,96.49
2879.00,96.49
2878.00,96.48
2877.00,96.48
2876.00,96.48
2875.00,96.48
2874.00,96.48
2873.00,96.48
2872.00,96.48
2871.00,96.48
2870.00,96.48
2869.00,96.48
2868.00,96.48
2867.00,96.49
2866.00,96.49
2865.00,96.49
2864.00,96.49
2863.00,96.49
2862.00,96.50
2861.00,96.50
2860.00,96.50
2859.00,96.50
2858.00,96.51
2857.00,96.51
2856.00,96.51
2855.00,96.51
2854.00,96.52
2853.00,96.52
2852.00,96.52
2851.00,96.52
2850.00,96.52
2849.00,96.53
2848.00,96.53
2847.00,96.53
2846.00,96.53
2845.00,96.53
2844.00,96.53
2843.00,96.53
2842.00,96.52
2841.00,96.52
2840.00,96.52
2839.00,96.52
2838.00,96.52
2837.00,96.51
2836.00,96.51
2835.00,96.51
2834.00,96.50
2833.00,96.50
2832.00,96.50
2831.00,96.50
2830.00,96.49
2829.00,96.49
2828.00,96.49
2827.00,96.49
2826.00,96.49
2825.00,96.48
2824.00,96.48
2823.00,96.48
2822.00,96.48
2821.00,96.48
2820.00,96.48
2819.00,96.48
2818.00,96.48
2817.00,96.48
2816.00,96.48
2815.00,96.48
2814.00,96.48
2813.00,96.49
2812.00,96.49
2811.00,96.49
2810.00,96.49
2809.00,96.49
2808.00,96.50
2807.00,96.50
2806.00,96.50
2805.00,96.51
2804.00,96.51
2803.00,96.51
2802.00,96.51
2801.00,96.51
2800.00,96.51
2799.00,96.52
2798.00,96.52
2797.00,96.52
2796.00,96.52
2795.00,96.52
2794.00,96.52
2793.00,96.52
2792.00,96.52
2791.00,96.52
2790.00,96.52
2789.00,96.52
2788.00,96.52
2787.00,96.52
2786.00,96.52
2785.00,96.51
2784.00,96.51
2783.00,96.51
2782.00,96.51
2781.00,96.50
2780.00,96.50
2779.00,96.50
2778.00,96.50
2777.00,96.49
2776.00,96.49
2775.00,96.49
2774.00,96.49
2773.00,96.49
2772.00,96.48
2771.00,96.48
2770.00,96.48
2769.00,96.48
2768.00,96.48
2767.00,96.48
2766.00,96.48
2765.00,96.48
2764.00,96.48
2763.00,96.48
2762.00,96.49
2761.00,96.49
2760.00,96.49
2759.00,96.49
2758.00,96.49
2757.00,96.49
2756.00,96.50
2755.00,96.50
2754.00,96.50
2753.00,96.50
2752.00,96.50
2751.00,96.51
2750.00,96.51
2749.00,96.51
2748.00,96.51
2747.00,96.52
2746.00,96.52
2745.00,96.52
2744.00,96.52
2743.00,96.52
2742.00,96.52
2741.00,96.52
2740.00,96.52
2739.00,96.52
2738.00,96.52
2737.00,96.52
2736.00,96.52
2735.00,96.52
2734.00,96.52
2733.00,96.51
2732.00,96.51
2731.00,96.51
2730.00,96.51
2729.00,96.51
2728.00,96.50
2727.00,96.50
2726.00,96.50
2725.00,96.50
2724.00,96.50
2723.00,96.49
2722.00,96.49
2721.00,96.49
2720.00,96.49
2719.00,96.49
2718.00,96.49
2717.00,96.48
2716.00,96.48
2715.00,96.48
2714.00,96.48
2713.00,96.48
2712.00,96.49
2711.00,96.49
2710.00,96.49
2709.00,96.49
2708.00,96.49
2707.00,96.49
2706.00,96.49
2705.00,96.49
2704.00,96.50
2703.00,96.50
2702.00,96.50
2701.00,96.51
2700.00,96.51
2699.00,96.51
2698.00,96.51
2697.00,96.52
2696.00,96.52
2695.00,96.52
2694.00,96.52
2693.00,96.52
2692.00,96.53
2691.00,96.53
2690.00,96.53
2689.00,96.53
2688.00,96.53
2687.00,96.53
2686.00,96.53
2685.00,96.53
2684.00,96.52
2683.00,96.52
2682.00,96.52
2681.00,96.52
2680.00,96.52
2679.00,96.51
2678.00,96.51
2677.00,96.51
2676.00,96.51
2675.00,96.50
2674.00,96.50
2673.00,96.50
2672.00,96.50
2671.00,96.49
2670.00,96.49
2669.00,96.49
2668.00,96.49
2667.00,96.49
2666.00,96.48
2665.00,96.48
2664.00,96.48
2663.00,96.48
2662.00,96.48
2661.00,96.48
2660.00,96.48
2659.00,96.48
2658.00,96.48
2657.00,96.49
2656.00,96.49
2655.00,96.49
2654.00,96.49
2653.00,96.49
2652.00,96.50
2651.00,96.50
2650.00,96.50
2649.00,96.51
2648.00,96.51
2647.00,96.51
2646.00,96.51
2645.00,96.52
2644.00,96.52
2643.00,96.52
2642.00,96.52
2641.00,96.53
2640.00,96.53
2639.00,96.53
2638.00,96.53
2637.00,96.53
2636.00,96.53
2635.00,96.53
2634.00,96.53
2633.00,96.53
2632.00,96.53
2631.00,96.53
2630.00,96.53
2629.00,96.53
2628.00,96.52
2627.00,96.52
2626.00,96.52
2625.00,96.52
2624.00,96.51
2623.00,96.51
2622.00,96.51
2621.00,96.51
2620.00,96.50
2619.00,96.50
2618.00,96.50
2617.00,96.49
2616.00,96.49
2615.00,96.49
2614.00,96.49
2613.00,96.49
2612.00,96.48
2611.00,96.48
2610.00,96.48
2609.00,96.48
2608.00,96.48
2607.00,96.48
2606.00,96.48
2605.00,96.49
2604.00,96.49
2603.00,96.49
2602.00,96.49
2601.00,96.49
2600.00,96.49
2599.00,96.50
2598.00,96.50
2597.00,96.50
2596.00,96.50
2595.00,96.50
2594.00,96.51
2593.00,96.51
2592.00,96.51
2591.00,96.52
2590.00,96.52
2589.00,96.52
2588.00,96.52
2587.00,96.52
2586.00,96.52
2585.00,96.52
2584.00,96.53
2583.00,96.53
2582.00,96.53
2581.00,96.53
2580.00,96.53
2579.00,96.53
2578.00,96.52
2577.00,96.52
2576.00,96.52
2575.00,96.52
2574.00,96.52
2573.00,96.51
2572.00,96.51
2571.00,96.51
2570.00,96.51
2569.00,96.50
2568.00,96.50
2567.00,96.50
2566.00,96.50
2565.00,96.49
2564.00,96.49
2563.00,96.49
2562.00,96.49
2561.00,96.49
2560.00,96.49
2559.00,96.48
2558.00,96.48
2557.00,96.48
2556.00,96.48
2555.00,96.48
2554.00,96.48
2553.00,96.48
2552.00,96.49
2551.00,96.49
2550.00,96.49
2549.00,96.49
2548.00,96.49
2547.00,96.50
2546.00,96.50
2545.00,96.50
2544.00,96.50
2543.00,96.51
2542.00,96.51
2541.00,96.51
2540.00,96.52
2539.00,96.52
2538.00,96.52
2537.00,96.52
2536.00,96.53
2535.00,96.53
2534.00,96.53
2533.00,96.53
2532.00,96.53
2531.00,96.53
2530.00,96.53
2529.00,96.53
2528.00,96.53
2527.00,96.53
2526.00,96.53
2525.00,96.53
2524.00,96.53
2523.00,96.53
2522.00,96.52
2521.00,96.52
2520.00,96.52
2519.00,96.52
2518.00,96.51
2517.00,96.51
2516.00,96.51
2515.00,96.51
2514.00,96.50
2513.00,96.50
2512.00,96.50
2511.00,96.50
2510.00,96.49
2509.00,96.49
2508.00,96.49
2507.00,96.49
2506.00,96.49
2505.00,96.49
2504.00,96.49
2503.00,96.49
2502.00,96.49
2501.00,96.49
2500.00,96.49
2499.00,96.49
2498.00,96.49
2497.00,96.50
2496.00,96.50
2495.00,96.50
2494.00,96.50
2493.00,96.50
2492.00,96.51
2491.00,96.51
2490.00,96.51
2489.00,96.52
2488.00,96.52
2487.00,96.52
2486.00,96.52
2485.00,96.53
2484.00,96.53
2483.00,96.53
2482.00,96.53
2481.00,96.54
2480.00,96.54
2479.00,96.54
2478.00,96.54
2477.00,96.54
2476.00,96.54
2475.00,96.54
2474.00,96.54
2473.00,96.54
2472.00,96.54
2471.00,96.53
2470.00,96.53
2469.00,96.53
2468.00,96.53
2467.00,96.53
2466.00,96.52
2465.00,96.52
2464.00,96.52
2463.00,96.52
2462.00,96.51
2461.00,96.51
2460.00,96.51
2459.00,96.50
2458.00,96.50
2457.00,96.50
2456.00,96.50
2455.00,96.50
2454.00,96.50
2453.00,96.49
2452.00,96.49
2451.00,96.49
2450.00,96.49
2449.00,96.49
2448.00,96.49
2447.00,96.49
2446.00,96.49
2445.00,96.50
2444.00,96.50
2443.00,96.50
2442.00,96.50
2441.00,96.50
2440.00,96.50
2439.00,96.50
2438.00,96.51
2437.00,96.51
2436.00,96.51
2435.00,96.51
2434.00,96.52
2433.00,96.52
2432.00,96.52
2431.00,96.52
2430.00,96.52
2429.00,96.53
2428.00,96.53
2427.00,96.53
2426.00,96.53
2425.00,96.53
2424.00,96.53
2423.00,96.53
2422.00,96.53
2421.00,96.52
2420.00,96.52
2419.00,96.52
2418.00,96.52
2417.00,96.52
2416.00,96.52
2415.00,96.51
2414.00,96.51
2413.00,96.51
2412.00,96.50
2411.00,96.50
2410.00,96.50
2409.00,96.50
2408.00,96.49
2407.00,96.49
2406.00,96.49
2405.00,96.49
2404.00,96.49
2403.00,96.48
2402.00,96.48
2401.00,96.48
2400.00,96.48
2399.00,96.48
2398.00,96.48
2397.00,96.48
2396.00,96.48
2395.00,96.48
2394.00,96.48
2393.00,96.48
2392.00,96.48
2391.00,96.48
2390.00,96.48
2389.00,96.48
2388.00,96.48
2387.00,96.48
2386.00,96.48
2385.00,96.47
2384.00,96.47
2383.00,96.46
2382.00,96.45
2381.00,96.44
2380.00,96.42
2379.00,96.41
2378.00,96.40
2377.00,96.39
2376.00,96.38
2375.00,96.37
2374.00,96.37
2373.00,96.38
2372.00,96.38
2371.00,96.39
2370.00,96.40
2369.00,96.40
2368.00,96.40
2367.00,96.40
2366.00,96.39
2365.00,96.39
2364.00,96.38
2363.00,96.37
2362.00,96.37
2361.00,96.37
2360.00,96.38
2359.00,96.38
2358.00,96.39
2357.00,96.39
2356.00,96.40
2355.00,96.42
2354.00,96.44
2353.00,96.46
2352.00,96.47
2351.00,96.47
2350.00,96.43
2349.00,96.40
2348.00,96.40
2347.00,96.42
2346.00,96.44
2345.00,96.44
2344.00,96.41
2343.00,96.37
2342.00,96.36
2341.00,96.37
2340.00,96.39
2339.00,96.41
2338.00,96.41
2337.00,96.41
2336.00,96.42
2335.00,96.42
2334.00,96.42
2333.00,96.42
2332.00,96.41
2331.00,96.42
2330.00,96.43
2329.00,96.43
2328.00,96.43
2327.00,96.42
2326.00,96.43
2325.00,96.44
2324.00,96.45
2323.00,96.46
2322.00,96.46
2321.00,96.46
2320.00,96.46
2319.00,96.47
2318.00,96.48
2317.00,96.49
2316.00,96.49
2315.00,96.48
2314.00,96.48
2313.00,96.48
2312.00,96.48
2311.00,96.47
2310.00,96.47
2309.00,96.46
2308.00,96.46
2307.00,96.45
2306.00,96.45
2305.00,96.45
2304.00,96.45
2303.00,96.45
2302.00,96.45
2301.00,96.45
2300.00,96.45
2299.00,96.45
2298.00,96.45
2297.00,96.45
2296.00,96.45
2295.00,96.45
2294.00,96.45
2293.00,96.45
2292.00,96.45
2291.00,96.46
2290.00,96.46
2289.00,96.46
2288.00,96.46
2287.00,96.47
2286.00,96.47
2285.00,96.47
2284.00,96.48
2283.00,96.48
2282.00,96.48
2281.00,96.48
2280.00,96.49
2279.00,96.49
2278.00,96.49
2277.00,96.49
2276.00,96.50
2275.00,96.50
2274.00,96.50
2273.00,96.51
2272.00,96.51
2271.00,96.51
2270.00,96.51
2269.00,96.51
2268.00,96.52
2267.00,96.52
2266.00,96.52
2265.00,96.52
2264.00,96.52
2263.00,96.52
2262.00,96.52
2261.00,96.51
2260.00,96.51
2259.00,96.51
2258.00,96.51
2257.00,96.51
2256.00,96.50
2255.00,96.50
2254.00,96.50
2253.00,96.50
2252.00,96.49
2251.00,96.49
2250.00,96.49
2249.00,96.48
2248.00,96.48
2247.00,96.48
2246.00,96.48
2245.00,96.47
2244.00,96.47
2243.00,96.47
2242.00,96.47
2241.00,96.47
2240.00,96.47
2239.00,96.47
2238.00,96.47
2237.00,96.47
2236.00,96.47
2235.00,96.47
2234.00,96.48
2233.00,96.48
2232.00,96.48
2231.00,96.48
2230.00,96.48
2229.00,96.49
2228.00,96.49
2227.00,96.49
2226.00,96.50
2225.00,96.50
2224.00,96.50
2223.00,96.51
2222.00,96.51
2221.00,96.51
2220.00,96.51
2219.00,96.51
2218.00,96.52
2217.00,96.52
2216.00,96.52
2215.00,96.52
2214.00,96.52
2213.00,96.52
2212.00,96.52
2211.00,96.52
2210.00,96.52
2209.00,96.52
2208.00,96.52
2207.00,96.52
2206.00,96.51
2205.00,96.51
2204.00,96.51
2203.00,96.51
2202.00,96.51
2201.00,96.50
2200.00,96.50
2199.00,96.50
2198.00,96.50
2197.00,96.49
2196.00,96.49
2195.00,96.49
2194.00,96.49
2193.00,96.48
2192.00,96.48
2191.00,96.48
2190.00,96.48
2189.00,96.48
2188.00,96.48
2187.00,96.48
2186.00,96.48
2185.00,96.48
2184.00,96.48
2183.00,96.48
2182.00,96.48
2181.00,96.48
2180.00,96.49
2179.00,96.49
2178.00,96.49
2177.00,96.49
2176.00,96.50
2175.00,96.50
2174.00,96.50
2173.00,96.50
2172.00,96.51
2171.00,96.51
2170.00,96.51
2169.00,96.51
2168.00,96.52
2167.00,96.52
2166.00,96.52
2165.00,96.52
2164.00,96.52
2163.00,96.52
2162.00,96.52
2161.00,96.52
2160.00,96.52
2159.00,96.52
2158.00,96.52
2157.00,96.52
2156.00,96.52
2155.00,96.52
2154.00,96.52
2153.00,96.52
2152.00,96.52
2151.00,96.51
2150.00,96.51
2149.00,96.51
2148.00,96.51
2147.00,96.50
2146.00,96.50
2145.00,96.50
2144.00,96.49
2143.00,96.49
2142.00,96.49
2141.00,96.49
2140.00,96.49
2139.00,96.48
2138.00,96.48
2137.00,96.48
2136.00,96.48
2135.00,96.48
2134.00,96.48
2133.00,96.48
2132.00,96.48
2131.00,96.48
2130.00,96.48
2129.00,96.49
2128.00,96.49
2127.00,96.49
2126.00,96.49
2125.00,96.49
2124.00,96.49
2123.00,96.49
2122.00,96.50
2121.00,96.50
2120.00,96.50
2119.00,96.50
2118.00,96.50
2117.00,96.51
2116.00,96.51
2115.00,96.51
2114.00,96.51
2113.00,96.51
2112.00,96.51
2111.00,96.52
2110.00,96.52
2109.00,96.52
2108.00,96.52
2107.00,96.52
2106.00,96.52
2105.00,96.52
2104.00,96.52
2103.00,96.52
2102.00,96.51
2101.00,96.51
2100.00,96.51
2099.00,96.51
2098.00,96.51
2097.00,96.50
2096.00,96.50
2095.00,96.50
2094.00,96.50
2093.00,96.49
2092.00,96.49
2091.00,96.49
2090.00,96.48
2089.00,96.48
2088.00,96.48
2087.00,96.48
2086.00,96.47
2085.00,96.47
2084.00,96.47
2083.00,96.47
2082.00,96.47
2081.00,96.47
2080.00,96.47
2079.00,96.47
2078.00,96.47
2077.00,96.47
2076.00,96.47
2075.00,96.47
2074.00,96.47
2073.00,96.48
2072.00,96.48
2071.00,96.48
2070.00,96.49
2069.00,96.49
2068.00,96.49
2067.00,96.49
2066.00,96.50
2065.00,96.50
2064.00,96.50
2063.00,96.51
2062.00,96.51
2061.00,96.51
2060.00,96.51
2059.00,96.52
2058.00,96.52
2057.00,96.52
2056.00,96.52
2055.00,96.52
2054.00,96.52
2053.00,96.52
2052.00,96.52
2051.00,96.52
2050.00,96.52
2049.00,96.52
2048.00,96.52
2047.00,96.51
2046.00,96.51
2045.00,96.51
2044.00,96.51
2043.00,96.50
2042.00,96.50
2041.00,96.50
2040.00,96.50
2039.00,96.49
2038.00,96.49
2037.00,96.49
2036.00,96.48
2035.00,96.48
2034.00,96.48
2033.00,96.48
2032.00,96.47
2031.00,96.47
2030.00,96.47
2029.00,96.47
2028.00,96.47
2027.00,96.47
2026.00,96.47
2025.00,96.47
2024.00,96.47
2023.00,96.48
2022.00,96.48
2021.00,96.48
2020.00,96.48
2019.00,96.49
2018.00,96.49
2017.00,96.49
2016.00,96.50
2015.00,96.50
2014.00,96.50
2013.00,96.50
2012.00,96.51
2011.00,96.51
2010.00,96.51
2009.00,96.51
2008.00,96.52
2007.00,96.52
2006.00,96.52
2005.00,96.52
2004.00,96.52
2003.00,96.52
2002.00,96.52
2001.00,96.52
2000.00,96.52
1999.00,96.52
1998.00,96.52
1997.00,96.52
1996.00,96.51
1995.00,96.51
1994.00,96.51
1993.00,96.51
1992.00,96.51
1991.00,96.50
1990.00,96.50
1989.00,96.49
1988.00,96.49
1987.00,96.48
1986.00,96.48
1985.00,96.48
1984.00,96.47
1983.00,96.47
1982.00,96.47
1981.00,96.47
1980.00,96.46
1979.00,96.46
1978.00,96.46
1977.00,96.46
1976.00,96.46
1975.00,96.46
1974.00,96.46
1973.00,96.46
1972.00,96.46
1971.00,96.46
1970.00,96.47
1969.00,96.47
1968.00,96.47
1967.00,96.47
1966.00,96.48
1965.00,96.48
1964.00,96.48
1963.00,96.48
1962.00,96.48
1961.00,96.48
1960.00,96.49
1959.00,96.49
1958.00,96.50
1957.00,96.50
1956.00,96.50
1955.00,96.50
1954.00,96.50
1953.00,96.50
1952.00,96.50
1951.00,96.50
1950.00,96.50
1949.00,96.50
1948.00,96.50
1947.00,96.50
1946.00,96.50
1945.00,96.50
1944.00,96.50
1943.00,96.50
1942.00,96.50
1941.00,96.49
1940.00,96.49
1939.00,96.49
1938.00,96.49
1937.00,96.49
1936.00,96.49
1935.00,96.48
1934.00,96.48
1933.00,96.48
1932.00,96.48
1931.00,96.48
1930.00,96.47
1929.00,96.47
1928.00,96.47
1927.00,96.47
1926.00,96.47
1925.00,96.47
1924.00,96.47
1923.00,96.47
1922.00,96.46
1921.00,96.46
1920.00,96.46
1919.00,96.47
1918.00,96.47
1917.00,96.47
1916.00,96.47
1915.00,96.47
1914.00,96.47
1913.00,96.48
1912.00,96.48
1911.00,96.48
1910.00,96.49
1909.00,96.49
1908.00,96.49
1907.00,96.49
1906.00,96.50
1905.00,96.50
1904.00,96.50
1903.00,96.51
1902.00,96.51
1901.00,96.51
1900.00,96.51
1899.00,96.51
1898.00,96.51
1897.00,96.51
1896.00,96.52
1895.00,96.51
1894.00,96.51
1893.00,96.51
1892.00,96.51
1891.00,96.51
1890.00,96.51
1889.00,96.51
1888.00,96.50
1887.00,96.50
1886.00,96.50
1885.00,96.50
1884.00,96.49
1883.00,96.49
1882.00,96.48
1881.00,96.48
1880.00,96.48
1879.00,96.48
1878.00,96.47
1877.00,96.47
1876.00,96.47
1875.00,96.46
1874.00,96.46
1873.00,96.46
1872.00,96.46
1871.00,96.46
1870.00,96.46
1869.00,96.46
1868.00,96.46
1867.00,96.46
1866.00,96.46
1865.00,96.46
1864.00,96.46
1863.00,96.46
1862.00,96.46
1861.00,96.47
1860.00,96.47
1859.00,96.47
1858.00,96.47
1857.00,96.47
1856.00,96.48
1855.00,96.48
1854.00,96.48
1853.00,96.48
1852.00,96.48
1851.00,96.49
1850.00,96.49
1849.00,96.49
1848.00,96.49
1847.00,96.49
1846.00,96.49
1845.00,96.49
1844.00,96.49
1843.00,96.49
1842.00,96.49
1841.00,96.49
1840.00,96.49
1839.00,96.49
1838.00,96.49
1837.00,96.49
1836.00,96.49
1835.00,96.48
1834.00,96.48
1833.00,96.48
1832.00,96.48
1831.00,96.48
1830.00,96.47
1829.00,96.46
1828.00,96.46
1827.00,96.46
1826.00,96.46
1825.00,96.46
1824.00,96.45
1823.00,96.45
1822.00,96.45
1821.00,96.45
1820.00,96.44
1819.00,96.44
1818.00,96.44
1817.00,96.44
1816.00,96.44
1815.00,96.44
1814.00,96.44
1813.00,96.44
1812.00,96.44
1811.00,96.44
1810.00,96.44
1809.00,96.44
1808.00,96.45
1807.00,96.45
1806.00,96.45
1805.00,96.45
1804.00,96.46
1803.00,96.46
1802.00,96.46
1801.00,96.47
1800.00,96.47
1799.00,96.47
1798.00,96.47
1797.00,96.48
1796.00,96.48
1795.00,96.48
1794.00,96.48
1793.00,96.48
1792.00,96.48
1791.00,96.47
1790.00,96.47
1789.00,96.47
1788.00,96.47
1787.00,96.47
1786.00,96.47
1785.00,96.47
1784.00,96.47
1783.00,96.47
1782.00,96.46
1781.00,96.46
1780.00,96.46
1779.00,96.46
1778.00,96.45
1777.00,96.45
1776.00,96.45
1775.00,96.45
1774.00,96.45
1773.00,96.45
1772.00,96.44
1771.00,96.43
1770.00,96.43
1769.00,96.42
1768.00,96.42
1767.00,96.42
1766.00,96.42
1765.00,96.42
1764.00,96.42
1763.00,96.42
1762.00,96.42
1761.00,96.42
1760.00,96.42
1759.00,96.43
1758.00,96.43
1757.00,96.43
1756.00,96.43
1755.00,96.43
1754.00,96.43
1753.00,96.43
1752.00,96.44
1751.00,96.44
1750.00,96.45
1749.00,96.45
1748.00,96.45
1747.00,96.45
1746.00,96.45
1745.00,96.46
1744.00,96.46
1743.00,96.46
1742.00,96.46
1741.00,96.46
1740.00,96.46
1739.00,96.46
1738.00,96.46
1737.00,96.45
1736.00,96.45
1735.00,96.45
1734.00,96.46
1733.00,96.47
1732.00,96.47
1731.00,96.47
1730.00,96.46
1729.00,96.46
1728.00,96.45
1727.00,96.45
1726.00,96.45
1725.00,96.44
1724.00,96.44
1723.00,96.44
1722.00,96.43
1721.00,96.43
1720.00,96.43
1719.00,96.43
1718.00,96.42
1717.00,96.42
1716.00,96.42
1715.00,96.42
1714.00,96.42
1713.00,96.42
1712.00,96.42
1711.00,96.42
1710.00,96.42
1709.00,96.42
1708.00,96.42
1707.00,96.42
1706.00,96.42
1705.00,96.42
1704.00,96.42
1703.00,96.42
1702.00,96.43
1701.00,96.44
1700.00,96.44
1699.00,96.44
1698.00,96.43
1697.00,96.43
1696.00,96.44
1695.00,96.45
1694.00,96.46
1693.00,96.46
1692.00,96.46
1691.00,96.46
1690.00,96.46
1689.00,96.46
1688.00,96.46
1687.00,96.46
1686.00,96.47
1685.00,96.48
1684.00,96.48
1683.00,96.48
1682.00,96.47
1681.00,96.47
1680.00,96.46
1679.00,96.46
1678.00,96.46
1677.00,96.45
1676.00,96.45
1675.00,96.45
1674.00,96.45
1673.00,96.45
1672.00,96.45
1671.00,96.45
1670.00,96.45
1669.00,96.44
1668.00,96.43
1667.00,96.43
1666.00,96.43
1665.00,96.43
1664.00,96.43
1663.00,96.43
1662.00,96.42
1661.00,96.42
1660.00,96.42
1659.00,96.42
1658.00,96.42
1657.00,96.42
1656.00,96.41
1655.00,96.41
1654.00,96.42
1653.00,96.42
1652.00,96.42
1651.00,96.43
1650.00,96.43
1649.00,96.43
1648.00,96.43
1647.00,96.43
1646.00,96.44
1645.00,96.44
1644.00,96.44
1643.00,96.45
1642.00,96.45
1641.00,96.45
1640.00,96.45
1639.00,96.46
1638.00,96.46
1637.00,96.47
1636.00,96.47
1635.00,96.47
1634.00,96.46
1633.00,96.46
1632.00,96.46
1631.00,96.46
1630.00,96.46
1629.00,96.46
1628.00,96.46
1627.00,96.46
1626.00,96.46
1625.00,96.46
1624.00,96.46
1623.00,96.45
1622.00,96.45
1621.00,96.45
1620.00,96.44
1619.00,96.43
1618.00,96.43
1617.00,96.43
1616.00,96.43
1615.00,96.43
1614.00,96.43
1613.00,96.43
1612.00,96.43
1611.00,96.43
1610.00,96.43
1609.00,96.43
1608.00,96.42
1607.00,96.42
1606.00,96.42
1605.00,96.42
1604.00,96.42
1603.00,96.42
1602.00,96.42
1601.00,96.42
1600.00,96.42
1599.00,96.42
1598.00,96.42
1597.00,96.42
1596.00,96.42
1595.00,96.43
1594.00,96.43
1593.00,96.43
1592.00,96.43
1591.00,96.44
1590.00,96.44
1589.00,96.44
1588.00,96.44
1587.00,96.45
1586.00,96.45
1585.00,96.45
1584.00,96.45
1583.00,96.45
1582.00,96.45
1581.00,96.45
1580.00,96.45
1579.00,96.45
1578.00,96.46
1577.00,96.47
1576.00,96.47
1575.00,96.47
1574.00,96.46
1573.00,96.45
1572.00,96.44
1571.00,96.44
1570.00,96.44
1569.00,96.44
1568.00,96.44
1567.00,96.44
1566.00,96.44
1565.00,96.43
1564.00,96.43
1563.00,96.42
1562.00,96.42
1561.00,96.41
1560.00,96.41
1559.00,96.41
1558.00,96.41
1557.00,96.41
1556.00,96.41
1555.00,96.41
1554.00,96.41
1553.00,96.41
1552.00,96.41
1551.00,96.41
1550.00,96.41
1549.00,96.41
1548.00,96.41
1547.00,96.42
1546.00,96.42
1545.00,96.43
1544.00,96.43
1543.00,96.44
1542.00,96.44
1541.00,96.45
1540.00,96.44
1539.00,96.43
1538.00,96.44
1537.00,96.45
1536.00,96.45
1535.00,96.46
1534.00,96.46
1533.00,96.46
1532.00,96.46
1531.00,96.46
1530.00,96.45
1529.00,96.46
1528.00,96.46
1527.00,96.46
1526.00,96.47
1525.00,96.47
1524.00,96.46
1523.00,96.45
1522.00,96.45
1521.00,96.45
1520.00,96.45
1519.00,96.46
1518.00,96.45
1517.00,96.45
1516.00,96.45
1515.00,96.44
1514.00,96.44
1513.00,96.43
1512.00,96.43
1511.00,96.43
1510.00,96.42
1509.00,96.42
1508.00,96.42
1507.00,96.43
1506.00,96.42
1505.00,96.42
1504.00,96.42
1503.00,96.42
1502.00,96.41
1501.00,96.41
1500.00,96.41
1499.00,96.40
1498.00,96.40
1497.00,96.40
1496.00,96.41
1495.00,96.43
1494.00,96.43
1493.00,96.43
1492.00,96.43
1491.00,96.43
1490.00,96.44
1489.00,96.44
1488.00,96.43
1487.00,96.43
1486.00,96.43
1485.00,96.43
1484.00,96.44
1483.00,96.44
1482.00,96.44
1481.00,96.44
1480.00,96.44
1479.00,96.44
1478.00,96.44
1477.00,96.44
1476.00,96.43
1475.00,96.43
1474.00,96.44
1473.00,96.45
1472.00,96.45
1471.00,96.45
1470.00,96.45
1469.00,96.44
1468.00,96.44
1467.00,96.43
1466.00,96.43
1465.00,96.43
1464.00,96.43
1463.00,96.43
1462.00,96.43
1461.00,96.42
1460.00,96.42
1459.00,96.41
1458.00,96.41
1457.00,96.41
1456.00,96.41
1455.00,96.42
1454.00,96.42
1453.00,96.42
1452.00,96.41
1451.00,96.41
1450.00,96.41
1449.00,96.41
1448.00,96.40
1447.00,96.40
1446.00,96.40
1445.00,96.40
1444.00,96.41
1443.00,96.41
1442.00,96.41
1441.00,96.41
1440.00,96.40
1439.00,96.40
1438.00,96.40
1437.00,96.40
1436.00,96.41
1435.00,96.42
1434.00,96.42
1433.00,96.42
1432.00,96.43
1431.00,96.43
1430.00,96.44
1429.00,96.44
1428.00,96.44
1427.00,96.44
1426.00,96.44
1425.00,96.44
1424.00,96.44
1423.00,96.44
1422.00,96.44
1421.00,96.44
1420.00,96.45
1419.00,96.45
1418.00,96.44
1417.00,96.44
1416.00,96.44
1415.00,96.44
1414.00,96.43
1413.00,96.43
1412.00,96.43
1411.00,96.43
1410.00,96.43
1409.00,96.43
1408.00,96.42
1407.00,96.42
1406.00,96.42
1405.00,96.42
1404.00,96.42
1403.00,96.42
1402.00,96.42
1401.00,96.42
1400.00,96.42
1399.00,96.42
1398.00,96.42
1397.00,96.41
1396.00,96.40
1395.00,96.40
1394.00,96.40
1393.00,96.40
1392.00,96.40
1391.00,96.40
1390.00,96.40
1389.00,96.40
1388.00,96.40
1387.00,96.40
1386.00,96.40
1385.00,96.40
1384.00,96.41
1383.00,96.41
1382.00,96.41
1381.00,96.41
1380.00,96.42
1379.00,96.42
1378.00,96.42
1377.00,96.42
1376.00,96.43
1375.00,96.43
1374.00,96.43
1373.00,96.43
1372.00,96.43
1371.00,96.43
1370.00,96.44
1369.00,96.44
1368.00,96.44
1367.00,96.44
1366.00,96.44
1365.00,96.44
1364.00,96.44
1363.00,96.44
1362.00,96.43
1361.00,96.43
1360.00,96.42
1359.00,96.42
1358.00,96.42
1357.00,96.42
1356.00,96.42
1355.00,96.41
1354.00,96.41
1353.00,96.41
1352.00,96.40
1351.00,96.40
1350.00,96.40
1349.00,96.40
1348.00,96.40
1347.00,96.40
1346.00,96.39
1345.00,96.39
1344.00,96.39
1343.00,96.39
1342.00,96.40
1341.00,96.40
1340.00,96.40
1339.00,96.40
1338.00,96.40
1337.00,96.40
1336.00,96.40
1335.00,96.40
1334.00,96.40
1333.00,96.40
1332.00,96.40
1331.00,96.40
1330.00,96.41
1329.00,96.41
1328.00,96.41
1327.00,96.41
1326.00,96.41
1325.00,96.42
1324.00,96.42
1323.00,96.42
1322.00,96.42
1321.00,96.43
1320.00,96.43
1319.00,96.43
1318.00,96.43
1317.00,96.43
1316.00,96.43
1315.00,96.43
1314.00,96.43
1313.00,96.43
1312.00,96.43
1311.00,96.43
1310.00,96.43
1309.00,96.43
1308.00,96.42
1307.00,96.42
1306.00,96.42
1305.00,96.42
1304.00,96.42
1303.00,96.42
1302.00,96.41
1301.00,96.41
1300.00,96.41
1299.00,96.41
1298.00,96.40
1297.00,96.40
1296.00,96.40
1295.00,96.40
1294.00,96.40
1293.00,96.40
1292.00,96.40
1291.00,96.40
1290.00,96.40
1289.00,96.39
1288.00,96.39
1287.00,96.40
1286.00,96.40
1285.00,96.40
1284.00,96.40
1283.00,96.40
1282.00,96.40
1281.00,96.40
1280.00,96.40
1279.00,96.41
1278.00,96.41
1277.00,96.41
1276.00,96.41
1275.00,96.41
1274.00,96.42
1273.00,96.42
1272.00,96.42
1271.00,96.43
1270.00,96.43
1269.00,96.43
1268.00,96.44
1267.00,96.44
1266.00,96.44
1265.00,96.45
1264.00,96.45
1263.00,96.45
1262.00,96.45
1261.00,96.46
1260.00,96.45
1259.00,96.45
1258.00,96.45
1257.00,96.45
1256.00,96.45
1255.00,96.44
1254.00,96.44
1253.00,96.44
1252.00,96.43
1251.00,96.43
1250.00,96.43
1249.00,96.42
1248.00,96.42
1247.00,96.42
1246.00,96.42
1245.00,96.41
1244.00,96.41
1243.00,96.41
1242.00,96.41
1241.00,96.41
1240.00,96.41
1239.00,96.40
1238.00,96.40
1237.00,96.40
1236.00,96.40
1235.00,96.40
1234.00,96.40
1233.00,96.40
1232.00,96.41
1231.00,96.41
1230.00,96.41
1229.00,96.41
1228.00,96.41
1227.00,96.41
1226.00,96.42
1225.00,96.42
1224.00,96.42
1223.00,96.42
1222.00,96.42
1221.00,96.42
1220.00,96.43
1219.00,96.43
1218.00,96.43
1217.00,96.44
1216.00,96.44
1215.00,96.44
1214.00,96.44
1213.00,96.44
1212.00,96.44
1211.00,96.44
1210.00,96.44
1209.00,96.44
1208.00,96.45
1207.00,96.44
1206.00,96.44
1205.00,96.44
1204.00,96.44
1203.00,96.44
1202.00,96.44
1201.00,96.43
1200.00,96.43
1199.00,96.43
1198.00,96.43
1197.00,96.43
1196.00,96.42
1195.00,96.42
1194.00,96.42
1193.00,96.42
1192.00,96.42
1191.00,96.41
1190.00,96.41
1189.00,96.41
1188.00,96.41
1187.00,96.40
1186.00,96.40
1185.00,96.40
1184.00,96.40
1183.00,96.40
1182.00,96.40
1181.00,96.40
1180.00,96.40
1179.00,96.41
1178.00,96.41
1177.00,96.41
1176.00,96.41
1175.00,96.41
1174.00,96.42
1173.00,96.42
1172.00,96.42
1171.00,96.42
1170.00,96.42
1169.00,96.42
1168.00,96.43
1167.00,96.43
1166.00,96.43
1165.00,96.43
1164.00,96.44
1163.00,96.44
1162.00,96.44
1161.00,96.44
1160.00,96.44
1159.00,96.44
1158.00,96.44
1157.00,96.44
1156.00,96.44
1155.00,96.44
1154.00,96.44
1153.00,96.44
1152.00,96.44
1151.00,96.44
1150.00,96.44
1149.00,96.44
1148.00,96.43
1147.00,96.43
1146.00,96.43
1145.00,96.43
1144.00,96.42
1143.00,96.42
1142.00,96.42
1141.00,96.42
1140.00,96.41
1139.00,96.41
1138.00,96.41
1137.00,96.41
1136.00,96.41
1135.00,96.40
1134.00,96.40
1133.00,96.40
1132.00,96.40
1131.00,96.40
1130.00,96.40
1129.00,96.40
1128.00,96.40
1127.00,96.40
1126.00,96.40
1125.00,96.40
1124.00,96.40
1123.00,96.41
1122.00,96.41
1121.00,96.41
1120.00,96.41
1119.00,96.42
1118.00,96.42
1117.00,96.42
1116.00,96.43
1115.00,96.43
1114.00,96.43
1113.00,96.43
1112.00,96.43
1111.00,96.44
1110.00,96.44
1109.00,96.44
1108.00,96.44
1107.00,96.44
1106.00,96.45
1105.00,96.45
1104.00,96.45
1103.00,96.45
1102.00,96.45
1101.00,96.45
1100.00,96.44
1099.00,96.44
1098.00,96.44
1097.00,96.44
1096.00,96.44
1095.00,96.44
1094.00,96.44
1093.00,96.44
1092.00,96.43
1091.00,96.43
1090.00,96.43
1089.00,96.42
1088.00,96.42
1087.00,96.42
1086.00,96.42
1085.00,96.42
1084.00,96.42
1083.00,96.42
1082.00,96.41
1081.00,96.41
1080.00,96.41
1079.00,96.41
1078.00,96.41
1077.00,96.41
1076.00,96.41
1075.00,96.41
1074.00,96.41
1073.00,96.41
1072.00,96.41
1071.00,96.41
1070.00,96.42
1069.00,96.42
1068.00,96.42
1067.00,96.42
1066.00,96.43
1065.00,96.43
1064.00,96.43
1063.00,96.43
1062.00,96.43
1061.00,96.43
1060.00,96.44
1059.00,96.44
1058.00,96.44
1057.00,96.44
1056.00,96.44
1055.00,96.44
1054.00,96.45
1053.00,96.45
1052.00,96.45
1051.00,96.46
1050.00,96.46
1049.00,96.46
1048.00,96.45
1047.00,96.45
1046.00,96.44
1045.00,96.44
1044.00,96.43
1043.00,96.43
1042.00,96.43
1041.00,96.42
1040.00,96.42
1039.00,96.42
1038.00,96.41
1037.00,96.41
1036.00,96.41
1035.00,96.42
1034.00,96.42
1033.00,96.42
1032.00,96.41
1031.00,96.41
1030.00,96.40
1029.00,96.40
1028.00,96.39
1027.00,96.39
1026.00,96.39
1025.00,96.39
1024.00,96.39
1023.00,96.39
1022.00,96.39
1021.00,96.39
1020.00,96.39
1019.00,96.39
1018.00,96.39
1017.00,96.39
1016.00,96.39
1015.00,96.39
1014.00,96.39
1013.00,96.39
1012.00,96.39
1011.00,96.39
1010.00,96.39
1009.00,96.39
1008.00,96.39
1007.00,96.39
1006.00,96.39
1005.00,96.39
1004.00,96.39
1003.00,96.39
1002.00,96.39
1001.00,96.39
1000.00,96.39
999.00,96.39
998.00,96.39
997.00,96.38
996.00,96.38
995.00,96.38
994.00,96.38
993.00,96.38
992.00,96.38
991.00,96.37
990.00,96.37
989.00,96.36
988.00,96.36
987.00,96.36
986.00,96.36
985.00,96.35
984.00,96.35
983.00,96.35
982.00,96.35
981.00,96.35
980.00,96.35
979.00,96.35
978.00,96.34
977.00,96.34
976.00,96.33
975.00,96.33
974.00,96.33
973.00,96.33
972.00,96.33
971.00,96.34
970.00,96.34
969.00,96.34
968.00,96.33
967.00,96.33
966.00,96.33
965.00,96.33
964.00,96.33
963.00,96.34
962.00,96.34
961.00,96.34
960.00,96.35
959.00,96.35
958.00,96.35
957.00,96.34
956.00,96.34
955.00,96.35
954.00,96.35
953.00,96.36
952.00,96.36
951.00,96.36
950.00,96.35
949.00,96.35
948.00,96.35
947.00,96.35
946.00,96.36
945.00,96.36
944.00,96.36
943.00,96.35
942.00,96.35
941.00,96.35
940.00,96.34
939.00,96.34
938.00,96.35
937.00,96.35
936.00,96.35
935.00,96.35
934.00,96.35
933.00,96.35
932.00,96.36
931.00,96.36
930.00,96.35
929.00,96.35
928.00,96.34
927.00,96.34
926.00,96.34
925.00,96.34
924.00,96.34
923.00,96.33
922.00,96.32
921.00,96.31
920.00,96.31
919.00,96.32
918.00,96.32
917.00,96.32
916.00,96.32
915.00,96.32
914.00,96.31
913.00,96.31
912.00,96.32
911.00,96.33
910.00,96.34
909.00,96.35
908.00,96.35
907.00,96.35
906.00,96.35
905.00,96.35
904.00,96.36
903.00,96.36
902.00,96.37
901.00,96.38
900.00,96.38
899.00,96.38
898.00,96.37
897.00,96.37
896.00,96.37
895.00,96.38
894.00,96.38
893.00,96.39
892.00,96.38
891.00,96.38
890.00,96.37
889.00,96.37
888.00,96.37
887.00,96.37
886.00,96.37
885.00,96.37
884.00,96.38
883.00,96.38
882.00,96.38
881.00,96.38
880.00,96.37
879.00,96.37
878.00,96.37
877.00,96.37
876.00,96.37
875.00,96.37
874.00,96.37
873.00,96.37
872.00,96.37
871.00,96.37
870.00,96.37
869.00,96.37
868.00,96.37
867.00,96.37
866.00,96.37
865.00,96.37
864.00,96.37
863.00,96.37
862.00,96.37
861.00,96.37
860.00,96.37
859.00,96.37
858.00,96.37
857.00,96.37
856.00,96.38
855.00,96.38
854.00,96.38
853.00,96.38
852.00,96.38
851.00,96.38
850.00,96.39
849.00,96.39
848.00,96.40
847.00,96.40
846.00,96.40
845.00,96.40
844.00,96.40
843.00,96.40
842.00,96.41
841.00,96.41
840.00,96.41
839.00,96.42
838.00,96.41
837.00,96.41
836.00,96.41
835.00,96.40
834.00,96.40
833.00,96.41
832.00,96.41
831.00,96.42
830.00,96.42
829.00,96.42
828.00,96.42
827.00,96.42
826.00,96.42
825.00,96.42
824.00,96.42
823.00,96.42
822.00,96.42
821.00,96.42
820.00,96.42
819.00,96.42
818.00,96.41
817.00,96.41
816.00,96.41
815.00,96.41
814.00,96.41
813.00,96.42
812.00,96.41
811.00,96.41
810.00,96.41
809.00,96.42
808.00,96.42
807.00,96.42
806.00,96.43
805.00,96.43
804.00,96.43
803.00,96.43
802.00,96.43
801.00,96.43
800.00,96.43
799.00,96.43
798.00,96.44
797.00,96.44
796.00,96.44
795.00,96.44
794.00,96.44
793.00,96.44
792.00,96.44
791.00,96.43
790.00,96.43
789.00,96.43
788.00,96.43
787.00,96.43
786.00,96.43
785.00,96.43
784.00,96.43
783.00,96.43
782.00,96.43
781.00,96.43
780.00,96.43
779.00,96.43
778.00,96.43
777.00,96.42
776.00,96.42
775.00,96.42
774.00,96.42
773.00,96.42
772.00,96.42
771.00,96.42
770.00,96.42
769.00,96.42
768.00,96.42
767.00,96.42
766.00,96.42
765.00,96.42
764.00,96.42
763.00,96.42
762.00,96.42
761.00,96.42
760.00,96.42
759.00,96.42
758.00,96.42
757.00,96.42
756.00,96.42
755.00,96.42
754.00,96.42
753.00,96.43
752.00,96.43
751.00,96.43
750.00,96.43
749.00,96.44
748.00,96.44
747.00,96.44
746.00,96.44
745.00,96.44
744.00,96.44
743.00,96.45
742.00,96.45
741.00,96.45
740.00,96.45
739.00,96.45
738.00,96.45
737.00,96.45
736.00,96.45
735.00,96.45
734.00,96.45
733.00,96.45
732.00,96.45
731.00,96.45
730.00,96.45
729.00,96.45
728.00,96.45
727.00,96.45
726.00,96.46
725.00,96.46
724.00,96.46
723.00,96.45
722.00,96.45
721.00,96.44
720.00,96.44
719.00,96.44
718.00,96.44
717.00,96.44
716.00,96.44
715.00,96.44
714.00,96.44
713.00,96.44
712.00,96.44
711.00,96.44
710.00,96.44
709.00,96.44
708.00,96.44
707.00,96.44
706.00,96.45
705.00,96.45
704.00,96.45
703.00,96.45
702.00,96.45
701.00,96.45
700.00,96.45
699.00,96.45
698.00,96.45
697.00,96.45
696.00,96.45
695.00,96.46
694.00,96.46
693.00,96.47
692.00,96.47
691.00,96.47
690.00,96.47
689.00,96.48
688.00,96.48
687.00,96.48
686.00,96.48
685.00,96.48
684.00,96.48
683.00,96.48
682.00,96.47
681.00,96.47
680.00,96.48
679.00,96.48
678.00,96.48
677.00,96.48
676.00,96.48
675.00,96.48
674.00,96.48
673.00,96.47
672.00,96.46
671.00,96.43
670.00,96.38
669.00,96.34
668.00,96.36
667.00,96.44
666.00,96.53
665.00,96.55
664.00,96.53
663.00,96.50
662.00,96.49
661.00,96.49
660.00,96.49
659.00,96.50
658.00,96.50
657.00,96.50
656.00,96.50
655.00,96.50
654.00,96.50
653.00,96.50
652.00,96.50
651.00,96.50
650.00,96.50
649.00,96.50
648.00,96.51
647.00,96.51
646.00,96.52
645.00,96.52
644.00,96.52
643.00,96.52
642.00,96.52
641.00,96.53
640.00,96.53
639.00,96.53
638.00,96.54
637.00,96.54
636.00,96.54
635.00,96.55
634.00,96.55
633.00,96.55
632.00,96.55
631.00,96.55
630.00,96.55
629.00,96.55
628.00,96.54
627.00,96.54
626.00,96.55
625.00,96.55
624.00,96.55
623.00,96.55
622.00,96.56
621.00,96.55
620.00,96.55
619.00,96.55
618.00,96.55
617.00,96.55
616.00,96.56
615.00,96.56
614.00,96.55
613.00,96.55
612.00,96.55
611.00,96.55
610.00,96.55
609.00,96.55
608.00,96.55
607.00,96.55
606.00,96.55
605.00,96.55
604.00,96.55
603.00,96.56
602.00,96.56
601.00,96.56
600.00,96.55
599.00,96.54
598.00,96.54
597.00,96.53
596.00,96.54
595.00,96.55
594.00,96.56
593.00,96.56
592.00,96.56
591.00,96.57
590.00,96.57
589.00,96.58
588.00,96.58
587.00,96.59
586.00,96.60
585.00,96.59
584.00,96.59
583.00,96.58
582.00,96.57
581.00,96.58
580.00,96.58
579.00,96.59
578.00,96.59
577.00,96.60
576.00,96.59
575.00,96.59
574.00,96.59
573.00,96.59
572.00,96.59
571.00,96.59
570.00,96.59
569.00,96.59
568.00,96.59
567.00,96.59
566.00,96.59
565.00,96.59
564.00,96.60
563.00,96.60
562.00,96.60
561.00,96.60
560.00,96.60
559.00,96.60
558.00,96.59
557.00,96.59
556.00,96.58
555.00,96.59
554.00,96.60
553.00,96.60
552.00,96.60
551.00,96.59
550.00,96.58
549.00,96.58
548.00,96.58
547.00,96.58
546.00,96.58
545.00,96.59
544.00,96.59
543.00,96.59
542.00,96.59
541.00,96.59
540.00,96.59
539.00,96.60
538.00,96.61
537.00,96.61
536.00,96.60
535.00,96.60
534.00,96.60
533.00,96.59
532.00,96.59
531.00,96.60
530.00,96.60
529.00,96.60
528.00,96.59
527.00,96.60
526.00,96.60
525.00,96.60
524.00,96.59
523.00,96.59
522.00,96.59
521.00,96.59
520.00,96.60
519.00,96.60
518.00,96.60
517.00,96.60
516.00,96.59
515.00,96.59
514.00,96.59
513.00,96.59
512.00,96.59
511.00,96.59
510.00,96.59
509.00,96.59
508.00,96.60
507.00,96.60
506.00,96.61
505.00,96.61
504.00,96.60
503.00,96.59
502.00,96.58
501.00,96.59
500.00,96.60
