3996.73391,0.00025
3994.67373,0.00058
3992.61356,0.00036
3990.55339,0.00024
3988.49322,0.00059
3986.43305,0.00070
3984.37287,0.00064
3982.31270,0.00091
3980.25253,0.00130
3978.19236,0.00138
3976.13219,0.00121
3974.07201,0.00096
3972.01184,0.00060
3969.95167,0.00030
3967.89150,0.00022
3965.83133,0.00022
3963.77115,0.00032
3961.71098,0.00045
3959.65081,0.00031
3957.59064,0.00000
3955.53046,0.00005
3953.47029,0.00060
3951.41012,0.00123
3949.34995,0.00142
3947.28978,0.00113
3945.22960,0.00071
3943.16943,0.00059
3941.10926,0.00075
3939.04909,0.00084
3936.98892,0.00072
3934.92874,0.00053
3932.86857,0.00048
3930.80840,0.00070
3928.74823,0.00114
3926.68805,0.00147
3924.62788,0.00147
3922.56771,0.00124
3920.50754,0.00111
3918.44737,0.00127
3916.38719,0.00136
3914.32702,0.00094
3912.26685,0.00029
3910.20668,0.00000
3908.14651,0.00012
3906.08633,0.00027
3904.02616,0.00023
3901.96599,0.00018
3899.90582,0.00041
3897.84565,0.00085
3895.78547,0.00125
3893.72530,0.00155
3891.66513,0.00172
3889.60496,0.00155
3887.54478,0.00109
3885.48461,0.00066
3883.42444,0.00050
3881.36427,0.00062
3879.30410,0.00068
3877.24392,0.00064
3875.18375,0.00084
3873.12358,0.00135
3871.06341,0.00181
3869.00324,0.00187
3866.94306,0.00151
3864.88289,0.00113
3862.82272,0.00093
3860.76255,0.00072
3858.70237,0.00054
3856.64220,0.00073
3854.58203,0.00116
3852.52186,0.00100
3850.46169,0.00036
3848.40151,0.00016
3846.34134,0.00032
3844.28117,0.00035
3842.22100,0.00023
3840.16083,0.00025
3838.10065,0.00061
3836.04048,0.00124
3833.98031,0.00169
3831.92014,0.00156
3829.85997,0.00114
3827.79979,0.00101
3825.73962,0.00112
3823.67945,0.00130
3821.61928,0.00143
3819.55910,0.00141
3817.49893,0.00133
3815.43876,0.00130
3813.37859,0.00126
3811.31842,0.00114
3809.25824,0.00105
3807.19807,0.00112
3805.13790,0.00126
3803.07773,0.00134
3801.01756,0.00121
3798.95738,0.00076
3796.89721,0.00038
3794.83704,0.00057
3792.77687,0.00117
3790.71670,0.00149
3788.65652,0.00128
3786.59635,0.00095
3784.53618,0.00095
3782.47601,0.00118
3780.41583,0.00136
3778.35566,0.00138
3776.29549,0.00143
3774.23532,0.00172
3772.17515,0.00197
3770.11497,0.00196
3768.05480,0.00189
3765.99463,0.00176
3763.93446,0.00162
3761.87429,0.00191
3759.81411,0.00255
3757.75394,0.00281
3755.69377,0.00230
3753.63360,0.00154
3751.57342,0.00155
3749.51325,0.00249
3747.45308,0.00293
3745.39291,0.00230
3743.33274,0.00174
3741.27256,0.00224
3739.21239,0.00311
3737.15222,0.00310
3735.09205,0.00211
3733.03188,0.00133
3730.97170,0.00098
3728.91153,0.00057
3726.85136,0.00015
3724.79119,0.00000
3722.73102,0.00025
3720.67084,0.00088
3718.61067,0.00180
3716.55050,0.00252
3714.49033,0.00258
3712.43015,0.00217
3710.36998,0.00167
3708.30981,0.00124
3706.24964,0.00097
3704.18947,0.00082
3702.12929,0.00060
3700.06912,0.00073
3698.00895,0.00139
3695.94878,0.00186
3693.88861,0.00183
3691.82843,0.00153
3689.76826,0.00117
3687.70809,0.00110
3685.64792,0.00138
3683.58775,0.00159
3681.52757,0.00179
3679.46740,0.00248
3677.40723,0.00329
3675.34706,0.00323
3673.28688,0.00248
3671.22671,0.00188
3669.16654,0.00164
3667.10637,0.00210
3665.04620,0.00296
3662.98602,0.00349
3660.92585,0.00358
3658.86568,0.00338
3656.80551,0.00308
3654.74534,0.00318
3652.68516,0.00393
3650.62499,0.00481
3648.56482,0.00498
3646.50465,0.00465
3644.44447,0.00460
3642.38430,0.00455
3640.32413,0.00428
3638.26396,0.00422
3636.20379,0.00452
3634.14361,0.00489
3632.08344,0.00520
3630.02327,0.00555
3627.96310,0.00609
3625.90293,0.00682
3623.84275,0.00756
3621.78258,0.00810
3619.72241,0.00841
3617.66224,0.00842
3615.60207,0.00801
3613.54189,0.00739
3611.48172,0.00726
3609.42155,0.00807
3607.36138,0.00922
3605.30120,0.00992
3603.24103,0.01027
3601.18086,0.01067
3599.12069,0.01090
3597.06052,0.01060
3595.00034,0.01041
3592.94017,0.01112
3590.88000,0.01232
3588.81983,0.01303
3586.75966,0.01294
3584.69948,0.01292
3582.63931,0.01352
3580.57914,0.01407
3578.51897,0.01400
3576.45879,0.01390
3574.39862,0.01439
3572.33845,0.01502
3570.27828,0.01545
3568.21811,0.01600
3566.15793,0.01679
3564.09776,0.01742
3562.03759,0.01802
3559.97742,0.01883
3557.91725,0.01956
3555.85707,0.02005
3553.79690,0.02037
3551.73673,0.02043
3549.67656,0.02039
3547.61639,0.02071
3545.55621,0.02186
3543.49604,0.02338
3541.43587,0.02409
3539.37570,0.02389
3537.31552,0.02378
3535.25535,0.02436
3533.19518,0.02536
3531.13501,0.02611
3529.07484,0.02627
3527.01466,0.02625
3524.95449,0.02645
3522.89432,0.02668
3520.83415,0.02702
3518.77398,0.02778
3516.71380,0.02865
3514.65363,0.02933
3512.59346,0.03004
3510.53329,0.03080
3508.47312,0.03124
3506.41294,0.03140
3504.35277,0.03156
3502.29260,0.03175
3500.23243,0.03207
3498.17225,0.03265
3496.11208,0.03332
3494.05191,0.03420
3491.99174,0.03526
3489.93157,0.03594
3487.87139,0.03630
3485.81122,0.03683
3483.75105,0.03724
3481.69088,0.03726
3479.63071,0.03732
3477.57053,0.03776
3475.51036,0.03841
3473.45019,0.03902
3471.39002,0.03933
3469.32984,0.03926
3467.26967,0.03936
3465.20950,0.03975
3463.14933,0.04014
3461.08916,0.04090
3459.02898,0.04192
3456.96881,0.04242
3454.90864,0.04252
3452.84847,0.04288
3450.78830,0.04359
3448.72812,0.04426
3446.66795,0.04457
3444.60778,0.04482
3442.54761,0.04537
3440.48744,0.04606
3438.42726,0.04661
3436.36709,0.04674
3434.30692,0.04689
3432.24675,0.04760
3430.18657,0.04823
3428.12640,0.04845
3426.06623,0.04891
3424.00606,0.04955
3421.94589,0.05014
3419.88571,0.05064
3417.82554,0.05104
3415.76537,0.05164
3413.70520,0.05207
3411.64503,0.05203
3409.58485,0.05215
3407.52468,0.05248
3405.46451,0.05274
3403.40434,0.05331
3401.34416,0.05401
3399.28399,0.05418
3397.22382,0.05413
3395.16365,0.05430
3393.10348,0.05450
3391.04330,0.05470
3388.98313,0.05509
3386.92296,0.05557
3384.86279,0.05602
3382.80262,0.05635
3380.74244,0.05658
3378.68227,0.05687
3376.62210,0.05714
3374.56193,0.05733
3372.50176,0.05777
3370.44158,0.05840
3368.38141,0.05879
3366.32124,0.05914
3364.26107,0.05957
3362.20089,0.05978
3360.14072,0.06002
3358.08055,0.06047
3356.02038,0.06070
3353.96021,0.06071
3351.90003,0.06095
3349.83986,0.06137
3347.77969,0.06176
3345.71952,0.06214
3343.65935,0.06222
3341.59917,0.06181
3339.53900,0.06161
3337.47883,0.06191
3335.41866,0.06198
3333.35849,0.06155
3331.29831,0.06147
3329.23814,0.06227
3327.17797,0.06315
3325.11780,0.06343
3323.05762,0.06328
3320.99745,0.06312
3318.93728,0.06309
3316.87711,0.06305
3314.81694,0.06330
3312.75676,0.06358
3310.69659,0.06341
3308.63642,0.06321
3306.57625,0.06342
3304.51608,0.06386
3302.45590,0.06407
3300.39573,0.06378
3298.33556,0.06328
3296.27539,0.06331
3294.21521,0.06383
3292.15504,0.06426
3290.09487,0.06453
3288.03470,0.06485
3285.97453,0.06513
3283.91435,0.06523
3281.85418,0.06505
3279.79401,0.06463
3277.73384,0.06430
3275.67367,0.06445
3273.61349,0.06477
3271.55332,0.06480
3269.49315,0.06456
3267.43298,0.06412
3265.37281,0.06395
3263.31263,0.06432
3261.25246,0.06478
3259.19229,0.06486
3257.13212,0.06465
3255.07194,0.06448
3253.01177,0.06430
3250.95160,0.06387
3248.89143,0.06332
3246.83126,0.06297
3244.77108,0.06288
3242.71091,0.06295
3240.65074,0.06311
3238.59057,0.06311
3236.53040,0.06277
3234.47022,0.06243
3232.41005,0.06223
3230.34988,0.06193
3228.28971,0.06172
3226.22954,0.06183
3224.16936,0.06201
3222.10919,0.06201
3220.04902,0.06172
3217.98885,0.06138
3215.92867,0.06146
3213.86850,0.06180
3211.80833,0.06179
3209.74816,0.06105
3207.68799,0.06014
3205.62781,0.05991
3203.56764,0.06011
3201.50747,0.06012
3199.44730,0.05991
3197.38713,0.05982
3195.32695,0.05994
3193.26678,0.05994
3191.20661,0.05945
3189.14644,0.05879
3187.08626,0.05868
3185.02609,0.05910
3182.96592,0.05919
3180.90575,0.05855
3178.84558,0.05790
3176.78540,0.05781
3174.72523,0.05778
3172.66506,0.05748
3170.60489,0.05709
3168.54472,0.05660
3166.48454,0.05596
3164.42437,0.05571
3162.36420,0.05606
3160.30403,0.05615
3158.24386,0.05556
3156.18368,0.05491
3154.12351,0.05458
3152.06334,0.05443
3150.00317,0.05430
3147.94299,0.05407
3145.88282,0.05366
3143.82265,0.05317
3141.76248,0.05278
3139.70231,0.05260
3137.64213,0.05270
3135.58196,0.05277
3133.52179,0.05240
3131.46162,0.05184
3129.40145,0.05142
3127.34127,0.05106
3125.28110,0.05077
3123.22093,0.05060
3121.16076,0.05039
3119.10058,0.05010
3117.04041,0.04977
3114.98024,0.04979
3112.92007,0.05016
3110.85990,0.05001
3108.79972,0.04913
3106.73955,0.04842
3104.67938,0.04820
3102.61921,0.04795
3100.55904,0.04777
3098.49886,0.04788
3096.43869,0.04759
3094.37852,0.04667
3092.31835,0.04595
3090.25818,0.04588
3088.19800,0.04616
3086.13783,0.04632
3084.07766,0.04611
3082.01749,0.04568
3079.95731,0.04537
3077.89714,0.04538
3075.83697,0.04536
3073.77680,0.04507
3071.71663,0.04475
3069.65645,0.04454
3067.59628,0.04431
3065.53611,0.04392
3063.47594,0.04343
3061.41577,0.04293
3059.35559,0.04249
3057.29542,0.04222
3055.23525,0.04199
3053.17508,0.04155
3051.11491,0.04096
3049.05473,0.04072
3046.99456,0.04106
3044.93439,0.04129
3042.87422,0.04091
3040.81404,0.04032
3038.75387,0.03990
3036.69370,0.03968
3034.63353,0.03960
3032.57336,0.03957
3030.51318,0.03945
3028.45301,0.03899
3026.39284,0.03817
3024.33267,0.03736
3022.27250,0.03694
3020.21232,0.03703
3018.15215,0.03734
3016.09198,0.03732
3014.03181,0.03686
3011.97163,0.03630
3009.91146,0.03593
3007.85129,0.03584
3005.79112,0.03582
3003.73095,0.03556
3001.67077,0.03525
2999.61060,0.03525
2997.55043,0.03533
2995.49026,0.03516
2993.43009,0.03496
2991.36991,0.03482
2989.30974,0.03484
2987.24957,0.03504
2985.18940,0.03524
2983.12923,0.03529
2981.06905,0.03549
2979.00888,0.03628
2976.94871,0.03722
2974.88854,0.03769
2972.82836,0.03804
2970.76819,0.03868
2968.70802,0.03947
2966.64785,0.04041
2964.58768,0.04157
2962.52750,0.04278
2960.46733,0.04404
2958.40716,0.04539
2956.34699,0.04663
2954.28682,0.04783
2952.22664,0.04891
2950.16647,0.04989
2948.10630,0.05119
2946.04613,0.05295
2943.98596,0.05508
2941.92578,0.05760
2939.86561,0.06025
2937.80544,0.06268
2935.74527,0.06506
2933.68509,0.06758
2931.62492,0.07007
2929.56475,0.07254
2927.50458,0.07493
2925.44441,0.07715
2923.38423,0.07951
2921.32406,0.08188
2919.26389,0.08367
2917.20372,0.08398
2915.14355,0.08178
2913.08337,0.07743
2911.02320,0.07257
2908.96303,0.06836
2906.90286,0.06533
2904.84268,0.06353
2902.78251,0.06220
2900.72234,0.06045
2898.66217,0.05847
2896.60200,0.05690
2894.54182,0.05578
2892.48165,0.05474
2890.42148,0.05368
2888.36131,0.05253
2886.30114,0.05129
2884.24096,0.05041
2882.18079,0.04978
2880.12062,0.04891
2878.06045,0.04819
2876.00028,0.04810
2873.94010,0.04834
2871.87993,0.04854
2869.81976,0.04865
2867.75959,0.04889
2865.69941,0.04962
2863.63924,0.05098
2861.57907,0.05279
2859.51890,0.05511
2857.45873,0.05793
2855.39855,0.06083
2853.33838,0.06373
2851.27821,0.06635
2849.21804,0.06681
2847.15787,0.06333
2845.09769,0.05755
2843.03752,0.05222
2840.97735,0.04811
2838.91718,0.04504
2836.85700,0.04291
2834.79683,0.04134
2832.73666,0.03988
2830.67649,0.03863
2828.61632,0.03770
2826.55614,0.03693
2824.49597,0.03624
2822.43580,0.03559
2820.37563,0.03511
2818.31546,0.03485
2816.25528,0.03451
2814.19511,0.03411
2812.13494,0.03387
2810.07477,0.03349
2808.01460,0.03287
2805.95442,0.03229
2803.89425,0.03194
2801.83408,0.03197
2799.77391,0.03209
2797.71373,0.03192
2795.65356,0.03163
2793.59339,0.03136
2791.53322,0.03101
2789.47305,0.03070
2787.41287,0.03043
2785.35270,0.03008
2783.29253,0.02969
2781.23236,0.02939
2779.17219,0.02933
2777.11201,0.02933
2775.05184,0.02931
2772.99167,0.02935
2770.93150,0.02912
2768.87133,0.02873
2766.81115,0.02864
2764.75098,0.02861
2762.69081,0.02839
2760.63064,0.02819
2758.57046,0.02803
2756.51029,0.02790
2754.45012,0.02787
2752.38995,0.02775
2750.32978,0.02749
2748.26960,0.02746
2746.20943,0.02769
2744.14926,0.02779
2742.08909,0.02767
2740.02892,0.02764
2737.96874,0.02768
2735.90857,0.02763
2733.84840,0.02757
2731.78823,0.02757
2729.72805,0.02745
2727.66788,0.02720
2725.60771,0.02710
2723.54754,0.02713
2721.48737,0.02718
2719.42719,0.02726
2717.36702,0.02722
2715.30685,0.02690
2713.24668,0.02658
2711.18651,0.02673
2709.12633,0.02696
2707.06616,0.02673
2705.00599,0.02631
2702.94582,0.02599
2700.88565,0.02585
2698.82547,0.02587
2696.76530,0.02582
2694.70513,0.02575
2692.64496,0.02591
2690.58478,0.02597
2688.52461,0.02554
2686.46444,0.02508
2684.40427,0.02507
2682.34410,0.02522
2680.28392,0.02520
2678.22375,0.02514
2676.16358,0.02495
2674.10341,0.02455
2672.04324,0.02439
2669.98306,0.02450
2667.92289,0.02438
2665.86272,0.02412
2663.80255,0.02414
2661.74238,0.02450
2659.68220,0.02463
2657.62203,0.02417
2655.56186,0.02364
2653.50169,0.02366
2651.44151,0.02392
2649.38134,0.02377
2647.32117,0.02342
2645.26100,0.02310
2643.20083,0.02277
2641.14065,0.02281
2639.08048,0.02311
2637.02031,0.02306
2634.96014,0.02275
2632.89997,0.02245
2630.83979,0.02227
2628.77962,0.02246
2626.71945,0.02281
2624.65928,0.02263
2622.59910,0.02197
2620.53893,0.02163
2618.47876,0.02170
2616.41859,0.02150
2614.35842,0.02089
2612.29824,0.02054
2610.23807,0.02064
2608.17790,0.02081
2606.11773,0.02091
2604.05756,0.02071
2601.99738,0.02011
2599.93721,0.01955
2597.87704,0.01949
2595.81687,0.01973
2593.75670,0.01984
2591.69652,0.02001
2589.63635,0.02040
2587.57618,0.02034
2585.51601,0.01966
2583.45583,0.01911
2581.39566,0.01904
2579.33549,0.01898
2577.27532,0.01874
2575.21515,0.01868
2573.15497,0.01886
2571.09480,0.01903
2569.03463,0.01873
2566.97446,0.01817
2564.91429,0.01777
2562.85411,0.01755
2560.79394,0.01779
2558.73377,0.01825
2556.67360,0.01849
2554.61342,0.01870
2552.55325,0.01862
2550.49308,0.01807
2548.43291,0.01787
2546.37274,0.01807
2544.31256,0.01798
2542.25239,0.01782
2540.19222,0.01766
2538.13205,0.01726
2536.07188,0.01679
2534.01170,0.01657
2531.95153,0.01695
2529.89136,0.01763
2527.83119,0.01783
2525.77102,0.01779
2523.71084,0.01767
2521.65067,0.01725
2519.59050,0.01696
2517.53033,0.01683
2515.47015,0.01654
2513.40998,0.01647
2511.34981,0.01657
2509.28964,0.01623
2507.22947,0.01582
2505.16929,0.01592
2503.10912,0.01621
2501.04895,0.01622
2498.98878,0.01614
2496.92861,0.01613
2494.86843,0.01589
2492.80826,0.01550
2490.74809,0.01549
2488.68792,0.01583
2486.62775,0.01607
2484.56757,0.01580
2482.50740,0.01503
2480.44723,0.01459
2478.38706,0.01460
2476.32688,0.01451
2474.26671,0.01439
2472.20654,0.01439
2470.14637,0.01451
2468.08620,0.01449
2466.02602,0.01405
2463.96585,0.01342
2461.90568,0.01323
2459.84551,0.01358
2457.78534,0.01393
2455.72516,0.01383
2453.66499,0.01346
2451.60482,0.01341
2449.54465,0.01389
2447.48447,0.01465
2445.42430,0.01509
2443.36413,0.01497
2441.30396,0.01449
2439.24379,0.01375
2437.18361,0.01337
2435.12344,0.01359
2433.06327,0.01388
2431.00310,0.01410
2428.94293,0.01421
2426.88275,0.01430
2424.82258,0.01424
2422.76241,0.01370
2420.70224,0.01301
2418.64207,0.01265
2416.58189,0.01249
2414.52172,0.01230
2412.46155,0.01223
2410.40138,0.01236
2408.34120,0.01234
2406.28103,0.01211
2404.22086,0.01209
2402.16069,0.01230
2400.10052,0.01233
2398.04034,0.01233
2395.98017,0.01237
2393.92000,0.01229
2391.85983,0.01203
2389.79966,0.01184
2387.73948,0.01173
2385.67931,0.01172
2383.61914,0.01198
2381.55897,0.01254
2379.49880,0.01324
2377.43862,0.01383
2375.37845,0.01375
2373.31828,0.01284
2371.25811,0.01213
2369.19793,0.01176
2367.13776,0.00986
2365.07759,0.00636
2363.01742,0.00519
2360.95725,0.00824
2358.89707,0.01079
2356.83690,0.00916
2354.77673,0.00706
2352.71656,0.00795
2350.65639,0.01047
2348.59621,0.01268
2346.53604,0.01374
2344.47587,0.01353
2342.41570,0.01265
2340.35552,0.01168
2338.29535,0.01065
2336.23518,0.00936
2334.17501,0.00820
2332.11484,0.00824
2330.05466,0.00982
2327.99449,0.01205
2325.93432,0.01306
2323.87415,0.01237
2321.81398,0.01185
2319.75380,0.01255
2317.69363,0.01332
2315.63346,0.01300
2313.57329,0.01199
2311.51312,0.01137
2309.45294,0.01139
2307.39277,0.01162
2305.33260,0.01153
2303.27243,0.01086
2301.21225,0.01015
2299.15208,0.01013
2297.09191,0.01055
2295.03174,0.01088
2292.97157,0.01121
2290.91139,0.01163
2288.85122,0.01178
2286.79105,0.01149
2284.73088,0.01113
2282.67071,0.01102
2280.61053,0.01103
2278.55036,0.01109
2276.49019,0.01124
2274.43002,0.01136
2272.36984,0.01114
2270.30967,0.01018
2268.24950,0.00879
2266.18933,0.00845
2264.12916,0.00947
2262.06898,0.01022
2260.00881,0.00981
2257.94864,0.00897
2255.88847,0.00848
2253.82830,0.00844
2251.76812,0.00839
2249.70795,0.00847
2247.64778,0.00965
2245.58761,0.01097
2243.52744,0.01058
2241.46726,0.00948
2239.40709,0.00908
2237.34692,0.00879
2235.28675,0.00830
2233.22657,0.00822
2231.16640,0.00826
2229.10623,0.00761
2227.04606,0.00709
2224.98589,0.00770
2222.92571,0.00838
2220.86554,0.00818
2218.80537,0.00758
2216.74520,0.00676
2214.68503,0.00582
2212.62485,0.00565
2210.56468,0.00620
2208.50451,0.00674
2206.44434,0.00811
2204.38417,0.00974
2202.32399,0.01007
2200.26382,0.01021
2198.20365,0.01060
2196.14348,0.01012
2194.08330,0.00922
2192.02313,0.00869
2189.96296,0.00858
2187.90279,0.00893
2185.84262,0.00863
2183.78244,0.00734
2181.72227,0.00681
2179.66210,0.00794
2177.60193,0.00962
2175.54176,0.01003
2173.48158,0.00865
2171.42141,0.00704
2169.36124,0.00705
2167.30107,0.00778
2165.24089,0.00696
2163.18072,0.00550
2161.12055,0.00502
2159.06038,0.00496
2157.00021,0.00438
2154.94003,0.00326
2152.87986,0.00247
2150.81969,0.00121
2148.75952,0.00000
2146.69935,0.00063
2144.63917,0.00264
2142.57900,0.00507
2140.51883,0.00647
2138.45866,0.00634
2136.39849,0.00575
2134.33831,0.00556
2132.27814,0.00655
2130.21797,0.00786
2128.15780,0.00789
2126.09762,0.00730
2124.03745,0.00707
2121.97728,0.00674
2119.91711,0.00655
2117.85694,0.00708
2115.79676,0.00817
2113.73659,0.00884
2111.67642,0.00843
2109.61625,0.00798
2107.55608,0.00800
2105.49590,0.00748
2103.43573,0.00642
2101.37556,0.00636
2099.31539,0.00754
2097.25521,0.00860
2095.19504,0.00891
2093.13487,0.00846
2091.07470,0.00740
2089.01453,0.00646
2086.95435,0.00623
2084.89418,0.00627
2082.83401,0.00592
2080.77384,0.00559
2078.71367,0.00558
2076.65349,0.00547
2074.59332,0.00590
2072.53315,0.00706
2070.47298,0.00789
2068.41281,0.00812
2066.35263,0.00734
2064.29246,0.00598
2062.23229,0.00576
2060.17212,0.00615
2058.11194,0.00567
2056.05177,0.00463
2053.99160,0.00399
2051.93143,0.00504
2049.87126,0.00703
2047.81108,0.00678
2045.75091,0.00518
2043.69074,0.00497
2041.63057,0.00567
2039.57040,0.00643
2037.51022,0.00720
2035.45005,0.00692
2033.38988,0.00459
2031.32971,0.00265
2029.26954,0.00319
2027.20936,0.00421
2025.14919,0.00390
2023.08902,0.00330
2021.02885,0.00371
2018.96867,0.00404
2016.90850,0.00309
2014.84833,0.00206
2012.78816,0.00211
2010.72799,0.00267
2008.66781,0.00225
2006.60764,0.00150
2004.54747,0.00288
2002.48730,0.00499
2000.42713,0.00480
1998.36695,0.00395
1996.30678,0.00461
1994.24661,0.00477
1992.18644,0.00311
1990.12626,0.00204
1988.06609,0.00320
1986.00592,0.00498
1983.94575,0.00506
1981.88558,0.00344
1979.82540,0.00233
1977.76523,0.00263
1975.70506,0.00341
1973.64489,0.00432
1971.58472,0.00483
1969.52454,0.00408
1967.46437,0.00265
1965.40420,0.00169
1963.34403,0.00098
1961.28386,0.00067
1959.22368,0.00111
1957.16351,0.00107
1955.10334,0.00028
1953.04317,0.00031
1950.98299,0.00154
1948.92282,0.00285
1946.86265,0.00340
1944.80248,0.00296
1942.74231,0.00228
1940.68213,0.00223
1938.62196,0.00229
1936.56179,0.00225
1934.50162,0.00282
1932.44145,0.00348
1930.38127,0.00334
1928.32110,0.00315
1926.26093,0.00336
1924.20076,0.00337
1922.14059,0.00273
1920.08041,0.00178
1918.02024,0.00139
1915.96007,0.00183
1913.89990,0.00250
1911.83972,0.00261
1909.77955,0.00192
1907.71938,0.00130
1905.65921,0.00129
1903.59904,0.00180
1901.53886,0.00280
1899.47869,0.00358
1897.41852,0.00351
1895.35835,0.00296
1893.29818,0.00236
1891.23800,0.00194
1889.17783,0.00178
1887.11766,0.00179
1885.05749,0.00184
1882.99731,0.00172
1880.93714,0.00150
1878.87697,0.00150
1876.81680,0.00156
1874.75663,0.00124
1872.69645,0.00074
1870.63628,0.00059
1868.57611,0.00106
1866.51594,0.00178
1864.45577,0.00204
1862.39559,0.00169
1860.33542,0.00103
1858.27525,0.00036
1856.21508,0.00000
1854.15491,0.00026
1852.09473,0.00101
1850.03456,0.00164
1847.97439,0.00165
1845.91422,0.00106
1843.85404,0.00048
1841.79387,0.00048
1839.73370,0.00063
1837.67353,0.00052
1835.61336,0.00051
1833.55318,0.00064
1831.49301,0.00055
1829.43284,0.00052
1827.37267,0.00087
1825.31250,0.00130
1823.25232,0.00144
1821.19215,0.00108
1819.13198,0.00040
1817.07181,0.00000
1815.01163,0.00012
1812.95146,0.00055
1810.89129,0.00096
1808.83112,0.00113
1806.77095,0.00105
1804.71077,0.00089
1802.65060,0.00074
1800.59043,0.00061
1798.53026,0.00051
1796.47009,0.00044
1794.40991,0.00054
1792.34974,0.00065
1790.28957,0.00042
1788.22940,0.00023
1786.16923,0.00042
1784.10905,0.00051
1782.04888,0.00022
1779.98871,0.00000
1777.92854,0.00014
1775.86836,0.00067
1773.80819,0.00119
1771.74802,0.00122
1769.68785,0.00118
1767.62768,0.00171
1765.56750,0.00235
1763.50733,0.00264
1761.44716,0.00299
1759.38699,0.00382
1757.32682,0.00492
1755.26664,0.00590
1753.20647,0.00675
1751.14630,0.00819
1749.08613,0.01080
1747.02596,0.01408
1744.96578,0.01764
1742.90561,0.02162
1740.84544,0.02625
1738.78527,0.03116
1736.72509,0.03551
1734.66492,0.03949
1732.60475,0.04284
1730.54458,0.04441
1728.48441,0.04474
1726.42423,0.04478
1724.36406,0.04473
1722.30389,0.04448
1720.24372,0.04420
1718.18355,0.04415
1716.12337,0.04418
1714.06320,0.04405
1712.00303,0.04389
1709.94286,0.04372
1707.88268,0.04329
1705.82251,0.04242
1703.76234,0.04124
1701.70217,0.04002
1699.64200,0.03912
1697.58182,0.03865
1695.52165,0.03785
1693.46148,0.03659
1691.40131,0.03540
1689.34114,0.03443
1687.28096,0.03362
1685.22079,0.03314
1683.16062,0.03306
1681.10045,0.03275
1679.04028,0.03208
1676.98010,0.03164
1674.91993,0.03175
1672.85976,0.03218
1670.79959,0.03276
1668.73941,0.03354
1666.67924,0.03449
1664.61907,0.03556
1662.55890,0.03669
1660.49873,0.03780
1658.43855,0.03877
1656.37838,0.03957
1654.31821,0.04042
1652.25804,0.04145
1650.19787,0.04223
1648.13769,0.04276
1646.07752,0.04323
1644.01735,0.04354
1641.95718,0.04366
1639.89701,0.04386
1637.83683,0.04440
1635.77666,0.04532
1633.71649,0.04628
1631.65632,0.04712
1629.59614,0.04796
1627.53597,0.04879
1625.47580,0.04956
1623.41563,0.05044
1621.35546,0.05145
1619.29528,0.05248
1617.23511,0.05385
1615.17494,0.05559
1613.11477,0.05697
1611.05460,0.05783
1608.99442,0.05844
1606.93425,0.05892
1604.87408,0.05923
1602.81391,0.05914
1600.75373,0.05840
1598.69356,0.05697
1596.63339,0.05500
1594.57322,0.05280
1592.51305,0.05075
1590.45287,0.04887
1588.39270,0.04689
1586.33253,0.04465
1584.27236,0.04226
1582.21219,0.03998
1580.15201,0.03796
1578.09184,0.03593
1576.03167,0.03363
1573.97150,0.03166
1571.91133,0.03022
1569.85115,0.02874
1567.79098,0.02726
1565.73081,0.02611
1563.67064,0.02537
1561.61046,0.02509
1559.55029,0.02491
1557.49012,0.02451
1555.42995,0.02421
1553.36978,0.02410
1551.30960,0.02413
1549.24943,0.02426
1547.18926,0.02432
1545.12909,0.02418
1543.06892,0.02398
1541.00874,0.02404
1538.94857,0.02454
1536.88840,0.02492
1534.82823,0.02477
1532.76805,0.02407
1530.70788,0.02296
1528.64771,0.02176
1526.58754,0.02083
1524.52737,0.02049
1522.46719,0.02068
1520.40702,0.02089
1518.34685,0.02086
1516.28668,0.02097
1514.22651,0.02117
1512.16633,0.02083
1510.10616,0.01971
1508.04599,0.01792
1505.98582,0.01581
1503.92565,0.01422
1501.86547,0.01314
1499.80530,0.01207
1497.74513,0.01071
1495.68496,0.00917
1493.62478,0.00793
1491.56461,0.00682
1489.50444,0.00553
1487.44427,0.00451
1485.38410,0.00401
1483.32392,0.00380
1481.26375,0.00387
1479.20358,0.00448
1477.14341,0.00584
1475.08324,0.00814
1473.02306,0.01145
1470.96289,0.01503
1468.90272,0.01794
1466.84255,0.02055
1464.78238,0.02322
1462.72220,0.02528
1460.66203,0.02649
1458.60186,0.02792
1456.54169,0.03034
1454.48151,0.03254
1452.42134,0.03382
1450.36117,0.03485
1448.30100,0.03610
1446.24083,0.03735
1444.18065,0.03819
1442.12048,0.03846
1440.06031,0.03804
1438.00014,0.03677
1435.93997,0.03474
1433.87979,0.03264
1431.81962,0.03082
1429.75945,0.02910
1427.69928,0.02767
1425.63910,0.02682
1423.57893,0.02640
1421.51876,0.02622
1419.45859,0.02620
1417.39842,0.02618
1415.33824,0.02606
1413.27807,0.02585
1411.21790,0.02553
1409.15773,0.02523
1407.09756,0.02509
1405.03738,0.02497
1402.97721,0.02481
1400.91704,0.02488
1398.85687,0.02526
1396.79670,0.02587
1394.73652,0.02660
1392.67635,0.02729
1390.61618,0.02787
1388.55601,0.02850
1386.49583,0.02932
1384.43566,0.03030
1382.37549,0.03144
1380.31532,0.03269
1378.25515,0.03372
1376.19497,0.03445
1374.13480,0.03521
1372.07463,0.03618
1370.01446,0.03720
1367.95429,0.03802
1365.89411,0.03852
1363.83394,0.03887
1361.77377,0.03928
1359.71360,0.03977
1357.65343,0.04032
1355.59325,0.04090
1353.53308,0.04139
1351.47291,0.04175
1349.41274,0.04209
1347.35256,0.04260
1345.29239,0.04325
1343.23222,0.04386
1341.17205,0.04431
1339.11188,0.04469
1337.05170,0.04520
1334.99153,0.04591
1332.93136,0.04673
1330.87119,0.04766
1328.81102,0.04873
1326.75084,0.04972
1324.69067,0.05037
1322.63050,0.05085
1320.57033,0.05144
1318.51015,0.05201
1316.44998,0.05224
1314.38981,0.05198
1312.32964,0.05118
1310.26947,0.05000
1308.20929,0.04852
1306.14912,0.04666
1304.08895,0.04455
1302.02878,0.04241
1299.96861,0.04025
1297.90843,0.03794
1295.84826,0.03556
1293.78809,0.03336
1291.72792,0.03146
1289.66775,0.03004
1287.60757,0.02917
1285.54740,0.02866
1283.48723,0.02830
1281.42706,0.02796
1279.36688,0.02762
1277.30671,0.02741
1275.24654,0.02752
1273.18637,0.02789
1271.12620,0.02836
1269.06602,0.02892
1267.00585,0.02973
1264.94568,0.03088
1262.88551,0.03201
1260.82534,0.03257
1258.76516,0.03270
1256.70499,0.03296
1254.64482,0.03365
1252.58465,0.03448
1250.52447,0.03527
1248.46430,0.03631
1246.40413,0.03745
1244.34396,0.03834
1242.28379,0.03926
1240.22361,0.04039
1238.16344,0.04153
1236.10327,0.04272
1234.04310,0.04392
1231.98293,0.04494
1229.92275,0.04595
1227.86258,0.04701
1225.80241,0.04799
1223.74224,0.04886
1221.68207,0.04968
1219.62189,0.05061
1217.56172,0.05182
1215.50155,0.05323
1213.44138,0.05461
1211.38120,0.05582
1209.32103,0.05701
1207.26086,0.05820
1205.20069,0.05950
1203.14052,0.06092
1201.08034,0.06202
1199.02017,0.06276
1196.96000,0.06334
1194.89983,0.06369
1192.83966,0.06358
1190.77948,0.06300
1188.71931,0.06221
1186.65914,0.06135
1184.59897,0.06037
1182.53880,0.05926
1180.47862,0.05796
1178.41845,0.05684
1176.35828,0.05610
1174.29811,0.05545
1172.23793,0.05506
1170.17776,0.05505
1168.11759,0.05493
1166.05742,0.05434
1163.99725,0.05353
1161.93707,0.05274
1159.87690,0.05169
1157.81673,0.05030
1155.75656,0.04883
1153.69639,0.04743
1151.63621,0.04618
1149.57604,0.04516
1147.51587,0.04419
1145.45570,0.04316
1143.39552,0.04195
1141.33535,0.04048
1139.27518,0.03901
1137.21501,0.03782
1135.15484,0.03699
1133.09466,0.03651
1131.03449,0.03638
1128.97432,0.03650
1126.91415,0.03698
1124.85398,0.03796
1122.79380,0.03927
1120.73363,0.04092
1118.67346,0.04292
1116.61329,0.04533
1114.55312,0.04840
1112.49294,0.05175
1110.43277,0.05488
1108.37260,0.05790
1106.31243,0.06104
1104.25225,0.06407
1102.19208,0.06668
1100.13191,0.06899
1098.07174,0.07112
1096.01157,0.07286
1093.95139,0.07418
1091.89122,0.07550
1089.83105,0.07698
1087.77088,0.07853
1085.71071,0.08051
1083.65053,0.08292
1081.59036,0.08529
1079.53019,0.08743
1077.47002,0.08952
1075.40985,0.09182
1073.34967,0.09385
1071.28950,0.09507
1069.22933,0.09623
1067.16916,0.09791
1065.10898,0.09959
1063.04881,0.10102
1060.98864,0.10215
1058.92847,0.10283
1056.86830,0.10351
1054.80812,0.10474
1052.74795,0.10641
1050.68778,0.10840
1048.62761,0.11071
1046.56744,0.11310
1044.50726,0.11539
1042.44709,0.11729
1040.38692,0.11902
1038.32675,0.12151
1036.26657,0.12440
1034.20640,0.12664
1032.14623,0.12864
1030.08606,0.13105
1028.02589,0.13300
1025.96571,0.13367
1023.90554,0.13357
1021.84537,0.13363
1019.78520,0.13367
1017.72503,0.13312
1015.66485,0.13254
1013.60468,0.13201
1011.54451,0.13070
1009.48434,0.12860
1007.42417,0.12605
1005.36399,0.12292
1003.30382,0.11936
1001.24365,0.11589
999.18348,0.11286
997.12330,0.11002
995.06313,0.10693
993.00296,0.10372
990.94279,0.10051
988.88262,0.09682
986.82244,0.09290
984.76227,0.08963
982.70210,0.08648
980.64193,0.08261
978.58176,0.07908
976.52158,0.07632
974.46141,0.07331
972.40124,0.07004
970.34107,0.06685
968.28089,0.06393
966.22072,0.06175
964.16055,0.06023
962.10038,0.05877
960.04021,0.05688
957.98003,0.05450
955.91986,0.05182
953.85969,0.04895
951.79952,0.04614
949.73935,0.04351
947.67917,0.04099
945.61900,0.03870
943.55883,0.03666
941.49866,0.03469
939.43849,0.03271
937.37831,0.03082
935.31814,0.02931
933.25797,0.02810
931.19780,0.02711
929.13762,0.02637
927.07745,0.02576
925.01728,0.02533
922.95711,0.02473
920.89694,0.02350
918.83676,0.02182
916.77659,0.02017
914.71642,0.01892
912.65625,0.01797
910.59608,0.01681
908.53590,0.01551
906.47573,0.01452
904.41556,0.01353
902.35539,0.01235
900.29522,0.01149
898.23504,0.01106
896.17487,0.01076
894.11470,0.01080
892.05453,0.01113
889.99435,0.01107
887.93418,0.01078
885.87401,0.01054
883.81384,0.01006
881.75367,0.00979
879.69349,0.01022
877.63332,0.01094
875.57315,0.01172
873.51298,0.01257
871.45281,0.01298
869.39263,0.01246
867.33246,0.01128
865.27229,0.01015
863.21212,0.00897
861.15194,0.00709
859.09177,0.00490
857.03160,0.00350
854.97143,0.00300
852.91126,0.00286
850.85108,0.00261
848.79091,0.00221
846.73074,0.00157
844.67057,0.00060
842.61040,0.00000
840.55022,0.00033
838.49005,0.00138
836.42988,0.00253
834.36971,0.00348
832.30954,0.00415
830.24936,0.00428
828.18919,0.00435
826.12902,0.00492
824.06885,0.00526
822.00867,0.00503
819.94850,0.00497
817.88833,0.00513
815.82816,0.00515
813.76799,0.00499
811.70781,0.00437
809.64764,0.00314
807.58747,0.00245
805.52730,0.00290
803.46713,0.00324
801.40695,0.00216
799.34678,0.00050
797.28661,0.00000
795.22644,-0.00021
793.16627,-0.00033
791.10609,0.00036
789.04592,0.00168
786.98575,0.00259
784.92558,0.00346
782.86540,0.00502
780.80523,0.00623
778.74506,0.00599
776.68489,0.00513
774.62472,0.00496
772.56454,0.00545
770.50437,0.00629
768.44420,0.00766
766.38403,0.00959
764.32386,0.01188
762.26368,0.01470
760.20351,0.01757
758.14334,0.01885
756.08317,0.01869
754.02299,0.01820
751.96282,0.01693
749.90265,0.01503
747.84248,0.01400
745.78231,0.01325
743.72213,0.01131
741.66196,0.00942
739.60179,0.00920
737.54162,0.00929
735.48145,0.00755
733.42127,0.00555
731.36110,0.00561
729.30093,0.00661
727.24076,0.00718
725.18059,0.00733
723.12041,0.00730
721.06024,0.00743
719.00007,0.00746
716.93990,0.00675
714.87972,0.00532
712.81955,0.00397
710.75938,0.00341
708.69921,0.00371
706.63904,0.00455
704.57886,0.00508
702.51869,0.00435
700.45852,0.00285
698.39835,0.00211
696.33818,0.00203
694.27800,0.00182
692.21783,0.00237
690.15766,0.00355
688.09749,0.00344
686.03731,0.00193
683.97714,0.00028
681.91697,-0.00098
679.85680,-0.00116
677.79663,0.00030
675.73645,0.00169
673.67628,0.00088
671.61611,-0.00176
669.55594,-0.00393
667.49577,-0.00275
665.43559,0.00085
663.37542,0.00306
661.31525,0.00282
659.25508,0.00131
657.19491,0.00031
655.13473,0.00062
653.07456,0.00193
651.01439,0.00307
648.95422,0.00272
646.89404,0.00109
644.83387,0.00000
642.77370,0.00018
640.71353,0.00057
638.65336,-0.00060
636.59318,-0.00254
634.53301,-0.00247
632.47284,0.00032
630.41267,0.00283
628.35250,0.00211
626.29232,-0.00056
624.23215,-0.00044
622.17198,0.00045
620.11181,-0.00068
618.05164,-0.00010
615.99146,0.00144
613.93129,0.00003
611.87112,-0.00009
609.81095,0.00403
607.75077,0.00672
605.69060,0.00563
603.63043,0.00438
601.57026,0.00268
599.51009,0.00000
