3996.73391,-0.00064
3994.67373,-0.00103
3992.61356,-0.00075
3990.55339,-0.00018
3988.49322,0.00005
3986.43305,0.00004
3984.37287,0.00003
3982.31270,0.00021
3980.25253,0.00054
3978.19236,0.00056
3976.13219,0.00029
3974.07201,0.00021
3972.01184,0.00026
3969.95167,0.00025
3967.89150,0.00043
3965.83133,0.00102
3963.77115,0.00150
3961.71098,0.00129
3959.65081,0.00066
3957.59064,0.00014
3955.53046,0.00000
3953.47029,0.00033
3951.41012,0.00104
3949.34995,0.00153
3947.28978,0.00142
3945.22960,0.00115
3943.16943,0.00110
3941.10926,0.00136
3939.04909,0.00165
3936.98892,0.00136
3934.92874,0.00057
3932.86857,-0.00001
3930.80840,0.00000
3928.74823,0.00041
3926.68805,0.00090
3924.62788,0.00135
3922.56771,0.00184
3920.50754,0.00225
3918.44737,0.00226
3916.38719,0.00191
3914.32702,0.00164
3912.26685,0.00157
3910.20668,0.00151
3908.14651,0.00167
3906.08633,0.00201
3904.02616,0.00205
3901.96599,0.00195
3899.90582,0.00221
3897.84565,0.00228
3895.78547,0.00190
3893.72530,0.00180
3891.66513,0.00230
3889.60496,0.00265
3887.54478,0.00247
3885.48461,0.00196
3883.42444,0.00148
3881.36427,0.00151
3879.30410,0.00177
3877.24392,0.00151
3875.18375,0.00104
3873.12358,0.00114
3871.06341,0.00158
3869.00324,0.00161
3866.94306,0.00155
3864.88289,0.00172
3862.82272,0.00163
3860.76255,0.00124
3858.70237,0.00107
3856.64220,0.00133
3854.58203,0.00194
3852.52186,0.00247
3850.46169,0.00256
3848.40151,0.00221
3846.34134,0.00169
3844.28117,0.00155
3842.22100,0.00186
3840.16083,0.00198
3838.10065,0.00182
3836.04048,0.00196
3833.98031,0.00221
3831.92014,0.00185
3829.85997,0.00114
3827.79979,0.00076
3825.73962,0.00078
3823.67945,0.00099
3821.61928,0.00132
3819.55910,0.00188
3817.49893,0.00227
3815.43876,0.00199
3813.37859,0.00159
3811.31842,0.00189
3809.25824,0.00246
3807.19807,0.00224
3805.13790,0.00124
3803.07773,0.00067
3801.01756,0.00094
3798.95738,0.00153
3796.89721,0.00203
3794.83704,0.00218
3792.77687,0.00183
3790.71670,0.00147
3788.65652,0.00154
3786.59635,0.00175
3784.53618,0.00178
3782.47601,0.00168
3780.41583,0.00139
3778.35566,0.00096
3776.29549,0.00069
3774.23532,0.00090
3772.17515,0.00151
3770.11497,0.00197
3768.05480,0.00205
3765.99463,0.00193
3763.93446,0.00176
3761.87429,0.00144
3759.81411,0.00071
3757.75394,0.00000
3755.69377,0.00012
3753.63360,0.00109
3751.57342,0.00204
3749.51325,0.00189
3747.45308,0.00089
3745.39291,0.00019
3743.33274,0.00041
3741.27256,0.00101
3739.21239,0.00091
3737.15222,0.00006
3735.09205,0.00002
3733.03188,0.00159
3730.97170,0.00288
3728.91153,0.00288
3726.85136,0.00207
3724.79119,0.00118
3722.73102,0.00092
3720.67084,0.00132
3718.61067,0.00174
3716.55050,0.00167
3714.49033,0.00143
3712.43015,0.00142
3710.36998,0.00137
3708.30981,0.00131
3706.24964,0.00153
3704.18947,0.00205
3702.12929,0.00229
3700.06912,0.00201
3698.00895,0.00182
3695.94878,0.00180
3693.88861,0.00170
3691.82843,0.00186
3689.76826,0.00218
3687.70809,0.00162
3685.64792,0.00066
3683.58775,0.00040
3681.52757,0.00072
3679.46740,0.00084
3677.40723,0.00069
3675.34706,0.00097
3673.28688,0.00173
3671.22671,0.00208
3669.16654,0.00155
3667.10637,0.00103
3665.04620,0.00137
3662.98602,0.00193
3660.92585,0.00212
3658.86568,0.00219
3656.80551,0.00221
3654.74534,0.00216
3652.68516,0.00246
3650.62499,0.00292
3648.56482,0.00278
3646.50465,0.00241
3644.44447,0.00255
3642.38430,0.00299
3640.32413,0.00345
3638.26396,0.00381
3636.20379,0.00415
3634.14361,0.00446
3632.08344,0.00417
3630.02327,0.00330
3627.96310,0.00308
3625.90293,0.00384
3623.84275,0.00469
3621.78258,0.00522
3619.72241,0.00506
3617.66224,0.00436
3615.60207,0.00411
3613.54189,0.00440
3611.48172,0.00458
3609.42155,0.00448
3607.36138,0.00459
3605.30120,0.00502
3603.24103,0.00552
3601.18086,0.00626
3599.12069,0.00701
3597.06052,0.00751
3595.00034,0.00800
3592.94017,0.00848
3590.88000,0.00849
3588.81983,0.00830
3586.75966,0.00839
3584.69948,0.00871
3582.63931,0.00877
3580.57914,0.00859
3578.51897,0.00849
3576.45879,0.00865
3574.39862,0.00919
3572.33845,0.01002
3570.27828,0.01082
3568.21811,0.01119
3566.15793,0.01118
3564.09776,0.01133
3562.03759,0.01163
3559.97742,0.01175
3557.91725,0.01184
3555.85707,0.01223
3553.79690,0.01291
3551.73673,0.01384
3549.67656,0.01466
3547.61639,0.01488
3545.55621,0.01486
3543.49604,0.01500
3541.43587,0.01510
3539.37570,0.01529
3537.31552,0.01585
3535.25535,0.01653
3533.19518,0.01684
3531.13501,0.01695
3529.07484,0.01730
3527.01466,0.01789
3524.95449,0.01855
3522.89432,0.01911
3520.83415,0.01921
3518.77398,0.01890
3516.71380,0.01878
3514.65363,0.01918
3512.59346,0.01971
3510.53329,0.02011
3508.47312,0.02047
3506.41294,0.02080
3504.35277,0.02114
3502.29260,0.02143
3500.23243,0.02150
3498.17225,0.02143
3496.11208,0.02170
3494.05191,0.02256
3491.99174,0.02345
3489.93157,0.02380
3487.87139,0.02401
3485.81122,0.02450
3483.75105,0.02494
3481.69088,0.02507
3479.63071,0.02497
3477.57053,0.02477
3475.51036,0.02481
3473.45019,0.02545
3471.39002,0.02641
3469.32984,0.02713
3467.26967,0.02741
3465.20950,0.02737
3463.14933,0.02754
3461.08916,0.02810
3459.02898,0.02852
3456.96881,0.02866
3454.90864,0.02885
3452.84847,0.02913
3450.78830,0.02954
3448.72812,0.03007
3446.66795,0.03041
3444.60778,0.03089
3442.54761,0.03136
3440.48744,0.03142
3438.42726,0.03154
3436.36709,0.03173
3434.30692,0.03182
3432.24675,0.03227
3430.18657,0.03288
3428.12640,0.03308
3426.06623,0.03308
3424.00606,0.03343
3421.94589,0.03384
3419.88571,0.03371
3417.82554,0.03360
3415.76537,0.03417
3413.70520,0.03487
3411.64503,0.03526
3409.58485,0.03553
3407.52468,0.03600
3405.46451,0.03653
3403.40434,0.03686
3401.34416,0.03715
3399.28399,0.03745
3397.22382,0.03769
3395.16365,0.03782
3393.10348,0.03789
3391.04330,0.03828
3388.98313,0.03875
3386.92296,0.03876
3384.86279,0.03845
3382.80262,0.03813
3380.74244,0.03815
3378.68227,0.03864
3376.62210,0.03925
3374.56193,0.03979
3372.50176,0.04012
3370.44158,0.04017
3368.38141,0.04003
3366.32124,0.03995
3364.26107,0.04014
3362.20089,0.04051
3360.14072,0.04095
3358.08055,0.04122
3356.02038,0.04115
3353.96021,0.04114
3351.90003,0.04140
3349.83986,0.04175
3347.77969,0.04207
3345.71952,0.04235
3343.65935,0.04253
3341.59917,0.04250
3339.53900,0.04235
3337.47883,0.04252
3335.41866,0.04306
3333.35849,0.04330
3331.29831,0.04311
3329.23814,0.04316
3327.17797,0.04340
3325.11780,0.04346
3323.05762,0.04356
3320.99745,0.04366
3318.93728,0.04362
3316.87711,0.04346
3314.81694,0.04324
3312.75676,0.04317
3310.69659,0.04335
3308.63642,0.04376
3306.57625,0.04420
3304.51608,0.04437
3302.45590,0.04428
3300.39573,0.04413
3298.33556,0.04412
3296.27539,0.04422
3294.21521,0.04406
3292.15504,0.04364
3290.09487,0.04343
3288.03470,0.04337
3285.97453,0.04327
3283.91435,0.04365
3281.85418,0.04446
3279.79401,0.04469
3277.73384,0.04408
3275.67367,0.04325
3273.61349,0.04286
3271.55332,0.04310
3269.49315,0.04327
3267.43298,0.04314
3265.37281,0.04331
3263.31263,0.04369
3261.25246,0.04400
3259.19229,0.04440
3257.13212,0.04459
3255.07194,0.04414
3253.01177,0.04347
3250.95160,0.04348
3248.89143,0.04421
3246.83126,0.04462
3244.77108,0.04439
3242.71091,0.04425
3240.65074,0.04416
3238.59057,0.04377
3236.53040,0.04339
3234.47022,0.04333
3232.41005,0.04335
3230.34988,0.04300
3228.28971,0.04242
3226.22954,0.04219
3224.16936,0.04255
3222.10919,0.04321
3220.04902,0.04330
3217.98885,0.04244
3215.92867,0.04138
3213.86850,0.04111
3211.80833,0.04169
3209.74816,0.04211
3207.68799,0.04189
3205.62781,0.04154
3203.56764,0.04125
3201.50747,0.04111
3199.44730,0.04146
3197.38713,0.04196
3195.32695,0.04170
3193.26678,0.04076
3191.20661,0.04010
3189.14644,0.04003
3187.08626,0.04015
3185.02609,0.04023
3182.96592,0.04031
3180.90575,0.04035
3178.84558,0.04022
3176.78540,0.03990
3174.72523,0.03957
3172.66506,0.03941
3170.60489,0.03925
3168.54472,0.03876
3166.48454,0.03813
3164.42437,0.03776
3162.36420,0.03765
3160.30403,0.03779
3158.24386,0.03789
3156.18368,0.03770
3154.12351,0.03749
3152.06334,0.03740
3150.00317,0.03713
3147.94299,0.03664
3145.88282,0.03622
3143.82265,0.03602
3141.76248,0.03609
3139.70231,0.03606
3137.64213,0.03580
3135.58196,0.03571
3133.52179,0.03578
3131.46162,0.03570
3129.40145,0.03550
3127.34127,0.03503
3125.28110,0.03423
3123.22093,0.03359
3121.16076,0.03345
3119.10058,0.03365
3117.04041,0.03388
3114.98024,0.03377
3112.92007,0.03334
3110.85990,0.03312
3108.79972,0.03320
3106.73955,0.03303
3104.67938,0.03264
3102.61921,0.03244
3100.55904,0.03242
3098.49886,0.03237
3096.43869,0.03210
3094.37852,0.03170
3092.31835,0.03149
3090.25818,0.03145
3088.19800,0.03133
3086.13783,0.03112
3084.07766,0.03108
3082.01749,0.03115
3079.95731,0.03095
3077.89714,0.03051
3075.83697,0.03009
3073.77680,0.02978
3071.71663,0.02962
3069.65645,0.02970
3067.59628,0.02978
3065.53611,0.02949
3063.47594,0.02897
3061.41577,0.02853
3059.35559,0.02833
3057.29542,0.02835
3055.23525,0.02837
3053.17508,0.02827
3051.11491,0.02810
3049.05473,0.02791
3046.99456,0.02758
3044.93439,0.02725
3042.87422,0.02728
3040.81404,0.02724
3038.75387,0.02662
3036.69370,0.02604
3034.63353,0.02601
3032.57336,0.02609
3030.51318,0.02587
3028.45301,0.02550
3026.39284,0.02526
3024.33267,0.02514
3022.27250,0.02508
3020.21232,0.02526
3018.15215,0.02543
3016.09198,0.02517
3014.03181,0.02490
3011.97163,0.02482
3009.91146,0.02450
3007.85129,0.02409
3005.79112,0.02390
3003.73095,0.02374
3001.67077,0.02337
2999.61060,0.02301
2997.55043,0.02299
2995.49026,0.02313
2993.43009,0.02319
2991.36991,0.02332
2989.30974,0.02371
2987.24957,0.02391
2985.18940,0.02372
2983.12923,0.02358
2981.06905,0.02374
2979.00888,0.02406
2976.94871,0.02438
2974.88854,0.02475
2972.82836,0.02511
2970.76819,0.02542
2968.70802,0.02609
2966.64785,0.02710
2964.58768,0.02798
2962.52750,0.02872
2960.46733,0.02970
2958.40716,0.03101
2956.34699,0.03235
2954.28682,0.03342
2952.22664,0.03430
2950.16647,0.03509
2948.10630,0.03612
2946.04613,0.03766
2943.98596,0.03954
2941.92578,0.04140
2939.86561,0.04311
2937.80544,0.04512
2935.74527,0.04751
2933.68509,0.04964
2931.62492,0.05148
2929.56475,0.05345
2927.50458,0.05548
2925.44441,0.05707
2923.38423,0.05842
2921.32406,0.05992
2919.26389,0.06121
2917.20372,0.06140
2915.14355,0.05977
2913.08337,0.05661
2911.02320,0.05299
2908.96303,0.04986
2906.90286,0.04767
2904.84268,0.04625
2902.78251,0.04513
2900.72234,0.04396
2898.66217,0.04270
2896.60200,0.04145
2894.54182,0.04043
2892.48165,0.03952
2890.42148,0.03846
2888.36131,0.03743
2886.30114,0.03672
2884.24096,0.03624
2882.18079,0.03572
2880.12062,0.03512
2878.06045,0.03467
2876.00028,0.03443
2873.94010,0.03445
2871.87993,0.03475
2869.81976,0.03528
2867.75959,0.03595
2865.69941,0.03659
2863.63924,0.03742
2861.57907,0.03892
2859.51890,0.04108
2857.45873,0.04339
2855.39855,0.04559
2853.33838,0.04774
2851.27821,0.04944
2849.21804,0.04957
2847.15787,0.04725
2845.09769,0.04316
2843.03752,0.03887
2840.97735,0.03525
2838.91718,0.03255
2836.85700,0.03072
2834.79683,0.02952
2832.73666,0.02865
2830.67649,0.02791
2828.61632,0.02722
2826.55614,0.02668
2824.49597,0.02625
2822.43580,0.02579
2820.37563,0.02537
2818.31546,0.02497
2816.25528,0.02460
2814.19511,0.02437
2812.13494,0.02413
2810.07477,0.02378
2808.01460,0.02353
2805.95442,0.02342
2803.89425,0.02330
2801.83408,0.02310
2799.77391,0.02285
2797.71373,0.02264
2795.65356,0.02246
2793.59339,0.02215
2791.53322,0.02198
2789.47305,0.02207
2787.41287,0.02186
2785.35270,0.02128
2783.29253,0.02094
2781.23236,0.02091
2779.17219,0.02073
2777.11201,0.02040
2775.05184,0.02028
2772.99167,0.02041
2770.93150,0.02045
2768.87133,0.02028
2766.81115,0.02007
2764.75098,0.01989
2762.69081,0.01986
2760.63064,0.02013
2758.57046,0.02038
2756.51029,0.02031
2754.45012,0.02005
2752.38995,0.01983
2750.32978,0.01976
2748.26960,0.01975
2746.20943,0.01975
2744.14926,0.01981
2742.08909,0.01987
2740.02892,0.01975
2737.96874,0.01950
2735.90857,0.01941
2733.84840,0.01943
2731.78823,0.01929
2729.72805,0.01903
2727.66788,0.01883
2725.60771,0.01863
2723.54754,0.01847
2721.48737,0.01847
2719.42719,0.01848
2717.36702,0.01854
2715.30685,0.01869
2713.24668,0.01891
2711.18651,0.01927
2709.12633,0.01938
2707.06616,0.01906
2705.00599,0.01866
2702.94582,0.01841
2700.88565,0.01829
2698.82547,0.01822
2696.76530,0.01820
2694.70513,0.01815
2692.64496,0.01805
2690.58478,0.01788
2688.52461,0.01748
2686.46444,0.01709
2684.40427,0.01703
2682.34410,0.01719
2680.28392,0.01728
2678.22375,0.01721
2676.16358,0.01720
2674.10341,0.01731
2672.04324,0.01735
2669.98306,0.01728
2667.92289,0.01742
2665.86272,0.01770
2663.80255,0.01751
2661.74238,0.01705
2659.68220,0.01695
2657.62203,0.01695
2655.56186,0.01687
2653.50169,0.01691
2651.44151,0.01690
2649.38134,0.01672
2647.32117,0.01653
2645.26100,0.01646
2643.20083,0.01648
2641.14065,0.01652
2639.08048,0.01654
2637.02031,0.01633
2634.96014,0.01584
2632.89997,0.01530
2630.83979,0.01498
2628.77962,0.01503
2626.71945,0.01518
2624.65928,0.01534
2622.59910,0.01567
2620.53893,0.01599
2618.47876,0.01571
2616.41859,0.01497
2614.35842,0.01464
2612.29824,0.01477
2610.23807,0.01487
2608.17790,0.01471
2606.11773,0.01449
2604.05756,0.01436
2601.99738,0.01421
2599.93721,0.01424
2597.87704,0.01465
2595.81687,0.01471
2593.75670,0.01418
2591.69652,0.01389
2589.63635,0.01413
2587.57618,0.01445
2585.51601,0.01432
2583.45583,0.01365
2581.39566,0.01306
2579.33549,0.01307
2577.27532,0.01332
2575.21515,0.01353
2573.15497,0.01354
2571.09480,0.01352
2569.03463,0.01371
2566.97446,0.01381
2564.91429,0.01395
2562.85411,0.01425
2560.79394,0.01422
2558.73377,0.01379
2556.67360,0.01341
2554.61342,0.01305
2552.55325,0.01260
2550.49308,0.01248
2548.43291,0.01278
2546.37274,0.01293
2544.31256,0.01265
2542.25239,0.01239
2540.19222,0.01244
2538.13205,0.01252
2536.07188,0.01255
2534.01170,0.01246
2531.95153,0.01205
2529.89136,0.01174
2527.83119,0.01174
2525.77102,0.01165
2523.71084,0.01112
2521.65067,0.01040
2519.59050,0.01036
2517.53033,0.01106
2515.47015,0.01137
2513.40998,0.01098
2511.34981,0.01071
2509.28964,0.01067
2507.22947,0.01084
2505.16929,0.01119
2503.10912,0.01105
2501.04895,0.01089
2498.98878,0.01148
2496.92861,0.01214
2494.86843,0.01204
2492.80826,0.01138
2490.74809,0.01091
2488.68792,0.01079
2486.62775,0.01067
2484.56757,0.01070
2482.50740,0.01094
2480.44723,0.01108
2478.38706,0.01102
2476.32688,0.01090
2474.26671,0.01088
2472.20654,0.01079
2470.14637,0.01047
2468.08620,0.01021
2466.02602,0.01024
2463.96585,0.01020
2461.90568,0.01001
2459.84551,0.01014
2457.78534,0.01050
2455.72516,0.01078
2453.66499,0.01084
2451.60482,0.01055
2449.54465,0.01019
2447.48447,0.00992
2445.42430,0.00992
2443.36413,0.01032
2441.30396,0.01045
2439.24379,0.01011
2437.18361,0.00978
2435.12344,0.00948
2433.06327,0.00921
2431.00310,0.00903
2428.94293,0.00908
2426.88275,0.00933
2424.82258,0.00937
2422.76241,0.00907
2420.70224,0.00894
2418.64207,0.00925
2416.58189,0.00926
2414.52172,0.00876
2412.46155,0.00851
2410.40138,0.00864
2408.34120,0.00869
2406.28103,0.00827
2404.22086,0.00798
2402.16069,0.00819
2400.10052,0.00824
2398.04034,0.00834
2395.98017,0.00873
2393.92000,0.00908
2391.85983,0.00909
2389.79966,0.00876
2387.73948,0.00829
2385.67931,0.00796
2383.61914,0.00774
2381.55897,0.00752
2379.49880,0.00777
2377.43862,0.00875
2375.37845,0.00978
2373.31828,0.00925
2371.25811,0.00792
2369.19793,0.00855
2367.13776,0.01041
2365.07759,0.01116
2363.01742,0.01121
2360.95725,0.00911
2358.89707,0.00775
2356.83690,0.00748
2354.77673,0.00685
2352.71656,0.00619
2350.65639,0.00473
2348.59621,0.00528
2346.53604,0.01017
2344.47587,0.01110
2342.41570,0.00829
2340.35552,0.00552
2338.29535,0.00466
2336.23518,0.00521
2334.17501,0.00529
2332.11484,0.00544
2330.05466,0.00608
2327.99449,0.00751
2325.93432,0.00807
2323.87415,0.00788
2321.81398,0.00776
2319.75380,0.00887
2317.69363,0.00899
2315.63346,0.00855
2313.57329,0.00844
2311.51312,0.00849
2309.45294,0.00859
2307.39277,0.00849
2305.33260,0.00793
2303.27243,0.00747
2301.21225,0.00780
2299.15208,0.00818
2297.09191,0.00810
2295.03174,0.00767
2292.97157,0.00721
2290.91139,0.00738
2288.85122,0.00803
2286.79105,0.00817
2284.73088,0.00777
2282.67071,0.00754
2280.61053,0.00747
2278.55036,0.00713
2276.49019,0.00675
2274.43002,0.00692
2272.36984,0.00750
2270.30967,0.00784
2268.24950,0.00798
2266.18933,0.00824
2264.12916,0.00836
2262.06898,0.00790
2260.00881,0.00683
2257.94864,0.00589
2255.88847,0.00588
2253.82830,0.00632
2251.76812,0.00677
2249.70795,0.00687
2247.64778,0.00601
2245.58761,0.00552
2243.52744,0.00628
2241.46726,0.00683
2239.40709,0.00684
2237.34692,0.00718
2235.28675,0.00741
2233.22657,0.00662
2231.16640,0.00595
2229.10623,0.00612
2227.04606,0.00514
2224.98589,0.00312
2222.92571,0.00259
2220.86554,0.00357
2218.80537,0.00504
2216.74520,0.00607
2214.68503,0.00504
2212.62485,0.00264
2210.56468,0.00186
2208.50451,0.00374
2206.44434,0.00572
2204.38417,0.00549
2202.32399,0.00401
2200.26382,0.00365
2198.20365,0.00505
2196.14348,0.00650
2194.08330,0.00609
2192.02313,0.00415
2189.96296,0.00330
2187.90279,0.00343
2185.84262,0.00272
2183.78244,0.00232
2181.72227,0.00266
2179.66210,0.00327
2177.60193,0.00383
2175.54176,0.00307
2173.48158,0.00198
2171.42141,0.00298
2169.36124,0.00486
2167.30107,0.00489
2165.24089,0.00417
2163.18072,0.00424
2161.12055,0.00401
2159.06038,0.00324
2157.00021,0.00334
2154.94003,0.00498
2152.87986,0.00620
2150.81969,0.00540
2148.75952,0.00373
2146.69935,0.00279
2144.63917,0.00293
2142.57900,0.00336
2140.51883,0.00366
2138.45866,0.00370
2136.39849,0.00323
2134.33831,0.00269
2132.27814,0.00297
2130.21797,0.00356
2128.15780,0.00355
2126.09762,0.00354
2124.03745,0.00404
2121.97728,0.00463
2119.91711,0.00488
2117.85694,0.00490
2115.79676,0.00512
2113.73659,0.00525
2111.67642,0.00533
2109.61625,0.00609
2107.55608,0.00676
2105.49590,0.00667
2103.43573,0.00630
2101.37556,0.00566
2099.31539,0.00482
2097.25521,0.00412
2095.19504,0.00410
2093.13487,0.00489
2091.07470,0.00549
2089.01453,0.00531
2086.95435,0.00474
2084.89418,0.00421
2082.83401,0.00385
2080.77384,0.00339
2078.71367,0.00301
2076.65349,0.00324
2074.59332,0.00382
2072.53315,0.00441
2070.47298,0.00486
2068.41281,0.00492
2066.35263,0.00481
2064.29246,0.00561
2062.23229,0.00712
2060.17212,0.00706
2058.11194,0.00535
2056.05177,0.00444
2053.99160,0.00492
2051.93143,0.00504
2049.87126,0.00486
2047.81108,0.00611
2045.75091,0.00768
2043.69074,0.00742
2041.63057,0.00583
2039.57040,0.00442
2037.51022,0.00400
2035.45005,0.00398
2033.38988,0.00256
2031.32971,0.00013
2029.26954,0.00000
2027.20936,0.00244
2025.14919,0.00401
2023.08902,0.00398
2021.02885,0.00421
2018.96867,0.00532
2016.90850,0.00571
2014.84833,0.00435
2012.78816,0.00265
2010.72799,0.00171
2008.66781,0.00202
2006.60764,0.00357
2004.54747,0.00430
2002.48730,0.00324
2000.42713,0.00247
1998.36695,0.00251
1996.30678,0.00241
1994.24661,0.00213
1992.18644,0.00168
1990.12626,0.00159
1988.06609,0.00264
1986.00592,0.00461
1983.94575,0.00591
1981.88558,0.00462
1979.82540,0.00151
1977.76523,0.00000
1975.70506,0.00077
1973.64489,0.00225
1971.58472,0.00420
1969.52454,0.00544
1967.46437,0.00495
1965.40420,0.00376
1963.34403,0.00283
1961.28386,0.00254
1959.22368,0.00295
1957.16351,0.00330
1955.10334,0.00255
1953.04317,0.00126
1950.98299,0.00102
1948.92282,0.00190
1946.86265,0.00256
1944.80248,0.00242
1942.74231,0.00227
1940.68213,0.00277
1938.62196,0.00338
1936.56179,0.00390
1934.50162,0.00429
1932.44145,0.00405
1930.38127,0.00338
1928.32110,0.00291
1926.26093,0.00306
1924.20076,0.00362
1922.14059,0.00383
1920.08041,0.00337
1918.02024,0.00258
1915.96007,0.00212
1913.89990,0.00204
1911.83972,0.00166
1909.77955,0.00127
1907.71938,0.00172
1905.65921,0.00244
1903.59904,0.00255
1901.53886,0.00242
1899.47869,0.00231
1897.41852,0.00193
1895.35835,0.00122
1893.29818,0.00063
1891.23800,0.00078
1889.17783,0.00158
1887.11766,0.00197
1885.05749,0.00184
1882.99731,0.00170
1880.93714,0.00145
1878.87697,0.00119
1876.81680,0.00132
1874.75663,0.00177
1872.69645,0.00215
1870.63628,0.00207
1868.57611,0.00168
1866.51594,0.00155
1864.45577,0.00158
1862.39559,0.00159
1860.33542,0.00171
1858.27525,0.00183
1856.21508,0.00177
1854.15491,0.00180
1852.09473,0.00217
1850.03456,0.00230
1847.97439,0.00168
1845.91422,0.00093
1843.85404,0.00100
1841.79387,0.00167
1839.73370,0.00216
1837.67353,0.00211
1835.61336,0.00147
1833.55318,0.00073
1831.49301,0.00053
1829.43284,0.00066
1827.37267,0.00060
1825.31250,0.00047
1823.25232,0.00048
1821.19215,0.00047
1819.13198,0.00049
1817.07181,0.00081
1815.01163,0.00125
1812.95146,0.00138
1810.89129,0.00125
1808.83112,0.00120
1806.77095,0.00101
1804.71077,0.00044
1802.65060,0.00000
1800.59043,0.00002
1798.53026,0.00022
1796.47009,0.00028
1794.40991,0.00025
1792.34974,0.00035
1790.28957,0.00056
1788.22940,0.00064
1786.16923,0.00055
1784.10905,0.00042
1782.04888,0.00031
1779.98871,0.00014
1777.92854,0.00000
1775.86836,0.00001
1773.80819,0.00007
1771.74802,0.00014
1769.68785,0.00027
1767.62768,0.00028
1765.56750,0.00028
1763.50733,0.00064
1761.44716,0.00141
1759.38699,0.00234
1757.32682,0.00327
1755.26664,0.00423
1753.20647,0.00519
1751.14630,0.00638
1749.08613,0.00800
1747.02596,0.00995
1744.96578,0.01229
1742.90561,0.01528
1740.84544,0.01894
1738.78527,0.02286
1736.72509,0.02650
1734.66492,0.02998
1732.60475,0.03274
1730.54458,0.03377
1728.48441,0.03380
1726.42423,0.03366
1724.36406,0.03326
1722.30389,0.03267
1720.24372,0.03236
1718.18355,0.03216
1716.12337,0.03159
1714.06320,0.03109
1712.00303,0.03087
1709.94286,0.03053
1707.88268,0.02997
1705.82251,0.02921
1703.76234,0.02829
1701.70217,0.02732
1699.64200,0.02629
1697.58182,0.02525
1695.52165,0.02423
1693.46148,0.02333
1691.40131,0.02274
1689.34114,0.02243
1687.28096,0.02215
1685.22079,0.02164
1683.16062,0.02126
1681.10045,0.02128
1679.04028,0.02131
1676.98010,0.02140
1674.91993,0.02182
1672.85976,0.02231
1670.79959,0.02266
1668.73941,0.02322
1666.67924,0.02416
1664.61907,0.02515
1662.55890,0.02606
1660.49873,0.02701
1658.43855,0.02804
1656.37838,0.02909
1654.31821,0.03011
1652.25804,0.03088
1650.19787,0.03112
1648.13769,0.03091
1646.07752,0.03073
1644.01735,0.03094
1641.95718,0.03124
1639.89701,0.03152
1637.83683,0.03180
1635.77666,0.03212
1633.71649,0.03275
1631.65632,0.03350
1629.59614,0.03400
1627.53597,0.03428
1625.47580,0.03462
1623.41563,0.03510
1621.35546,0.03571
1619.29528,0.03633
1617.23511,0.03699
1615.17494,0.03778
1613.11477,0.03850
1611.05460,0.03909
1608.99442,0.03971
1606.93425,0.04045
1604.87408,0.04107
1602.81391,0.04108
1600.75373,0.04033
1598.69356,0.03912
1596.63339,0.03768
1594.57322,0.03616
1592.51305,0.03477
1590.45287,0.03355
1588.39270,0.03234
1586.33253,0.03093
1584.27236,0.02942
1582.21219,0.02808
1580.15201,0.02692
1578.09184,0.02563
1576.03167,0.02405
1573.97150,0.02278
1571.91133,0.02185
1569.85115,0.02058
1567.79098,0.01915
1565.73081,0.01819
1563.67064,0.01782
1561.61046,0.01788
1559.55029,0.01764
1557.49012,0.01661
1555.42995,0.01592
1553.36978,0.01594
1551.30960,0.01625
1549.24943,0.01653
1547.18926,0.01669
1545.12909,0.01640
1543.06892,0.01527
1541.00874,0.01395
1538.94857,0.01384
1536.88840,0.01443
1534.82823,0.01469
1532.76805,0.01462
1530.70788,0.01449
1528.64771,0.01417
1526.58754,0.01360
1524.52737,0.01314
1522.46719,0.01309
1520.40702,0.01326
1518.34685,0.01347
1516.28668,0.01382
1514.22651,0.01422
1512.16633,0.01410
1510.10616,0.01314
1508.04599,0.01154
1505.98582,0.01000
1503.92565,0.00916
1501.86547,0.00854
1499.80530,0.00771
1497.74513,0.00673
1495.68496,0.00579
1493.62478,0.00505
1491.56461,0.00442
1489.50444,0.00357
1487.44427,0.00266
1485.38410,0.00213
1483.32392,0.00209
1481.26375,0.00248
1479.20358,0.00308
1477.14341,0.00378
1475.08324,0.00510
1473.02306,0.00754
1470.96289,0.01038
1468.90272,0.01266
1466.84255,0.01473
1464.78238,0.01686
1462.72220,0.01837
1460.66203,0.01904
1458.60186,0.01965
1456.54169,0.02094
1454.48151,0.02239
1452.42134,0.02342
1450.36117,0.02416
1448.30100,0.02481
1446.24083,0.02546
1444.18065,0.02602
1442.12048,0.02633
1440.06031,0.02635
1438.00014,0.02583
1435.93997,0.02447
1433.87979,0.02292
1431.81962,0.02176
1429.75945,0.02079
1427.69928,0.01989
1425.63910,0.01916
1423.57893,0.01870
1421.51876,0.01850
1419.45859,0.01840
1417.39842,0.01833
1415.33824,0.01832
1413.27807,0.01829
1411.21790,0.01819
1409.15773,0.01807
1407.09756,0.01785
1405.03738,0.01759
1402.97721,0.01754
1400.91704,0.01766
1398.85687,0.01761
1396.79670,0.01741
1394.73652,0.01748
1392.67635,0.01809
1390.61618,0.01895
1388.55601,0.01963
1386.49583,0.02004
1384.43566,0.02047
1382.37549,0.02116
1380.31532,0.02205
1378.25515,0.02303
1376.19497,0.02398
1374.13480,0.02476
1372.07463,0.02534
1370.01446,0.02579
1367.95429,0.02616
1365.89411,0.02648
1363.83394,0.02665
1361.77377,0.02653
1359.71360,0.02644
1357.65343,0.02668
1355.59325,0.02714
1353.53308,0.02763
1351.47291,0.02799
1349.41274,0.02811
1347.35256,0.02807
1345.29239,0.02809
1343.23222,0.02826
1341.17205,0.02856
1339.11188,0.02899
1337.05170,0.02951
1334.99153,0.02994
1332.93136,0.03023
1330.87119,0.03066
1328.81102,0.03131
1326.75084,0.03200
1324.69067,0.03267
1322.63050,0.03327
1320.57033,0.03361
1318.51015,0.03354
1316.44998,0.03331
1314.38981,0.03319
1312.32964,0.03300
1310.26947,0.03250
1308.20929,0.03162
1306.14912,0.03038
1304.08895,0.02892
1302.02878,0.02736
1299.96861,0.02584
1297.90843,0.02450
1295.84826,0.02328
1293.78809,0.02210
1291.72792,0.02116
1289.66775,0.02055
1287.60757,0.02017
1285.54740,0.01979
1283.48723,0.01936
1281.42706,0.01910
1279.36688,0.01926
1277.30671,0.01952
1275.24654,0.01969
1273.18637,0.02005
1271.12620,0.02060
1269.06602,0.02118
1267.00585,0.02176
1264.94568,0.02233
1262.88551,0.02297
1260.82534,0.02368
1258.76516,0.02429
1256.70499,0.02472
1254.64482,0.02508
1252.58465,0.02553
1250.52447,0.02602
1248.46430,0.02653
1246.40413,0.02708
1244.34396,0.02779
1242.28379,0.02874
1240.22361,0.02966
1238.16344,0.03047
1236.10327,0.03126
1234.04310,0.03186
1231.98293,0.03229
1229.92275,0.03284
1227.86258,0.03350
1225.80241,0.03401
1223.74224,0.03439
1221.68207,0.03489
1219.62189,0.03551
1217.56172,0.03613
1215.50155,0.03661
1213.44138,0.03696
1211.38120,0.03745
1209.32103,0.03825
1207.26086,0.03921
1205.20069,0.04019
1203.14052,0.04117
1201.08034,0.04201
1199.02017,0.04249
1196.96000,0.04251
1194.89983,0.04233
1192.83966,0.04213
1190.77948,0.04172
1188.71931,0.04115
1186.65914,0.04060
1184.59897,0.04019
1182.53880,0.03977
1180.47862,0.03918
1178.41845,0.03881
1176.35828,0.03882
1174.29811,0.03868
1172.23793,0.03846
1170.17776,0.03863
1168.11759,0.03881
1166.05742,0.03867
1163.99725,0.03818
1161.93707,0.03738
1159.87690,0.03649
1157.81673,0.03563
1155.75656,0.03488
1153.69639,0.03409
1151.63621,0.03320
1149.57604,0.03254
1147.51587,0.03212
1145.45570,0.03153
1143.39552,0.03077
1141.33535,0.02986
1139.27518,0.02859
1137.21501,0.02738
1135.15484,0.02682
1133.09466,0.02685
1131.03449,0.02717
1128.97432,0.02765
1126.91415,0.02842
1124.85398,0.02951
1122.79380,0.03082
1120.73363,0.03226
1118.67346,0.03390
1116.61329,0.03592
1114.55312,0.03836
1112.49294,0.04092
1110.43277,0.04337
1108.37260,0.04584
1106.31243,0.04856
1104.25225,0.05134
1102.19208,0.05353
1100.13191,0.05485
1098.07174,0.05565
1096.01157,0.05643
1093.95139,0.05758
1091.89122,0.05908
1089.83105,0.06042
1087.77088,0.06153
1085.71071,0.06295
1083.65053,0.06507
1081.59036,0.06735
1079.53019,0.06925
1077.47002,0.07110
1075.40985,0.07293
1073.34967,0.07426
1071.28950,0.07512
1069.22933,0.07598
1067.16916,0.07700
1065.10898,0.07812
1063.04881,0.07928
1060.98864,0.08048
1058.92847,0.08156
1056.86830,0.08241
1054.80812,0.08330
1052.74795,0.08430
1050.68778,0.08533
1048.62761,0.08666
1046.56744,0.08830
1044.50726,0.08958
1042.44709,0.09038
1040.38692,0.09144
1038.32675,0.09298
1036.26657,0.09462
1034.20640,0.09636
1032.14623,0.09817
1030.08606,0.09954
1028.02589,0.10021
1025.96571,0.10032
1023.90554,0.10027
1021.84537,0.10042
1019.78520,0.10060
1017.72503,0.10061
1015.66485,0.10025
1013.60468,0.09921
1011.54451,0.09753
1009.48434,0.09558
1007.42417,0.09367
1005.36399,0.09177
1003.30382,0.08976
1001.24365,0.08757
999.18348,0.08522
997.12330,0.08277
995.06313,0.08037
993.00296,0.07815
990.94279,0.07588
988.88262,0.07350
986.82244,0.07107
984.76227,0.06811
982.70210,0.06485
980.64193,0.06221
978.58176,0.06005
976.52158,0.05771
974.46141,0.05526
972.40124,0.05307
970.34107,0.05129
968.28089,0.04970
966.22072,0.04816
964.16055,0.04686
962.10038,0.04572
960.04021,0.04420
957.98003,0.04209
955.91986,0.03990
953.85969,0.03778
951.79952,0.03544
949.73935,0.03315
947.67917,0.03109
945.61900,0.02914
943.55883,0.02743
941.49866,0.02600
939.43849,0.02491
937.37831,0.02389
935.31814,0.02270
933.25797,0.02170
931.19780,0.02123
929.13762,0.02088
927.07745,0.02014
925.01728,0.01940
922.95711,0.01878
920.89694,0.01792
918.83676,0.01699
916.77659,0.01610
914.71642,0.01494
912.65625,0.01372
910.59608,0.01261
908.53590,0.01156
906.47573,0.01053
904.41556,0.00980
902.35539,0.00968
900.29522,0.00972
898.23504,0.00969
896.17487,0.00971
894.11470,0.00975
892.05453,0.00973
889.99435,0.00934
887.93418,0.00874
885.87401,0.00836
883.81384,0.00762
881.75367,0.00668
879.69349,0.00692
877.63332,0.00817
875.57315,0.00922
873.51298,0.00966
871.45281,0.00945
869.39263,0.00868
867.33246,0.00806
865.27229,0.00772
863.21212,0.00702
861.15194,0.00569
859.09177,0.00388
857.03160,0.00215
854.97143,0.00152
852.91126,0.00184
850.85108,0.00134
848.79091,0.00000
846.73074,0.00003
844.67057,0.00145
842.61040,0.00212
840.55022,0.00203
838.49005,0.00229
836.42988,0.00300
834.36971,0.00337
832.30954,0.00313
830.24936,0.00283
828.18919,0.00286
826.12902,0.00330
824.06885,0.00395
822.00867,0.00424
819.94850,0.00413
817.88833,0.00438
815.82816,0.00484
813.76799,0.00474
811.70781,0.00411
809.64764,0.00332
807.58747,0.00271
805.52730,0.00227
803.46713,0.00178
801.40695,0.00135
799.34678,0.00103
797.28661,0.00072
795.22644,0.00027
793.16627,0.00000
791.10609,0.00045
789.04592,0.00155
786.98575,0.00205
784.92558,0.00233
782.86540,0.00294
780.80523,0.00328
778.74506,0.00355
776.68489,0.00434
774.62472,0.00483
772.56454,0.00451
770.50437,0.00413
768.44420,0.00448
766.38403,0.00588
764.32386,0.00807
762.26368,0.01022
760.20351,0.01143
758.14334,0.01176
756.08317,0.01160
754.02299,0.01103
751.96282,0.01015
749.90265,0.00875
747.84248,0.00681
745.78231,0.00518
743.72213,0.00472
741.66196,0.00496
739.60179,0.00480
737.54162,0.00388
735.48145,0.00270
733.42127,0.00189
731.36110,0.00177
729.30093,0.00242
727.24076,0.00348
725.18059,0.00479
723.12041,0.00571
721.06024,0.00683
719.00007,0.00707
716.93990,0.00586
714.87972,0.00402
712.81955,0.00299
710.75938,0.00300
708.69921,0.00325
706.63904,0.00316
704.57886,0.00268
702.51869,0.00208
700.45852,0.00112
698.39835,0.00001
696.33818,0.00005
694.27800,0.00108
692.21783,0.00150
690.15766,0.00113
688.09749,0.00046
686.03731,-0.00052
683.97714,-0.00070
681.91697,0.00059
679.85680,0.00194
677.79663,0.00218
675.73645,0.00183
673.67628,0.00086
671.61611,-0.00112
669.55594,0.00098
667.49577,0.00423
665.43559,-0.00017
663.37542,0.00199
661.31525,0.00461
659.25508,0.00419
657.19491,0.00154
655.13473,-0.00120
653.07456,-0.00230
651.01439,-0.00156
648.95422,0.00000
646.89404,0.00077
644.83387,0.00067
642.77370,-0.00031
640.71353,-0.00084
638.65336,-0.00131
636.59318,-0.00217
634.53301,-0.00165
632.47284,0.00128
630.41267,0.00495
628.35250,0.00579
626.29232,0.00194
624.23215,-0.00358
622.17198,-0.00879
620.11181,-0.00906
618.05164,-0.00320
615.99146,0.00212
613.93129,0.00370
611.87112,0.00170
609.81095,-0.00215
607.75077,-0.00426
605.69060,-0.00395
603.63043,-0.00212
601.57026,-0.00012
599.51009,0.00000
