Created as New Dataset,Sample 352 By Analyst Date Tuesday, February 04 2025
cm-1,A
4000.00,-0.0018
3999.00,-0.0018
3998.00,-0.0018
3997.00,-0.0018
3996.00,-0.0018
3995.00,-0.0018
3994.00,-0.0018
3993.00,-0.0018
3992.00,-0.0018
3991.00,-0.0018
3990.00,-0.0018
3989.00,-0.0018
3988.00,-0.0018
3987.00,-0.0018
3986.00,-0.0018
3985.00,-0.0018
3984.00,-0.0018
3983.00,-0.0018
3982.00,-0.0018
3981.00,-0.0018
3980.00,-0.0018
3979.00,-0.0018
3978.00,-0.0018
3977.00,-0.0018
3976.00,-0.0018
3975.00,-0.0018
3974.00,-0.0018
3973.00,-0.0018
3972.00,-0.0018
3971.00,-0.0018
3970.00,-0.0018
3969.00,-0.0018
3968.00,-0.0018
3967.00,-0.0018
3966.00,-0.0018
3965.00,-0.0018
3964.00,-0.0018
3963.00,-0.0018
3962.00,-0.0018
3961.00,-0.0018
3960.00,-0.0017
3959.00,-0.0017
3958.00,-0.0017
3957.00,-0.0018
3956.00,-0.0018
3955.00,-0.0018
3954.00,-0.0018
3953.00,-0.0017
3952.00,-0.0017
3951.00,-0.0017
3950.00,-0.0017
3949.00,-0.0016
3948.00,-0.0016
3947.00,-0.0016
3946.00,-0.0016
3945.00,-0.0015
3944.00,-0.0016
3943.00,-0.0016
3942.00,-0.0016
3941.00,-0.0017
3940.00,-0.0016
3939.00,-0.0016
3938.00,-0.0017
3937.00,-0.0017
3936.00,-0.0017
3935.00,-0.0016
3934.00,-0.0016
3933.00,-0.0015
3932.00,-0.0015
3931.00,-0.0016
3930.00,-0.0016
3929.00,-0.0016
3928.00,-0.0016
3927.00,-0.0016
3926.00,-0.0016
3925.00,-0.0016
3924.00,-0.0016
3923.00,-0.0016
3922.00,-0.0015
3921.00,-0.0015
3920.00,-0.0014
3919.00,-0.0014
3918.00,-0.0014
3917.00,-0.0015
3916.00,-0.0015
3915.00,-0.0016
3914.00,-0.0016
3913.00,-0.0016
3912.00,-0.0017
3911.00,-0.0017
3910.00,-0.0017
3909.00,-0.0017
3908.00,-0.0017
3907.00,-0.0016
3906.00,-0.0015
3905.00,-0.0014
3904.00,-0.0013
3903.00,-0.0011
3902.00,-0.0010
3901.00,-0.0010
3900.00,-0.0010
3899.00,-0.0011
3898.00,-0.0012
3897.00,-0.0013
3896.00,-0.0014
3895.00,-0.0014
3894.00,-0.0015
3893.00,-0.0015
3892.00,-0.0015
3891.00,-0.0015
3890.00,-0.0015
3889.00,-0.0014
3888.00,-0.0013
3887.00,-0.0012
3886.00,-0.0012
3885.00,-0.0013
3884.00,-0.0013
3883.00,-0.0012
3882.00,-0.0012
3881.00,-0.0012
3880.00,-0.0013
3879.00,-0.0014
3878.00,-0.0014
3877.00,-0.0013
3876.00,-0.0013
3875.00,-0.0013
3874.00,-0.0014
3873.00,-0.0014
3872.00,-0.0013
3871.00,-0.0012
3870.00,-0.0011
3869.00,-0.0012
3868.00,-0.0012
3867.00,-0.0011
3866.00,-0.0011
3865.00,-0.0011
3864.00,-0.0012
3863.00,-0.0013
3862.00,-0.0012
3861.00,-0.0012
3860.00,-0.0013
3859.00,-0.0014
3858.00,-0.0015
3857.00,-0.0017
3856.00,-0.0018
3855.00,-0.0017
3854.00,-0.0016
3853.00,-0.0014
3852.00,-0.0013
3851.00,-0.0012
3850.00,-0.0012
3849.00,-0.0012
3848.00,-0.0012
3847.00,-0.0013
3846.00,-0.0013
3845.00,-0.0014
3844.00,-0.0014
3843.00,-0.0013
3842.00,-0.0013
3841.00,-0.0013
3840.00,-0.0012
3839.00,-0.0012
3838.00,-0.0011
3837.00,-0.0011
3836.00,-0.0011
3835.00,-0.0011
3834.00,-0.0012
3833.00,-0.0012
3832.00,-0.0012
3831.00,-0.0013
3830.00,-0.0014
3829.00,-0.0014
3828.00,-0.0013
3827.00,-0.0014
3826.00,-0.0014
3825.00,-0.0014
3824.00,-0.0014
3823.00,-0.0012
3822.00,-0.0012
3821.00,-0.0012
3820.00,-0.0013
3819.00,-0.0012
3818.00,-0.0011
3817.00,-0.0011
3816.00,-0.0012
3815.00,-0.0014
3814.00,-0.0015
3813.00,-0.0015
3812.00,-0.0015
3811.00,-0.0015
3810.00,-0.0016
3809.00,-0.0016
3808.00,-0.0015
3807.00,-0.0015
3806.00,-0.0015
3805.00,-0.0014
3804.00,-0.0013
3803.00,-0.0012
3802.00,-0.0012
3801.00,-0.0013
3800.00,-0.0014
3799.00,-0.0013
3798.00,-0.0012
3797.00,-0.0012
3796.00,-0.0013
3795.00,-0.0014
3794.00,-0.0015
3793.00,-0.0015
3792.00,-0.0016
3791.00,-0.0016
3790.00,-0.0017
3789.00,-0.0017
3788.00,-0.0017
3787.00,-0.0017
3786.00,-0.0016
3785.00,-0.0016
3784.00,-0.0016
3783.00,-0.0016
3782.00,-0.0015
3781.00,-0.0015
3780.00,-0.0015
3779.00,-0.0015
3778.00,-0.0016
3777.00,-0.0016
3776.00,-0.0015
3775.00,-0.0016
3774.00,-0.0016
3773.00,-0.0016
3772.00,-0.0016
3771.00,-0.0015
3770.00,-0.0015
3769.00,-0.0014
3768.00,-0.0014
3767.00,-0.0013
3766.00,-0.0013
3765.00,-0.0014
3764.00,-0.0014
3763.00,-0.0014
3762.00,-0.0013
3761.00,-0.0013
3760.00,-0.0013
3759.00,-0.0013
3758.00,-0.0013
3757.00,-0.0013
3756.00,-0.0013
3755.00,-0.0012
3754.00,-0.0012
3753.00,-0.0011
3752.00,-0.0011
3751.00,-0.0010
3750.00,-0.0009
3749.00,-0.0009
3748.00,-0.0009
3747.00,-0.0008
3746.00,-0.0008
3745.00,-0.0008
3744.00,-0.0009
3743.00,-0.0010
3742.00,-0.0009
3741.00,-0.0008
3740.00,-0.0007
3739.00,-0.0007
3738.00,-0.0006
3737.00,-0.0006
3736.00,-0.0007
3735.00,-0.0008
3734.00,-0.0008
3733.00,-0.0008
3732.00,-0.0008
3731.00,-0.0010
3730.00,-0.0010
3729.00,-0.0010
3728.00,-0.0010
3727.00,-0.0011
3726.00,-0.0012
3725.00,-0.0012
3724.00,-0.0012
3723.00,-0.0012
3722.00,-0.0012
3721.00,-0.0013
3720.00,-0.0013
3719.00,-0.0013
3718.00,-0.0013
3717.00,-0.0014
3716.00,-0.0014
3715.00,-0.0013
3714.00,-0.0012
3713.00,-0.0012
3712.00,-0.0011
3711.00,-0.0011
3710.00,-0.0011
3709.00,-0.0011
3708.00,-0.0012
3707.00,-0.0013
3706.00,-0.0013
3705.00,-0.0014
3704.00,-0.0014
3703.00,-0.0015
3702.00,-0.0015
3701.00,-0.0016
3700.00,-0.0016
3699.00,-0.0015
3698.00,-0.0015
3697.00,-0.0015
3696.00,-0.0015
3695.00,-0.0015
3694.00,-0.0015
3693.00,-0.0015
3692.00,-0.0015
3691.00,-0.0014
3690.00,-0.0014
3689.00,-0.0013
3688.00,-0.0013
3687.00,-0.0013
3686.00,-0.0013
3685.00,-0.0013
3684.00,-0.0013
3683.00,-0.0014
3682.00,-0.0014
3681.00,-0.0014
3680.00,-0.0014
3679.00,-0.0014
3678.00,-0.0012
3677.00,-0.0011
3676.00,-0.0010
3675.00,-0.0010
3674.00,-0.0010
3673.00,-0.0009
3672.00,-0.0008
3671.00,-0.0008
3670.00,-0.0009
3669.00,-0.0011
3668.00,-0.0012
3667.00,-0.0012
3666.00,-0.0013
3665.00,-0.0014
3664.00,-0.0015
3663.00,-0.0015
3662.00,-0.0016
3661.00,-0.0016
3660.00,-0.0016
3659.00,-0.0016
3658.00,-0.0015
3657.00,-0.0014
3656.00,-0.0014
3655.00,-0.0014
3654.00,-0.0013
3653.00,-0.0011
3652.00,-0.0009
3651.00,-0.0008
3650.00,-0.0008
3649.00,-0.0007
3648.00,-0.0006
3647.00,-0.0007
3646.00,-0.0008
3645.00,-0.0010
3644.00,-0.0011
3643.00,-0.0012
3642.00,-0.0014
3641.00,-0.0015
3640.00,-0.0015
3639.00,-0.0015
3638.00,-0.0015
3637.00,-0.0015
3636.00,-0.0015
3635.00,-0.0014
3634.00,-0.0014
3633.00,-0.0014
3632.00,-0.0013
3631.00,-0.0012
3630.00,-0.0010
3629.00,-0.0010
3628.00,-0.0011
3627.00,-0.0011
3626.00,-0.0010
3625.00,-0.0011
3624.00,-0.0012
3623.00,-0.0013
3622.00,-0.0014
3621.00,-0.0014
3620.00,-0.0014
3619.00,-0.0013
3618.00,-0.0012
3617.00,-0.0011
3616.00,-0.0010
3615.00,-0.0009
3614.00,-0.0009
3613.00,-0.0010
3612.00,-0.0010
3611.00,-0.0009
3610.00,-0.0009
3609.00,-0.0009
3608.00,-0.0010
3607.00,-0.0012
3606.00,-0.0012
3605.00,-0.0013
3604.00,-0.0013
3603.00,-0.0014
3602.00,-0.0014
3601.00,-0.0015
3600.00,-0.0014
3599.00,-0.0014
3598.00,-0.0014
3597.00,-0.0013
3596.00,-0.0013
3595.00,-0.0013
3594.00,-0.0013
3593.00,-0.0013
3592.00,-0.0013
3591.00,-0.0012
3590.00,-0.0011
3589.00,-0.0011
3588.00,-0.0011
3587.00,-0.0012
3586.00,-0.0012
3585.00,-0.0012
3584.00,-0.0012
3583.00,-0.0013
3582.00,-0.0014
3581.00,-0.0015
3580.00,-0.0015
3579.00,-0.0016
3578.00,-0.0016
3577.00,-0.0016
3576.00,-0.0016
3575.00,-0.0016
3574.00,-0.0016
3573.00,-0.0015
3572.00,-0.0015
3571.00,-0.0014
3570.00,-0.0012
3569.00,-0.0011
3568.00,-0.0011
3567.00,-0.0011
3566.00,-0.0011
3565.00,-0.0011
3564.00,-0.0011
3563.00,-0.0012
3562.00,-0.0013
3561.00,-0.0014
3560.00,-0.0015
3559.00,-0.0016
3558.00,-0.0016
3557.00,-0.0016
3556.00,-0.0016
3555.00,-0.0016
3554.00,-0.0016
3553.00,-0.0016
3552.00,-0.0016
3551.00,-0.0015
3550.00,-0.0015
3549.00,-0.0014
3548.00,-0.0014
3547.00,-0.0014
3546.00,-0.0014
3545.00,-0.0014
3544.00,-0.0014
3543.00,-0.0014
3542.00,-0.0015
3541.00,-0.0015
3540.00,-0.0016
3539.00,-0.0016
3538.00,-0.0016
3537.00,-0.0016
3536.00,-0.0016
3535.00,-0.0016
3534.00,-0.0016
3533.00,-0.0016
3532.00,-0.0016
3531.00,-0.0016
3530.00,-0.0016
3529.00,-0.0015
3528.00,-0.0015
3527.00,-0.0015
3526.00,-0.0014
3525.00,-0.0014
3524.00,-0.0015
3523.00,-0.0015
3522.00,-0.0015
3521.00,-0.0016
3520.00,-0.0016
3519.00,-0.0016
3518.00,-0.0016
3517.00,-0.0017
3516.00,-0.0017
3515.00,-0.0017
3514.00,-0.0017
3513.00,-0.0017
3512.00,-0.0017
3511.00,-0.0016
3510.00,-0.0016
3509.00,-0.0016
3508.00,-0.0016
3507.00,-0.0016
3506.00,-0.0016
3505.00,-0.0016
3504.00,-0.0016
3503.00,-0.0016
3502.00,-0.0016
3501.00,-0.0016
3500.00,-0.0016
3499.00,-0.0016
3498.00,-0.0017
3497.00,-0.0017
3496.00,-0.0017
3495.00,-0.0017
3494.00,-0.0017
3493.00,-0.0017
3492.00,-0.0017
3491.00,-0.0017
3490.00,-0.0017
3489.00,-0.0017
3488.00,-0.0017
3487.00,-0.0017
3486.00,-0.0017
3485.00,-0.0017
3484.00,-0.0017
3483.00,-0.0017
3482.00,-0.0017
3481.00,-0.0017
3480.00,-0.0017
3479.00,-0.0017
3478.00,-0.0017
3477.00,-0.0017
3476.00,-0.0018
3475.00,-0.0018
3474.00,-0.0018
3473.00,-0.0018
3472.00,-0.0018
3471.00,-0.0018
3470.00,-0.0017
3469.00,-0.0017
3468.00,-0.0017
3467.00,-0.0017
3466.00,-0.0017
3465.00,-0.0017
3464.00,-0.0017
3463.00,-0.0017
3462.00,-0.0017
3461.00,-0.0018
3460.00,-0.0018
3459.00,-0.0018
3458.00,-0.0018
3457.00,-0.0018
3456.00,-0.0018
3455.00,-0.0018
3454.00,-0.0018
3453.00,-0.0018
3452.00,-0.0018
3451.00,-0.0018
3450.00,-0.0018
3449.00,-0.0017
3448.00,-0.0017
3447.00,-0.0017
3446.00,-0.0017
3445.00,-0.0017
3444.00,-0.0017
3443.00,-0.0017
3442.00,-0.0017
3441.00,-0.0018
3440.00,-0.0018
3439.00,-0.0018
3438.00,-0.0018
3437.00,-0.0018
3436.00,-0.0018
3435.00,-0.0018
3434.00,-0.0018
3433.00,-0.0018
3432.00,-0.0018
3431.00,-0.0018
3430.00,-0.0018
3429.00,-0.0018
3428.00,-0.0018
3427.00,-0.0018
3426.00,-0.0018
3425.00,-0.0018
3424.00,-0.0018
3423.00,-0.0018
3422.00,-0.0017
3421.00,-0.0017
3420.00,-0.0017
3419.00,-0.0017
3418.00,-0.0017
3417.00,-0.0017
3416.00,-0.0018
3415.00,-0.0018
3414.00,-0.0018
3413.00,-0.0018
3412.00,-0.0018
3411.00,-0.0018
3410.00,-0.0018
3409.00,-0.0018
3408.00,-0.0018
3407.00,-0.0018
3406.00,-0.0018
3405.00,-0.0018
3404.00,-0.0018
3403.00,-0.0018
3402.00,-0.0018
3401.00,-0.0018
3400.00,-0.0018
3399.00,-0.0018
3398.00,-0.0018
3397.00,-0.0018
3396.00,-0.0018
3395.00,-0.0018
3394.00,-0.0018
3393.00,-0.0018
3392.00,-0.0018
3391.00,-0.0018
3390.00,-0.0018
3389.00,-0.0018
3388.00,-0.0018
3387.00,-0.0018
3386.00,-0.0018
3385.00,-0.0018
3384.00,-0.0018
3383.00,-0.0018
3382.00,-0.0018
3381.00,-0.0018
3380.00,-0.0018
3379.00,-0.0018
3378.00,-0.0018
3377.00,-0.0018
3376.00,-0.0018
3375.00,-0.0018
3374.00,-0.0018
3373.00,-0.0018
3372.00,-0.0018
3371.00,-0.0018
3370.00,-0.0018
3369.00,-0.0018
3368.00,-0.0018
3367.00,-0.0018
3366.00,-0.0018
3365.00,-0.0018
3364.00,-0.0018
3363.00,-0.0018
3362.00,-0.0018
3361.00,-0.0018
3360.00,-0.0018
3359.00,-0.0018
3358.00,-0.0018
3357.00,-0.0018
3356.00,-0.0018
3355.00,-0.0018
3354.00,-0.0018
3353.00,-0.0018
3352.00,-0.0018
3351.00,-0.0018
3350.00,-0.0018
3349.00,-0.0018
3348.00,-0.0018
3347.00,-0.0018
3346.00,-0.0018
3345.00,-0.0018
3344.00,-0.0018
3343.00,-0.0018
3342.00,-0.0018
3341.00,-0.0018
3340.00,-0.0018
3339.00,-0.0018
3338.00,-0.0018
3337.00,-0.0018
3336.00,-0.0018
3335.00,-0.0018
3334.00,-0.0018
3333.00,-0.0018
3332.00,-0.0018
3331.00,-0.0018
3330.00,-0.0018
3329.00,-0.0018
3328.00,-0.0018
3327.00,-0.0018
3326.00,-0.0018
3325.00,-0.0018
3324.00,-0.0018
3323.00,-0.0018
3322.00,-0.0018
3321.00,-0.0018
3320.00,-0.0018
3319.00,-0.0018
3318.00,-0.0018
3317.00,-0.0018
3316.00,-0.0018
3315.00,-0.0018
3314.00,-0.0018
3313.00,-0.0018
3312.00,-0.0018
3311.00,-0.0018
3310.00,-0.0018
3309.00,-0.0018
3308.00,-0.0018
3307.00,-0.0018
3306.00,-0.0018
3305.00,-0.0018
3304.00,-0.0018
3303.00,-0.0018
3302.00,-0.0018
3301.00,-0.0018
3300.00,-0.0018
3299.00,-0.0018
3298.00,-0.0018
3297.00,-0.0018
3296.00,-0.0018
3295.00,-0.0018
3294.00,-0.0018
3293.00,-0.0018
3292.00,-0.0018
3291.00,-0.0018
3290.00,-0.0018
3289.00,-0.0018
3288.00,-0.0018
3287.00,-0.0018
3286.00,-0.0018
3285.00,-0.0018
3284.00,-0.0018
3283.00,-0.0018
3282.00,-0.0018
3281.00,-0.0018
3280.00,-0.0018
3279.00,-0.0018
3278.00,-0.0018
3277.00,-0.0018
3276.00,-0.0018
3275.00,-0.0018
3274.00,-0.0018
3273.00,-0.0018
3272.00,-0.0018
3271.00,-0.0018
3270.00,-0.0018
3269.00,-0.0018
3268.00,-0.0018
3267.00,-0.0018
3266.00,-0.0018
3265.00,-0.0018
3264.00,-0.0018
3263.00,-0.0018
3262.00,-0.0018
3261.00,-0.0018
3260.00,-0.0018
3259.00,-0.0018
3258.00,-0.0018
3257.00,-0.0018
3256.00,-0.0018
3255.00,-0.0018
3254.00,-0.0018
3253.00,-0.0018
3252.00,-0.0018
3251.00,-0.0018
3250.00,-0.0018
3249.00,-0.0018
3248.00,-0.0018
3247.00,-0.0018
3246.00,-0.0018
3245.00,-0.0018
3244.00,-0.0018
3243.00,-0.0018
3242.00,-0.0018
3241.00,-0.0018
3240.00,-0.0018
3239.00,-0.0018
3238.00,-0.0018
3237.00,-0.0018
3236.00,-0.0018
3235.00,-0.0018
3234.00,-0.0018
3233.00,-0.0018
3232.00,-0.0018
3231.00,-0.0018
3230.00,-0.0018
3229.00,-0.0018
3228.00,-0.0018
3227.00,-0.0018
3226.00,-0.0018
3225.00,-0.0018
3224.00,-0.0018
3223.00,-0.0018
3222.00,-0.0018
3221.00,-0.0018
3220.00,-0.0018
3219.00,-0.0018
3218.00,-0.0018
3217.00,-0.0018
3216.00,-0.0018
3215.00,-0.0018
3214.00,-0.0018
3213.00,-0.0018
3212.00,-0.0018
3211.00,-0.0018
3210.00,-0.0018
3209.00,-0.0018
3208.00,-0.0018
3207.00,-0.0018
3206.00,-0.0018
3205.00,-0.0018
3204.00,-0.0018
3203.00,-0.0018
3202.00,-0.0018
3201.00,-0.0018
3200.00,-0.0018
3199.00,-0.0018
3198.00,-0.0018
3197.00,-0.0018
3196.00,-0.0018
3195.00,-0.0018
3194.00,-0.0018
3193.00,-0.0018
3192.00,-0.0018
3191.00,-0.0018
3190.00,-0.0018
3189.00,-0.0018
3188.00,-0.0018
3187.00,-0.0018
3186.00,-0.0018
3185.00,-0.0018
3184.00,-0.0018
3183.00,-0.0018
3182.00,-0.0018
3181.00,-0.0018
3180.00,-0.0018
3179.00,-0.0018
3178.00,-0.0018
3177.00,-0.0018
3176.00,-0.0018
3175.00,-0.0018
3174.00,-0.0018
3173.00,-0.0018
3172.00,-0.0018
3171.00,-0.0018
3170.00,-0.0018
3169.00,-0.0018
3168.00,-0.0018
3167.00,-0.0018
3166.00,-0.0018
3165.00,-0.0018
3164.00,-0.0018
3163.00,-0.0018
3162.00,-0.0018
3161.00,-0.0018
3160.00,-0.0018
3159.00,-0.0018
3158.00,-0.0018
3157.00,-0.0018
3156.00,-0.0018
3155.00,-0.0018
3154.00,-0.0018
3153.00,-0.0018
3152.00,-0.0018
3151.00,-0.0018
3150.00,-0.0018
3149.00,-0.0018
3148.00,-0.0018
3147.00,-0.0018
3146.00,-0.0018
3145.00,-0.0018
3144.00,-0.0018
3143.00,-0.0018
3142.00,-0.0018
3141.00,-0.0018
3140.00,-0.0018
3139.00,-0.0018
3138.00,-0.0018
3137.00,-0.0018
3136.00,-0.0018
3135.00,-0.0018
3134.00,-0.0018
3133.00,-0.0018
3132.00,-0.0018
3131.00,-0.0018
3130.00,-0.0018
3129.00,-0.0018
3128.00,-0.0018
3127.00,-0.0018
3126.00,-0.0018
3125.00,-0.0017
3124.00,-0.0017
3123.00,-0.0017
3122.00,-0.0017
3121.00,-0.0017
3120.00,-0.0017
3119.00,-0.0017
3118.00,-0.0017
3117.00,-0.0017
3116.00,-0.0017
3115.00,-0.0017
3114.00,-0.0017
3113.00,-0.0017
3112.00,-0.0017
3111.00,-0.0017
3110.00,-0.0018
3109.00,-0.0018
3108.00,-0.0018
3107.00,-0.0018
3106.00,-0.0018
3105.00,-0.0018
3104.00,-0.0018
3103.00,-0.0018
3102.00,-0.0017
3101.00,-0.0017
3100.00,-0.0017
3099.00,-0.0017
3098.00,-0.0017
3097.00,-0.0017
3096.00,-0.0017
3095.00,-0.0017
3094.00,-0.0017
3093.00,-0.0017
3092.00,-0.0017
3091.00,-0.0017
3090.00,-0.0017
3089.00,-0.0017
3088.00,-0.0017
3087.00,-0.0017
3086.00,-0.0017
3085.00,-0.0017
3084.00,-0.0017
3083.00,-0.0017
3082.00,-0.0017
3081.00,-0.0017
3080.00,-0.0017
3079.00,-0.0017
3078.00,-0.0017
3077.00,-0.0017
3076.00,-0.0017
3075.00,-0.0017
3074.00,-0.0017
3073.00,-0.0017
3072.00,-0.0017
3071.00,-0.0017
3070.00,-0.0017
3069.00,-0.0017
3068.00,-0.0017
3067.00,-0.0017
3066.00,-0.0017
3065.00,-0.0017
3064.00,-0.0017
3063.00,-0.0017
3062.00,-0.0017
3061.00,-0.0017
3060.00,-0.0017
3059.00,-0.0017
3058.00,-0.0017
3057.00,-0.0017
3056.00,-0.0017
3055.00,-0.0017
3054.00,-0.0017
3053.00,-0.0017
3052.00,-0.0017
3051.00,-0.0017
3050.00,-0.0017
3049.00,-0.0017
3048.00,-0.0017
3047.00,-0.0017
3046.00,-0.0017
3045.00,-0.0017
3044.00,-0.0017
3043.00,-0.0017
3042.00,-0.0017
3041.00,-0.0017
3040.00,-0.0017
3039.00,-0.0017
3038.00,-0.0017
3037.00,-0.0017
3036.00,-0.0017
3035.00,-0.0017
3034.00,-0.0017
3033.00,-0.0017
3032.00,-0.0017
3031.00,-0.0017
3030.00,-0.0017
3029.00,-0.0017
3028.00,-0.0017
3027.00,-0.0017
3026.00,-0.0017
3025.00,-0.0017
3024.00,-0.0017
3023.00,-0.0017
3022.00,-0.0017
3021.00,-0.0017
3020.00,-0.0017
3019.00,-0.0017
3018.00,-0.0017
3017.00,-0.0017
3016.00,-0.0017
3015.00,-0.0017
3014.00,-0.0017
3013.00,-0.0017
3012.00,-0.0017
3011.00,-0.0017
3010.00,-0.0017
3009.00,-0.0017
3008.00,-0.0017
3007.00,-0.0017
3006.00,-0.0017
3005.00,-0.0017
3004.00,-0.0017
3003.00,-0.0017
3002.00,-0.0017
3001.00,-0.0017
3000.00,-0.0017
2999.00,-0.0017
2998.00,-0.0017
2997.00,-0.0017
2996.00,-0.0017
2995.00,-0.0017
2994.00,-0.0017
2993.00,-0.0017
2992.00,-0.0017
2991.00,-0.0017
2990.00,-0.0017
2989.00,-0.0017
2988.00,-0.0017
2987.00,-0.0017
2986.00,-0.0017
2985.00,-0.0017
2984.00,-0.0017
2983.00,-0.0017
2982.00,-0.0017
2981.00,-0.0017
2980.00,-0.0017
2979.00,-0.0017
2978.00,-0.0017
2977.00,-0.0017
2976.00,-0.0017
2975.00,-0.0017
2974.00,-0.0017
2973.00,-0.0017
2972.00,-0.0017
2971.00,-0.0017
2970.00,-0.0017
2969.00,-0.0017
2968.00,-0.0017
2967.00,-0.0017
2966.00,-0.0017
2965.00,-0.0017
2964.00,-0.0017
2963.00,-0.0017
2962.00,-0.0017
2961.00,-0.0017
2960.00,-0.0017
2959.00,-0.0017
2958.00,-0.0017
2957.00,-0.0017
2956.00,-0.0017
2955.00,-0.0017
2954.00,-0.0017
2953.00,-0.0017
2952.00,-0.0017
2951.00,-0.0017
2950.00,-0.0017
2949.00,-0.0017
2948.00,-0.0017
2947.00,-0.0017
2946.00,-0.0016
2945.00,-0.0016
2944.00,-0.0016
2943.00,-0.0016
2942.00,-0.0016
2941.00,-0.0016
2940.00,-0.0016
2939.00,-0.0016
2938.00,-0.0016
2937.00,-0.0016
2936.00,-0.0016
2935.00,-0.0016
2934.00,-0.0016
2933.00,-0.0016
2932.00,-0.0016
2931.00,-0.0016
2930.00,-0.0016
2929.00,-0.0017
2928.00,-0.0017
2927.00,-0.0017
2926.00,-0.0017
2925.00,-0.0018
2924.00,-0.0018
2923.00,-0.0018
2922.00,-0.0018
2921.00,-0.0018
2920.00,-0.0018
2919.00,-0.0018
2918.00,-0.0018
2917.00,-0.0018
2916.00,-0.0018
2915.00,-0.0018
2914.00,-0.0018
2913.00,-0.0017
2912.00,-0.0017
2911.00,-0.0017
2910.00,-0.0017
2909.00,-0.0017
2908.00,-0.0017
2907.00,-0.0017
2906.00,-0.0017
2905.00,-0.0017
2904.00,-0.0017
2903.00,-0.0017
2902.00,-0.0017
2901.00,-0.0017
2900.00,-0.0017
2899.00,-0.0017
2898.00,-0.0017
2897.00,-0.0017
2896.00,-0.0017
2895.00,-0.0017
2894.00,-0.0017
2893.00,-0.0017
2892.00,-0.0017
2891.00,-0.0017
2890.00,-0.0017
2889.00,-0.0017
2888.00,-0.0017
2887.00,-0.0017
2886.00,-0.0017
2885.00,-0.0017
2884.00,-0.0017
2883.00,-0.0017
2882.00,-0.0017
2881.00,-0.0017
2880.00,-0.0016
2879.00,-0.0016
2878.00,-0.0016
2877.00,-0.0016
2876.00,-0.0016
2875.00,-0.0016
2874.00,-0.0016
2873.00,-0.0016
2872.00,-0.0016
2871.00,-0.0016
2870.00,-0.0016
2869.00,-0.0016
2868.00,-0.0017
2867.00,-0.0017
2866.00,-0.0017
2865.00,-0.0017
2864.00,-0.0017
2863.00,-0.0017
2862.00,-0.0017
2861.00,-0.0017
2860.00,-0.0017
2859.00,-0.0017
2858.00,-0.0017
2857.00,-0.0017
2856.00,-0.0018
2855.00,-0.0018
2854.00,-0.0018
2853.00,-0.0018
2852.00,-0.0018
2851.00,-0.0018
2850.00,-0.0018
2849.00,-0.0018
2848.00,-0.0018
2847.00,-0.0018
2846.00,-0.0018
2845.00,-0.0017
2844.00,-0.0017
2843.00,-0.0017
2842.00,-0.0017
2841.00,-0.0017
2840.00,-0.0017
2839.00,-0.0017
2838.00,-0.0017
2837.00,-0.0017
2836.00,-0.0016
2835.00,-0.0016
2834.00,-0.0017
2833.00,-0.0017
2832.00,-0.0017
2831.00,-0.0017
2830.00,-0.0017
2829.00,-0.0017
2828.00,-0.0016
2827.00,-0.0016
2826.00,-0.0016
2825.00,-0.0016
2824.00,-0.0016
2823.00,-0.0016
2822.00,-0.0016
2821.00,-0.0016
2820.00,-0.0016
2819.00,-0.0016
2818.00,-0.0016
2817.00,-0.0016
2816.00,-0.0016
2815.00,-0.0016
2814.00,-0.0016
2813.00,-0.0016
2812.00,-0.0016
2811.00,-0.0016
2810.00,-0.0016
2809.00,-0.0016
2808.00,-0.0016
2807.00,-0.0016
2806.00,-0.0016
2805.00,-0.0016
2804.00,-0.0016
2803.00,-0.0016
2802.00,-0.0016
2801.00,-0.0016
2800.00,-0.0016
2799.00,-0.0016
2798.00,-0.0016
2797.00,-0.0016
2796.00,-0.0016
2795.00,-0.0016
2794.00,-0.0016
2793.00,-0.0016
2792.00,-0.0016
2791.00,-0.0016
2790.00,-0.0016
2789.00,-0.0016
2788.00,-0.0016
2787.00,-0.0016
2786.00,-0.0016
2785.00,-0.0016
2784.00,-0.0016
2783.00,-0.0016
2782.00,-0.0016
2781.00,-0.0016
2780.00,-0.0016
2779.00,-0.0016
2778.00,-0.0016
2777.00,-0.0016
2776.00,-0.0016
2775.00,-0.0016
2774.00,-0.0016
2773.00,-0.0016
2772.00,-0.0016
2771.00,-0.0016
2770.00,-0.0016
2769.00,-0.0016
2768.00,-0.0016
2767.00,-0.0016
2766.00,-0.0016
2765.00,-0.0016
2764.00,-0.0016
2763.00,-0.0016
2762.00,-0.0016
2761.00,-0.0016
2760.00,-0.0016
2759.00,-0.0016
2758.00,-0.0016
2757.00,-0.0016
2756.00,-0.0016
2755.00,-0.0016
2754.00,-0.0016
2753.00,-0.0016
2752.00,-0.0016
2751.00,-0.0016
2750.00,-0.0016
2749.00,-0.0016
2748.00,-0.0016
2747.00,-0.0016
2746.00,-0.0016
2745.00,-0.0016
2744.00,-0.0016
2743.00,-0.0016
2742.00,-0.0016
2741.00,-0.0016
2740.00,-0.0016
2739.00,-0.0016
2738.00,-0.0016
2737.00,-0.0016
2736.00,-0.0016
2735.00,-0.0016
2734.00,-0.0016
2733.00,-0.0016
2732.00,-0.0016
2731.00,-0.0016
2730.00,-0.0016
2729.00,-0.0016
2728.00,-0.0016
2727.00,-0.0016
2726.00,-0.0016
2725.00,-0.0016
2724.00,-0.0016
2723.00,-0.0016
2722.00,-0.0016
2721.00,-0.0016
2720.00,-0.0016
2719.00,-0.0016
2718.00,-0.0016
2717.00,-0.0016
2716.00,-0.0016
2715.00,-0.0016
2714.00,-0.0016
2713.00,-0.0016
2712.00,-0.0016
2711.00,-0.0016
2710.00,-0.0016
2709.00,-0.0016
2708.00,-0.0016
2707.00,-0.0016
2706.00,-0.0016
2705.00,-0.0016
2704.00,-0.0016
2703.00,-0.0016
2702.00,-0.0016
2701.00,-0.0016
2700.00,-0.0016
2699.00,-0.0016
2698.00,-0.0016
2697.00,-0.0016
2696.00,-0.0016
2695.00,-0.0016
2694.00,-0.0016
2693.00,-0.0016
2692.00,-0.0016
2691.00,-0.0016
2690.00,-0.0016
2689.00,-0.0016
2688.00,-0.0016
2687.00,-0.0016
2686.00,-0.0016
2685.00,-0.0016
2684.00,-0.0016
2683.00,-0.0016
2682.00,-0.0016
2681.00,-0.0016
2680.00,-0.0016
2679.00,-0.0016
2678.00,-0.0016
2677.00,-0.0016
2676.00,-0.0016
2675.00,-0.0016
2674.00,-0.0016
2673.00,-0.0016
2672.00,-0.0016
2671.00,-0.0016
2670.00,-0.0016
2669.00,-0.0016
2668.00,-0.0016
2667.00,-0.0016
2666.00,-0.0016
2665.00,-0.0016
2664.00,-0.0016
2663.00,-0.0016
2662.00,-0.0016
2661.00,-0.0016
2660.00,-0.0016
2659.00,-0.0016
2658.00,-0.0016
2657.00,-0.0016
2656.00,-0.0016
2655.00,-0.0016
2654.00,-0.0016
2653.00,-0.0016
2652.00,-0.0016
2651.00,-0.0016
2650.00,-0.0016
2649.00,-0.0016
2648.00,-0.0016
2647.00,-0.0016
2646.00,-0.0016
2645.00,-0.0016
2644.00,-0.0016
2643.00,-0.0016
2642.00,-0.0016
2641.00,-0.0016
2640.00,-0.0016
2639.00,-0.0016
2638.00,-0.0016
2637.00,-0.0016
2636.00,-0.0016
2635.00,-0.0016
2634.00,-0.0016
2633.00,-0.0016
2632.00,-0.0016
2631.00,-0.0016
2630.00,-0.0016
2629.00,-0.0016
2628.00,-0.0016
2627.00,-0.0016
2626.00,-0.0016
2625.00,-0.0016
2624.00,-0.0016
2623.00,-0.0016
2622.00,-0.0016
2621.00,-0.0016
2620.00,-0.0016
2619.00,-0.0016
2618.00,-0.0016
2617.00,-0.0016
2616.00,-0.0016
2615.00,-0.0016
2614.00,-0.0016
2613.00,-0.0016
2612.00,-0.0016
2611.00,-0.0016
2610.00,-0.0016
2609.00,-0.0016
2608.00,-0.0016
2607.00,-0.0016
2606.00,-0.0016
2605.00,-0.0016
2604.00,-0.0016
2603.00,-0.0016
2602.00,-0.0016
2601.00,-0.0016
2600.00,-0.0016
2599.00,-0.0016
2598.00,-0.0016
2597.00,-0.0016
2596.00,-0.0016
2595.00,-0.0016
2594.00,-0.0016
2593.00,-0.0016
2592.00,-0.0016
2591.00,-0.0016
2590.00,-0.0016
2589.00,-0.0016
2588.00,-0.0016
2587.00,-0.0016
2586.00,-0.0016
2585.00,-0.0016
2584.00,-0.0016
2583.00,-0.0016
2582.00,-0.0016
2581.00,-0.0016
2580.00,-0.0016
2579.00,-0.0016
2578.00,-0.0016
2577.00,-0.0016
2576.00,-0.0016
2575.00,-0.0016
2574.00,-0.0016
2573.00,-0.0016
2572.00,-0.0016
2571.00,-0.0016
2570.00,-0.0016
2569.00,-0.0016
2568.00,-0.0016
2567.00,-0.0016
2566.00,-0.0016
2565.00,-0.0016
2564.00,-0.0016
2563.00,-0.0016
2562.00,-0.0016
2561.00,-0.0016
2560.00,-0.0016
2559.00,-0.0016
2558.00,-0.0016
2557.00,-0.0016
2556.00,-0.0016
2555.00,-0.0016
2554.00,-0.0016
2553.00,-0.0016
2552.00,-0.0016
2551.00,-0.0016
2550.00,-0.0016
2549.00,-0.0016
2548.00,-0.0016
2547.00,-0.0016
2546.00,-0.0016
2545.00,-0.0016
2544.00,-0.0016
2543.00,-0.0016
2542.00,-0.0016
2541.00,-0.0016
2540.00,-0.0016
2539.00,-0.0016
2538.00,-0.0016
2537.00,-0.0016
2536.00,-0.0016
2535.00,-0.0016
2534.00,-0.0016
2533.00,-0.0016
2532.00,-0.0016
2531.00,-0.0016
2530.00,-0.0016
2529.00,-0.0016
2528.00,-0.0016
2527.00,-0.0016
2526.00,-0.0016
2525.00,-0.0016
2524.00,-0.0016
2523.00,-0.0016
2522.00,-0.0016
2521.00,-0.0016
2520.00,-0.0016
2519.00,-0.0016
2518.00,-0.0016
2517.00,-0.0016
2516.00,-0.0016
2515.00,-0.0016
2514.00,-0.0016
2513.00,-0.0016
2512.00,-0.0016
2511.00,-0.0016
2510.00,-0.0016
2509.00,-0.0016
2508.00,-0.0016
2507.00,-0.0016
2506.00,-0.0016
2505.00,-0.0016
2504.00,-0.0016
2503.00,-0.0016
2502.00,-0.0016
2501.00,-0.0016
2500.00,-0.0016
2499.00,-0.0016
2498.00,-0.0016
2497.00,-0.0016
2496.00,-0.0016
2495.00,-0.0016
2494.00,-0.0016
2493.00,-0.0016
2492.00,-0.0016
2491.00,-0.0016
2490.00,-0.0016
2489.00,-0.0016
2488.00,-0.0016
2487.00,-0.0016
2486.00,-0.0016
2485.00,-0.0016
2484.00,-0.0016
2483.00,-0.0016
2482.00,-0.0016
2481.00,-0.0016
2480.00,-0.0016
2479.00,-0.0016
2478.00,-0.0016
2477.00,-0.0016
2476.00,-0.0016
2475.00,-0.0016
2474.00,-0.0016
2473.00,-0.0016
2472.00,-0.0016
2471.00,-0.0016
2470.00,-0.0016
2469.00,-0.0016
2468.00,-0.0016
2467.00,-0.0016
2466.00,-0.0016
2465.00,-0.0016
2464.00,-0.0016
2463.00,-0.0016
2462.00,-0.0016
2461.00,-0.0016
2460.00,-0.0016
2459.00,-0.0016
2458.00,-0.0016
2457.00,-0.0016
2456.00,-0.0016
2455.00,-0.0016
2454.00,-0.0016
2453.00,-0.0016
2452.00,-0.0016
2451.00,-0.0016
2450.00,-0.0016
2449.00,-0.0016
2448.00,-0.0016
2447.00,-0.0016
2446.00,-0.0016
2445.00,-0.0016
2444.00,-0.0016
2443.00,-0.0016
2442.00,-0.0016
2441.00,-0.0016
2440.00,-0.0016
2439.00,-0.0016
2438.00,-0.0016
2437.00,-0.0016
2436.00,-0.0016
2435.00,-0.0016
2434.00,-0.0016
2433.00,-0.0016
2432.00,-0.0016
2431.00,-0.0016
2430.00,-0.0016
2429.00,-0.0016
2428.00,-0.0016
2427.00,-0.0016
2426.00,-0.0016
2425.00,-0.0016
2424.00,-0.0016
2423.00,-0.0016
2422.00,-0.0016
2421.00,-0.0016
2420.00,-0.0016
2419.00,-0.0016
2418.00,-0.0016
2417.00,-0.0016
2416.00,-0.0016
2415.00,-0.0016
2414.00,-0.0016
2413.00,-0.0016
2412.00,-0.0016
2411.00,-0.0016
2410.00,-0.0016
2409.00,-0.0016
2408.00,-0.0016
2407.00,-0.0016
2406.00,-0.0016
2405.00,-0.0016
2404.00,-0.0016
2403.00,-0.0016
2402.00,-0.0016
2401.00,-0.0016
2400.00,-0.0016
2399.00,-0.0016
2398.00,-0.0016
2397.00,-0.0016
2396.00,-0.0016
2395.00,-0.0016
2394.00,-0.0016
2393.00,-0.0016
2392.00,-0.0016
2391.00,-0.0016
2390.00,-0.0016
2389.00,-0.0016
2388.00,-0.0016
2387.00,-0.0016
2386.00,-0.0015
2385.00,-0.0015
2384.00,-0.0015
2383.00,-0.0015
2382.00,-0.0015
2381.00,-0.0015
2380.00,-0.0016
2379.00,-0.0016
2378.00,-0.0016
2377.00,-0.0016
2376.00,-0.0017
2375.00,-0.0016
2374.00,-0.0016
2373.00,-0.0016
2372.00,-0.0016
2371.00,-0.0015
2370.00,-0.0015
2369.00,-0.0016
2368.00,-0.0016
2367.00,-0.0016
2366.00,-0.0015
2365.00,-0.0015
2364.00,-0.0015
2363.00,-0.0015
2362.00,-0.0015
2361.00,-0.0015
2360.00,-0.0015
2359.00,-0.0015
2358.00,-0.0015
2357.00,-0.0015
2356.00,-0.0015
2355.00,-0.0015
2354.00,-0.0015
2353.00,-0.0015
2352.00,-0.0016
2351.00,-0.0016
2350.00,-0.0016
2349.00,-0.0014
2348.00,-0.0013
2347.00,-0.0013
2346.00,-0.0014
2345.00,-0.0015
2344.00,-0.0015
2343.00,-0.0015
2342.00,-0.0014
2341.00,-0.0014
2340.00,-0.0014
2339.00,-0.0014
2338.00,-0.0014
2337.00,-0.0014
2336.00,-0.0014
2335.00,-0.0014
2334.00,-0.0014
2333.00,-0.0014
2332.00,-0.0014
2331.00,-0.0014
2330.00,-0.0014
2329.00,-0.0014
2328.00,-0.0014
2327.00,-0.0014
2326.00,-0.0013
2325.00,-0.0013
2324.00,-0.0013
2323.00,-0.0014
2322.00,-0.0014
2321.00,-0.0014
2320.00,-0.0014
2319.00,-0.0014
2318.00,-0.0014
2317.00,-0.0014
2316.00,-0.0014
2315.00,-0.0014
2314.00,-0.0014
2313.00,-0.0014
2312.00,-0.0014
2311.00,-0.0014
2310.00,-0.0014
2309.00,-0.0014
2308.00,-0.0014
2307.00,-0.0014
2306.00,-0.0014
2305.00,-0.0014
2304.00,-0.0015
2303.00,-0.0015
2302.00,-0.0015
2301.00,-0.0015
2300.00,-0.0015
2299.00,-0.0015
2298.00,-0.0015
2297.00,-0.0015
2296.00,-0.0015
2295.00,-0.0015
2294.00,-0.0015
2293.00,-0.0015
2292.00,-0.0016
2291.00,-0.0016
2290.00,-0.0016
2289.00,-0.0016
2288.00,-0.0016
2287.00,-0.0016
2286.00,-0.0016
2285.00,-0.0016
2284.00,-0.0016
2283.00,-0.0016
2282.00,-0.0016
2281.00,-0.0016
2280.00,-0.0016
2279.00,-0.0016
2278.00,-0.0016
2277.00,-0.0016
2276.00,-0.0016
2275.00,-0.0016
2274.00,-0.0016
2273.00,-0.0016
2272.00,-0.0016
2271.00,-0.0016
2270.00,-0.0016
2269.00,-0.0016
2268.00,-0.0016
2267.00,-0.0016
2266.00,-0.0016
2265.00,-0.0016
2264.00,-0.0016
2263.00,-0.0016
2262.00,-0.0016
2261.00,-0.0016
2260.00,-0.0016
2259.00,-0.0016
2258.00,-0.0016
2257.00,-0.0016
2256.00,-0.0016
2255.00,-0.0016
2254.00,-0.0016
2253.00,-0.0016
2252.00,-0.0016
2251.00,-0.0016
2250.00,-0.0016
2249.00,-0.0016
2248.00,-0.0016
2247.00,-0.0016
2246.00,-0.0016
2245.00,-0.0016
2244.00,-0.0016
2243.00,-0.0016
2242.00,-0.0016
2241.00,-0.0016
2240.00,-0.0016
2239.00,-0.0016
2238.00,-0.0016
2237.00,-0.0016
2236.00,-0.0016
2235.00,-0.0016
2234.00,-0.0016
2233.00,-0.0016
2232.00,-0.0016
2231.00,-0.0016
2230.00,-0.0016
2229.00,-0.0016
2228.00,-0.0016
2227.00,-0.0016
2226.00,-0.0016
2225.00,-0.0016
2224.00,-0.0016
2223.00,-0.0016
2222.00,-0.0016
2221.00,-0.0016
2220.00,-0.0016
2219.00,-0.0016
2218.00,-0.0016
2217.00,-0.0016
2216.00,-0.0016
2215.00,-0.0016
2214.00,-0.0016
2213.00,-0.0016
2212.00,-0.0016
2211.00,-0.0016
2210.00,-0.0016
2209.00,-0.0016
2208.00,-0.0016
2207.00,-0.0016
2206.00,-0.0016
2205.00,-0.0016
2204.00,-0.0016
2203.00,-0.0016
2202.00,-0.0016
2201.00,-0.0016
2200.00,-0.0016
2199.00,-0.0016
2198.00,-0.0016
2197.00,-0.0016
2196.00,-0.0016
2195.00,-0.0016
2194.00,-0.0016
2193.00,-0.0016
2192.00,-0.0016
2191.00,-0.0016
2190.00,-0.0016
2189.00,-0.0016
2188.00,-0.0016
2187.00,-0.0016
2186.00,-0.0016
2185.00,-0.0016
2184.00,-0.0016
2183.00,-0.0016
2182.00,-0.0016
2181.00,-0.0016
2180.00,-0.0016
2179.00,-0.0016
2178.00,-0.0016
2177.00,-0.0016
2176.00,-0.0016
2175.00,-0.0016
2174.00,-0.0016
2173.00,-0.0016
2172.00,-0.0016
2171.00,-0.0016
2170.00,-0.0016
2169.00,-0.0016
2168.00,-0.0016
2167.00,-0.0016
2166.00,-0.0016
2165.00,-0.0016
2164.00,-0.0016
2163.00,-0.0016
2162.00,-0.0016
2161.00,-0.0016
2160.00,-0.0016
2159.00,-0.0016
2158.00,-0.0016
2157.00,-0.0016
2156.00,-0.0016
2155.00,-0.0016
2154.00,-0.0016
2153.00,-0.0016
2152.00,-0.0016
2151.00,-0.0016
2150.00,-0.0016
2149.00,-0.0016
2148.00,-0.0016
2147.00,-0.0016
2146.00,-0.0016
2145.00,-0.0016
2144.00,-0.0016
2143.00,-0.0016
2142.00,-0.0016
2141.00,-0.0016
2140.00,-0.0016
2139.00,-0.0016
2138.00,-0.0016
2137.00,-0.0016
2136.00,-0.0016
2135.00,-0.0016
2134.00,-0.0016
2133.00,-0.0016
2132.00,-0.0016
2131.00,-0.0016
2130.00,-0.0016
2129.00,-0.0016
2128.00,-0.0016
2127.00,-0.0016
2126.00,-0.0016
2125.00,-0.0016
2124.00,-0.0016
2123.00,-0.0016
2122.00,-0.0016
2121.00,-0.0016
2120.00,-0.0016
2119.00,-0.0016
2118.00,-0.0016
2117.00,-0.0016
2116.00,-0.0016
2115.00,-0.0016
2114.00,-0.0016
2113.00,-0.0016
2112.00,-0.0016
2111.00,-0.0016
2110.00,-0.0016
2109.00,-0.0016
2108.00,-0.0016
2107.00,-0.0016
2106.00,-0.0016
2105.00,-0.0016
2104.00,-0.0016
2103.00,-0.0016
2102.00,-0.0016
2101.00,-0.0016
2100.00,-0.0016
2099.00,-0.0016
2098.00,-0.0016
2097.00,-0.0016
2096.00,-0.0016
2095.00,-0.0016
2094.00,-0.0016
2093.00,-0.0016
2092.00,-0.0016
2091.00,-0.0016
2090.00,-0.0016
2089.00,-0.0016
2088.00,-0.0016
2087.00,-0.0016
2086.00,-0.0016
2085.00,-0.0016
2084.00,-0.0016
2083.00,-0.0016
2082.00,-0.0016
2081.00,-0.0016
2080.00,-0.0016
2079.00,-0.0016
2078.00,-0.0016
2077.00,-0.0016
2076.00,-0.0016
2075.00,-0.0016
2074.00,-0.0016
2073.00,-0.0016
2072.00,-0.0016
2071.00,-0.0016
2070.00,-0.0016
2069.00,-0.0016
2068.00,-0.0016
2067.00,-0.0016
2066.00,-0.0016
2065.00,-0.0016
2064.00,-0.0016
2063.00,-0.0016
2062.00,-0.0016
2061.00,-0.0016
2060.00,-0.0016
2059.00,-0.0016
2058.00,-0.0016
2057.00,-0.0016
2056.00,-0.0016
2055.00,-0.0016
2054.00,-0.0016
2053.00,-0.0016
2052.00,-0.0016
2051.00,-0.0016
2050.00,-0.0016
2049.00,-0.0016
2048.00,-0.0016
2047.00,-0.0016
2046.00,-0.0016
2045.00,-0.0016
2044.00,-0.0016
2043.00,-0.0016
2042.00,-0.0016
2041.00,-0.0016
2040.00,-0.0016
2039.00,-0.0016
2038.00,-0.0016
2037.00,-0.0016
2036.00,-0.0016
2035.00,-0.0016
2034.00,-0.0016
2033.00,-0.0016
2032.00,-0.0016
2031.00,-0.0016
2030.00,-0.0016
2029.00,-0.0016
2028.00,-0.0016
2027.00,-0.0016
2026.00,-0.0016
2025.00,-0.0016
2024.00,-0.0016
2023.00,-0.0016
2022.00,-0.0016
2021.00,-0.0016
2020.00,-0.0016
2019.00,-0.0016
2018.00,-0.0016
2017.00,-0.0016
2016.00,-0.0016
2015.00,-0.0016
2014.00,-0.0016
2013.00,-0.0016
2012.00,-0.0016
2011.00,-0.0016
2010.00,-0.0016
2009.00,-0.0016
2008.00,-0.0016
2007.00,-0.0016
2006.00,-0.0016
2005.00,-0.0016
2004.00,-0.0016
2003.00,-0.0016
2002.00,-0.0016
2001.00,-0.0016
2000.00,-0.0016
1999.00,-0.0016
1998.00,-0.0016
1997.00,-0.0016
1996.00,-0.0016
1995.00,-0.0016
1994.00,-0.0016
1993.00,-0.0016
1992.00,-0.0016
1991.00,-0.0016
1990.00,-0.0016
1989.00,-0.0016
1988.00,-0.0016
1987.00,-0.0016
1986.00,-0.0016
1985.00,-0.0016
1984.00,-0.0016
1983.00,-0.0016
1982.00,-0.0016
1981.00,-0.0016
1980.00,-0.0016
1979.00,-0.0016
1978.00,-0.0016
1977.00,-0.0016
1976.00,-0.0016
1975.00,-0.0016
1974.00,-0.0016
1973.00,-0.0016
1972.00,-0.0016
1971.00,-0.0016
1970.00,-0.0016
1969.00,-0.0016
1968.00,-0.0016
1967.00,-0.0016
1966.00,-0.0016
1965.00,-0.0016
1964.00,-0.0016
1963.00,-0.0016
1962.00,-0.0016
1961.00,-0.0016
1960.00,-0.0016
1959.00,-0.0016
1958.00,-0.0016
1957.00,-0.0016
1956.00,-0.0016
1955.00,-0.0016
1954.00,-0.0016
1953.00,-0.0016
1952.00,-0.0016
1951.00,-0.0016
1950.00,-0.0016
1949.00,-0.0016
1948.00,-0.0016
1947.00,-0.0016
1946.00,-0.0016
1945.00,-0.0016
1944.00,-0.0016
1943.00,-0.0016
1942.00,-0.0016
1941.00,-0.0016
1940.00,-0.0015
1939.00,-0.0015
1938.00,-0.0015
1937.00,-0.0015
1936.00,-0.0016
1935.00,-0.0016
1934.00,-0.0016
1933.00,-0.0016
1932.00,-0.0016
1931.00,-0.0016
1930.00,-0.0016
1929.00,-0.0016
1928.00,-0.0016
1927.00,-0.0015
1926.00,-0.0016
1925.00,-0.0016
1924.00,-0.0016
1923.00,-0.0016
1922.00,-0.0016
1921.00,-0.0015
1920.00,-0.0015
1919.00,-0.0015
1918.00,-0.0015
1917.00,-0.0015
1916.00,-0.0015
1915.00,-0.0015
1914.00,-0.0015
1913.00,-0.0015
1912.00,-0.0016
1911.00,-0.0016
1910.00,-0.0016
1909.00,-0.0016
1908.00,-0.0016
1907.00,-0.0016
1906.00,-0.0015
1905.00,-0.0015
1904.00,-0.0015
1903.00,-0.0015
1902.00,-0.0015
1901.00,-0.0015
1900.00,-0.0016
1899.00,-0.0016
1898.00,-0.0016
1897.00,-0.0016
1896.00,-0.0016
1895.00,-0.0016
1894.00,-0.0016
1893.00,-0.0016
1892.00,-0.0016
1891.00,-0.0016
1890.00,-0.0016
1889.00,-0.0016
1888.00,-0.0016
1887.00,-0.0015
1886.00,-0.0015
1885.00,-0.0015
1884.00,-0.0015
1883.00,-0.0015
1882.00,-0.0015
1881.00,-0.0015
1880.00,-0.0016
1879.00,-0.0016
1878.00,-0.0015
1877.00,-0.0016
1876.00,-0.0016
1875.00,-0.0015
1874.00,-0.0015
1873.00,-0.0015
1872.00,-0.0015
1871.00,-0.0015
1870.00,-0.0015
1869.00,-0.0015
1868.00,-0.0016
1867.00,-0.0015
1866.00,-0.0015
1865.00,-0.0015
1864.00,-0.0015
1863.00,-0.0015
1862.00,-0.0015
1861.00,-0.0016
1860.00,-0.0016
1859.00,-0.0016
1858.00,-0.0016
1857.00,-0.0016
1856.00,-0.0016
1855.00,-0.0016
1854.00,-0.0016
1853.00,-0.0015
1852.00,-0.0015
1851.00,-0.0015
1850.00,-0.0015
1849.00,-0.0016
1848.00,-0.0016
1847.00,-0.0016
1846.00,-0.0015
1845.00,-0.0015
1844.00,-0.0015
1843.00,-0.0015
1842.00,-0.0015
1841.00,-0.0015
1840.00,-0.0015
1839.00,-0.0015
1838.00,-0.0015
1837.00,-0.0016
1836.00,-0.0015
1835.00,-0.0015
1834.00,-0.0015
1833.00,-0.0015
1832.00,-0.0015
1831.00,-0.0016
1830.00,-0.0016
1829.00,-0.0016
1828.00,-0.0015
1827.00,-0.0015
1826.00,-0.0015
1825.00,-0.0015
1824.00,-0.0015
1823.00,-0.0015
1822.00,-0.0015
1821.00,-0.0015
1820.00,-0.0015
1819.00,-0.0015
1818.00,-0.0015
1817.00,-0.0015
1816.00,-0.0015
1815.00,-0.0015
1814.00,-0.0015
1813.00,-0.0015
1812.00,-0.0016
1811.00,-0.0016
1810.00,-0.0015
1809.00,-0.0015
1808.00,-0.0015
1807.00,-0.0015
1806.00,-0.0015
1805.00,-0.0015
1804.00,-0.0015
1803.00,-0.0015
1802.00,-0.0015
1801.00,-0.0015
1800.00,-0.0015
1799.00,-0.0015
1798.00,-0.0015
1797.00,-0.0015
1796.00,-0.0015
1795.00,-0.0015
1794.00,-0.0014
1793.00,-0.0014
1792.00,-0.0015
1791.00,-0.0015
1790.00,-0.0014
1789.00,-0.0014
1788.00,-0.0014
1787.00,-0.0014
1786.00,-0.0014
1785.00,-0.0014
1784.00,-0.0014
1783.00,-0.0015
1782.00,-0.0015
1781.00,-0.0015
1780.00,-0.0015
1779.00,-0.0015
1778.00,-0.0015
1777.00,-0.0015
1776.00,-0.0015
1775.00,-0.0015
1774.00,-0.0015
1773.00,-0.0014
1772.00,-0.0014
1771.00,-0.0014
1770.00,-0.0014
1769.00,-0.0013
1768.00,-0.0013
1767.00,-0.0014
1766.00,-0.0014
1765.00,-0.0014
1764.00,-0.0014
1763.00,-0.0015
1762.00,-0.0015
1761.00,-0.0015
1760.00,-0.0015
1759.00,-0.0015
1758.00,-0.0014
1757.00,-0.0014
1756.00,-0.0014
1755.00,-0.0014
1754.00,-0.0013
1753.00,-0.0012
1752.00,-0.0011
1751.00,-0.0011
1750.00,-0.0012
1749.00,-0.0013
1748.00,-0.0013
1747.00,-0.0013
1746.00,-0.0014
1745.00,-0.0014
1744.00,-0.0014
1743.00,-0.0015
1742.00,-0.0015
1741.00,-0.0015
1740.00,-0.0015
1739.00,-0.0015
1738.00,-0.0015
1737.00,-0.0014
1736.00,-0.0013
1735.00,-0.0012
1734.00,-0.0012
1733.00,-0.0012
1732.00,-0.0012
1731.00,-0.0013
1730.00,-0.0014
1729.00,-0.0014
1728.00,-0.0015
1727.00,-0.0015
1726.00,-0.0015
1725.00,-0.0015
1724.00,-0.0015
1723.00,-0.0015
1722.00,-0.0015
1721.00,-0.0014
1720.00,-0.0014
1719.00,-0.0014
1718.00,-0.0013
1717.00,-0.0013
1716.00,-0.0013
1715.00,-0.0013
1714.00,-0.0013
1713.00,-0.0014
1712.00,-0.0014
1711.00,-0.0014
1710.00,-0.0014
1709.00,-0.0014
1708.00,-0.0015
1707.00,-0.0015
1706.00,-0.0015
1705.00,-0.0015
1704.00,-0.0015
1703.00,-0.0015
1702.00,-0.0014
1701.00,-0.0014
1700.00,-0.0014
1699.00,-0.0014
1698.00,-0.0013
1697.00,-0.0012
1696.00,-0.0013
1695.00,-0.0014
1694.00,-0.0014
1693.00,-0.0014
1692.00,-0.0014
1691.00,-0.0014
1690.00,-0.0014
1689.00,-0.0014
1688.00,-0.0014
1687.00,-0.0014
1686.00,-0.0013
1685.00,-0.0013
1684.00,-0.0013
1683.00,-0.0014
1682.00,-0.0014
1681.00,-0.0014
1680.00,-0.0014
1679.00,-0.0014
1678.00,-0.0014
1677.00,-0.0014
1676.00,-0.0014
1675.00,-0.0014
1674.00,-0.0014
1673.00,-0.0014
1672.00,-0.0013
1671.00,-0.0014
1670.00,-0.0014
1669.00,-0.0015
1668.00,-0.0015
1667.00,-0.0014
1666.00,-0.0015
1665.00,-0.0015
1664.00,-0.0015
1663.00,-0.0015
1662.00,-0.0015
1661.00,-0.0015
1660.00,-0.0014
1659.00,-0.0014
1658.00,-0.0014
1657.00,-0.0015
1656.00,-0.0015
1655.00,-0.0016
1654.00,-0.0016
1653.00,-0.0016
1652.00,-0.0016
1651.00,-0.0015
1650.00,-0.0014
1649.00,-0.0014
1648.00,-0.0013
1647.00,-0.0013
1646.00,-0.0013
1645.00,-0.0013
1644.00,-0.0014
1643.00,-0.0014
1642.00,-0.0014
1641.00,-0.0014
1640.00,-0.0014
1639.00,-0.0014
1638.00,-0.0014
1637.00,-0.0014
1636.00,-0.0014
1635.00,-0.0014
1634.00,-0.0014
1633.00,-0.0014
1632.00,-0.0014
1631.00,-0.0014
1630.00,-0.0014
1629.00,-0.0015
1628.00,-0.0015
1627.00,-0.0015
1626.00,-0.0015
1625.00,-0.0015
1624.00,-0.0015
1623.00,-0.0015
1622.00,-0.0015
1621.00,-0.0015
1620.00,-0.0016
1619.00,-0.0016
1618.00,-0.0016
1617.00,-0.0016
1616.00,-0.0016
1615.00,-0.0016
1614.00,-0.0015
1613.00,-0.0015
1612.00,-0.0015
1611.00,-0.0015
1610.00,-0.0015
1609.00,-0.0016
1608.00,-0.0016
1607.00,-0.0015
1606.00,-0.0015
1605.00,-0.0016
1604.00,-0.0015
1603.00,-0.0015
1602.00,-0.0015
1601.00,-0.0016
1600.00,-0.0015
1599.00,-0.0015
1598.00,-0.0015
1597.00,-0.0016
1596.00,-0.0016
1595.00,-0.0016
1594.00,-0.0016
1593.00,-0.0016
1592.00,-0.0016
1591.00,-0.0016
1590.00,-0.0016
1589.00,-0.0016
1588.00,-0.0016
1587.00,-0.0016
1586.00,-0.0016
1585.00,-0.0016
1584.00,-0.0016
1583.00,-0.0015
1582.00,-0.0015
1581.00,-0.0016
1580.00,-0.0016
1579.00,-0.0016
1578.00,-0.0016
1577.00,-0.0016
1576.00,-0.0016
1575.00,-0.0015
1574.00,-0.0015
1573.00,-0.0015
1572.00,-0.0015
1571.00,-0.0015
1570.00,-0.0015
1569.00,-0.0015
1568.00,-0.0015
1567.00,-0.0014
1566.00,-0.0014
1565.00,-0.0014
1564.00,-0.0015
1563.00,-0.0015
1562.00,-0.0016
1561.00,-0.0016
1560.00,-0.0015
1559.00,-0.0013
1558.00,-0.0013
1557.00,-0.0013
1556.00,-0.0013
1555.00,-0.0012
1554.00,-0.0013
1553.00,-0.0013
1552.00,-0.0013
1551.00,-0.0013
1550.00,-0.0013
1549.00,-0.0013
1548.00,-0.0013
1547.00,-0.0012
1546.00,-0.0013
1545.00,-0.0013
1544.00,-0.0014
1543.00,-0.0014
1542.00,-0.0013
1541.00,-0.0013
1540.00,-0.0013
1539.00,-0.0013
1538.00,-0.0013
1537.00,-0.0013
1536.00,-0.0013
1535.00,-0.0013
1534.00,-0.0013
1533.00,-0.0013
1532.00,-0.0014
1531.00,-0.0013
1530.00,-0.0013
1529.00,-0.0013
1528.00,-0.0013
1527.00,-0.0013
1526.00,-0.0013
1525.00,-0.0013
1524.00,-0.0013
1523.00,-0.0013
1522.00,-0.0013
1521.00,-0.0013
1520.00,-0.0013
1519.00,-0.0013
1518.00,-0.0013
1517.00,-0.0013
1516.00,-0.0013
1515.00,-0.0013
1514.00,-0.0012
1513.00,-0.0012
1512.00,-0.0012
1511.00,-0.0013
1510.00,-0.0013
1509.00,-0.0013
1508.00,-0.0013
1507.00,-0.0013
1506.00,-0.0012
1505.00,-0.0013
1504.00,-0.0013
1503.00,-0.0013
1502.00,-0.0014
1501.00,-0.0014
1500.00,-0.0014
1499.00,-0.0015
1498.00,-0.0015
1497.00,-0.0014
1496.00,-0.0014
1495.00,-0.0014
1494.00,-0.0014
1493.00,-0.0014
1492.00,-0.0014
1491.00,-0.0014
1490.00,-0.0014
1489.00,-0.0014
1488.00,-0.0014
1487.00,-0.0014
1486.00,-0.0014
1485.00,-0.0015
1484.00,-0.0015
1483.00,-0.0015
1482.00,-0.0015
1481.00,-0.0015
1480.00,-0.0015
1479.00,-0.0015
1478.00,-0.0014
1477.00,-0.0014
1476.00,-0.0014
1475.00,-0.0014
1474.00,-0.0013
1473.00,-0.0012
1472.00,-0.0013
1471.00,-0.0013
1470.00,-0.0014
1469.00,-0.0014
1468.00,-0.0015
1467.00,-0.0015
1466.00,-0.0015
1465.00,-0.0015
1464.00,-0.0015
1463.00,-0.0014
1462.00,-0.0014
1461.00,-0.0014
1460.00,-0.0014
1459.00,-0.0015
1458.00,-0.0015
1457.00,-0.0014
1456.00,-0.0014
1455.00,-0.0014
1454.00,-0.0014
1453.00,-0.0014
1452.00,-0.0014
1451.00,-0.0015
1450.00,-0.0015
1449.00,-0.0015
1448.00,-0.0015
1447.00,-0.0015
1446.00,-0.0015
1445.00,-0.0015
1444.00,-0.0015
1443.00,-0.0015
1442.00,-0.0016
1441.00,-0.0015
1440.00,-0.0015
1439.00,-0.0015
1438.00,-0.0015
1437.00,-0.0015
1436.00,-0.0014
1435.00,-0.0014
1434.00,-0.0015
1433.00,-0.0015
1432.00,-0.0015
1431.00,-0.0015
1430.00,-0.0015
1429.00,-0.0015
1428.00,-0.0015
1427.00,-0.0015
1426.00,-0.0015
1425.00,-0.0015
1424.00,-0.0014
1423.00,-0.0015
1422.00,-0.0015
1421.00,-0.0015
1420.00,-0.0015
1419.00,-0.0015
1418.00,-0.0014
1417.00,-0.0014
1416.00,-0.0014
1415.00,-0.0014
1414.00,-0.0015
1413.00,-0.0015
1412.00,-0.0015
1411.00,-0.0016
1410.00,-0.0016
1409.00,-0.0016
1408.00,-0.0016
1407.00,-0.0016
1406.00,-0.0016
1405.00,-0.0015
1404.00,-0.0015
1403.00,-0.0015
1402.00,-0.0015
1401.00,-0.0015
1400.00,-0.0015
1399.00,-0.0014
1398.00,-0.0015
1397.00,-0.0014
1396.00,-0.0014
1395.00,-0.0015
1394.00,-0.0015
1393.00,-0.0015
1392.00,-0.0015
1391.00,-0.0015
1390.00,-0.0015
1389.00,-0.0016
1388.00,-0.0016
1387.00,-0.0016
1386.00,-0.0016
1385.00,-0.0016
1384.00,-0.0016
1383.00,-0.0016
1382.00,-0.0016
1381.00,-0.0016
1380.00,-0.0016
1379.00,-0.0015
1378.00,-0.0015
1377.00,-0.0015
1376.00,-0.0015
1375.00,-0.0015
1374.00,-0.0016
1373.00,-0.0016
1372.00,-0.0016
1371.00,-0.0015
1370.00,-0.0016
1369.00,-0.0016
1368.00,-0.0016
1367.00,-0.0015
1366.00,-0.0015
1365.00,-0.0016
1364.00,-0.0016
1363.00,-0.0016
1362.00,-0.0016
1361.00,-0.0016
1360.00,-0.0016
1359.00,-0.0015
1358.00,-0.0015
1357.00,-0.0016
1356.00,-0.0016
1355.00,-0.0016
1354.00,-0.0016
1353.00,-0.0016
1352.00,-0.0016
1351.00,-0.0016
1350.00,-0.0016
1349.00,-0.0016
1348.00,-0.0016
1347.00,-0.0016
1346.00,-0.0016
1345.00,-0.0016
1344.00,-0.0016
1343.00,-0.0016
1342.00,-0.0016
1341.00,-0.0016
1340.00,-0.0016
1339.00,-0.0016
1338.00,-0.0016
1337.00,-0.0016
1336.00,-0.0016
1335.00,-0.0016
1334.00,-0.0016
1333.00,-0.0016
1332.00,-0.0016
1331.00,-0.0016
1330.00,-0.0016
1329.00,-0.0016
1328.00,-0.0016
1327.00,-0.0016
1326.00,-0.0016
1325.00,-0.0016
1324.00,-0.0016
1323.00,-0.0016
1322.00,-0.0016
1321.00,-0.0016
1320.00,-0.0016
1319.00,-0.0016
1318.00,-0.0016
1317.00,-0.0016
1316.00,-0.0016
1315.00,-0.0016
1314.00,-0.0016
1313.00,-0.0016
1312.00,-0.0016
1311.00,-0.0016
1310.00,-0.0016
1309.00,-0.0016
1308.00,-0.0016
1307.00,-0.0016
1306.00,-0.0016
1305.00,-0.0016
1304.00,-0.0016
1303.00,-0.0016
1302.00,-0.0016
1301.00,-0.0016
1300.00,-0.0016
1299.00,-0.0016
1298.00,-0.0016
1297.00,-0.0016
1296.00,-0.0016
1295.00,-0.0016
1294.00,-0.0016
1293.00,-0.0016
1292.00,-0.0016
1291.00,-0.0016
1290.00,-0.0016
1289.00,-0.0016
1288.00,-0.0016
1287.00,-0.0016
1286.00,-0.0016
1285.00,-0.0016
1284.00,-0.0016
1283.00,-0.0016
1282.00,-0.0016
1281.00,-0.0016
1280.00,-0.0016
1279.00,-0.0016
1278.00,-0.0016
1277.00,-0.0016
1276.00,-0.0016
1275.00,-0.0016
1274.00,-0.0016
1273.00,-0.0016
1272.00,-0.0016
1271.00,-0.0016
1270.00,-0.0016
1269.00,-0.0016
1268.00,-0.0016
1267.00,-0.0016
1266.00,-0.0016
1265.00,-0.0016
1264.00,-0.0017
1263.00,-0.0017
1262.00,-0.0017
1261.00,-0.0017
1260.00,-0.0017
1259.00,-0.0017
1258.00,-0.0017
1257.00,-0.0017
1256.00,-0.0017
1255.00,-0.0017
1254.00,-0.0017
1253.00,-0.0018
1252.00,-0.0017
1251.00,-0.0017
1250.00,-0.0018
1249.00,-0.0018
1248.00,-0.0018
1247.00,-0.0018
1246.00,-0.0018
1245.00,-0.0017
1244.00,-0.0017
1243.00,-0.0017
1242.00,-0.0017
1241.00,-0.0017
1240.00,-0.0017
1239.00,-0.0017
1238.00,-0.0017
1237.00,-0.0017
1236.00,-0.0016
1235.00,-0.0016
1234.00,-0.0016
1233.00,-0.0016
1232.00,-0.0016
1231.00,-0.0016
1230.00,-0.0016
1229.00,-0.0016
1228.00,-0.0016
1227.00,-0.0016
1226.00,-0.0016
1225.00,-0.0016
1224.00,-0.0016
1223.00,-0.0016
1222.00,-0.0016
1221.00,-0.0016
1220.00,-0.0016
1219.00,-0.0016
1218.00,-0.0016
1217.00,-0.0016
1216.00,-0.0016
1215.00,-0.0016
1214.00,-0.0016
1213.00,-0.0016
1212.00,-0.0016
1211.00,-0.0017
1210.00,-0.0017
1209.00,-0.0017
1208.00,-0.0017
1207.00,-0.0017
1206.00,-0.0017
1205.00,-0.0017
1204.00,-0.0017
1203.00,-0.0017
1202.00,-0.0017
1201.00,-0.0017
1200.00,-0.0017
1199.00,-0.0017
1198.00,-0.0017
1197.00,-0.0017
1196.00,-0.0017
1195.00,-0.0017
1194.00,-0.0017
1193.00,-0.0017
1192.00,-0.0017
1191.00,-0.0017
1190.00,-0.0017
1189.00,-0.0017
1188.00,-0.0017
1187.00,-0.0017
1186.00,-0.0017
1185.00,-0.0017
1184.00,-0.0017
1183.00,-0.0017
1182.00,-0.0017
1181.00,-0.0017
1180.00,-0.0017
1179.00,-0.0017
1178.00,-0.0017
1177.00,-0.0017
1176.00,-0.0017
1175.00,-0.0017
1174.00,-0.0017
1173.00,-0.0017
1172.00,-0.0017
1171.00,-0.0017
1170.00,-0.0017
1169.00,-0.0017
1168.00,-0.0017
1167.00,-0.0017
1166.00,-0.0017
1165.00,-0.0017
1164.00,-0.0017
1163.00,-0.0017
1162.00,-0.0017
1161.00,-0.0017
1160.00,-0.0017
1159.00,-0.0017
1158.00,-0.0017
1157.00,-0.0017
1156.00,-0.0017
1155.00,-0.0017
1154.00,-0.0017
1153.00,-0.0017
1152.00,-0.0017
1151.00,-0.0017
1150.00,-0.0017
1149.00,-0.0017
1148.00,-0.0017
1147.00,-0.0017
1146.00,-0.0017
1145.00,-0.0017
1144.00,-0.0017
1143.00,-0.0017
1142.00,-0.0017
1141.00,-0.0017
1140.00,-0.0017
1139.00,-0.0017
1138.00,-0.0017
1137.00,-0.0017
1136.00,-0.0017
1135.00,-0.0017
1134.00,-0.0017
1133.00,-0.0017
1132.00,-0.0017
1131.00,-0.0017
1130.00,-0.0017
1129.00,-0.0017
1128.00,-0.0017
1127.00,-0.0017
1126.00,-0.0017
1125.00,-0.0017
1124.00,-0.0017
1123.00,-0.0017
1122.00,-0.0017
1121.00,-0.0018
1120.00,-0.0018
1119.00,-0.0018
1118.00,-0.0018
1117.00,-0.0018
1116.00,-0.0018
1115.00,-0.0018
1114.00,-0.0018
1113.00,-0.0018
1112.00,-0.0018
1111.00,-0.0018
1110.00,-0.0017
1109.00,-0.0017
1108.00,-0.0017
1107.00,-0.0017
1106.00,-0.0017
1105.00,-0.0018
1104.00,-0.0018
1103.00,-0.0018
1102.00,-0.0018
1101.00,-0.0017
1100.00,-0.0017
1099.00,-0.0017
1098.00,-0.0017
1097.00,-0.0017
1096.00,-0.0017
1095.00,-0.0017
1094.00,-0.0017
1093.00,-0.0017
1092.00,-0.0017
1091.00,-0.0017
1090.00,-0.0017
1089.00,-0.0017
1088.00,-0.0017
1087.00,-0.0017
1086.00,-0.0017
1085.00,-0.0017
1084.00,-0.0017
1083.00,-0.0017
1082.00,-0.0017
1081.00,-0.0018
1080.00,-0.0018
1079.00,-0.0018
1078.00,-0.0018
1077.00,-0.0017
1076.00,-0.0017
1075.00,-0.0017
1074.00,-0.0017
1073.00,-0.0017
1072.00,-0.0017
1071.00,-0.0017
1070.00,-0.0017
1069.00,-0.0017
1068.00,-0.0017
1067.00,-0.0017
1066.00,-0.0017
1065.00,-0.0017
1064.00,-0.0017
1063.00,-0.0017
1062.00,-0.0017
1061.00,-0.0017
1060.00,-0.0016
1059.00,-0.0016
1058.00,-0.0017
1057.00,-0.0017
1056.00,-0.0017
1055.00,-0.0017
1054.00,-0.0017
1053.00,-0.0017
1052.00,-0.0017
1051.00,-0.0017
1050.00,-0.0017
1049.00,-0.0017
1048.00,-0.0016
1047.00,-0.0016
1046.00,-0.0016
1045.00,-0.0016
1044.00,-0.0016
1043.00,-0.0016
1042.00,-0.0016
1041.00,-0.0016
1040.00,-0.0016
1039.00,-0.0016
1038.00,-0.0016
1037.00,-0.0016
1036.00,-0.0016
1035.00,-0.0016
1034.00,-0.0016
1033.00,-0.0016
1032.00,-0.0016
1031.00,-0.0016
1030.00,-0.0016
1029.00,-0.0016
1028.00,-0.0016
1027.00,-0.0016
1026.00,-0.0016
1025.00,-0.0016
1024.00,-0.0016
1023.00,-0.0016
1022.00,-0.0016
1021.00,-0.0016
1020.00,-0.0016
1019.00,-0.0016
1018.00,-0.0016
1017.00,-0.0016
1016.00,-0.0016
1015.00,-0.0015
1014.00,-0.0015
1013.00,-0.0015
1012.00,-0.0015
1011.00,-0.0015
1010.00,-0.0015
1009.00,-0.0015
1008.00,-0.0015
1007.00,-0.0015
1006.00,-0.0015
1005.00,-0.0015
1004.00,-0.0015
1003.00,-0.0015
1002.00,-0.0015
1001.00,-0.0015
1000.00,-0.0015
999.00,-0.0015
998.00,-0.0015
997.00,-0.0015
996.00,-0.0015
995.00,-0.0015
994.00,-0.0015
993.00,-0.0015
992.00,-0.0015
991.00,-0.0015
990.00,-0.0016
989.00,-0.0016
988.00,-0.0015
987.00,-0.0015
986.00,-0.0015
985.00,-0.0015
984.00,-0.0015
983.00,-0.0015
982.00,-0.0015
981.00,-0.0015
980.00,-0.0015
979.00,-0.0015
978.00,-0.0015
977.00,-0.0015
976.00,-0.0015
975.00,-0.0015
974.00,-0.0015
973.00,-0.0015
972.00,-0.0015
971.00,-0.0015
970.00,-0.0016
969.00,-0.0016
968.00,-0.0016
967.00,-0.0016
966.00,-0.0016
965.00,-0.0016
964.00,-0.0016
963.00,-0.0016
962.00,-0.0016
961.00,-0.0016
960.00,-0.0016
959.00,-0.0016
958.00,-0.0016
957.00,-0.0016
956.00,-0.0016
955.00,-0.0016
954.00,-0.0016
953.00,-0.0016
952.00,-0.0016
951.00,-0.0016
950.00,-0.0016
949.00,-0.0016
948.00,-0.0016
947.00,-0.0016
946.00,-0.0016
945.00,-0.0016
944.00,-0.0016
943.00,-0.0016
942.00,-0.0016
941.00,-0.0016
940.00,-0.0016
939.00,-0.0016
938.00,-0.0016
937.00,-0.0016
936.00,-0.0016
935.00,-0.0016
934.00,-0.0017
933.00,-0.0017
932.00,-0.0016
931.00,-0.0016
930.00,-0.0016
929.00,-0.0016
928.00,-0.0016
927.00,-0.0016
926.00,-0.0016
925.00,-0.0016
924.00,-0.0016
923.00,-0.0017
922.00,-0.0017
921.00,-0.0017
920.00,-0.0017
919.00,-0.0016
918.00,-0.0016
917.00,-0.0016
916.00,-0.0016
915.00,-0.0016
914.00,-0.0017
913.00,-0.0017
912.00,-0.0017
911.00,-0.0017
910.00,-0.0017
909.00,-0.0017
908.00,-0.0017
907.00,-0.0017
906.00,-0.0017
905.00,-0.0017
904.00,-0.0017
903.00,-0.0016
902.00,-0.0016
901.00,-0.0016
900.00,-0.0016
899.00,-0.0016
898.00,-0.0016
897.00,-0.0017
896.00,-0.0017
895.00,-0.0017
894.00,-0.0017
893.00,-0.0017
892.00,-0.0017
891.00,-0.0017
890.00,-0.0017
889.00,-0.0017
888.00,-0.0017
887.00,-0.0016
886.00,-0.0016
885.00,-0.0016
884.00,-0.0016
883.00,-0.0016
882.00,-0.0016
881.00,-0.0016
880.00,-0.0016
879.00,-0.0016
878.00,-0.0016
877.00,-0.0016
876.00,-0.0016
875.00,-0.0016
874.00,-0.0016
873.00,-0.0016
872.00,-0.0016
871.00,-0.0016
870.00,-0.0016
869.00,-0.0016
868.00,-0.0016
867.00,-0.0016
866.00,-0.0016
865.00,-0.0016
864.00,-0.0015
863.00,-0.0015
862.00,-0.0015
861.00,-0.0015
860.00,-0.0015
859.00,-0.0015
858.00,-0.0015
857.00,-0.0015
856.00,-0.0015
855.00,-0.0015
854.00,-0.0016
853.00,-0.0016
852.00,-0.0016
851.00,-0.0016
850.00,-0.0016
849.00,-0.0015
848.00,-0.0015
847.00,-0.0015
846.00,-0.0015
845.00,-0.0015
844.00,-0.0015
843.00,-0.0015
842.00,-0.0015
841.00,-0.0015
840.00,-0.0015
839.00,-0.0015
838.00,-0.0015
837.00,-0.0015
836.00,-0.0015
835.00,-0.0015
834.00,-0.0016
833.00,-0.0016
832.00,-0.0016
831.00,-0.0016
830.00,-0.0016
829.00,-0.0016
828.00,-0.0016
827.00,-0.0016
826.00,-0.0016
825.00,-0.0015
824.00,-0.0015
823.00,-0.0015
822.00,-0.0015
821.00,-0.0016
820.00,-0.0016
819.00,-0.0016
818.00,-0.0016
817.00,-0.0016
816.00,-0.0016
815.00,-0.0016
814.00,-0.0016
813.00,-0.0016
812.00,-0.0016
811.00,-0.0016
810.00,-0.0016
809.00,-0.0016
808.00,-0.0016
807.00,-0.0016
806.00,-0.0016
805.00,-0.0016
804.00,-0.0016
803.00,-0.0016
802.00,-0.0016
801.00,-0.0016
800.00,-0.0016
799.00,-0.0016
798.00,-0.0016
797.00,-0.0016
796.00,-0.0015
795.00,-0.0015
794.00,-0.0015
793.00,-0.0015
792.00,-0.0016
791.00,-0.0016
790.00,-0.0016
789.00,-0.0016
788.00,-0.0015
787.00,-0.0015
786.00,-0.0015
785.00,-0.0015
784.00,-0.0015
783.00,-0.0015
782.00,-0.0015
781.00,-0.0015
780.00,-0.0015
779.00,-0.0015
778.00,-0.0015
777.00,-0.0015
776.00,-0.0015
775.00,-0.0016
774.00,-0.0016
773.00,-0.0016
772.00,-0.0015
771.00,-0.0015
770.00,-0.0015
769.00,-0.0015
768.00,-0.0015
767.00,-0.0015
766.00,-0.0015
765.00,-0.0015
764.00,-0.0015
763.00,-0.0015
762.00,-0.0015
761.00,-0.0015
760.00,-0.0015
759.00,-0.0015
758.00,-0.0015
757.00,-0.0015
756.00,-0.0015
755.00,-0.0015
754.00,-0.0015
753.00,-0.0015
752.00,-0.0015
751.00,-0.0015
750.00,-0.0015
749.00,-0.0015
748.00,-0.0015
747.00,-0.0015
746.00,-0.0016
745.00,-0.0016
744.00,-0.0016
743.00,-0.0015
742.00,-0.0015
741.00,-0.0015
740.00,-0.0015
739.00,-0.0014
738.00,-0.0015
737.00,-0.0015
736.00,-0.0015
735.00,-0.0015
734.00,-0.0015
733.00,-0.0015
732.00,-0.0015
731.00,-0.0015
730.00,-0.0015
729.00,-0.0015
728.00,-0.0015
727.00,-0.0015
726.00,-0.0015
725.00,-0.0015
724.00,-0.0015
723.00,-0.0015
722.00,-0.0015
721.00,-0.0015
720.00,-0.0015
719.00,-0.0015
718.00,-0.0015
717.00,-0.0015
716.00,-0.0015
715.00,-0.0015
714.00,-0.0015
713.00,-0.0015
712.00,-0.0015
711.00,-0.0015
710.00,-0.0015
709.00,-0.0015
708.00,-0.0015
707.00,-0.0015
706.00,-0.0015
705.00,-0.0016
704.00,-0.0016
703.00,-0.0016
702.00,-0.0016
701.00,-0.0016
700.00,-0.0016
699.00,-0.0016
698.00,-0.0016
697.00,-0.0016
696.00,-0.0016
695.00,-0.0016
694.00,-0.0016
693.00,-0.0016
692.00,-0.0016
691.00,-0.0016
690.00,-0.0016
689.00,-0.0016
688.00,-0.0016
687.00,-0.0017
686.00,-0.0017
685.00,-0.0017
684.00,-0.0018
683.00,-0.0018
682.00,-0.0018
681.00,-0.0018
680.00,-0.0018
679.00,-0.0018
678.00,-0.0017
677.00,-0.0017
676.00,-0.0017
675.00,-0.0017
674.00,-0.0017
673.00,-0.0017
672.00,-0.0018
671.00,-0.0020
670.00,-0.0022
669.00,-0.0026
668.00,-0.0028
667.00,-0.0027
666.00,-0.0024
665.00,-0.0021
664.00,-0.0019
663.00,-0.0018
662.00,-0.0017
661.00,-0.0017
660.00,-0.0017
659.00,-0.0017
658.00,-0.0017
657.00,-0.0018
656.00,-0.0018
655.00,-0.0018
654.00,-0.0018
653.00,-0.0018
652.00,-0.0018
651.00,-0.0018
650.00,-0.0018
649.00,-0.0018
648.00,-0.0017
647.00,-0.0017
646.00,-0.0017
645.00,-0.0018
644.00,-0.0017
643.00,-0.0017
642.00,-0.0017
641.00,-0.0017
640.00,-0.0017
639.00,-0.0016
638.00,-0.0016
637.00,-0.0017
636.00,-0.0017
635.00,-0.0017
634.00,-0.0017
633.00,-0.0017
632.00,-0.0017
631.00,-0.0017
630.00,-0.0017
629.00,-0.0017
628.00,-0.0017
627.00,-0.0016
626.00,-0.0016
625.00,-0.0016
624.00,-0.0017
623.00,-0.0017
622.00,-0.0017
621.00,-0.0017
620.00,-0.0017
619.00,-0.0017
618.00,-0.0018
617.00,-0.0018
616.00,-0.0017
615.00,-0.0018
614.00,-0.0018
613.00,-0.0018
612.00,-0.0017
611.00,-0.0017
610.00,-0.0017
609.00,-0.0017
608.00,-0.0017
607.00,-0.0017
606.00,-0.0017
605.00,-0.0018
604.00,-0.0018
603.00,-0.0018
602.00,-0.0018
601.00,-0.0017
600.00,-0.0017
599.00,-0.0017
598.00,-0.0017
597.00,-0.0017
596.00,-0.0018
595.00,-0.0019
594.00,-0.0019
593.00,-0.0019
592.00,-0.0018
591.00,-0.0017
590.00,-0.0017
589.00,-0.0018
588.00,-0.0018
587.00,-0.0017
586.00,-0.0017
585.00,-0.0017
584.00,-0.0017
583.00,-0.0018
582.00,-0.0019
581.00,-0.0019
580.00,-0.0018
579.00,-0.0017
578.00,-0.0017
577.00,-0.0017
576.00,-0.0017
575.00,-0.0017
574.00,-0.0018
573.00,-0.0019
572.00,-0.0019
571.00,-0.0018
570.00,-0.0017
569.00,-0.0016
568.00,-0.0016
567.00,-0.0016
566.00,-0.0016
565.00,-0.0017
564.00,-0.0018
563.00,-0.0019
562.00,-0.0019
561.00,-0.0019
560.00,-0.0018
559.00,-0.0018
558.00,-0.0018
557.00,-0.0018
556.00,-0.0017
555.00,-0.0017
554.00,-0.0017
553.00,-0.0017
552.00,-0.0017
551.00,-0.0016
550.00,-0.0016
549.00,-0.0016
548.00,-0.0016
547.00,-0.0017
546.00,-0.0017
545.00,-0.0017
544.00,-0.0016
543.00,-0.0016
542.00,-0.0016
541.00,-0.0017
540.00,-0.0018
539.00,-0.0018
538.00,-0.0018
537.00,-0.0018
536.00,-0.0017
535.00,-0.0017
534.00,-0.0018
533.00,-0.0018
532.00,-0.0018
531.00,-0.0018
530.00,-0.0018
529.00,-0.0017
528.00,-0.0017
527.00,-0.0016
526.00,-0.0016
525.00,-0.0016
524.00,-0.0016
523.00,-0.0017
522.00,-0.0017
521.00,-0.0018
520.00,-0.0018
519.00,-0.0018
518.00,-0.0018
517.00,-0.0018
516.00,-0.0017
515.00,-0.0017
514.00,-0.0017
513.00,-0.0018
512.00,-0.0018
511.00,-0.0018
510.00,-0.0018
509.00,-0.0019
508.00,-0.0019
507.00,-0.0019
506.00,-0.0019
505.00,-0.0018
504.00,-0.0018
503.00,-0.0017
502.00,-0.0017
501.00,-0.0018
500.00,-0.0018
