Created as New Dataset,Sample 346 By Analyst Date Tuesday, February 04 2025
cm-1,A
4000.00,-0.0001
3999.00,-0.0001
3998.00,-0.0001
3997.00,-0.0001
3996.00,-0.0001
3995.00,-0.0001
3994.00,-0.0001
3993.00,-0.0001
3992.00,-0.0001
3991.00,-0.0001
3990.00,-0.0001
3989.00,-0.0001
3988.00,-0.0001
3987.00,-0.0001
3986.00,-0.0001
3985.00,-0.0000
3984.00,-0.0000
3983.00,-0.0000
3982.00,-0.0000
3981.00,-0.0001
3980.00,-0.0001
3979.00,-0.0001
3978.00,-0.0001
3977.00,-0.0001
3976.00,-0.0001
3975.00,-0.0001
3974.00,-0.0001
3973.00,-0.0001
3972.00,-0.0001
3971.00,-0.0001
3970.00,-0.0001
3969.00,-0.0001
3968.00,-0.0001
3967.00,-0.0001
3966.00,-0.0000
3965.00,-0.0000
3964.00,-0.0000
3963.00,-0.0000
3962.00,-0.0001
3961.00,-0.0001
3960.00,-0.0000
3959.00,-0.0000
3958.00,-0.0000
3957.00,-0.0000
3956.00,-0.0001
3955.00,-0.0001
3954.00,-0.0001
3953.00,-0.0001
3952.00,-0.0001
3951.00,-0.0000
3950.00,-0.0000
3949.00,-0.0000
3948.00,-0.0000
3947.00,-0.0000
3946.00,-0.0000
3945.00,-0.0000
3944.00,-0.0000
3943.00,-0.0000
3942.00,-0.0000
3941.00,-0.0000
3940.00,-0.0000
3939.00,-0.0000
3938.00,-0.0000
3937.00,-0.0001
3936.00,-0.0001
3935.00,-0.0001
3934.00,-0.0000
3933.00,-0.0000
3932.00,-0.0000
3931.00,-0.0000
3930.00,-0.0000
3929.00,-0.0000
3928.00,-0.0000
3927.00,-0.0000
3926.00,-0.0000
3925.00,-0.0000
3924.00,-0.0000
3923.00,-0.0000
3922.00,-0.0000
3921.00,-0.0000
3920.00,-0.0000
3919.00,-0.0000
3918.00,-0.0000
3917.00,-0.0001
3916.00,-0.0001
3915.00,-0.0001
3914.00,-0.0001
3913.00,-0.0001
3912.00,-0.0001
3911.00,-0.0001
3910.00,-0.0001
3909.00,-0.0000
3908.00,-0.0000
3907.00,-0.0000
3906.00,-0.0000
3905.00,-0.0000
3904.00,-0.0000
3903.00,-0.0000
3902.00,-0.0000
3901.00,-0.0000
3900.00,-0.0000
3899.00,-0.0000
3898.00,-0.0000
3897.00,-0.0000
3896.00,-0.0000
3895.00,-0.0000
3894.00,-0.0000
3893.00,-0.0000
3892.00,-0.0000
3891.00,-0.0000
3890.00,-0.0001
3889.00,-0.0000
3888.00,-0.0000
3887.00,-0.0000
3886.00,-0.0000
3885.00,-0.0000
3884.00,-0.0000
3883.00,-0.0000
3882.00,-0.0000
3881.00,-0.0000
3880.00,-0.0000
3879.00,-0.0000
3878.00,-0.0000
3877.00,-0.0000
3876.00,-0.0000
3875.00,-0.0000
3874.00,-0.0000
3873.00,-0.0001
3872.00,-0.0000
3871.00,-0.0000
3870.00,-0.0000
3869.00,-0.0000
3868.00,-0.0000
3867.00,-0.0000
3866.00,-0.0000
3865.00,-0.0000
3864.00,-0.0000
3863.00,-0.0000
3862.00,-0.0000
3861.00,-0.0000
3860.00,-0.0000
3859.00,-0.0000
3858.00,-0.0000
3857.00,-0.0001
3856.00,-0.0001
3855.00,-0.0001
3854.00,-0.0000
3853.00,-0.0000
3852.00,-0.0000
3851.00,-0.0001
3850.00,-0.0001
3849.00,-0.0000
3848.00,-0.0000
3847.00,-0.0000
3846.00,-0.0000
3845.00,-0.0000
3844.00,-0.0000
3843.00,-0.0000
3842.00,-0.0000
3841.00,-0.0000
3840.00,-0.0000
3839.00,-0.0000
3838.00,-0.0000
3837.00,-0.0000
3836.00,-0.0000
3835.00,-0.0000
3834.00,-0.0000
3833.00,-0.0000
3832.00,-0.0001
3831.00,-0.0001
3830.00,-0.0001
3829.00,-0.0000
3828.00,-0.0000
3827.00,-0.0000
3826.00,-0.0000
3825.00,-0.0000
3824.00,-0.0000
3823.00,-0.0000
3822.00,-0.0000
3821.00,-0.0000
3820.00,-0.0000
3819.00,-0.0000
3818.00,-0.0000
3817.00,-0.0000
3816.00,-0.0000
3815.00,-0.0000
3814.00,-0.0000
3813.00,-0.0000
3812.00,-0.0000
3811.00,-0.0001
3810.00,-0.0001
3809.00,-0.0001
3808.00,-0.0000
3807.00,-0.0001
3806.00,-0.0001
3805.00,-0.0001
3804.00,-0.0001
3803.00,-0.0001
3802.00,-0.0001
3801.00,-0.0001
3800.00,-0.0001
3799.00,-0.0001
3798.00,-0.0000
3797.00,-0.0000
3796.00,-0.0000
3795.00,-0.0000
3794.00,-0.0000
3793.00,-0.0000
3792.00,-0.0000
3791.00,-0.0000
3790.00,-0.0000
3789.00,-0.0000
3788.00,-0.0000
3787.00,-0.0000
3786.00,-0.0000
3785.00,-0.0000
3784.00,-0.0000
3783.00,-0.0000
3782.00,-0.0000
3781.00,-0.0000
3780.00,-0.0000
3779.00,-0.0000
3778.00,-0.0000
3777.00,-0.0000
3776.00,-0.0000
3775.00,-0.0001
3774.00,-0.0001
3773.00,-0.0001
3772.00,-0.0000
3771.00,-0.0000
3770.00,-0.0000
3769.00,-0.0000
3768.00,-0.0000
3767.00,-0.0000
3766.00,-0.0000
3765.00,-0.0000
3764.00,-0.0000
3763.00,-0.0000
3762.00,-0.0000
3761.00,-0.0000
3760.00,-0.0000
3759.00,-0.0000
3758.00,-0.0000
3757.00,-0.0000
3756.00,-0.0000
3755.00,-0.0000
3754.00,-0.0000
3753.00,-0.0000
3752.00,-0.0000
3751.00,-0.0000
3750.00,-0.0000
3749.00,-0.0000
3748.00,-0.0000
3747.00,-0.0000
3746.00,-0.0000
3745.00,-0.0000
3744.00,-0.0000
3743.00,-0.0000
3742.00,-0.0000
3741.00,0.0000
3740.00,0.0000
3739.00,0.0000
3738.00,0.0000
3737.00,0.0000
3736.00,-0.0000
3735.00,-0.0000
3734.00,-0.0000
3733.00,-0.0000
3732.00,-0.0000
3731.00,-0.0000
3730.00,-0.0000
3729.00,-0.0000
3728.00,-0.0000
3727.00,-0.0000
3726.00,-0.0000
3725.00,-0.0000
3724.00,-0.0000
3723.00,-0.0000
3722.00,-0.0000
3721.00,-0.0000
3720.00,-0.0000
3719.00,-0.0000
3718.00,-0.0000
3717.00,-0.0000
3716.00,-0.0000
3715.00,-0.0000
3714.00,-0.0000
3713.00,-0.0000
3712.00,-0.0000
3711.00,-0.0000
3710.00,-0.0000
3709.00,-0.0000
3708.00,-0.0000
3707.00,-0.0000
3706.00,-0.0000
3705.00,-0.0000
3704.00,-0.0000
3703.00,-0.0000
3702.00,-0.0000
3701.00,-0.0000
3700.00,-0.0000
3699.00,-0.0000
3698.00,-0.0000
3697.00,-0.0000
3696.00,-0.0000
3695.00,-0.0000
3694.00,-0.0000
3693.00,-0.0000
3692.00,-0.0000
3691.00,-0.0000
3690.00,-0.0000
3689.00,-0.0000
3688.00,-0.0000
3687.00,-0.0000
3686.00,-0.0000
3685.00,-0.0000
3684.00,-0.0000
3683.00,-0.0000
3682.00,-0.0000
3681.00,-0.0000
3680.00,-0.0000
3679.00,-0.0000
3678.00,-0.0000
3677.00,-0.0000
3676.00,-0.0000
3675.00,-0.0000
3674.00,-0.0000
3673.00,-0.0000
3672.00,-0.0000
3671.00,-0.0000
3670.00,-0.0000
3669.00,-0.0000
3668.00,-0.0000
3667.00,-0.0000
3666.00,-0.0000
3665.00,-0.0000
3664.00,-0.0000
3663.00,-0.0000
3662.00,-0.0000
3661.00,-0.0000
3660.00,-0.0000
3659.00,-0.0000
3658.00,-0.0000
3657.00,-0.0000
3656.00,-0.0000
3655.00,-0.0000
3654.00,-0.0000
3653.00,-0.0000
3652.00,-0.0000
3651.00,-0.0000
3650.00,0.0000
3649.00,0.0000
3648.00,0.0000
3647.00,0.0000
3646.00,0.0000
3645.00,0.0000
3644.00,0.0000
3643.00,0.0000
3642.00,-0.0000
3641.00,-0.0000
3640.00,-0.0000
3639.00,-0.0000
3638.00,-0.0000
3637.00,-0.0000
3636.00,-0.0000
3635.00,-0.0000
3634.00,-0.0000
3633.00,-0.0000
3632.00,-0.0000
3631.00,0.0000
3630.00,0.0000
3629.00,0.0000
3628.00,0.0000
3627.00,0.0000
3626.00,0.0000
3625.00,0.0000
3624.00,-0.0000
3623.00,-0.0000
3622.00,-0.0000
3621.00,-0.0000
3620.00,-0.0000
3619.00,-0.0000
3618.00,-0.0000
3617.00,-0.0000
3616.00,-0.0000
3615.00,0.0000
3614.00,0.0000
3613.00,-0.0000
3612.00,-0.0000
3611.00,0.0000
3610.00,0.0000
3609.00,0.0000
3608.00,0.0000
3607.00,0.0000
3606.00,-0.0000
3605.00,-0.0000
3604.00,-0.0000
3603.00,-0.0000
3602.00,-0.0000
3601.00,-0.0000
3600.00,-0.0000
3599.00,0.0000
3598.00,0.0000
3597.00,0.0000
3596.00,0.0000
3595.00,0.0000
3594.00,-0.0000
3593.00,-0.0000
3592.00,-0.0000
3591.00,-0.0000
3590.00,-0.0000
3589.00,0.0000
3588.00,0.0000
3587.00,0.0000
3586.00,0.0000
3585.00,-0.0000
3584.00,-0.0000
3583.00,-0.0000
3582.00,-0.0000
3581.00,-0.0000
3580.00,-0.0000
3579.00,-0.0000
3578.00,-0.0000
3577.00,-0.0000
3576.00,-0.0000
3575.00,-0.0000
3574.00,-0.0000
3573.00,-0.0000
3572.00,0.0000
3571.00,0.0000
3570.00,0.0000
3569.00,0.0000
3568.00,0.0000
3567.00,0.0000
3566.00,0.0000
3565.00,0.0000
3564.00,0.0000
3563.00,0.0000
3562.00,0.0000
3561.00,-0.0000
3560.00,-0.0000
3559.00,-0.0000
3558.00,-0.0000
3557.00,-0.0000
3556.00,-0.0000
3555.00,-0.0000
3554.00,-0.0000
3553.00,-0.0000
3552.00,-0.0000
3551.00,-0.0000
3550.00,-0.0000
3549.00,-0.0000
3548.00,-0.0000
3547.00,-0.0000
3546.00,-0.0000
3545.00,-0.0000
3544.00,-0.0000
3543.00,-0.0000
3542.00,-0.0000
3541.00,-0.0000
3540.00,-0.0000
3539.00,-0.0000
3538.00,-0.0000
3537.00,-0.0000
3536.00,-0.0000
3535.00,-0.0000
3534.00,-0.0000
3533.00,-0.0000
3532.00,-0.0000
3531.00,-0.0000
3530.00,-0.0000
3529.00,0.0000
3528.00,0.0000
3527.00,-0.0000
3526.00,-0.0000
3525.00,-0.0000
3524.00,-0.0000
3523.00,-0.0000
3522.00,-0.0000
3521.00,-0.0000
3520.00,-0.0000
3519.00,-0.0000
3518.00,-0.0000
3517.00,-0.0000
3516.00,-0.0000
3515.00,-0.0000
3514.00,-0.0000
3513.00,-0.0000
3512.00,-0.0000
3511.00,-0.0000
3510.00,-0.0000
3509.00,-0.0000
3508.00,-0.0000
3507.00,-0.0000
3506.00,-0.0000
3505.00,-0.0000
3504.00,-0.0000
3503.00,-0.0000
3502.00,-0.0000
3501.00,-0.0000
3500.00,-0.0000
3499.00,-0.0000
3498.00,-0.0000
3497.00,-0.0000
3496.00,-0.0000
3495.00,-0.0000
3494.00,-0.0000
3493.00,-0.0000
3492.00,-0.0000
3491.00,-0.0000
3490.00,-0.0000
3489.00,-0.0000
3488.00,-0.0000
3487.00,-0.0000
3486.00,-0.0000
3485.00,-0.0000
3484.00,-0.0001
3483.00,-0.0001
3482.00,-0.0001
3481.00,-0.0001
3480.00,-0.0000
3479.00,-0.0000
3478.00,-0.0000
3477.00,-0.0000
3476.00,-0.0000
3475.00,-0.0001
3474.00,-0.0001
3473.00,-0.0001
3472.00,-0.0001
3471.00,-0.0000
3470.00,-0.0000
3469.00,-0.0000
3468.00,-0.0000
3467.00,-0.0000
3466.00,-0.0000
3465.00,-0.0000
3464.00,-0.0000
3463.00,-0.0000
3462.00,-0.0000
3461.00,-0.0000
3460.00,-0.0000
3459.00,-0.0000
3458.00,-0.0000
3457.00,-0.0000
3456.00,-0.0000
3455.00,-0.0001
3454.00,-0.0001
3453.00,-0.0001
3452.00,-0.0001
3451.00,-0.0001
3450.00,-0.0000
3449.00,-0.0000
3448.00,-0.0000
3447.00,-0.0000
3446.00,-0.0000
3445.00,-0.0000
3444.00,-0.0000
3443.00,-0.0000
3442.00,-0.0000
3441.00,-0.0001
3440.00,-0.0001
3439.00,-0.0000
3438.00,-0.0000
3437.00,-0.0000
3436.00,-0.0000
3435.00,-0.0000
3434.00,-0.0001
3433.00,-0.0001
3432.00,-0.0001
3431.00,-0.0001
3430.00,-0.0000
3429.00,-0.0000
3428.00,-0.0000
3427.00,-0.0000
3426.00,-0.0001
3425.00,-0.0001
3424.00,-0.0001
3423.00,-0.0001
3422.00,-0.0001
3421.00,-0.0001
3420.00,-0.0001
3419.00,-0.0000
3418.00,-0.0000
3417.00,-0.0000
3416.00,-0.0000
3415.00,-0.0000
3414.00,-0.0001
3413.00,-0.0001
3412.00,-0.0001
3411.00,-0.0001
3410.00,-0.0001
3409.00,-0.0001
3408.00,-0.0001
3407.00,-0.0001
3406.00,-0.0001
3405.00,-0.0001
3404.00,-0.0001
3403.00,-0.0001
3402.00,-0.0001
3401.00,-0.0001
3400.00,-0.0001
3399.00,-0.0001
3398.00,-0.0001
3397.00,-0.0001
3396.00,-0.0001
3395.00,-0.0001
3394.00,-0.0001
3393.00,-0.0001
3392.00,-0.0001
3391.00,-0.0001
3390.00,-0.0001
3389.00,-0.0001
3388.00,-0.0001
3387.00,-0.0001
3386.00,-0.0001
3385.00,-0.0001
3384.00,-0.0001
3383.00,-0.0001
3382.00,-0.0001
3381.00,-0.0001
3380.00,-0.0001
3379.00,-0.0001
3378.00,-0.0001
3377.00,-0.0001
3376.00,-0.0000
3375.00,-0.0000
3374.00,-0.0000
3373.00,-0.0000
3372.00,-0.0000
3371.00,-0.0000
3370.00,-0.0000
3369.00,-0.0000
3368.00,-0.0000
3367.00,-0.0000
3366.00,-0.0000
3365.00,-0.0000
3364.00,-0.0000
3363.00,-0.0000
3362.00,-0.0000
3361.00,-0.0000
3360.00,-0.0000
3359.00,-0.0000
3358.00,-0.0001
3357.00,-0.0001
3356.00,-0.0000
3355.00,-0.0001
3354.00,-0.0001
3353.00,-0.0001
3352.00,-0.0001
3351.00,-0.0000
3350.00,-0.0000
3349.00,-0.0000
3348.00,-0.0001
3347.00,-0.0001
3346.00,-0.0001
3345.00,-0.0001
3344.00,-0.0001
3343.00,-0.0001
3342.00,-0.0001
3341.00,-0.0001
3340.00,-0.0001
3339.00,-0.0001
3338.00,-0.0001
3337.00,-0.0000
3336.00,-0.0000
3335.00,-0.0000
3334.00,-0.0000
3333.00,-0.0000
3332.00,-0.0001
3331.00,-0.0001
3330.00,-0.0001
3329.00,-0.0001
3328.00,-0.0001
3327.00,-0.0001
3326.00,-0.0001
3325.00,-0.0001
3324.00,-0.0001
3323.00,-0.0001
3322.00,-0.0001
3321.00,-0.0001
3320.00,-0.0001
3319.00,-0.0001
3318.00,-0.0001
3317.00,-0.0001
3316.00,-0.0001
3315.00,-0.0001
3314.00,-0.0001
3313.00,-0.0001
3312.00,-0.0001
3311.00,-0.0001
3310.00,-0.0001
3309.00,-0.0001
3308.00,-0.0001
3307.00,-0.0001
3306.00,-0.0001
3305.00,-0.0001
3304.00,-0.0001
3303.00,-0.0001
3302.00,-0.0001
3301.00,-0.0001
3300.00,-0.0001
3299.00,-0.0001
3298.00,-0.0001
3297.00,-0.0001
3296.00,-0.0001
3295.00,-0.0001
3294.00,-0.0001
3293.00,-0.0001
3292.00,-0.0001
3291.00,-0.0001
3290.00,-0.0001
3289.00,-0.0001
3288.00,-0.0001
3287.00,-0.0001
3286.00,-0.0001
3285.00,-0.0001
3284.00,-0.0001
3283.00,-0.0001
3282.00,-0.0001
3281.00,-0.0001
3280.00,-0.0001
3279.00,-0.0001
3278.00,-0.0000
3277.00,-0.0000
3276.00,-0.0000
3275.00,-0.0001
3274.00,-0.0001
3273.00,-0.0001
3272.00,-0.0001
3271.00,-0.0001
3270.00,-0.0001
3269.00,-0.0001
3268.00,-0.0001
3267.00,-0.0001
3266.00,-0.0001
3265.00,-0.0001
3264.00,-0.0001
3263.00,-0.0000
3262.00,-0.0000
3261.00,-0.0000
3260.00,-0.0000
3259.00,-0.0001
3258.00,-0.0001
3257.00,-0.0001
3256.00,-0.0001
3255.00,-0.0001
3254.00,-0.0001
3253.00,-0.0000
3252.00,-0.0000
3251.00,-0.0001
3250.00,-0.0001
3249.00,-0.0001
3248.00,-0.0001
3247.00,-0.0000
3246.00,-0.0000
3245.00,-0.0000
3244.00,-0.0000
3243.00,-0.0000
3242.00,-0.0000
3241.00,-0.0000
3240.00,-0.0001
3239.00,-0.0001
3238.00,-0.0001
3237.00,-0.0001
3236.00,-0.0001
3235.00,-0.0001
3234.00,-0.0001
3233.00,-0.0001
3232.00,-0.0001
3231.00,-0.0001
3230.00,-0.0001
3229.00,-0.0000
3228.00,-0.0000
3227.00,-0.0000
3226.00,-0.0000
3225.00,-0.0000
3224.00,-0.0000
3223.00,-0.0001
3222.00,-0.0001
3221.00,-0.0001
3220.00,-0.0001
3219.00,-0.0001
3218.00,-0.0001
3217.00,-0.0001
3216.00,-0.0001
3215.00,-0.0001
3214.00,-0.0001
3213.00,-0.0001
3212.00,-0.0001
3211.00,-0.0000
3210.00,-0.0000
3209.00,-0.0001
3208.00,-0.0001
3207.00,-0.0001
3206.00,-0.0001
3205.00,-0.0001
3204.00,-0.0001
3203.00,-0.0001
3202.00,-0.0001
3201.00,-0.0001
3200.00,-0.0000
3199.00,-0.0000
3198.00,-0.0000
3197.00,-0.0000
3196.00,-0.0001
3195.00,-0.0001
3194.00,-0.0001
3193.00,-0.0001
3192.00,-0.0001
3191.00,-0.0001
3190.00,-0.0001
3189.00,-0.0001
3188.00,-0.0001
3187.00,-0.0001
3186.00,-0.0000
3185.00,-0.0001
3184.00,-0.0001
3183.00,-0.0001
3182.00,-0.0001
3181.00,-0.0001
3180.00,-0.0000
3179.00,-0.0000
3178.00,-0.0000
3177.00,-0.0000
3176.00,-0.0000
3175.00,-0.0000
3174.00,-0.0000
3173.00,-0.0001
3172.00,-0.0001
3171.00,-0.0001
3170.00,-0.0001
3169.00,-0.0000
3168.00,-0.0000
3167.00,-0.0000
3166.00,-0.0000
3165.00,-0.0000
3164.00,-0.0000
3163.00,-0.0001
3162.00,-0.0001
3161.00,-0.0001
3160.00,-0.0001
3159.00,-0.0000
3158.00,-0.0000
3157.00,-0.0000
3156.00,-0.0000
3155.00,-0.0000
3154.00,-0.0001
3153.00,-0.0001
3152.00,-0.0001
3151.00,-0.0001
3150.00,-0.0000
3149.00,-0.0000
3148.00,-0.0000
3147.00,-0.0000
3146.00,-0.0001
3145.00,-0.0001
3144.00,-0.0001
3143.00,-0.0001
3142.00,-0.0001
3141.00,-0.0001
3140.00,-0.0001
3139.00,-0.0001
3138.00,-0.0001
3137.00,-0.0001
3136.00,-0.0001
3135.00,-0.0001
3134.00,-0.0001
3133.00,-0.0000
3132.00,-0.0001
3131.00,-0.0001
3130.00,-0.0001
3129.00,-0.0001
3128.00,-0.0001
3127.00,-0.0001
3126.00,-0.0000
3125.00,-0.0000
3124.00,-0.0000
3123.00,-0.0000
3122.00,-0.0000
3121.00,-0.0000
3120.00,-0.0001
3119.00,-0.0001
3118.00,-0.0001
3117.00,-0.0000
3116.00,-0.0000
3115.00,-0.0000
3114.00,-0.0000
3113.00,-0.0000
3112.00,-0.0000
3111.00,-0.0000
3110.00,-0.0000
3109.00,-0.0001
3108.00,-0.0001
3107.00,-0.0001
3106.00,-0.0001
3105.00,-0.0001
3104.00,-0.0001
3103.00,-0.0001
3102.00,-0.0000
3101.00,-0.0000
3100.00,-0.0000
3099.00,-0.0000
3098.00,-0.0000
3097.00,-0.0000
3096.00,-0.0000
3095.00,-0.0000
3094.00,-0.0000
3093.00,-0.0000
3092.00,-0.0000
3091.00,-0.0000
3090.00,-0.0000
3089.00,-0.0000
3088.00,-0.0000
3087.00,-0.0000
3086.00,-0.0000
3085.00,-0.0000
3084.00,-0.0000
3083.00,-0.0001
3082.00,-0.0001
3081.00,-0.0001
3080.00,-0.0000
3079.00,-0.0000
3078.00,-0.0000
3077.00,-0.0001
3076.00,-0.0001
3075.00,-0.0001
3074.00,-0.0001
3073.00,-0.0000
3072.00,-0.0000
3071.00,-0.0000
3070.00,-0.0000
3069.00,-0.0000
3068.00,-0.0000
3067.00,-0.0000
3066.00,-0.0000
3065.00,-0.0001
3064.00,-0.0001
3063.00,-0.0001
3062.00,-0.0001
3061.00,-0.0001
3060.00,-0.0001
3059.00,-0.0001
3058.00,-0.0001
3057.00,-0.0001
3056.00,-0.0001
3055.00,-0.0001
3054.00,-0.0000
3053.00,-0.0000
3052.00,-0.0000
3051.00,-0.0000
3050.00,-0.0000
3049.00,-0.0000
3048.00,-0.0000
3047.00,-0.0000
3046.00,-0.0000
3045.00,-0.0000
3044.00,-0.0000
3043.00,-0.0000
3042.00,-0.0000
3041.00,-0.0000
3040.00,-0.0000
3039.00,-0.0000
3038.00,-0.0000
3037.00,-0.0000
3036.00,-0.0000
3035.00,-0.0000
3034.00,-0.0000
3033.00,-0.0000
3032.00,-0.0000
3031.00,-0.0000
3030.00,-0.0000
3029.00,-0.0000
3028.00,-0.0000
3027.00,-0.0000
3026.00,-0.0000
3025.00,-0.0000
3024.00,-0.0000
3023.00,-0.0000
3022.00,-0.0000
3021.00,-0.0000
3020.00,-0.0000
3019.00,-0.0000
3018.00,-0.0000
3017.00,-0.0000
3016.00,-0.0000
3015.00,-0.0000
3014.00,-0.0000
3013.00,-0.0000
3012.00,-0.0000
3011.00,-0.0000
3010.00,-0.0000
3009.00,-0.0000
3008.00,-0.0000
3007.00,-0.0000
3006.00,-0.0000
3005.00,-0.0000
3004.00,-0.0000
3003.00,-0.0000
3002.00,-0.0000
3001.00,-0.0000
3000.00,-0.0000
2999.00,-0.0000
2998.00,-0.0000
2997.00,-0.0000
2996.00,-0.0000
2995.00,-0.0000
2994.00,-0.0000
2993.00,-0.0000
2992.00,-0.0000
2991.00,-0.0000
2990.00,-0.0000
2989.00,-0.0000
2988.00,-0.0000
2987.00,-0.0000
2986.00,-0.0000
2985.00,-0.0000
2984.00,-0.0000
2983.00,-0.0000
2982.00,-0.0000
2981.00,-0.0000
2980.00,-0.0000
2979.00,-0.0000
2978.00,-0.0000
2977.00,-0.0000
2976.00,-0.0000
2975.00,-0.0000
2974.00,-0.0000
2973.00,-0.0000
2972.00,-0.0000
2971.00,-0.0000
2970.00,-0.0000
2969.00,-0.0000
2968.00,-0.0000
2967.00,-0.0000
2966.00,-0.0000
2965.00,-0.0000
2964.00,-0.0000
2963.00,-0.0000
2962.00,-0.0000
2961.00,-0.0000
2960.00,-0.0000
2959.00,-0.0000
2958.00,-0.0000
2957.00,-0.0000
2956.00,-0.0000
2955.00,-0.0000
2954.00,-0.0000
2953.00,-0.0000
2952.00,-0.0000
2951.00,-0.0000
2950.00,-0.0000
2949.00,-0.0000
2948.00,-0.0000
2947.00,-0.0000
2946.00,-0.0000
2945.00,-0.0000
2944.00,-0.0000
2943.00,-0.0000
2942.00,-0.0000
2941.00,-0.0000
2940.00,-0.0000
2939.00,-0.0000
2938.00,-0.0000
2937.00,-0.0000
2936.00,-0.0000
2935.00,-0.0000
2934.00,-0.0000
2933.00,-0.0000
2932.00,-0.0000
2931.00,-0.0000
2930.00,-0.0000
2929.00,-0.0000
2928.00,-0.0000
2927.00,-0.0001
2926.00,-0.0001
2925.00,-0.0001
2924.00,-0.0001
2923.00,-0.0001
2922.00,-0.0001
2921.00,-0.0001
2920.00,-0.0001
2919.00,-0.0000
2918.00,-0.0000
2917.00,-0.0000
2916.00,-0.0001
2915.00,-0.0001
2914.00,-0.0001
2913.00,-0.0000
2912.00,-0.0000
2911.00,-0.0000
2910.00,-0.0000
2909.00,-0.0000
2908.00,-0.0000
2907.00,-0.0000
2906.00,-0.0000
2905.00,-0.0000
2904.00,-0.0000
2903.00,-0.0000
2902.00,-0.0000
2901.00,-0.0000
2900.00,-0.0000
2899.00,-0.0000
2898.00,-0.0000
2897.00,-0.0000
2896.00,-0.0000
2895.00,-0.0000
2894.00,-0.0000
2893.00,-0.0000
2892.00,-0.0000
2891.00,-0.0000
2890.00,-0.0000
2889.00,-0.0000
2888.00,-0.0000
2887.00,-0.0000
2886.00,-0.0000
2885.00,-0.0000
2884.00,-0.0000
2883.00,-0.0000
2882.00,-0.0000
2881.00,-0.0000
2880.00,-0.0000
2879.00,-0.0000
2878.00,-0.0000
2877.00,-0.0000
2876.00,-0.0000
2875.00,-0.0000
2874.00,-0.0000
2873.00,-0.0000
2872.00,-0.0000
2871.00,-0.0000
2870.00,-0.0000
2869.00,-0.0000
2868.00,-0.0000
2867.00,-0.0000
2866.00,-0.0000
2865.00,-0.0000
2864.00,-0.0000
2863.00,-0.0000
2862.00,-0.0000
2861.00,-0.0000
2860.00,-0.0000
2859.00,-0.0000
2858.00,-0.0000
2857.00,-0.0001
2856.00,-0.0001
2855.00,-0.0001
2854.00,-0.0001
2853.00,-0.0001
2852.00,-0.0000
2851.00,-0.0000
2850.00,-0.0001
2849.00,-0.0001
2848.00,-0.0001
2847.00,-0.0001
2846.00,-0.0001
2845.00,-0.0001
2844.00,-0.0001
2843.00,-0.0001
2842.00,-0.0000
2841.00,-0.0000
2840.00,-0.0000
2839.00,-0.0000
2838.00,-0.0000
2837.00,-0.0000
2836.00,-0.0000
2835.00,-0.0000
2834.00,-0.0000
2833.00,-0.0000
2832.00,-0.0000
2831.00,-0.0000
2830.00,-0.0000
2829.00,-0.0000
2828.00,-0.0000
2827.00,-0.0000
2826.00,-0.0000
2825.00,-0.0000
2824.00,-0.0000
2823.00,-0.0000
2822.00,-0.0000
2821.00,-0.0000
2820.00,-0.0000
2819.00,-0.0000
2818.00,-0.0000
2817.00,-0.0000
2816.00,-0.0000
2815.00,-0.0000
2814.00,-0.0000
2813.00,-0.0000
2812.00,-0.0000
2811.00,-0.0000
2810.00,-0.0000
2809.00,-0.0000
2808.00,-0.0000
2807.00,-0.0000
2806.00,-0.0000
2805.00,-0.0000
2804.00,-0.0000
2803.00,-0.0000
2802.00,-0.0000
2801.00,-0.0000
2800.00,-0.0000
2799.00,-0.0000
2798.00,-0.0000
2797.00,-0.0000
2796.00,-0.0000
2795.00,-0.0000
2794.00,-0.0000
2793.00,-0.0000
2792.00,-0.0000
2791.00,-0.0000
2790.00,-0.0000
2789.00,-0.0000
2788.00,-0.0000
2787.00,-0.0000
2786.00,-0.0000
2785.00,-0.0000
2784.00,-0.0000
2783.00,-0.0000
2782.00,-0.0000
2781.00,-0.0000
2780.00,-0.0000
2779.00,-0.0000
2778.00,-0.0000
2777.00,-0.0000
2776.00,-0.0000
2775.00,-0.0000
2774.00,-0.0000
2773.00,-0.0000
2772.00,-0.0000
2771.00,-0.0000
2770.00,-0.0000
2769.00,-0.0000
2768.00,-0.0000
2767.00,-0.0000
2766.00,-0.0000
2765.00,-0.0000
2764.00,-0.0000
2763.00,-0.0000
2762.00,-0.0000
2761.00,-0.0000
2760.00,-0.0000
2759.00,-0.0000
2758.00,-0.0000
2757.00,-0.0000
2756.00,-0.0000
2755.00,-0.0000
2754.00,-0.0000
2753.00,-0.0000
2752.00,-0.0000
2751.00,-0.0000
2750.00,-0.0000
2749.00,-0.0000
2748.00,-0.0000
2747.00,-0.0000
2746.00,-0.0000
2745.00,-0.0000
2744.00,-0.0000
2743.00,-0.0000
2742.00,-0.0000
2741.00,-0.0000
2740.00,-0.0000
2739.00,-0.0000
2738.00,-0.0000
2737.00,-0.0000
2736.00,-0.0000
2735.00,-0.0000
2734.00,-0.0000
2733.00,-0.0000
2732.00,-0.0000
2731.00,-0.0000
2730.00,-0.0000
2729.00,-0.0000
2728.00,-0.0000
2727.00,-0.0000
2726.00,-0.0000
2725.00,-0.0000
2724.00,-0.0000
2723.00,-0.0000
2722.00,-0.0000
2721.00,-0.0000
2720.00,-0.0000
2719.00,-0.0000
2718.00,-0.0000
2717.00,-0.0000
2716.00,-0.0000
2715.00,-0.0000
2714.00,-0.0000
2713.00,-0.0000
2712.00,-0.0000
2711.00,-0.0000
2710.00,-0.0000
2709.00,-0.0000
2708.00,-0.0000
2707.00,-0.0000
2706.00,-0.0000
2705.00,-0.0000
2704.00,-0.0000
2703.00,-0.0000
2702.00,-0.0000
2701.00,-0.0000
2700.00,-0.0000
2699.00,-0.0000
2698.00,-0.0000
2697.00,-0.0000
2696.00,-0.0000
2695.00,-0.0000
2694.00,-0.0000
2693.00,-0.0000
2692.00,-0.0000
2691.00,-0.0000
2690.00,-0.0000
2689.00,-0.0000
2688.00,-0.0000
2687.00,-0.0000
2686.00,-0.0000
2685.00,-0.0000
2684.00,-0.0000
2683.00,-0.0000
2682.00,-0.0000
2681.00,-0.0000
2680.00,-0.0000
2679.00,-0.0000
2678.00,-0.0000
2677.00,-0.0000
2676.00,-0.0000
2675.00,-0.0000
2674.00,-0.0000
2673.00,-0.0000
2672.00,-0.0000
2671.00,-0.0000
2670.00,-0.0000
2669.00,-0.0000
2668.00,-0.0000
2667.00,-0.0000
2666.00,-0.0000
2665.00,-0.0000
2664.00,-0.0000
2663.00,-0.0000
2662.00,-0.0000
2661.00,-0.0000
2660.00,-0.0000
2659.00,-0.0000
2658.00,-0.0000
2657.00,-0.0000
2656.00,-0.0000
2655.00,-0.0000
2654.00,-0.0000
2653.00,-0.0000
2652.00,-0.0000
2651.00,-0.0000
2650.00,-0.0000
2649.00,-0.0000
2648.00,-0.0000
2647.00,-0.0000
2646.00,-0.0000
2645.00,-0.0000
2644.00,-0.0000
2643.00,-0.0000
2642.00,-0.0000
2641.00,-0.0000
2640.00,-0.0000
2639.00,-0.0000
2638.00,-0.0000
2637.00,-0.0000
2636.00,-0.0000
2635.00,-0.0000
2634.00,-0.0000
2633.00,-0.0000
2632.00,-0.0000
2631.00,-0.0000
2630.00,-0.0000
2629.00,-0.0000
2628.00,-0.0000
2627.00,-0.0000
2626.00,-0.0000
2625.00,-0.0000
2624.00,-0.0000
2623.00,-0.0000
2622.00,-0.0000
2621.00,-0.0000
2620.00,-0.0000
2619.00,-0.0000
2618.00,-0.0000
2617.00,-0.0000
2616.00,-0.0000
2615.00,0.0000
2614.00,0.0000
2613.00,0.0000
2612.00,0.0000
2611.00,-0.0000
2610.00,-0.0000
2609.00,-0.0000
2608.00,-0.0000
2607.00,-0.0000
2606.00,-0.0000
2605.00,-0.0000
2604.00,-0.0000
2603.00,-0.0000
2602.00,-0.0000
2601.00,-0.0000
2600.00,-0.0000
2599.00,-0.0000
2598.00,-0.0000
2597.00,-0.0000
2596.00,-0.0000
2595.00,-0.0000
2594.00,-0.0000
2593.00,-0.0000
2592.00,-0.0000
2591.00,-0.0000
2590.00,-0.0000
2589.00,-0.0000
2588.00,-0.0000
2587.00,-0.0000
2586.00,-0.0000
2585.00,-0.0000
2584.00,-0.0000
2583.00,-0.0000
2582.00,-0.0000
2581.00,-0.0000
2580.00,-0.0000
2579.00,-0.0000
2578.00,-0.0000
2577.00,-0.0000
2576.00,-0.0000
2575.00,-0.0000
2574.00,-0.0000
2573.00,-0.0000
2572.00,-0.0000
2571.00,-0.0000
2570.00,-0.0000
2569.00,-0.0000
2568.00,-0.0000
2567.00,-0.0000
2566.00,-0.0000
2565.00,-0.0000
2564.00,-0.0000
2563.00,-0.0000
2562.00,-0.0000
2561.00,-0.0000
2560.00,-0.0000
2559.00,-0.0000
2558.00,-0.0000
2557.00,0.0000
2556.00,0.0000
2555.00,-0.0000
2554.00,-0.0000
2553.00,-0.0000
2552.00,-0.0000
2551.00,-0.0000
2550.00,-0.0000
2549.00,-0.0000
2548.00,-0.0000
2547.00,-0.0000
2546.00,-0.0000
2545.00,-0.0000
2544.00,-0.0000
2543.00,-0.0000
2542.00,-0.0000
2541.00,-0.0000
2540.00,-0.0000
2539.00,-0.0000
2538.00,-0.0000
2537.00,-0.0000
2536.00,-0.0000
2535.00,-0.0000
2534.00,-0.0000
2533.00,-0.0000
2532.00,-0.0000
2531.00,-0.0000
2530.00,-0.0000
2529.00,-0.0000
2528.00,-0.0000
2527.00,-0.0000
2526.00,-0.0000
2525.00,-0.0000
2524.00,-0.0000
2523.00,-0.0000
2522.00,-0.0000
2521.00,-0.0000
2520.00,-0.0000
2519.00,-0.0000
2518.00,-0.0000
2517.00,-0.0000
2516.00,-0.0000
2515.00,-0.0000
2514.00,-0.0000
2513.00,-0.0000
2512.00,-0.0000
2511.00,-0.0000
2510.00,-0.0000
2509.00,-0.0000
2508.00,-0.0000
2507.00,-0.0000
2506.00,-0.0000
2505.00,-0.0000
2504.00,-0.0000
2503.00,-0.0000
2502.00,-0.0000
2501.00,-0.0000
2500.00,-0.0000
2499.00,-0.0000
2498.00,-0.0000
2497.00,-0.0000
2496.00,-0.0000
2495.00,-0.0000
2494.00,-0.0000
2493.00,-0.0000
2492.00,-0.0000
2491.00,-0.0000
2490.00,-0.0000
2489.00,-0.0000
2488.00,-0.0000
2487.00,-0.0000
2486.00,-0.0000
2485.00,-0.0000
2484.00,-0.0000
2483.00,-0.0000
2482.00,-0.0000
2481.00,-0.0000
2480.00,-0.0000
2479.00,-0.0000
2478.00,-0.0000
2477.00,-0.0000
2476.00,-0.0000
2475.00,-0.0000
2474.00,-0.0000
2473.00,-0.0000
2472.00,-0.0000
2471.00,-0.0000
2470.00,-0.0000
2469.00,-0.0000
2468.00,-0.0000
2467.00,-0.0000
2466.00,-0.0000
2465.00,-0.0000
2464.00,-0.0000
2463.00,-0.0000
2462.00,-0.0000
2461.00,-0.0000
2460.00,-0.0000
2459.00,-0.0000
2458.00,-0.0000
2457.00,-0.0000
2456.00,-0.0000
2455.00,-0.0000
2454.00,-0.0000
2453.00,-0.0000
2452.00,-0.0000
2451.00,0.0000
2450.00,0.0000
2449.00,0.0000
2448.00,-0.0000
2447.00,-0.0000
2446.00,-0.0000
2445.00,-0.0000
2444.00,-0.0000
2443.00,-0.0000
2442.00,-0.0000
2441.00,0.0000
2440.00,0.0000
2439.00,0.0000
2438.00,-0.0000
2437.00,-0.0000
2436.00,-0.0000
2435.00,-0.0000
2434.00,-0.0000
2433.00,-0.0000
2432.00,-0.0000
2431.00,-0.0000
2430.00,-0.0000
2429.00,-0.0000
2428.00,-0.0000
2427.00,-0.0000
2426.00,-0.0000
2425.00,-0.0000
2424.00,0.0000
2423.00,0.0000
2422.00,-0.0000
2421.00,-0.0000
2420.00,-0.0000
2419.00,-0.0000
2418.00,-0.0000
2417.00,-0.0000
2416.00,-0.0000
2415.00,-0.0000
2414.00,-0.0000
2413.00,-0.0000
2412.00,-0.0000
2411.00,-0.0000
2410.00,-0.0000
2409.00,-0.0000
2408.00,-0.0000
2407.00,-0.0000
2406.00,-0.0000
2405.00,-0.0000
2404.00,-0.0000
2403.00,-0.0000
2402.00,0.0000
2401.00,-0.0000
2400.00,-0.0000
2399.00,-0.0000
2398.00,-0.0000
2397.00,-0.0000
2396.00,-0.0000
2395.00,-0.0000
2394.00,-0.0000
2393.00,-0.0000
2392.00,-0.0000
2391.00,-0.0000
2390.00,-0.0000
2389.00,-0.0000
2388.00,0.0000
2387.00,0.0000
2386.00,0.0000
2385.00,0.0000
2384.00,0.0000
2383.00,0.0000
2382.00,0.0000
2381.00,0.0000
2380.00,0.0000
2379.00,0.0000
2378.00,0.0000
2377.00,0.0000
2376.00,0.0000
2375.00,0.0000
2374.00,0.0000
2373.00,0.0000
2372.00,0.0000
2371.00,0.0000
2370.00,0.0000
2369.00,0.0000
2368.00,-0.0000
2367.00,0.0000
2366.00,0.0000
2365.00,0.0000
2364.00,0.0000
2363.00,0.0000
2362.00,0.0000
2361.00,0.0000
2360.00,0.0000
2359.00,0.0000
2358.00,0.0000
2357.00,0.0000
2356.00,0.0000
2355.00,0.0000
2354.00,0.0000
2353.00,0.0000
2352.00,0.0000
2351.00,0.0000
2350.00,0.0000
2349.00,0.0000
2348.00,0.0001
2347.00,0.0001
2346.00,0.0001
2345.00,0.0000
2344.00,0.0000
2343.00,0.0000
2342.00,0.0000
2341.00,0.0000
2340.00,0.0000
2339.00,0.0000
2338.00,0.0000
2337.00,0.0000
2336.00,0.0000
2335.00,0.0001
2334.00,0.0001
2333.00,0.0001
2332.00,0.0000
2331.00,0.0000
2330.00,0.0000
2329.00,0.0000
2328.00,0.0000
2327.00,0.0001
2326.00,0.0001
2325.00,0.0001
2324.00,0.0001
2323.00,0.0001
2322.00,0.0000
2321.00,0.0000
2320.00,0.0000
2319.00,0.0000
2318.00,0.0000
2317.00,0.0000
2316.00,0.0001
2315.00,0.0001
2314.00,0.0000
2313.00,0.0000
2312.00,0.0000
2311.00,0.0000
2310.00,0.0000
2309.00,0.0000
2308.00,0.0000
2307.00,0.0000
2306.00,0.0000
2305.00,0.0000
2304.00,0.0000
2303.00,0.0000
2302.00,0.0000
2301.00,0.0000
2300.00,0.0000
2299.00,0.0000
2298.00,0.0000
2297.00,0.0000
2296.00,0.0000
2295.00,0.0000
2294.00,0.0000
2293.00,0.0000
2292.00,0.0000
2291.00,-0.0000
2290.00,-0.0000
2289.00,-0.0000
2288.00,-0.0000
2287.00,0.0000
2286.00,0.0000
2285.00,0.0000
2284.00,0.0000
2283.00,0.0000
2282.00,0.0000
2281.00,0.0000
2280.00,0.0000
2279.00,0.0000
2278.00,0.0000
2277.00,0.0000
2276.00,0.0000
2275.00,-0.0000
2274.00,-0.0000
2273.00,0.0000
2272.00,0.0000
2271.00,0.0000
2270.00,0.0000
2269.00,0.0000
2268.00,0.0000
2267.00,0.0000
2266.00,0.0000
2265.00,0.0000
2264.00,0.0000
2263.00,0.0000
2262.00,0.0000
2261.00,0.0000
2260.00,0.0000
2259.00,0.0000
2258.00,0.0000
2257.00,0.0000
2256.00,0.0000
2255.00,0.0000
2254.00,0.0000
2253.00,0.0000
2252.00,0.0000
2251.00,0.0000
2250.00,0.0000
2249.00,0.0000
2248.00,0.0000
2247.00,0.0000
2246.00,0.0000
2245.00,0.0000
2244.00,0.0000
2243.00,0.0000
2242.00,0.0000
2241.00,0.0000
2240.00,0.0000
2239.00,0.0000
2238.00,0.0000
2237.00,0.0000
2236.00,0.0000
2235.00,0.0000
2234.00,0.0000
2233.00,0.0000
2232.00,0.0000
2231.00,0.0000
2230.00,0.0000
2229.00,0.0000
2228.00,0.0000
2227.00,0.0000
2226.00,0.0000
2225.00,0.0000
2224.00,0.0000
2223.00,0.0000
2222.00,0.0000
2221.00,0.0000
2220.00,0.0000
2219.00,0.0000
2218.00,0.0000
2217.00,0.0000
2216.00,0.0000
2215.00,0.0000
2214.00,0.0000
2213.00,0.0000
2212.00,0.0000
2211.00,0.0000
2210.00,0.0000
2209.00,0.0000
2208.00,0.0000
2207.00,0.0000
2206.00,0.0000
2205.00,0.0000
2204.00,0.0000
2203.00,0.0000
2202.00,0.0000
2201.00,0.0000
2200.00,-0.0000
2199.00,-0.0000
2198.00,-0.0000
2197.00,0.0000
2196.00,0.0000
2195.00,0.0000
2194.00,-0.0000
2193.00,-0.0000
2192.00,0.0000
2191.00,0.0000
2190.00,0.0000
2189.00,0.0000
2188.00,0.0000
2187.00,0.0000
2186.00,0.0000
2185.00,0.0000
2184.00,0.0000
2183.00,0.0000
2182.00,0.0000
2181.00,0.0000
2180.00,0.0000
2179.00,0.0000
2178.00,0.0000
2177.00,0.0000
2176.00,0.0000
2175.00,0.0000
2174.00,0.0000
2173.00,0.0000
2172.00,0.0000
2171.00,0.0000
2170.00,0.0000
2169.00,0.0000
2168.00,0.0000
2167.00,0.0000
2166.00,0.0000
2165.00,0.0000
2164.00,0.0000
2163.00,-0.0000
2162.00,0.0000
2161.00,0.0000
2160.00,0.0000
2159.00,0.0000
2158.00,0.0000
2157.00,0.0000
2156.00,0.0000
2155.00,0.0000
2154.00,0.0000
2153.00,0.0000
2152.00,0.0000
2151.00,0.0000
2150.00,0.0000
2149.00,0.0000
2148.00,0.0000
2147.00,0.0000
2146.00,0.0000
2145.00,0.0000
2144.00,0.0000
2143.00,0.0000
2142.00,0.0000
2141.00,0.0000
2140.00,0.0000
2139.00,0.0000
2138.00,0.0000
2137.00,0.0000
2136.00,0.0000
2135.00,0.0000
2134.00,0.0000
2133.00,0.0000
2132.00,0.0000
2131.00,0.0000
2130.00,0.0000
2129.00,0.0000
2128.00,0.0000
2127.00,0.0000
2126.00,0.0000
2125.00,0.0000
2124.00,0.0000
2123.00,0.0000
2122.00,0.0000
2121.00,0.0000
2120.00,0.0000
2119.00,0.0000
2118.00,0.0000
2117.00,0.0000
2116.00,0.0000
2115.00,0.0000
2114.00,0.0000
2113.00,0.0000
2112.00,0.0000
2111.00,0.0000
2110.00,0.0000
2109.00,-0.0000
2108.00,-0.0000
2107.00,0.0000
2106.00,0.0000
2105.00,0.0000
2104.00,0.0000
2103.00,0.0000
2102.00,0.0000
2101.00,0.0000
2100.00,0.0000
2099.00,0.0000
2098.00,0.0000
2097.00,0.0000
2096.00,0.0000
2095.00,0.0000
2094.00,0.0000
2093.00,0.0000
2092.00,0.0000
2091.00,0.0000
2090.00,0.0000
2089.00,0.0000
2088.00,0.0000
2087.00,0.0000
2086.00,0.0000
2085.00,0.0000
2084.00,0.0000
2083.00,0.0000
2082.00,0.0000
2081.00,0.0000
2080.00,0.0000
2079.00,0.0000
2078.00,0.0000
2077.00,0.0000
2076.00,0.0000
2075.00,0.0000
2074.00,0.0000
2073.00,0.0000
2072.00,0.0000
2071.00,0.0000
2070.00,0.0000
2069.00,0.0000
2068.00,0.0000
2067.00,0.0000
2066.00,0.0000
2065.00,0.0000
2064.00,0.0000
2063.00,0.0000
2062.00,0.0000
2061.00,0.0000
2060.00,0.0000
2059.00,0.0000
2058.00,0.0000
2057.00,0.0000
2056.00,0.0000
2055.00,0.0000
2054.00,0.0000
2053.00,0.0000
2052.00,0.0000
2051.00,0.0000
2050.00,0.0000
2049.00,0.0000
2048.00,0.0000
2047.00,0.0000
2046.00,0.0000
2045.00,0.0000
2044.00,0.0000
2043.00,0.0000
2042.00,0.0000
2041.00,0.0000
2040.00,0.0000
2039.00,0.0000
2038.00,0.0000
2037.00,0.0000
2036.00,0.0000
2035.00,0.0000
2034.00,0.0000
2033.00,0.0000
2032.00,0.0000
2031.00,0.0000
2030.00,0.0000
2029.00,0.0000
2028.00,0.0000
2027.00,0.0000
2026.00,0.0000
2025.00,0.0000
2024.00,0.0000
2023.00,0.0000
2022.00,0.0000
2021.00,0.0000
2020.00,0.0000
2019.00,0.0000
2018.00,0.0000
2017.00,0.0000
2016.00,0.0000
2015.00,0.0000
2014.00,0.0000
2013.00,0.0000
2012.00,0.0000
2011.00,0.0000
2010.00,0.0000
2009.00,0.0000
2008.00,0.0000
2007.00,0.0000
2006.00,0.0000
2005.00,0.0000
2004.00,0.0000
2003.00,0.0000
2002.00,0.0000
2001.00,0.0000
2000.00,0.0000
1999.00,0.0000
1998.00,0.0000
1997.00,0.0000
1996.00,0.0000
1995.00,0.0000
1994.00,0.0000
1993.00,0.0000
1992.00,0.0000
1991.00,0.0000
1990.00,0.0000
1989.00,0.0000
1988.00,0.0000
1987.00,0.0000
1986.00,0.0000
1985.00,0.0000
1984.00,0.0000
1983.00,0.0000
1982.00,0.0000
1981.00,0.0000
1980.00,0.0000
1979.00,0.0000
1978.00,0.0000
1977.00,0.0000
1976.00,0.0000
1975.00,0.0000
1974.00,0.0000
1973.00,0.0000
1972.00,0.0000
1971.00,0.0000
1970.00,0.0000
1969.00,0.0000
1968.00,0.0000
1967.00,0.0000
1966.00,0.0000
1965.00,0.0000
1964.00,0.0000
1963.00,0.0000
1962.00,0.0000
1961.00,0.0000
1960.00,0.0000
1959.00,0.0000
1958.00,0.0000
1957.00,0.0000
1956.00,0.0000
1955.00,0.0000
1954.00,0.0000
1953.00,0.0000
1952.00,0.0000
1951.00,0.0000
1950.00,0.0000
1949.00,0.0000
1948.00,0.0000
1947.00,0.0000
1946.00,0.0000
1945.00,0.0000
1944.00,0.0000
1943.00,0.0000
1942.00,0.0000
1941.00,0.0000
1940.00,0.0000
1939.00,0.0000
1938.00,0.0000
1937.00,0.0000
1936.00,0.0000
1935.00,0.0000
1934.00,0.0000
1933.00,0.0000
1932.00,0.0000
1931.00,0.0000
1930.00,0.0000
1929.00,0.0000
1928.00,0.0000
1927.00,0.0000
1926.00,0.0000
1925.00,0.0000
1924.00,0.0000
1923.00,0.0000
1922.00,0.0000
1921.00,0.0000
1920.00,0.0000
1919.00,0.0000
1918.00,0.0000
1917.00,0.0000
1916.00,0.0000
1915.00,0.0000
1914.00,0.0000
1913.00,0.0000
1912.00,0.0000
1911.00,0.0000
1910.00,0.0000
1909.00,0.0000
1908.00,0.0000
1907.00,0.0000
1906.00,0.0000
1905.00,0.0000
1904.00,0.0001
1903.00,0.0001
1902.00,0.0000
1901.00,0.0000
1900.00,0.0000
1899.00,0.0000
1898.00,0.0000
1897.00,0.0000
1896.00,0.0000
1895.00,0.0000
1894.00,0.0000
1893.00,0.0000
1892.00,0.0000
1891.00,0.0000
1890.00,0.0000
1889.00,0.0000
1888.00,0.0000
1887.00,0.0000
1886.00,0.0000
1885.00,0.0000
1884.00,0.0000
1883.00,0.0000
1882.00,0.0000
1881.00,0.0000
1880.00,0.0000
1879.00,0.0000
1878.00,0.0000
1877.00,0.0000
1876.00,0.0000
1875.00,0.0000
1874.00,0.0000
1873.00,0.0000
1872.00,0.0000
1871.00,0.0000
1870.00,0.0000
1869.00,0.0001
1868.00,0.0001
1867.00,0.0001
1866.00,0.0000
1865.00,0.0000
1864.00,0.0000
1863.00,0.0000
1862.00,0.0000
1861.00,0.0000
1860.00,0.0000
1859.00,0.0000
1858.00,0.0000
1857.00,0.0000
1856.00,0.0000
1855.00,0.0000
1854.00,0.0000
1853.00,0.0000
1852.00,0.0000
1851.00,0.0000
1850.00,0.0000
1849.00,0.0000
1848.00,0.0000
1847.00,0.0000
1846.00,0.0000
1845.00,0.0000
1844.00,0.0000
1843.00,0.0000
1842.00,0.0000
1841.00,0.0000
1840.00,0.0000
1839.00,0.0000
1838.00,0.0000
1837.00,0.0000
1836.00,0.0000
1835.00,0.0000
1834.00,0.0000
1833.00,0.0000
1832.00,0.0000
1831.00,0.0000
1830.00,0.0000
1829.00,0.0000
1828.00,0.0000
1827.00,0.0000
1826.00,0.0000
1825.00,0.0000
1824.00,0.0000
1823.00,0.0000
1822.00,0.0000
1821.00,0.0000
1820.00,0.0000
1819.00,0.0000
1818.00,0.0000
1817.00,0.0000
1816.00,0.0000
1815.00,0.0000
1814.00,0.0000
1813.00,0.0000
1812.00,0.0000
1811.00,0.0000
1810.00,0.0000
1809.00,0.0000
1808.00,0.0000
1807.00,0.0000
1806.00,0.0000
1805.00,0.0000
1804.00,0.0000
1803.00,0.0000
1802.00,0.0000
1801.00,0.0000
1800.00,0.0000
1799.00,0.0000
1798.00,0.0000
1797.00,0.0000
1796.00,0.0000
1795.00,0.0000
1794.00,0.0000
1793.00,0.0000
1792.00,0.0000
1791.00,0.0000
1790.00,0.0000
1789.00,0.0000
1788.00,0.0000
1787.00,0.0000
1786.00,0.0000
1785.00,0.0000
1784.00,0.0000
1783.00,0.0001
1782.00,0.0000
1781.00,0.0000
1780.00,0.0000
1779.00,0.0000
1778.00,0.0000
1777.00,0.0000
1776.00,0.0000
1775.00,0.0000
1774.00,0.0001
1773.00,0.0001
1772.00,0.0001
1771.00,0.0000
1770.00,0.0000
1769.00,0.0000
1768.00,0.0000
1767.00,0.0000
1766.00,0.0000
1765.00,0.0001
1764.00,0.0001
1763.00,0.0000
1762.00,0.0000
1761.00,0.0000
1760.00,0.0000
1759.00,0.0000
1758.00,0.0000
1757.00,0.0000
1756.00,0.0000
1755.00,0.0000
1754.00,0.0001
1753.00,0.0001
1752.00,0.0001
1751.00,0.0001
1750.00,0.0001
1749.00,0.0000
1748.00,0.0000
1747.00,0.0000
1746.00,0.0000
1745.00,0.0000
1744.00,0.0000
1743.00,0.0000
1742.00,0.0000
1741.00,0.0000
1740.00,0.0000
1739.00,0.0000
1738.00,0.0000
1737.00,0.0000
1736.00,0.0000
1735.00,0.0000
1734.00,0.0001
1733.00,0.0001
1732.00,0.0001
1731.00,0.0001
1730.00,0.0001
1729.00,0.0000
1728.00,0.0000
1727.00,0.0000
1726.00,0.0000
1725.00,0.0000
1724.00,0.0000
1723.00,0.0000
1722.00,0.0000
1721.00,0.0000
1720.00,0.0000
1719.00,0.0000
1718.00,0.0000
1717.00,0.0000
1716.00,0.0000
1715.00,0.0000
1714.00,0.0000
1713.00,0.0000
1712.00,0.0000
1711.00,0.0000
1710.00,0.0000
1709.00,0.0000
1708.00,0.0000
1707.00,0.0000
1706.00,0.0000
1705.00,0.0000
1704.00,0.0000
1703.00,0.0000
1702.00,0.0000
1701.00,0.0000
1700.00,0.0000
1699.00,0.0000
1698.00,0.0000
1697.00,0.0001
1696.00,0.0000
1695.00,0.0000
1694.00,0.0000
1693.00,0.0000
1692.00,0.0000
1691.00,0.0000
1690.00,0.0000
1689.00,0.0000
1688.00,0.0000
1687.00,0.0000
1686.00,0.0001
1685.00,0.0001
1684.00,0.0000
1683.00,0.0000
1682.00,0.0000
1681.00,0.0000
1680.00,0.0000
1679.00,0.0000
1678.00,0.0000
1677.00,0.0000
1676.00,0.0000
1675.00,0.0000
1674.00,0.0000
1673.00,0.0000
1672.00,0.0000
1671.00,0.0000
1670.00,0.0000
1669.00,0.0000
1668.00,0.0000
1667.00,0.0000
1666.00,0.0000
1665.00,0.0000
1664.00,0.0000
1663.00,0.0000
1662.00,0.0000
1661.00,0.0000
1660.00,0.0000
1659.00,0.0001
1658.00,0.0000
1657.00,0.0000
1656.00,0.0000
1655.00,0.0000
1654.00,0.0000
1653.00,0.0000
1652.00,0.0000
1651.00,0.0000
1650.00,0.0000
1649.00,0.0000
1648.00,0.0000
1647.00,0.0000
1646.00,0.0000
1645.00,0.0000
1644.00,0.0000
1643.00,0.0000
1642.00,0.0000
1641.00,0.0000
1640.00,0.0000
1639.00,0.0000
1638.00,0.0000
1637.00,0.0000
1636.00,0.0000
1635.00,0.0000
1634.00,0.0000
1633.00,0.0000
1632.00,0.0000
1631.00,0.0000
1630.00,0.0000
1629.00,0.0000
1628.00,0.0000
1627.00,0.0000
1626.00,0.0000
1625.00,0.0000
1624.00,0.0000
1623.00,0.0000
1622.00,0.0000
1621.00,0.0000
1620.00,0.0000
1619.00,0.0000
1618.00,0.0000
1617.00,0.0000
1616.00,0.0000
1615.00,0.0000
1614.00,0.0000
1613.00,0.0000
1612.00,0.0000
1611.00,0.0000
1610.00,0.0000
1609.00,0.0000
1608.00,0.0000
1607.00,0.0000
1606.00,0.0000
1605.00,0.0000
1604.00,0.0000
1603.00,0.0000
1602.00,0.0000
1601.00,0.0000
1600.00,0.0000
1599.00,0.0000
1598.00,0.0000
1597.00,0.0000
1596.00,0.0000
1595.00,0.0000
1594.00,0.0000
1593.00,0.0000
1592.00,0.0000
1591.00,0.0000
1590.00,0.0000
1589.00,0.0000
1588.00,0.0000
1587.00,0.0000
1586.00,0.0000
1585.00,0.0000
1584.00,0.0000
1583.00,0.0000
1582.00,0.0000
1581.00,0.0000
1580.00,0.0000
1579.00,0.0000
1578.00,0.0000
1577.00,0.0000
1576.00,0.0000
1575.00,0.0000
1574.00,0.0000
1573.00,0.0000
1572.00,0.0000
1571.00,0.0001
1570.00,0.0000
1569.00,0.0000
1568.00,0.0000
1567.00,0.0000
1566.00,0.0000
1565.00,0.0000
1564.00,0.0000
1563.00,0.0000
1562.00,0.0000
1561.00,0.0000
1560.00,0.0000
1559.00,0.0001
1558.00,0.0001
1557.00,0.0001
1556.00,0.0001
1555.00,0.0001
1554.00,0.0001
1553.00,0.0001
1552.00,0.0001
1551.00,0.0001
1550.00,0.0001
1549.00,0.0001
1548.00,0.0001
1547.00,0.0001
1546.00,0.0001
1545.00,0.0001
1544.00,0.0001
1543.00,0.0001
1542.00,0.0001
1541.00,0.0001
1540.00,0.0001
1539.00,0.0001
1538.00,0.0000
1537.00,0.0001
1536.00,0.0001
1535.00,0.0001
1534.00,0.0001
1533.00,0.0001
1532.00,0.0001
1531.00,0.0001
1530.00,0.0000
1529.00,0.0000
1528.00,0.0000
1527.00,0.0000
1526.00,0.0000
1525.00,0.0000
1524.00,0.0001
1523.00,0.0001
1522.00,0.0001
1521.00,0.0001
1520.00,0.0001
1519.00,0.0000
1518.00,0.0001
1517.00,0.0001
1516.00,0.0001
1515.00,0.0001
1514.00,0.0001
1513.00,0.0001
1512.00,0.0001
1511.00,0.0001
1510.00,0.0001
1509.00,0.0001
1508.00,0.0000
1507.00,0.0000
1506.00,0.0000
1505.00,0.0000
1504.00,0.0000
1503.00,0.0000
1502.00,0.0000
1501.00,0.0000
1500.00,0.0000
1499.00,0.0000
1498.00,0.0000
1497.00,0.0000
1496.00,0.0000
1495.00,0.0000
1494.00,0.0000
1493.00,0.0000
1492.00,0.0000
1491.00,0.0000
1490.00,0.0000
1489.00,0.0000
1488.00,0.0000
1487.00,0.0000
1486.00,0.0000
1485.00,0.0000
1484.00,0.0000
1483.00,0.0000
1482.00,0.0000
1481.00,0.0000
1480.00,0.0000
1479.00,0.0000
1478.00,0.0000
1477.00,0.0000
1476.00,0.0000
1475.00,0.0000
1474.00,0.0000
1473.00,0.0001
1472.00,0.0001
1471.00,0.0001
1470.00,0.0000
1469.00,0.0000
1468.00,0.0000
1467.00,0.0000
1466.00,0.0000
1465.00,0.0000
1464.00,0.0000
1463.00,0.0000
1462.00,0.0000
1461.00,0.0000
1460.00,0.0000
1459.00,0.0000
1458.00,0.0000
1457.00,0.0000
1456.00,0.0000
1455.00,0.0000
1454.00,0.0000
1453.00,0.0000
1452.00,0.0000
1451.00,0.0000
1450.00,0.0000
1449.00,0.0000
1448.00,0.0000
1447.00,0.0000
1446.00,0.0000
1445.00,0.0000
1444.00,0.0000
1443.00,0.0000
1442.00,0.0000
1441.00,0.0000
1440.00,0.0000
1439.00,0.0000
1438.00,0.0000
1437.00,0.0000
1436.00,0.0000
1435.00,0.0000
1434.00,0.0000
1433.00,0.0000
1432.00,0.0000
1431.00,0.0000
1430.00,0.0000
1429.00,0.0000
1428.00,0.0000
1427.00,0.0000
1426.00,0.0000
1425.00,0.0000
1424.00,0.0000
1423.00,0.0000
1422.00,0.0000
1421.00,0.0000
1420.00,0.0000
1419.00,0.0000
1418.00,0.0000
1417.00,0.0000
1416.00,0.0000
1415.00,0.0000
1414.00,0.0000
1413.00,0.0000
1412.00,0.0000
1411.00,0.0000
1410.00,0.0000
1409.00,0.0000
1408.00,0.0000
1407.00,0.0000
1406.00,0.0000
1405.00,0.0000
1404.00,0.0000
1403.00,0.0000
1402.00,0.0000
1401.00,0.0000
1400.00,0.0000
1399.00,0.0000
1398.00,0.0000
1397.00,0.0000
1396.00,0.0000
1395.00,0.0000
1394.00,0.0000
1393.00,0.0000
1392.00,0.0000
1391.00,0.0000
1390.00,0.0000
1389.00,0.0000
1388.00,0.0000
1387.00,0.0000
1386.00,0.0000
1385.00,0.0000
1384.00,0.0000
1383.00,0.0000
1382.00,0.0000
1381.00,0.0000
1380.00,0.0000
1379.00,0.0000
1378.00,0.0001
1377.00,0.0001
1376.00,0.0001
1375.00,0.0000
1374.00,0.0000
1373.00,0.0000
1372.00,0.0000
1371.00,0.0000
1370.00,0.0000
1369.00,0.0000
1368.00,0.0000
1367.00,0.0000
1366.00,0.0000
1365.00,0.0000
1364.00,0.0000
1363.00,0.0000
1362.00,0.0000
1361.00,0.0000
1360.00,0.0000
1359.00,0.0000
1358.00,0.0000
1357.00,0.0000
1356.00,0.0000
1355.00,0.0000
1354.00,0.0000
1353.00,0.0000
1352.00,0.0000
1351.00,0.0000
1350.00,0.0000
1349.00,0.0000
1348.00,0.0000
1347.00,0.0000
1346.00,0.0000
1345.00,0.0000
1344.00,0.0000
1343.00,0.0000
1342.00,0.0000
1341.00,0.0000
1340.00,0.0000
1339.00,0.0000
1338.00,0.0000
1337.00,0.0000
1336.00,0.0000
1335.00,0.0000
1334.00,0.0000
1333.00,0.0000
1332.00,0.0000
1331.00,0.0000
1330.00,0.0000
1329.00,0.0000
1328.00,0.0000
1327.00,0.0000
1326.00,0.0000
1325.00,0.0000
1324.00,0.0000
1323.00,0.0000
1322.00,0.0000
1321.00,0.0000
1320.00,0.0000
1319.00,0.0000
1318.00,0.0000
1317.00,0.0000
1316.00,0.0000
1315.00,0.0000
1314.00,0.0000
1313.00,0.0000
1312.00,0.0000
1311.00,0.0000
1310.00,0.0000
1309.00,0.0000
1308.00,0.0000
1307.00,0.0000
1306.00,0.0000
1305.00,0.0000
1304.00,0.0000
1303.00,0.0000
1302.00,0.0000
1301.00,0.0000
1300.00,0.0000
1299.00,0.0000
1298.00,0.0000
1297.00,0.0000
1296.00,0.0000
1295.00,0.0000
1294.00,0.0000
1293.00,0.0000
1292.00,0.0000
1291.00,0.0000
1290.00,0.0000
1289.00,0.0000
1288.00,0.0000
1287.00,0.0000
1286.00,0.0000
1285.00,0.0000
1284.00,0.0000
1283.00,0.0000
1282.00,0.0000
1281.00,0.0000
1280.00,0.0000
1279.00,0.0000
1278.00,0.0000
1277.00,0.0000
1276.00,0.0000
1275.00,0.0000
1274.00,0.0000
1273.00,0.0000
1272.00,0.0000
1271.00,0.0000
1270.00,0.0000
1269.00,0.0000
1268.00,0.0000
1267.00,0.0000
1266.00,0.0000
1265.00,0.0000
1264.00,0.0000
1263.00,0.0000
1262.00,0.0000
1261.00,0.0000
1260.00,0.0000
1259.00,0.0000
1258.00,0.0000
1257.00,0.0000
1256.00,0.0000
1255.00,-0.0000
1254.00,-0.0000
1253.00,-0.0000
1252.00,0.0000
1251.00,0.0000
1250.00,0.0000
1249.00,-0.0000
1248.00,-0.0000
1247.00,-0.0000
1246.00,0.0000
1245.00,0.0000
1244.00,0.0000
1243.00,0.0000
1242.00,0.0000
1241.00,0.0000
1240.00,0.0000
1239.00,0.0000
1238.00,0.0000
1237.00,0.0000
1236.00,0.0000
1235.00,0.0000
1234.00,0.0000
1233.00,0.0000
1232.00,0.0000
1231.00,0.0000
1230.00,0.0000
1229.00,0.0000
1228.00,0.0000
1227.00,0.0000
1226.00,0.0000
1225.00,0.0000
1224.00,0.0000
1223.00,0.0000
1222.00,0.0000
1221.00,0.0000
1220.00,0.0000
1219.00,0.0000
1218.00,0.0000
1217.00,0.0000
1216.00,0.0000
1215.00,0.0000
1214.00,0.0000
1213.00,0.0000
1212.00,-0.0000
1211.00,-0.0000
1210.00,0.0000
1209.00,0.0000
1208.00,0.0000
1207.00,0.0000
1206.00,0.0000
1205.00,0.0000
1204.00,0.0000
1203.00,0.0000
1202.00,0.0000
1201.00,0.0000
1200.00,0.0000
1199.00,0.0000
1198.00,0.0000
1197.00,0.0000
1196.00,0.0000
1195.00,0.0000
1194.00,0.0000
1193.00,0.0000
1192.00,0.0000
1191.00,0.0000
1190.00,0.0000
1189.00,0.0000
1188.00,0.0000
1187.00,0.0000
1186.00,0.0000
1185.00,0.0000
1184.00,0.0000
1183.00,0.0000
1182.00,0.0000
1181.00,0.0000
1180.00,-0.0000
1179.00,-0.0000
1178.00,-0.0000
1177.00,-0.0000
1176.00,-0.0000
1175.00,-0.0000
1174.00,-0.0000
1173.00,-0.0000
1172.00,-0.0000
1171.00,-0.0000
1170.00,-0.0000
1169.00,-0.0000
1168.00,0.0000
1167.00,0.0000
1166.00,0.0000
1165.00,0.0000
1164.00,0.0000
1163.00,0.0000
1162.00,0.0000
1161.00,0.0000
1160.00,0.0000
1159.00,0.0000
1158.00,0.0000
1157.00,0.0000
1156.00,0.0000
1155.00,0.0000
1154.00,-0.0000
1153.00,-0.0000
1152.00,-0.0000
1151.00,-0.0000
1150.00,-0.0000
1149.00,-0.0000
1148.00,-0.0000
1147.00,-0.0000
1146.00,-0.0000
1145.00,0.0000
1144.00,0.0000
1143.00,0.0000
1142.00,0.0000
1141.00,-0.0000
1140.00,-0.0000
1139.00,-0.0000
1138.00,-0.0000
1137.00,0.0000
1136.00,0.0000
1135.00,0.0000
1134.00,0.0000
1133.00,0.0000
1132.00,-0.0000
1131.00,-0.0000
1130.00,-0.0000
1129.00,0.0000
1128.00,0.0000
1127.00,0.0000
1126.00,0.0000
1125.00,0.0000
1124.00,0.0000
1123.00,0.0000
1122.00,0.0000
1121.00,0.0000
1120.00,-0.0000
1119.00,-0.0000
1118.00,-0.0000
1117.00,-0.0000
1116.00,-0.0000
1115.00,-0.0000
1114.00,-0.0000
1113.00,-0.0000
1112.00,-0.0000
1111.00,-0.0000
1110.00,-0.0000
1109.00,-0.0000
1108.00,0.0000
1107.00,0.0000
1106.00,-0.0000
1105.00,-0.0000
1104.00,-0.0000
1103.00,-0.0000
1102.00,-0.0000
1101.00,-0.0000
1100.00,0.0000
1099.00,0.0000
1098.00,0.0000
1097.00,0.0000
1096.00,0.0000
1095.00,0.0000
1094.00,0.0000
1093.00,0.0000
1092.00,0.0000
1091.00,0.0000
1090.00,0.0000
1089.00,0.0000
1088.00,0.0000
1087.00,-0.0000
1086.00,-0.0000
1085.00,-0.0000
1084.00,-0.0000
1083.00,-0.0000
1082.00,-0.0000
1081.00,-0.0000
1080.00,-0.0000
1079.00,-0.0000
1078.00,-0.0000
1077.00,-0.0000
1076.00,0.0000
1075.00,0.0000
1074.00,0.0000
1073.00,0.0000
1072.00,0.0000
1071.00,0.0000
1070.00,0.0000
1069.00,0.0000
1068.00,0.0000
1067.00,0.0000
1066.00,0.0000
1065.00,0.0000
1064.00,0.0000
1063.00,0.0000
1062.00,0.0000
1061.00,0.0000
1060.00,0.0000
1059.00,0.0000
1058.00,0.0000
1057.00,0.0000
1056.00,0.0000
1055.00,0.0000
1054.00,0.0000
1053.00,0.0000
1052.00,0.0000
1051.00,-0.0000
1050.00,-0.0000
1049.00,0.0000
1048.00,0.0000
1047.00,0.0000
1046.00,0.0000
1045.00,0.0001
1044.00,0.0001
1043.00,0.0001
1042.00,0.0001
1041.00,0.0000
1040.00,0.0000
1039.00,0.0000
1038.00,0.0000
1037.00,0.0000
1036.00,0.0000
1035.00,0.0000
1034.00,0.0000
1033.00,-0.0000
1032.00,-0.0000
1031.00,-0.0000
1030.00,-0.0000
1029.00,0.0000
1028.00,0.0000
1027.00,0.0000
1026.00,0.0000
1025.00,0.0000
1024.00,0.0000
1023.00,0.0000
1022.00,0.0000
1021.00,0.0000
1020.00,0.0000
1019.00,0.0000
1018.00,-0.0000
1017.00,-0.0000
1016.00,0.0000
1015.00,0.0000
1014.00,0.0000
1013.00,0.0000
1012.00,0.0000
1011.00,0.0000
1010.00,0.0000
1009.00,0.0000
1008.00,0.0000
1007.00,0.0000
1006.00,0.0000
1005.00,0.0000
1004.00,0.0001
1003.00,0.0001
1002.00,0.0001
1001.00,0.0000
1000.00,0.0000
999.00,0.0000
998.00,0.0001
997.00,0.0001
996.00,0.0001
995.00,0.0001
994.00,0.0001
993.00,0.0001
992.00,0.0000
991.00,0.0000
990.00,0.0000
989.00,0.0000
988.00,0.0000
987.00,0.0000
986.00,0.0000
985.00,0.0000
984.00,0.0000
983.00,0.0000
982.00,0.0001
981.00,0.0001
980.00,0.0001
979.00,0.0001
978.00,0.0001
977.00,0.0001
976.00,0.0000
975.00,0.0000
974.00,0.0000
973.00,0.0000
972.00,0.0000
971.00,0.0000
970.00,0.0000
969.00,0.0000
968.00,0.0000
967.00,0.0000
966.00,0.0001
965.00,0.0001
964.00,0.0000
963.00,0.0000
962.00,0.0000
961.00,0.0000
960.00,0.0000
959.00,0.0000
958.00,0.0000
957.00,0.0000
956.00,0.0000
955.00,0.0000
954.00,0.0000
953.00,0.0000
952.00,0.0000
951.00,0.0000
950.00,0.0000
949.00,0.0000
948.00,0.0000
947.00,0.0000
946.00,0.0000
945.00,0.0000
944.00,0.0000
943.00,0.0000
942.00,0.0000
941.00,0.0000
940.00,0.0000
939.00,0.0000
938.00,0.0000
937.00,0.0000
936.00,0.0000
935.00,0.0000
934.00,0.0000
933.00,0.0000
932.00,0.0000
931.00,0.0000
930.00,0.0000
929.00,0.0000
928.00,0.0000
927.00,0.0001
926.00,0.0001
925.00,0.0000
924.00,0.0000
923.00,0.0000
922.00,-0.0000
921.00,-0.0000
920.00,-0.0000
919.00,-0.0000
918.00,0.0000
917.00,0.0000
916.00,0.0000
915.00,0.0000
914.00,0.0000
913.00,-0.0000
912.00,0.0000
911.00,0.0000
910.00,0.0000
909.00,0.0000
908.00,0.0000
907.00,0.0000
906.00,0.0000
905.00,0.0000
904.00,0.0000
903.00,0.0001
902.00,0.0001
901.00,0.0000
900.00,0.0000
899.00,0.0000
898.00,0.0000
897.00,0.0000
896.00,0.0000
895.00,0.0000
894.00,0.0000
893.00,0.0000
892.00,0.0000
891.00,0.0000
890.00,-0.0000
889.00,-0.0000
888.00,-0.0000
887.00,-0.0000
886.00,-0.0000
885.00,-0.0000
884.00,0.0000
883.00,0.0000
882.00,0.0000
881.00,0.0000
880.00,0.0000
879.00,0.0000
878.00,0.0000
877.00,0.0000
876.00,0.0000
875.00,0.0000
874.00,0.0000
873.00,0.0000
872.00,0.0000
871.00,0.0000
870.00,-0.0000
869.00,-0.0000
868.00,0.0000
867.00,0.0000
866.00,0.0000
865.00,0.0000
864.00,0.0000
863.00,0.0000
862.00,0.0000
861.00,0.0000
860.00,0.0000
859.00,0.0000
858.00,0.0000
857.00,0.0000
856.00,0.0000
855.00,0.0000
854.00,0.0000
853.00,0.0000
852.00,0.0000
851.00,0.0000
850.00,0.0000
849.00,0.0000
848.00,0.0000
847.00,0.0000
846.00,0.0000
845.00,0.0000
844.00,0.0000
843.00,0.0000
842.00,0.0000
841.00,0.0000
840.00,0.0000
839.00,0.0000
838.00,0.0000
837.00,0.0000
836.00,0.0000
835.00,0.0000
834.00,0.0000
833.00,0.0000
832.00,0.0000
831.00,0.0000
830.00,0.0000
829.00,0.0000
828.00,0.0000
827.00,0.0000
826.00,0.0000
825.00,0.0000
824.00,0.0000
823.00,0.0000
822.00,0.0000
821.00,-0.0000
820.00,0.0000
819.00,0.0000
818.00,0.0000
817.00,0.0000
816.00,0.0000
815.00,-0.0000
814.00,-0.0000
813.00,-0.0000
812.00,-0.0000
811.00,-0.0000
810.00,-0.0000
809.00,0.0000
808.00,0.0000
807.00,0.0000
806.00,0.0000
805.00,0.0000
804.00,0.0000
803.00,-0.0000
802.00,-0.0000
801.00,-0.0000
800.00,-0.0000
799.00,0.0000
798.00,0.0000
797.00,0.0000
796.00,0.0000
795.00,0.0000
794.00,0.0000
793.00,0.0000
792.00,0.0000
791.00,-0.0000
790.00,-0.0000
789.00,0.0000
788.00,0.0000
787.00,0.0000
786.00,0.0000
785.00,0.0000
784.00,0.0000
783.00,0.0000
782.00,0.0000
781.00,0.0000
780.00,0.0000
779.00,0.0000
778.00,0.0000
777.00,0.0000
776.00,0.0000
775.00,0.0000
774.00,-0.0000
773.00,-0.0000
772.00,-0.0000
771.00,-0.0000
770.00,-0.0000
769.00,-0.0000
768.00,0.0000
767.00,0.0000
766.00,0.0000
765.00,-0.0000
764.00,-0.0000
763.00,0.0000
762.00,0.0000
761.00,0.0000
760.00,0.0000
759.00,0.0000
758.00,-0.0000
757.00,0.0000
756.00,0.0000
755.00,0.0000
754.00,0.0001
753.00,0.0000
752.00,0.0000
751.00,0.0000
750.00,0.0000
749.00,0.0000
748.00,0.0000
747.00,-0.0000
746.00,-0.0000
745.00,-0.0000
744.00,-0.0000
743.00,-0.0000
742.00,-0.0000
741.00,0.0000
740.00,0.0000
739.00,0.0000
738.00,0.0000
737.00,0.0000
736.00,0.0000
735.00,-0.0000
734.00,-0.0000
733.00,0.0000
732.00,0.0000
731.00,0.0000
730.00,0.0001
729.00,0.0001
728.00,0.0001
727.00,0.0001
726.00,0.0000
725.00,0.0000
724.00,0.0000
723.00,0.0000
722.00,0.0000
721.00,0.0000
720.00,0.0000
719.00,0.0000
718.00,0.0000
717.00,0.0000
716.00,-0.0000
715.00,-0.0000
714.00,-0.0000
713.00,-0.0000
712.00,-0.0000
711.00,-0.0000
710.00,-0.0000
709.00,-0.0000
708.00,-0.0000
707.00,-0.0000
706.00,-0.0000
705.00,-0.0000
704.00,-0.0000
703.00,-0.0000
702.00,-0.0000
701.00,-0.0000
700.00,-0.0000
699.00,-0.0000
698.00,-0.0000
697.00,-0.0000
696.00,-0.0000
695.00,-0.0000
694.00,0.0000
693.00,0.0000
692.00,0.0000
691.00,0.0000
690.00,0.0000
689.00,0.0001
688.00,0.0000
687.00,0.0000
686.00,-0.0000
685.00,-0.0001
684.00,-0.0001
683.00,-0.0001
682.00,-0.0001
681.00,-0.0001
680.00,-0.0001
679.00,-0.0000
678.00,-0.0000
677.00,0.0000
676.00,0.0000
675.00,0.0000
674.00,-0.0000
673.00,-0.0000
672.00,-0.0000
671.00,-0.0001
670.00,-0.0001
669.00,-0.0002
668.00,-0.0003
667.00,-0.0003
666.00,-0.0002
665.00,-0.0001
664.00,-0.0001
663.00,-0.0000
662.00,-0.0000
661.00,0.0000
660.00,0.0000
659.00,0.0000
658.00,0.0000
657.00,0.0000
656.00,-0.0000
655.00,-0.0001
654.00,-0.0001
653.00,-0.0001
652.00,-0.0001
651.00,-0.0001
650.00,-0.0000
649.00,-0.0000
648.00,0.0000
647.00,0.0000
646.00,-0.0000
645.00,-0.0001
644.00,-0.0001
643.00,-0.0000
642.00,-0.0000
641.00,-0.0000
640.00,-0.0000
639.00,-0.0000
638.00,-0.0000
637.00,-0.0000
636.00,-0.0000
635.00,-0.0001
634.00,-0.0001
633.00,-0.0001
632.00,-0.0001
631.00,-0.0000
630.00,-0.0000
629.00,-0.0000
628.00,0.0000
627.00,0.0000
626.00,0.0001
625.00,0.0001
624.00,0.0001
623.00,0.0000
622.00,0.0000
621.00,-0.0000
620.00,-0.0000
619.00,-0.0000
618.00,-0.0000
617.00,-0.0000
616.00,-0.0000
615.00,-0.0000
614.00,-0.0000
613.00,-0.0000
612.00,-0.0000
611.00,-0.0000
610.00,-0.0000
609.00,-0.0001
608.00,-0.0001
607.00,-0.0001
606.00,-0.0001
605.00,-0.0001
604.00,-0.0001
603.00,-0.0001
602.00,-0.0001
601.00,-0.0001
600.00,-0.0000
599.00,-0.0000
598.00,-0.0000
597.00,-0.0000
596.00,-0.0001
595.00,-0.0002
594.00,-0.0002
593.00,-0.0001
592.00,-0.0000
591.00,0.0000
590.00,0.0000
589.00,-0.0000
588.00,-0.0001
587.00,-0.0001
586.00,-0.0000
585.00,-0.0000
584.00,-0.0000
583.00,-0.0000
582.00,-0.0001
581.00,-0.0001
580.00,-0.0000
579.00,-0.0000
578.00,-0.0000
577.00,-0.0000
576.00,-0.0000
575.00,-0.0000
574.00,-0.0001
573.00,-0.0001
572.00,-0.0001
571.00,-0.0001
570.00,-0.0000
569.00,0.0000
568.00,0.0000
567.00,0.0000
566.00,-0.0000
565.00,-0.0001
564.00,-0.0001
563.00,-0.0001
562.00,-0.0002
561.00,-0.0001
560.00,-0.0001
559.00,-0.0001
558.00,-0.0001
557.00,-0.0001
556.00,-0.0001
555.00,-0.0000
554.00,-0.0000
553.00,0.0000
552.00,0.0000
551.00,0.0001
550.00,0.0001
549.00,0.0001
548.00,0.0001
547.00,0.0000
546.00,-0.0000
545.00,-0.0000
544.00,-0.0001
543.00,-0.0000
542.00,-0.0000
541.00,-0.0000
540.00,-0.0001
539.00,-0.0001
538.00,-0.0001
537.00,-0.0001
536.00,-0.0001
535.00,-0.0001
534.00,-0.0001
533.00,-0.0001
532.00,-0.0001
531.00,-0.0001
530.00,-0.0001
529.00,-0.0001
528.00,-0.0000
527.00,-0.0000
526.00,-0.0000
525.00,-0.0000
524.00,-0.0000
523.00,-0.0000
522.00,-0.0001
521.00,-0.0001
520.00,-0.0001
519.00,-0.0001
518.00,-0.0001
517.00,-0.0001
516.00,-0.0000
515.00,-0.0000
514.00,-0.0000
513.00,-0.0000
512.00,-0.0000
511.00,-0.0001
510.00,-0.0001
509.00,-0.0001
508.00,-0.0002
507.00,-0.0002
506.00,-0.0001
505.00,-0.0001
504.00,-0.0000
503.00,-0.0000
502.00,-0.0001
501.00,-0.0001
500.00,-0.0001
