Created as New Dataset,Sample 350 By Analyst Date Tuesday, February 04 2025
cm-1,A
4000.00,-0.0013
3999.00,-0.0013
3998.00,-0.0013
3997.00,-0.0013
3996.00,-0.0013
3995.00,-0.0013
3994.00,-0.0013
3993.00,-0.0013
3992.00,-0.0013
3991.00,-0.0013
3990.00,-0.0013
3989.00,-0.0013
3988.00,-0.0013
3987.00,-0.0013
3986.00,-0.0013
3985.00,-0.0013
3984.00,-0.0013
3983.00,-0.0013
3982.00,-0.0013
3981.00,-0.0013
3980.00,-0.0013
3979.00,-0.0013
3978.00,-0.0013
3977.00,-0.0013
3976.00,-0.0013
3975.00,-0.0013
3974.00,-0.0013
3973.00,-0.0013
3972.00,-0.0013
3971.00,-0.0013
3970.00,-0.0013
3969.00,-0.0013
3968.00,-0.0013
3967.00,-0.0013
3966.00,-0.0013
3965.00,-0.0013
3964.00,-0.0013
3963.00,-0.0013
3962.00,-0.0013
3961.00,-0.0013
3960.00,-0.0013
3959.00,-0.0013
3958.00,-0.0013
3957.00,-0.0013
3956.00,-0.0013
3955.00,-0.0013
3954.00,-0.0013
3953.00,-0.0013
3952.00,-0.0013
3951.00,-0.0012
3950.00,-0.0012
3949.00,-0.0012
3948.00,-0.0012
3947.00,-0.0012
3946.00,-0.0011
3945.00,-0.0011
3944.00,-0.0012
3943.00,-0.0012
3942.00,-0.0012
3941.00,-0.0012
3940.00,-0.0012
3939.00,-0.0012
3938.00,-0.0012
3937.00,-0.0012
3936.00,-0.0012
3935.00,-0.0012
3934.00,-0.0012
3933.00,-0.0011
3932.00,-0.0012
3931.00,-0.0012
3930.00,-0.0012
3929.00,-0.0012
3928.00,-0.0012
3927.00,-0.0012
3926.00,-0.0012
3925.00,-0.0012
3924.00,-0.0012
3923.00,-0.0012
3922.00,-0.0011
3921.00,-0.0011
3920.00,-0.0011
3919.00,-0.0011
3918.00,-0.0011
3917.00,-0.0011
3916.00,-0.0011
3915.00,-0.0012
3914.00,-0.0012
3913.00,-0.0012
3912.00,-0.0012
3911.00,-0.0013
3910.00,-0.0013
3909.00,-0.0013
3908.00,-0.0013
3907.00,-0.0012
3906.00,-0.0011
3905.00,-0.0011
3904.00,-0.0010
3903.00,-0.0008
3902.00,-0.0007
3901.00,-0.0007
3900.00,-0.0007
3899.00,-0.0008
3898.00,-0.0009
3897.00,-0.0010
3896.00,-0.0010
3895.00,-0.0011
3894.00,-0.0011
3893.00,-0.0011
3892.00,-0.0011
3891.00,-0.0011
3890.00,-0.0011
3889.00,-0.0011
3888.00,-0.0010
3887.00,-0.0009
3886.00,-0.0009
3885.00,-0.0010
3884.00,-0.0010
3883.00,-0.0009
3882.00,-0.0009
3881.00,-0.0009
3880.00,-0.0010
3879.00,-0.0010
3878.00,-0.0010
3877.00,-0.0010
3876.00,-0.0009
3875.00,-0.0010
3874.00,-0.0011
3873.00,-0.0011
3872.00,-0.0010
3871.00,-0.0009
3870.00,-0.0009
3869.00,-0.0009
3868.00,-0.0009
3867.00,-0.0009
3866.00,-0.0008
3865.00,-0.0008
3864.00,-0.0009
3863.00,-0.0009
3862.00,-0.0009
3861.00,-0.0009
3860.00,-0.0009
3859.00,-0.0010
3858.00,-0.0012
3857.00,-0.0013
3856.00,-0.0014
3855.00,-0.0013
3854.00,-0.0012
3853.00,-0.0011
3852.00,-0.0010
3851.00,-0.0009
3850.00,-0.0009
3849.00,-0.0009
3848.00,-0.0009
3847.00,-0.0010
3846.00,-0.0010
3845.00,-0.0010
3844.00,-0.0010
3843.00,-0.0010
3842.00,-0.0010
3841.00,-0.0010
3840.00,-0.0009
3839.00,-0.0009
3838.00,-0.0009
3837.00,-0.0009
3836.00,-0.0009
3835.00,-0.0009
3834.00,-0.0009
3833.00,-0.0009
3832.00,-0.0009
3831.00,-0.0010
3830.00,-0.0010
3829.00,-0.0010
3828.00,-0.0010
3827.00,-0.0010
3826.00,-0.0011
3825.00,-0.0011
3824.00,-0.0010
3823.00,-0.0009
3822.00,-0.0009
3821.00,-0.0009
3820.00,-0.0010
3819.00,-0.0010
3818.00,-0.0009
3817.00,-0.0008
3816.00,-0.0009
3815.00,-0.0010
3814.00,-0.0011
3813.00,-0.0011
3812.00,-0.0011
3811.00,-0.0011
3810.00,-0.0012
3809.00,-0.0012
3808.00,-0.0011
3807.00,-0.0011
3806.00,-0.0011
3805.00,-0.0011
3804.00,-0.0010
3803.00,-0.0009
3802.00,-0.0009
3801.00,-0.0010
3800.00,-0.0010
3799.00,-0.0010
3798.00,-0.0009
3797.00,-0.0009
3796.00,-0.0010
3795.00,-0.0011
3794.00,-0.0011
3793.00,-0.0011
3792.00,-0.0011
3791.00,-0.0012
3790.00,-0.0012
3789.00,-0.0012
3788.00,-0.0012
3787.00,-0.0012
3786.00,-0.0012
3785.00,-0.0012
3784.00,-0.0012
3783.00,-0.0012
3782.00,-0.0012
3781.00,-0.0011
3780.00,-0.0011
3779.00,-0.0011
3778.00,-0.0012
3777.00,-0.0012
3776.00,-0.0012
3775.00,-0.0012
3774.00,-0.0012
3773.00,-0.0012
3772.00,-0.0011
3771.00,-0.0011
3770.00,-0.0011
3769.00,-0.0011
3768.00,-0.0010
3767.00,-0.0010
3766.00,-0.0010
3765.00,-0.0010
3764.00,-0.0011
3763.00,-0.0010
3762.00,-0.0010
3761.00,-0.0010
3760.00,-0.0010
3759.00,-0.0010
3758.00,-0.0010
3757.00,-0.0010
3756.00,-0.0009
3755.00,-0.0009
3754.00,-0.0009
3753.00,-0.0008
3752.00,-0.0008
3751.00,-0.0007
3750.00,-0.0007
3749.00,-0.0006
3748.00,-0.0007
3747.00,-0.0006
3746.00,-0.0006
3745.00,-0.0006
3744.00,-0.0006
3743.00,-0.0007
3742.00,-0.0007
3741.00,-0.0006
3740.00,-0.0005
3739.00,-0.0005
3738.00,-0.0005
3737.00,-0.0005
3736.00,-0.0005
3735.00,-0.0006
3734.00,-0.0006
3733.00,-0.0006
3732.00,-0.0006
3731.00,-0.0007
3730.00,-0.0007
3729.00,-0.0007
3728.00,-0.0007
3727.00,-0.0008
3726.00,-0.0008
3725.00,-0.0009
3724.00,-0.0009
3723.00,-0.0009
3722.00,-0.0009
3721.00,-0.0009
3720.00,-0.0010
3719.00,-0.0010
3718.00,-0.0010
3717.00,-0.0010
3716.00,-0.0010
3715.00,-0.0010
3714.00,-0.0009
3713.00,-0.0009
3712.00,-0.0008
3711.00,-0.0008
3710.00,-0.0008
3709.00,-0.0008
3708.00,-0.0009
3707.00,-0.0009
3706.00,-0.0010
3705.00,-0.0010
3704.00,-0.0011
3703.00,-0.0011
3702.00,-0.0011
3701.00,-0.0011
3700.00,-0.0011
3699.00,-0.0011
3698.00,-0.0011
3697.00,-0.0011
3696.00,-0.0011
3695.00,-0.0011
3694.00,-0.0011
3693.00,-0.0011
3692.00,-0.0011
3691.00,-0.0011
3690.00,-0.0010
3689.00,-0.0010
3688.00,-0.0009
3687.00,-0.0009
3686.00,-0.0009
3685.00,-0.0010
3684.00,-0.0010
3683.00,-0.0010
3682.00,-0.0010
3681.00,-0.0010
3680.00,-0.0010
3679.00,-0.0010
3678.00,-0.0010
3677.00,-0.0008
3676.00,-0.0008
3675.00,-0.0008
3674.00,-0.0008
3673.00,-0.0007
3672.00,-0.0006
3671.00,-0.0006
3670.00,-0.0007
3669.00,-0.0008
3668.00,-0.0009
3667.00,-0.0009
3666.00,-0.0009
3665.00,-0.0010
3664.00,-0.0010
3663.00,-0.0011
3662.00,-0.0011
3661.00,-0.0012
3660.00,-0.0012
3659.00,-0.0011
3658.00,-0.0011
3657.00,-0.0010
3656.00,-0.0010
3655.00,-0.0010
3654.00,-0.0009
3653.00,-0.0008
3652.00,-0.0007
3651.00,-0.0006
3650.00,-0.0006
3649.00,-0.0005
3648.00,-0.0005
3647.00,-0.0005
3646.00,-0.0006
3645.00,-0.0007
3644.00,-0.0008
3643.00,-0.0009
3642.00,-0.0010
3641.00,-0.0011
3640.00,-0.0011
3639.00,-0.0011
3638.00,-0.0011
3637.00,-0.0011
3636.00,-0.0011
3635.00,-0.0010
3634.00,-0.0010
3633.00,-0.0010
3632.00,-0.0010
3631.00,-0.0008
3630.00,-0.0007
3629.00,-0.0007
3628.00,-0.0007
3627.00,-0.0007
3626.00,-0.0007
3625.00,-0.0008
3624.00,-0.0008
3623.00,-0.0009
3622.00,-0.0010
3621.00,-0.0010
3620.00,-0.0010
3619.00,-0.0010
3618.00,-0.0009
3617.00,-0.0008
3616.00,-0.0007
3615.00,-0.0007
3614.00,-0.0007
3613.00,-0.0007
3612.00,-0.0007
3611.00,-0.0007
3610.00,-0.0006
3609.00,-0.0007
3608.00,-0.0007
3607.00,-0.0008
3606.00,-0.0009
3605.00,-0.0009
3604.00,-0.0009
3603.00,-0.0010
3602.00,-0.0010
3601.00,-0.0010
3600.00,-0.0010
3599.00,-0.0010
3598.00,-0.0010
3597.00,-0.0009
3596.00,-0.0009
3595.00,-0.0009
3594.00,-0.0009
3593.00,-0.0009
3592.00,-0.0009
3591.00,-0.0008
3590.00,-0.0008
3589.00,-0.0008
3588.00,-0.0008
3587.00,-0.0008
3586.00,-0.0008
3585.00,-0.0009
3584.00,-0.0009
3583.00,-0.0009
3582.00,-0.0010
3581.00,-0.0011
3580.00,-0.0011
3579.00,-0.0011
3578.00,-0.0011
3577.00,-0.0011
3576.00,-0.0011
3575.00,-0.0011
3574.00,-0.0011
3573.00,-0.0011
3572.00,-0.0011
3571.00,-0.0010
3570.00,-0.0009
3569.00,-0.0008
3568.00,-0.0008
3567.00,-0.0008
3566.00,-0.0008
3565.00,-0.0008
3564.00,-0.0008
3563.00,-0.0008
3562.00,-0.0009
3561.00,-0.0010
3560.00,-0.0011
3559.00,-0.0011
3558.00,-0.0011
3557.00,-0.0011
3556.00,-0.0011
3555.00,-0.0011
3554.00,-0.0011
3553.00,-0.0011
3552.00,-0.0011
3551.00,-0.0011
3550.00,-0.0010
3549.00,-0.0010
3548.00,-0.0010
3547.00,-0.0010
3546.00,-0.0010
3545.00,-0.0010
3544.00,-0.0010
3543.00,-0.0010
3542.00,-0.0010
3541.00,-0.0011
3540.00,-0.0011
3539.00,-0.0011
3538.00,-0.0011
3537.00,-0.0011
3536.00,-0.0011
3535.00,-0.0011
3534.00,-0.0011
3533.00,-0.0011
3532.00,-0.0011
3531.00,-0.0011
3530.00,-0.0011
3529.00,-0.0011
3528.00,-0.0011
3527.00,-0.0010
3526.00,-0.0010
3525.00,-0.0010
3524.00,-0.0010
3523.00,-0.0011
3522.00,-0.0011
3521.00,-0.0011
3520.00,-0.0011
3519.00,-0.0011
3518.00,-0.0011
3517.00,-0.0012
3516.00,-0.0012
3515.00,-0.0012
3514.00,-0.0012
3513.00,-0.0012
3512.00,-0.0012
3511.00,-0.0011
3510.00,-0.0012
3509.00,-0.0012
3508.00,-0.0011
3507.00,-0.0011
3506.00,-0.0011
3505.00,-0.0011
3504.00,-0.0011
3503.00,-0.0011
3502.00,-0.0011
3501.00,-0.0011
3500.00,-0.0011
3499.00,-0.0011
3498.00,-0.0011
3497.00,-0.0012
3496.00,-0.0012
3495.00,-0.0012
3494.00,-0.0012
3493.00,-0.0012
3492.00,-0.0012
3491.00,-0.0012
3490.00,-0.0012
3489.00,-0.0012
3488.00,-0.0012
3487.00,-0.0012
3486.00,-0.0012
3485.00,-0.0012
3484.00,-0.0012
3483.00,-0.0012
3482.00,-0.0012
3481.00,-0.0012
3480.00,-0.0012
3479.00,-0.0012
3478.00,-0.0012
3477.00,-0.0012
3476.00,-0.0012
3475.00,-0.0012
3474.00,-0.0012
3473.00,-0.0012
3472.00,-0.0012
3471.00,-0.0012
3470.00,-0.0012
3469.00,-0.0012
3468.00,-0.0012
3467.00,-0.0012
3466.00,-0.0012
3465.00,-0.0012
3464.00,-0.0012
3463.00,-0.0012
3462.00,-0.0012
3461.00,-0.0012
3460.00,-0.0012
3459.00,-0.0012
3458.00,-0.0012
3457.00,-0.0012
3456.00,-0.0012
3455.00,-0.0012
3454.00,-0.0012
3453.00,-0.0012
3452.00,-0.0012
3451.00,-0.0012
3450.00,-0.0012
3449.00,-0.0012
3448.00,-0.0012
3447.00,-0.0012
3446.00,-0.0012
3445.00,-0.0012
3444.00,-0.0012
3443.00,-0.0012
3442.00,-0.0012
3441.00,-0.0012
3440.00,-0.0012
3439.00,-0.0012
3438.00,-0.0012
3437.00,-0.0012
3436.00,-0.0012
3435.00,-0.0012
3434.00,-0.0012
3433.00,-0.0012
3432.00,-0.0012
3431.00,-0.0012
3430.00,-0.0012
3429.00,-0.0012
3428.00,-0.0012
3427.00,-0.0012
3426.00,-0.0012
3425.00,-0.0012
3424.00,-0.0012
3423.00,-0.0012
3422.00,-0.0012
3421.00,-0.0012
3420.00,-0.0012
3419.00,-0.0012
3418.00,-0.0012
3417.00,-0.0012
3416.00,-0.0012
3415.00,-0.0012
3414.00,-0.0012
3413.00,-0.0012
3412.00,-0.0012
3411.00,-0.0012
3410.00,-0.0012
3409.00,-0.0012
3408.00,-0.0012
3407.00,-0.0012
3406.00,-0.0012
3405.00,-0.0012
3404.00,-0.0012
3403.00,-0.0012
3402.00,-0.0012
3401.00,-0.0012
3400.00,-0.0012
3399.00,-0.0012
3398.00,-0.0012
3397.00,-0.0012
3396.00,-0.0012
3395.00,-0.0012
3394.00,-0.0012
3393.00,-0.0012
3392.00,-0.0012
3391.00,-0.0012
3390.00,-0.0012
3389.00,-0.0012
3388.00,-0.0013
3387.00,-0.0013
3386.00,-0.0013
3385.00,-0.0013
3384.00,-0.0013
3383.00,-0.0013
3382.00,-0.0012
3381.00,-0.0012
3380.00,-0.0012
3379.00,-0.0012
3378.00,-0.0012
3377.00,-0.0012
3376.00,-0.0012
3375.00,-0.0012
3374.00,-0.0012
3373.00,-0.0012
3372.00,-0.0012
3371.00,-0.0012
3370.00,-0.0012
3369.00,-0.0012
3368.00,-0.0012
3367.00,-0.0012
3366.00,-0.0012
3365.00,-0.0012
3364.00,-0.0012
3363.00,-0.0012
3362.00,-0.0012
3361.00,-0.0012
3360.00,-0.0012
3359.00,-0.0012
3358.00,-0.0012
3357.00,-0.0013
3356.00,-0.0013
3355.00,-0.0013
3354.00,-0.0013
3353.00,-0.0013
3352.00,-0.0012
3351.00,-0.0012
3350.00,-0.0012
3349.00,-0.0012
3348.00,-0.0013
3347.00,-0.0013
3346.00,-0.0013
3345.00,-0.0013
3344.00,-0.0013
3343.00,-0.0013
3342.00,-0.0013
3341.00,-0.0013
3340.00,-0.0013
3339.00,-0.0012
3338.00,-0.0012
3337.00,-0.0012
3336.00,-0.0012
3335.00,-0.0012
3334.00,-0.0012
3333.00,-0.0013
3332.00,-0.0013
3331.00,-0.0013
3330.00,-0.0013
3329.00,-0.0013
3328.00,-0.0013
3327.00,-0.0013
3326.00,-0.0013
3325.00,-0.0013
3324.00,-0.0013
3323.00,-0.0013
3322.00,-0.0013
3321.00,-0.0013
3320.00,-0.0013
3319.00,-0.0013
3318.00,-0.0013
3317.00,-0.0013
3316.00,-0.0013
3315.00,-0.0013
3314.00,-0.0013
3313.00,-0.0013
3312.00,-0.0013
3311.00,-0.0013
3310.00,-0.0013
3309.00,-0.0013
3308.00,-0.0013
3307.00,-0.0013
3306.00,-0.0013
3305.00,-0.0013
3304.00,-0.0013
3303.00,-0.0013
3302.00,-0.0013
3301.00,-0.0013
3300.00,-0.0013
3299.00,-0.0013
3298.00,-0.0013
3297.00,-0.0013
3296.00,-0.0013
3295.00,-0.0013
3294.00,-0.0013
3293.00,-0.0013
3292.00,-0.0013
3291.00,-0.0013
3290.00,-0.0013
3289.00,-0.0013
3288.00,-0.0013
3287.00,-0.0013
3286.00,-0.0013
3285.00,-0.0013
3284.00,-0.0013
3283.00,-0.0013
3282.00,-0.0013
3281.00,-0.0013
3280.00,-0.0013
3279.00,-0.0013
3278.00,-0.0013
3277.00,-0.0013
3276.00,-0.0013
3275.00,-0.0013
3274.00,-0.0013
3273.00,-0.0013
3272.00,-0.0013
3271.00,-0.0013
3270.00,-0.0013
3269.00,-0.0013
3268.00,-0.0013
3267.00,-0.0013
3266.00,-0.0013
3265.00,-0.0013
3264.00,-0.0013
3263.00,-0.0013
3262.00,-0.0013
3261.00,-0.0013
3260.00,-0.0013
3259.00,-0.0013
3258.00,-0.0013
3257.00,-0.0013
3256.00,-0.0013
3255.00,-0.0013
3254.00,-0.0013
3253.00,-0.0013
3252.00,-0.0013
3251.00,-0.0013
3250.00,-0.0013
3249.00,-0.0013
3248.00,-0.0013
3247.00,-0.0013
3246.00,-0.0013
3245.00,-0.0013
3244.00,-0.0013
3243.00,-0.0013
3242.00,-0.0013
3241.00,-0.0013
3240.00,-0.0013
3239.00,-0.0013
3238.00,-0.0013
3237.00,-0.0013
3236.00,-0.0013
3235.00,-0.0013
3234.00,-0.0013
3233.00,-0.0013
3232.00,-0.0013
3231.00,-0.0013
3230.00,-0.0013
3229.00,-0.0013
3228.00,-0.0013
3227.00,-0.0013
3226.00,-0.0013
3225.00,-0.0013
3224.00,-0.0013
3223.00,-0.0013
3222.00,-0.0013
3221.00,-0.0013
3220.00,-0.0013
3219.00,-0.0013
3218.00,-0.0013
3217.00,-0.0013
3216.00,-0.0013
3215.00,-0.0013
3214.00,-0.0013
3213.00,-0.0013
3212.00,-0.0013
3211.00,-0.0013
3210.00,-0.0013
3209.00,-0.0013
3208.00,-0.0013
3207.00,-0.0013
3206.00,-0.0013
3205.00,-0.0013
3204.00,-0.0013
3203.00,-0.0013
3202.00,-0.0013
3201.00,-0.0013
3200.00,-0.0013
3199.00,-0.0013
3198.00,-0.0013
3197.00,-0.0013
3196.00,-0.0013
3195.00,-0.0013
3194.00,-0.0013
3193.00,-0.0013
3192.00,-0.0013
3191.00,-0.0013
3190.00,-0.0013
3189.00,-0.0013
3188.00,-0.0013
3187.00,-0.0013
3186.00,-0.0013
3185.00,-0.0013
3184.00,-0.0013
3183.00,-0.0013
3182.00,-0.0013
3181.00,-0.0013
3180.00,-0.0013
3179.00,-0.0013
3178.00,-0.0013
3177.00,-0.0013
3176.00,-0.0013
3175.00,-0.0013
3174.00,-0.0013
3173.00,-0.0013
3172.00,-0.0013
3171.00,-0.0013
3170.00,-0.0013
3169.00,-0.0013
3168.00,-0.0013
3167.00,-0.0013
3166.00,-0.0013
3165.00,-0.0013
3164.00,-0.0013
3163.00,-0.0013
3162.00,-0.0013
3161.00,-0.0013
3160.00,-0.0013
3159.00,-0.0013
3158.00,-0.0013
3157.00,-0.0013
3156.00,-0.0013
3155.00,-0.0013
3154.00,-0.0013
3153.00,-0.0013
3152.00,-0.0013
3151.00,-0.0013
3150.00,-0.0013
3149.00,-0.0013
3148.00,-0.0013
3147.00,-0.0013
3146.00,-0.0013
3145.00,-0.0013
3144.00,-0.0013
3143.00,-0.0013
3142.00,-0.0013
3141.00,-0.0013
3140.00,-0.0013
3139.00,-0.0013
3138.00,-0.0013
3137.00,-0.0013
3136.00,-0.0013
3135.00,-0.0013
3134.00,-0.0013
3133.00,-0.0013
3132.00,-0.0013
3131.00,-0.0013
3130.00,-0.0013
3129.00,-0.0013
3128.00,-0.0013
3127.00,-0.0013
3126.00,-0.0013
3125.00,-0.0013
3124.00,-0.0013
3123.00,-0.0012
3122.00,-0.0012
3121.00,-0.0012
3120.00,-0.0012
3119.00,-0.0012
3118.00,-0.0012
3117.00,-0.0012
3116.00,-0.0012
3115.00,-0.0012
3114.00,-0.0012
3113.00,-0.0013
3112.00,-0.0012
3111.00,-0.0012
3110.00,-0.0013
3109.00,-0.0013
3108.00,-0.0013
3107.00,-0.0013
3106.00,-0.0013
3105.00,-0.0013
3104.00,-0.0013
3103.00,-0.0013
3102.00,-0.0013
3101.00,-0.0013
3100.00,-0.0013
3099.00,-0.0013
3098.00,-0.0013
3097.00,-0.0013
3096.00,-0.0013
3095.00,-0.0012
3094.00,-0.0012
3093.00,-0.0012
3092.00,-0.0012
3091.00,-0.0012
3090.00,-0.0012
3089.00,-0.0013
3088.00,-0.0013
3087.00,-0.0013
3086.00,-0.0013
3085.00,-0.0013
3084.00,-0.0013
3083.00,-0.0013
3082.00,-0.0013
3081.00,-0.0012
3080.00,-0.0012
3079.00,-0.0012
3078.00,-0.0012
3077.00,-0.0013
3076.00,-0.0013
3075.00,-0.0013
3074.00,-0.0013
3073.00,-0.0013
3072.00,-0.0013
3071.00,-0.0013
3070.00,-0.0013
3069.00,-0.0013
3068.00,-0.0012
3067.00,-0.0012
3066.00,-0.0012
3065.00,-0.0013
3064.00,-0.0013
3063.00,-0.0013
3062.00,-0.0013
3061.00,-0.0013
3060.00,-0.0013
3059.00,-0.0013
3058.00,-0.0013
3057.00,-0.0013
3056.00,-0.0013
3055.00,-0.0013
3054.00,-0.0012
3053.00,-0.0012
3052.00,-0.0012
3051.00,-0.0012
3050.00,-0.0012
3049.00,-0.0013
3048.00,-0.0012
3047.00,-0.0012
3046.00,-0.0012
3045.00,-0.0012
3044.00,-0.0012
3043.00,-0.0012
3042.00,-0.0012
3041.00,-0.0012
3040.00,-0.0012
3039.00,-0.0012
3038.00,-0.0012
3037.00,-0.0012
3036.00,-0.0012
3035.00,-0.0012
3034.00,-0.0012
3033.00,-0.0012
3032.00,-0.0012
3031.00,-0.0012
3030.00,-0.0012
3029.00,-0.0012
3028.00,-0.0012
3027.00,-0.0012
3026.00,-0.0012
3025.00,-0.0012
3024.00,-0.0012
3023.00,-0.0012
3022.00,-0.0012
3021.00,-0.0012
3020.00,-0.0012
3019.00,-0.0012
3018.00,-0.0012
3017.00,-0.0012
3016.00,-0.0012
3015.00,-0.0012
3014.00,-0.0012
3013.00,-0.0012
3012.00,-0.0012
3011.00,-0.0012
3010.00,-0.0012
3009.00,-0.0012
3008.00,-0.0012
3007.00,-0.0012
3006.00,-0.0012
3005.00,-0.0012
3004.00,-0.0012
3003.00,-0.0012
3002.00,-0.0012
3001.00,-0.0012
3000.00,-0.0012
2999.00,-0.0012
2998.00,-0.0012
2997.00,-0.0012
2996.00,-0.0012
2995.00,-0.0012
2994.00,-0.0012
2993.00,-0.0012
2992.00,-0.0012
2991.00,-0.0012
2990.00,-0.0012
2989.00,-0.0012
2988.00,-0.0012
2987.00,-0.0012
2986.00,-0.0012
2985.00,-0.0012
2984.00,-0.0012
2983.00,-0.0012
2982.00,-0.0012
2981.00,-0.0012
2980.00,-0.0012
2979.00,-0.0012
2978.00,-0.0012
2977.00,-0.0012
2976.00,-0.0012
2975.00,-0.0012
2974.00,-0.0012
2973.00,-0.0012
2972.00,-0.0012
2971.00,-0.0012
2970.00,-0.0012
2969.00,-0.0012
2968.00,-0.0012
2967.00,-0.0012
2966.00,-0.0012
2965.00,-0.0012
2964.00,-0.0012
2963.00,-0.0012
2962.00,-0.0012
2961.00,-0.0012
2960.00,-0.0012
2959.00,-0.0012
2958.00,-0.0012
2957.00,-0.0012
2956.00,-0.0012
2955.00,-0.0012
2954.00,-0.0012
2953.00,-0.0012
2952.00,-0.0012
2951.00,-0.0012
2950.00,-0.0012
2949.00,-0.0012
2948.00,-0.0012
2947.00,-0.0012
2946.00,-0.0012
2945.00,-0.0012
2944.00,-0.0012
2943.00,-0.0012
2942.00,-0.0012
2941.00,-0.0012
2940.00,-0.0012
2939.00,-0.0012
2938.00,-0.0012
2937.00,-0.0012
2936.00,-0.0012
2935.00,-0.0012
2934.00,-0.0012
2933.00,-0.0012
2932.00,-0.0012
2931.00,-0.0012
2930.00,-0.0012
2929.00,-0.0012
2928.00,-0.0012
2927.00,-0.0012
2926.00,-0.0013
2925.00,-0.0013
2924.00,-0.0013
2923.00,-0.0013
2922.00,-0.0013
2921.00,-0.0013
2920.00,-0.0013
2919.00,-0.0013
2918.00,-0.0013
2917.00,-0.0013
2916.00,-0.0013
2915.00,-0.0013
2914.00,-0.0013
2913.00,-0.0012
2912.00,-0.0012
2911.00,-0.0012
2910.00,-0.0012
2909.00,-0.0012
2908.00,-0.0012
2907.00,-0.0012
2906.00,-0.0012
2905.00,-0.0012
2904.00,-0.0012
2903.00,-0.0012
2902.00,-0.0012
2901.00,-0.0012
2900.00,-0.0012
2899.00,-0.0012
2898.00,-0.0012
2897.00,-0.0012
2896.00,-0.0012
2895.00,-0.0012
2894.00,-0.0012
2893.00,-0.0012
2892.00,-0.0012
2891.00,-0.0012
2890.00,-0.0012
2889.00,-0.0012
2888.00,-0.0012
2887.00,-0.0012
2886.00,-0.0012
2885.00,-0.0012
2884.00,-0.0012
2883.00,-0.0012
2882.00,-0.0012
2881.00,-0.0012
2880.00,-0.0012
2879.00,-0.0012
2878.00,-0.0012
2877.00,-0.0012
2876.00,-0.0012
2875.00,-0.0012
2874.00,-0.0012
2873.00,-0.0012
2872.00,-0.0012
2871.00,-0.0012
2870.00,-0.0012
2869.00,-0.0012
2868.00,-0.0012
2867.00,-0.0012
2866.00,-0.0012
2865.00,-0.0012
2864.00,-0.0012
2863.00,-0.0012
2862.00,-0.0012
2861.00,-0.0012
2860.00,-0.0012
2859.00,-0.0012
2858.00,-0.0012
2857.00,-0.0012
2856.00,-0.0013
2855.00,-0.0013
2854.00,-0.0013
2853.00,-0.0013
2852.00,-0.0013
2851.00,-0.0013
2850.00,-0.0013
2849.00,-0.0013
2848.00,-0.0013
2847.00,-0.0013
2846.00,-0.0013
2845.00,-0.0013
2844.00,-0.0013
2843.00,-0.0012
2842.00,-0.0012
2841.00,-0.0012
2840.00,-0.0012
2839.00,-0.0012
2838.00,-0.0012
2837.00,-0.0012
2836.00,-0.0012
2835.00,-0.0012
2834.00,-0.0012
2833.00,-0.0012
2832.00,-0.0012
2831.00,-0.0012
2830.00,-0.0012
2829.00,-0.0012
2828.00,-0.0012
2827.00,-0.0012
2826.00,-0.0012
2825.00,-0.0012
2824.00,-0.0012
2823.00,-0.0012
2822.00,-0.0012
2821.00,-0.0012
2820.00,-0.0012
2819.00,-0.0012
2818.00,-0.0012
2817.00,-0.0012
2816.00,-0.0012
2815.00,-0.0012
2814.00,-0.0012
2813.00,-0.0012
2812.00,-0.0012
2811.00,-0.0012
2810.00,-0.0012
2809.00,-0.0012
2808.00,-0.0012
2807.00,-0.0012
2806.00,-0.0012
2805.00,-0.0012
2804.00,-0.0012
2803.00,-0.0012
2802.00,-0.0012
2801.00,-0.0012
2800.00,-0.0012
2799.00,-0.0012
2798.00,-0.0012
2797.00,-0.0012
2796.00,-0.0012
2795.00,-0.0012
2794.00,-0.0012
2793.00,-0.0012
2792.00,-0.0012
2791.00,-0.0012
2790.00,-0.0012
2789.00,-0.0012
2788.00,-0.0012
2787.00,-0.0012
2786.00,-0.0012
2785.00,-0.0012
2784.00,-0.0012
2783.00,-0.0012
2782.00,-0.0012
2781.00,-0.0012
2780.00,-0.0012
2779.00,-0.0012
2778.00,-0.0012
2777.00,-0.0012
2776.00,-0.0012
2775.00,-0.0012
2774.00,-0.0012
2773.00,-0.0012
2772.00,-0.0012
2771.00,-0.0012
2770.00,-0.0012
2769.00,-0.0012
2768.00,-0.0012
2767.00,-0.0012
2766.00,-0.0012
2765.00,-0.0012
2764.00,-0.0012
2763.00,-0.0012
2762.00,-0.0012
2761.00,-0.0012
2760.00,-0.0012
2759.00,-0.0012
2758.00,-0.0012
2757.00,-0.0012
2756.00,-0.0012
2755.00,-0.0012
2754.00,-0.0012
2753.00,-0.0012
2752.00,-0.0012
2751.00,-0.0012
2750.00,-0.0012
2749.00,-0.0012
2748.00,-0.0012
2747.00,-0.0012
2746.00,-0.0012
2745.00,-0.0012
2744.00,-0.0012
2743.00,-0.0012
2742.00,-0.0012
2741.00,-0.0012
2740.00,-0.0012
2739.00,-0.0012
2738.00,-0.0012
2737.00,-0.0012
2736.00,-0.0012
2735.00,-0.0012
2734.00,-0.0012
2733.00,-0.0012
2732.00,-0.0012
2731.00,-0.0012
2730.00,-0.0012
2729.00,-0.0012
2728.00,-0.0012
2727.00,-0.0012
2726.00,-0.0012
2725.00,-0.0012
2724.00,-0.0012
2723.00,-0.0012
2722.00,-0.0012
2721.00,-0.0012
2720.00,-0.0012
2719.00,-0.0012
2718.00,-0.0012
2717.00,-0.0012
2716.00,-0.0012
2715.00,-0.0012
2714.00,-0.0012
2713.00,-0.0012
2712.00,-0.0012
2711.00,-0.0012
2710.00,-0.0012
2709.00,-0.0012
2708.00,-0.0012
2707.00,-0.0012
2706.00,-0.0012
2705.00,-0.0012
2704.00,-0.0012
2703.00,-0.0012
2702.00,-0.0012
2701.00,-0.0012
2700.00,-0.0012
2699.00,-0.0012
2698.00,-0.0012
2697.00,-0.0012
2696.00,-0.0012
2695.00,-0.0012
2694.00,-0.0012
2693.00,-0.0012
2692.00,-0.0012
2691.00,-0.0012
2690.00,-0.0012
2689.00,-0.0012
2688.00,-0.0012
2687.00,-0.0012
2686.00,-0.0012
2685.00,-0.0012
2684.00,-0.0012
2683.00,-0.0012
2682.00,-0.0012
2681.00,-0.0012
2680.00,-0.0012
2679.00,-0.0012
2678.00,-0.0012
2677.00,-0.0012
2676.00,-0.0012
2675.00,-0.0012
2674.00,-0.0012
2673.00,-0.0012
2672.00,-0.0012
2671.00,-0.0012
2670.00,-0.0012
2669.00,-0.0012
2668.00,-0.0012
2667.00,-0.0012
2666.00,-0.0012
2665.00,-0.0012
2664.00,-0.0012
2663.00,-0.0012
2662.00,-0.0012
2661.00,-0.0012
2660.00,-0.0012
2659.00,-0.0012
2658.00,-0.0012
2657.00,-0.0012
2656.00,-0.0012
2655.00,-0.0012
2654.00,-0.0012
2653.00,-0.0012
2652.00,-0.0012
2651.00,-0.0012
2650.00,-0.0012
2649.00,-0.0012
2648.00,-0.0012
2647.00,-0.0012
2646.00,-0.0012
2645.00,-0.0012
2644.00,-0.0012
2643.00,-0.0012
2642.00,-0.0012
2641.00,-0.0012
2640.00,-0.0012
2639.00,-0.0012
2638.00,-0.0012
2637.00,-0.0012
2636.00,-0.0012
2635.00,-0.0012
2634.00,-0.0012
2633.00,-0.0012
2632.00,-0.0012
2631.00,-0.0012
2630.00,-0.0012
2629.00,-0.0012
2628.00,-0.0012
2627.00,-0.0012
2626.00,-0.0012
2625.00,-0.0012
2624.00,-0.0012
2623.00,-0.0012
2622.00,-0.0012
2621.00,-0.0012
2620.00,-0.0012
2619.00,-0.0012
2618.00,-0.0012
2617.00,-0.0012
2616.00,-0.0012
2615.00,-0.0012
2614.00,-0.0012
2613.00,-0.0012
2612.00,-0.0012
2611.00,-0.0012
2610.00,-0.0012
2609.00,-0.0012
2608.00,-0.0012
2607.00,-0.0012
2606.00,-0.0012
2605.00,-0.0012
2604.00,-0.0012
2603.00,-0.0012
2602.00,-0.0012
2601.00,-0.0012
2600.00,-0.0012
2599.00,-0.0012
2598.00,-0.0012
2597.00,-0.0012
2596.00,-0.0012
2595.00,-0.0012
2594.00,-0.0012
2593.00,-0.0012
2592.00,-0.0012
2591.00,-0.0012
2590.00,-0.0012
2589.00,-0.0012
2588.00,-0.0012
2587.00,-0.0012
2586.00,-0.0012
2585.00,-0.0012
2584.00,-0.0012
2583.00,-0.0012
2582.00,-0.0012
2581.00,-0.0012
2580.00,-0.0012
2579.00,-0.0012
2578.00,-0.0012
2577.00,-0.0012
2576.00,-0.0012
2575.00,-0.0012
2574.00,-0.0012
2573.00,-0.0012
2572.00,-0.0012
2571.00,-0.0012
2570.00,-0.0012
2569.00,-0.0012
2568.00,-0.0012
2567.00,-0.0012
2566.00,-0.0012
2565.00,-0.0012
2564.00,-0.0012
2563.00,-0.0012
2562.00,-0.0012
2561.00,-0.0012
2560.00,-0.0012
2559.00,-0.0012
2558.00,-0.0012
2557.00,-0.0012
2556.00,-0.0012
2555.00,-0.0012
2554.00,-0.0012
2553.00,-0.0012
2552.00,-0.0012
2551.00,-0.0012
2550.00,-0.0012
2549.00,-0.0012
2548.00,-0.0012
2547.00,-0.0012
2546.00,-0.0012
2545.00,-0.0012
2544.00,-0.0012
2543.00,-0.0012
2542.00,-0.0012
2541.00,-0.0012
2540.00,-0.0012
2539.00,-0.0012
2538.00,-0.0012
2537.00,-0.0012
2536.00,-0.0012
2535.00,-0.0012
2534.00,-0.0012
2533.00,-0.0012
2532.00,-0.0012
2531.00,-0.0012
2530.00,-0.0012
2529.00,-0.0012
2528.00,-0.0012
2527.00,-0.0012
2526.00,-0.0012
2525.00,-0.0012
2524.00,-0.0012
2523.00,-0.0012
2522.00,-0.0012
2521.00,-0.0012
2520.00,-0.0012
2519.00,-0.0012
2518.00,-0.0012
2517.00,-0.0012
2516.00,-0.0012
2515.00,-0.0012
2514.00,-0.0012
2513.00,-0.0012
2512.00,-0.0012
2511.00,-0.0012
2510.00,-0.0012
2509.00,-0.0012
2508.00,-0.0012
2507.00,-0.0012
2506.00,-0.0012
2505.00,-0.0012
2504.00,-0.0012
2503.00,-0.0012
2502.00,-0.0012
2501.00,-0.0012
2500.00,-0.0012
2499.00,-0.0012
2498.00,-0.0012
2497.00,-0.0012
2496.00,-0.0012
2495.00,-0.0012
2494.00,-0.0012
2493.00,-0.0012
2492.00,-0.0012
2491.00,-0.0012
2490.00,-0.0012
2489.00,-0.0012
2488.00,-0.0012
2487.00,-0.0012
2486.00,-0.0012
2485.00,-0.0012
2484.00,-0.0012
2483.00,-0.0012
2482.00,-0.0012
2481.00,-0.0012
2480.00,-0.0012
2479.00,-0.0012
2478.00,-0.0012
2477.00,-0.0012
2476.00,-0.0012
2475.00,-0.0012
2474.00,-0.0012
2473.00,-0.0012
2472.00,-0.0012
2471.00,-0.0012
2470.00,-0.0012
2469.00,-0.0012
2468.00,-0.0012
2467.00,-0.0012
2466.00,-0.0012
2465.00,-0.0012
2464.00,-0.0012
2463.00,-0.0012
2462.00,-0.0012
2461.00,-0.0012
2460.00,-0.0012
2459.00,-0.0012
2458.00,-0.0012
2457.00,-0.0012
2456.00,-0.0012
2455.00,-0.0012
2454.00,-0.0012
2453.00,-0.0012
2452.00,-0.0012
2451.00,-0.0012
2450.00,-0.0011
2449.00,-0.0011
2448.00,-0.0012
2447.00,-0.0012
2446.00,-0.0012
2445.00,-0.0012
2444.00,-0.0012
2443.00,-0.0012
2442.00,-0.0012
2441.00,-0.0012
2440.00,-0.0012
2439.00,-0.0012
2438.00,-0.0012
2437.00,-0.0012
2436.00,-0.0012
2435.00,-0.0012
2434.00,-0.0012
2433.00,-0.0012
2432.00,-0.0012
2431.00,-0.0012
2430.00,-0.0012
2429.00,-0.0012
2428.00,-0.0012
2427.00,-0.0012
2426.00,-0.0012
2425.00,-0.0012
2424.00,-0.0012
2423.00,-0.0012
2422.00,-0.0012
2421.00,-0.0012
2420.00,-0.0012
2419.00,-0.0012
2418.00,-0.0012
2417.00,-0.0012
2416.00,-0.0012
2415.00,-0.0012
2414.00,-0.0012
2413.00,-0.0012
2412.00,-0.0012
2411.00,-0.0012
2410.00,-0.0012
2409.00,-0.0012
2408.00,-0.0012
2407.00,-0.0012
2406.00,-0.0012
2405.00,-0.0012
2404.00,-0.0012
2403.00,-0.0012
2402.00,-0.0012
2401.00,-0.0012
2400.00,-0.0012
2399.00,-0.0012
2398.00,-0.0012
2397.00,-0.0012
2396.00,-0.0012
2395.00,-0.0012
2394.00,-0.0012
2393.00,-0.0012
2392.00,-0.0012
2391.00,-0.0012
2390.00,-0.0012
2389.00,-0.0012
2388.00,-0.0011
2387.00,-0.0011
2386.00,-0.0011
2385.00,-0.0011
2384.00,-0.0011
2383.00,-0.0011
2382.00,-0.0011
2381.00,-0.0011
2380.00,-0.0011
2379.00,-0.0011
2378.00,-0.0012
2377.00,-0.0012
2376.00,-0.0011
2375.00,-0.0011
2374.00,-0.0011
2373.00,-0.0011
2372.00,-0.0011
2371.00,-0.0011
2370.00,-0.0011
2369.00,-0.0011
2368.00,-0.0011
2367.00,-0.0011
2366.00,-0.0011
2365.00,-0.0011
2364.00,-0.0010
2363.00,-0.0011
2362.00,-0.0010
2361.00,-0.0010
2360.00,-0.0010
2359.00,-0.0010
2358.00,-0.0010
2357.00,-0.0010
2356.00,-0.0009
2355.00,-0.0009
2354.00,-0.0009
2353.00,-0.0010
2352.00,-0.0010
2351.00,-0.0011
2350.00,-0.0010
2349.00,-0.0010
2348.00,-0.0009
2347.00,-0.0008
2346.00,-0.0008
2345.00,-0.0009
2344.00,-0.0010
2343.00,-0.0009
2342.00,-0.0009
2341.00,-0.0009
2340.00,-0.0009
2339.00,-0.0009
2338.00,-0.0010
2337.00,-0.0010
2336.00,-0.0010
2335.00,-0.0010
2334.00,-0.0010
2333.00,-0.0010
2332.00,-0.0010
2331.00,-0.0010
2330.00,-0.0010
2329.00,-0.0010
2328.00,-0.0010
2327.00,-0.0010
2326.00,-0.0009
2325.00,-0.0009
2324.00,-0.0010
2323.00,-0.0010
2322.00,-0.0010
2321.00,-0.0010
2320.00,-0.0010
2319.00,-0.0010
2318.00,-0.0010
2317.00,-0.0010
2316.00,-0.0010
2315.00,-0.0010
2314.00,-0.0010
2313.00,-0.0010
2312.00,-0.0010
2311.00,-0.0010
2310.00,-0.0010
2309.00,-0.0010
2308.00,-0.0010
2307.00,-0.0010
2306.00,-0.0010
2305.00,-0.0010
2304.00,-0.0010
2303.00,-0.0011
2302.00,-0.0011
2301.00,-0.0011
2300.00,-0.0011
2299.00,-0.0011
2298.00,-0.0011
2297.00,-0.0011
2296.00,-0.0011
2295.00,-0.0011
2294.00,-0.0011
2293.00,-0.0011
2292.00,-0.0011
2291.00,-0.0011
2290.00,-0.0011
2289.00,-0.0011
2288.00,-0.0011
2287.00,-0.0011
2286.00,-0.0011
2285.00,-0.0011
2284.00,-0.0011
2283.00,-0.0011
2282.00,-0.0011
2281.00,-0.0011
2280.00,-0.0011
2279.00,-0.0011
2278.00,-0.0011
2277.00,-0.0011
2276.00,-0.0011
2275.00,-0.0011
2274.00,-0.0011
2273.00,-0.0011
2272.00,-0.0011
2271.00,-0.0011
2270.00,-0.0011
2269.00,-0.0011
2268.00,-0.0011
2267.00,-0.0011
2266.00,-0.0011
2265.00,-0.0012
2264.00,-0.0012
2263.00,-0.0012
2262.00,-0.0012
2261.00,-0.0012
2260.00,-0.0011
2259.00,-0.0011
2258.00,-0.0011
2257.00,-0.0011
2256.00,-0.0011
2255.00,-0.0012
2254.00,-0.0012
2253.00,-0.0012
2252.00,-0.0011
2251.00,-0.0011
2250.00,-0.0011
2249.00,-0.0011
2248.00,-0.0011
2247.00,-0.0011
2246.00,-0.0011
2245.00,-0.0011
2244.00,-0.0011
2243.00,-0.0011
2242.00,-0.0011
2241.00,-0.0011
2240.00,-0.0011
2239.00,-0.0011
2238.00,-0.0011
2237.00,-0.0011
2236.00,-0.0011
2235.00,-0.0011
2234.00,-0.0011
2233.00,-0.0011
2232.00,-0.0011
2231.00,-0.0011
2230.00,-0.0011
2229.00,-0.0011
2228.00,-0.0011
2227.00,-0.0012
2226.00,-0.0012
2225.00,-0.0012
2224.00,-0.0012
2223.00,-0.0012
2222.00,-0.0011
2221.00,-0.0011
2220.00,-0.0011
2219.00,-0.0011
2218.00,-0.0011
2217.00,-0.0011
2216.00,-0.0011
2215.00,-0.0011
2214.00,-0.0011
2213.00,-0.0011
2212.00,-0.0011
2211.00,-0.0011
2210.00,-0.0011
2209.00,-0.0011
2208.00,-0.0012
2207.00,-0.0011
2206.00,-0.0011
2205.00,-0.0011
2204.00,-0.0011
2203.00,-0.0011
2202.00,-0.0012
2201.00,-0.0012
2200.00,-0.0012
2199.00,-0.0012
2198.00,-0.0012
2197.00,-0.0012
2196.00,-0.0011
2195.00,-0.0011
2194.00,-0.0011
2193.00,-0.0011
2192.00,-0.0011
2191.00,-0.0011
2190.00,-0.0011
2189.00,-0.0011
2188.00,-0.0011
2187.00,-0.0011
2186.00,-0.0011
2185.00,-0.0011
2184.00,-0.0011
2183.00,-0.0011
2182.00,-0.0011
2181.00,-0.0011
2180.00,-0.0011
2179.00,-0.0011
2178.00,-0.0011
2177.00,-0.0011
2176.00,-0.0011
2175.00,-0.0011
2174.00,-0.0011
2173.00,-0.0011
2172.00,-0.0011
2171.00,-0.0011
2170.00,-0.0011
2169.00,-0.0011
2168.00,-0.0011
2167.00,-0.0011
2166.00,-0.0011
2165.00,-0.0011
2164.00,-0.0011
2163.00,-0.0011
2162.00,-0.0011
2161.00,-0.0011
2160.00,-0.0011
2159.00,-0.0011
2158.00,-0.0011
2157.00,-0.0011
2156.00,-0.0011
2155.00,-0.0011
2154.00,-0.0011
2153.00,-0.0011
2152.00,-0.0011
2151.00,-0.0011
2150.00,-0.0011
2149.00,-0.0011
2148.00,-0.0011
2147.00,-0.0011
2146.00,-0.0011
2145.00,-0.0011
2144.00,-0.0011
2143.00,-0.0011
2142.00,-0.0012
2141.00,-0.0012
2140.00,-0.0011
2139.00,-0.0011
2138.00,-0.0011
2137.00,-0.0011
2136.00,-0.0011
2135.00,-0.0011
2134.00,-0.0011
2133.00,-0.0011
2132.00,-0.0011
2131.00,-0.0011
2130.00,-0.0011
2129.00,-0.0011
2128.00,-0.0011
2127.00,-0.0011
2126.00,-0.0011
2125.00,-0.0011
2124.00,-0.0011
2123.00,-0.0011
2122.00,-0.0011
2121.00,-0.0011
2120.00,-0.0011
2119.00,-0.0011
2118.00,-0.0011
2117.00,-0.0011
2116.00,-0.0011
2115.00,-0.0011
2114.00,-0.0011
2113.00,-0.0011
2112.00,-0.0011
2111.00,-0.0011
2110.00,-0.0011
2109.00,-0.0011
2108.00,-0.0011
2107.00,-0.0011
2106.00,-0.0011
2105.00,-0.0011
2104.00,-0.0011
2103.00,-0.0011
2102.00,-0.0011
2101.00,-0.0011
2100.00,-0.0011
2099.00,-0.0011
2098.00,-0.0011
2097.00,-0.0011
2096.00,-0.0011
2095.00,-0.0011
2094.00,-0.0011
2093.00,-0.0011
2092.00,-0.0011
2091.00,-0.0011
2090.00,-0.0011
2089.00,-0.0011
2088.00,-0.0011
2087.00,-0.0011
2086.00,-0.0011
2085.00,-0.0011
2084.00,-0.0011
2083.00,-0.0011
2082.00,-0.0011
2081.00,-0.0011
2080.00,-0.0011
2079.00,-0.0011
2078.00,-0.0011
2077.00,-0.0011
2076.00,-0.0011
2075.00,-0.0011
2074.00,-0.0011
2073.00,-0.0011
2072.00,-0.0011
2071.00,-0.0011
2070.00,-0.0011
2069.00,-0.0011
2068.00,-0.0011
2067.00,-0.0011
2066.00,-0.0011
2065.00,-0.0011
2064.00,-0.0011
2063.00,-0.0011
2062.00,-0.0011
2061.00,-0.0011
2060.00,-0.0011
2059.00,-0.0011
2058.00,-0.0011
2057.00,-0.0011
2056.00,-0.0011
2055.00,-0.0011
2054.00,-0.0011
2053.00,-0.0011
2052.00,-0.0011
2051.00,-0.0011
2050.00,-0.0011
2049.00,-0.0011
2048.00,-0.0011
2047.00,-0.0011
2046.00,-0.0011
2045.00,-0.0011
2044.00,-0.0011
2043.00,-0.0011
2042.00,-0.0011
2041.00,-0.0011
2040.00,-0.0011
2039.00,-0.0011
2038.00,-0.0011
2037.00,-0.0011
2036.00,-0.0011
2035.00,-0.0011
2034.00,-0.0011
2033.00,-0.0011
2032.00,-0.0011
2031.00,-0.0011
2030.00,-0.0011
2029.00,-0.0011
2028.00,-0.0011
2027.00,-0.0011
2026.00,-0.0011
2025.00,-0.0011
2024.00,-0.0011
2023.00,-0.0011
2022.00,-0.0011
2021.00,-0.0011
2020.00,-0.0011
2019.00,-0.0011
2018.00,-0.0011
2017.00,-0.0011
2016.00,-0.0011
2015.00,-0.0011
2014.00,-0.0011
2013.00,-0.0011
2012.00,-0.0011
2011.00,-0.0011
2010.00,-0.0011
2009.00,-0.0011
2008.00,-0.0011
2007.00,-0.0011
2006.00,-0.0011
2005.00,-0.0011
2004.00,-0.0011
2003.00,-0.0011
2002.00,-0.0011
2001.00,-0.0011
2000.00,-0.0011
1999.00,-0.0011
1998.00,-0.0011
1997.00,-0.0011
1996.00,-0.0011
1995.00,-0.0011
1994.00,-0.0011
1993.00,-0.0011
1992.00,-0.0011
1991.00,-0.0011
1990.00,-0.0011
1989.00,-0.0011
1988.00,-0.0011
1987.00,-0.0011
1986.00,-0.0011
1985.00,-0.0011
1984.00,-0.0011
1983.00,-0.0011
1982.00,-0.0011
1981.00,-0.0011
1980.00,-0.0011
1979.00,-0.0011
1978.00,-0.0011
1977.00,-0.0011
1976.00,-0.0011
1975.00,-0.0011
1974.00,-0.0011
1973.00,-0.0011
1972.00,-0.0011
1971.00,-0.0011
1970.00,-0.0011
1969.00,-0.0011
1968.00,-0.0012
1967.00,-0.0012
1966.00,-0.0012
1965.00,-0.0011
1964.00,-0.0011
1963.00,-0.0011
1962.00,-0.0011
1961.00,-0.0011
1960.00,-0.0011
1959.00,-0.0011
1958.00,-0.0011
1957.00,-0.0011
1956.00,-0.0011
1955.00,-0.0011
1954.00,-0.0011
1953.00,-0.0011
1952.00,-0.0011
1951.00,-0.0011
1950.00,-0.0011
1949.00,-0.0011
1948.00,-0.0011
1947.00,-0.0011
1946.00,-0.0011
1945.00,-0.0011
1944.00,-0.0011
1943.00,-0.0011
1942.00,-0.0011
1941.00,-0.0011
1940.00,-0.0011
1939.00,-0.0011
1938.00,-0.0011
1937.00,-0.0011
1936.00,-0.0011
1935.00,-0.0011
1934.00,-0.0011
1933.00,-0.0011
1932.00,-0.0011
1931.00,-0.0011
1930.00,-0.0011
1929.00,-0.0011
1928.00,-0.0011
1927.00,-0.0011
1926.00,-0.0011
1925.00,-0.0011
1924.00,-0.0012
1923.00,-0.0012
1922.00,-0.0011
1921.00,-0.0011
1920.00,-0.0011
1919.00,-0.0011
1918.00,-0.0011
1917.00,-0.0011
1916.00,-0.0011
1915.00,-0.0011
1914.00,-0.0011
1913.00,-0.0011
1912.00,-0.0011
1911.00,-0.0011
1910.00,-0.0011
1909.00,-0.0011
1908.00,-0.0011
1907.00,-0.0011
1906.00,-0.0011
1905.00,-0.0011
1904.00,-0.0011
1903.00,-0.0011
1902.00,-0.0011
1901.00,-0.0011
1900.00,-0.0011
1899.00,-0.0011
1898.00,-0.0011
1897.00,-0.0011
1896.00,-0.0011
1895.00,-0.0011
1894.00,-0.0011
1893.00,-0.0011
1892.00,-0.0011
1891.00,-0.0011
1890.00,-0.0011
1889.00,-0.0011
1888.00,-0.0011
1887.00,-0.0011
1886.00,-0.0011
1885.00,-0.0011
1884.00,-0.0011
1883.00,-0.0011
1882.00,-0.0011
1881.00,-0.0011
1880.00,-0.0011
1879.00,-0.0011
1878.00,-0.0011
1877.00,-0.0011
1876.00,-0.0011
1875.00,-0.0011
1874.00,-0.0011
1873.00,-0.0011
1872.00,-0.0011
1871.00,-0.0011
1870.00,-0.0011
1869.00,-0.0011
1868.00,-0.0011
1867.00,-0.0011
1866.00,-0.0011
1865.00,-0.0011
1864.00,-0.0011
1863.00,-0.0011
1862.00,-0.0011
1861.00,-0.0011
1860.00,-0.0011
1859.00,-0.0011
1858.00,-0.0011
1857.00,-0.0011
1856.00,-0.0011
1855.00,-0.0011
1854.00,-0.0011
1853.00,-0.0011
1852.00,-0.0011
1851.00,-0.0011
1850.00,-0.0011
1849.00,-0.0011
1848.00,-0.0011
1847.00,-0.0011
1846.00,-0.0011
1845.00,-0.0011
1844.00,-0.0011
1843.00,-0.0011
1842.00,-0.0011
1841.00,-0.0011
1840.00,-0.0011
1839.00,-0.0011
1838.00,-0.0011
1837.00,-0.0011
1836.00,-0.0011
1835.00,-0.0011
1834.00,-0.0011
1833.00,-0.0011
1832.00,-0.0011
1831.00,-0.0011
1830.00,-0.0012
1829.00,-0.0011
1828.00,-0.0011
1827.00,-0.0011
1826.00,-0.0011
1825.00,-0.0011
1824.00,-0.0011
1823.00,-0.0011
1822.00,-0.0011
1821.00,-0.0011
1820.00,-0.0011
1819.00,-0.0011
1818.00,-0.0011
1817.00,-0.0011
1816.00,-0.0011
1815.00,-0.0011
1814.00,-0.0011
1813.00,-0.0011
1812.00,-0.0011
1811.00,-0.0011
1810.00,-0.0011
1809.00,-0.0011
1808.00,-0.0011
1807.00,-0.0011
1806.00,-0.0011
1805.00,-0.0011
1804.00,-0.0011
1803.00,-0.0011
1802.00,-0.0011
1801.00,-0.0011
1800.00,-0.0011
1799.00,-0.0011
1798.00,-0.0011
1797.00,-0.0011
1796.00,-0.0011
1795.00,-0.0011
1794.00,-0.0010
1793.00,-0.0010
1792.00,-0.0010
1791.00,-0.0011
1790.00,-0.0010
1789.00,-0.0010
1788.00,-0.0010
1787.00,-0.0010
1786.00,-0.0010
1785.00,-0.0010
1784.00,-0.0010
1783.00,-0.0010
1782.00,-0.0011
1781.00,-0.0011
1780.00,-0.0011
1779.00,-0.0011
1778.00,-0.0010
1777.00,-0.0010
1776.00,-0.0011
1775.00,-0.0011
1774.00,-0.0010
1773.00,-0.0010
1772.00,-0.0010
1771.00,-0.0010
1770.00,-0.0010
1769.00,-0.0010
1768.00,-0.0010
1767.00,-0.0010
1766.00,-0.0010
1765.00,-0.0010
1764.00,-0.0010
1763.00,-0.0011
1762.00,-0.0011
1761.00,-0.0011
1760.00,-0.0011
1759.00,-0.0011
1758.00,-0.0010
1757.00,-0.0010
1756.00,-0.0010
1755.00,-0.0010
1754.00,-0.0009
1753.00,-0.0008
1752.00,-0.0007
1751.00,-0.0008
1750.00,-0.0008
1749.00,-0.0009
1748.00,-0.0009
1747.00,-0.0010
1746.00,-0.0010
1745.00,-0.0010
1744.00,-0.0010
1743.00,-0.0011
1742.00,-0.0011
1741.00,-0.0011
1740.00,-0.0011
1739.00,-0.0011
1738.00,-0.0011
1737.00,-0.0010
1736.00,-0.0010
1735.00,-0.0009
1734.00,-0.0008
1733.00,-0.0009
1732.00,-0.0009
1731.00,-0.0009
1730.00,-0.0010
1729.00,-0.0010
1728.00,-0.0010
1727.00,-0.0011
1726.00,-0.0011
1725.00,-0.0011
1724.00,-0.0011
1723.00,-0.0011
1722.00,-0.0010
1721.00,-0.0010
1720.00,-0.0010
1719.00,-0.0010
1718.00,-0.0009
1717.00,-0.0009
1716.00,-0.0009
1715.00,-0.0010
1714.00,-0.0010
1713.00,-0.0010
1712.00,-0.0010
1711.00,-0.0010
1710.00,-0.0010
1709.00,-0.0010
1708.00,-0.0011
1707.00,-0.0011
1706.00,-0.0011
1705.00,-0.0011
1704.00,-0.0011
1703.00,-0.0011
1702.00,-0.0010
1701.00,-0.0010
1700.00,-0.0010
1699.00,-0.0010
1698.00,-0.0009
1697.00,-0.0008
1696.00,-0.0009
1695.00,-0.0010
1694.00,-0.0010
1693.00,-0.0010
1692.00,-0.0010
1691.00,-0.0010
1690.00,-0.0010
1689.00,-0.0010
1688.00,-0.0010
1687.00,-0.0010
1686.00,-0.0009
1685.00,-0.0009
1684.00,-0.0009
1683.00,-0.0010
1682.00,-0.0010
1681.00,-0.0010
1680.00,-0.0010
1679.00,-0.0010
1678.00,-0.0010
1677.00,-0.0010
1676.00,-0.0010
1675.00,-0.0010
1674.00,-0.0010
1673.00,-0.0010
1672.00,-0.0010
1671.00,-0.0010
1670.00,-0.0010
1669.00,-0.0010
1668.00,-0.0010
1667.00,-0.0010
1666.00,-0.0010
1665.00,-0.0010
1664.00,-0.0010
1663.00,-0.0011
1662.00,-0.0011
1661.00,-0.0010
1660.00,-0.0010
1659.00,-0.0010
1658.00,-0.0010
1657.00,-0.0010
1656.00,-0.0011
1655.00,-0.0011
1654.00,-0.0011
1653.00,-0.0011
1652.00,-0.0011
1651.00,-0.0011
1650.00,-0.0010
1649.00,-0.0010
1648.00,-0.0009
1647.00,-0.0009
1646.00,-0.0009
1645.00,-0.0009
1644.00,-0.0010
1643.00,-0.0010
1642.00,-0.0010
1641.00,-0.0010
1640.00,-0.0010
1639.00,-0.0010
1638.00,-0.0010
1637.00,-0.0010
1636.00,-0.0010
1635.00,-0.0010
1634.00,-0.0010
1633.00,-0.0010
1632.00,-0.0010
1631.00,-0.0010
1630.00,-0.0010
1629.00,-0.0010
1628.00,-0.0010
1627.00,-0.0010
1626.00,-0.0010
1625.00,-0.0010
1624.00,-0.0011
1623.00,-0.0011
1622.00,-0.0011
1621.00,-0.0011
1620.00,-0.0011
1619.00,-0.0011
1618.00,-0.0011
1617.00,-0.0011
1616.00,-0.0011
1615.00,-0.0011
1614.00,-0.0011
1613.00,-0.0011
1612.00,-0.0011
1611.00,-0.0011
1610.00,-0.0011
1609.00,-0.0011
1608.00,-0.0011
1607.00,-0.0011
1606.00,-0.0011
1605.00,-0.0011
1604.00,-0.0011
1603.00,-0.0011
1602.00,-0.0011
1601.00,-0.0011
1600.00,-0.0011
1599.00,-0.0011
1598.00,-0.0011
1597.00,-0.0011
1596.00,-0.0011
1595.00,-0.0011
1594.00,-0.0011
1593.00,-0.0011
1592.00,-0.0011
1591.00,-0.0011
1590.00,-0.0011
1589.00,-0.0011
1588.00,-0.0011
1587.00,-0.0011
1586.00,-0.0011
1585.00,-0.0011
1584.00,-0.0011
1583.00,-0.0011
1582.00,-0.0011
1581.00,-0.0011
1580.00,-0.0011
1579.00,-0.0012
1578.00,-0.0012
1577.00,-0.0012
1576.00,-0.0011
1575.00,-0.0011
1574.00,-0.0011
1573.00,-0.0011
1572.00,-0.0011
1571.00,-0.0011
1570.00,-0.0011
1569.00,-0.0011
1568.00,-0.0010
1567.00,-0.0010
1566.00,-0.0010
1565.00,-0.0010
1564.00,-0.0010
1563.00,-0.0011
1562.00,-0.0011
1561.00,-0.0011
1560.00,-0.0010
1559.00,-0.0009
1558.00,-0.0009
1557.00,-0.0009
1556.00,-0.0009
1555.00,-0.0009
1554.00,-0.0009
1553.00,-0.0009
1552.00,-0.0009
1551.00,-0.0009
1550.00,-0.0009
1549.00,-0.0009
1548.00,-0.0009
1547.00,-0.0009
1546.00,-0.0009
1545.00,-0.0009
1544.00,-0.0010
1543.00,-0.0010
1542.00,-0.0009
1541.00,-0.0009
1540.00,-0.0009
1539.00,-0.0009
1538.00,-0.0009
1537.00,-0.0009
1536.00,-0.0009
1535.00,-0.0009
1534.00,-0.0009
1533.00,-0.0010
1532.00,-0.0010
1531.00,-0.0010
1530.00,-0.0009
1529.00,-0.0009
1528.00,-0.0010
1527.00,-0.0010
1526.00,-0.0009
1525.00,-0.0009
1524.00,-0.0009
1523.00,-0.0009
1522.00,-0.0009
1521.00,-0.0009
1520.00,-0.0009
1519.00,-0.0009
1518.00,-0.0009
1517.00,-0.0009
1516.00,-0.0009
1515.00,-0.0009
1514.00,-0.0009
1513.00,-0.0008
1512.00,-0.0009
1511.00,-0.0009
1510.00,-0.0009
1509.00,-0.0009
1508.00,-0.0009
1507.00,-0.0009
1506.00,-0.0009
1505.00,-0.0009
1504.00,-0.0009
1503.00,-0.0010
1502.00,-0.0010
1501.00,-0.0010
1500.00,-0.0010
1499.00,-0.0010
1498.00,-0.0010
1497.00,-0.0010
1496.00,-0.0010
1495.00,-0.0010
1494.00,-0.0010
1493.00,-0.0010
1492.00,-0.0010
1491.00,-0.0010
1490.00,-0.0010
1489.00,-0.0010
1488.00,-0.0010
1487.00,-0.0010
1486.00,-0.0010
1485.00,-0.0010
1484.00,-0.0010
1483.00,-0.0011
1482.00,-0.0011
1481.00,-0.0011
1480.00,-0.0011
1479.00,-0.0010
1478.00,-0.0010
1477.00,-0.0010
1476.00,-0.0010
1475.00,-0.0010
1474.00,-0.0009
1473.00,-0.0009
1472.00,-0.0009
1471.00,-0.0009
1470.00,-0.0010
1469.00,-0.0010
1468.00,-0.0010
1467.00,-0.0011
1466.00,-0.0011
1465.00,-0.0011
1464.00,-0.0010
1463.00,-0.0010
1462.00,-0.0010
1461.00,-0.0010
1460.00,-0.0010
1459.00,-0.0010
1458.00,-0.0010
1457.00,-0.0010
1456.00,-0.0009
1455.00,-0.0010
1454.00,-0.0010
1453.00,-0.0010
1452.00,-0.0010
1451.00,-0.0010
1450.00,-0.0010
1449.00,-0.0010
1448.00,-0.0011
1447.00,-0.0011
1446.00,-0.0011
1445.00,-0.0011
1444.00,-0.0011
1443.00,-0.0011
1442.00,-0.0011
1441.00,-0.0011
1440.00,-0.0011
1439.00,-0.0011
1438.00,-0.0011
1437.00,-0.0011
1436.00,-0.0010
1435.00,-0.0010
1434.00,-0.0010
1433.00,-0.0010
1432.00,-0.0010
1431.00,-0.0011
1430.00,-0.0011
1429.00,-0.0011
1428.00,-0.0011
1427.00,-0.0011
1426.00,-0.0011
1425.00,-0.0010
1424.00,-0.0010
1423.00,-0.0010
1422.00,-0.0011
1421.00,-0.0010
1420.00,-0.0010
1419.00,-0.0010
1418.00,-0.0010
1417.00,-0.0010
1416.00,-0.0010
1415.00,-0.0010
1414.00,-0.0011
1413.00,-0.0011
1412.00,-0.0011
1411.00,-0.0011
1410.00,-0.0011
1409.00,-0.0011
1408.00,-0.0011
1407.00,-0.0011
1406.00,-0.0011
1405.00,-0.0011
1404.00,-0.0011
1403.00,-0.0011
1402.00,-0.0011
1401.00,-0.0011
1400.00,-0.0010
1399.00,-0.0010
1398.00,-0.0010
1397.00,-0.0010
1396.00,-0.0010
1395.00,-0.0010
1394.00,-0.0011
1393.00,-0.0011
1392.00,-0.0010
1391.00,-0.0010
1390.00,-0.0011
1389.00,-0.0011
1388.00,-0.0011
1387.00,-0.0011
1386.00,-0.0011
1385.00,-0.0011
1384.00,-0.0011
1383.00,-0.0011
1382.00,-0.0011
1381.00,-0.0011
1380.00,-0.0011
1379.00,-0.0011
1378.00,-0.0011
1377.00,-0.0011
1376.00,-0.0011
1375.00,-0.0011
1374.00,-0.0011
1373.00,-0.0011
1372.00,-0.0011
1371.00,-0.0011
1370.00,-0.0011
1369.00,-0.0011
1368.00,-0.0011
1367.00,-0.0011
1366.00,-0.0011
1365.00,-0.0011
1364.00,-0.0011
1363.00,-0.0011
1362.00,-0.0011
1361.00,-0.0011
1360.00,-0.0011
1359.00,-0.0011
1358.00,-0.0011
1357.00,-0.0011
1356.00,-0.0011
1355.00,-0.0011
1354.00,-0.0011
1353.00,-0.0011
1352.00,-0.0011
1351.00,-0.0011
1350.00,-0.0011
1349.00,-0.0011
1348.00,-0.0011
1347.00,-0.0011
1346.00,-0.0011
1345.00,-0.0011
1344.00,-0.0011
1343.00,-0.0011
1342.00,-0.0011
1341.00,-0.0011
1340.00,-0.0011
1339.00,-0.0011
1338.00,-0.0011
1337.00,-0.0011
1336.00,-0.0011
1335.00,-0.0011
1334.00,-0.0011
1333.00,-0.0011
1332.00,-0.0011
1331.00,-0.0011
1330.00,-0.0011
1329.00,-0.0011
1328.00,-0.0011
1327.00,-0.0011
1326.00,-0.0011
1325.00,-0.0011
1324.00,-0.0011
1323.00,-0.0011
1322.00,-0.0011
1321.00,-0.0011
1320.00,-0.0011
1319.00,-0.0011
1318.00,-0.0011
1317.00,-0.0011
1316.00,-0.0011
1315.00,-0.0011
1314.00,-0.0011
1313.00,-0.0011
1312.00,-0.0011
1311.00,-0.0011
1310.00,-0.0011
1309.00,-0.0011
1308.00,-0.0011
1307.00,-0.0011
1306.00,-0.0011
1305.00,-0.0011
1304.00,-0.0011
1303.00,-0.0011
1302.00,-0.0011
1301.00,-0.0011
1300.00,-0.0011
1299.00,-0.0011
1298.00,-0.0011
1297.00,-0.0012
1296.00,-0.0011
1295.00,-0.0011
1294.00,-0.0011
1293.00,-0.0011
1292.00,-0.0011
1291.00,-0.0011
1290.00,-0.0012
1289.00,-0.0012
1288.00,-0.0012
1287.00,-0.0011
1286.00,-0.0011
1285.00,-0.0011
1284.00,-0.0011
1283.00,-0.0011
1282.00,-0.0011
1281.00,-0.0012
1280.00,-0.0012
1279.00,-0.0012
1278.00,-0.0011
1277.00,-0.0011
1276.00,-0.0011
1275.00,-0.0011
1274.00,-0.0011
1273.00,-0.0011
1272.00,-0.0011
1271.00,-0.0011
1270.00,-0.0012
1269.00,-0.0012
1268.00,-0.0012
1267.00,-0.0012
1266.00,-0.0012
1265.00,-0.0012
1264.00,-0.0012
1263.00,-0.0012
1262.00,-0.0012
1261.00,-0.0012
1260.00,-0.0012
1259.00,-0.0012
1258.00,-0.0012
1257.00,-0.0012
1256.00,-0.0012
1255.00,-0.0012
1254.00,-0.0012
1253.00,-0.0012
1252.00,-0.0012
1251.00,-0.0012
1250.00,-0.0012
1249.00,-0.0012
1248.00,-0.0012
1247.00,-0.0012
1246.00,-0.0012
1245.00,-0.0012
1244.00,-0.0012
1243.00,-0.0012
1242.00,-0.0012
1241.00,-0.0012
1240.00,-0.0012
1239.00,-0.0012
1238.00,-0.0012
1237.00,-0.0012
1236.00,-0.0012
1235.00,-0.0012
1234.00,-0.0012
1233.00,-0.0012
1232.00,-0.0012
1231.00,-0.0012
1230.00,-0.0012
1229.00,-0.0012
1228.00,-0.0011
1227.00,-0.0012
1226.00,-0.0012
1225.00,-0.0012
1224.00,-0.0012
1223.00,-0.0011
1222.00,-0.0012
1221.00,-0.0012
1220.00,-0.0012
1219.00,-0.0012
1218.00,-0.0012
1217.00,-0.0012
1216.00,-0.0012
1215.00,-0.0012
1214.00,-0.0012
1213.00,-0.0012
1212.00,-0.0012
1211.00,-0.0012
1210.00,-0.0012
1209.00,-0.0012
1208.00,-0.0012
1207.00,-0.0012
1206.00,-0.0012
1205.00,-0.0012
1204.00,-0.0012
1203.00,-0.0012
1202.00,-0.0012
1201.00,-0.0012
1200.00,-0.0012
1199.00,-0.0012
1198.00,-0.0012
1197.00,-0.0012
1196.00,-0.0012
1195.00,-0.0012
1194.00,-0.0012
1193.00,-0.0012
1192.00,-0.0012
1191.00,-0.0012
1190.00,-0.0012
1189.00,-0.0012
1188.00,-0.0012
1187.00,-0.0012
1186.00,-0.0012
1185.00,-0.0012
1184.00,-0.0012
1183.00,-0.0012
1182.00,-0.0012
1181.00,-0.0012
1180.00,-0.0012
1179.00,-0.0012
1178.00,-0.0012
1177.00,-0.0012
1176.00,-0.0012
1175.00,-0.0012
1174.00,-0.0012
1173.00,-0.0012
1172.00,-0.0012
1171.00,-0.0012
1170.00,-0.0012
1169.00,-0.0012
1168.00,-0.0012
1167.00,-0.0012
1166.00,-0.0012
1165.00,-0.0012
1164.00,-0.0012
1163.00,-0.0012
1162.00,-0.0012
1161.00,-0.0012
1160.00,-0.0012
1159.00,-0.0012
1158.00,-0.0012
1157.00,-0.0012
1156.00,-0.0012
1155.00,-0.0012
1154.00,-0.0012
1153.00,-0.0012
1152.00,-0.0012
1151.00,-0.0012
1150.00,-0.0012
1149.00,-0.0012
1148.00,-0.0012
1147.00,-0.0012
1146.00,-0.0012
1145.00,-0.0012
1144.00,-0.0012
1143.00,-0.0012
1142.00,-0.0012
1141.00,-0.0012
1140.00,-0.0012
1139.00,-0.0012
1138.00,-0.0012
1137.00,-0.0012
1136.00,-0.0012
1135.00,-0.0012
1134.00,-0.0012
1133.00,-0.0012
1132.00,-0.0012
1131.00,-0.0012
1130.00,-0.0012
1129.00,-0.0012
1128.00,-0.0012
1127.00,-0.0012
1126.00,-0.0012
1125.00,-0.0012
1124.00,-0.0012
1123.00,-0.0012
1122.00,-0.0012
1121.00,-0.0012
1120.00,-0.0013
1119.00,-0.0013
1118.00,-0.0013
1117.00,-0.0013
1116.00,-0.0013
1115.00,-0.0013
1114.00,-0.0013
1113.00,-0.0013
1112.00,-0.0012
1111.00,-0.0012
1110.00,-0.0012
1109.00,-0.0012
1108.00,-0.0012
1107.00,-0.0012
1106.00,-0.0012
1105.00,-0.0012
1104.00,-0.0012
1103.00,-0.0012
1102.00,-0.0012
1101.00,-0.0012
1100.00,-0.0012
1099.00,-0.0012
1098.00,-0.0012
1097.00,-0.0012
1096.00,-0.0012
1095.00,-0.0012
1094.00,-0.0012
1093.00,-0.0012
1092.00,-0.0012
1091.00,-0.0012
1090.00,-0.0012
1089.00,-0.0012
1088.00,-0.0012
1087.00,-0.0012
1086.00,-0.0012
1085.00,-0.0012
1084.00,-0.0012
1083.00,-0.0012
1082.00,-0.0012
1081.00,-0.0012
1080.00,-0.0012
1079.00,-0.0012
1078.00,-0.0012
1077.00,-0.0012
1076.00,-0.0012
1075.00,-0.0012
1074.00,-0.0012
1073.00,-0.0012
1072.00,-0.0012
1071.00,-0.0012
1070.00,-0.0012
1069.00,-0.0012
1068.00,-0.0012
1067.00,-0.0012
1066.00,-0.0012
1065.00,-0.0012
1064.00,-0.0012
1063.00,-0.0011
1062.00,-0.0011
1061.00,-0.0011
1060.00,-0.0011
1059.00,-0.0011
1058.00,-0.0012
1057.00,-0.0012
1056.00,-0.0012
1055.00,-0.0012
1054.00,-0.0012
1053.00,-0.0012
1052.00,-0.0012
1051.00,-0.0012
1050.00,-0.0012
1049.00,-0.0012
1048.00,-0.0012
1047.00,-0.0012
1046.00,-0.0012
1045.00,-0.0011
1044.00,-0.0011
1043.00,-0.0011
1042.00,-0.0011
1041.00,-0.0011
1040.00,-0.0011
1039.00,-0.0011
1038.00,-0.0011
1037.00,-0.0011
1036.00,-0.0011
1035.00,-0.0011
1034.00,-0.0012
1033.00,-0.0011
1032.00,-0.0011
1031.00,-0.0011
1030.00,-0.0011
1029.00,-0.0011
1028.00,-0.0011
1027.00,-0.0011
1026.00,-0.0011
1025.00,-0.0011
1024.00,-0.0011
1023.00,-0.0011
1022.00,-0.0011
1021.00,-0.0012
1020.00,-0.0012
1019.00,-0.0012
1018.00,-0.0012
1017.00,-0.0011
1016.00,-0.0011
1015.00,-0.0011
1014.00,-0.0011
1013.00,-0.0011
1012.00,-0.0011
1011.00,-0.0011
1010.00,-0.0011
1009.00,-0.0011
1008.00,-0.0011
1007.00,-0.0011
1006.00,-0.0011
1005.00,-0.0011
1004.00,-0.0011
1003.00,-0.0011
1002.00,-0.0011
1001.00,-0.0011
1000.00,-0.0011
999.00,-0.0011
998.00,-0.0011
997.00,-0.0011
996.00,-0.0011
995.00,-0.0011
994.00,-0.0011
993.00,-0.0011
992.00,-0.0011
991.00,-0.0011
990.00,-0.0011
989.00,-0.0011
988.00,-0.0011
987.00,-0.0011
986.00,-0.0011
985.00,-0.0011
984.00,-0.0011
983.00,-0.0011
982.00,-0.0011
981.00,-0.0011
980.00,-0.0011
979.00,-0.0011
978.00,-0.0011
977.00,-0.0011
976.00,-0.0011
975.00,-0.0011
974.00,-0.0011
973.00,-0.0011
972.00,-0.0011
971.00,-0.0011
970.00,-0.0011
969.00,-0.0011
968.00,-0.0011
967.00,-0.0011
966.00,-0.0011
965.00,-0.0011
964.00,-0.0011
963.00,-0.0011
962.00,-0.0011
961.00,-0.0011
960.00,-0.0011
959.00,-0.0011
958.00,-0.0011
957.00,-0.0011
956.00,-0.0011
955.00,-0.0011
954.00,-0.0011
953.00,-0.0011
952.00,-0.0011
951.00,-0.0011
950.00,-0.0011
949.00,-0.0011
948.00,-0.0012
947.00,-0.0012
946.00,-0.0012
945.00,-0.0012
944.00,-0.0012
943.00,-0.0012
942.00,-0.0012
941.00,-0.0012
940.00,-0.0012
939.00,-0.0012
938.00,-0.0012
937.00,-0.0012
936.00,-0.0012
935.00,-0.0012
934.00,-0.0012
933.00,-0.0012
932.00,-0.0012
931.00,-0.0012
930.00,-0.0012
929.00,-0.0012
928.00,-0.0012
927.00,-0.0012
926.00,-0.0012
925.00,-0.0012
924.00,-0.0012
923.00,-0.0012
922.00,-0.0012
921.00,-0.0012
920.00,-0.0012
919.00,-0.0012
918.00,-0.0012
917.00,-0.0012
916.00,-0.0012
915.00,-0.0012
914.00,-0.0012
913.00,-0.0012
912.00,-0.0012
911.00,-0.0012
910.00,-0.0012
909.00,-0.0012
908.00,-0.0012
907.00,-0.0012
906.00,-0.0012
905.00,-0.0012
904.00,-0.0012
903.00,-0.0012
902.00,-0.0012
901.00,-0.0012
900.00,-0.0012
899.00,-0.0012
898.00,-0.0012
897.00,-0.0012
896.00,-0.0012
895.00,-0.0012
894.00,-0.0012
893.00,-0.0012
892.00,-0.0012
891.00,-0.0012
890.00,-0.0012
889.00,-0.0012
888.00,-0.0012
887.00,-0.0012
886.00,-0.0012
885.00,-0.0012
884.00,-0.0012
883.00,-0.0012
882.00,-0.0012
881.00,-0.0012
880.00,-0.0011
879.00,-0.0011
878.00,-0.0011
877.00,-0.0011
876.00,-0.0011
875.00,-0.0011
874.00,-0.0011
873.00,-0.0011
872.00,-0.0011
871.00,-0.0012
870.00,-0.0012
869.00,-0.0012
868.00,-0.0011
867.00,-0.0011
866.00,-0.0011
865.00,-0.0011
864.00,-0.0011
863.00,-0.0011
862.00,-0.0011
861.00,-0.0011
860.00,-0.0011
859.00,-0.0011
858.00,-0.0011
857.00,-0.0011
856.00,-0.0011
855.00,-0.0011
854.00,-0.0011
853.00,-0.0011
852.00,-0.0011
851.00,-0.0011
850.00,-0.0011
849.00,-0.0011
848.00,-0.0011
847.00,-0.0011
846.00,-0.0011
845.00,-0.0011
844.00,-0.0011
843.00,-0.0011
842.00,-0.0011
841.00,-0.0011
840.00,-0.0011
839.00,-0.0011
838.00,-0.0011
837.00,-0.0011
836.00,-0.0011
835.00,-0.0011
834.00,-0.0011
833.00,-0.0011
832.00,-0.0011
831.00,-0.0012
830.00,-0.0012
829.00,-0.0012
828.00,-0.0011
827.00,-0.0011
826.00,-0.0011
825.00,-0.0011
824.00,-0.0011
823.00,-0.0011
822.00,-0.0011
821.00,-0.0011
820.00,-0.0011
819.00,-0.0011
818.00,-0.0011
817.00,-0.0011
816.00,-0.0011
815.00,-0.0011
814.00,-0.0011
813.00,-0.0011
812.00,-0.0011
811.00,-0.0011
810.00,-0.0011
809.00,-0.0011
808.00,-0.0011
807.00,-0.0011
806.00,-0.0011
805.00,-0.0011
804.00,-0.0011
803.00,-0.0011
802.00,-0.0011
801.00,-0.0011
800.00,-0.0011
799.00,-0.0011
798.00,-0.0011
797.00,-0.0011
796.00,-0.0011
795.00,-0.0011
794.00,-0.0011
793.00,-0.0011
792.00,-0.0011
791.00,-0.0011
790.00,-0.0011
789.00,-0.0011
788.00,-0.0011
787.00,-0.0011
786.00,-0.0011
785.00,-0.0011
784.00,-0.0011
783.00,-0.0011
782.00,-0.0011
781.00,-0.0011
780.00,-0.0011
779.00,-0.0011
778.00,-0.0011
777.00,-0.0011
776.00,-0.0011
775.00,-0.0011
774.00,-0.0011
773.00,-0.0011
772.00,-0.0011
771.00,-0.0011
770.00,-0.0011
769.00,-0.0011
768.00,-0.0011
767.00,-0.0011
766.00,-0.0011
765.00,-0.0011
764.00,-0.0011
763.00,-0.0011
762.00,-0.0011
761.00,-0.0011
760.00,-0.0011
759.00,-0.0011
758.00,-0.0011
757.00,-0.0011
756.00,-0.0011
755.00,-0.0011
754.00,-0.0011
753.00,-0.0011
752.00,-0.0011
751.00,-0.0011
750.00,-0.0011
749.00,-0.0011
748.00,-0.0011
747.00,-0.0011
746.00,-0.0011
745.00,-0.0011
744.00,-0.0011
743.00,-0.0011
742.00,-0.0011
741.00,-0.0011
740.00,-0.0011
739.00,-0.0011
738.00,-0.0011
737.00,-0.0011
736.00,-0.0011
735.00,-0.0011
734.00,-0.0011
733.00,-0.0011
732.00,-0.0011
731.00,-0.0011
730.00,-0.0011
729.00,-0.0011
728.00,-0.0011
727.00,-0.0011
726.00,-0.0011
725.00,-0.0011
724.00,-0.0011
723.00,-0.0011
722.00,-0.0011
721.00,-0.0011
720.00,-0.0011
719.00,-0.0011
718.00,-0.0011
717.00,-0.0011
716.00,-0.0011
715.00,-0.0011
714.00,-0.0011
713.00,-0.0011
712.00,-0.0011
711.00,-0.0011
710.00,-0.0012
709.00,-0.0012
708.00,-0.0011
707.00,-0.0011
706.00,-0.0011
705.00,-0.0012
704.00,-0.0012
703.00,-0.0012
702.00,-0.0012
701.00,-0.0011
700.00,-0.0011
699.00,-0.0011
698.00,-0.0011
697.00,-0.0011
696.00,-0.0011
695.00,-0.0011
694.00,-0.0012
693.00,-0.0012
692.00,-0.0012
691.00,-0.0012
690.00,-0.0011
689.00,-0.0011
688.00,-0.0012
687.00,-0.0012
686.00,-0.0012
685.00,-0.0012
684.00,-0.0013
683.00,-0.0013
682.00,-0.0013
681.00,-0.0013
680.00,-0.0013
679.00,-0.0013
678.00,-0.0013
677.00,-0.0012
676.00,-0.0012
675.00,-0.0012
674.00,-0.0012
673.00,-0.0012
672.00,-0.0013
671.00,-0.0014
670.00,-0.0016
669.00,-0.0019
668.00,-0.0021
667.00,-0.0020
666.00,-0.0018
665.00,-0.0016
664.00,-0.0014
663.00,-0.0013
662.00,-0.0013
661.00,-0.0012
660.00,-0.0012
659.00,-0.0012
658.00,-0.0012
657.00,-0.0013
656.00,-0.0013
655.00,-0.0013
654.00,-0.0013
653.00,-0.0013
652.00,-0.0013
651.00,-0.0012
650.00,-0.0012
649.00,-0.0012
648.00,-0.0012
647.00,-0.0012
646.00,-0.0012
645.00,-0.0013
644.00,-0.0013
643.00,-0.0013
642.00,-0.0012
641.00,-0.0012
640.00,-0.0012
639.00,-0.0012
638.00,-0.0012
637.00,-0.0013
636.00,-0.0013
635.00,-0.0013
634.00,-0.0013
633.00,-0.0013
632.00,-0.0012
631.00,-0.0012
630.00,-0.0012
629.00,-0.0012
628.00,-0.0012
627.00,-0.0011
626.00,-0.0011
625.00,-0.0011
624.00,-0.0011
623.00,-0.0011
622.00,-0.0012
621.00,-0.0012
620.00,-0.0012
619.00,-0.0012
618.00,-0.0013
617.00,-0.0013
616.00,-0.0013
615.00,-0.0013
614.00,-0.0013
613.00,-0.0013
612.00,-0.0012
611.00,-0.0012
610.00,-0.0012
609.00,-0.0013
608.00,-0.0013
607.00,-0.0013
606.00,-0.0013
605.00,-0.0013
604.00,-0.0013
603.00,-0.0013
602.00,-0.0013
601.00,-0.0013
600.00,-0.0012
599.00,-0.0012
598.00,-0.0012
597.00,-0.0012
596.00,-0.0013
595.00,-0.0013
594.00,-0.0014
593.00,-0.0014
592.00,-0.0013
591.00,-0.0013
590.00,-0.0013
589.00,-0.0013
588.00,-0.0013
587.00,-0.0013
586.00,-0.0013
585.00,-0.0012
584.00,-0.0012
583.00,-0.0013
582.00,-0.0013
581.00,-0.0013
580.00,-0.0013
579.00,-0.0012
578.00,-0.0013
577.00,-0.0013
576.00,-0.0013
575.00,-0.0013
574.00,-0.0013
573.00,-0.0013
572.00,-0.0013
571.00,-0.0013
570.00,-0.0013
569.00,-0.0012
568.00,-0.0012
567.00,-0.0012
566.00,-0.0012
565.00,-0.0012
564.00,-0.0012
563.00,-0.0013
562.00,-0.0013
561.00,-0.0013
560.00,-0.0013
559.00,-0.0013
558.00,-0.0013
557.00,-0.0013
556.00,-0.0012
555.00,-0.0012
554.00,-0.0012
553.00,-0.0012
552.00,-0.0012
551.00,-0.0012
550.00,-0.0012
549.00,-0.0012
548.00,-0.0013
547.00,-0.0013
546.00,-0.0013
545.00,-0.0013
544.00,-0.0013
543.00,-0.0012
542.00,-0.0012
541.00,-0.0013
540.00,-0.0013
539.00,-0.0013
538.00,-0.0013
537.00,-0.0012
536.00,-0.0012
535.00,-0.0012
534.00,-0.0012
533.00,-0.0012
532.00,-0.0012
531.00,-0.0013
530.00,-0.0013
529.00,-0.0013
528.00,-0.0012
527.00,-0.0012
526.00,-0.0012
525.00,-0.0013
524.00,-0.0013
523.00,-0.0013
522.00,-0.0013
521.00,-0.0014
520.00,-0.0014
519.00,-0.0014
518.00,-0.0014
517.00,-0.0014
516.00,-0.0013
515.00,-0.0013
514.00,-0.0013
513.00,-0.0013
512.00,-0.0013
511.00,-0.0013
510.00,-0.0013
509.00,-0.0013
508.00,-0.0013
507.00,-0.0013
506.00,-0.0013
505.00,-0.0013
504.00,-0.0013
503.00,-0.0013
502.00,-0.0013
501.00,-0.0013
500.00,-0.0014
