3996.73391,0.00053
3994.67373,0.00056
3992.61356,0.00049
3990.55339,0.00049
3988.49322,0.00060
3986.43305,0.00054
3984.37287,0.00023
3982.31270,0.00004
3980.25253,0.00011
3978.19236,0.00031
3976.13219,0.00060
3974.07201,0.00084
3972.01184,0.00093
3969.95167,0.00088
3967.89150,0.00071
3965.83133,0.00056
3963.77115,0.00072
3961.71098,0.00112
3959.65081,0.00123
3957.59064,0.00081
3955.53046,0.00024
3953.47029,0.00000
3951.41012,0.00016
3949.34995,0.00043
3947.28978,0.00062
3945.22960,0.00068
3943.16943,0.00067
3941.10926,0.00069
3939.04909,0.00074
3936.98892,0.00083
3934.92874,0.00097
3932.86857,0.00115
3930.80840,0.00118
3928.74823,0.00106
3926.68805,0.00093
3924.62788,0.00087
3922.56771,0.00082
3920.50754,0.00088
3918.44737,0.00111
3916.38719,0.00115
3914.32702,0.00087
3912.26685,0.00070
3910.20668,0.00076
3908.14651,0.00086
3906.08633,0.00103
3904.02616,0.00128
3901.96599,0.00144
3899.90582,0.00142
3897.84565,0.00116
3895.78547,0.00087
3893.72530,0.00085
3891.66513,0.00101
3889.60496,0.00104
3887.54478,0.00086
3885.48461,0.00074
3883.42444,0.00083
3881.36427,0.00099
3879.30410,0.00112
3877.24392,0.00117
3875.18375,0.00110
3873.12358,0.00111
3871.06341,0.00152
3869.00324,0.00203
3866.94306,0.00212
3864.88289,0.00181
3862.82272,0.00144
3860.76255,0.00132
3858.70237,0.00143
3856.64220,0.00169
3854.58203,0.00200
3852.52186,0.00208
3850.46169,0.00182
3848.40151,0.00163
3846.34134,0.00171
3844.28117,0.00183
3842.22100,0.00191
3840.16083,0.00195
3838.10065,0.00191
3836.04048,0.00168
3833.98031,0.00120
3831.92014,0.00074
3829.85997,0.00044
3827.79979,0.00019
3825.73962,0.00002
3823.67945,0.00001
3821.61928,0.00011
3819.55910,0.00023
3817.49893,0.00032
3815.43876,0.00052
3813.37859,0.00064
3811.31842,0.00041
3809.25824,0.00015
3807.19807,0.00047
3805.13790,0.00125
3803.07773,0.00176
3801.01756,0.00179
3798.95738,0.00149
3796.89721,0.00100
3794.83704,0.00048
3792.77687,0.00031
3790.71670,0.00064
3788.65652,0.00096
3786.59635,0.00089
3784.53618,0.00062
3782.47601,0.00034
3780.41583,0.00012
3778.35566,0.00012
3776.29549,0.00042
3774.23532,0.00077
3772.17515,0.00099
3770.11497,0.00109
3768.05480,0.00112
3765.99463,0.00129
3763.93446,0.00137
3761.87429,0.00104
3759.81411,0.00079
3757.75394,0.00110
3755.69377,0.00139
3753.63360,0.00130
3751.57342,0.00133
3749.51325,0.00155
3747.45308,0.00152
3745.39291,0.00159
3743.33274,0.00191
3741.27256,0.00195
3739.21239,0.00157
3737.15222,0.00093
3735.09205,0.00061
3733.03188,0.00109
3730.97170,0.00173
3728.91153,0.00187
3726.85136,0.00168
3724.79119,0.00147
3722.73102,0.00145
3720.67084,0.00164
3718.61067,0.00164
3716.55050,0.00133
3714.49033,0.00105
3712.43015,0.00114
3710.36998,0.00147
3708.30981,0.00127
3706.24964,0.00070
3704.18947,0.00052
3702.12929,0.00100
3700.06912,0.00163
3698.00895,0.00168
3695.94878,0.00118
3693.88861,0.00069
3691.82843,0.00067
3689.76826,0.00117
3687.70809,0.00154
3685.64792,0.00131
3683.58775,0.00108
3681.52757,0.00113
3679.46740,0.00112
3677.40723,0.00105
3675.34706,0.00116
3673.28688,0.00123
3671.22671,0.00124
3669.16654,0.00146
3667.10637,0.00166
3665.04620,0.00162
3662.98602,0.00154
3660.92585,0.00151
3658.86568,0.00147
3656.80551,0.00147
3654.74534,0.00150
3652.68516,0.00140
3650.62499,0.00127
3648.56482,0.00141
3646.50465,0.00181
3644.44447,0.00208
3642.38430,0.00210
3640.32413,0.00201
3638.26396,0.00197
3636.20379,0.00208
3634.14361,0.00238
3632.08344,0.00279
3630.02327,0.00339
3627.96310,0.00413
3625.90293,0.00442
3623.84275,0.00435
3621.78258,0.00440
3619.72241,0.00472
3617.66224,0.00501
3615.60207,0.00491
3613.54189,0.00471
3611.48172,0.00463
3609.42155,0.00458
3607.36138,0.00463
3605.30120,0.00490
3603.24103,0.00534
3601.18086,0.00574
3599.12069,0.00601
3597.06052,0.00629
3595.00034,0.00658
3592.94017,0.00641
3590.88000,0.00593
3588.81983,0.00576
3586.75966,0.00607
3584.69948,0.00645
3582.63931,0.00667
3580.57914,0.00663
3578.51897,0.00634
3576.45879,0.00606
3574.39862,0.00607
3572.33845,0.00631
3570.27828,0.00668
3568.21811,0.00724
3566.15793,0.00769
3564.09776,0.00758
3562.03759,0.00721
3559.97742,0.00711
3557.91725,0.00733
3555.85707,0.00763
3553.79690,0.00797
3551.73673,0.00821
3549.67656,0.00818
3547.61639,0.00797
3545.55621,0.00800
3543.49604,0.00841
3541.43587,0.00886
3539.37570,0.00906
3537.31552,0.00905
3535.25535,0.00905
3533.19518,0.00918
3531.13501,0.00946
3529.07484,0.00972
3527.01466,0.00986
3524.95449,0.01013
3522.89432,0.01061
3520.83415,0.01095
3518.77398,0.01102
3516.71380,0.01092
3514.65363,0.01054
3512.59346,0.01003
3510.53329,0.00982
3508.47312,0.00998
3506.41294,0.01034
3504.35277,0.01094
3502.29260,0.01153
3500.23243,0.01173
3498.17225,0.01165
3496.11208,0.01146
3494.05191,0.01129
3491.99174,0.01140
3489.93157,0.01197
3487.87139,0.01268
3485.81122,0.01288
3483.75105,0.01266
3481.69088,0.01259
3479.63071,0.01271
3477.57053,0.01276
3475.51036,0.01272
3473.45019,0.01273
3471.39002,0.01277
3469.32984,0.01277
3467.26967,0.01295
3465.20950,0.01332
3463.14933,0.01361
3461.08916,0.01372
3459.02898,0.01364
3456.96881,0.01352
3454.90864,0.01351
3452.84847,0.01351
3450.78830,0.01343
3448.72812,0.01355
3446.66795,0.01390
3444.60778,0.01405
3442.54761,0.01406
3440.48744,0.01414
3438.42726,0.01419
3436.36709,0.01429
3434.30692,0.01436
3432.24675,0.01430
3430.18657,0.01440
3428.12640,0.01463
3426.06623,0.01458
3424.00606,0.01441
3421.94589,0.01459
3419.88571,0.01510
3417.82554,0.01563
3415.76537,0.01590
3413.70520,0.01575
3411.64503,0.01541
3409.58485,0.01525
3407.52468,0.01532
3405.46451,0.01545
3403.40434,0.01554
3401.34416,0.01553
3399.28399,0.01560
3397.22382,0.01583
3395.16365,0.01602
3393.10348,0.01618
3391.04330,0.01634
3388.98313,0.01620
3386.92296,0.01588
3384.86279,0.01580
3382.80262,0.01595
3380.74244,0.01608
3378.68227,0.01617
3376.62210,0.01637
3374.56193,0.01660
3372.50176,0.01671
3370.44158,0.01672
3368.38141,0.01661
3366.32124,0.01653
3364.26107,0.01669
3362.20089,0.01693
3360.14072,0.01703
3358.08055,0.01697
3356.02038,0.01676
3353.96021,0.01671
3351.90003,0.01689
3349.83986,0.01694
3347.77969,0.01681
3345.71952,0.01668
3343.65935,0.01663
3341.59917,0.01662
3339.53900,0.01660
3337.47883,0.01666
3335.41866,0.01680
3333.35849,0.01701
3331.29831,0.01725
3329.23814,0.01739
3327.17797,0.01742
3325.11780,0.01736
3323.05762,0.01729
3320.99745,0.01738
3318.93728,0.01751
3316.87711,0.01736
3314.81694,0.01701
3312.75676,0.01683
3310.69659,0.01705
3308.63642,0.01753
3306.57625,0.01775
3304.51608,0.01762
3302.45590,0.01752
3300.39573,0.01760
3298.33556,0.01774
3296.27539,0.01779
3294.21521,0.01772
3292.15504,0.01751
3290.09487,0.01726
3288.03470,0.01715
3285.97453,0.01710
3283.91435,0.01705
3281.85418,0.01708
3279.79401,0.01720
3277.73384,0.01724
3275.67367,0.01718
3273.61349,0.01721
3271.55332,0.01732
3269.49315,0.01736
3267.43298,0.01733
3265.37281,0.01736
3263.31263,0.01753
3261.25246,0.01764
3259.19229,0.01760
3257.13212,0.01770
3255.07194,0.01789
3253.01177,0.01776
3250.95160,0.01749
3248.89143,0.01744
3246.83126,0.01760
3244.77108,0.01784
3242.71091,0.01811
3240.65074,0.01839
3238.59057,0.01851
3236.53040,0.01837
3234.47022,0.01816
3232.41005,0.01799
3230.34988,0.01773
3228.28971,0.01748
3226.22954,0.01745
3224.16936,0.01762
3222.10919,0.01786
3220.04902,0.01791
3217.98885,0.01763
3215.92867,0.01736
3213.86850,0.01738
3211.80833,0.01750
3209.74816,0.01752
3207.68799,0.01749
3205.62781,0.01749
3203.56764,0.01749
3201.50747,0.01752
3199.44730,0.01764
3197.38713,0.01775
3195.32695,0.01762
3193.26678,0.01730
3191.20661,0.01718
3189.14644,0.01746
3187.08626,0.01786
3185.02609,0.01792
3182.96592,0.01758
3180.90575,0.01719
3178.84558,0.01704
3176.78540,0.01716
3174.72523,0.01724
3172.66506,0.01713
3170.60489,0.01713
3168.54472,0.01731
3166.48454,0.01728
3164.42437,0.01705
3162.36420,0.01691
3160.30403,0.01683
3158.24386,0.01670
3156.18368,0.01658
3154.12351,0.01640
3152.06334,0.01624
3150.00317,0.01628
3147.94299,0.01646
3145.88282,0.01653
3143.82265,0.01631
3141.76248,0.01606
3139.70231,0.01621
3137.64213,0.01629
3135.58196,0.01601
3133.52179,0.01598
3131.46162,0.01628
3129.40145,0.01646
3127.34127,0.01641
3125.28110,0.01619
3123.22093,0.01592
3121.16076,0.01586
3119.10058,0.01590
3117.04041,0.01582
3114.98024,0.01579
3112.92007,0.01584
3110.85990,0.01567
3108.79972,0.01530
3106.73955,0.01504
3104.67938,0.01504
3102.61921,0.01521
3100.55904,0.01534
3098.49886,0.01534
3096.43869,0.01528
3094.37852,0.01522
3092.31835,0.01514
3090.25818,0.01504
3088.19800,0.01499
3086.13783,0.01496
3084.07766,0.01476
3082.01749,0.01442
3079.95731,0.01420
3077.89714,0.01423
3075.83697,0.01437
3073.77680,0.01445
3071.71663,0.01451
3069.65645,0.01457
3067.59628,0.01454
3065.53611,0.01437
3063.47594,0.01424
3061.41577,0.01420
3059.35559,0.01410
3057.29542,0.01380
3055.23525,0.01348
3053.17508,0.01343
3051.11491,0.01367
3049.05473,0.01388
3046.99456,0.01385
3044.93439,0.01362
3042.87422,0.01336
3040.81404,0.01327
3038.75387,0.01330
3036.69370,0.01330
3034.63353,0.01327
3032.57336,0.01316
3030.51318,0.01296
3028.45301,0.01286
3026.39284,0.01286
3024.33267,0.01280
3022.27250,0.01276
3020.21232,0.01279
3018.15215,0.01266
3016.09198,0.01240
3014.03181,0.01226
3011.97163,0.01232
3009.91146,0.01239
3007.85129,0.01231
3005.79112,0.01219
3003.73095,0.01222
3001.67077,0.01227
2999.61060,0.01221
2997.55043,0.01207
2995.49026,0.01193
2993.43009,0.01178
2991.36991,0.01171
2989.30974,0.01181
2987.24957,0.01185
2985.18940,0.01165
2983.12923,0.01144
2981.06905,0.01147
2979.00888,0.01162
2976.94871,0.01159
2974.88854,0.01137
2972.82836,0.01124
2970.76819,0.01114
2968.70802,0.01097
2966.64785,0.01080
2964.58768,0.01069
2962.52750,0.01070
2960.46733,0.01071
2958.40716,0.01055
2956.34699,0.01038
2954.28682,0.01027
2952.22664,0.01037
2950.16647,0.01078
2948.10630,0.01096
2946.04613,0.01069
2943.98596,0.01057
2941.92578,0.01062
2939.86561,0.01060
2937.80544,0.01052
2935.74527,0.01033
2933.68509,0.01005
2931.62492,0.00986
2929.56475,0.00997
2927.50458,0.01027
2925.44441,0.01042
2923.38423,0.01038
2921.32406,0.01035
2919.26389,0.01026
2917.20372,0.01006
2915.14355,0.00990
2913.08337,0.00989
2911.02320,0.00998
2908.96303,0.01011
2906.90286,0.01019
2904.84268,0.01014
2902.78251,0.01010
2900.72234,0.01015
2898.66217,0.01016
2896.60200,0.01018
2894.54182,0.01020
2892.48165,0.01010
2890.42148,0.00990
2888.36131,0.00976
2886.30114,0.00971
2884.24096,0.00968
2882.18079,0.00973
2880.12062,0.00988
2878.06045,0.00988
2876.00028,0.00964
2873.94010,0.00943
2871.87993,0.00936
2869.81976,0.00931
2867.75959,0.00919
2865.69941,0.00914
2863.63924,0.00923
2861.57907,0.00932
2859.51890,0.00932
2857.45873,0.00924
2855.39855,0.00911
2853.33838,0.00909
2851.27821,0.00920
2849.21804,0.00921
2847.15787,0.00914
2845.09769,0.00910
2843.03752,0.00905
2840.97735,0.00898
2838.91718,0.00894
2836.85700,0.00897
2834.79683,0.00897
2832.73666,0.00886
2830.67649,0.00869
2828.61632,0.00854
2826.55614,0.00846
2824.49597,0.00852
2822.43580,0.00868
2820.37563,0.00882
2818.31546,0.00887
2816.25528,0.00889
2814.19511,0.00883
2812.13494,0.00871
2810.07477,0.00860
2808.01460,0.00841
2805.95442,0.00826
2803.89425,0.00834
2801.83408,0.00842
2799.77391,0.00824
2797.71373,0.00797
2795.65356,0.00784
2793.59339,0.00786
2791.53322,0.00805
2789.47305,0.00832
2787.41287,0.00833
2785.35270,0.00807
2783.29253,0.00796
2781.23236,0.00802
2779.17219,0.00806
2777.11201,0.00809
2775.05184,0.00809
2772.99167,0.00806
2770.93150,0.00802
2768.87133,0.00802
2766.81115,0.00804
2764.75098,0.00782
2762.69081,0.00749
2760.63064,0.00732
2758.57046,0.00737
2756.51029,0.00750
2754.45012,0.00747
2752.38995,0.00734
2750.32978,0.00738
2748.26960,0.00752
2746.20943,0.00756
2744.14926,0.00749
2742.08909,0.00744
2740.02892,0.00743
2737.96874,0.00725
2735.90857,0.00694
2733.84840,0.00699
2731.78823,0.00720
2729.72805,0.00722
2727.66788,0.00705
2725.60771,0.00687
2723.54754,0.00683
2721.48737,0.00690
2719.42719,0.00685
2717.36702,0.00678
2715.30685,0.00694
2713.24668,0.00714
2711.18651,0.00715
2709.12633,0.00707
2707.06616,0.00708
2705.00599,0.00716
2702.94582,0.00713
2700.88565,0.00699
2698.82547,0.00682
2696.76530,0.00659
2694.70513,0.00643
2692.64496,0.00646
2690.58478,0.00653
2688.52461,0.00642
2686.46444,0.00631
2684.40427,0.00634
2682.34410,0.00641
2680.28392,0.00635
2678.22375,0.00617
2676.16358,0.00609
2674.10341,0.00604
2672.04324,0.00584
2669.98306,0.00578
2667.92289,0.00591
2665.86272,0.00596
2663.80255,0.00591
2661.74238,0.00588
2659.68220,0.00587
2657.62203,0.00581
2655.56186,0.00572
2653.50169,0.00562
2651.44151,0.00557
2649.38134,0.00560
2647.32117,0.00568
2645.26100,0.00578
2643.20083,0.00575
2641.14065,0.00558
2639.08048,0.00546
2637.02031,0.00536
2634.96014,0.00535
2632.89997,0.00546
2630.83979,0.00546
2628.77962,0.00540
2626.71945,0.00540
2624.65928,0.00540
2622.59910,0.00546
2620.53893,0.00566
2618.47876,0.00580
2616.41859,0.00558
2614.35842,0.00520
2612.29824,0.00500
2610.23807,0.00496
2608.17790,0.00501
2606.11773,0.00509
2604.05756,0.00531
2601.99738,0.00561
2599.93721,0.00563
2597.87704,0.00524
2595.81687,0.00483
2593.75670,0.00472
2591.69652,0.00475
2589.63635,0.00469
2587.57618,0.00464
2585.51601,0.00460
2583.45583,0.00452
2581.39566,0.00468
2579.33549,0.00501
2577.27532,0.00499
2575.21515,0.00462
2573.15497,0.00431
2571.09480,0.00433
2569.03463,0.00454
2566.97446,0.00465
2564.91429,0.00481
2562.85411,0.00519
2560.79394,0.00547
2558.73377,0.00524
2556.67360,0.00488
2554.61342,0.00490
2552.55325,0.00502
2550.49308,0.00500
2548.43291,0.00508
2546.37274,0.00508
2544.31256,0.00484
2542.25239,0.00476
2540.19222,0.00503
2538.13205,0.00524
2536.07188,0.00495
2534.01170,0.00449
2531.95153,0.00427
2529.89136,0.00423
2527.83119,0.00424
2525.77102,0.00410
2523.71084,0.00406
2521.65067,0.00421
2519.59050,0.00421
2517.53033,0.00424
2515.47015,0.00449
2513.40998,0.00472
2511.34981,0.00477
2509.28964,0.00475
2507.22947,0.00477
2505.16929,0.00471
2503.10912,0.00455
2501.04895,0.00451
2498.98878,0.00451
2496.92861,0.00455
2494.86843,0.00475
2492.80826,0.00486
2490.74809,0.00509
2488.68792,0.00565
2486.62775,0.00598
2484.56757,0.00593
2482.50740,0.00576
2480.44723,0.00553
2478.38706,0.00528
2476.32688,0.00521
2474.26671,0.00536
2472.20654,0.00559
2470.14637,0.00576
2468.08620,0.00557
2466.02602,0.00534
2463.96585,0.00551
2461.90568,0.00579
2459.84551,0.00583
2457.78534,0.00558
2455.72516,0.00531
2453.66499,0.00539
2451.60482,0.00581
2449.54465,0.00615
2447.48447,0.00621
2445.42430,0.00594
2443.36413,0.00566
2441.30396,0.00576
2439.24379,0.00587
2437.18361,0.00578
2435.12344,0.00580
2433.06327,0.00588
2431.00310,0.00573
2428.94293,0.00562
2426.88275,0.00571
2424.82258,0.00563
2422.76241,0.00538
2420.70224,0.00549
2418.64207,0.00604
2416.58189,0.00627
2414.52172,0.00576
2412.46155,0.00505
2410.40138,0.00468
2408.34120,0.00465
2406.28103,0.00491
2404.22086,0.00536
2402.16069,0.00544
2400.10052,0.00531
2398.04034,0.00539
2395.98017,0.00541
2393.92000,0.00517
2391.85983,0.00502
2389.79966,0.00510
2387.73948,0.00513
2385.67931,0.00508
2383.61914,0.00523
2381.55897,0.00565
2379.49880,0.00610
2377.43862,0.00651
2375.37845,0.00706
2373.31828,0.00794
2371.25811,0.00902
2369.19793,0.00968
2367.13776,0.00936
2365.07759,0.00918
2363.01742,0.01001
2360.95725,0.01077
2358.89707,0.00969
2356.83690,0.00869
2354.77673,0.00856
2352.71656,0.00853
2350.65639,0.00916
2348.59621,0.00954
2346.53604,0.00818
2344.47587,0.00773
2342.41570,0.00789
2340.35552,0.00785
2338.29535,0.00744
2336.23518,0.00687
2334.17501,0.00681
2332.11484,0.00725
2330.05466,0.00807
2327.99449,0.00888
2325.93432,0.00940
2323.87415,0.00897
2321.81398,0.00839
2319.75380,0.00786
2317.69363,0.00759
2315.63346,0.00724
2313.57329,0.00712
2311.51312,0.00731
2309.45294,0.00737
2307.39277,0.00715
2305.33260,0.00686
2303.27243,0.00687
2301.21225,0.00691
2299.15208,0.00656
2297.09191,0.00596
2295.03174,0.00563
2292.97157,0.00574
2290.91139,0.00595
2288.85122,0.00587
2286.79105,0.00564
2284.73088,0.00559
2282.67071,0.00555
2280.61053,0.00539
2278.55036,0.00533
2276.49019,0.00532
2274.43002,0.00540
2272.36984,0.00566
2270.30967,0.00568
2268.24950,0.00524
2266.18933,0.00486
2264.12916,0.00479
2262.06898,0.00486
2260.00881,0.00495
2257.94864,0.00498
2255.88847,0.00489
2253.82830,0.00484
2251.76812,0.00470
2249.70795,0.00441
2247.64778,0.00409
2245.58761,0.00336
2243.52744,0.00294
2241.46726,0.00362
2239.40709,0.00456
2237.34692,0.00476
2235.28675,0.00451
2233.22657,0.00434
2231.16640,0.00420
2229.10623,0.00433
2227.04606,0.00473
2224.98589,0.00516
2222.92571,0.00530
2220.86554,0.00464
2218.80537,0.00383
2216.74520,0.00402
2214.68503,0.00476
2212.62485,0.00480
2210.56468,0.00433
2208.50451,0.00397
2206.44434,0.00376
2204.38417,0.00349
2202.32399,0.00303
2200.26382,0.00328
2198.20365,0.00395
2196.14348,0.00383
2194.08330,0.00364
2192.02313,0.00416
2189.96296,0.00458
2187.90279,0.00409
2185.84262,0.00293
2183.78244,0.00178
2181.72227,0.00213
2179.66210,0.00409
2177.60193,0.00545
2175.54176,0.00605
2173.48158,0.00577
2171.42141,0.00396
2169.36124,0.00320
2167.30107,0.00470
2165.24089,0.00555
2163.18072,0.00422
2161.12055,0.00221
2159.06038,0.00093
2157.00021,0.00090
2154.94003,0.00201
2152.87986,0.00352
2150.81969,0.00444
2148.75952,0.00403
2146.69935,0.00298
2144.63917,0.00251
2142.57900,0.00266
2140.51883,0.00287
2138.45866,0.00312
2136.39849,0.00351
2134.33831,0.00376
2132.27814,0.00413
2130.21797,0.00463
2128.15780,0.00470
2126.09762,0.00426
2124.03745,0.00343
2121.97728,0.00283
2119.91711,0.00281
2117.85694,0.00288
2115.79676,0.00303
2113.73659,0.00321
2111.67642,0.00310
2109.61625,0.00316
2107.55608,0.00355
2105.49590,0.00378
2103.43573,0.00341
2101.37556,0.00266
2099.31539,0.00227
2097.25521,0.00239
2095.19504,0.00260
2093.13487,0.00255
2091.07470,0.00267
2089.01453,0.00354
2086.95435,0.00440
2084.89418,0.00458
2082.83401,0.00441
2080.77384,0.00439
2078.71367,0.00490
2076.65349,0.00529
2074.59332,0.00454
2072.53315,0.00325
2070.47298,0.00282
2068.41281,0.00338
2066.35263,0.00429
2064.29246,0.00495
2062.23229,0.00501
2060.17212,0.00455
2058.11194,0.00398
2056.05177,0.00401
2053.99160,0.00452
2051.93143,0.00435
2049.87126,0.00328
2047.81108,0.00249
2045.75091,0.00274
2043.69074,0.00381
2041.63057,0.00435
2039.57040,0.00310
2037.51022,0.00168
2035.45005,0.00166
2033.38988,0.00181
2031.32971,0.00089
2029.26954,0.00000
2027.20936,0.00067
2025.14919,0.00222
2023.08902,0.00290
2021.02885,0.00252
2018.96867,0.00226
2016.90850,0.00200
2014.84833,0.00137
2012.78816,0.00178
2010.72799,0.00303
2008.66781,0.00369
2006.60764,0.00407
2004.54747,0.00442
2002.48730,0.00407
2000.42713,0.00311
1998.36695,0.00258
1996.30678,0.00293
1994.24661,0.00322
1992.18644,0.00283
1990.12626,0.00259
1988.06609,0.00295
1986.00592,0.00340
1983.94575,0.00351
1981.88558,0.00335
1979.82540,0.00333
1977.76523,0.00386
1975.70506,0.00440
1973.64489,0.00399
1971.58472,0.00318
1969.52454,0.00200
1967.46437,0.00065
1965.40420,0.00133
1963.34403,0.00330
1961.28386,0.00365
1959.22368,0.00306
1957.16351,0.00309
1955.10334,0.00319
1953.04317,0.00307
1950.98299,0.00301
1948.92282,0.00325
1946.86265,0.00353
1944.80248,0.00331
1942.74231,0.00280
1940.68213,0.00228
1938.62196,0.00183
1936.56179,0.00188
1934.50162,0.00233
1932.44145,0.00248
1930.38127,0.00230
1928.32110,0.00223
1926.26093,0.00239
1924.20076,0.00250
1922.14059,0.00228
1920.08041,0.00190
1918.02024,0.00179
1915.96007,0.00194
1913.89990,0.00198
1911.83972,0.00194
1909.77955,0.00202
1907.71938,0.00221
1905.65921,0.00230
1903.59904,0.00219
1901.53886,0.00197
1899.47869,0.00174
1897.41852,0.00187
1895.35835,0.00257
1893.29818,0.00309
1891.23800,0.00285
1889.17783,0.00240
1887.11766,0.00224
1885.05749,0.00219
1882.99731,0.00223
1880.93714,0.00251
1878.87697,0.00297
1876.81680,0.00326
1874.75663,0.00314
1872.69645,0.00285
1870.63628,0.00261
1868.57611,0.00230
1866.51594,0.00206
1864.45577,0.00197
1862.39559,0.00182
1860.33542,0.00178
1858.27525,0.00219
1856.21508,0.00267
1854.15491,0.00269
1852.09473,0.00254
1850.03456,0.00257
1847.97439,0.00253
1845.91422,0.00240
1843.85404,0.00255
1841.79387,0.00287
1839.73370,0.00298
1837.67353,0.00300
1835.61336,0.00312
1833.55318,0.00324
1831.49301,0.00326
1829.43284,0.00318
1827.37267,0.00298
1825.31250,0.00275
1823.25232,0.00259
1821.19215,0.00260
1819.13198,0.00279
1817.07181,0.00295
1815.01163,0.00299
1812.95146,0.00303
1810.89129,0.00306
1808.83112,0.00294
1806.77095,0.00275
1804.71077,0.00273
1802.65060,0.00291
1800.59043,0.00302
1798.53026,0.00289
1796.47009,0.00269
1794.40991,0.00265
1792.34974,0.00279
1790.28957,0.00290
1788.22940,0.00294
1786.16923,0.00299
1784.10905,0.00294
1782.04888,0.00281
1779.98871,0.00288
1777.92854,0.00313
1775.86836,0.00332
1773.80819,0.00335
1771.74802,0.00327
1769.68785,0.00318
1767.62768,0.00315
1765.56750,0.00316
1763.50733,0.00316
1761.44716,0.00318
1759.38699,0.00329
1757.32682,0.00348
1755.26664,0.00352
1753.20647,0.00342
1751.14630,0.00350
1749.08613,0.00381
1747.02596,0.00398
1744.96578,0.00379
1742.90561,0.00341
1740.84544,0.00316
1738.78527,0.00319
1736.72509,0.00347
1734.66492,0.00378
1732.60475,0.00387
1730.54458,0.00375
1728.48441,0.00368
1726.42423,0.00365
1724.36406,0.00362
1722.30389,0.00365
1720.24372,0.00383
1718.18355,0.00411
1716.12337,0.00429
1714.06320,0.00423
1712.00303,0.00399
1709.94286,0.00376
1707.88268,0.00371
1705.82251,0.00392
1703.76234,0.00429
1701.70217,0.00475
1699.64200,0.00514
1697.58182,0.00529
1695.52165,0.00538
1693.46148,0.00544
1691.40131,0.00545
1689.34114,0.00544
1687.28096,0.00551
1685.22079,0.00574
1683.16062,0.00605
1681.10045,0.00619
1679.04028,0.00631
1676.98010,0.00652
1674.91993,0.00660
1672.85976,0.00652
1670.79959,0.00654
1668.73941,0.00657
1666.67924,0.00640
1664.61907,0.00632
1662.55890,0.00649
1660.49873,0.00670
1658.43855,0.00689
1656.37838,0.00711
1654.31821,0.00730
1652.25804,0.00726
1650.19787,0.00705
1648.13769,0.00702
1646.07752,0.00720
1644.01735,0.00721
1641.95718,0.00704
1639.89701,0.00686
1637.83683,0.00669
1635.77666,0.00649
1633.71649,0.00631
1631.65632,0.00618
1629.59614,0.00614
1627.53597,0.00611
1625.47580,0.00607
1623.41563,0.00609
1621.35546,0.00609
1619.29528,0.00601
1617.23511,0.00584
1615.17494,0.00552
1613.11477,0.00520
1611.05460,0.00503
1608.99442,0.00505
1606.93425,0.00510
1604.87408,0.00502
1602.81391,0.00484
1600.75373,0.00464
1598.69356,0.00439
1596.63339,0.00410
1594.57322,0.00392
1592.51305,0.00391
1590.45287,0.00396
1588.39270,0.00402
1586.33253,0.00408
1584.27236,0.00403
1582.21219,0.00381
1580.15201,0.00360
1578.09184,0.00351
1576.03167,0.00351
1573.97150,0.00351
1571.91133,0.00346
1569.85115,0.00333
1567.79098,0.00315
1565.73081,0.00307
1563.67064,0.00315
1561.61046,0.00333
1559.55029,0.00346
1557.49012,0.00334
1555.42995,0.00300
1553.36978,0.00278
1551.30960,0.00278
1549.24943,0.00286
1547.18926,0.00294
1545.12909,0.00301
1543.06892,0.00301
1541.00874,0.00292
1538.94857,0.00274
1536.88840,0.00257
1534.82823,0.00250
1532.76805,0.00242
1530.70788,0.00235
1528.64771,0.00242
1526.58754,0.00260
1524.52737,0.00274
1522.46719,0.00282
1520.40702,0.00271
1518.34685,0.00242
1516.28668,0.00236
1514.22651,0.00253
1512.16633,0.00258
1510.10616,0.00260
1508.04599,0.00273
1505.98582,0.00270
1503.92565,0.00230
1501.86547,0.00187
1499.80530,0.00158
1497.74513,0.00143
1495.68496,0.00143
1493.62478,0.00158
1491.56461,0.00184
1489.50444,0.00196
1487.44427,0.00178
1485.38410,0.00157
1483.32392,0.00155
1481.26375,0.00159
1479.20358,0.00155
1477.14341,0.00146
1475.08324,0.00135
1473.02306,0.00141
1470.96289,0.00169
1468.90272,0.00195
1466.84255,0.00199
1464.78238,0.00170
1462.72220,0.00131
1460.66203,0.00127
1458.60186,0.00180
1456.54169,0.00245
1454.48151,0.00248
1452.42134,0.00215
1450.36117,0.00188
1448.30100,0.00169
1446.24083,0.00146
1444.18065,0.00119
1442.12048,0.00098
1440.06031,0.00091
1438.00014,0.00102
1435.93997,0.00129
1433.87979,0.00156
1431.81962,0.00167
1429.75945,0.00164
1427.69928,0.00160
1425.63910,0.00163
1423.57893,0.00160
1421.51876,0.00155
1419.45859,0.00161
1417.39842,0.00167
1415.33824,0.00156
1413.27807,0.00139
1411.21790,0.00128
1409.15773,0.00119
1407.09756,0.00116
1405.03738,0.00126
1402.97721,0.00148
1400.91704,0.00169
1398.85687,0.00173
1396.79670,0.00160
1394.73652,0.00146
1392.67635,0.00135
1390.61618,0.00131
1388.55601,0.00135
1386.49583,0.00135
1384.43566,0.00126
1382.37549,0.00118
1380.31532,0.00114
1378.25515,0.00118
1376.19497,0.00132
1374.13480,0.00131
1372.07463,0.00108
1370.01446,0.00094
1367.95429,0.00103
1365.89411,0.00118
1363.83394,0.00121
1361.77377,0.00109
1359.71360,0.00097
1357.65343,0.00100
1355.59325,0.00106
1353.53308,0.00100
1351.47291,0.00088
1349.41274,0.00089
1347.35256,0.00102
1345.29239,0.00106
1343.23222,0.00103
1341.17205,0.00111
1339.11188,0.00125
1337.05170,0.00116
1334.99153,0.00093
1332.93136,0.00078
1330.87119,0.00077
1328.81102,0.00090
1326.75084,0.00106
1324.69067,0.00098
1322.63050,0.00067
1320.57033,0.00056
1318.51015,0.00079
1316.44998,0.00098
1314.38981,0.00103
1312.32964,0.00099
1310.26947,0.00093
1308.20929,0.00099
1306.14912,0.00112
1304.08895,0.00119
1302.02878,0.00117
1299.96861,0.00106
1297.90843,0.00096
1295.84826,0.00100
1293.78809,0.00113
1291.72792,0.00115
1289.66775,0.00111
1287.60757,0.00116
1285.54740,0.00116
1283.48723,0.00108
1281.42706,0.00104
1279.36688,0.00106
1277.30671,0.00111
1275.24654,0.00113
1273.18637,0.00114
1271.12620,0.00118
1269.06602,0.00126
1267.00585,0.00135
1264.94568,0.00139
1262.88551,0.00141
1260.82534,0.00140
1258.76516,0.00134
1256.70499,0.00131
1254.64482,0.00130
1252.58465,0.00127
1250.52447,0.00121
1248.46430,0.00110
1246.40413,0.00098
1244.34396,0.00094
1242.28379,0.00094
1240.22361,0.00090
1238.16344,0.00087
1236.10327,0.00090
1234.04310,0.00083
1231.98293,0.00056
1229.92275,0.00032
1227.86258,0.00035
1225.80241,0.00046
1223.74224,0.00048
1221.68207,0.00048
1219.62189,0.00054
1217.56172,0.00056
1215.50155,0.00046
1213.44138,0.00027
1211.38120,0.00020
1209.32103,0.00023
1207.26086,0.00011
1205.20069,0.00000
1203.14052,0.00013
1201.08034,0.00041
1199.02017,0.00066
1196.96000,0.00069
1194.89983,0.00062
1192.83966,0.00075
1190.77948,0.00105
1188.71931,0.00128
1186.65914,0.00137
1184.59897,0.00145
1182.53880,0.00161
1180.47862,0.00187
1178.41845,0.00227
1176.35828,0.00272
1174.29811,0.00303
1172.23793,0.00317
1170.17776,0.00330
1168.11759,0.00358
1166.05742,0.00397
1163.99725,0.00441
1161.93707,0.00482
1159.87690,0.00511
1157.81673,0.00537
1155.75656,0.00564
1153.69639,0.00582
1151.63621,0.00596
1149.57604,0.00613
1147.51587,0.00639
1145.45570,0.00682
1143.39552,0.00735
1141.33535,0.00777
1139.27518,0.00809
1137.21501,0.00838
1135.15484,0.00864
1133.09466,0.00899
1131.03449,0.00950
1128.97432,0.01000
1126.91415,0.01047
1124.85398,0.01108
1122.79380,0.01163
1120.73363,0.01196
1118.67346,0.01227
1116.61329,0.01267
1114.55312,0.01302
1112.49294,0.01341
1110.43277,0.01393
1108.37260,0.01447
1106.31243,0.01490
1104.25225,0.01514
1102.19208,0.01528
1100.13191,0.01549
1098.07174,0.01587
1096.01157,0.01644
1093.95139,0.01699
1091.89122,0.01738
1089.83105,0.01769
1087.77088,0.01794
1085.71071,0.01814
1083.65053,0.01838
1081.59036,0.01865
1079.53019,0.01892
1077.47002,0.01920
1075.40985,0.01938
1073.34967,0.01938
1071.28950,0.01933
1069.22933,0.01941
1067.16916,0.01942
1065.10898,0.01923
1063.04881,0.01898
1060.98864,0.01878
1058.92847,0.01856
1056.86830,0.01830
1054.80812,0.01798
1052.74795,0.01760
1050.68778,0.01722
1048.62761,0.01674
1046.56744,0.01620
1044.50726,0.01574
1042.44709,0.01530
1040.38692,0.01475
1038.32675,0.01424
1036.26657,0.01379
1034.20640,0.01333
1032.14623,0.01302
1030.08606,0.01278
1028.02589,0.01241
1025.96571,0.01202
1023.90554,0.01162
1021.84537,0.01123
1019.78520,0.01096
1017.72503,0.01084
1015.66485,0.01070
1013.60468,0.01036
1011.54451,0.01009
1009.48434,0.01009
1007.42417,0.01012
1005.36399,0.01018
1003.30382,0.01045
1001.24365,0.01072
999.18348,0.01090
997.12330,0.01114
995.06313,0.01155
993.00296,0.01218
990.94279,0.01283
988.88262,0.01318
986.82244,0.01322
984.76227,0.01326
982.70210,0.01336
980.64193,0.01321
978.58176,0.01282
976.52158,0.01259
974.46141,0.01235
972.40124,0.01189
970.34107,0.01151
968.28089,0.01133
966.22072,0.01115
964.16055,0.01080
962.10038,0.01038
960.04021,0.01011
957.98003,0.00982
955.91986,0.00911
953.85969,0.00840
951.79952,0.00810
949.73935,0.00802
947.67917,0.00805
945.61900,0.00798
943.55883,0.00789
941.49866,0.00793
939.43849,0.00800
937.37831,0.00809
935.31814,0.00808
933.25797,0.00778
931.19780,0.00751
929.13762,0.00748
927.07745,0.00739
925.01728,0.00723
922.95711,0.00700
920.89694,0.00668
918.83676,0.00658
916.77659,0.00667
914.71642,0.00674
912.65625,0.00675
910.59608,0.00664
908.53590,0.00648
906.47573,0.00638
904.41556,0.00622
902.35539,0.00605
900.29522,0.00609
898.23504,0.00615
896.17487,0.00607
894.11470,0.00593
892.05453,0.00582
889.99435,0.00591
887.93418,0.00626
885.87401,0.00666
883.81384,0.00679
881.75367,0.00662
879.69349,0.00652
877.63332,0.00672
875.57315,0.00726
873.51298,0.00782
871.45281,0.00794
869.39263,0.00789
867.33246,0.00813
865.27229,0.00836
863.21212,0.00832
861.15194,0.00836
859.09177,0.00870
857.03160,0.00886
854.97143,0.00856
852.91126,0.00814
850.85108,0.00774
848.79091,0.00732
846.73074,0.00701
844.67057,0.00681
842.61040,0.00669
840.55022,0.00675
838.49005,0.00688
836.42988,0.00690
834.36971,0.00670
832.30954,0.00621
830.24936,0.00573
828.18919,0.00550
826.12902,0.00535
824.06885,0.00495
822.00867,0.00444
819.94850,0.00423
817.88833,0.00434
815.82816,0.00447
813.76799,0.00446
811.70781,0.00431
809.64764,0.00392
807.58747,0.00365
805.52730,0.00376
803.46713,0.00391
801.40695,0.00391
799.34678,0.00366
797.28661,0.00312
795.22644,0.00279
793.16627,0.00305
791.10609,0.00331
789.04592,0.00313
786.98575,0.00284
784.92558,0.00271
782.86540,0.00270
780.80523,0.00299
778.74506,0.00342
776.68489,0.00325
774.62472,0.00268
772.56454,0.00243
770.50437,0.00263
768.44420,0.00288
766.38403,0.00259
764.32386,0.00236
762.26368,0.00298
760.20351,0.00376
758.14334,0.00356
756.08317,0.00279
754.02299,0.00265
751.96282,0.00291
749.90265,0.00290
747.84248,0.00289
745.78231,0.00290
743.72213,0.00241
741.66196,0.00173
739.60179,0.00165
737.54162,0.00169
735.48145,0.00119
733.42127,0.00090
731.36110,0.00115
729.30093,0.00147
727.24076,0.00194
725.18059,0.00236
723.12041,0.00245
721.06024,0.00215
719.00007,0.00208
716.93990,0.00201
714.87972,0.00190
712.81955,0.00206
710.75938,0.00237
708.69921,0.00260
706.63904,0.00255
704.57886,0.00226
702.51869,0.00241
700.45852,0.00315
698.39835,0.00350
696.33818,0.00354
694.27800,0.00409
692.21783,0.00450
690.15766,0.00373
688.09749,0.00260
686.03731,0.00252
683.97714,0.00311
681.91697,0.00358
679.85680,0.00424
677.79663,0.00507
675.73645,0.00518
673.67628,0.00445
671.61611,0.00374
669.55594,0.00182
667.49577,0.00007
665.43559,0.00242
663.37542,0.00240
661.31525,0.00283
659.25508,0.00360
657.19491,0.00358
655.13473,0.00356
653.07456,0.00415
651.01439,0.00495
648.95422,0.00553
646.89404,0.00570
644.83387,0.00481
642.77370,0.00323
640.71353,0.00293
638.65336,0.00474
636.59318,0.00665
634.53301,0.00693
632.47284,0.00647
630.41267,0.00639
628.35250,0.00580
626.29232,0.00367
624.23215,0.00094
622.17198,0.00000
620.11181,0.00159
618.05164,0.00319
615.99146,0.00263
613.93129,0.00149
611.87112,0.00210
609.81095,0.00351
607.75077,0.00336
605.69060,0.00280
603.63043,0.00288
601.57026,0.00220
599.51009,0.00000
