Created as New Dataset,Sample 390 By Analyst Date Monday, February 10 2025
cm-1,%T
4000.00,135.16
3999.00,135.16
3998.00,135.15
3997.00,135.15
3996.00,135.14
3995.00,135.13
3994.00,135.13
3993.00,135.12
3992.00,135.11
3991.00,135.11
3990.00,135.10
3989.00,135.09
3988.00,135.08
3987.00,135.07
3986.00,135.06
3985.00,135.05
3984.00,135.04
3983.00,135.03
3982.00,135.03
3981.00,135.02
3980.00,135.01
3979.00,135.00
3978.00,135.00
3977.00,134.99
3976.00,134.98
3975.00,134.97
3974.00,134.96
3973.00,134.96
3972.00,134.95
3971.00,134.94
3970.00,134.94
3969.00,134.93
3968.00,134.93
3967.00,134.92
3966.00,134.92
3965.00,134.91
3964.00,134.91
3963.00,134.91
3962.00,134.91
3961.00,134.91
3960.00,134.91
3959.00,134.91
3958.00,134.91
3957.00,134.91
3956.00,134.91
3955.00,134.91
3954.00,134.92
3953.00,134.92
3952.00,134.93
3951.00,134.93
3950.00,134.94
3949.00,134.94
3948.00,134.95
3947.00,134.95
3946.00,134.94
3945.00,134.94
3944.00,134.95
3943.00,134.95
3942.00,134.94
3941.00,134.92
3940.00,134.91
3939.00,134.91
3938.00,134.91
3937.00,134.91
3936.00,134.90
3935.00,134.90
3934.00,134.90
3933.00,134.90
3932.00,134.90
3931.00,134.90
3930.00,134.89
3929.00,134.89
3928.00,134.88
3927.00,134.88
3926.00,134.88
3925.00,134.88
3924.00,134.87
3923.00,134.87
3922.00,134.87
3921.00,134.87
3920.00,134.87
3919.00,134.87
3918.00,134.86
3917.00,134.86
3916.00,134.84
3915.00,134.83
3914.00,134.82
3913.00,134.81
3912.00,134.81
3911.00,134.81
3910.00,134.81
3909.00,134.83
3908.00,134.85
3907.00,134.88
3906.00,134.92
3905.00,134.96
3904.00,135.00
3903.00,135.01
3902.00,135.01
3901.00,135.01
3900.00,135.01
3899.00,134.99
3898.00,134.97
3897.00,134.94
3896.00,134.93
3895.00,134.91
3894.00,134.90
3893.00,134.90
3892.00,134.91
3891.00,134.92
3890.00,134.91
3889.00,134.90
3888.00,134.90
3887.00,134.94
3886.00,134.96
3885.00,134.95
3884.00,134.92
3883.00,134.91
3882.00,134.93
3881.00,134.96
3880.00,134.95
3879.00,134.91
3878.00,134.87
3877.00,134.87
3876.00,134.90
3875.00,134.93
3874.00,134.93
3873.00,134.90
3872.00,134.90
3871.00,134.94
3870.00,134.98
3869.00,134.97
3868.00,134.94
3867.00,134.93
3866.00,134.95
3865.00,134.95
3864.00,134.92
3863.00,134.88
3862.00,134.86
3861.00,134.86
3860.00,134.88
3859.00,134.90
3858.00,134.92
3857.00,134.91
3856.00,134.91
3855.00,134.95
3854.00,134.99
3853.00,134.99
3852.00,134.97
3851.00,134.96
3850.00,134.96
3849.00,134.95
3848.00,134.90
3847.00,134.85
3846.00,134.81
3845.00,134.81
3844.00,134.82
3843.00,134.84
3842.00,134.86
3841.00,134.87
3840.00,134.89
3839.00,134.91
3838.00,134.92
3837.00,134.92
3836.00,134.91
3835.00,134.90
3834.00,134.89
3833.00,134.87
3832.00,134.84
3831.00,134.79
3830.00,134.75
3829.00,134.72
3828.00,134.72
3827.00,134.74
3826.00,134.76
3825.00,134.74
3824.00,134.74
3823.00,134.77
3822.00,134.83
3821.00,134.85
3820.00,134.81
3819.00,134.77
3818.00,134.76
3817.00,134.77
3816.00,134.75
3815.00,134.69
3814.00,134.64
3813.00,134.63
3812.00,134.64
3811.00,134.63
3810.00,134.60
3809.00,134.58
3808.00,134.60
3807.00,134.64
3806.00,134.65
3805.00,134.64
3804.00,134.64
3803.00,134.68
3802.00,134.71
3801.00,134.69
3800.00,134.65
3799.00,134.62
3798.00,134.63
3797.00,134.63
3796.00,134.60
3795.00,134.54
3794.00,134.49
3793.00,134.46
3792.00,134.45
3791.00,134.44
3790.00,134.43
3789.00,134.42
3788.00,134.41
3787.00,134.42
3786.00,134.43
3785.00,134.45
3784.00,134.46
3783.00,134.46
3782.00,134.47
3781.00,134.48
3780.00,134.49
3779.00,134.49
3778.00,134.47
3777.00,134.46
3776.00,134.47
3775.00,134.48
3774.00,134.49
3773.00,134.48
3772.00,134.49
3771.00,134.52
3770.00,134.54
3769.00,134.54
3768.00,134.53
3767.00,134.54
3766.00,134.56
3765.00,134.56
3764.00,134.55
3763.00,134.53
3762.00,134.53
3761.00,134.55
3760.00,134.56
3759.00,134.56
3758.00,134.58
3757.00,134.59
3756.00,134.61
3755.00,134.62
3754.00,134.64
3753.00,134.67
3752.00,134.69
3751.00,134.73
3750.00,134.77
3749.00,134.80
3748.00,134.79
3747.00,134.76
3746.00,134.76
3745.00,134.76
3744.00,134.69
3743.00,134.62
3742.00,134.58
3741.00,134.60
3740.00,134.60
3739.00,134.57
3738.00,134.53
3737.00,134.53
3736.00,134.53
3735.00,134.53
3734.00,134.51
3733.00,134.50
3732.00,134.48
3731.00,134.43
3730.00,134.37
3729.00,134.33
3728.00,134.31
3727.00,134.30
3726.00,134.27
3725.00,134.25
3724.00,134.24
3723.00,134.24
3722.00,134.24
3721.00,134.22
3720.00,134.21
3719.00,134.20
3718.00,134.21
3717.00,134.22
3716.00,134.23
3715.00,134.24
3714.00,134.27
3713.00,134.31
3712.00,134.34
3711.00,134.35
3710.00,134.35
3709.00,134.36
3708.00,134.35
3707.00,134.35
3706.00,134.33
3705.00,134.32
3704.00,134.32
3703.00,134.34
3702.00,134.35
3701.00,134.37
3700.00,134.38
3699.00,134.40
3698.00,134.43
3697.00,134.48
3696.00,134.52
3695.00,134.56
3694.00,134.62
3693.00,134.68
3692.00,134.73
3691.00,134.77
3690.00,134.81
3689.00,134.85
3688.00,134.86
3687.00,134.87
3686.00,134.87
3685.00,134.88
3684.00,134.89
3683.00,134.88
3682.00,134.89
3681.00,134.92
3680.00,134.96
3679.00,134.99
3678.00,135.02
3677.00,135.08
3676.00,135.15
3675.00,135.18
3674.00,135.16
3673.00,135.15
3672.00,135.16
3671.00,135.16
3670.00,135.12
3669.00,135.05
3668.00,134.98
3667.00,134.93
3666.00,134.90
3665.00,134.86
3664.00,134.81
3663.00,134.77
3662.00,134.75
3661.00,134.74
3660.00,134.74
3659.00,134.74
3658.00,134.75
3657.00,134.78
3656.00,134.81
3655.00,134.82
3654.00,134.84
3653.00,134.87
3652.00,134.90
3651.00,134.93
3650.00,134.92
3649.00,134.91
3648.00,134.89
3647.00,134.86
3646.00,134.82
3645.00,134.76
3644.00,134.71
3643.00,134.66
3642.00,134.61
3641.00,134.57
3640.00,134.55
3639.00,134.55
3638.00,134.55
3637.00,134.55
3636.00,134.57
3635.00,134.61
3634.00,134.66
3633.00,134.69
3632.00,134.71
3631.00,134.74
3630.00,134.79
3629.00,134.81
3628.00,134.80
3627.00,134.78
3626.00,134.78
3625.00,134.80
3624.00,134.80
3623.00,134.79
3622.00,134.77
3621.00,134.78
3620.00,134.80
3619.00,134.82
3618.00,134.83
3617.00,134.83
3616.00,134.84
3615.00,134.85
3614.00,134.86
3613.00,134.86
3612.00,134.84
3611.00,134.82
3610.00,134.82
3609.00,134.81
3608.00,134.79
3607.00,134.77
3606.00,134.75
3605.00,134.73
3604.00,134.71
3603.00,134.70
3602.00,134.69
3601.00,134.68
3600.00,134.68
3599.00,134.68
3598.00,134.69
3597.00,134.70
3596.00,134.71
3595.00,134.72
3594.00,134.73
3593.00,134.74
3592.00,134.76
3591.00,134.77
3590.00,134.78
3589.00,134.80
3588.00,134.81
3587.00,134.80
3586.00,134.79
3585.00,134.79
3584.00,134.78
3583.00,134.78
3582.00,134.77
3581.00,134.76
3580.00,134.75
3579.00,134.75
3578.00,134.75
3577.00,134.76
3576.00,134.77
3575.00,134.79
3574.00,134.80
3573.00,134.83
3572.00,134.85
3571.00,134.87
3570.00,134.90
3569.00,134.93
3568.00,134.96
3567.00,134.98
3566.00,134.99
3565.00,134.99
3564.00,134.99
3563.00,134.98
3562.00,134.97
3561.00,134.95
3560.00,134.94
3559.00,134.94
3558.00,134.94
3557.00,134.94
3556.00,134.95
3555.00,134.95
3554.00,134.96
3553.00,134.97
3552.00,134.98
3551.00,134.98
3550.00,134.99
3549.00,134.99
3548.00,135.00
3547.00,135.00
3546.00,134.99
3545.00,134.99
3544.00,134.99
3543.00,134.99
3542.00,134.99
3541.00,134.98
3540.00,134.98
3539.00,134.97
3538.00,134.97
3537.00,134.96
3536.00,134.97
3535.00,134.97
3534.00,134.98
3533.00,134.98
3532.00,134.99
3531.00,134.99
3530.00,135.00
3529.00,135.00
3528.00,135.01
3527.00,135.00
3526.00,135.00
3525.00,134.99
3524.00,134.99
3523.00,134.99
3522.00,134.98
3521.00,134.98
3520.00,134.97
3519.00,134.96
3518.00,134.96
3517.00,134.95
3516.00,134.94
3515.00,134.93
3514.00,134.93
3513.00,134.93
3512.00,134.93
3511.00,134.93
3510.00,134.93
3509.00,134.93
3508.00,134.93
3507.00,134.92
3506.00,134.92
3505.00,134.92
3504.00,134.91
3503.00,134.91
3502.00,134.90
3501.00,134.90
3500.00,134.90
3499.00,134.90
3498.00,134.89
3497.00,134.89
3496.00,134.89
3495.00,134.90
3494.00,134.90
3493.00,134.90
3492.00,134.91
3491.00,134.91
3490.00,134.92
3489.00,134.92
3488.00,134.93
3487.00,134.94
3486.00,134.95
3485.00,134.96
3484.00,134.97
3483.00,134.98
3482.00,134.99
3481.00,135.00
3480.00,135.01
3479.00,135.02
3478.00,135.03
3477.00,135.05
3476.00,135.06
3475.00,135.07
3474.00,135.08
3473.00,135.09
3472.00,135.10
3471.00,135.11
3470.00,135.11
3469.00,135.12
3468.00,135.14
3467.00,135.15
3466.00,135.17
3465.00,135.19
3464.00,135.21
3463.00,135.22
3462.00,135.24
3461.00,135.25
3460.00,135.26
3459.00,135.27
3458.00,135.28
3457.00,135.29
3456.00,135.30
3455.00,135.31
3454.00,135.32
3453.00,135.34
3452.00,135.35
3451.00,135.36
3450.00,135.37
3449.00,135.38
3448.00,135.40
3447.00,135.41
3446.00,135.42
3445.00,135.43
3444.00,135.44
3443.00,135.45
3442.00,135.45
3441.00,135.46
3440.00,135.46
3439.00,135.46
3438.00,135.46
3437.00,135.46
3436.00,135.46
3435.00,135.47
3434.00,135.48
3433.00,135.48
3432.00,135.49
3431.00,135.49
3430.00,135.49
3429.00,135.49
3428.00,135.49
3427.00,135.50
3426.00,135.50
3425.00,135.50
3424.00,135.49
3423.00,135.49
3422.00,135.48
3421.00,135.47
3420.00,135.46
3419.00,135.45
3418.00,135.44
3417.00,135.43
3416.00,135.41
3415.00,135.39
3414.00,135.37
3413.00,135.35
3412.00,135.33
3411.00,135.31
3410.00,135.29
3409.00,135.27
3408.00,135.25
3407.00,135.23
3406.00,135.20
3405.00,135.18
3404.00,135.15
3403.00,135.12
3402.00,135.09
3401.00,135.07
3400.00,135.05
3399.00,135.04
3398.00,135.02
3397.00,135.01
3396.00,134.99
3395.00,134.97
3394.00,134.95
3393.00,134.93
3392.00,134.91
3391.00,134.90
3390.00,134.89
3389.00,134.89
3388.00,134.88
3387.00,134.88
3386.00,134.87
3385.00,134.86
3384.00,134.85
3383.00,134.85
3382.00,134.84
3381.00,134.83
3380.00,134.83
3379.00,134.82
3378.00,134.82
3377.00,134.82
3376.00,134.81
3375.00,134.81
3374.00,134.81
3373.00,134.81
3372.00,134.80
3371.00,134.79
3370.00,134.79
3369.00,134.79
3368.00,134.79
3367.00,134.79
3366.00,134.80
3365.00,134.80
3364.00,134.81
3363.00,134.81
3362.00,134.81
3361.00,134.81
3360.00,134.81
3359.00,134.81
3358.00,134.81
3357.00,134.82
3356.00,134.82
3355.00,134.81
3354.00,134.81
3353.00,134.81
3352.00,134.80
3351.00,134.80
3350.00,134.80
3349.00,134.80
3348.00,134.81
3347.00,134.81
3346.00,134.81
3345.00,134.81
3344.00,134.81
3343.00,134.81
3342.00,134.81
3341.00,134.81
3340.00,134.81
3339.00,134.82
3338.00,134.82
3337.00,134.83
3336.00,134.84
3335.00,134.85
3334.00,134.86
3333.00,134.87
3332.00,134.87
3331.00,134.88
3330.00,134.89
3329.00,134.89
3328.00,134.90
3327.00,134.91
3326.00,134.91
3325.00,134.92
3324.00,134.94
3323.00,134.95
3322.00,134.96
3321.00,134.97
3320.00,134.99
3319.00,135.00
3318.00,135.01
3317.00,135.03
3316.00,135.04
3315.00,135.06
3314.00,135.08
3313.00,135.10
3312.00,135.12
3311.00,135.14
3310.00,135.17
3309.00,135.19
3308.00,135.22
3307.00,135.24
3306.00,135.27
3305.00,135.30
3304.00,135.33
3303.00,135.35
3302.00,135.36
3301.00,135.36
3300.00,135.35
3299.00,135.33
3298.00,135.30
3297.00,135.27
3296.00,135.23
3295.00,135.19
3294.00,135.16
3293.00,135.12
3292.00,135.09
3291.00,135.06
3290.00,135.04
3289.00,135.01
3288.00,134.99
3287.00,134.96
3286.00,134.94
3285.00,134.92
3284.00,134.90
3283.00,134.88
3282.00,134.87
3281.00,134.85
3280.00,134.84
3279.00,134.83
3278.00,134.82
3277.00,134.81
3276.00,134.79
3275.00,134.78
3274.00,134.77
3273.00,134.76
3272.00,134.75
3271.00,134.74
3270.00,134.74
3269.00,134.74
3268.00,134.74
3267.00,134.74
3266.00,134.75
3265.00,134.75
3264.00,134.75
3263.00,134.75
3262.00,134.75
3261.00,134.75
3260.00,134.75
3259.00,134.75
3258.00,134.75
3257.00,134.75
3256.00,134.75
3255.00,134.75
3254.00,134.75
3253.00,134.75
3252.00,134.76
3251.00,134.76
3250.00,134.75
3249.00,134.75
3248.00,134.75
3247.00,134.75
3246.00,134.75
3245.00,134.76
3244.00,134.76
3243.00,134.76
3242.00,134.76
3241.00,134.77
3240.00,134.77
3239.00,134.77
3238.00,134.77
3237.00,134.77
3236.00,134.77
3235.00,134.77
3234.00,134.77
3233.00,134.77
3232.00,134.78
3231.00,134.79
3230.00,134.80
3229.00,134.81
3228.00,134.82
3227.00,134.83
3226.00,134.84
3225.00,134.85
3224.00,134.86
3223.00,134.86
3222.00,134.87
3221.00,134.88
3220.00,134.89
3219.00,134.91
3218.00,134.92
3217.00,134.93
3216.00,134.94
3215.00,134.95
3214.00,134.96
3213.00,134.97
3212.00,134.98
3211.00,134.99
3210.00,135.00
3209.00,135.01
3208.00,135.02
3207.00,135.03
3206.00,135.04
3205.00,135.05
3204.00,135.06
3203.00,135.07
3202.00,135.08
3201.00,135.08
3200.00,135.09
3199.00,135.09
3198.00,135.10
3197.00,135.10
3196.00,135.11
3195.00,135.11
3194.00,135.11
3193.00,135.10
3192.00,135.10
3191.00,135.10
3190.00,135.10
3189.00,135.10
3188.00,135.11
3187.00,135.11
3186.00,135.12
3185.00,135.12
3184.00,135.13
3183.00,135.14
3182.00,135.15
3181.00,135.16
3180.00,135.16
3179.00,135.16
3178.00,135.16
3177.00,135.16
3176.00,135.16
3175.00,135.15
3174.00,135.15
3173.00,135.15
3172.00,135.14
3171.00,135.14
3170.00,135.14
3169.00,135.14
3168.00,135.15
3167.00,135.15
3166.00,135.15
3165.00,135.16
3164.00,135.16
3163.00,135.17
3162.00,135.17
3161.00,135.18
3160.00,135.18
3159.00,135.19
3158.00,135.19
3157.00,135.19
3156.00,135.19
3155.00,135.18
3154.00,135.18
3153.00,135.18
3152.00,135.18
3151.00,135.18
3150.00,135.18
3149.00,135.18
3148.00,135.18
3147.00,135.18
3146.00,135.17
3145.00,135.17
3144.00,135.17
3143.00,135.17
3142.00,135.16
3141.00,135.16
3140.00,135.16
3139.00,135.16
3138.00,135.16
3137.00,135.16
3136.00,135.17
3135.00,135.17
3134.00,135.18
3133.00,135.18
3132.00,135.18
3131.00,135.18
3130.00,135.19
3129.00,135.19
3128.00,135.20
3127.00,135.21
3126.00,135.21
3125.00,135.22
3124.00,135.23
3123.00,135.23
3122.00,135.23
3121.00,135.24
3120.00,135.24
3119.00,135.25
3118.00,135.26
3117.00,135.28
3116.00,135.29
3115.00,135.31
3114.00,135.33
3113.00,135.35
3112.00,135.37
3111.00,135.38
3110.00,135.39
3109.00,135.41
3108.00,135.43
3107.00,135.45
3106.00,135.46
3105.00,135.48
3104.00,135.49
3103.00,135.50
3102.00,135.51
3101.00,135.51
3100.00,135.52
3099.00,135.52
3098.00,135.53
3097.00,135.53
3096.00,135.54
3095.00,135.55
3094.00,135.55
3093.00,135.56
3092.00,135.57
3091.00,135.57
3090.00,135.58
3089.00,135.60
3088.00,135.61
3087.00,135.62
3086.00,135.63
3085.00,135.65
3084.00,135.66
3083.00,135.67
3082.00,135.69
3081.00,135.70
3080.00,135.71
3079.00,135.71
3078.00,135.72
3077.00,135.73
3076.00,135.74
3075.00,135.75
3074.00,135.75
3073.00,135.75
3072.00,135.75
3071.00,135.75
3070.00,135.75
3069.00,135.75
3068.00,135.75
3067.00,135.75
3066.00,135.75
3065.00,135.76
3064.00,135.76
3063.00,135.76
3062.00,135.76
3061.00,135.76
3060.00,135.76
3059.00,135.76
3058.00,135.76
3057.00,135.76
3056.00,135.76
3055.00,135.76
3054.00,135.76
3053.00,135.75
3052.00,135.75
3051.00,135.75
3050.00,135.75
3049.00,135.76
3048.00,135.76
3047.00,135.76
3046.00,135.75
3045.00,135.75
3044.00,135.75
3043.00,135.75
3042.00,135.75
3041.00,135.76
3040.00,135.76
3039.00,135.76
3038.00,135.76
3037.00,135.76
3036.00,135.76
3035.00,135.76
3034.00,135.76
3033.00,135.76
3032.00,135.76
3031.00,135.76
3030.00,135.76
3029.00,135.76
3028.00,135.75
3027.00,135.75
3026.00,135.75
3025.00,135.74
3024.00,135.74
3023.00,135.74
3022.00,135.74
3021.00,135.74
3020.00,135.74
3019.00,135.74
3018.00,135.73
3017.00,135.73
3016.00,135.73
3015.00,135.73
3014.00,135.73
3013.00,135.73
3012.00,135.74
3011.00,135.74
3010.00,135.75
3009.00,135.75
3008.00,135.76
3007.00,135.76
3006.00,135.76
3005.00,135.76
3004.00,135.76
3003.00,135.76
3002.00,135.76
3001.00,135.77
3000.00,135.77
2999.00,135.77
2998.00,135.77
2997.00,135.77
2996.00,135.77
2995.00,135.77
2994.00,135.77
2993.00,135.77
2992.00,135.77
2991.00,135.77
2990.00,135.78
2989.00,135.78
2988.00,135.78
2987.00,135.78
2986.00,135.78
2985.00,135.78
2984.00,135.78
2983.00,135.77
2982.00,135.77
2981.00,135.77
2980.00,135.77
2979.00,135.76
2978.00,135.76
2977.00,135.76
2976.00,135.76
2975.00,135.76
2974.00,135.76
2973.00,135.76
2972.00,135.76
2971.00,135.76
2970.00,135.75
2969.00,135.75
2968.00,135.75
2967.00,135.75
2966.00,135.75
2965.00,135.75
2964.00,135.76
2963.00,135.76
2962.00,135.76
2961.00,135.76
2960.00,135.77
2959.00,135.77
2958.00,135.77
2957.00,135.77
2956.00,135.77
2955.00,135.77
2954.00,135.77
2953.00,135.77
2952.00,135.77
2951.00,135.78
2950.00,135.78
2949.00,135.78
2948.00,135.78
2947.00,135.78
2946.00,135.78
2945.00,135.77
2944.00,135.78
2943.00,135.78
2942.00,135.78
2941.00,135.78
2940.00,135.78
2939.00,135.78
2938.00,135.78
2937.00,135.78
2936.00,135.78
2935.00,135.78
2934.00,135.78
2933.00,135.78
2932.00,135.78
2931.00,135.78
2930.00,135.77
2929.00,135.77
2928.00,135.77
2927.00,135.77
2926.00,135.77
2925.00,135.77
2924.00,135.78
2923.00,135.78
2922.00,135.78
2921.00,135.78
2920.00,135.78
2919.00,135.77
2918.00,135.77
2917.00,135.76
2916.00,135.76
2915.00,135.75
2914.00,135.75
2913.00,135.75
2912.00,135.74
2911.00,135.74
2910.00,135.74
2909.00,135.74
2908.00,135.74
2907.00,135.74
2906.00,135.74
2905.00,135.74
2904.00,135.74
2903.00,135.75
2902.00,135.75
2901.00,135.75
2900.00,135.76
2899.00,135.76
2898.00,135.76
2897.00,135.77
2896.00,135.77
2895.00,135.77
2894.00,135.78
2893.00,135.78
2892.00,135.78
2891.00,135.78
2890.00,135.78
2889.00,135.78
2888.00,135.78
2887.00,135.78
2886.00,135.78
2885.00,135.78
2884.00,135.78
2883.00,135.77
2882.00,135.77
2881.00,135.77
2880.00,135.76
2879.00,135.76
2878.00,135.76
2877.00,135.75
2876.00,135.75
2875.00,135.74
2874.00,135.74
2873.00,135.73
2872.00,135.73
2871.00,135.73
2870.00,135.73
2869.00,135.73
2868.00,135.73
2867.00,135.73
2866.00,135.72
2865.00,135.72
2864.00,135.72
2863.00,135.72
2862.00,135.72
2861.00,135.72
2860.00,135.72
2859.00,135.72
2858.00,135.73
2857.00,135.73
2856.00,135.73
2855.00,135.74
2854.00,135.74
2853.00,135.75
2852.00,135.75
2851.00,135.75
2850.00,135.76
2849.00,135.76
2848.00,135.76
2847.00,135.76
2846.00,135.76
2845.00,135.75
2844.00,135.75
2843.00,135.75
2842.00,135.75
2841.00,135.75
2840.00,135.74
2839.00,135.74
2838.00,135.73
2837.00,135.73
2836.00,135.74
2835.00,135.73
2834.00,135.73
2833.00,135.73
2832.00,135.73
2831.00,135.73
2830.00,135.73
2829.00,135.72
2828.00,135.72
2827.00,135.72
2826.00,135.71
2825.00,135.71
2824.00,135.70
2823.00,135.70
2822.00,135.70
2821.00,135.69
2820.00,135.69
2819.00,135.68
2818.00,135.68
2817.00,135.68
2816.00,135.68
2815.00,135.68
2814.00,135.68
2813.00,135.68
2812.00,135.67
2811.00,135.67
2810.00,135.67
2809.00,135.68
2808.00,135.68
2807.00,135.68
2806.00,135.68
2805.00,135.68
2804.00,135.69
2803.00,135.69
2802.00,135.69
2801.00,135.69
2800.00,135.69
2799.00,135.69
2798.00,135.69
2797.00,135.69
2796.00,135.70
2795.00,135.70
2794.00,135.69
2793.00,135.69
2792.00,135.69
2791.00,135.69
2790.00,135.69
2789.00,135.68
2788.00,135.68
2787.00,135.68
2786.00,135.68
2785.00,135.67
2784.00,135.67
2783.00,135.67
2782.00,135.66
2781.00,135.65
2780.00,135.65
2779.00,135.64
2778.00,135.64
2777.00,135.63
2776.00,135.62
2775.00,135.61
2774.00,135.61
2773.00,135.60
2772.00,135.60
2771.00,135.59
2770.00,135.59
2769.00,135.58
2768.00,135.58
2767.00,135.57
2766.00,135.57
2765.00,135.56
2764.00,135.56
2763.00,135.56
2762.00,135.55
2761.00,135.55
2760.00,135.55
2759.00,135.55
2758.00,135.55
2757.00,135.54
2756.00,135.55
2755.00,135.55
2754.00,135.55
2753.00,135.55
2752.00,135.55
2751.00,135.55
2750.00,135.55
2749.00,135.56
2748.00,135.56
2747.00,135.56
2746.00,135.57
2745.00,135.57
2744.00,135.58
2743.00,135.58
2742.00,135.59
2741.00,135.59
2740.00,135.60
2739.00,135.60
2738.00,135.60
2737.00,135.61
2736.00,135.61
2735.00,135.61
2734.00,135.61
2733.00,135.61
2732.00,135.61
2731.00,135.61
2730.00,135.60
2729.00,135.60
2728.00,135.59
2727.00,135.58
2726.00,135.57
2725.00,135.56
2724.00,135.56
2723.00,135.55
2722.00,135.54
2721.00,135.53
2720.00,135.52
2719.00,135.51
2718.00,135.51
2717.00,135.50
2716.00,135.49
2715.00,135.48
2714.00,135.47
2713.00,135.46
2712.00,135.45
2711.00,135.45
2710.00,135.44
2709.00,135.43
2708.00,135.42
2707.00,135.42
2706.00,135.41
2705.00,135.40
2704.00,135.40
2703.00,135.40
2702.00,135.39
2701.00,135.39
2700.00,135.39
2699.00,135.39
2698.00,135.38
2697.00,135.38
2696.00,135.38
2695.00,135.38
2694.00,135.38
2693.00,135.38
2692.00,135.39
2691.00,135.39
2690.00,135.39
2689.00,135.39
2688.00,135.39
2687.00,135.40
2686.00,135.40
2685.00,135.41
2684.00,135.41
2683.00,135.42
2682.00,135.42
2681.00,135.43
2680.00,135.43
2679.00,135.43
2678.00,135.44
2677.00,135.44
2676.00,135.44
2675.00,135.44
2674.00,135.44
2673.00,135.44
2672.00,135.43
2671.00,135.43
2670.00,135.42
2669.00,135.41
2668.00,135.40
2667.00,135.39
2666.00,135.38
2665.00,135.37
2664.00,135.36
2663.00,135.34
2662.00,135.33
2661.00,135.32
2660.00,135.30
2659.00,135.29
2658.00,135.28
2657.00,135.27
2656.00,135.25
2655.00,135.24
2654.00,135.23
2653.00,135.22
2652.00,135.22
2651.00,135.21
2650.00,135.20
2649.00,135.20
2648.00,135.19
2647.00,135.19
2646.00,135.19
2645.00,135.19
2644.00,135.19
2643.00,135.19
2642.00,135.19
2641.00,135.19
2640.00,135.19
2639.00,135.20
2638.00,135.20
2637.00,135.21
2636.00,135.21
2635.00,135.22
2634.00,135.22
2633.00,135.23
2632.00,135.23
2631.00,135.24
2630.00,135.25
2629.00,135.25
2628.00,135.26
2627.00,135.26
2626.00,135.27
2625.00,135.27
2624.00,135.28
2623.00,135.28
2622.00,135.28
2621.00,135.29
2620.00,135.29
2619.00,135.29
2618.00,135.29
2617.00,135.29
2616.00,135.29
2615.00,135.29
2614.00,135.29
2613.00,135.29
2612.00,135.29
2611.00,135.29
2610.00,135.29
2609.00,135.29
2608.00,135.28
2607.00,135.28
2606.00,135.28
2605.00,135.27
2604.00,135.27
2603.00,135.27
2602.00,135.26
2601.00,135.26
2600.00,135.26
2599.00,135.25
2598.00,135.25
2597.00,135.25
2596.00,135.25
2595.00,135.25
2594.00,135.25
2593.00,135.25
2592.00,135.25
2591.00,135.25
2590.00,135.25
2589.00,135.25
2588.00,135.26
2587.00,135.26
2586.00,135.26
2585.00,135.26
2584.00,135.26
2583.00,135.27
2582.00,135.27
2581.00,135.27
2580.00,135.27
2579.00,135.27
2578.00,135.27
2577.00,135.27
2576.00,135.26
2575.00,135.26
2574.00,135.26
2573.00,135.25
2572.00,135.25
2571.00,135.24
2570.00,135.24
2569.00,135.23
2568.00,135.22
2567.00,135.22
2566.00,135.21
2565.00,135.20
2564.00,135.19
2563.00,135.19
2562.00,135.18
2561.00,135.17
2560.00,135.17
2559.00,135.16
2558.00,135.15
2557.00,135.14
2556.00,135.13
2555.00,135.12
2554.00,135.12
2553.00,135.11
2552.00,135.10
2551.00,135.09
2550.00,135.09
2549.00,135.08
2548.00,135.07
2547.00,135.06
2546.00,135.06
2545.00,135.05
2544.00,135.04
2543.00,135.04
2542.00,135.04
2541.00,135.04
2540.00,135.03
2539.00,135.03
2538.00,135.03
2537.00,135.03
2536.00,135.03
2535.00,135.04
2534.00,135.04
2533.00,135.04
2532.00,135.04
2531.00,135.04
2530.00,135.05
2529.00,135.05
2528.00,135.04
2527.00,135.04
2526.00,135.04
2525.00,135.04
2524.00,135.03
2523.00,135.03
2522.00,135.02
2521.00,135.01
2520.00,135.00
2519.00,135.00
2518.00,134.99
2517.00,134.98
2516.00,134.97
2515.00,134.96
2514.00,134.94
2513.00,134.93
2512.00,134.92
2511.00,134.90
2510.00,134.89
2509.00,134.87
2508.00,134.86
2507.00,134.84
2506.00,134.83
2505.00,134.81
2504.00,134.80
2503.00,134.79
2502.00,134.77
2501.00,134.76
2500.00,134.75
2499.00,134.74
2498.00,134.72
2497.00,134.71
2496.00,134.70
2495.00,134.69
2494.00,134.69
2493.00,134.68
2492.00,134.68
2491.00,134.67
2490.00,134.67
2489.00,134.67
2488.00,134.66
2487.00,134.66
2486.00,134.66
2485.00,134.66
2484.00,134.66
2483.00,134.66
2482.00,134.65
2481.00,134.65
2480.00,134.65
2479.00,134.64
2478.00,134.64
2477.00,134.63
2476.00,134.63
2475.00,134.63
2474.00,134.62
2473.00,134.62
2472.00,134.62
2471.00,134.62
2470.00,134.61
2469.00,134.61
2468.00,134.61
2467.00,134.61
2466.00,134.61
2465.00,134.61
2464.00,134.61
2463.00,134.61
2462.00,134.60
2461.00,134.60
2460.00,134.60
2459.00,134.60
2458.00,134.60
2457.00,134.60
2456.00,134.59
2455.00,134.59
2454.00,134.59
2453.00,134.60
2452.00,134.60
2451.00,134.60
2450.00,134.60
2449.00,134.60
2448.00,134.61
2447.00,134.61
2446.00,134.62
2445.00,134.63
2444.00,134.64
2443.00,134.65
2442.00,134.65
2441.00,134.66
2440.00,134.67
2439.00,134.68
2438.00,134.70
2437.00,134.71
2436.00,134.72
2435.00,134.73
2434.00,134.74
2433.00,134.76
2432.00,134.77
2431.00,134.78
2430.00,134.80
2429.00,134.81
2428.00,134.83
2427.00,134.85
2426.00,134.87
2425.00,134.88
2424.00,134.90
2423.00,134.91
2422.00,134.93
2421.00,134.94
2420.00,134.96
2419.00,134.97
2418.00,134.98
2417.00,134.99
2416.00,134.99
2415.00,135.00
2414.00,135.00
2413.00,135.00
2412.00,135.00
2411.00,135.00
2410.00,135.00
2409.00,134.99
2408.00,134.98
2407.00,134.97
2406.00,134.96
2405.00,134.95
2404.00,134.94
2403.00,134.93
2402.00,134.91
2401.00,134.90
2400.00,134.89
2399.00,134.88
2398.00,134.87
2397.00,134.85
2396.00,134.84
2395.00,134.83
2394.00,134.82
2393.00,134.82
2392.00,134.81
2391.00,134.80
2390.00,134.80
2389.00,134.79
2388.00,134.79
2387.00,134.78
2386.00,134.78
2385.00,134.78
2384.00,134.78
2383.00,134.78
2382.00,134.77
2381.00,134.77
2380.00,134.77
2379.00,134.77
2378.00,134.77
2377.00,134.76
2376.00,134.76
2375.00,134.76
2374.00,134.75
2373.00,134.75
2372.00,134.74
2371.00,134.73
2370.00,134.73
2369.00,134.72
2368.00,134.72
2367.00,134.72
2366.00,134.72
2365.00,134.72
2364.00,134.72
2363.00,134.71
2362.00,134.71
2361.00,134.71
2360.00,134.71
2359.00,134.71
2358.00,134.71
2357.00,134.71
2356.00,134.71
2355.00,134.72
2354.00,134.72
2353.00,134.72
2352.00,134.70
2351.00,134.68
2350.00,134.68
2349.00,134.69
2348.00,134.72
2347.00,134.73
2346.00,134.70
2345.00,134.66
2344.00,134.62
2343.00,134.62
2342.00,134.62
2341.00,134.63
2340.00,134.64
2339.00,134.64
2338.00,134.65
2337.00,134.66
2336.00,134.67
2335.00,134.67
2334.00,134.68
2333.00,134.68
2332.00,134.69
2331.00,134.68
2330.00,134.68
2329.00,134.67
2328.00,134.66
2327.00,134.64
2326.00,134.63
2325.00,134.61
2324.00,134.59
2323.00,134.57
2322.00,134.55
2321.00,134.53
2320.00,134.51
2319.00,134.50
2318.00,134.49
2317.00,134.48
2316.00,134.48
2315.00,134.48
2314.00,134.48
2313.00,134.48
2312.00,134.47
2311.00,134.47
2310.00,134.47
2309.00,134.47
2308.00,134.47
2307.00,134.47
2306.00,134.47
2305.00,134.48
2304.00,134.48
2303.00,134.48
2302.00,134.48
2301.00,134.48
2300.00,134.48
2299.00,134.48
2298.00,134.48
2297.00,134.48
2296.00,134.48
2295.00,134.48
2294.00,134.48
2293.00,134.48
2292.00,134.48
2291.00,134.48
2290.00,134.48
2289.00,134.48
2288.00,134.49
2287.00,134.49
2286.00,134.49
2285.00,134.49
2284.00,134.49
2283.00,134.49
2282.00,134.49
2281.00,134.49
2280.00,134.49
2279.00,134.49
2278.00,134.50
2277.00,134.50
2276.00,134.50
2275.00,134.51
2274.00,134.51
2273.00,134.52
2272.00,134.52
2271.00,134.53
2270.00,134.53
2269.00,134.53
2268.00,134.54
2267.00,134.54
2266.00,134.55
2265.00,134.55
2264.00,134.55
2263.00,134.55
2262.00,134.56
2261.00,134.56
2260.00,134.56
2259.00,134.56
2258.00,134.56
2257.00,134.56
2256.00,134.57
2255.00,134.57
2254.00,134.56
2253.00,134.56
2252.00,134.56
2251.00,134.56
2250.00,134.55
2249.00,134.55
2248.00,134.54
2247.00,134.53
2246.00,134.53
2245.00,134.52
2244.00,134.51
2243.00,134.50
2242.00,134.49
2241.00,134.48
2240.00,134.46
2239.00,134.45
2238.00,134.44
2237.00,134.42
2236.00,134.41
2235.00,134.39
2234.00,134.38
2233.00,134.36
2232.00,134.35
2231.00,134.34
2230.00,134.32
2229.00,134.31
2228.00,134.30
2227.00,134.29
2226.00,134.28
2225.00,134.27
2224.00,134.26
2223.00,134.25
2222.00,134.25
2221.00,134.24
2220.00,134.24
2219.00,134.24
2218.00,134.24
2217.00,134.25
2216.00,134.25
2215.00,134.25
2214.00,134.26
2213.00,134.26
2212.00,134.26
2211.00,134.26
2210.00,134.26
2209.00,134.26
2208.00,134.26
2207.00,134.26
2206.00,134.25
2205.00,134.24
2204.00,134.24
2203.00,134.23
2202.00,134.22
2201.00,134.21
2200.00,134.20
2199.00,134.19
2198.00,134.18
2197.00,134.16
2196.00,134.15
2195.00,134.14
2194.00,134.13
2193.00,134.12
2192.00,134.10
2191.00,134.09
2190.00,134.08
2189.00,134.06
2188.00,134.05
2187.00,134.04
2186.00,134.03
2185.00,134.02
2184.00,134.01
2183.00,134.00
2182.00,134.00
2181.00,133.99
2180.00,133.98
2179.00,133.98
2178.00,133.97
2177.00,133.97
2176.00,133.97
2175.00,133.97
2174.00,133.97
2173.00,133.98
2172.00,133.99
2171.00,133.99
2170.00,134.00
2169.00,134.01
2168.00,134.02
2167.00,134.03
2166.00,134.05
2165.00,134.06
2164.00,134.07
2163.00,134.09
2162.00,134.10
2161.00,134.11
2160.00,134.12
2159.00,134.13
2158.00,134.14
2157.00,134.15
2156.00,134.16
2155.00,134.16
2154.00,134.16
2153.00,134.16
2152.00,134.17
2151.00,134.16
2150.00,134.16
2149.00,134.16
2148.00,134.15
2147.00,134.15
2146.00,134.14
2145.00,134.13
2144.00,134.12
2143.00,134.11
2142.00,134.10
2141.00,134.09
2140.00,134.07
2139.00,134.06
2138.00,134.04
2137.00,134.03
2136.00,134.01
2135.00,134.00
2134.00,133.98
2133.00,133.97
2132.00,133.96
2131.00,133.95
2130.00,133.94
2129.00,133.93
2128.00,133.93
2127.00,133.92
2126.00,133.92
2125.00,133.92
2124.00,133.92
2123.00,133.92
2122.00,133.92
2121.00,133.92
2120.00,133.92
2119.00,133.92
2118.00,133.93
2117.00,133.93
2116.00,133.93
2115.00,133.94
2114.00,133.94
2113.00,133.95
2112.00,133.95
2111.00,133.95
2110.00,133.96
2109.00,133.96
2108.00,133.97
2107.00,133.97
2106.00,133.98
2105.00,133.98
2104.00,133.98
2103.00,133.99
2102.00,133.99
2101.00,134.00
2100.00,134.00
2099.00,134.01
2098.00,134.01
2097.00,134.01
2096.00,134.01
2095.00,134.02
2094.00,134.02
2093.00,134.02
2092.00,134.02
2091.00,134.03
2090.00,134.03
2089.00,134.02
2088.00,134.02
2087.00,134.02
2086.00,134.02
2085.00,134.02
2084.00,134.02
2083.00,134.02
2082.00,134.02
2081.00,134.01
2080.00,134.01
2079.00,134.00
2078.00,134.00
2077.00,134.00
2076.00,133.99
2075.00,133.99
2074.00,133.98
2073.00,133.98
2072.00,133.97
2071.00,133.97
2070.00,133.96
2069.00,133.96
2068.00,133.95
2067.00,133.95
2066.00,133.95
2065.00,133.94
2064.00,133.94
2063.00,133.93
2062.00,133.93
2061.00,133.92
2060.00,133.92
2059.00,133.92
2058.00,133.92
2057.00,133.92
2056.00,133.92
2055.00,133.92
2054.00,133.92
2053.00,133.92
2052.00,133.93
2051.00,133.93
2050.00,133.93
2049.00,133.94
2048.00,133.95
2047.00,133.95
2046.00,133.96
2045.00,133.97
2044.00,133.97
2043.00,133.99
2042.00,134.00
2041.00,134.01
2040.00,134.02
2039.00,134.03
2038.00,134.03
2037.00,134.04
2036.00,134.04
2035.00,134.05
2034.00,134.05
2033.00,134.05
2032.00,134.05
2031.00,134.05
2030.00,134.04
2029.00,134.03
2028.00,134.02
2027.00,134.02
2026.00,134.01
2025.00,133.99
2024.00,133.98
2023.00,133.97
2022.00,133.96
2021.00,133.95
2020.00,133.94
2019.00,133.93
2018.00,133.92
2017.00,133.91
2016.00,133.91
2015.00,133.91
2014.00,133.90
2013.00,133.91
2012.00,133.91
2011.00,133.91
2010.00,133.92
2009.00,133.92
2008.00,133.93
2007.00,133.95
2006.00,133.96
2005.00,133.98
2004.00,133.99
2003.00,134.01
2002.00,134.03
2001.00,134.05
2000.00,134.07
1999.00,134.09
1998.00,134.11
1997.00,134.13
1996.00,134.16
1995.00,134.18
1994.00,134.20
1993.00,134.23
1992.00,134.25
1991.00,134.28
1990.00,134.30
1989.00,134.32
1988.00,134.35
1987.00,134.37
1986.00,134.39
1985.00,134.41
1984.00,134.43
1983.00,134.45
1982.00,134.46
1981.00,134.48
1980.00,134.49
1979.00,134.49
1978.00,134.49
1977.00,134.49
1976.00,134.49
1975.00,134.48
1974.00,134.47
1973.00,134.46
1972.00,134.44
1971.00,134.42
1970.00,134.40
1969.00,134.38
1968.00,134.36
1967.00,134.35
1966.00,134.33
1965.00,134.32
1964.00,134.32
1963.00,134.33
1962.00,134.34
1961.00,134.36
1960.00,134.38
1959.00,134.40
1958.00,134.44
1957.00,134.48
1956.00,134.53
1955.00,134.57
1954.00,134.61
1953.00,134.65
1952.00,134.69
1951.00,134.72
1950.00,134.75
1949.00,134.77
1948.00,134.79
1947.00,134.81
1946.00,134.82
1945.00,134.82
1944.00,134.81
1943.00,134.80
1942.00,134.78
1941.00,134.76
1940.00,134.73
1939.00,134.70
1938.00,134.67
1937.00,134.63
1936.00,134.59
1935.00,134.55
1934.00,134.52
1933.00,134.48
1932.00,134.45
1931.00,134.42
1930.00,134.40
1929.00,134.38
1928.00,134.36
1927.00,134.35
1926.00,134.34
1925.00,134.33
1924.00,134.33
1923.00,134.33
1922.00,134.32
1921.00,134.32
1920.00,134.32
1919.00,134.32
1918.00,134.31
1917.00,134.31
1916.00,134.30
1915.00,134.29
1914.00,134.29
1913.00,134.28
1912.00,134.27
1911.00,134.25
1910.00,134.24
1909.00,134.23
1908.00,134.22
1907.00,134.21
1906.00,134.20
1905.00,134.20
1904.00,134.19
1903.00,134.19
1902.00,134.19
1901.00,134.19
1900.00,134.20
1899.00,134.20
1898.00,134.21
1897.00,134.22
1896.00,134.23
1895.00,134.24
1894.00,134.25
1893.00,134.26
1892.00,134.27
1891.00,134.28
1890.00,134.29
1889.00,134.31
1888.00,134.32
1887.00,134.34
1886.00,134.35
1885.00,134.37
1884.00,134.39
1883.00,134.40
1882.00,134.42
1881.00,134.43
1880.00,134.45
1879.00,134.47
1878.00,134.48
1877.00,134.49
1876.00,134.50
1875.00,134.51
1874.00,134.52
1873.00,134.53
1872.00,134.53
1871.00,134.53
1870.00,134.52
1869.00,134.51
1868.00,134.50
1867.00,134.49
1866.00,134.48
1865.00,134.47
1864.00,134.47
1863.00,134.46
1862.00,134.46
1861.00,134.46
1860.00,134.47
1859.00,134.48
1858.00,134.50
1857.00,134.52
1856.00,134.54
1855.00,134.57
1854.00,134.60
1853.00,134.64
1852.00,134.67
1851.00,134.71
1850.00,134.74
1849.00,134.78
1848.00,134.81
1847.00,134.84
1846.00,134.87
1845.00,134.89
1844.00,134.92
1843.00,134.95
1842.00,134.96
1841.00,134.98
1840.00,134.99
1839.00,134.99
1838.00,134.99
1837.00,134.99
1836.00,134.99
1835.00,134.99
1834.00,134.98
1833.00,134.98
1832.00,134.97
1831.00,134.96
1830.00,134.96
1829.00,134.95
1828.00,134.95
1827.00,134.95
1826.00,134.96
1825.00,134.96
1824.00,134.97
1823.00,134.98
1822.00,134.99
1821.00,135.00
1820.00,135.01
1819.00,135.02
1818.00,135.03
1817.00,135.04
1816.00,135.05
1815.00,135.06
1814.00,135.07
1813.00,135.08
1812.00,135.08
1811.00,135.09
1810.00,135.10
1809.00,135.11
1808.00,135.12
1807.00,135.13
1806.00,135.15
1805.00,135.16
1804.00,135.17
1803.00,135.19
1802.00,135.20
1801.00,135.22
1800.00,135.23
1799.00,135.25
1798.00,135.27
1797.00,135.29
1796.00,135.31
1795.00,135.33
1794.00,135.35
1793.00,135.37
1792.00,135.39
1791.00,135.40
1790.00,135.42
1789.00,135.43
1788.00,135.45
1787.00,135.47
1786.00,135.48
1785.00,135.49
1784.00,135.50
1783.00,135.51
1782.00,135.52
1781.00,135.53
1780.00,135.54
1779.00,135.54
1778.00,135.55
1777.00,135.55
1776.00,135.56
1775.00,135.56
1774.00,135.56
1773.00,135.56
1772.00,135.56
1771.00,135.55
1770.00,135.54
1769.00,135.53
1768.00,135.53
1767.00,135.53
1766.00,135.53
1765.00,135.53
1764.00,135.52
1763.00,135.51
1762.00,135.50
1761.00,135.49
1760.00,135.49
1759.00,135.49
1758.00,135.49
1757.00,135.49
1756.00,135.48
1755.00,135.48
1754.00,135.48
1753.00,135.49
1752.00,135.50
1751.00,135.50
1750.00,135.50
1749.00,135.49
1748.00,135.49
1747.00,135.49
1746.00,135.49
1745.00,135.49
1744.00,135.50
1743.00,135.50
1742.00,135.50
1741.00,135.51
1740.00,135.51
1739.00,135.52
1738.00,135.53
1737.00,135.53
1736.00,135.54
1735.00,135.55
1734.00,135.55
1733.00,135.56
1732.00,135.56
1731.00,135.56
1730.00,135.57
1729.00,135.56
1728.00,135.56
1727.00,135.56
1726.00,135.56
1725.00,135.57
1724.00,135.57
1723.00,135.57
1722.00,135.57
1721.00,135.57
1720.00,135.57
1719.00,135.56
1718.00,135.56
1717.00,135.55
1716.00,135.55
1715.00,135.55
1714.00,135.55
1713.00,135.54
1712.00,135.53
1711.00,135.53
1710.00,135.52
1709.00,135.52
1708.00,135.51
1707.00,135.51
1706.00,135.50
1705.00,135.50
1704.00,135.49
1703.00,135.49
1702.00,135.48
1701.00,135.48
1700.00,135.48
1699.00,135.48
1698.00,135.47
1697.00,135.47
1696.00,135.47
1695.00,135.48
1694.00,135.48
1693.00,135.48
1692.00,135.48
1691.00,135.48
1690.00,135.48
1689.00,135.48
1688.00,135.48
1687.00,135.48
1686.00,135.48
1685.00,135.50
1684.00,135.51
1683.00,135.51
1682.00,135.50
1681.00,135.51
1680.00,135.52
1679.00,135.52
1678.00,135.52
1677.00,135.52
1676.00,135.52
1675.00,135.52
1674.00,135.53
1673.00,135.53
1672.00,135.53
1671.00,135.52
1670.00,135.52
1669.00,135.51
1668.00,135.50
1667.00,135.50
1666.00,135.49
1665.00,135.49
1664.00,135.48
1663.00,135.46
1662.00,135.44
1661.00,135.43
1660.00,135.42
1659.00,135.42
1658.00,135.41
1657.00,135.40
1656.00,135.38
1655.00,135.36
1654.00,135.34
1653.00,135.33
1652.00,135.34
1651.00,135.35
1650.00,135.36
1649.00,135.35
1648.00,135.34
1647.00,135.33
1646.00,135.33
1645.00,135.33
1644.00,135.34
1643.00,135.35
1642.00,135.36
1641.00,135.38
1640.00,135.39
1639.00,135.40
1638.00,135.40
1637.00,135.41
1636.00,135.40
1635.00,135.40
1634.00,135.40
1633.00,135.40
1632.00,135.40
1631.00,135.40
1630.00,135.40
1629.00,135.39
1628.00,135.39
1627.00,135.39
1626.00,135.39
1625.00,135.39
1624.00,135.39
1623.00,135.40
1622.00,135.39
1621.00,135.39
1620.00,135.39
1619.00,135.39
1618.00,135.39
1617.00,135.40
1616.00,135.40
1615.00,135.41
1614.00,135.41
1613.00,135.42
1612.00,135.42
1611.00,135.43
1610.00,135.43
1609.00,135.44
1608.00,135.46
1607.00,135.46
1606.00,135.47
1605.00,135.47
1604.00,135.47
1603.00,135.47
1602.00,135.46
1601.00,135.45
1600.00,135.45
1599.00,135.44
1598.00,135.44
1597.00,135.43
1596.00,135.43
1595.00,135.42
1594.00,135.42
1593.00,135.41
1592.00,135.41
1591.00,135.41
1590.00,135.41
1589.00,135.41
1588.00,135.42
1587.00,135.42
1586.00,135.42
1585.00,135.43
1584.00,135.43
1583.00,135.44
1582.00,135.44
1581.00,135.45
1580.00,135.46
1579.00,135.45
1578.00,135.45
1577.00,135.46
1576.00,135.47
1575.00,135.48
1574.00,135.49
1573.00,135.49
1572.00,135.49
1571.00,135.48
1570.00,135.48
1569.00,135.47
1568.00,135.47
1567.00,135.46
1566.00,135.46
1565.00,135.46
1564.00,135.45
1563.00,135.44
1562.00,135.43
1561.00,135.43
1560.00,135.43
1559.00,135.42
1558.00,135.39
1557.00,135.37
1556.00,135.37
1555.00,135.37
1554.00,135.37
1553.00,135.37
1552.00,135.36
1551.00,135.36
1550.00,135.35
1549.00,135.35
1548.00,135.35
1547.00,135.36
1546.00,135.37
1545.00,135.38
1544.00,135.38
1543.00,135.38
1542.00,135.38
1541.00,135.38
1540.00,135.38
1539.00,135.39
1538.00,135.39
1537.00,135.38
1536.00,135.36
1535.00,135.35
1534.00,135.33
1533.00,135.31
1532.00,135.30
1531.00,135.30
1530.00,135.31
1529.00,135.31
1528.00,135.31
1527.00,135.31
1526.00,135.32
1525.00,135.32
1524.00,135.32
1523.00,135.32
1522.00,135.32
1521.00,135.34
1520.00,135.35
1519.00,135.36
1518.00,135.37
1517.00,135.37
1516.00,135.37
1515.00,135.37
1514.00,135.38
1513.00,135.39
1512.00,135.41
1511.00,135.42
1510.00,135.43
1509.00,135.43
1508.00,135.43
1507.00,135.43
1506.00,135.43
1505.00,135.44
1504.00,135.44
1503.00,135.45
1502.00,135.44
1501.00,135.43
1500.00,135.42
1499.00,135.42
1498.00,135.41
1497.00,135.41
1496.00,135.41
1495.00,135.41
1494.00,135.41
1493.00,135.42
1492.00,135.42
1491.00,135.41
1490.00,135.41
1489.00,135.39
1488.00,135.39
1487.00,135.39
1486.00,135.39
1485.00,135.39
1484.00,135.40
1483.00,135.40
1482.00,135.40
1481.00,135.40
1480.00,135.40
1479.00,135.41
1478.00,135.41
1477.00,135.42
1476.00,135.43
1475.00,135.43
1474.00,135.44
1473.00,135.45
1472.00,135.46
1471.00,135.46
1470.00,135.47
1469.00,135.48
1468.00,135.48
1467.00,135.49
1466.00,135.49
1465.00,135.49
1464.00,135.49
1463.00,135.49
1462.00,135.50
1461.00,135.51
1460.00,135.51
1459.00,135.50
1458.00,135.50
1457.00,135.50
1456.00,135.50
1455.00,135.50
1454.00,135.50
1453.00,135.49
1452.00,135.48
1451.00,135.48
1450.00,135.47
1449.00,135.47
1448.00,135.46
1447.00,135.45
1446.00,135.44
1445.00,135.44
1444.00,135.43
1443.00,135.42
1442.00,135.42
1441.00,135.42
1440.00,135.41
1439.00,135.41
1438.00,135.40
1437.00,135.39
1436.00,135.39
1435.00,135.39
1434.00,135.39
1433.00,135.39
1432.00,135.39
1431.00,135.39
1430.00,135.39
1429.00,135.39
1428.00,135.39
1427.00,135.39
1426.00,135.39
1425.00,135.40
1424.00,135.41
1423.00,135.41
1422.00,135.41
1421.00,135.42
1420.00,135.42
1419.00,135.43
1418.00,135.43
1417.00,135.44
1416.00,135.44
1415.00,135.45
1414.00,135.46
1413.00,135.47
1412.00,135.47
1411.00,135.47
1410.00,135.47
1409.00,135.47
1408.00,135.47
1407.00,135.47
1406.00,135.47
1405.00,135.47
1404.00,135.47
1403.00,135.47
1402.00,135.47
1401.00,135.47
1400.00,135.46
1399.00,135.46
1398.00,135.45
1397.00,135.45
1396.00,135.45
1395.00,135.44
1394.00,135.44
1393.00,135.43
1392.00,135.43
1391.00,135.42
1390.00,135.42
1389.00,135.41
1388.00,135.41
1387.00,135.41
1386.00,135.41
1385.00,135.41
1384.00,135.40
1383.00,135.40
1382.00,135.39
1381.00,135.39
1380.00,135.39
1379.00,135.39
1378.00,135.40
1377.00,135.40
1376.00,135.40
1375.00,135.40
1374.00,135.40
1373.00,135.40
1372.00,135.40
1371.00,135.40
1370.00,135.41
1369.00,135.42
1368.00,135.43
1367.00,135.43
1366.00,135.43
1365.00,135.44
1364.00,135.44
1363.00,135.44
1362.00,135.45
1361.00,135.45
1360.00,135.46
1359.00,135.47
1358.00,135.47
1357.00,135.47
1356.00,135.47
1355.00,135.47
1354.00,135.48
1353.00,135.48
1352.00,135.48
1351.00,135.48
1350.00,135.48
1349.00,135.48
1348.00,135.47
1347.00,135.47
1346.00,135.47
1345.00,135.46
1344.00,135.46
1343.00,135.46
1342.00,135.45
1341.00,135.45
1340.00,135.45
1339.00,135.44
1338.00,135.43
1337.00,135.43
1336.00,135.43
1335.00,135.42
1334.00,135.42
1333.00,135.41
1332.00,135.41
1331.00,135.40
1330.00,135.40
1329.00,135.39
1328.00,135.39
1327.00,135.39
1326.00,135.40
1325.00,135.40
1324.00,135.40
1323.00,135.40
1322.00,135.40
1321.00,135.41
1320.00,135.41
1319.00,135.42
1318.00,135.42
1317.00,135.43
1316.00,135.44
1315.00,135.44
1314.00,135.45
1313.00,135.45
1312.00,135.45
1311.00,135.46
1310.00,135.46
1309.00,135.47
1308.00,135.48
1307.00,135.48
1306.00,135.49
1305.00,135.49
1304.00,135.49
1303.00,135.49
1302.00,135.49
1301.00,135.49
1300.00,135.50
1299.00,135.50
1298.00,135.50
1297.00,135.50
1296.00,135.49
1295.00,135.48
1294.00,135.48
1293.00,135.47
1292.00,135.47
1291.00,135.47
1290.00,135.46
1289.00,135.46
1288.00,135.45
1287.00,135.44
1286.00,135.44
1285.00,135.43
1284.00,135.43
1283.00,135.43
1282.00,135.42
1281.00,135.42
1280.00,135.42
1279.00,135.41
1278.00,135.41
1277.00,135.40
1276.00,135.40
1275.00,135.40
1274.00,135.40
1273.00,135.40
1272.00,135.41
1271.00,135.41
1270.00,135.41
1269.00,135.42
1268.00,135.42
1267.00,135.43
1266.00,135.44
1265.00,135.45
1264.00,135.47
1263.00,135.48
1262.00,135.49
1261.00,135.50
1260.00,135.51
1259.00,135.51
1258.00,135.52
1257.00,135.51
1256.00,135.51
1255.00,135.51
1254.00,135.50
1253.00,135.50
1252.00,135.49
1251.00,135.49
1250.00,135.48
1249.00,135.48
1248.00,135.48
1247.00,135.47
1246.00,135.47
1245.00,135.47
1244.00,135.47
1243.00,135.46
1242.00,135.46
1241.00,135.46
1240.00,135.45
1239.00,135.45
1238.00,135.44
1237.00,135.44
1236.00,135.43
1235.00,135.43
1234.00,135.42
1233.00,135.41
1232.00,135.41
1231.00,135.40
1230.00,135.40
1229.00,135.40
1228.00,135.39
1227.00,135.39
1226.00,135.38
1225.00,135.38
1224.00,135.38
1223.00,135.38
1222.00,135.38
1221.00,135.38
1220.00,135.38
1219.00,135.38
1218.00,135.38
1217.00,135.38
1216.00,135.38
1215.00,135.38
1214.00,135.39
1213.00,135.39
1212.00,135.40
1211.00,135.40
1210.00,135.41
1209.00,135.41
1208.00,135.42
1207.00,135.42
1206.00,135.43
1205.00,135.43
1204.00,135.44
1203.00,135.44
1202.00,135.45
1201.00,135.45
1200.00,135.46
1199.00,135.46
1198.00,135.46
1197.00,135.46
1196.00,135.47
1195.00,135.47
1194.00,135.47
1193.00,135.47
1192.00,135.47
1191.00,135.46
1190.00,135.46
1189.00,135.46
1188.00,135.46
1187.00,135.46
1186.00,135.45
1185.00,135.45
1184.00,135.44
1183.00,135.44
1182.00,135.43
1181.00,135.43
1180.00,135.42
1179.00,135.42
1178.00,135.41
1177.00,135.41
1176.00,135.41
1175.00,135.40
1174.00,135.40
1173.00,135.39
1172.00,135.38
1171.00,135.38
1170.00,135.38
1169.00,135.38
1168.00,135.38
1167.00,135.38
1166.00,135.38
1165.00,135.38
1164.00,135.38
1163.00,135.38
1162.00,135.38
1161.00,135.38
1160.00,135.39
1159.00,135.39
1158.00,135.40
1157.00,135.40
1156.00,135.40
1155.00,135.40
1154.00,135.41
1153.00,135.41
1152.00,135.42
1151.00,135.43
1150.00,135.43
1149.00,135.44
1148.00,135.44
1147.00,135.45
1146.00,135.45
1145.00,135.45
1144.00,135.45
1143.00,135.46
1142.00,135.46
1141.00,135.46
1140.00,135.47
1139.00,135.46
1138.00,135.46
1137.00,135.46
1136.00,135.46
1135.00,135.45
1134.00,135.45
1133.00,135.45
1132.00,135.45
1131.00,135.44
1130.00,135.44
1129.00,135.43
1128.00,135.43
1127.00,135.43
1126.00,135.43
1125.00,135.43
1124.00,135.42
1123.00,135.42
1122.00,135.42
1121.00,135.42
1120.00,135.41
1119.00,135.41
1118.00,135.42
1117.00,135.42
1116.00,135.42
1115.00,135.42
1114.00,135.42
1113.00,135.42
1112.00,135.42
1111.00,135.42
1110.00,135.43
1109.00,135.43
1108.00,135.43
1107.00,135.44
1106.00,135.44
1105.00,135.45
1104.00,135.45
1103.00,135.46
1102.00,135.46
1101.00,135.46
1100.00,135.47
1099.00,135.48
1098.00,135.48
1097.00,135.49
1096.00,135.49
1095.00,135.49
1094.00,135.49
1093.00,135.49
1092.00,135.49
1091.00,135.49
1090.00,135.49
1089.00,135.49
1088.00,135.49
1087.00,135.48
1086.00,135.48
1085.00,135.47
1084.00,135.47
1083.00,135.46
1082.00,135.46
1081.00,135.45
1080.00,135.44
1079.00,135.44
1078.00,135.43
1077.00,135.42
1076.00,135.40
1075.00,135.40
1074.00,135.39
1073.00,135.38
1072.00,135.38
1071.00,135.37
1070.00,135.37
1069.00,135.36
1068.00,135.35
1067.00,135.34
1066.00,135.34
1065.00,135.34
1064.00,135.34
1063.00,135.33
1062.00,135.33
1061.00,135.33
1060.00,135.32
1059.00,135.32
1058.00,135.33
1057.00,135.33
1056.00,135.33
1055.00,135.33
1054.00,135.34
1053.00,135.34
1052.00,135.34
1051.00,135.35
1050.00,135.35
1049.00,135.36
1048.00,135.36
1047.00,135.38
1046.00,135.39
1045.00,135.40
1044.00,135.41
1043.00,135.41
1042.00,135.41
1041.00,135.42
1040.00,135.42
1039.00,135.43
1038.00,135.44
1037.00,135.45
1036.00,135.45
1035.00,135.45
1034.00,135.45
1033.00,135.45
1032.00,135.45
1031.00,135.46
1030.00,135.46
1029.00,135.47
1028.00,135.47
1027.00,135.48
1026.00,135.48
1025.00,135.48
1024.00,135.47
1023.00,135.47
1022.00,135.47
1021.00,135.48
1020.00,135.48
1019.00,135.48
1018.00,135.48
1017.00,135.48
1016.00,135.48
1015.00,135.47
1014.00,135.46
1013.00,135.46
1012.00,135.46
1011.00,135.46
1010.00,135.46
1009.00,135.46
1008.00,135.46
1007.00,135.45
1006.00,135.45
1005.00,135.45
1004.00,135.45
1003.00,135.46
1002.00,135.46
1001.00,135.46
1000.00,135.47
999.00,135.47
998.00,135.47
997.00,135.48
996.00,135.49
995.00,135.49
994.00,135.50
993.00,135.51
992.00,135.52
991.00,135.53
990.00,135.54
989.00,135.54
988.00,135.54
987.00,135.54
986.00,135.55
985.00,135.56
984.00,135.56
983.00,135.57
982.00,135.57
981.00,135.57
980.00,135.57
979.00,135.56
978.00,135.56
977.00,135.57
976.00,135.57
975.00,135.58
974.00,135.58
973.00,135.57
972.00,135.57
971.00,135.56
970.00,135.56
969.00,135.56
968.00,135.56
967.00,135.56
966.00,135.56
965.00,135.56
964.00,135.56
963.00,135.55
962.00,135.55
961.00,135.55
960.00,135.55
959.00,135.55
958.00,135.55
957.00,135.56
956.00,135.56
955.00,135.57
954.00,135.57
953.00,135.57
952.00,135.57
951.00,135.57
950.00,135.58
949.00,135.59
948.00,135.60
947.00,135.61
946.00,135.61
945.00,135.62
944.00,135.62
943.00,135.62
942.00,135.63
941.00,135.64
940.00,135.65
939.00,135.66
938.00,135.66
937.00,135.67
936.00,135.67
935.00,135.68
934.00,135.68
933.00,135.69
932.00,135.69
931.00,135.70
930.00,135.70
929.00,135.71
928.00,135.71
927.00,135.71
926.00,135.70
925.00,135.70
924.00,135.70
923.00,135.71
922.00,135.71
921.00,135.71
920.00,135.71
919.00,135.71
918.00,135.71
917.00,135.70
916.00,135.70
915.00,135.70
914.00,135.70
913.00,135.70
912.00,135.70
911.00,135.70
910.00,135.70
909.00,135.70
908.00,135.70
907.00,135.70
906.00,135.71
905.00,135.71
904.00,135.71
903.00,135.72
902.00,135.72
901.00,135.73
900.00,135.73
899.00,135.74
898.00,135.74
897.00,135.75
896.00,135.76
895.00,135.77
894.00,135.78
893.00,135.78
892.00,135.79
891.00,135.79
890.00,135.80
889.00,135.81
888.00,135.82
887.00,135.84
886.00,135.85
885.00,135.86
884.00,135.86
883.00,135.87
882.00,135.87
881.00,135.88
880.00,135.89
879.00,135.89
878.00,135.90
877.00,135.90
876.00,135.90
875.00,135.90
874.00,135.91
873.00,135.91
872.00,135.91
871.00,135.91
870.00,135.92
869.00,135.92
868.00,135.92
867.00,135.92
866.00,135.91
865.00,135.91
864.00,135.90
863.00,135.90
862.00,135.90
861.00,135.90
860.00,135.90
859.00,135.90
858.00,135.90
857.00,135.90
856.00,135.89
855.00,135.89
854.00,135.90
853.00,135.90
852.00,135.91
851.00,135.91
850.00,135.91
849.00,135.91
848.00,135.92
847.00,135.92
846.00,135.92
845.00,135.93
844.00,135.93
843.00,135.94
842.00,135.95
841.00,135.95
840.00,135.96
839.00,135.97
838.00,135.97
837.00,135.98
836.00,135.99
835.00,135.99
834.00,136.00
833.00,136.01
832.00,136.02
831.00,136.02
830.00,136.02
829.00,136.02
828.00,136.02
827.00,136.03
826.00,136.04
825.00,136.05
824.00,136.05
823.00,136.05
822.00,136.05
821.00,136.06
820.00,136.06
819.00,136.06
818.00,136.06
817.00,136.06
816.00,136.06
815.00,136.05
814.00,136.05
813.00,136.05
812.00,136.05
811.00,136.05
810.00,136.05
809.00,136.05
808.00,136.06
807.00,136.06
806.00,136.07
805.00,136.07
804.00,136.08
803.00,136.08
802.00,136.08
801.00,136.08
800.00,136.09
799.00,136.09
798.00,136.10
797.00,136.10
796.00,136.10
795.00,136.10
794.00,136.09
793.00,136.09
792.00,136.09
791.00,136.09
790.00,136.09
789.00,136.08
788.00,136.08
787.00,136.07
786.00,136.07
785.00,136.08
784.00,136.08
783.00,136.07
782.00,136.07
781.00,136.07
780.00,136.08
779.00,136.08
778.00,136.08
777.00,136.09
776.00,136.09
775.00,136.09
774.00,136.09
773.00,136.09
772.00,136.09
771.00,136.09
770.00,136.08
769.00,136.08
768.00,136.07
767.00,136.07
766.00,136.07
765.00,136.08
764.00,136.07
763.00,136.07
762.00,136.06
761.00,136.05
760.00,136.05
759.00,136.05
758.00,136.05
757.00,136.05
756.00,136.05
755.00,136.04
754.00,136.03
753.00,136.03
752.00,136.02
751.00,136.02
750.00,136.02
749.00,136.02
748.00,136.02
747.00,136.02
746.00,136.02
745.00,136.02
744.00,136.02
743.00,136.02
742.00,136.02
741.00,136.02
740.00,136.03
739.00,136.03
738.00,136.04
737.00,136.05
736.00,136.06
735.00,136.06
734.00,136.06
733.00,136.06
732.00,136.07
731.00,136.08
730.00,136.08
729.00,136.09
728.00,136.09
727.00,136.09
726.00,136.09
725.00,136.09
724.00,136.10
723.00,136.10
722.00,136.10
721.00,136.10
720.00,136.10
719.00,136.10
718.00,136.10
717.00,136.10
716.00,136.10
715.00,136.10
714.00,136.10
713.00,136.10
712.00,136.10
711.00,136.10
710.00,136.10
709.00,136.10
708.00,136.09
707.00,136.09
706.00,136.08
705.00,136.09
704.00,136.09
703.00,136.08
702.00,136.07
701.00,136.06
700.00,136.05
699.00,136.05
698.00,136.05
697.00,136.06
696.00,136.07
695.00,136.07
694.00,136.07
693.00,136.06
692.00,136.05
691.00,136.05
690.00,136.05
689.00,136.05
688.00,136.05
687.00,136.05
686.00,136.05
685.00,136.06
684.00,136.07
683.00,136.08
682.00,136.08
681.00,136.07
680.00,136.08
679.00,136.08
678.00,136.10
677.00,136.11
676.00,136.11
675.00,136.11
674.00,136.10
673.00,136.10
672.00,136.11
671.00,136.12
670.00,136.15
669.00,136.16
668.00,136.16
667.00,136.15
666.00,136.14
665.00,136.13
664.00,136.13
663.00,136.12
662.00,136.12
661.00,136.11
660.00,136.11
659.00,136.11
658.00,136.11
657.00,136.11
656.00,136.10
655.00,136.08
654.00,136.08
653.00,136.08
652.00,136.08
651.00,136.08
650.00,136.08
649.00,136.07
648.00,136.06
647.00,136.05
646.00,136.05
645.00,136.05
644.00,136.06
643.00,136.07
642.00,136.08
641.00,136.08
640.00,136.07
639.00,136.06
638.00,136.06
637.00,136.07
636.00,136.07
635.00,136.08
634.00,136.09
633.00,136.09
632.00,136.09
631.00,136.09
630.00,136.09
629.00,136.09
628.00,136.09
627.00,136.10
626.00,136.11
625.00,136.12
624.00,136.13
623.00,136.14
622.00,136.14
621.00,136.13
620.00,136.11
619.00,136.10
618.00,136.10
617.00,136.10
616.00,136.12
615.00,136.12
614.00,136.12
613.00,136.11
612.00,136.09
611.00,136.09
610.00,136.09
609.00,136.10
608.00,136.10
607.00,136.09
606.00,136.09
605.00,136.09
604.00,136.08
603.00,136.08
602.00,136.08
601.00,136.08
600.00,136.07
599.00,136.07
598.00,136.08
597.00,136.09
596.00,136.09
595.00,136.08
594.00,136.07
593.00,136.06
592.00,136.06
591.00,136.07
590.00,136.09
589.00,136.10
588.00,136.10
587.00,136.09
586.00,136.07
585.00,136.06
584.00,136.06
583.00,136.07
582.00,136.08
581.00,136.08
580.00,136.08
579.00,136.08
578.00,136.08
577.00,136.07
576.00,136.06
575.00,136.05
574.00,136.05
573.00,136.05
572.00,136.05
571.00,136.06
570.00,136.06
569.00,136.05
568.00,136.04
567.00,136.02
566.00,136.01
565.00,136.00
564.00,136.01
563.00,136.01
562.00,136.02
561.00,136.01
560.00,136.00
559.00,135.99
558.00,135.99
557.00,136.00
556.00,136.00
555.00,135.99
554.00,135.98
553.00,135.97
552.00,135.96
551.00,135.95
550.00,135.95
549.00,135.94
548.00,135.94
547.00,135.93
546.00,135.93
545.00,135.93
544.00,135.93
543.00,135.92
542.00,135.92
541.00,135.91
540.00,135.90
539.00,135.90
538.00,135.91
537.00,135.91
536.00,135.91
535.00,135.90
534.00,135.89
533.00,135.88
532.00,135.88
531.00,135.90
530.00,135.91
529.00,135.92
528.00,135.92
527.00,135.91
526.00,135.92
525.00,135.94
524.00,135.96
523.00,135.98
522.00,135.98
521.00,135.99
520.00,136.00
519.00,136.01
518.00,136.03
517.00,136.04
516.00,136.04
515.00,136.04
514.00,136.05
513.00,136.06
512.00,136.07
511.00,136.08
510.00,136.08
509.00,136.08
508.00,136.07
507.00,136.08
506.00,136.09
505.00,136.12
504.00,136.13
503.00,136.14
502.00,136.15
501.00,136.14
500.00,136.14
