Created as New Dataset,Sample 394 By Analyst Date Monday, February 10 2025
cm-1,%T
4000.00,130.62
3999.00,130.61
3998.00,130.61
3997.00,130.60
3996.00,130.60
3995.00,130.59
3994.00,130.59
3993.00,130.58
3992.00,130.57
3991.00,130.57
3990.00,130.57
3989.00,130.56
3988.00,130.55
3987.00,130.54
3986.00,130.53
3985.00,130.52
3984.00,130.51
3983.00,130.51
3982.00,130.50
3981.00,130.49
3980.00,130.49
3979.00,130.48
3978.00,130.47
3977.00,130.46
3976.00,130.46
3975.00,130.45
3974.00,130.45
3973.00,130.44
3972.00,130.44
3971.00,130.43
3970.00,130.43
3969.00,130.42
3968.00,130.42
3967.00,130.42
3966.00,130.41
3965.00,130.41
3964.00,130.41
3963.00,130.41
3962.00,130.41
3961.00,130.41
3960.00,130.41
3959.00,130.41
3958.00,130.41
3957.00,130.42
3956.00,130.42
3955.00,130.43
3954.00,130.43
3953.00,130.43
3952.00,130.44
3951.00,130.44
3950.00,130.44
3949.00,130.45
3948.00,130.45
3947.00,130.45
3946.00,130.45
3945.00,130.45
3944.00,130.45
3943.00,130.45
3942.00,130.44
3941.00,130.43
3940.00,130.42
3939.00,130.42
3938.00,130.42
3937.00,130.41
3936.00,130.41
3935.00,130.40
3934.00,130.40
3933.00,130.40
3932.00,130.40
3931.00,130.39
3930.00,130.39
3929.00,130.38
3928.00,130.37
3927.00,130.37
3926.00,130.36
3925.00,130.36
3924.00,130.35
3923.00,130.35
3922.00,130.35
3921.00,130.35
3920.00,130.35
3919.00,130.35
3918.00,130.34
3917.00,130.33
3916.00,130.33
3915.00,130.32
3914.00,130.31
3913.00,130.30
3912.00,130.30
3911.00,130.30
3910.00,130.30
3909.00,130.31
3908.00,130.32
3907.00,130.34
3906.00,130.36
3905.00,130.39
3904.00,130.41
3903.00,130.43
3902.00,130.44
3901.00,130.44
3900.00,130.44
3899.00,130.44
3898.00,130.42
3897.00,130.40
3896.00,130.39
3895.00,130.39
3894.00,130.38
3893.00,130.38
3892.00,130.38
3891.00,130.38
3890.00,130.39
3889.00,130.38
3888.00,130.38
3887.00,130.39
3886.00,130.40
3885.00,130.40
3884.00,130.39
3883.00,130.38
3882.00,130.39
3881.00,130.40
3880.00,130.39
3879.00,130.37
3878.00,130.35
3877.00,130.34
3876.00,130.35
3875.00,130.36
3874.00,130.37
3873.00,130.36
3872.00,130.35
3871.00,130.37
3870.00,130.39
3869.00,130.40
3868.00,130.38
3867.00,130.37
3866.00,130.37
3865.00,130.38
3864.00,130.36
3863.00,130.34
3862.00,130.32
3861.00,130.32
3860.00,130.33
3859.00,130.34
3858.00,130.35
3857.00,130.37
3856.00,130.38
3855.00,130.39
3854.00,130.42
3853.00,130.43
3852.00,130.43
3851.00,130.41
3850.00,130.41
3849.00,130.39
3848.00,130.37
3847.00,130.34
3846.00,130.31
3845.00,130.30
3844.00,130.30
3843.00,130.32
3842.00,130.33
3841.00,130.34
3840.00,130.35
3839.00,130.36
3838.00,130.37
3837.00,130.37
3836.00,130.36
3835.00,130.36
3834.00,130.35
3833.00,130.33
3832.00,130.31
3831.00,130.28
3830.00,130.25
3829.00,130.23
3828.00,130.21
3827.00,130.21
3826.00,130.22
3825.00,130.22
3824.00,130.22
3823.00,130.22
3822.00,130.24
3821.00,130.26
3820.00,130.25
3819.00,130.23
3818.00,130.21
3817.00,130.21
3816.00,130.21
3815.00,130.18
3814.00,130.14
3813.00,130.12
3812.00,130.12
3811.00,130.13
3810.00,130.11
3809.00,130.09
3808.00,130.09
3807.00,130.11
3806.00,130.13
3805.00,130.13
3804.00,130.13
3803.00,130.15
3802.00,130.16
3801.00,130.16
3800.00,130.15
3799.00,130.13
3798.00,130.13
3797.00,130.13
3796.00,130.12
3795.00,130.09
3794.00,130.06
3793.00,130.04
3792.00,130.04
3791.00,130.03
3790.00,130.02
3789.00,130.02
3788.00,130.02
3787.00,130.02
3786.00,130.02
3785.00,130.03
3784.00,130.04
3783.00,130.05
3782.00,130.05
3781.00,130.05
3780.00,130.05
3779.00,130.05
3778.00,130.05
3777.00,130.04
3776.00,130.04
3775.00,130.05
3774.00,130.05
3773.00,130.05
3772.00,130.05
3771.00,130.06
3770.00,130.07
3769.00,130.08
3768.00,130.08
3767.00,130.08
3766.00,130.08
3765.00,130.09
3764.00,130.08
3763.00,130.07
3762.00,130.07
3761.00,130.07
3760.00,130.08
3759.00,130.08
3758.00,130.08
3757.00,130.09
3756.00,130.10
3755.00,130.11
3754.00,130.12
3753.00,130.13
3752.00,130.14
3751.00,130.16
3750.00,130.18
3749.00,130.21
3748.00,130.21
3747.00,130.20
3746.00,130.19
3745.00,130.18
3744.00,130.16
3743.00,130.11
3742.00,130.08
3741.00,130.07
3740.00,130.06
3739.00,130.05
3738.00,130.02
3737.00,130.01
3736.00,130.01
3735.00,130.01
3734.00,130.00
3733.00,129.99
3732.00,129.97
3731.00,129.95
3730.00,129.91
3729.00,129.88
3728.00,129.86
3727.00,129.84
3726.00,129.83
3725.00,129.81
3724.00,129.80
3723.00,129.80
3722.00,129.80
3721.00,129.79
3720.00,129.78
3719.00,129.77
3718.00,129.77
3717.00,129.78
3716.00,129.79
3715.00,129.80
3714.00,129.81
3713.00,129.84
3712.00,129.85
3711.00,129.87
3710.00,129.87
3709.00,129.88
3708.00,129.88
3707.00,129.88
3706.00,129.88
3705.00,129.88
3704.00,129.88
3703.00,129.89
3702.00,129.91
3701.00,129.93
3700.00,129.95
3699.00,129.97
3698.00,129.99
3697.00,130.02
3696.00,130.06
3695.00,130.09
3694.00,130.13
3693.00,130.17
3692.00,130.21
3691.00,130.25
3690.00,130.28
3689.00,130.31
3688.00,130.34
3687.00,130.35
3686.00,130.36
3685.00,130.36
3684.00,130.37
3683.00,130.37
3682.00,130.36
3681.00,130.37
3680.00,130.40
3679.00,130.42
3678.00,130.44
3677.00,130.47
3676.00,130.50
3675.00,130.53
3674.00,130.53
3673.00,130.53
3672.00,130.53
3671.00,130.53
3670.00,130.51
3669.00,130.46
3668.00,130.42
3667.00,130.38
3666.00,130.36
3665.00,130.33
3664.00,130.30
3663.00,130.27
3662.00,130.25
3661.00,130.24
3660.00,130.23
3659.00,130.23
3658.00,130.23
3657.00,130.24
3656.00,130.25
3655.00,130.25
3654.00,130.26
3653.00,130.27
3652.00,130.29
3651.00,130.30
3650.00,130.30
3649.00,130.29
3648.00,130.29
3647.00,130.28
3646.00,130.25
3645.00,130.22
3644.00,130.18
3643.00,130.15
3642.00,130.12
3641.00,130.10
3640.00,130.08
3639.00,130.08
3638.00,130.08
3637.00,130.08
3636.00,130.09
3635.00,130.10
3634.00,130.13
3633.00,130.16
3632.00,130.18
3631.00,130.20
3630.00,130.23
3629.00,130.26
3628.00,130.26
3627.00,130.25
3626.00,130.25
3625.00,130.26
3624.00,130.26
3623.00,130.26
3622.00,130.25
3621.00,130.25
3620.00,130.26
3619.00,130.28
3618.00,130.29
3617.00,130.29
3616.00,130.30
3615.00,130.30
3614.00,130.31
3613.00,130.31
3612.00,130.30
3611.00,130.29
3610.00,130.29
3609.00,130.28
3608.00,130.27
3607.00,130.25
3606.00,130.24
3605.00,130.23
3604.00,130.22
3603.00,130.21
3602.00,130.20
3601.00,130.19
3600.00,130.20
3599.00,130.20
3598.00,130.21
3597.00,130.22
3596.00,130.22
3595.00,130.23
3594.00,130.24
3593.00,130.24
3592.00,130.26
3591.00,130.27
3590.00,130.28
3589.00,130.29
3588.00,130.30
3587.00,130.30
3586.00,130.30
3585.00,130.30
3584.00,130.30
3583.00,130.30
3582.00,130.30
3581.00,130.29
3580.00,130.29
3579.00,130.29
3578.00,130.30
3577.00,130.31
3576.00,130.32
3575.00,130.33
3574.00,130.34
3573.00,130.35
3572.00,130.36
3571.00,130.38
3570.00,130.40
3569.00,130.42
3568.00,130.43
3567.00,130.45
3566.00,130.46
3565.00,130.46
3564.00,130.46
3563.00,130.45
3562.00,130.45
3561.00,130.44
3560.00,130.43
3559.00,130.43
3558.00,130.43
3557.00,130.43
3556.00,130.43
3555.00,130.44
3554.00,130.44
3553.00,130.44
3552.00,130.45
3551.00,130.45
3550.00,130.46
3549.00,130.46
3548.00,130.46
3547.00,130.46
3546.00,130.46
3545.00,130.46
3544.00,130.46
3543.00,130.46
3542.00,130.46
3541.00,130.46
3540.00,130.46
3539.00,130.45
3538.00,130.45
3537.00,130.45
3536.00,130.46
3535.00,130.46
3534.00,130.47
3533.00,130.47
3532.00,130.48
3531.00,130.48
3530.00,130.48
3529.00,130.49
3528.00,130.49
3527.00,130.49
3526.00,130.49
3525.00,130.49
3524.00,130.49
3523.00,130.49
3522.00,130.49
3521.00,130.49
3520.00,130.48
3519.00,130.48
3518.00,130.47
3517.00,130.46
3516.00,130.46
3515.00,130.45
3514.00,130.45
3513.00,130.45
3512.00,130.45
3511.00,130.45
3510.00,130.44
3509.00,130.44
3508.00,130.44
3507.00,130.43
3506.00,130.43
3505.00,130.42
3504.00,130.42
3503.00,130.41
3502.00,130.41
3501.00,130.41
3500.00,130.41
3499.00,130.41
3498.00,130.41
3497.00,130.41
3496.00,130.41
3495.00,130.41
3494.00,130.41
3493.00,130.42
3492.00,130.43
3491.00,130.43
3490.00,130.44
3489.00,130.44
3488.00,130.45
3487.00,130.46
3486.00,130.47
3485.00,130.48
3484.00,130.49
3483.00,130.50
3482.00,130.51
3481.00,130.52
3480.00,130.53
3479.00,130.54
3478.00,130.55
3477.00,130.57
3476.00,130.58
3475.00,130.59
3474.00,130.60
3473.00,130.61
3472.00,130.62
3471.00,130.62
3470.00,130.63
3469.00,130.64
3468.00,130.65
3467.00,130.67
3466.00,130.68
3465.00,130.69
3464.00,130.71
3463.00,130.72
3462.00,130.72
3461.00,130.73
3460.00,130.74
3459.00,130.75
3458.00,130.76
3457.00,130.77
3456.00,130.77
3455.00,130.78
3454.00,130.79
3453.00,130.79
3452.00,130.80
3451.00,130.81
3450.00,130.82
3449.00,130.83
3448.00,130.83
3447.00,130.84
3446.00,130.85
3445.00,130.86
3444.00,130.87
3443.00,130.88
3442.00,130.88
3441.00,130.89
3440.00,130.89
3439.00,130.90
3438.00,130.90
3437.00,130.90
3436.00,130.91
3435.00,130.92
3434.00,130.92
3433.00,130.93
3432.00,130.94
3431.00,130.94
3430.00,130.95
3429.00,130.95
3428.00,130.95
3427.00,130.96
3426.00,130.96
3425.00,130.96
3424.00,130.96
3423.00,130.96
3422.00,130.95
3421.00,130.95
3420.00,130.94
3419.00,130.93
3418.00,130.92
3417.00,130.91
3416.00,130.90
3415.00,130.88
3414.00,130.86
3413.00,130.84
3412.00,130.83
3411.00,130.81
3410.00,130.79
3409.00,130.77
3408.00,130.75
3407.00,130.73
3406.00,130.71
3405.00,130.69
3404.00,130.67
3403.00,130.64
3402.00,130.61
3401.00,130.59
3400.00,130.57
3399.00,130.56
3398.00,130.55
3397.00,130.53
3396.00,130.52
3395.00,130.50
3394.00,130.48
3393.00,130.46
3392.00,130.45
3391.00,130.44
3390.00,130.43
3389.00,130.43
3388.00,130.42
3387.00,130.41
3386.00,130.41
3385.00,130.40
3384.00,130.40
3383.00,130.39
3382.00,130.39
3381.00,130.38
3380.00,130.38
3379.00,130.38
3378.00,130.37
3377.00,130.37
3376.00,130.37
3375.00,130.37
3374.00,130.37
3373.00,130.37
3372.00,130.36
3371.00,130.36
3370.00,130.35
3369.00,130.35
3368.00,130.35
3367.00,130.35
3366.00,130.36
3365.00,130.36
3364.00,130.36
3363.00,130.36
3362.00,130.36
3361.00,130.36
3360.00,130.36
3359.00,130.36
3358.00,130.35
3357.00,130.35
3356.00,130.35
3355.00,130.35
3354.00,130.35
3353.00,130.34
3352.00,130.34
3351.00,130.34
3350.00,130.34
3349.00,130.34
3348.00,130.34
3347.00,130.34
3346.00,130.35
3345.00,130.35
3344.00,130.35
3343.00,130.35
3342.00,130.35
3341.00,130.35
3340.00,130.35
3339.00,130.35
3338.00,130.36
3337.00,130.36
3336.00,130.37
3335.00,130.38
3334.00,130.39
3333.00,130.39
3332.00,130.40
3331.00,130.41
3330.00,130.42
3329.00,130.43
3328.00,130.43
3327.00,130.44
3326.00,130.45
3325.00,130.46
3324.00,130.48
3323.00,130.49
3322.00,130.50
3321.00,130.51
3320.00,130.52
3319.00,130.54
3318.00,130.55
3317.00,130.56
3316.00,130.58
3315.00,130.59
3314.00,130.61
3313.00,130.63
3312.00,130.65
3311.00,130.67
3310.00,130.69
3309.00,130.71
3308.00,130.74
3307.00,130.76
3306.00,130.79
3305.00,130.81
3304.00,130.83
3303.00,130.85
3302.00,130.85
3301.00,130.85
3300.00,130.84
3299.00,130.82
3298.00,130.79
3297.00,130.76
3296.00,130.73
3295.00,130.70
3294.00,130.67
3293.00,130.64
3292.00,130.61
3291.00,130.58
3290.00,130.56
3289.00,130.53
3288.00,130.51
3287.00,130.49
3286.00,130.47
3285.00,130.45
3284.00,130.43
3283.00,130.42
3282.00,130.40
3281.00,130.39
3280.00,130.38
3279.00,130.36
3278.00,130.35
3277.00,130.34
3276.00,130.33
3275.00,130.33
3274.00,130.32
3273.00,130.31
3272.00,130.30
3271.00,130.29
3270.00,130.29
3269.00,130.29
3268.00,130.30
3267.00,130.30
3266.00,130.30
3265.00,130.30
3264.00,130.30
3263.00,130.30
3262.00,130.30
3261.00,130.30
3260.00,130.30
3259.00,130.30
3258.00,130.30
3257.00,130.30
3256.00,130.30
3255.00,130.30
3254.00,130.31
3253.00,130.31
3252.00,130.31
3251.00,130.31
3250.00,130.31
3249.00,130.30
3248.00,130.30
3247.00,130.30
3246.00,130.30
3245.00,130.31
3244.00,130.31
3243.00,130.31
3242.00,130.31
3241.00,130.31
3240.00,130.31
3239.00,130.31
3238.00,130.31
3237.00,130.31
3236.00,130.31
3235.00,130.31
3234.00,130.32
3233.00,130.32
3232.00,130.33
3231.00,130.34
3230.00,130.34
3229.00,130.35
3228.00,130.36
3227.00,130.37
3226.00,130.37
3225.00,130.38
3224.00,130.39
3223.00,130.40
3222.00,130.41
3221.00,130.42
3220.00,130.43
3219.00,130.44
3218.00,130.45
3217.00,130.47
3216.00,130.48
3215.00,130.49
3214.00,130.50
3213.00,130.51
3212.00,130.52
3211.00,130.53
3210.00,130.55
3209.00,130.55
3208.00,130.56
3207.00,130.57
3206.00,130.58
3205.00,130.59
3204.00,130.60
3203.00,130.60
3202.00,130.61
3201.00,130.61
3200.00,130.62
3199.00,130.62
3198.00,130.62
3197.00,130.62
3196.00,130.62
3195.00,130.62
3194.00,130.62
3193.00,130.62
3192.00,130.62
3191.00,130.61
3190.00,130.61
3189.00,130.61
3188.00,130.61
3187.00,130.61
3186.00,130.62
3185.00,130.62
3184.00,130.62
3183.00,130.63
3182.00,130.63
3181.00,130.63
3180.00,130.64
3179.00,130.64
3178.00,130.64
3177.00,130.64
3176.00,130.63
3175.00,130.63
3174.00,130.63
3173.00,130.62
3172.00,130.62
3171.00,130.62
3170.00,130.62
3169.00,130.63
3168.00,130.63
3167.00,130.63
3166.00,130.64
3165.00,130.65
3164.00,130.65
3163.00,130.66
3162.00,130.67
3161.00,130.67
3160.00,130.68
3159.00,130.68
3158.00,130.69
3157.00,130.69
3156.00,130.69
3155.00,130.69
3154.00,130.69
3153.00,130.69
3152.00,130.69
3151.00,130.69
3150.00,130.69
3149.00,130.69
3148.00,130.69
3147.00,130.68
3146.00,130.68
3145.00,130.68
3144.00,130.68
3143.00,130.67
3142.00,130.67
3141.00,130.67
3140.00,130.66
3139.00,130.66
3138.00,130.67
3137.00,130.67
3136.00,130.67
3135.00,130.67
3134.00,130.68
3133.00,130.68
3132.00,130.68
3131.00,130.68
3130.00,130.68
3129.00,130.68
3128.00,130.69
3127.00,130.70
3126.00,130.70
3125.00,130.71
3124.00,130.71
3123.00,130.72
3122.00,130.72
3121.00,130.73
3120.00,130.73
3119.00,130.74
3118.00,130.75
3117.00,130.77
3116.00,130.78
3115.00,130.80
3114.00,130.82
3113.00,130.83
3112.00,130.85
3111.00,130.86
3110.00,130.88
3109.00,130.89
3108.00,130.91
3107.00,130.93
3106.00,130.94
3105.00,130.96
3104.00,130.97
3103.00,130.97
3102.00,130.98
3101.00,130.98
3100.00,130.99
3099.00,130.99
3098.00,131.00
3097.00,131.00
3096.00,131.00
3095.00,131.01
3094.00,131.01
3093.00,131.01
3092.00,131.01
3091.00,131.02
3090.00,131.03
3089.00,131.03
3088.00,131.04
3087.00,131.05
3086.00,131.06
3085.00,131.07
3084.00,131.08
3083.00,131.09
3082.00,131.10
3081.00,131.11
3080.00,131.11
3079.00,131.12
3078.00,131.12
3077.00,131.13
3076.00,131.14
3075.00,131.14
3074.00,131.15
3073.00,131.15
3072.00,131.15
3071.00,131.15
3070.00,131.15
3069.00,131.15
3068.00,131.15
3067.00,131.15
3066.00,131.16
3065.00,131.16
3064.00,131.17
3063.00,131.17
3062.00,131.17
3061.00,131.17
3060.00,131.17
3059.00,131.18
3058.00,131.18
3057.00,131.18
3056.00,131.18
3055.00,131.18
3054.00,131.18
3053.00,131.18
3052.00,131.18
3051.00,131.18
3050.00,131.18
3049.00,131.19
3048.00,131.19
3047.00,131.19
3046.00,131.19
3045.00,131.19
3044.00,131.19
3043.00,131.19
3042.00,131.19
3041.00,131.19
3040.00,131.20
3039.00,131.20
3038.00,131.20
3037.00,131.20
3036.00,131.19
3035.00,131.19
3034.00,131.19
3033.00,131.18
3032.00,131.18
3031.00,131.18
3030.00,131.18
3029.00,131.18
3028.00,131.17
3027.00,131.17
3026.00,131.16
3025.00,131.16
3024.00,131.16
3023.00,131.16
3022.00,131.16
3021.00,131.15
3020.00,131.15
3019.00,131.15
3018.00,131.15
3017.00,131.15
3016.00,131.15
3015.00,131.15
3014.00,131.15
3013.00,131.15
3012.00,131.16
3011.00,131.16
3010.00,131.17
3009.00,131.17
3008.00,131.17
3007.00,131.17
3006.00,131.18
3005.00,131.18
3004.00,131.18
3003.00,131.18
3002.00,131.19
3001.00,131.19
3000.00,131.19
2999.00,131.19
2998.00,131.19
2997.00,131.19
2996.00,131.19
2995.00,131.19
2994.00,131.19
2993.00,131.19
2992.00,131.19
2991.00,131.19
2990.00,131.19
2989.00,131.19
2988.00,131.19
2987.00,131.19
2986.00,131.19
2985.00,131.19
2984.00,131.19
2983.00,131.18
2982.00,131.18
2981.00,131.18
2980.00,131.17
2979.00,131.17
2978.00,131.17
2977.00,131.17
2976.00,131.16
2975.00,131.16
2974.00,131.16
2973.00,131.15
2972.00,131.15
2971.00,131.15
2970.00,131.15
2969.00,131.15
2968.00,131.15
2967.00,131.15
2966.00,131.15
2965.00,131.15
2964.00,131.16
2963.00,131.16
2962.00,131.16
2961.00,131.17
2960.00,131.17
2959.00,131.18
2958.00,131.18
2957.00,131.18
2956.00,131.18
2955.00,131.18
2954.00,131.19
2953.00,131.19
2952.00,131.19
2951.00,131.19
2950.00,131.19
2949.00,131.20
2948.00,131.20
2947.00,131.20
2946.00,131.20
2945.00,131.20
2944.00,131.20
2943.00,131.20
2942.00,131.20
2941.00,131.21
2940.00,131.21
2939.00,131.21
2938.00,131.21
2937.00,131.21
2936.00,131.21
2935.00,131.21
2934.00,131.21
2933.00,131.20
2932.00,131.20
2931.00,131.20
2930.00,131.20
2929.00,131.20
2928.00,131.20
2927.00,131.20
2926.00,131.20
2925.00,131.20
2924.00,131.20
2923.00,131.20
2922.00,131.19
2921.00,131.19
2920.00,131.19
2919.00,131.19
2918.00,131.18
2917.00,131.18
2916.00,131.17
2915.00,131.17
2914.00,131.16
2913.00,131.16
2912.00,131.15
2911.00,131.15
2910.00,131.15
2909.00,131.15
2908.00,131.15
2907.00,131.14
2906.00,131.15
2905.00,131.15
2904.00,131.15
2903.00,131.15
2902.00,131.16
2901.00,131.16
2900.00,131.16
2899.00,131.17
2898.00,131.17
2897.00,131.18
2896.00,131.18
2895.00,131.19
2894.00,131.19
2893.00,131.19
2892.00,131.20
2891.00,131.20
2890.00,131.20
2889.00,131.20
2888.00,131.20
2887.00,131.20
2886.00,131.20
2885.00,131.20
2884.00,131.20
2883.00,131.19
2882.00,131.19
2881.00,131.19
2880.00,131.19
2879.00,131.18
2878.00,131.18
2877.00,131.17
2876.00,131.16
2875.00,131.16
2874.00,131.15
2873.00,131.15
2872.00,131.15
2871.00,131.14
2870.00,131.14
2869.00,131.14
2868.00,131.13
2867.00,131.13
2866.00,131.13
2865.00,131.12
2864.00,131.12
2863.00,131.12
2862.00,131.12
2861.00,131.12
2860.00,131.12
2859.00,131.13
2858.00,131.13
2857.00,131.14
2856.00,131.14
2855.00,131.15
2854.00,131.16
2853.00,131.16
2852.00,131.17
2851.00,131.18
2850.00,131.18
2849.00,131.18
2848.00,131.19
2847.00,131.19
2846.00,131.19
2845.00,131.19
2844.00,131.19
2843.00,131.19
2842.00,131.18
2841.00,131.18
2840.00,131.18
2839.00,131.18
2838.00,131.18
2837.00,131.18
2836.00,131.18
2835.00,131.18
2834.00,131.18
2833.00,131.18
2832.00,131.18
2831.00,131.17
2830.00,131.17
2829.00,131.16
2828.00,131.16
2827.00,131.15
2826.00,131.15
2825.00,131.14
2824.00,131.14
2823.00,131.13
2822.00,131.13
2821.00,131.12
2820.00,131.11
2819.00,131.11
2818.00,131.10
2817.00,131.10
2816.00,131.10
2815.00,131.09
2814.00,131.09
2813.00,131.08
2812.00,131.08
2811.00,131.08
2810.00,131.08
2809.00,131.08
2808.00,131.08
2807.00,131.08
2806.00,131.08
2805.00,131.09
2804.00,131.09
2803.00,131.09
2802.00,131.09
2801.00,131.10
2800.00,131.10
2799.00,131.10
2798.00,131.10
2797.00,131.11
2796.00,131.11
2795.00,131.11
2794.00,131.11
2793.00,131.11
2792.00,131.11
2791.00,131.11
2790.00,131.11
2789.00,131.11
2788.00,131.11
2787.00,131.11
2786.00,131.11
2785.00,131.11
2784.00,131.11
2783.00,131.11
2782.00,131.10
2781.00,131.10
2780.00,131.10
2779.00,131.09
2778.00,131.08
2777.00,131.08
2776.00,131.07
2775.00,131.07
2774.00,131.06
2773.00,131.06
2772.00,131.05
2771.00,131.05
2770.00,131.04
2769.00,131.03
2768.00,131.03
2767.00,131.02
2766.00,131.02
2765.00,131.01
2764.00,131.01
2763.00,131.00
2762.00,131.00
2761.00,131.00
2760.00,130.99
2759.00,130.99
2758.00,130.99
2757.00,130.99
2756.00,130.99
2755.00,130.99
2754.00,130.99
2753.00,130.99
2752.00,130.99
2751.00,130.99
2750.00,131.00
2749.00,131.00
2748.00,131.01
2747.00,131.01
2746.00,131.02
2745.00,131.02
2744.00,131.03
2743.00,131.03
2742.00,131.04
2741.00,131.04
2740.00,131.05
2739.00,131.05
2738.00,131.06
2737.00,131.06
2736.00,131.06
2735.00,131.07
2734.00,131.07
2733.00,131.07
2732.00,131.07
2731.00,131.06
2730.00,131.06
2729.00,131.05
2728.00,131.05
2727.00,131.04
2726.00,131.03
2725.00,131.02
2724.00,131.01
2723.00,131.00
2722.00,130.99
2721.00,130.98
2720.00,130.97
2719.00,130.96
2718.00,130.95
2717.00,130.94
2716.00,130.94
2715.00,130.93
2714.00,130.92
2713.00,130.91
2712.00,130.90
2711.00,130.89
2710.00,130.89
2709.00,130.88
2708.00,130.87
2707.00,130.86
2706.00,130.86
2705.00,130.85
2704.00,130.85
2703.00,130.85
2702.00,130.84
2701.00,130.84
2700.00,130.84
2699.00,130.84
2698.00,130.84
2697.00,130.84
2696.00,130.84
2695.00,130.84
2694.00,130.84
2693.00,130.85
2692.00,130.85
2691.00,130.85
2690.00,130.86
2689.00,130.86
2688.00,130.87
2687.00,130.87
2686.00,130.88
2685.00,130.88
2684.00,130.89
2683.00,130.90
2682.00,130.90
2681.00,130.91
2680.00,130.91
2679.00,130.92
2678.00,130.92
2677.00,130.92
2676.00,130.92
2675.00,130.92
2674.00,130.92
2673.00,130.92
2672.00,130.92
2671.00,130.91
2670.00,130.91
2669.00,130.90
2668.00,130.89
2667.00,130.88
2666.00,130.87
2665.00,130.86
2664.00,130.85
2663.00,130.83
2662.00,130.82
2661.00,130.81
2660.00,130.79
2659.00,130.78
2658.00,130.77
2657.00,130.76
2656.00,130.75
2655.00,130.74
2654.00,130.73
2653.00,130.72
2652.00,130.71
2651.00,130.70
2650.00,130.69
2649.00,130.69
2648.00,130.69
2647.00,130.68
2646.00,130.68
2645.00,130.68
2644.00,130.68
2643.00,130.68
2642.00,130.68
2641.00,130.69
2640.00,130.69
2639.00,130.69
2638.00,130.70
2637.00,130.70
2636.00,130.71
2635.00,130.71
2634.00,130.72
2633.00,130.72
2632.00,130.73
2631.00,130.73
2630.00,130.74
2629.00,130.74
2628.00,130.75
2627.00,130.76
2626.00,130.76
2625.00,130.77
2624.00,130.77
2623.00,130.78
2622.00,130.78
2621.00,130.78
2620.00,130.79
2619.00,130.79
2618.00,130.79
2617.00,130.79
2616.00,130.79
2615.00,130.79
2614.00,130.79
2613.00,130.79
2612.00,130.78
2611.00,130.78
2610.00,130.78
2609.00,130.77
2608.00,130.77
2607.00,130.77
2606.00,130.76
2605.00,130.76
2604.00,130.75
2603.00,130.75
2602.00,130.75
2601.00,130.74
2600.00,130.74
2599.00,130.73
2598.00,130.73
2597.00,130.73
2596.00,130.73
2595.00,130.73
2594.00,130.73
2593.00,130.73
2592.00,130.73
2591.00,130.73
2590.00,130.74
2589.00,130.74
2588.00,130.74
2587.00,130.75
2586.00,130.75
2585.00,130.75
2584.00,130.76
2583.00,130.76
2582.00,130.76
2581.00,130.77
2580.00,130.77
2579.00,130.77
2578.00,130.77
2577.00,130.77
2576.00,130.77
2575.00,130.77
2574.00,130.77
2573.00,130.77
2572.00,130.77
2571.00,130.76
2570.00,130.76
2569.00,130.75
2568.00,130.75
2567.00,130.74
2566.00,130.73
2565.00,130.73
2564.00,130.72
2563.00,130.71
2562.00,130.70
2561.00,130.70
2560.00,130.69
2559.00,130.68
2558.00,130.67
2557.00,130.66
2556.00,130.65
2555.00,130.64
2554.00,130.63
2553.00,130.62
2552.00,130.62
2551.00,130.61
2550.00,130.60
2549.00,130.59
2548.00,130.58
2547.00,130.57
2546.00,130.56
2545.00,130.56
2544.00,130.55
2543.00,130.54
2542.00,130.54
2541.00,130.54
2540.00,130.54
2539.00,130.54
2538.00,130.54
2537.00,130.54
2536.00,130.55
2535.00,130.55
2534.00,130.55
2533.00,130.55
2532.00,130.56
2531.00,130.56
2530.00,130.56
2529.00,130.57
2528.00,130.57
2527.00,130.57
2526.00,130.57
2525.00,130.57
2524.00,130.57
2523.00,130.57
2522.00,130.56
2521.00,130.56
2520.00,130.55
2519.00,130.55
2518.00,130.54
2517.00,130.53
2516.00,130.52
2515.00,130.51
2514.00,130.50
2513.00,130.49
2512.00,130.48
2511.00,130.46
2510.00,130.45
2509.00,130.44
2508.00,130.42
2507.00,130.41
2506.00,130.40
2505.00,130.38
2504.00,130.37
2503.00,130.35
2502.00,130.34
2501.00,130.33
2500.00,130.32
2499.00,130.30
2498.00,130.29
2497.00,130.28
2496.00,130.27
2495.00,130.27
2494.00,130.26
2493.00,130.25
2492.00,130.25
2491.00,130.24
2490.00,130.24
2489.00,130.24
2488.00,130.23
2487.00,130.23
2486.00,130.24
2485.00,130.24
2484.00,130.23
2483.00,130.23
2482.00,130.23
2481.00,130.23
2480.00,130.23
2479.00,130.23
2478.00,130.22
2477.00,130.22
2476.00,130.22
2475.00,130.22
2474.00,130.22
2473.00,130.22
2472.00,130.22
2471.00,130.22
2470.00,130.22
2469.00,130.22
2468.00,130.22
2467.00,130.22
2466.00,130.22
2465.00,130.22
2464.00,130.22
2463.00,130.21
2462.00,130.21
2461.00,130.21
2460.00,130.20
2459.00,130.20
2458.00,130.20
2457.00,130.19
2456.00,130.19
2455.00,130.19
2454.00,130.19
2453.00,130.19
2452.00,130.18
2451.00,130.18
2450.00,130.18
2449.00,130.19
2448.00,130.19
2447.00,130.19
2446.00,130.20
2445.00,130.20
2444.00,130.21
2443.00,130.21
2442.00,130.22
2441.00,130.23
2440.00,130.24
2439.00,130.25
2438.00,130.26
2437.00,130.27
2436.00,130.28
2435.00,130.29
2434.00,130.30
2433.00,130.31
2432.00,130.32
2431.00,130.34
2430.00,130.35
2429.00,130.37
2428.00,130.38
2427.00,130.40
2426.00,130.42
2425.00,130.43
2424.00,130.45
2423.00,130.46
2422.00,130.48
2421.00,130.49
2420.00,130.51
2419.00,130.52
2418.00,130.53
2417.00,130.54
2416.00,130.54
2415.00,130.55
2414.00,130.55
2413.00,130.56
2412.00,130.56
2411.00,130.56
2410.00,130.55
2409.00,130.55
2408.00,130.54
2407.00,130.53
2406.00,130.52
2405.00,130.51
2404.00,130.50
2403.00,130.49
2402.00,130.48
2401.00,130.47
2400.00,130.45
2399.00,130.44
2398.00,130.43
2397.00,130.42
2396.00,130.41
2395.00,130.40
2394.00,130.39
2393.00,130.38
2392.00,130.37
2391.00,130.37
2390.00,130.36
2389.00,130.35
2388.00,130.35
2387.00,130.35
2386.00,130.35
2385.00,130.34
2384.00,130.34
2383.00,130.34
2382.00,130.34
2381.00,130.34
2380.00,130.34
2379.00,130.33
2378.00,130.33
2377.00,130.33
2376.00,130.33
2375.00,130.32
2374.00,130.32
2373.00,130.32
2372.00,130.31
2371.00,130.31
2370.00,130.31
2369.00,130.30
2368.00,130.29
2367.00,130.29
2366.00,130.29
2365.00,130.29
2364.00,130.30
2363.00,130.29
2362.00,130.29
2361.00,130.28
2360.00,130.28
2359.00,130.28
2358.00,130.28
2357.00,130.29
2356.00,130.29
2355.00,130.29
2354.00,130.30
2353.00,130.29
2352.00,130.27
2351.00,130.25
2350.00,130.25
2349.00,130.26
2348.00,130.29
2347.00,130.29
2346.00,130.26
2345.00,130.23
2344.00,130.21
2343.00,130.21
2342.00,130.21
2341.00,130.22
2340.00,130.22
2339.00,130.23
2338.00,130.24
2337.00,130.25
2336.00,130.25
2335.00,130.26
2334.00,130.26
2333.00,130.27
2332.00,130.27
2331.00,130.27
2330.00,130.26
2329.00,130.25
2328.00,130.25
2327.00,130.24
2326.00,130.23
2325.00,130.21
2324.00,130.20
2323.00,130.18
2322.00,130.16
2321.00,130.15
2320.00,130.14
2319.00,130.13
2318.00,130.12
2317.00,130.12
2316.00,130.12
2315.00,130.12
2314.00,130.12
2313.00,130.12
2312.00,130.12
2311.00,130.12
2310.00,130.12
2309.00,130.12
2308.00,130.12
2307.00,130.12
2306.00,130.12
2305.00,130.13
2304.00,130.13
2303.00,130.13
2302.00,130.13
2301.00,130.13
2300.00,130.13
2299.00,130.13
2298.00,130.13
2297.00,130.12
2296.00,130.12
2295.00,130.12
2294.00,130.12
2293.00,130.11
2292.00,130.11
2291.00,130.11
2290.00,130.11
2289.00,130.11
2288.00,130.11
2287.00,130.11
2286.00,130.10
2285.00,130.10
2284.00,130.10
2283.00,130.10
2282.00,130.10
2281.00,130.09
2280.00,130.09
2279.00,130.09
2278.00,130.09
2277.00,130.09
2276.00,130.10
2275.00,130.10
2274.00,130.10
2273.00,130.11
2272.00,130.11
2271.00,130.12
2270.00,130.12
2269.00,130.13
2268.00,130.13
2267.00,130.14
2266.00,130.15
2265.00,130.15
2264.00,130.16
2263.00,130.16
2262.00,130.17
2261.00,130.17
2260.00,130.17
2259.00,130.18
2258.00,130.18
2257.00,130.18
2256.00,130.19
2255.00,130.19
2254.00,130.19
2253.00,130.19
2252.00,130.19
2251.00,130.18
2250.00,130.18
2249.00,130.18
2248.00,130.17
2247.00,130.17
2246.00,130.16
2245.00,130.15
2244.00,130.14
2243.00,130.13
2242.00,130.12
2241.00,130.11
2240.00,130.10
2239.00,130.08
2238.00,130.07
2237.00,130.06
2236.00,130.04
2235.00,130.03
2234.00,130.01
2233.00,130.00
2232.00,129.99
2231.00,129.97
2230.00,129.96
2229.00,129.95
2228.00,129.94
2227.00,129.93
2226.00,129.92
2225.00,129.91
2224.00,129.90
2223.00,129.90
2222.00,129.89
2221.00,129.89
2220.00,129.89
2219.00,129.89
2218.00,129.89
2217.00,129.90
2216.00,129.90
2215.00,129.90
2214.00,129.91
2213.00,129.91
2212.00,129.92
2211.00,129.92
2210.00,129.92
2209.00,129.92
2208.00,129.92
2207.00,129.92
2206.00,129.92
2205.00,129.91
2204.00,129.91
2203.00,129.90
2202.00,129.90
2201.00,129.89
2200.00,129.88
2199.00,129.87
2198.00,129.86
2197.00,129.85
2196.00,129.84
2195.00,129.83
2194.00,129.81
2193.00,129.80
2192.00,129.79
2191.00,129.77
2190.00,129.76
2189.00,129.75
2188.00,129.74
2187.00,129.72
2186.00,129.71
2185.00,129.70
2184.00,129.69
2183.00,129.69
2182.00,129.68
2181.00,129.67
2180.00,129.66
2179.00,129.66
2178.00,129.66
2177.00,129.65
2176.00,129.65
2175.00,129.65
2174.00,129.65
2173.00,129.66
2172.00,129.66
2171.00,129.67
2170.00,129.68
2169.00,129.69
2168.00,129.70
2167.00,129.71
2166.00,129.72
2165.00,129.74
2164.00,129.75
2163.00,129.76
2162.00,129.78
2161.00,129.79
2160.00,129.80
2159.00,129.81
2158.00,129.82
2157.00,129.83
2156.00,129.84
2155.00,129.84
2154.00,129.85
2153.00,129.85
2152.00,129.86
2151.00,129.86
2150.00,129.85
2149.00,129.85
2148.00,129.85
2147.00,129.84
2146.00,129.84
2145.00,129.83
2144.00,129.82
2143.00,129.81
2142.00,129.80
2141.00,129.79
2140.00,129.78
2139.00,129.77
2138.00,129.75
2137.00,129.74
2136.00,129.72
2135.00,129.71
2134.00,129.70
2133.00,129.68
2132.00,129.67
2131.00,129.66
2130.00,129.65
2129.00,129.65
2128.00,129.64
2127.00,129.63
2126.00,129.63
2125.00,129.63
2124.00,129.62
2123.00,129.62
2122.00,129.62
2121.00,129.62
2120.00,129.62
2119.00,129.62
2118.00,129.63
2117.00,129.63
2116.00,129.63
2115.00,129.64
2114.00,129.64
2113.00,129.64
2112.00,129.65
2111.00,129.65
2110.00,129.66
2109.00,129.66
2108.00,129.67
2107.00,129.67
2106.00,129.68
2105.00,129.68
2104.00,129.68
2103.00,129.69
2102.00,129.69
2101.00,129.70
2100.00,129.70
2099.00,129.71
2098.00,129.71
2097.00,129.72
2096.00,129.72
2095.00,129.72
2094.00,129.73
2093.00,129.73
2092.00,129.73
2091.00,129.73
2090.00,129.74
2089.00,129.74
2088.00,129.74
2087.00,129.74
2086.00,129.73
2085.00,129.73
2084.00,129.73
2083.00,129.73
2082.00,129.73
2081.00,129.72
2080.00,129.72
2079.00,129.72
2078.00,129.71
2077.00,129.71
2076.00,129.70
2075.00,129.69
2074.00,129.69
2073.00,129.69
2072.00,129.68
2071.00,129.68
2070.00,129.67
2069.00,129.67
2068.00,129.66
2067.00,129.66
2066.00,129.65
2065.00,129.65
2064.00,129.64
2063.00,129.64
2062.00,129.64
2061.00,129.64
2060.00,129.64
2059.00,129.64
2058.00,129.64
2057.00,129.64
2056.00,129.64
2055.00,129.64
2054.00,129.64
2053.00,129.65
2052.00,129.65
2051.00,129.66
2050.00,129.66
2049.00,129.67
2048.00,129.68
2047.00,129.68
2046.00,129.69
2045.00,129.70
2044.00,129.71
2043.00,129.72
2042.00,129.73
2041.00,129.73
2040.00,129.74
2039.00,129.75
2038.00,129.76
2037.00,129.77
2036.00,129.77
2035.00,129.77
2034.00,129.77
2033.00,129.77
2032.00,129.77
2031.00,129.76
2030.00,129.76
2029.00,129.75
2028.00,129.74
2027.00,129.73
2026.00,129.72
2025.00,129.71
2024.00,129.70
2023.00,129.68
2022.00,129.67
2021.00,129.66
2020.00,129.65
2019.00,129.64
2018.00,129.63
2017.00,129.62
2016.00,129.62
2015.00,129.61
2014.00,129.61
2013.00,129.61
2012.00,129.61
2011.00,129.61
2010.00,129.62
2009.00,129.62
2008.00,129.63
2007.00,129.65
2006.00,129.66
2005.00,129.67
2004.00,129.69
2003.00,129.71
2002.00,129.73
2001.00,129.75
2000.00,129.76
1999.00,129.79
1998.00,129.81
1997.00,129.83
1996.00,129.85
1995.00,129.88
1994.00,129.90
1993.00,129.92
1992.00,129.95
1991.00,129.97
1990.00,129.99
1989.00,130.01
1988.00,130.03
1987.00,130.05
1986.00,130.07
1985.00,130.09
1984.00,130.11
1983.00,130.13
1982.00,130.14
1981.00,130.15
1980.00,130.16
1979.00,130.16
1978.00,130.16
1977.00,130.16
1976.00,130.16
1975.00,130.15
1974.00,130.14
1973.00,130.12
1972.00,130.11
1971.00,130.09
1970.00,130.07
1969.00,130.05
1968.00,130.03
1967.00,130.02
1966.00,130.00
1965.00,130.00
1964.00,129.99
1963.00,130.00
1962.00,130.00
1961.00,130.02
1960.00,130.04
1959.00,130.06
1958.00,130.09
1957.00,130.13
1956.00,130.17
1955.00,130.20
1954.00,130.24
1953.00,130.27
1952.00,130.31
1951.00,130.34
1950.00,130.36
1949.00,130.39
1948.00,130.41
1947.00,130.42
1946.00,130.43
1945.00,130.43
1944.00,130.43
1943.00,130.42
1942.00,130.40
1941.00,130.38
1940.00,130.36
1939.00,130.34
1938.00,130.31
1937.00,130.28
1936.00,130.25
1935.00,130.21
1934.00,130.18
1933.00,130.15
1932.00,130.12
1931.00,130.10
1930.00,130.07
1929.00,130.06
1928.00,130.04
1927.00,130.03
1926.00,130.02
1925.00,130.01
1924.00,130.01
1923.00,130.00
1922.00,130.00
1921.00,129.99
1920.00,129.99
1919.00,129.99
1918.00,129.99
1917.00,129.98
1916.00,129.98
1915.00,129.97
1914.00,129.96
1913.00,129.95
1912.00,129.94
1911.00,129.93
1910.00,129.92
1909.00,129.91
1908.00,129.90
1907.00,129.89
1906.00,129.89
1905.00,129.88
1904.00,129.88
1903.00,129.88
1902.00,129.88
1901.00,129.88
1900.00,129.89
1899.00,129.89
1898.00,129.90
1897.00,129.91
1896.00,129.92
1895.00,129.93
1894.00,129.94
1893.00,129.95
1892.00,129.97
1891.00,129.98
1890.00,129.99
1889.00,130.01
1888.00,130.02
1887.00,130.04
1886.00,130.05
1885.00,130.07
1884.00,130.08
1883.00,130.10
1882.00,130.11
1881.00,130.13
1880.00,130.14
1879.00,130.16
1878.00,130.17
1877.00,130.18
1876.00,130.19
1875.00,130.20
1874.00,130.20
1873.00,130.21
1872.00,130.21
1871.00,130.21
1870.00,130.20
1869.00,130.19
1868.00,130.18
1867.00,130.17
1866.00,130.16
1865.00,130.15
1864.00,130.14
1863.00,130.14
1862.00,130.13
1861.00,130.13
1860.00,130.14
1859.00,130.14
1858.00,130.15
1857.00,130.17
1856.00,130.19
1855.00,130.22
1854.00,130.24
1853.00,130.27
1852.00,130.30
1851.00,130.33
1850.00,130.36
1849.00,130.39
1848.00,130.42
1847.00,130.44
1846.00,130.47
1845.00,130.49
1844.00,130.52
1843.00,130.54
1842.00,130.55
1841.00,130.56
1840.00,130.57
1839.00,130.58
1838.00,130.58
1837.00,130.58
1836.00,130.58
1835.00,130.58
1834.00,130.58
1833.00,130.58
1832.00,130.58
1831.00,130.57
1830.00,130.57
1829.00,130.57
1828.00,130.57
1827.00,130.58
1826.00,130.58
1825.00,130.59
1824.00,130.59
1823.00,130.60
1822.00,130.60
1821.00,130.61
1820.00,130.62
1819.00,130.63
1818.00,130.64
1817.00,130.65
1816.00,130.65
1815.00,130.66
1814.00,130.67
1813.00,130.67
1812.00,130.68
1811.00,130.68
1810.00,130.69
1809.00,130.70
1808.00,130.71
1807.00,130.72
1806.00,130.73
1805.00,130.74
1804.00,130.75
1803.00,130.76
1802.00,130.77
1801.00,130.79
1800.00,130.80
1799.00,130.82
1798.00,130.84
1797.00,130.85
1796.00,130.87
1795.00,130.88
1794.00,130.89
1793.00,130.91
1792.00,130.93
1791.00,130.95
1790.00,130.97
1789.00,130.99
1788.00,131.00
1787.00,131.01
1786.00,131.03
1785.00,131.04
1784.00,131.05
1783.00,131.06
1782.00,131.07
1781.00,131.08
1780.00,131.08
1779.00,131.09
1778.00,131.09
1777.00,131.10
1776.00,131.10
1775.00,131.10
1774.00,131.10
1773.00,131.10
1772.00,131.11
1771.00,131.10
1770.00,131.10
1769.00,131.09
1768.00,131.09
1767.00,131.08
1766.00,131.07
1765.00,131.07
1764.00,131.06
1763.00,131.05
1762.00,131.04
1761.00,131.03
1760.00,131.02
1759.00,131.02
1758.00,131.02
1757.00,131.02
1756.00,131.01
1755.00,131.00
1754.00,131.00
1753.00,131.01
1752.00,131.01
1751.00,131.01
1750.00,131.01
1749.00,131.01
1748.00,131.01
1747.00,131.00
1746.00,131.01
1745.00,131.01
1744.00,131.01
1743.00,131.02
1742.00,131.02
1741.00,131.03
1740.00,131.04
1739.00,131.05
1738.00,131.05
1737.00,131.06
1736.00,131.07
1735.00,131.08
1734.00,131.09
1733.00,131.09
1732.00,131.09
1731.00,131.10
1730.00,131.10
1729.00,131.10
1728.00,131.10
1727.00,131.11
1726.00,131.11
1725.00,131.11
1724.00,131.12
1723.00,131.12
1722.00,131.12
1721.00,131.12
1720.00,131.12
1719.00,131.11
1718.00,131.11
1717.00,131.11
1716.00,131.11
1715.00,131.11
1714.00,131.11
1713.00,131.10
1712.00,131.09
1711.00,131.08
1710.00,131.08
1709.00,131.07
1708.00,131.06
1707.00,131.06
1706.00,131.05
1705.00,131.05
1704.00,131.04
1703.00,131.03
1702.00,131.04
1701.00,131.04
1700.00,131.04
1699.00,131.03
1698.00,131.02
1697.00,131.02
1696.00,131.02
1695.00,131.02
1694.00,131.02
1693.00,131.02
1692.00,131.02
1691.00,131.02
1690.00,131.02
1689.00,131.02
1688.00,131.02
1687.00,131.02
1686.00,131.02
1685.00,131.03
1684.00,131.04
1683.00,131.04
1682.00,131.05
1681.00,131.05
1680.00,131.06
1679.00,131.06
1678.00,131.05
1677.00,131.06
1676.00,131.06
1675.00,131.06
1674.00,131.07
1673.00,131.07
1672.00,131.07
1671.00,131.07
1670.00,131.06
1669.00,131.06
1668.00,131.06
1667.00,131.05
1666.00,131.05
1665.00,131.04
1664.00,131.03
1663.00,131.02
1662.00,131.01
1661.00,131.00
1660.00,130.99
1659.00,130.98
1658.00,130.97
1657.00,130.96
1656.00,130.94
1655.00,130.93
1654.00,130.91
1653.00,130.91
1652.00,130.91
1651.00,130.92
1650.00,130.92
1649.00,130.92
1648.00,130.91
1647.00,130.90
1646.00,130.90
1645.00,130.90
1644.00,130.91
1643.00,130.92
1642.00,130.93
1641.00,130.94
1640.00,130.94
1639.00,130.95
1638.00,130.95
1637.00,130.95
1636.00,130.96
1635.00,130.96
1634.00,130.97
1633.00,130.97
1632.00,130.97
1631.00,130.97
1630.00,130.97
1629.00,130.97
1628.00,130.97
1627.00,130.97
1626.00,130.97
1625.00,130.97
1624.00,130.98
1623.00,130.98
1622.00,130.98
1621.00,130.98
1620.00,130.98
1619.00,130.98
1618.00,130.98
1617.00,130.99
1616.00,130.99
1615.00,131.00
1614.00,131.00
1613.00,131.01
1612.00,131.01
1611.00,131.01
1610.00,131.01
1609.00,131.02
1608.00,131.03
1607.00,131.04
1606.00,131.05
1605.00,131.05
1604.00,131.04
1603.00,131.04
1602.00,131.03
1601.00,131.02
1600.00,131.01
1599.00,131.01
1598.00,131.00
1597.00,131.00
1596.00,130.99
1595.00,130.98
1594.00,130.97
1593.00,130.97
1592.00,130.96
1591.00,130.96
1590.00,130.96
1589.00,130.96
1588.00,130.97
1587.00,130.97
1586.00,130.98
1585.00,130.98
1584.00,130.99
1583.00,130.99
1582.00,131.00
1581.00,131.01
1580.00,131.01
1579.00,131.02
1578.00,131.02
1577.00,131.03
1576.00,131.04
1575.00,131.05
1574.00,131.06
1573.00,131.06
1572.00,131.07
1571.00,131.06
1570.00,131.06
1569.00,131.06
1568.00,131.06
1567.00,131.06
1566.00,131.06
1565.00,131.06
1564.00,131.05
1563.00,131.04
1562.00,131.03
1561.00,131.03
1560.00,131.03
1559.00,131.02
1558.00,131.00
1557.00,130.99
1556.00,130.99
1555.00,130.99
1554.00,130.99
1553.00,130.98
1552.00,130.98
1551.00,130.97
1550.00,130.97
1549.00,130.96
1548.00,130.96
1547.00,130.97
1546.00,130.98
1545.00,130.99
1544.00,130.99
1543.00,130.99
1542.00,130.99
1541.00,130.99
1540.00,131.00
1539.00,131.00
1538.00,130.99
1537.00,130.98
1536.00,130.97
1535.00,130.96
1534.00,130.94
1533.00,130.93
1532.00,130.92
1531.00,130.92
1530.00,130.92
1529.00,130.92
1528.00,130.92
1527.00,130.92
1526.00,130.92
1525.00,130.93
1524.00,130.93
1523.00,130.93
1522.00,130.93
1521.00,130.94
1520.00,130.95
1519.00,130.96
1518.00,130.97
1517.00,130.98
1516.00,130.98
1515.00,130.98
1514.00,130.98
1513.00,130.99
1512.00,131.00
1511.00,131.01
1510.00,131.02
1509.00,131.03
1508.00,131.03
1507.00,131.03
1506.00,131.03
1505.00,131.03
1504.00,131.04
1503.00,131.04
1502.00,131.03
1501.00,131.02
1500.00,131.01
1499.00,131.00
1498.00,131.00
1497.00,130.99
1496.00,130.99
1495.00,130.99
1494.00,130.99
1493.00,130.99
1492.00,130.99
1491.00,130.99
1490.00,130.99
1489.00,130.98
1488.00,130.98
1487.00,130.98
1486.00,130.98
1485.00,130.98
1484.00,130.98
1483.00,130.98
1482.00,130.99
1481.00,130.99
1480.00,130.99
1479.00,131.00
1478.00,131.00
1477.00,131.01
1476.00,131.02
1475.00,131.03
1474.00,131.04
1473.00,131.05
1472.00,131.05
1471.00,131.06
1470.00,131.07
1469.00,131.08
1468.00,131.08
1467.00,131.09
1466.00,131.10
1465.00,131.10
1464.00,131.10
1463.00,131.11
1462.00,131.11
1461.00,131.11
1460.00,131.11
1459.00,131.11
1458.00,131.11
1457.00,131.11
1456.00,131.11
1455.00,131.11
1454.00,131.10
1453.00,131.09
1452.00,131.09
1451.00,131.08
1450.00,131.08
1449.00,131.08
1448.00,131.08
1447.00,131.07
1446.00,131.06
1445.00,131.04
1444.00,131.03
1443.00,131.03
1442.00,131.02
1441.00,131.01
1440.00,131.01
1439.00,131.00
1438.00,131.00
1437.00,130.99
1436.00,130.99
1435.00,130.98
1434.00,130.98
1433.00,130.98
1432.00,130.97
1431.00,130.97
1430.00,130.97
1429.00,130.97
1428.00,130.97
1427.00,130.98
1426.00,130.98
1425.00,130.98
1424.00,130.99
1423.00,131.00
1422.00,131.00
1421.00,131.01
1420.00,131.02
1419.00,131.03
1418.00,131.03
1417.00,131.04
1416.00,131.05
1415.00,131.05
1414.00,131.06
1413.00,131.07
1412.00,131.07
1411.00,131.07
1410.00,131.07
1409.00,131.07
1408.00,131.08
1407.00,131.08
1406.00,131.08
1405.00,131.08
1404.00,131.08
1403.00,131.08
1402.00,131.08
1401.00,131.08
1400.00,131.08
1399.00,131.08
1398.00,131.08
1397.00,131.08
1396.00,131.07
1395.00,131.07
1394.00,131.06
1393.00,131.06
1392.00,131.06
1391.00,131.05
1390.00,131.05
1389.00,131.05
1388.00,131.05
1387.00,131.04
1386.00,131.04
1385.00,131.03
1384.00,131.02
1383.00,131.01
1382.00,131.01
1381.00,131.01
1380.00,131.01
1379.00,131.01
1378.00,131.01
1377.00,131.01
1376.00,131.01
1375.00,131.01
1374.00,131.01
1373.00,131.01
1372.00,131.01
1371.00,131.02
1370.00,131.02
1369.00,131.03
1368.00,131.03
1367.00,131.03
1366.00,131.04
1365.00,131.04
1364.00,131.04
1363.00,131.05
1362.00,131.05
1361.00,131.06
1360.00,131.07
1359.00,131.07
1358.00,131.07
1357.00,131.08
1356.00,131.08
1355.00,131.08
1354.00,131.08
1353.00,131.09
1352.00,131.09
1351.00,131.09
1350.00,131.09
1349.00,131.09
1348.00,131.09
1347.00,131.08
1346.00,131.08
1345.00,131.08
1344.00,131.08
1343.00,131.07
1342.00,131.07
1341.00,131.06
1340.00,131.06
1339.00,131.05
1338.00,131.05
1337.00,131.04
1336.00,131.04
1335.00,131.03
1334.00,131.03
1333.00,131.03
1332.00,131.02
1331.00,131.02
1330.00,131.01
1329.00,131.01
1328.00,131.00
1327.00,131.00
1326.00,131.01
1325.00,131.01
1324.00,131.01
1323.00,131.01
1322.00,131.01
1321.00,131.01
1320.00,131.02
1319.00,131.02
1318.00,131.03
1317.00,131.03
1316.00,131.04
1315.00,131.05
1314.00,131.05
1313.00,131.06
1312.00,131.06
1311.00,131.07
1310.00,131.07
1309.00,131.08
1308.00,131.09
1307.00,131.09
1306.00,131.10
1305.00,131.10
1304.00,131.10
1303.00,131.11
1302.00,131.11
1301.00,131.11
1300.00,131.11
1299.00,131.11
1298.00,131.11
1297.00,131.11
1296.00,131.10
1295.00,131.10
1294.00,131.09
1293.00,131.09
1292.00,131.08
1291.00,131.08
1290.00,131.07
1289.00,131.07
1288.00,131.06
1287.00,131.05
1286.00,131.04
1285.00,131.03
1284.00,131.03
1283.00,131.02
1282.00,131.02
1281.00,131.02
1280.00,131.01
1279.00,131.00
1278.00,131.00
1277.00,131.00
1276.00,130.99
1275.00,130.99
1274.00,130.99
1273.00,130.99
1272.00,130.99
1271.00,130.99
1270.00,130.99
1269.00,131.00
1268.00,131.00
1267.00,131.01
1266.00,131.01
1265.00,131.02
1264.00,131.04
1263.00,131.05
1262.00,131.06
1261.00,131.07
1260.00,131.08
1259.00,131.09
1258.00,131.09
1257.00,131.10
1256.00,131.10
1255.00,131.10
1254.00,131.09
1253.00,131.09
1252.00,131.08
1251.00,131.08
1250.00,131.08
1249.00,131.08
1248.00,131.09
1247.00,131.09
1246.00,131.09
1245.00,131.08
1244.00,131.08
1243.00,131.08
1242.00,131.08
1241.00,131.07
1240.00,131.07
1239.00,131.07
1238.00,131.06
1237.00,131.06
1236.00,131.05
1235.00,131.05
1234.00,131.04
1233.00,131.03
1232.00,131.02
1231.00,131.02
1230.00,131.01
1229.00,131.01
1228.00,131.00
1227.00,130.99
1226.00,130.98
1225.00,130.98
1224.00,130.97
1223.00,130.97
1222.00,130.97
1221.00,130.97
1220.00,130.96
1219.00,130.96
1218.00,130.95
1217.00,130.95
1216.00,130.95
1215.00,130.95
1214.00,130.96
1213.00,130.96
1212.00,130.97
1211.00,130.97
1210.00,130.97
1209.00,130.97
1208.00,130.98
1207.00,130.98
1206.00,130.99
1205.00,130.99
1204.00,131.00
1203.00,131.01
1202.00,131.01
1201.00,131.02
1200.00,131.02
1199.00,131.02
1198.00,131.03
1197.00,131.03
1196.00,131.03
1195.00,131.04
1194.00,131.04
1193.00,131.04
1192.00,131.04
1191.00,131.04
1190.00,131.04
1189.00,131.03
1188.00,131.03
1187.00,131.03
1186.00,131.03
1185.00,131.03
1184.00,131.02
1183.00,131.01
1182.00,131.00
1181.00,131.00
1180.00,130.99
1179.00,130.98
1178.00,130.98
1177.00,130.97
1176.00,130.97
1175.00,130.96
1174.00,130.96
1173.00,130.95
1172.00,130.95
1171.00,130.94
1170.00,130.94
1169.00,130.93
1168.00,130.93
1167.00,130.93
1166.00,130.93
1165.00,130.93
1164.00,130.92
1163.00,130.92
1162.00,130.92
1161.00,130.92
1160.00,130.93
1159.00,130.93
1158.00,130.93
1157.00,130.93
1156.00,130.93
1155.00,130.93
1154.00,130.94
1153.00,130.94
1152.00,130.95
1151.00,130.96
1150.00,130.96
1149.00,130.97
1148.00,130.97
1147.00,130.98
1146.00,130.98
1145.00,130.99
1144.00,130.99
1143.00,130.99
1142.00,131.00
1141.00,131.00
1140.00,131.00
1139.00,131.00
1138.00,131.00
1137.00,131.00
1136.00,130.99
1135.00,130.99
1134.00,130.99
1133.00,130.99
1132.00,130.99
1131.00,130.98
1130.00,130.98
1129.00,130.97
1128.00,130.97
1127.00,130.96
1126.00,130.96
1125.00,130.96
1124.00,130.96
1123.00,130.95
1122.00,130.95
1121.00,130.94
1120.00,130.94
1119.00,130.93
1118.00,130.93
1117.00,130.93
1116.00,130.93
1115.00,130.93
1114.00,130.93
1113.00,130.93
1112.00,130.93
1111.00,130.93
1110.00,130.93
1109.00,130.94
1108.00,130.94
1107.00,130.94
1106.00,130.95
1105.00,130.95
1104.00,130.95
1103.00,130.96
1102.00,130.96
1101.00,130.97
1100.00,130.97
1099.00,130.98
1098.00,130.99
1097.00,130.99
1096.00,130.99
1095.00,130.99
1094.00,130.99
1093.00,130.99
1092.00,130.99
1091.00,131.00
1090.00,131.00
1089.00,131.00
1088.00,131.00
1087.00,130.99
1086.00,130.99
1085.00,130.99
1084.00,130.99
1083.00,130.98
1082.00,130.98
1081.00,130.97
1080.00,130.96
1079.00,130.95
1078.00,130.94
1077.00,130.93
1076.00,130.92
1075.00,130.91
1074.00,130.91
1073.00,130.90
1072.00,130.89
1071.00,130.89
1070.00,130.88
1069.00,130.87
1068.00,130.86
1067.00,130.85
1066.00,130.85
1065.00,130.85
1064.00,130.85
1063.00,130.85
1062.00,130.84
1061.00,130.83
1060.00,130.83
1059.00,130.83
1058.00,130.83
1057.00,130.83
1056.00,130.83
1055.00,130.84
1054.00,130.83
1053.00,130.83
1052.00,130.83
1051.00,130.83
1050.00,130.84
1049.00,130.85
1048.00,130.86
1047.00,130.88
1046.00,130.90
1045.00,130.91
1044.00,130.92
1043.00,130.92
1042.00,130.93
1041.00,130.93
1040.00,130.94
1039.00,130.95
1038.00,130.96
1037.00,130.98
1036.00,130.99
1035.00,130.99
1034.00,130.99
1033.00,130.99
1032.00,130.99
1031.00,131.00
1030.00,131.00
1029.00,131.01
1028.00,131.02
1027.00,131.02
1026.00,131.02
1025.00,131.02
1024.00,131.02
1023.00,131.03
1022.00,131.03
1021.00,131.04
1020.00,131.04
1019.00,131.05
1018.00,131.05
1017.00,131.05
1016.00,131.05
1015.00,131.05
1014.00,131.04
1013.00,131.04
1012.00,131.05
1011.00,131.05
1010.00,131.05
1009.00,131.05
1008.00,131.04
1007.00,131.04
1006.00,131.04
1005.00,131.04
1004.00,131.04
1003.00,131.05
1002.00,131.05
1001.00,131.06
1000.00,131.07
999.00,131.07
998.00,131.07
997.00,131.08
996.00,131.09
995.00,131.10
994.00,131.11
993.00,131.12
992.00,131.13
991.00,131.14
990.00,131.15
989.00,131.15
988.00,131.16
987.00,131.16
986.00,131.17
985.00,131.18
984.00,131.19
983.00,131.20
982.00,131.21
981.00,131.21
980.00,131.21
979.00,131.20
978.00,131.21
977.00,131.21
976.00,131.22
975.00,131.23
974.00,131.23
973.00,131.22
972.00,131.22
971.00,131.21
970.00,131.21
969.00,131.21
968.00,131.22
967.00,131.22
966.00,131.22
965.00,131.22
964.00,131.22
963.00,131.21
962.00,131.20
961.00,131.20
960.00,131.20
959.00,131.20
958.00,131.21
957.00,131.21
956.00,131.22
955.00,131.22
954.00,131.22
953.00,131.22
952.00,131.22
951.00,131.23
950.00,131.24
949.00,131.25
948.00,131.26
947.00,131.27
946.00,131.27
945.00,131.27
944.00,131.28
943.00,131.29
942.00,131.29
941.00,131.31
940.00,131.32
939.00,131.33
938.00,131.33
937.00,131.34
936.00,131.35
935.00,131.35
934.00,131.36
933.00,131.36
932.00,131.37
931.00,131.38
930.00,131.38
929.00,131.39
928.00,131.39
927.00,131.39
926.00,131.39
925.00,131.39
924.00,131.40
923.00,131.40
922.00,131.40
921.00,131.40
920.00,131.40
919.00,131.39
918.00,131.39
917.00,131.38
916.00,131.38
915.00,131.38
914.00,131.38
913.00,131.38
912.00,131.38
911.00,131.38
910.00,131.37
909.00,131.37
908.00,131.37
907.00,131.37
906.00,131.37
905.00,131.37
904.00,131.38
903.00,131.38
902.00,131.38
901.00,131.38
900.00,131.38
899.00,131.39
898.00,131.40
897.00,131.40
896.00,131.42
895.00,131.43
894.00,131.43
893.00,131.44
892.00,131.44
891.00,131.45
890.00,131.45
889.00,131.46
888.00,131.47
887.00,131.48
886.00,131.49
885.00,131.50
884.00,131.50
883.00,131.50
882.00,131.51
881.00,131.51
880.00,131.52
879.00,131.53
878.00,131.53
877.00,131.54
876.00,131.54
875.00,131.54
874.00,131.54
873.00,131.55
872.00,131.55
871.00,131.55
870.00,131.56
869.00,131.56
868.00,131.56
867.00,131.56
866.00,131.55
865.00,131.55
864.00,131.54
863.00,131.54
862.00,131.54
861.00,131.54
860.00,131.54
859.00,131.54
858.00,131.53
857.00,131.52
856.00,131.52
855.00,131.52
854.00,131.52
853.00,131.52
852.00,131.53
851.00,131.53
850.00,131.53
849.00,131.53
848.00,131.53
847.00,131.53
846.00,131.54
845.00,131.54
844.00,131.54
843.00,131.54
842.00,131.55
841.00,131.55
840.00,131.55
839.00,131.56
838.00,131.56
837.00,131.57
836.00,131.57
835.00,131.58
834.00,131.58
833.00,131.59
832.00,131.59
831.00,131.59
830.00,131.59
829.00,131.59
828.00,131.59
827.00,131.60
826.00,131.61
825.00,131.61
824.00,131.62
823.00,131.62
822.00,131.63
821.00,131.63
820.00,131.63
819.00,131.64
818.00,131.64
817.00,131.64
816.00,131.64
815.00,131.63
814.00,131.63
813.00,131.63
812.00,131.62
811.00,131.62
810.00,131.62
809.00,131.62
808.00,131.62
807.00,131.63
806.00,131.63
805.00,131.64
804.00,131.64
803.00,131.65
802.00,131.65
801.00,131.65
800.00,131.65
799.00,131.66
798.00,131.66
797.00,131.65
796.00,131.65
795.00,131.64
794.00,131.64
793.00,131.64
792.00,131.64
791.00,131.65
790.00,131.64
789.00,131.64
788.00,131.63
787.00,131.63
786.00,131.63
785.00,131.63
784.00,131.63
783.00,131.63
782.00,131.63
781.00,131.63
780.00,131.63
779.00,131.64
778.00,131.64
777.00,131.64
776.00,131.64
775.00,131.64
774.00,131.63
773.00,131.63
772.00,131.64
771.00,131.64
770.00,131.64
769.00,131.64
768.00,131.63
767.00,131.62
766.00,131.62
765.00,131.62
764.00,131.61
763.00,131.60
762.00,131.59
761.00,131.58
760.00,131.58
759.00,131.57
758.00,131.58
757.00,131.58
756.00,131.57
755.00,131.57
754.00,131.56
753.00,131.55
752.00,131.54
751.00,131.54
750.00,131.54
749.00,131.53
748.00,131.53
747.00,131.53
746.00,131.53
745.00,131.53
744.00,131.53
743.00,131.53
742.00,131.53
741.00,131.53
740.00,131.52
739.00,131.53
738.00,131.53
737.00,131.54
736.00,131.54
735.00,131.55
734.00,131.55
733.00,131.55
732.00,131.56
731.00,131.57
730.00,131.57
729.00,131.57
728.00,131.57
727.00,131.56
726.00,131.56
725.00,131.57
724.00,131.57
723.00,131.58
722.00,131.58
721.00,131.57
720.00,131.57
719.00,131.57
718.00,131.58
717.00,131.58
716.00,131.58
715.00,131.58
714.00,131.57
713.00,131.57
712.00,131.57
711.00,131.56
710.00,131.56
709.00,131.55
708.00,131.54
707.00,131.53
706.00,131.52
705.00,131.52
704.00,131.53
703.00,131.53
702.00,131.52
701.00,131.51
700.00,131.50
699.00,131.49
698.00,131.49
697.00,131.49
696.00,131.49
695.00,131.48
694.00,131.47
693.00,131.46
692.00,131.46
691.00,131.45
690.00,131.45
689.00,131.45
688.00,131.45
687.00,131.45
686.00,131.44
685.00,131.44
684.00,131.44
683.00,131.44
682.00,131.44
681.00,131.44
680.00,131.44
679.00,131.45
678.00,131.45
677.00,131.46
676.00,131.47
675.00,131.47
674.00,131.47
673.00,131.47
672.00,131.47
671.00,131.49
670.00,131.51
669.00,131.51
668.00,131.49
667.00,131.46
666.00,131.45
665.00,131.45
664.00,131.46
663.00,131.46
662.00,131.46
661.00,131.45
660.00,131.45
659.00,131.44
658.00,131.43
657.00,131.42
656.00,131.41
655.00,131.40
654.00,131.39
653.00,131.38
652.00,131.38
651.00,131.38
650.00,131.37
649.00,131.36
648.00,131.35
647.00,131.34
646.00,131.33
645.00,131.33
644.00,131.34
643.00,131.35
642.00,131.35
641.00,131.35
640.00,131.33
639.00,131.32
638.00,131.31
637.00,131.32
636.00,131.32
635.00,131.33
634.00,131.33
633.00,131.33
632.00,131.32
631.00,131.31
630.00,131.31
629.00,131.30
628.00,131.30
627.00,131.30
626.00,131.31
625.00,131.32
624.00,131.33
623.00,131.33
622.00,131.33
621.00,131.32
620.00,131.31
619.00,131.31
618.00,131.31
617.00,131.32
616.00,131.32
615.00,131.32
614.00,131.31
613.00,131.30
612.00,131.29
611.00,131.29
610.00,131.30
609.00,131.30
608.00,131.30
607.00,131.29
606.00,131.28
605.00,131.27
604.00,131.27
603.00,131.27
602.00,131.27
601.00,131.27
600.00,131.26
599.00,131.26
598.00,131.27
597.00,131.28
596.00,131.28
595.00,131.28
594.00,131.26
593.00,131.25
592.00,131.24
591.00,131.24
590.00,131.24
589.00,131.24
588.00,131.23
587.00,131.22
586.00,131.21
585.00,131.20
584.00,131.20
583.00,131.20
582.00,131.21
581.00,131.21
580.00,131.21
579.00,131.20
578.00,131.20
577.00,131.20
576.00,131.19
575.00,131.19
574.00,131.18
573.00,131.17
572.00,131.17
571.00,131.18
570.00,131.18
569.00,131.17
568.00,131.16
567.00,131.15
566.00,131.14
565.00,131.14
564.00,131.15
563.00,131.15
562.00,131.15
561.00,131.13
560.00,131.12
559.00,131.11
558.00,131.11
557.00,131.12
556.00,131.13
555.00,131.13
554.00,131.13
553.00,131.12
552.00,131.12
551.00,131.12
550.00,131.12
549.00,131.11
548.00,131.10
547.00,131.10
546.00,131.10
545.00,131.11
544.00,131.11
543.00,131.12
542.00,131.12
541.00,131.11
540.00,131.11
539.00,131.11
538.00,131.12
537.00,131.13
536.00,131.14
535.00,131.13
534.00,131.12
533.00,131.11
532.00,131.12
531.00,131.14
530.00,131.16
529.00,131.17
528.00,131.19
527.00,131.20
526.00,131.21
525.00,131.22
524.00,131.24
523.00,131.26
522.00,131.28
521.00,131.29
520.00,131.30
519.00,131.30
518.00,131.31
517.00,131.32
516.00,131.33
515.00,131.33
514.00,131.34
513.00,131.35
512.00,131.37
511.00,131.39
510.00,131.40
509.00,131.41
508.00,131.40
507.00,131.40
506.00,131.40
505.00,131.41
504.00,131.42
503.00,131.43
502.00,131.43
501.00,131.43
500.00,131.42
