Created as New Dataset,Sample 390 By Analyst Date Monday, February 10 2025
cm-1,%T
4000.00,136.15
3999.00,136.14
3998.00,136.13
3997.00,136.13
3996.00,136.12
3995.00,136.11
3994.00,136.11
3993.00,136.10
3992.00,136.09
3991.00,136.09
3990.00,136.08
3989.00,136.07
3988.00,136.06
3987.00,136.05
3986.00,136.04
3985.00,136.03
3984.00,136.02
3983.00,136.01
3982.00,136.00
3981.00,135.99
3980.00,135.98
3979.00,135.97
3978.00,135.96
3977.00,135.96
3976.00,135.95
3975.00,135.94
3974.00,135.93
3973.00,135.92
3972.00,135.91
3971.00,135.91
3970.00,135.90
3969.00,135.90
3968.00,135.89
3967.00,135.88
3966.00,135.88
3965.00,135.87
3964.00,135.87
3963.00,135.87
3962.00,135.87
3961.00,135.87
3960.00,135.86
3959.00,135.86
3958.00,135.87
3957.00,135.87
3956.00,135.87
3955.00,135.87
3954.00,135.87
3953.00,135.87
3952.00,135.88
3951.00,135.88
3950.00,135.89
3949.00,135.89
3948.00,135.90
3947.00,135.90
3946.00,135.89
3945.00,135.89
3944.00,135.89
3943.00,135.89
3942.00,135.88
3941.00,135.87
3940.00,135.86
3939.00,135.86
3938.00,135.86
3937.00,135.85
3936.00,135.84
3935.00,135.84
3934.00,135.84
3933.00,135.84
3932.00,135.84
3931.00,135.84
3930.00,135.83
3929.00,135.83
3928.00,135.82
3927.00,135.81
3926.00,135.81
3925.00,135.81
3924.00,135.80
3923.00,135.80
3922.00,135.80
3921.00,135.80
3920.00,135.80
3919.00,135.80
3918.00,135.79
3917.00,135.78
3916.00,135.77
3915.00,135.75
3914.00,135.74
3913.00,135.73
3912.00,135.73
3911.00,135.73
3910.00,135.74
3909.00,135.75
3908.00,135.77
3907.00,135.80
3906.00,135.84
3905.00,135.89
3904.00,135.92
3903.00,135.93
3902.00,135.93
3901.00,135.93
3900.00,135.93
3899.00,135.91
3898.00,135.88
3897.00,135.86
3896.00,135.84
3895.00,135.83
3894.00,135.81
3893.00,135.81
3892.00,135.83
3891.00,135.83
3890.00,135.82
3889.00,135.81
3888.00,135.81
3887.00,135.85
3886.00,135.87
3885.00,135.85
3884.00,135.83
3883.00,135.82
3882.00,135.84
3881.00,135.86
3880.00,135.85
3879.00,135.81
3878.00,135.78
3877.00,135.77
3876.00,135.80
3875.00,135.83
3874.00,135.83
3873.00,135.80
3872.00,135.80
3871.00,135.84
3870.00,135.88
3869.00,135.87
3868.00,135.83
3867.00,135.83
3866.00,135.84
3865.00,135.84
3864.00,135.81
3863.00,135.77
3862.00,135.75
3861.00,135.76
3860.00,135.78
3859.00,135.80
3858.00,135.81
3857.00,135.80
3856.00,135.80
3855.00,135.84
3854.00,135.88
3853.00,135.88
3852.00,135.85
3851.00,135.84
3850.00,135.85
3849.00,135.83
3848.00,135.79
3847.00,135.73
3846.00,135.69
3845.00,135.69
3844.00,135.70
3843.00,135.73
3842.00,135.74
3841.00,135.75
3840.00,135.77
3839.00,135.79
3838.00,135.80
3837.00,135.80
3836.00,135.79
3835.00,135.77
3834.00,135.76
3833.00,135.74
3832.00,135.71
3831.00,135.66
3830.00,135.62
3829.00,135.59
3828.00,135.59
3827.00,135.61
3826.00,135.62
3825.00,135.61
3824.00,135.60
3823.00,135.64
3822.00,135.69
3821.00,135.71
3820.00,135.68
3819.00,135.63
3818.00,135.62
3817.00,135.63
3816.00,135.61
3815.00,135.55
3814.00,135.50
3813.00,135.49
3812.00,135.50
3811.00,135.49
3810.00,135.45
3809.00,135.44
3808.00,135.46
3807.00,135.50
3806.00,135.50
3805.00,135.49
3804.00,135.49
3803.00,135.53
3802.00,135.56
3801.00,135.54
3800.00,135.50
3799.00,135.47
3798.00,135.48
3797.00,135.48
3796.00,135.45
3795.00,135.39
3794.00,135.33
3793.00,135.31
3792.00,135.30
3791.00,135.28
3790.00,135.27
3789.00,135.26
3788.00,135.25
3787.00,135.26
3786.00,135.27
3785.00,135.29
3784.00,135.30
3783.00,135.30
3782.00,135.31
3781.00,135.32
3780.00,135.33
3779.00,135.32
3778.00,135.30
3777.00,135.29
3776.00,135.30
3775.00,135.32
3774.00,135.32
3773.00,135.32
3772.00,135.33
3771.00,135.35
3770.00,135.37
3769.00,135.37
3768.00,135.36
3767.00,135.37
3766.00,135.39
3765.00,135.39
3764.00,135.37
3763.00,135.36
3762.00,135.36
3761.00,135.37
3760.00,135.38
3759.00,135.39
3758.00,135.40
3757.00,135.42
3756.00,135.43
3755.00,135.45
3754.00,135.47
3753.00,135.49
3752.00,135.51
3751.00,135.55
3750.00,135.59
3749.00,135.62
3748.00,135.61
3747.00,135.58
3746.00,135.58
3745.00,135.57
3744.00,135.51
3743.00,135.43
3742.00,135.40
3741.00,135.41
3740.00,135.41
3739.00,135.38
3738.00,135.35
3737.00,135.34
3736.00,135.34
3735.00,135.33
3734.00,135.32
3733.00,135.31
3732.00,135.28
3731.00,135.23
3730.00,135.18
3729.00,135.13
3728.00,135.11
3727.00,135.10
3726.00,135.07
3725.00,135.05
3724.00,135.04
3723.00,135.04
3722.00,135.04
3721.00,135.02
3720.00,135.00
3719.00,135.00
3718.00,135.00
3717.00,135.01
3716.00,135.02
3715.00,135.04
3714.00,135.07
3713.00,135.10
3712.00,135.13
3711.00,135.14
3710.00,135.15
3709.00,135.15
3708.00,135.14
3707.00,135.14
3706.00,135.12
3705.00,135.11
3704.00,135.11
3703.00,135.12
3702.00,135.14
3701.00,135.16
3700.00,135.17
3699.00,135.18
3698.00,135.22
3697.00,135.26
3696.00,135.30
3695.00,135.35
3694.00,135.40
3693.00,135.46
3692.00,135.51
3691.00,135.56
3690.00,135.60
3689.00,135.63
3688.00,135.64
3687.00,135.65
3686.00,135.65
3685.00,135.66
3684.00,135.67
3683.00,135.66
3682.00,135.66
3681.00,135.69
3680.00,135.74
3679.00,135.76
3678.00,135.79
3677.00,135.85
3676.00,135.93
3675.00,135.95
3674.00,135.94
3673.00,135.92
3672.00,135.93
3671.00,135.93
3670.00,135.89
3669.00,135.82
3668.00,135.75
3667.00,135.70
3666.00,135.67
3665.00,135.62
3664.00,135.58
3663.00,135.54
3662.00,135.51
3661.00,135.51
3660.00,135.50
3659.00,135.50
3658.00,135.51
3657.00,135.54
3656.00,135.57
3655.00,135.58
3654.00,135.60
3653.00,135.62
3652.00,135.66
3651.00,135.68
3650.00,135.68
3649.00,135.66
3648.00,135.64
3647.00,135.61
3646.00,135.57
3645.00,135.51
3644.00,135.46
3643.00,135.41
3642.00,135.36
3641.00,135.32
3640.00,135.30
3639.00,135.30
3638.00,135.30
3637.00,135.30
3636.00,135.32
3635.00,135.36
3634.00,135.40
3633.00,135.43
3632.00,135.45
3631.00,135.48
3630.00,135.53
3629.00,135.56
3628.00,135.54
3627.00,135.52
3626.00,135.52
3625.00,135.54
3624.00,135.54
3623.00,135.52
3622.00,135.51
3621.00,135.52
3620.00,135.54
3619.00,135.56
3618.00,135.57
3617.00,135.57
3616.00,135.57
3615.00,135.59
3614.00,135.60
3613.00,135.59
3612.00,135.57
3611.00,135.55
3610.00,135.55
3609.00,135.54
3608.00,135.52
3607.00,135.50
3606.00,135.47
3605.00,135.45
3604.00,135.44
3603.00,135.42
3602.00,135.41
3601.00,135.40
3600.00,135.40
3599.00,135.41
3598.00,135.41
3597.00,135.42
3596.00,135.43
3595.00,135.44
3594.00,135.45
3593.00,135.46
3592.00,135.47
3591.00,135.48
3590.00,135.50
3589.00,135.51
3588.00,135.52
3587.00,135.52
3586.00,135.51
3585.00,135.50
3584.00,135.49
3583.00,135.49
3582.00,135.48
3581.00,135.47
3580.00,135.46
3579.00,135.46
3578.00,135.46
3577.00,135.47
3576.00,135.48
3575.00,135.49
3574.00,135.51
3573.00,135.53
3572.00,135.55
3571.00,135.58
3570.00,135.60
3569.00,135.63
3568.00,135.67
3567.00,135.69
3566.00,135.69
3565.00,135.69
3564.00,135.69
3563.00,135.68
3562.00,135.67
3561.00,135.65
3560.00,135.64
3559.00,135.63
3558.00,135.63
3557.00,135.64
3556.00,135.64
3555.00,135.65
3554.00,135.65
3553.00,135.66
3552.00,135.67
3551.00,135.68
3550.00,135.68
3549.00,135.69
3548.00,135.69
3547.00,135.69
3546.00,135.68
3545.00,135.68
3544.00,135.68
3543.00,135.68
3542.00,135.67
3541.00,135.67
3540.00,135.66
3539.00,135.66
3538.00,135.65
3537.00,135.65
3536.00,135.65
3535.00,135.65
3534.00,135.66
3533.00,135.66
3532.00,135.67
3531.00,135.67
3530.00,135.68
3529.00,135.68
3528.00,135.68
3527.00,135.68
3526.00,135.67
3525.00,135.67
3524.00,135.67
3523.00,135.66
3522.00,135.66
3521.00,135.65
3520.00,135.64
3519.00,135.64
3518.00,135.63
3517.00,135.62
3516.00,135.61
3515.00,135.60
3514.00,135.60
3513.00,135.59
3512.00,135.59
3511.00,135.59
3510.00,135.59
3509.00,135.59
3508.00,135.59
3507.00,135.59
3506.00,135.58
3505.00,135.58
3504.00,135.57
3503.00,135.57
3502.00,135.56
3501.00,135.56
3500.00,135.56
3499.00,135.56
3498.00,135.55
3497.00,135.55
3496.00,135.55
3495.00,135.55
3494.00,135.55
3493.00,135.56
3492.00,135.56
3491.00,135.57
3490.00,135.57
3489.00,135.58
3488.00,135.58
3487.00,135.59
3486.00,135.60
3485.00,135.61
3484.00,135.62
3483.00,135.63
3482.00,135.64
3481.00,135.65
3480.00,135.66
3479.00,135.67
3478.00,135.68
3477.00,135.69
3476.00,135.70
3475.00,135.72
3474.00,135.73
3473.00,135.74
3472.00,135.74
3471.00,135.75
3470.00,135.75
3469.00,135.76
3468.00,135.78
3467.00,135.79
3466.00,135.81
3465.00,135.83
3464.00,135.85
3463.00,135.86
3462.00,135.87
3461.00,135.88
3460.00,135.89
3459.00,135.90
3458.00,135.91
3457.00,135.93
3456.00,135.94
3455.00,135.95
3454.00,135.96
3453.00,135.97
3452.00,135.98
3451.00,135.99
3450.00,136.00
3449.00,136.01
3448.00,136.03
3447.00,136.04
3446.00,136.05
3445.00,136.06
3444.00,136.06
3443.00,136.07
3442.00,136.08
3441.00,136.08
3440.00,136.08
3439.00,136.08
3438.00,136.08
3437.00,136.08
3436.00,136.08
3435.00,136.09
3434.00,136.10
3433.00,136.10
3432.00,136.11
3431.00,136.11
3430.00,136.11
3429.00,136.11
3428.00,136.11
3427.00,136.11
3426.00,136.11
3425.00,136.11
3424.00,136.11
3423.00,136.10
3422.00,136.09
3421.00,136.08
3420.00,136.07
3419.00,136.06
3418.00,136.05
3417.00,136.03
3416.00,136.02
3415.00,136.00
3414.00,135.97
3413.00,135.95
3412.00,135.93
3411.00,135.91
3410.00,135.89
3409.00,135.87
3408.00,135.85
3407.00,135.83
3406.00,135.80
3405.00,135.78
3404.00,135.75
3403.00,135.72
3402.00,135.69
3401.00,135.66
3400.00,135.64
3399.00,135.63
3398.00,135.62
3397.00,135.60
3396.00,135.59
3395.00,135.56
3394.00,135.54
3393.00,135.52
3392.00,135.50
3391.00,135.49
3390.00,135.48
3389.00,135.48
3388.00,135.47
3387.00,135.46
3386.00,135.46
3385.00,135.45
3384.00,135.44
3383.00,135.43
3382.00,135.42
3381.00,135.41
3380.00,135.41
3379.00,135.40
3378.00,135.40
3377.00,135.39
3376.00,135.39
3375.00,135.39
3374.00,135.39
3373.00,135.39
3372.00,135.38
3371.00,135.37
3370.00,135.36
3369.00,135.36
3368.00,135.36
3367.00,135.37
3366.00,135.37
3365.00,135.38
3364.00,135.38
3363.00,135.38
3362.00,135.38
3361.00,135.38
3360.00,135.38
3359.00,135.38
3358.00,135.38
3357.00,135.38
3356.00,135.38
3355.00,135.38
3354.00,135.38
3353.00,135.37
3352.00,135.36
3351.00,135.36
3350.00,135.36
3349.00,135.37
3348.00,135.37
3347.00,135.37
3346.00,135.37
3345.00,135.37
3344.00,135.37
3343.00,135.37
3342.00,135.37
3341.00,135.37
3340.00,135.37
3339.00,135.37
3338.00,135.38
3337.00,135.38
3336.00,135.39
3335.00,135.40
3334.00,135.41
3333.00,135.42
3332.00,135.43
3331.00,135.43
3330.00,135.44
3329.00,135.44
3328.00,135.45
3327.00,135.45
3326.00,135.46
3325.00,135.47
3324.00,135.48
3323.00,135.49
3322.00,135.51
3321.00,135.52
3320.00,135.53
3319.00,135.54
3318.00,135.55
3317.00,135.57
3316.00,135.58
3315.00,135.60
3314.00,135.62
3313.00,135.64
3312.00,135.66
3311.00,135.68
3310.00,135.70
3309.00,135.73
3308.00,135.75
3307.00,135.78
3306.00,135.81
3305.00,135.84
3304.00,135.86
3303.00,135.88
3302.00,135.89
3301.00,135.89
3300.00,135.88
3299.00,135.86
3298.00,135.83
3297.00,135.79
3296.00,135.76
3295.00,135.72
3294.00,135.69
3293.00,135.65
3292.00,135.62
3291.00,135.59
3290.00,135.56
3289.00,135.54
3288.00,135.51
3287.00,135.49
3286.00,135.46
3285.00,135.44
3284.00,135.42
3283.00,135.40
3282.00,135.39
3281.00,135.37
3280.00,135.36
3279.00,135.35
3278.00,135.33
3277.00,135.32
3276.00,135.31
3275.00,135.30
3274.00,135.28
3273.00,135.27
3272.00,135.26
3271.00,135.25
3270.00,135.25
3269.00,135.25
3268.00,135.25
3267.00,135.25
3266.00,135.25
3265.00,135.25
3264.00,135.25
3263.00,135.25
3262.00,135.25
3261.00,135.25
3260.00,135.25
3259.00,135.25
3258.00,135.25
3257.00,135.25
3256.00,135.25
3255.00,135.25
3254.00,135.25
3253.00,135.25
3252.00,135.25
3251.00,135.25
3250.00,135.25
3249.00,135.25
3248.00,135.25
3247.00,135.25
3246.00,135.25
3245.00,135.25
3244.00,135.25
3243.00,135.26
3242.00,135.26
3241.00,135.26
3240.00,135.26
3239.00,135.26
3238.00,135.26
3237.00,135.26
3236.00,135.26
3235.00,135.26
3234.00,135.26
3233.00,135.26
3232.00,135.27
3231.00,135.28
3230.00,135.29
3229.00,135.30
3228.00,135.30
3227.00,135.31
3226.00,135.32
3225.00,135.33
3224.00,135.34
3223.00,135.34
3222.00,135.35
3221.00,135.36
3220.00,135.37
3219.00,135.38
3218.00,135.39
3217.00,135.40
3216.00,135.41
3215.00,135.42
3214.00,135.44
3213.00,135.45
3212.00,135.46
3211.00,135.47
3210.00,135.48
3209.00,135.48
3208.00,135.49
3207.00,135.50
3206.00,135.51
3205.00,135.52
3204.00,135.53
3203.00,135.54
3202.00,135.54
3201.00,135.55
3200.00,135.56
3199.00,135.56
3198.00,135.56
3197.00,135.57
3196.00,135.57
3195.00,135.57
3194.00,135.57
3193.00,135.57
3192.00,135.56
3191.00,135.56
3190.00,135.56
3189.00,135.56
3188.00,135.57
3187.00,135.57
3186.00,135.57
3185.00,135.58
3184.00,135.59
3183.00,135.60
3182.00,135.60
3181.00,135.61
3180.00,135.61
3179.00,135.61
3178.00,135.61
3177.00,135.61
3176.00,135.61
3175.00,135.60
3174.00,135.60
3173.00,135.60
3172.00,135.59
3171.00,135.59
3170.00,135.59
3169.00,135.59
3168.00,135.59
3167.00,135.59
3166.00,135.60
3165.00,135.60
3164.00,135.60
3163.00,135.61
3162.00,135.61
3161.00,135.62
3160.00,135.62
3159.00,135.63
3158.00,135.63
3157.00,135.63
3156.00,135.63
3155.00,135.62
3154.00,135.62
3153.00,135.61
3152.00,135.61
3151.00,135.61
3150.00,135.61
3149.00,135.61
3148.00,135.61
3147.00,135.61
3146.00,135.61
3145.00,135.60
3144.00,135.60
3143.00,135.60
3142.00,135.59
3141.00,135.59
3140.00,135.59
3139.00,135.58
3138.00,135.59
3137.00,135.59
3136.00,135.59
3135.00,135.60
3134.00,135.60
3133.00,135.60
3132.00,135.61
3131.00,135.61
3130.00,135.61
3129.00,135.61
3128.00,135.62
3127.00,135.63
3126.00,135.63
3125.00,135.64
3124.00,135.64
3123.00,135.65
3122.00,135.65
3121.00,135.65
3120.00,135.66
3119.00,135.67
3118.00,135.68
3117.00,135.69
3116.00,135.70
3115.00,135.72
3114.00,135.74
3113.00,135.76
3112.00,135.78
3111.00,135.79
3110.00,135.80
3109.00,135.82
3108.00,135.83
3107.00,135.85
3106.00,135.87
3105.00,135.89
3104.00,135.90
3103.00,135.91
3102.00,135.91
3101.00,135.92
3100.00,135.92
3099.00,135.92
3098.00,135.93
3097.00,135.94
3096.00,135.94
3095.00,135.95
3094.00,135.95
3093.00,135.96
3092.00,135.96
3091.00,135.97
3090.00,135.98
3089.00,135.99
3088.00,136.00
3087.00,136.02
3086.00,136.03
3085.00,136.04
3084.00,136.05
3083.00,136.07
3082.00,136.08
3081.00,136.09
3080.00,136.10
3079.00,136.10
3078.00,136.11
3077.00,136.12
3076.00,136.13
3075.00,136.13
3074.00,136.14
3073.00,136.14
3072.00,136.14
3071.00,136.14
3070.00,136.14
3069.00,136.13
3068.00,136.13
3067.00,136.13
3066.00,136.14
3065.00,136.14
3064.00,136.14
3063.00,136.14
3062.00,136.14
3061.00,136.14
3060.00,136.14
3059.00,136.14
3058.00,136.14
3057.00,136.14
3056.00,136.14
3055.00,136.13
3054.00,136.13
3053.00,136.13
3052.00,136.13
3051.00,136.13
3050.00,136.13
3049.00,136.13
3048.00,136.13
3047.00,136.13
3046.00,136.13
3045.00,136.13
3044.00,136.13
3043.00,136.13
3042.00,136.13
3041.00,136.13
3040.00,136.13
3039.00,136.14
3038.00,136.14
3037.00,136.14
3036.00,136.14
3035.00,136.13
3034.00,136.13
3033.00,136.13
3032.00,136.13
3031.00,136.13
3030.00,136.13
3029.00,136.13
3028.00,136.13
3027.00,136.12
3026.00,136.12
3025.00,136.11
3024.00,136.11
3023.00,136.11
3022.00,136.11
3021.00,136.11
3020.00,136.11
3019.00,136.11
3018.00,136.10
3017.00,136.10
3016.00,136.10
3015.00,136.10
3014.00,136.10
3013.00,136.10
3012.00,136.10
3011.00,136.11
3010.00,136.11
3009.00,136.12
3008.00,136.12
3007.00,136.13
3006.00,136.13
3005.00,136.13
3004.00,136.13
3003.00,136.13
3002.00,136.13
3001.00,136.13
3000.00,136.13
2999.00,136.13
2998.00,136.13
2997.00,136.13
2996.00,136.13
2995.00,136.14
2994.00,136.14
2993.00,136.14
2992.00,136.14
2991.00,136.14
2990.00,136.14
2989.00,136.14
2988.00,136.14
2987.00,136.14
2986.00,136.14
2985.00,136.14
2984.00,136.14
2983.00,136.14
2982.00,136.13
2981.00,136.13
2980.00,136.13
2979.00,136.13
2978.00,136.12
2977.00,136.12
2976.00,136.12
2975.00,136.12
2974.00,136.12
2973.00,136.12
2972.00,136.12
2971.00,136.12
2970.00,136.11
2969.00,136.11
2968.00,136.11
2967.00,136.11
2966.00,136.11
2965.00,136.11
2964.00,136.12
2963.00,136.12
2962.00,136.12
2961.00,136.12
2960.00,136.13
2959.00,136.13
2958.00,136.13
2957.00,136.13
2956.00,136.13
2955.00,136.13
2954.00,136.13
2953.00,136.13
2952.00,136.13
2951.00,136.13
2950.00,136.13
2949.00,136.13
2948.00,136.13
2947.00,136.13
2946.00,136.13
2945.00,136.13
2944.00,136.13
2943.00,136.13
2942.00,136.14
2941.00,136.14
2940.00,136.14
2939.00,136.14
2938.00,136.14
2937.00,136.14
2936.00,136.14
2935.00,136.14
2934.00,136.14
2933.00,136.13
2932.00,136.13
2931.00,136.13
2930.00,136.13
2929.00,136.13
2928.00,136.13
2927.00,136.13
2926.00,136.13
2925.00,136.13
2924.00,136.13
2923.00,136.13
2922.00,136.13
2921.00,136.13
2920.00,136.13
2919.00,136.12
2918.00,136.12
2917.00,136.11
2916.00,136.11
2915.00,136.10
2914.00,136.10
2913.00,136.10
2912.00,136.10
2911.00,136.09
2910.00,136.09
2909.00,136.09
2908.00,136.09
2907.00,136.09
2906.00,136.09
2905.00,136.09
2904.00,136.09
2903.00,136.10
2902.00,136.10
2901.00,136.10
2900.00,136.11
2899.00,136.11
2898.00,136.11
2897.00,136.11
2896.00,136.12
2895.00,136.12
2894.00,136.12
2893.00,136.13
2892.00,136.13
2891.00,136.13
2890.00,136.13
2889.00,136.13
2888.00,136.13
2887.00,136.13
2886.00,136.13
2885.00,136.12
2884.00,136.12
2883.00,136.12
2882.00,136.12
2881.00,136.11
2880.00,136.11
2879.00,136.11
2878.00,136.10
2877.00,136.10
2876.00,136.09
2875.00,136.09
2874.00,136.08
2873.00,136.08
2872.00,136.08
2871.00,136.08
2870.00,136.08
2869.00,136.08
2868.00,136.07
2867.00,136.07
2866.00,136.07
2865.00,136.07
2864.00,136.06
2863.00,136.06
2862.00,136.06
2861.00,136.06
2860.00,136.06
2859.00,136.07
2858.00,136.07
2857.00,136.07
2856.00,136.08
2855.00,136.08
2854.00,136.08
2853.00,136.09
2852.00,136.09
2851.00,136.10
2850.00,136.10
2849.00,136.10
2848.00,136.10
2847.00,136.10
2846.00,136.10
2845.00,136.09
2844.00,136.09
2843.00,136.09
2842.00,136.09
2841.00,136.08
2840.00,136.08
2839.00,136.08
2838.00,136.07
2837.00,136.07
2836.00,136.07
2835.00,136.07
2834.00,136.07
2833.00,136.07
2832.00,136.07
2831.00,136.07
2830.00,136.06
2829.00,136.06
2828.00,136.06
2827.00,136.05
2826.00,136.05
2825.00,136.04
2824.00,136.04
2823.00,136.04
2822.00,136.03
2821.00,136.03
2820.00,136.02
2819.00,136.02
2818.00,136.02
2817.00,136.02
2816.00,136.02
2815.00,136.01
2814.00,136.01
2813.00,136.01
2812.00,136.01
2811.00,136.01
2810.00,136.01
2809.00,136.01
2808.00,136.01
2807.00,136.01
2806.00,136.02
2805.00,136.02
2804.00,136.02
2803.00,136.02
2802.00,136.02
2801.00,136.02
2800.00,136.02
2799.00,136.02
2798.00,136.02
2797.00,136.03
2796.00,136.03
2795.00,136.03
2794.00,136.03
2793.00,136.02
2792.00,136.02
2791.00,136.02
2790.00,136.02
2789.00,136.02
2788.00,136.01
2787.00,136.01
2786.00,136.01
2785.00,136.01
2784.00,136.00
2783.00,136.00
2782.00,135.99
2781.00,135.99
2780.00,135.98
2779.00,135.97
2778.00,135.97
2777.00,135.96
2776.00,135.95
2775.00,135.94
2774.00,135.94
2773.00,135.93
2772.00,135.93
2771.00,135.92
2770.00,135.92
2769.00,135.91
2768.00,135.91
2767.00,135.90
2766.00,135.90
2765.00,135.89
2764.00,135.89
2763.00,135.88
2762.00,135.88
2761.00,135.88
2760.00,135.88
2759.00,135.87
2758.00,135.87
2757.00,135.87
2756.00,135.87
2755.00,135.87
2754.00,135.87
2753.00,135.87
2752.00,135.88
2751.00,135.88
2750.00,135.88
2749.00,135.88
2748.00,135.88
2747.00,135.89
2746.00,135.89
2745.00,135.90
2744.00,135.90
2743.00,135.91
2742.00,135.91
2741.00,135.92
2740.00,135.92
2739.00,135.92
2738.00,135.93
2737.00,135.93
2736.00,135.93
2735.00,135.93
2734.00,135.93
2733.00,135.93
2732.00,135.93
2731.00,135.93
2730.00,135.92
2729.00,135.92
2728.00,135.91
2727.00,135.90
2726.00,135.90
2725.00,135.89
2724.00,135.88
2723.00,135.87
2722.00,135.86
2721.00,135.85
2720.00,135.84
2719.00,135.83
2718.00,135.83
2717.00,135.82
2716.00,135.81
2715.00,135.80
2714.00,135.79
2713.00,135.78
2712.00,135.77
2711.00,135.76
2710.00,135.76
2709.00,135.75
2708.00,135.74
2707.00,135.73
2706.00,135.73
2705.00,135.72
2704.00,135.72
2703.00,135.71
2702.00,135.71
2701.00,135.71
2700.00,135.71
2699.00,135.70
2698.00,135.70
2697.00,135.70
2696.00,135.70
2695.00,135.70
2694.00,135.70
2693.00,135.70
2692.00,135.70
2691.00,135.70
2690.00,135.70
2689.00,135.71
2688.00,135.71
2687.00,135.71
2686.00,135.72
2685.00,135.72
2684.00,135.73
2683.00,135.73
2682.00,135.74
2681.00,135.74
2680.00,135.74
2679.00,135.75
2678.00,135.75
2677.00,135.75
2676.00,135.75
2675.00,135.75
2674.00,135.75
2673.00,135.75
2672.00,135.75
2671.00,135.74
2670.00,135.73
2669.00,135.72
2668.00,135.71
2667.00,135.70
2666.00,135.69
2665.00,135.68
2664.00,135.67
2663.00,135.66
2662.00,135.64
2661.00,135.63
2660.00,135.61
2659.00,135.60
2658.00,135.59
2657.00,135.57
2656.00,135.56
2655.00,135.55
2654.00,135.54
2653.00,135.53
2652.00,135.53
2651.00,135.52
2650.00,135.51
2649.00,135.51
2648.00,135.50
2647.00,135.50
2646.00,135.50
2645.00,135.50
2644.00,135.49
2643.00,135.50
2642.00,135.50
2641.00,135.50
2640.00,135.50
2639.00,135.51
2638.00,135.51
2637.00,135.51
2636.00,135.52
2635.00,135.52
2634.00,135.53
2633.00,135.53
2632.00,135.54
2631.00,135.55
2630.00,135.55
2629.00,135.56
2628.00,135.56
2627.00,135.57
2626.00,135.57
2625.00,135.58
2624.00,135.58
2623.00,135.59
2622.00,135.59
2621.00,135.59
2620.00,135.59
2619.00,135.60
2618.00,135.60
2617.00,135.60
2616.00,135.60
2615.00,135.60
2614.00,135.60
2613.00,135.60
2612.00,135.60
2611.00,135.59
2610.00,135.59
2609.00,135.59
2608.00,135.59
2607.00,135.58
2606.00,135.58
2605.00,135.58
2604.00,135.57
2603.00,135.57
2602.00,135.57
2601.00,135.56
2600.00,135.56
2599.00,135.56
2598.00,135.55
2597.00,135.55
2596.00,135.55
2595.00,135.55
2594.00,135.55
2593.00,135.55
2592.00,135.55
2591.00,135.55
2590.00,135.55
2589.00,135.55
2588.00,135.56
2587.00,135.56
2586.00,135.56
2585.00,135.56
2584.00,135.56
2583.00,135.56
2582.00,135.56
2581.00,135.57
2580.00,135.57
2579.00,135.57
2578.00,135.57
2577.00,135.56
2576.00,135.56
2575.00,135.56
2574.00,135.56
2573.00,135.55
2572.00,135.55
2571.00,135.54
2570.00,135.54
2569.00,135.53
2568.00,135.52
2567.00,135.51
2566.00,135.51
2565.00,135.50
2564.00,135.49
2563.00,135.48
2562.00,135.48
2561.00,135.47
2560.00,135.46
2559.00,135.45
2558.00,135.44
2557.00,135.43
2556.00,135.43
2555.00,135.42
2554.00,135.41
2553.00,135.40
2552.00,135.39
2551.00,135.39
2550.00,135.38
2549.00,135.37
2548.00,135.36
2547.00,135.35
2546.00,135.35
2545.00,135.34
2544.00,135.34
2543.00,135.33
2542.00,135.33
2541.00,135.33
2540.00,135.33
2539.00,135.32
2538.00,135.32
2537.00,135.32
2536.00,135.32
2535.00,135.33
2534.00,135.33
2533.00,135.33
2532.00,135.33
2531.00,135.33
2530.00,135.33
2529.00,135.33
2528.00,135.33
2527.00,135.33
2526.00,135.33
2525.00,135.33
2524.00,135.32
2523.00,135.32
2522.00,135.31
2521.00,135.30
2520.00,135.29
2519.00,135.28
2518.00,135.27
2517.00,135.26
2516.00,135.25
2515.00,135.24
2514.00,135.23
2513.00,135.22
2512.00,135.20
2511.00,135.19
2510.00,135.17
2509.00,135.16
2508.00,135.15
2507.00,135.13
2506.00,135.12
2505.00,135.10
2504.00,135.09
2503.00,135.07
2502.00,135.06
2501.00,135.04
2500.00,135.03
2499.00,135.02
2498.00,135.01
2497.00,135.00
2496.00,134.99
2495.00,134.98
2494.00,134.97
2493.00,134.96
2492.00,134.96
2491.00,134.95
2490.00,134.95
2489.00,134.95
2488.00,134.95
2487.00,134.95
2486.00,134.94
2485.00,134.94
2484.00,134.94
2483.00,134.94
2482.00,134.93
2481.00,134.93
2480.00,134.93
2479.00,134.92
2478.00,134.92
2477.00,134.91
2476.00,134.91
2475.00,134.91
2474.00,134.90
2473.00,134.90
2472.00,134.90
2471.00,134.90
2470.00,134.89
2469.00,134.89
2468.00,134.89
2467.00,134.89
2466.00,134.89
2465.00,134.89
2464.00,134.89
2463.00,134.89
2462.00,134.88
2461.00,134.88
2460.00,134.88
2459.00,134.88
2458.00,134.88
2457.00,134.87
2456.00,134.87
2455.00,134.87
2454.00,134.87
2453.00,134.87
2452.00,134.87
2451.00,134.88
2450.00,134.88
2449.00,134.88
2448.00,134.89
2447.00,134.89
2446.00,134.90
2445.00,134.90
2444.00,134.91
2443.00,134.92
2442.00,134.93
2441.00,134.94
2440.00,134.95
2439.00,134.96
2438.00,134.97
2437.00,134.98
2436.00,134.99
2435.00,135.01
2434.00,135.02
2433.00,135.03
2432.00,135.04
2431.00,135.06
2430.00,135.07
2429.00,135.09
2428.00,135.10
2427.00,135.12
2426.00,135.14
2425.00,135.15
2424.00,135.17
2423.00,135.19
2422.00,135.20
2421.00,135.22
2420.00,135.23
2419.00,135.24
2418.00,135.25
2417.00,135.26
2416.00,135.26
2415.00,135.27
2414.00,135.27
2413.00,135.27
2412.00,135.27
2411.00,135.27
2410.00,135.27
2409.00,135.26
2408.00,135.25
2407.00,135.24
2406.00,135.23
2405.00,135.22
2404.00,135.21
2403.00,135.20
2402.00,135.18
2401.00,135.17
2400.00,135.16
2399.00,135.15
2398.00,135.13
2397.00,135.12
2396.00,135.11
2395.00,135.10
2394.00,135.09
2393.00,135.08
2392.00,135.08
2391.00,135.07
2390.00,135.06
2389.00,135.06
2388.00,135.05
2387.00,135.05
2386.00,135.05
2385.00,135.05
2384.00,135.04
2383.00,135.04
2382.00,135.04
2381.00,135.04
2380.00,135.04
2379.00,135.03
2378.00,135.03
2377.00,135.03
2376.00,135.02
2375.00,135.02
2374.00,135.02
2373.00,135.01
2372.00,135.01
2371.00,135.00
2370.00,134.99
2369.00,134.99
2368.00,134.98
2367.00,134.98
2366.00,134.98
2365.00,134.98
2364.00,134.98
2363.00,134.98
2362.00,134.97
2361.00,134.97
2360.00,134.97
2359.00,134.97
2358.00,134.97
2357.00,134.97
2356.00,134.98
2355.00,134.98
2354.00,134.98
2353.00,134.98
2352.00,134.96
2351.00,134.94
2350.00,134.94
2349.00,134.96
2348.00,134.98
2347.00,134.99
2346.00,134.96
2345.00,134.92
2344.00,134.88
2343.00,134.88
2342.00,134.88
2341.00,134.89
2340.00,134.90
2339.00,134.90
2338.00,134.91
2337.00,134.92
2336.00,134.93
2335.00,134.93
2334.00,134.93
2333.00,134.94
2332.00,134.95
2331.00,134.94
2330.00,134.93
2329.00,134.92
2328.00,134.91
2327.00,134.90
2326.00,134.89
2325.00,134.87
2324.00,134.85
2323.00,134.82
2322.00,134.80
2321.00,134.78
2320.00,134.77
2319.00,134.76
2318.00,134.75
2317.00,134.74
2316.00,134.74
2315.00,134.74
2314.00,134.73
2313.00,134.73
2312.00,134.73
2311.00,134.72
2310.00,134.72
2309.00,134.72
2308.00,134.72
2307.00,134.73
2306.00,134.73
2305.00,134.73
2304.00,134.73
2303.00,134.73
2302.00,134.74
2301.00,134.73
2300.00,134.73
2299.00,134.73
2298.00,134.73
2297.00,134.73
2296.00,134.74
2295.00,134.74
2294.00,134.74
2293.00,134.74
2292.00,134.74
2291.00,134.74
2290.00,134.74
2289.00,134.74
2288.00,134.74
2287.00,134.74
2286.00,134.74
2285.00,134.74
2284.00,134.74
2283.00,134.74
2282.00,134.74
2281.00,134.74
2280.00,134.74
2279.00,134.74
2278.00,134.75
2277.00,134.75
2276.00,134.75
2275.00,134.76
2274.00,134.76
2273.00,134.76
2272.00,134.77
2271.00,134.77
2270.00,134.78
2269.00,134.78
2268.00,134.79
2267.00,134.79
2266.00,134.79
2265.00,134.80
2264.00,134.80
2263.00,134.80
2262.00,134.80
2261.00,134.81
2260.00,134.81
2259.00,134.81
2258.00,134.81
2257.00,134.81
2256.00,134.81
2255.00,134.81
2254.00,134.81
2253.00,134.81
2252.00,134.81
2251.00,134.80
2250.00,134.80
2249.00,134.79
2248.00,134.79
2247.00,134.78
2246.00,134.77
2245.00,134.76
2244.00,134.76
2243.00,134.75
2242.00,134.73
2241.00,134.72
2240.00,134.71
2239.00,134.69
2238.00,134.68
2237.00,134.66
2236.00,134.65
2235.00,134.63
2234.00,134.62
2233.00,134.61
2232.00,134.59
2231.00,134.58
2230.00,134.57
2229.00,134.55
2228.00,134.54
2227.00,134.53
2226.00,134.52
2225.00,134.51
2224.00,134.50
2223.00,134.49
2222.00,134.49
2221.00,134.48
2220.00,134.48
2219.00,134.48
2218.00,134.48
2217.00,134.49
2216.00,134.49
2215.00,134.49
2214.00,134.50
2213.00,134.50
2212.00,134.50
2211.00,134.50
2210.00,134.50
2209.00,134.50
2208.00,134.50
2207.00,134.49
2206.00,134.49
2205.00,134.48
2204.00,134.47
2203.00,134.47
2202.00,134.46
2201.00,134.45
2200.00,134.44
2199.00,134.42
2198.00,134.41
2197.00,134.40
2196.00,134.39
2195.00,134.37
2194.00,134.36
2193.00,134.35
2192.00,134.34
2191.00,134.33
2190.00,134.31
2189.00,134.30
2188.00,134.29
2187.00,134.28
2186.00,134.27
2185.00,134.26
2184.00,134.25
2183.00,134.24
2182.00,134.23
2181.00,134.22
2180.00,134.22
2179.00,134.21
2178.00,134.21
2177.00,134.20
2176.00,134.20
2175.00,134.20
2174.00,134.21
2173.00,134.21
2172.00,134.22
2171.00,134.22
2170.00,134.23
2169.00,134.24
2168.00,134.25
2167.00,134.27
2166.00,134.28
2165.00,134.29
2164.00,134.30
2163.00,134.32
2162.00,134.33
2161.00,134.34
2160.00,134.35
2159.00,134.36
2158.00,134.37
2157.00,134.38
2156.00,134.39
2155.00,134.39
2154.00,134.39
2153.00,134.39
2152.00,134.39
2151.00,134.39
2150.00,134.39
2149.00,134.39
2148.00,134.38
2147.00,134.37
2146.00,134.37
2145.00,134.36
2144.00,134.35
2143.00,134.34
2142.00,134.33
2141.00,134.31
2140.00,134.30
2139.00,134.29
2138.00,134.27
2137.00,134.25
2136.00,134.24
2135.00,134.22
2134.00,134.21
2133.00,134.20
2132.00,134.18
2131.00,134.18
2130.00,134.17
2129.00,134.16
2128.00,134.15
2127.00,134.15
2126.00,134.15
2125.00,134.14
2124.00,134.14
2123.00,134.14
2122.00,134.14
2121.00,134.14
2120.00,134.14
2119.00,134.15
2118.00,134.15
2117.00,134.15
2116.00,134.16
2115.00,134.16
2114.00,134.16
2113.00,134.17
2112.00,134.17
2111.00,134.18
2110.00,134.18
2109.00,134.18
2108.00,134.19
2107.00,134.19
2106.00,134.20
2105.00,134.20
2104.00,134.21
2103.00,134.21
2102.00,134.21
2101.00,134.22
2100.00,134.22
2099.00,134.23
2098.00,134.23
2097.00,134.23
2096.00,134.24
2095.00,134.24
2094.00,134.24
2093.00,134.24
2092.00,134.24
2091.00,134.25
2090.00,134.25
2089.00,134.24
2088.00,134.24
2087.00,134.24
2086.00,134.24
2085.00,134.24
2084.00,134.24
2083.00,134.24
2082.00,134.23
2081.00,134.23
2080.00,134.23
2079.00,134.22
2078.00,134.22
2077.00,134.21
2076.00,134.21
2075.00,134.21
2074.00,134.20
2073.00,134.20
2072.00,134.19
2071.00,134.18
2070.00,134.18
2069.00,134.17
2068.00,134.17
2067.00,134.17
2066.00,134.16
2065.00,134.16
2064.00,134.15
2063.00,134.15
2062.00,134.14
2061.00,134.14
2060.00,134.14
2059.00,134.13
2058.00,134.13
2057.00,134.13
2056.00,134.13
2055.00,134.13
2054.00,134.14
2053.00,134.14
2052.00,134.14
2051.00,134.14
2050.00,134.15
2049.00,134.15
2048.00,134.16
2047.00,134.16
2046.00,134.17
2045.00,134.18
2044.00,134.19
2043.00,134.20
2042.00,134.21
2041.00,134.22
2040.00,134.23
2039.00,134.24
2038.00,134.25
2037.00,134.25
2036.00,134.26
2035.00,134.26
2034.00,134.26
2033.00,134.26
2032.00,134.26
2031.00,134.26
2030.00,134.25
2029.00,134.24
2028.00,134.23
2027.00,134.23
2026.00,134.22
2025.00,134.20
2024.00,134.19
2023.00,134.18
2022.00,134.17
2021.00,134.16
2020.00,134.15
2019.00,134.14
2018.00,134.13
2017.00,134.12
2016.00,134.12
2015.00,134.11
2014.00,134.11
2013.00,134.11
2012.00,134.12
2011.00,134.12
2010.00,134.12
2009.00,134.13
2008.00,134.14
2007.00,134.15
2006.00,134.17
2005.00,134.18
2004.00,134.20
2003.00,134.22
2002.00,134.23
2001.00,134.25
2000.00,134.27
1999.00,134.29
1998.00,134.31
1997.00,134.34
1996.00,134.36
1995.00,134.39
1994.00,134.41
1993.00,134.43
1992.00,134.46
1991.00,134.48
1990.00,134.50
1989.00,134.53
1988.00,134.55
1987.00,134.58
1986.00,134.60
1985.00,134.62
1984.00,134.64
1983.00,134.65
1982.00,134.67
1981.00,134.68
1980.00,134.69
1979.00,134.69
1978.00,134.70
1977.00,134.70
1976.00,134.69
1975.00,134.68
1974.00,134.67
1973.00,134.66
1972.00,134.64
1971.00,134.63
1970.00,134.60
1969.00,134.58
1968.00,134.56
1967.00,134.55
1966.00,134.53
1965.00,134.52
1964.00,134.52
1963.00,134.53
1962.00,134.54
1961.00,134.56
1960.00,134.58
1959.00,134.60
1958.00,134.64
1957.00,134.68
1956.00,134.73
1955.00,134.77
1954.00,134.81
1953.00,134.85
1952.00,134.88
1951.00,134.92
1950.00,134.95
1949.00,134.97
1948.00,134.99
1947.00,135.01
1946.00,135.01
1945.00,135.02
1944.00,135.01
1943.00,135.00
1942.00,134.98
1941.00,134.95
1940.00,134.93
1939.00,134.90
1938.00,134.86
1937.00,134.83
1936.00,134.79
1935.00,134.75
1934.00,134.71
1933.00,134.68
1932.00,134.65
1931.00,134.62
1930.00,134.59
1929.00,134.57
1928.00,134.56
1927.00,134.55
1926.00,134.54
1925.00,134.53
1924.00,134.52
1923.00,134.52
1922.00,134.52
1921.00,134.51
1920.00,134.51
1919.00,134.51
1918.00,134.51
1917.00,134.50
1916.00,134.50
1915.00,134.49
1914.00,134.48
1913.00,134.47
1912.00,134.46
1911.00,134.45
1910.00,134.43
1909.00,134.42
1908.00,134.41
1907.00,134.40
1906.00,134.39
1905.00,134.39
1904.00,134.38
1903.00,134.38
1902.00,134.38
1901.00,134.38
1900.00,134.39
1899.00,134.39
1898.00,134.40
1897.00,134.41
1896.00,134.42
1895.00,134.43
1894.00,134.44
1893.00,134.45
1892.00,134.46
1891.00,134.47
1890.00,134.48
1889.00,134.50
1888.00,134.51
1887.00,134.53
1886.00,134.54
1885.00,134.56
1884.00,134.57
1883.00,134.59
1882.00,134.61
1881.00,134.62
1880.00,134.64
1879.00,134.66
1878.00,134.67
1877.00,134.68
1876.00,134.69
1875.00,134.70
1874.00,134.71
1873.00,134.71
1872.00,134.71
1871.00,134.71
1870.00,134.71
1869.00,134.70
1868.00,134.69
1867.00,134.67
1866.00,134.66
1865.00,134.66
1864.00,134.65
1863.00,134.65
1862.00,134.65
1861.00,134.65
1860.00,134.66
1859.00,134.67
1858.00,134.68
1857.00,134.70
1856.00,134.73
1855.00,134.76
1854.00,134.79
1853.00,134.82
1852.00,134.86
1851.00,134.89
1850.00,134.93
1849.00,134.96
1848.00,135.00
1847.00,135.02
1846.00,135.05
1845.00,135.08
1844.00,135.11
1843.00,135.13
1842.00,135.15
1841.00,135.16
1840.00,135.17
1839.00,135.17
1838.00,135.18
1837.00,135.17
1836.00,135.17
1835.00,135.17
1834.00,135.17
1833.00,135.16
1832.00,135.15
1831.00,135.14
1830.00,135.14
1829.00,135.14
1828.00,135.13
1827.00,135.13
1826.00,135.14
1825.00,135.14
1824.00,135.15
1823.00,135.16
1822.00,135.17
1821.00,135.18
1820.00,135.19
1819.00,135.20
1818.00,135.21
1817.00,135.22
1816.00,135.23
1815.00,135.24
1814.00,135.25
1813.00,135.25
1812.00,135.26
1811.00,135.27
1810.00,135.28
1809.00,135.29
1808.00,135.30
1807.00,135.31
1806.00,135.32
1805.00,135.34
1804.00,135.35
1803.00,135.36
1802.00,135.38
1801.00,135.39
1800.00,135.41
1799.00,135.43
1798.00,135.45
1797.00,135.47
1796.00,135.48
1795.00,135.50
1794.00,135.52
1793.00,135.54
1792.00,135.56
1791.00,135.58
1790.00,135.59
1789.00,135.61
1788.00,135.63
1787.00,135.64
1786.00,135.66
1785.00,135.67
1784.00,135.68
1783.00,135.69
1782.00,135.70
1781.00,135.71
1780.00,135.71
1779.00,135.72
1778.00,135.72
1777.00,135.73
1776.00,135.73
1775.00,135.73
1774.00,135.73
1773.00,135.74
1772.00,135.73
1771.00,135.72
1770.00,135.71
1769.00,135.71
1768.00,135.70
1767.00,135.70
1766.00,135.70
1765.00,135.70
1764.00,135.69
1763.00,135.68
1762.00,135.67
1761.00,135.66
1760.00,135.66
1759.00,135.66
1758.00,135.66
1757.00,135.66
1756.00,135.65
1755.00,135.65
1754.00,135.65
1753.00,135.66
1752.00,135.66
1751.00,135.67
1750.00,135.66
1749.00,135.66
1748.00,135.66
1747.00,135.66
1746.00,135.66
1745.00,135.66
1744.00,135.66
1743.00,135.67
1742.00,135.67
1741.00,135.67
1740.00,135.68
1739.00,135.69
1738.00,135.70
1737.00,135.70
1736.00,135.71
1735.00,135.71
1734.00,135.72
1733.00,135.73
1732.00,135.73
1731.00,135.73
1730.00,135.73
1729.00,135.73
1728.00,135.73
1727.00,135.73
1726.00,135.73
1725.00,135.73
1724.00,135.73
1723.00,135.74
1722.00,135.74
1721.00,135.74
1720.00,135.73
1719.00,135.73
1718.00,135.72
1717.00,135.72
1716.00,135.71
1715.00,135.71
1714.00,135.71
1713.00,135.70
1712.00,135.69
1711.00,135.69
1710.00,135.68
1709.00,135.68
1708.00,135.67
1707.00,135.67
1706.00,135.66
1705.00,135.66
1704.00,135.65
1703.00,135.65
1702.00,135.64
1701.00,135.64
1700.00,135.65
1699.00,135.64
1698.00,135.63
1697.00,135.63
1696.00,135.63
1695.00,135.64
1694.00,135.64
1693.00,135.64
1692.00,135.64
1691.00,135.64
1690.00,135.64
1689.00,135.64
1688.00,135.64
1687.00,135.64
1686.00,135.64
1685.00,135.65
1684.00,135.67
1683.00,135.67
1682.00,135.66
1681.00,135.67
1680.00,135.68
1679.00,135.68
1678.00,135.68
1677.00,135.68
1676.00,135.68
1675.00,135.68
1674.00,135.68
1673.00,135.68
1672.00,135.68
1671.00,135.68
1670.00,135.67
1669.00,135.67
1668.00,135.66
1667.00,135.65
1666.00,135.65
1665.00,135.64
1664.00,135.63
1663.00,135.62
1662.00,135.60
1661.00,135.59
1660.00,135.58
1659.00,135.57
1658.00,135.57
1657.00,135.56
1656.00,135.54
1655.00,135.51
1654.00,135.49
1653.00,135.48
1652.00,135.49
1651.00,135.50
1650.00,135.51
1649.00,135.51
1648.00,135.50
1647.00,135.49
1646.00,135.48
1645.00,135.48
1644.00,135.49
1643.00,135.50
1642.00,135.52
1641.00,135.53
1640.00,135.54
1639.00,135.55
1638.00,135.56
1637.00,135.56
1636.00,135.55
1635.00,135.55
1634.00,135.55
1633.00,135.55
1632.00,135.55
1631.00,135.55
1630.00,135.55
1629.00,135.54
1628.00,135.54
1627.00,135.54
1626.00,135.54
1625.00,135.54
1624.00,135.54
1623.00,135.54
1622.00,135.54
1621.00,135.54
1620.00,135.54
1619.00,135.54
1618.00,135.54
1617.00,135.55
1616.00,135.55
1615.00,135.56
1614.00,135.56
1613.00,135.56
1612.00,135.57
1611.00,135.57
1610.00,135.58
1609.00,135.59
1608.00,135.60
1607.00,135.61
1606.00,135.62
1605.00,135.62
1604.00,135.62
1603.00,135.61
1602.00,135.61
1601.00,135.60
1600.00,135.59
1599.00,135.59
1598.00,135.58
1597.00,135.58
1596.00,135.57
1595.00,135.57
1594.00,135.56
1593.00,135.56
1592.00,135.55
1591.00,135.55
1590.00,135.55
1589.00,135.56
1588.00,135.56
1587.00,135.56
1586.00,135.57
1585.00,135.57
1584.00,135.58
1583.00,135.58
1582.00,135.59
1581.00,135.59
1580.00,135.60
1579.00,135.60
1578.00,135.59
1577.00,135.60
1576.00,135.61
1575.00,135.62
1574.00,135.63
1573.00,135.63
1572.00,135.63
1571.00,135.62
1570.00,135.62
1569.00,135.61
1568.00,135.61
1567.00,135.60
1566.00,135.60
1565.00,135.60
1564.00,135.59
1563.00,135.58
1562.00,135.57
1561.00,135.57
1560.00,135.57
1559.00,135.55
1558.00,135.53
1557.00,135.51
1556.00,135.51
1555.00,135.51
1554.00,135.51
1553.00,135.51
1552.00,135.50
1551.00,135.50
1550.00,135.49
1549.00,135.49
1548.00,135.49
1547.00,135.49
1546.00,135.50
1545.00,135.52
1544.00,135.52
1543.00,135.52
1542.00,135.52
1541.00,135.52
1540.00,135.52
1539.00,135.52
1538.00,135.52
1537.00,135.51
1536.00,135.50
1535.00,135.48
1534.00,135.46
1533.00,135.45
1532.00,135.44
1531.00,135.44
1530.00,135.44
1529.00,135.45
1528.00,135.45
1527.00,135.45
1526.00,135.45
1525.00,135.46
1524.00,135.45
1523.00,135.45
1522.00,135.46
1521.00,135.47
1520.00,135.48
1519.00,135.49
1518.00,135.50
1517.00,135.50
1516.00,135.50
1515.00,135.50
1514.00,135.51
1513.00,135.52
1512.00,135.54
1511.00,135.55
1510.00,135.56
1509.00,135.56
1508.00,135.56
1507.00,135.56
1506.00,135.56
1505.00,135.57
1504.00,135.57
1503.00,135.58
1502.00,135.57
1501.00,135.56
1500.00,135.55
1499.00,135.55
1498.00,135.54
1497.00,135.54
1496.00,135.54
1495.00,135.54
1494.00,135.54
1493.00,135.54
1492.00,135.54
1491.00,135.54
1490.00,135.53
1489.00,135.52
1488.00,135.52
1487.00,135.52
1486.00,135.52
1485.00,135.52
1484.00,135.52
1483.00,135.53
1482.00,135.53
1481.00,135.53
1480.00,135.53
1479.00,135.53
1478.00,135.54
1477.00,135.55
1476.00,135.55
1475.00,135.56
1474.00,135.57
1473.00,135.57
1472.00,135.58
1471.00,135.59
1470.00,135.59
1469.00,135.60
1468.00,135.61
1467.00,135.61
1466.00,135.61
1465.00,135.61
1464.00,135.61
1463.00,135.62
1462.00,135.62
1461.00,135.63
1460.00,135.63
1459.00,135.63
1458.00,135.62
1457.00,135.62
1456.00,135.62
1455.00,135.62
1454.00,135.62
1453.00,135.62
1452.00,135.61
1451.00,135.60
1450.00,135.60
1449.00,135.59
1448.00,135.58
1447.00,135.57
1446.00,135.56
1445.00,135.56
1444.00,135.55
1443.00,135.54
1442.00,135.54
1441.00,135.54
1440.00,135.53
1439.00,135.53
1438.00,135.52
1437.00,135.51
1436.00,135.51
1435.00,135.50
1434.00,135.51
1433.00,135.51
1432.00,135.51
1431.00,135.50
1430.00,135.50
1429.00,135.50
1428.00,135.51
1427.00,135.51
1426.00,135.51
1425.00,135.52
1424.00,135.52
1423.00,135.53
1422.00,135.53
1421.00,135.54
1420.00,135.54
1419.00,135.54
1418.00,135.55
1417.00,135.55
1416.00,135.56
1415.00,135.57
1414.00,135.57
1413.00,135.58
1412.00,135.58
1411.00,135.59
1410.00,135.59
1409.00,135.59
1408.00,135.59
1407.00,135.59
1406.00,135.59
1405.00,135.59
1404.00,135.59
1403.00,135.58
1402.00,135.58
1401.00,135.58
1400.00,135.58
1399.00,135.57
1398.00,135.57
1397.00,135.56
1396.00,135.56
1395.00,135.56
1394.00,135.55
1393.00,135.55
1392.00,135.54
1391.00,135.54
1390.00,135.53
1389.00,135.53
1388.00,135.53
1387.00,135.52
1386.00,135.52
1385.00,135.52
1384.00,135.51
1383.00,135.51
1382.00,135.50
1381.00,135.50
1380.00,135.50
1379.00,135.50
1378.00,135.51
1377.00,135.51
1376.00,135.51
1375.00,135.51
1374.00,135.51
1373.00,135.51
1372.00,135.51
1371.00,135.51
1370.00,135.52
1369.00,135.53
1368.00,135.53
1367.00,135.54
1366.00,135.54
1365.00,135.54
1364.00,135.55
1363.00,135.55
1362.00,135.55
1361.00,135.56
1360.00,135.57
1359.00,135.57
1358.00,135.58
1357.00,135.58
1356.00,135.58
1355.00,135.58
1354.00,135.58
1353.00,135.59
1352.00,135.59
1351.00,135.59
1350.00,135.59
1349.00,135.58
1348.00,135.58
1347.00,135.57
1346.00,135.57
1345.00,135.57
1344.00,135.57
1343.00,135.56
1342.00,135.56
1341.00,135.56
1340.00,135.55
1339.00,135.54
1338.00,135.54
1337.00,135.53
1336.00,135.53
1335.00,135.52
1334.00,135.52
1333.00,135.52
1332.00,135.51
1331.00,135.51
1330.00,135.50
1329.00,135.50
1328.00,135.50
1327.00,135.50
1326.00,135.50
1325.00,135.50
1324.00,135.50
1323.00,135.51
1322.00,135.51
1321.00,135.51
1320.00,135.51
1319.00,135.52
1318.00,135.52
1317.00,135.53
1316.00,135.54
1315.00,135.54
1314.00,135.55
1313.00,135.55
1312.00,135.55
1311.00,135.56
1310.00,135.56
1309.00,135.57
1308.00,135.58
1307.00,135.58
1306.00,135.59
1305.00,135.59
1304.00,135.59
1303.00,135.59
1302.00,135.59
1301.00,135.59
1300.00,135.59
1299.00,135.60
1298.00,135.60
1297.00,135.59
1296.00,135.59
1295.00,135.58
1294.00,135.58
1293.00,135.57
1292.00,135.57
1291.00,135.56
1290.00,135.56
1289.00,135.56
1288.00,135.55
1287.00,135.54
1286.00,135.53
1285.00,135.53
1284.00,135.53
1283.00,135.52
1282.00,135.52
1281.00,135.52
1280.00,135.51
1279.00,135.51
1278.00,135.50
1277.00,135.50
1276.00,135.50
1275.00,135.50
1274.00,135.50
1273.00,135.50
1272.00,135.50
1271.00,135.50
1270.00,135.51
1269.00,135.51
1268.00,135.52
1267.00,135.52
1266.00,135.53
1265.00,135.55
1264.00,135.56
1263.00,135.57
1262.00,135.59
1261.00,135.60
1260.00,135.60
1259.00,135.61
1258.00,135.61
1257.00,135.61
1256.00,135.60
1255.00,135.60
1254.00,135.59
1253.00,135.59
1252.00,135.58
1251.00,135.58
1250.00,135.57
1249.00,135.57
1248.00,135.57
1247.00,135.56
1246.00,135.56
1245.00,135.56
1244.00,135.56
1243.00,135.55
1242.00,135.55
1241.00,135.55
1240.00,135.54
1239.00,135.54
1238.00,135.53
1237.00,135.53
1236.00,135.52
1235.00,135.52
1234.00,135.51
1233.00,135.50
1232.00,135.50
1231.00,135.49
1230.00,135.49
1229.00,135.48
1228.00,135.48
1227.00,135.47
1226.00,135.47
1225.00,135.47
1224.00,135.46
1223.00,135.46
1222.00,135.46
1221.00,135.46
1220.00,135.46
1219.00,135.46
1218.00,135.46
1217.00,135.46
1216.00,135.47
1215.00,135.47
1214.00,135.47
1213.00,135.48
1212.00,135.48
1211.00,135.49
1210.00,135.49
1209.00,135.50
1208.00,135.50
1207.00,135.51
1206.00,135.51
1205.00,135.52
1204.00,135.52
1203.00,135.53
1202.00,135.53
1201.00,135.54
1200.00,135.54
1199.00,135.54
1198.00,135.54
1197.00,135.54
1196.00,135.55
1195.00,135.55
1194.00,135.55
1193.00,135.55
1192.00,135.55
1191.00,135.55
1190.00,135.54
1189.00,135.54
1188.00,135.54
1187.00,135.54
1186.00,135.53
1185.00,135.53
1184.00,135.53
1183.00,135.52
1182.00,135.51
1181.00,135.51
1180.00,135.50
1179.00,135.50
1178.00,135.49
1177.00,135.49
1176.00,135.49
1175.00,135.48
1174.00,135.47
1173.00,135.47
1172.00,135.46
1171.00,135.45
1170.00,135.45
1169.00,135.46
1168.00,135.46
1167.00,135.46
1166.00,135.46
1165.00,135.45
1164.00,135.45
1163.00,135.45
1162.00,135.45
1161.00,135.46
1160.00,135.46
1159.00,135.47
1158.00,135.47
1157.00,135.48
1156.00,135.48
1155.00,135.48
1154.00,135.48
1153.00,135.49
1152.00,135.49
1151.00,135.50
1150.00,135.51
1149.00,135.51
1148.00,135.52
1147.00,135.52
1146.00,135.52
1145.00,135.52
1144.00,135.53
1143.00,135.53
1142.00,135.53
1141.00,135.54
1140.00,135.54
1139.00,135.54
1138.00,135.53
1137.00,135.53
1136.00,135.53
1135.00,135.53
1134.00,135.53
1133.00,135.53
1132.00,135.52
1131.00,135.52
1130.00,135.51
1129.00,135.50
1128.00,135.50
1127.00,135.50
1126.00,135.50
1125.00,135.50
1124.00,135.49
1123.00,135.49
1122.00,135.49
1121.00,135.49
1120.00,135.48
1119.00,135.48
1118.00,135.49
1117.00,135.49
1116.00,135.49
1115.00,135.49
1114.00,135.49
1113.00,135.49
1112.00,135.49
1111.00,135.49
1110.00,135.49
1109.00,135.50
1108.00,135.50
1107.00,135.51
1106.00,135.51
1105.00,135.52
1104.00,135.52
1103.00,135.52
1102.00,135.53
1101.00,135.53
1100.00,135.54
1099.00,135.54
1098.00,135.55
1097.00,135.55
1096.00,135.55
1095.00,135.55
1094.00,135.56
1093.00,135.56
1092.00,135.56
1091.00,135.56
1090.00,135.56
1089.00,135.56
1088.00,135.55
1087.00,135.55
1086.00,135.54
1085.00,135.54
1084.00,135.53
1083.00,135.53
1082.00,135.52
1081.00,135.52
1080.00,135.51
1079.00,135.50
1078.00,135.49
1077.00,135.48
1076.00,135.47
1075.00,135.46
1074.00,135.45
1073.00,135.45
1072.00,135.44
1071.00,135.43
1070.00,135.43
1069.00,135.42
1068.00,135.41
1067.00,135.41
1066.00,135.40
1065.00,135.40
1064.00,135.40
1063.00,135.40
1062.00,135.39
1061.00,135.39
1060.00,135.39
1059.00,135.38
1058.00,135.39
1057.00,135.39
1056.00,135.39
1055.00,135.39
1054.00,135.40
1053.00,135.40
1052.00,135.40
1051.00,135.41
1050.00,135.41
1049.00,135.42
1048.00,135.42
1047.00,135.43
1046.00,135.45
1045.00,135.46
1044.00,135.47
1043.00,135.47
1042.00,135.47
1041.00,135.47
1040.00,135.48
1039.00,135.49
1038.00,135.50
1037.00,135.50
1036.00,135.51
1035.00,135.51
1034.00,135.51
1033.00,135.51
1032.00,135.51
1031.00,135.51
1030.00,135.52
1029.00,135.53
1028.00,135.53
1027.00,135.53
1026.00,135.53
1025.00,135.53
1024.00,135.53
1023.00,135.53
1022.00,135.53
1021.00,135.53
1020.00,135.53
1019.00,135.54
1018.00,135.54
1017.00,135.54
1016.00,135.53
1015.00,135.52
1014.00,135.52
1013.00,135.51
1012.00,135.51
1011.00,135.51
1010.00,135.51
1009.00,135.51
1008.00,135.51
1007.00,135.51
1006.00,135.50
1005.00,135.50
1004.00,135.50
1003.00,135.51
1002.00,135.51
1001.00,135.52
1000.00,135.52
999.00,135.52
998.00,135.53
997.00,135.53
996.00,135.54
995.00,135.55
994.00,135.55
993.00,135.56
992.00,135.57
991.00,135.58
990.00,135.59
989.00,135.59
988.00,135.59
987.00,135.59
986.00,135.60
985.00,135.60
984.00,135.61
983.00,135.62
982.00,135.62
981.00,135.62
980.00,135.61
979.00,135.61
978.00,135.61
977.00,135.61
976.00,135.62
975.00,135.62
974.00,135.62
973.00,135.62
972.00,135.62
971.00,135.61
970.00,135.61
969.00,135.60
968.00,135.60
967.00,135.60
966.00,135.60
965.00,135.60
964.00,135.60
963.00,135.60
962.00,135.60
961.00,135.59
960.00,135.59
959.00,135.59
958.00,135.60
957.00,135.60
956.00,135.61
955.00,135.61
954.00,135.61
953.00,135.61
952.00,135.61
951.00,135.62
950.00,135.62
949.00,135.64
948.00,135.65
947.00,135.65
946.00,135.66
945.00,135.66
944.00,135.66
943.00,135.67
942.00,135.67
941.00,135.68
940.00,135.69
939.00,135.70
938.00,135.70
937.00,135.71
936.00,135.72
935.00,135.72
934.00,135.72
933.00,135.73
932.00,135.73
931.00,135.74
930.00,135.74
929.00,135.75
928.00,135.75
927.00,135.75
926.00,135.74
925.00,135.74
924.00,135.74
923.00,135.75
922.00,135.75
921.00,135.75
920.00,135.75
919.00,135.75
918.00,135.74
917.00,135.74
916.00,135.74
915.00,135.74
914.00,135.74
913.00,135.74
912.00,135.74
911.00,135.74
910.00,135.74
909.00,135.73
908.00,135.74
907.00,135.74
906.00,135.74
905.00,135.75
904.00,135.75
903.00,135.75
902.00,135.76
901.00,135.76
900.00,135.77
899.00,135.77
898.00,135.78
897.00,135.79
896.00,135.79
895.00,135.80
894.00,135.81
893.00,135.82
892.00,135.82
891.00,135.83
890.00,135.83
889.00,135.84
888.00,135.86
887.00,135.87
886.00,135.88
885.00,135.89
884.00,135.90
883.00,135.90
882.00,135.90
881.00,135.91
880.00,135.92
879.00,135.93
878.00,135.93
877.00,135.93
876.00,135.93
875.00,135.94
874.00,135.94
873.00,135.94
872.00,135.95
871.00,135.95
870.00,135.95
869.00,135.95
868.00,135.95
867.00,135.95
866.00,135.94
865.00,135.94
864.00,135.93
863.00,135.93
862.00,135.93
861.00,135.93
860.00,135.93
859.00,135.93
858.00,135.93
857.00,135.93
856.00,135.92
855.00,135.92
854.00,135.93
853.00,135.93
852.00,135.94
851.00,135.94
850.00,135.94
849.00,135.94
848.00,135.95
847.00,135.95
846.00,135.95
845.00,135.96
844.00,135.96
843.00,135.97
842.00,135.97
841.00,135.98
840.00,135.99
839.00,135.99
838.00,136.00
837.00,136.01
836.00,136.01
835.00,136.02
834.00,136.03
833.00,136.03
832.00,136.04
831.00,136.05
830.00,136.04
829.00,136.04
828.00,136.05
827.00,136.06
826.00,136.07
825.00,136.07
824.00,136.08
823.00,136.08
822.00,136.08
821.00,136.08
820.00,136.08
819.00,136.09
818.00,136.09
817.00,136.09
816.00,136.08
815.00,136.08
814.00,136.07
813.00,136.07
812.00,136.07
811.00,136.08
810.00,136.08
809.00,136.08
808.00,136.08
807.00,136.08
806.00,136.09
805.00,136.09
804.00,136.10
803.00,136.10
802.00,136.10
801.00,136.10
800.00,136.11
799.00,136.11
798.00,136.12
797.00,136.12
796.00,136.12
795.00,136.12
794.00,136.11
793.00,136.11
792.00,136.11
791.00,136.11
790.00,136.11
789.00,136.10
788.00,136.10
787.00,136.09
786.00,136.09
785.00,136.09
784.00,136.09
783.00,136.09
782.00,136.09
781.00,136.09
780.00,136.09
779.00,136.10
778.00,136.10
777.00,136.10
776.00,136.10
775.00,136.10
774.00,136.10
773.00,136.10
772.00,136.10
771.00,136.10
770.00,136.10
769.00,136.09
768.00,136.09
767.00,136.09
766.00,136.09
765.00,136.09
764.00,136.09
763.00,136.08
762.00,136.08
761.00,136.07
760.00,136.06
759.00,136.06
758.00,136.06
757.00,136.06
756.00,136.06
755.00,136.05
754.00,136.04
753.00,136.04
752.00,136.04
751.00,136.03
750.00,136.03
749.00,136.03
748.00,136.03
747.00,136.03
746.00,136.03
745.00,136.03
744.00,136.04
743.00,136.04
742.00,136.04
741.00,136.04
740.00,136.04
739.00,136.04
738.00,136.05
737.00,136.06
736.00,136.07
735.00,136.07
734.00,136.07
733.00,136.07
732.00,136.08
731.00,136.09
730.00,136.09
729.00,136.10
728.00,136.10
727.00,136.10
726.00,136.10
725.00,136.10
724.00,136.11
723.00,136.11
722.00,136.11
721.00,136.11
720.00,136.11
719.00,136.11
718.00,136.11
717.00,136.11
716.00,136.11
715.00,136.11
714.00,136.11
713.00,136.11
712.00,136.11
711.00,136.11
710.00,136.11
709.00,136.10
708.00,136.10
707.00,136.09
706.00,136.09
705.00,136.09
704.00,136.09
703.00,136.09
702.00,136.08
701.00,136.06
700.00,136.06
699.00,136.05
698.00,136.06
697.00,136.07
696.00,136.07
695.00,136.08
694.00,136.07
693.00,136.06
692.00,136.06
691.00,136.05
690.00,136.05
689.00,136.05
688.00,136.05
687.00,136.05
686.00,136.06
685.00,136.06
684.00,136.07
683.00,136.08
682.00,136.08
681.00,136.08
680.00,136.08
679.00,136.09
678.00,136.10
677.00,136.11
676.00,136.11
675.00,136.11
674.00,136.10
673.00,136.10
672.00,136.11
671.00,136.12
670.00,136.15
669.00,136.17
668.00,136.16
667.00,136.15
666.00,136.14
665.00,136.13
664.00,136.13
663.00,136.12
662.00,136.12
661.00,136.11
660.00,136.11
659.00,136.11
658.00,136.11
657.00,136.11
656.00,136.10
655.00,136.08
654.00,136.08
653.00,136.08
652.00,136.08
651.00,136.08
650.00,136.08
649.00,136.07
648.00,136.06
647.00,136.05
646.00,136.05
645.00,136.05
644.00,136.06
643.00,136.07
642.00,136.08
641.00,136.08
640.00,136.07
639.00,136.06
638.00,136.06
637.00,136.07
636.00,136.07
635.00,136.08
634.00,136.09
633.00,136.09
632.00,136.09
631.00,136.09
630.00,136.09
629.00,136.09
628.00,136.09
627.00,136.10
626.00,136.11
625.00,136.12
624.00,136.13
623.00,136.14
622.00,136.14
621.00,136.13
620.00,136.11
619.00,136.10
618.00,136.10
617.00,136.11
616.00,136.12
615.00,136.12
614.00,136.12
613.00,136.11
612.00,136.09
611.00,136.09
610.00,136.09
609.00,136.10
608.00,136.10
607.00,136.09
606.00,136.09
605.00,136.09
604.00,136.08
603.00,136.08
602.00,136.08
601.00,136.08
600.00,136.07
599.00,136.07
598.00,136.08
597.00,136.09
596.00,136.09
595.00,136.08
594.00,136.07
593.00,136.06
592.00,136.06
591.00,136.08
590.00,136.09
589.00,136.10
588.00,136.10
587.00,136.09
586.00,136.07
585.00,136.06
584.00,136.06
583.00,136.07
582.00,136.08
581.00,136.08
580.00,136.08
579.00,136.08
578.00,136.08
577.00,136.07
576.00,136.06
575.00,136.05
574.00,136.05
573.00,136.05
572.00,136.05
571.00,136.06
570.00,136.06
569.00,136.05
568.00,136.04
567.00,136.02
566.00,136.01
565.00,136.00
564.00,136.01
563.00,136.01
562.00,136.02
561.00,136.01
560.00,136.00
559.00,135.99
558.00,135.99
557.00,136.00
556.00,136.00
555.00,135.99
554.00,135.98
553.00,135.97
552.00,135.96
551.00,135.95
550.00,135.95
549.00,135.94
548.00,135.94
547.00,135.93
546.00,135.93
545.00,135.93
544.00,135.93
543.00,135.92
542.00,135.92
541.00,135.91
540.00,135.90
539.00,135.90
538.00,135.91
537.00,135.92
536.00,135.91
535.00,135.90
534.00,135.89
533.00,135.88
532.00,135.88
531.00,135.90
530.00,135.91
529.00,135.92
528.00,135.92
527.00,135.92
526.00,135.92
525.00,135.94
524.00,135.96
523.00,135.98
522.00,135.98
521.00,135.99
520.00,136.00
519.00,136.01
518.00,136.03
517.00,136.04
516.00,136.04
515.00,136.04
514.00,136.05
513.00,136.06
512.00,136.07
511.00,136.08
510.00,136.09
509.00,136.08
508.00,136.07
507.00,136.08
506.00,136.09
505.00,136.12
504.00,136.13
503.00,136.14
502.00,136.15
501.00,136.15
500.00,136.14
