Created as New Dataset,Sample 376 By Analyst Date Monday, February 10 2025
cm-1,%T
4000.00,130.33
3999.00,130.32
3998.00,130.32
3997.00,130.31
3996.00,130.31
3995.00,130.30
3994.00,130.29
3993.00,130.29
3992.00,130.28
3991.00,130.27
3990.00,130.26
3989.00,130.25
3988.00,130.24
3987.00,130.23
3986.00,130.22
3985.00,130.22
3984.00,130.21
3983.00,130.20
3982.00,130.19
3981.00,130.18
3980.00,130.17
3979.00,130.17
3978.00,130.16
3977.00,130.15
3976.00,130.14
3975.00,130.13
3974.00,130.13
3973.00,130.12
3972.00,130.11
3971.00,130.11
3970.00,130.10
3969.00,130.10
3968.00,130.09
3967.00,130.09
3966.00,130.09
3965.00,130.09
3964.00,130.09
3963.00,130.09
3962.00,130.09
3961.00,130.08
3960.00,130.08
3959.00,130.08
3958.00,130.08
3957.00,130.09
3956.00,130.09
3955.00,130.09
3954.00,130.10
3953.00,130.10
3952.00,130.11
3951.00,130.11
3950.00,130.11
3949.00,130.11
3948.00,130.11
3947.00,130.11
3946.00,130.11
3945.00,130.11
3944.00,130.11
3943.00,130.11
3942.00,130.10
3941.00,130.09
3940.00,130.08
3939.00,130.08
3938.00,130.08
3937.00,130.07
3936.00,130.07
3935.00,130.06
3934.00,130.06
3933.00,130.06
3932.00,130.05
3931.00,130.05
3930.00,130.04
3929.00,130.04
3928.00,130.03
3927.00,130.02
3926.00,130.02
3925.00,130.01
3924.00,130.01
3923.00,130.00
3922.00,130.00
3921.00,130.00
3920.00,130.00
3919.00,129.99
3918.00,129.98
3917.00,129.97
3916.00,129.97
3915.00,129.96
3914.00,129.95
3913.00,129.95
3912.00,129.95
3911.00,129.95
3910.00,129.95
3909.00,129.96
3908.00,129.97
3907.00,129.99
3906.00,130.01
3905.00,130.04
3904.00,130.06
3903.00,130.06
3902.00,130.06
3901.00,130.06
3900.00,130.07
3899.00,130.06
3898.00,130.04
3897.00,130.03
3896.00,130.03
3895.00,130.02
3894.00,130.01
3893.00,130.01
3892.00,130.01
3891.00,130.02
3890.00,130.02
3889.00,130.01
3888.00,130.01
3887.00,130.03
3886.00,130.05
3885.00,130.04
3884.00,130.02
3883.00,130.00
3882.00,130.01
3881.00,130.02
3880.00,130.01
3879.00,129.99
3878.00,129.97
3877.00,129.96
3876.00,129.98
3875.00,130.00
3874.00,129.99
3873.00,129.97
3872.00,129.97
3871.00,129.99
3870.00,130.02
3869.00,130.02
3868.00,130.00
3867.00,129.99
3866.00,129.99
3865.00,129.99
3864.00,129.97
3863.00,129.94
3862.00,129.93
3861.00,129.93
3860.00,129.95
3859.00,129.96
3858.00,129.98
3857.00,130.00
3856.00,130.01
3855.00,130.04
3854.00,130.07
3853.00,130.08
3852.00,130.06
3851.00,130.04
3850.00,130.03
3849.00,130.00
3848.00,129.97
3847.00,129.93
3846.00,129.90
3845.00,129.90
3844.00,129.91
3843.00,129.92
3842.00,129.93
3841.00,129.94
3840.00,129.95
3839.00,129.97
3838.00,129.98
3837.00,129.98
3836.00,129.97
3835.00,129.96
3834.00,129.94
3833.00,129.92
3832.00,129.90
3831.00,129.87
3830.00,129.84
3829.00,129.81
3828.00,129.81
3827.00,129.82
3826.00,129.82
3825.00,129.81
3824.00,129.80
3823.00,129.81
3822.00,129.84
3821.00,129.85
3820.00,129.83
3819.00,129.80
3818.00,129.80
3817.00,129.81
3816.00,129.80
3815.00,129.77
3814.00,129.73
3813.00,129.71
3812.00,129.71
3811.00,129.71
3810.00,129.68
3809.00,129.67
3808.00,129.68
3807.00,129.71
3806.00,129.72
3805.00,129.71
3804.00,129.71
3803.00,129.73
3802.00,129.76
3801.00,129.75
3800.00,129.72
3799.00,129.70
3798.00,129.70
3797.00,129.70
3796.00,129.68
3795.00,129.64
3794.00,129.61
3793.00,129.60
3792.00,129.59
3791.00,129.59
3790.00,129.58
3789.00,129.58
3788.00,129.58
3787.00,129.58
3786.00,129.58
3785.00,129.59
3784.00,129.60
3783.00,129.60
3782.00,129.60
3781.00,129.60
3780.00,129.61
3779.00,129.61
3778.00,129.60
3777.00,129.59
3776.00,129.60
3775.00,129.60
3774.00,129.61
3773.00,129.60
3772.00,129.60
3771.00,129.62
3770.00,129.63
3769.00,129.63
3768.00,129.62
3767.00,129.62
3766.00,129.63
3765.00,129.63
3764.00,129.62
3763.00,129.61
3762.00,129.61
3761.00,129.62
3760.00,129.62
3759.00,129.62
3758.00,129.63
3757.00,129.64
3756.00,129.65
3755.00,129.67
3754.00,129.68
3753.00,129.70
3752.00,129.71
3751.00,129.73
3750.00,129.76
3749.00,129.78
3748.00,129.78
3747.00,129.76
3746.00,129.75
3745.00,129.75
3744.00,129.72
3743.00,129.66
3742.00,129.62
3741.00,129.61
3740.00,129.60
3739.00,129.58
3738.00,129.55
3737.00,129.54
3736.00,129.54
3735.00,129.53
3734.00,129.51
3733.00,129.50
3732.00,129.49
3731.00,129.47
3730.00,129.43
3729.00,129.39
3728.00,129.37
3727.00,129.36
3726.00,129.34
3725.00,129.32
3724.00,129.31
3723.00,129.31
3722.00,129.31
3721.00,129.30
3720.00,129.29
3719.00,129.28
3718.00,129.29
3717.00,129.30
3716.00,129.31
3715.00,129.32
3714.00,129.33
3713.00,129.35
3712.00,129.37
3711.00,129.38
3710.00,129.39
3709.00,129.40
3708.00,129.40
3707.00,129.40
3706.00,129.39
3705.00,129.38
3704.00,129.39
3703.00,129.40
3702.00,129.42
3701.00,129.44
3700.00,129.46
3699.00,129.48
3698.00,129.52
3697.00,129.55
3696.00,129.59
3695.00,129.62
3694.00,129.67
3693.00,129.72
3692.00,129.76
3691.00,129.80
3690.00,129.83
3689.00,129.87
3688.00,129.90
3687.00,129.91
3686.00,129.91
3685.00,129.91
3684.00,129.92
3683.00,129.92
3682.00,129.92
3681.00,129.94
3680.00,129.97
3679.00,129.99
3678.00,130.01
3677.00,130.05
3676.00,130.09
3675.00,130.12
3674.00,130.12
3673.00,130.10
3672.00,130.11
3671.00,130.11
3670.00,130.08
3669.00,130.02
3668.00,129.97
3667.00,129.94
3666.00,129.92
3665.00,129.89
3664.00,129.85
3663.00,129.82
3662.00,129.80
3661.00,129.80
3660.00,129.79
3659.00,129.78
3658.00,129.78
3657.00,129.80
3656.00,129.81
3655.00,129.82
3654.00,129.82
3653.00,129.83
3652.00,129.85
3651.00,129.86
3650.00,129.85
3649.00,129.83
3648.00,129.82
3647.00,129.81
3646.00,129.79
3645.00,129.75
3644.00,129.72
3643.00,129.68
3642.00,129.65
3641.00,129.62
3640.00,129.61
3639.00,129.61
3638.00,129.61
3637.00,129.61
3636.00,129.62
3635.00,129.64
3634.00,129.67
3633.00,129.69
3632.00,129.71
3631.00,129.73
3630.00,129.76
3629.00,129.77
3628.00,129.77
3627.00,129.76
3626.00,129.76
3625.00,129.77
3624.00,129.77
3623.00,129.75
3622.00,129.74
3621.00,129.75
3620.00,129.76
3619.00,129.78
3618.00,129.78
3617.00,129.79
3616.00,129.79
3615.00,129.80
3614.00,129.80
3613.00,129.80
3612.00,129.79
3611.00,129.78
3610.00,129.77
3609.00,129.77
3608.00,129.76
3607.00,129.74
3606.00,129.72
3605.00,129.71
3604.00,129.70
3603.00,129.69
3602.00,129.68
3601.00,129.68
3600.00,129.68
3599.00,129.69
3598.00,129.69
3597.00,129.70
3596.00,129.70
3595.00,129.71
3594.00,129.72
3593.00,129.73
3592.00,129.74
3591.00,129.76
3590.00,129.77
3589.00,129.77
3588.00,129.78
3587.00,129.78
3586.00,129.78
3585.00,129.78
3584.00,129.78
3583.00,129.78
3582.00,129.78
3581.00,129.78
3580.00,129.78
3579.00,129.78
3578.00,129.79
3577.00,129.80
3576.00,129.81
3575.00,129.82
3574.00,129.83
3573.00,129.85
3572.00,129.86
3571.00,129.88
3570.00,129.89
3569.00,129.91
3568.00,129.92
3567.00,129.93
3566.00,129.94
3565.00,129.94
3564.00,129.94
3563.00,129.94
3562.00,129.93
3561.00,129.92
3560.00,129.91
3559.00,129.91
3558.00,129.91
3557.00,129.92
3556.00,129.92
3555.00,129.92
3554.00,129.92
3553.00,129.92
3552.00,129.93
3551.00,129.93
3550.00,129.94
3549.00,129.94
3548.00,129.94
3547.00,129.93
3546.00,129.93
3545.00,129.92
3544.00,129.92
3543.00,129.92
3542.00,129.92
3541.00,129.93
3540.00,129.92
3539.00,129.92
3538.00,129.91
3537.00,129.91
3536.00,129.92
3535.00,129.92
3534.00,129.93
3533.00,129.93
3532.00,129.94
3531.00,129.94
3530.00,129.94
3529.00,129.95
3528.00,129.95
3527.00,129.95
3526.00,129.95
3525.00,129.95
3524.00,129.95
3523.00,129.95
3522.00,129.95
3521.00,129.94
3520.00,129.94
3519.00,129.93
3518.00,129.92
3517.00,129.92
3516.00,129.91
3515.00,129.91
3514.00,129.91
3513.00,129.91
3512.00,129.90
3511.00,129.90
3510.00,129.90
3509.00,129.89
3508.00,129.89
3507.00,129.88
3506.00,129.88
3505.00,129.87
3504.00,129.86
3503.00,129.86
3502.00,129.85
3501.00,129.85
3500.00,129.85
3499.00,129.85
3498.00,129.84
3497.00,129.84
3496.00,129.84
3495.00,129.84
3494.00,129.84
3493.00,129.85
3492.00,129.85
3491.00,129.86
3490.00,129.86
3489.00,129.87
3488.00,129.88
3487.00,129.89
3486.00,129.89
3485.00,129.91
3484.00,129.92
3483.00,129.93
3482.00,129.93
3481.00,129.94
3480.00,129.95
3479.00,129.96
3478.00,129.97
3477.00,129.98
3476.00,129.99
3475.00,130.00
3474.00,130.01
3473.00,130.02
3472.00,130.03
3471.00,130.04
3470.00,130.05
3469.00,130.05
3468.00,130.06
3467.00,130.08
3466.00,130.09
3465.00,130.10
3464.00,130.11
3463.00,130.12
3462.00,130.13
3461.00,130.13
3460.00,130.14
3459.00,130.15
3458.00,130.15
3457.00,130.16
3456.00,130.17
3455.00,130.17
3454.00,130.18
3453.00,130.19
3452.00,130.19
3451.00,130.20
3450.00,130.21
3449.00,130.21
3448.00,130.22
3447.00,130.23
3446.00,130.24
3445.00,130.24
3444.00,130.25
3443.00,130.26
3442.00,130.26
3441.00,130.26
3440.00,130.27
3439.00,130.27
3438.00,130.27
3437.00,130.27
3436.00,130.28
3435.00,130.29
3434.00,130.30
3433.00,130.30
3432.00,130.31
3431.00,130.31
3430.00,130.32
3429.00,130.32
3428.00,130.33
3427.00,130.33
3426.00,130.33
3425.00,130.33
3424.00,130.33
3423.00,130.32
3422.00,130.32
3421.00,130.32
3420.00,130.31
3419.00,130.30
3418.00,130.29
3417.00,130.28
3416.00,130.27
3415.00,130.25
3414.00,130.23
3413.00,130.21
3412.00,130.20
3411.00,130.18
3410.00,130.16
3409.00,130.14
3408.00,130.12
3407.00,130.11
3406.00,130.09
3405.00,130.06
3404.00,130.04
3403.00,130.01
3402.00,129.99
3401.00,129.96
3400.00,129.95
3399.00,129.93
3398.00,129.92
3397.00,129.91
3396.00,129.89
3395.00,129.87
3394.00,129.85
3393.00,129.84
3392.00,129.82
3391.00,129.81
3390.00,129.81
3389.00,129.80
3388.00,129.79
3387.00,129.79
3386.00,129.78
3385.00,129.78
3384.00,129.77
3383.00,129.77
3382.00,129.76
3381.00,129.76
3380.00,129.75
3379.00,129.75
3378.00,129.75
3377.00,129.75
3376.00,129.75
3375.00,129.75
3374.00,129.74
3373.00,129.74
3372.00,129.74
3371.00,129.73
3370.00,129.73
3369.00,129.73
3368.00,129.73
3367.00,129.73
3366.00,129.74
3365.00,129.74
3364.00,129.74
3363.00,129.74
3362.00,129.74
3361.00,129.73
3360.00,129.73
3359.00,129.73
3358.00,129.73
3357.00,129.73
3356.00,129.73
3355.00,129.73
3354.00,129.72
3353.00,129.72
3352.00,129.71
3351.00,129.71
3350.00,129.71
3349.00,129.71
3348.00,129.71
3347.00,129.71
3346.00,129.72
3345.00,129.71
3344.00,129.71
3343.00,129.71
3342.00,129.71
3341.00,129.71
3340.00,129.71
3339.00,129.71
3338.00,129.72
3337.00,129.73
3336.00,129.74
3335.00,129.74
3334.00,129.75
3333.00,129.76
3332.00,129.76
3331.00,129.77
3330.00,129.78
3329.00,129.78
3328.00,129.79
3327.00,129.80
3326.00,129.81
3325.00,129.82
3324.00,129.83
3323.00,129.84
3322.00,129.85
3321.00,129.86
3320.00,129.87
3319.00,129.88
3318.00,129.89
3317.00,129.90
3316.00,129.92
3315.00,129.93
3314.00,129.95
3313.00,129.96
3312.00,129.98
3311.00,130.00
3310.00,130.02
3309.00,130.04
3308.00,130.06
3307.00,130.08
3306.00,130.10
3305.00,130.13
3304.00,130.15
3303.00,130.16
3302.00,130.17
3301.00,130.16
3300.00,130.15
3299.00,130.13
3298.00,130.10
3297.00,130.07
3296.00,130.04
3295.00,130.01
3294.00,129.98
3293.00,129.95
3292.00,129.92
3291.00,129.90
3290.00,129.87
3289.00,129.85
3288.00,129.83
3287.00,129.81
3286.00,129.79
3285.00,129.77
3284.00,129.76
3283.00,129.74
3282.00,129.73
3281.00,129.71
3280.00,129.70
3279.00,129.69
3278.00,129.68
3277.00,129.67
3276.00,129.66
3275.00,129.65
3274.00,129.64
3273.00,129.63
3272.00,129.62
3271.00,129.62
3270.00,129.62
3269.00,129.62
3268.00,129.62
3267.00,129.62
3266.00,129.62
3265.00,129.62
3264.00,129.62
3263.00,129.62
3262.00,129.63
3261.00,129.63
3260.00,129.63
3259.00,129.62
3258.00,129.62
3257.00,129.62
3256.00,129.62
3255.00,129.62
3254.00,129.62
3253.00,129.63
3252.00,129.62
3251.00,129.62
3250.00,129.62
3249.00,129.62
3248.00,129.62
3247.00,129.62
3246.00,129.62
3245.00,129.62
3244.00,129.62
3243.00,129.62
3242.00,129.62
3241.00,129.62
3240.00,129.62
3239.00,129.62
3238.00,129.62
3237.00,129.62
3236.00,129.61
3235.00,129.61
3234.00,129.61
3233.00,129.62
3232.00,129.62
3231.00,129.63
3230.00,129.64
3229.00,129.64
3228.00,129.65
3227.00,129.66
3226.00,129.66
3225.00,129.67
3224.00,129.68
3223.00,129.69
3222.00,129.70
3221.00,129.71
3220.00,129.72
3219.00,129.73
3218.00,129.74
3217.00,129.75
3216.00,129.76
3215.00,129.77
3214.00,129.78
3213.00,129.79
3212.00,129.80
3211.00,129.81
3210.00,129.81
3209.00,129.82
3208.00,129.83
3207.00,129.84
3206.00,129.85
3205.00,129.86
3204.00,129.86
3203.00,129.87
3202.00,129.87
3201.00,129.88
3200.00,129.88
3199.00,129.89
3198.00,129.89
3197.00,129.89
3196.00,129.88
3195.00,129.88
3194.00,129.88
3193.00,129.87
3192.00,129.87
3191.00,129.87
3190.00,129.87
3189.00,129.86
3188.00,129.86
3187.00,129.86
3186.00,129.87
3185.00,129.87
3184.00,129.87
3183.00,129.87
3182.00,129.87
3181.00,129.87
3180.00,129.87
3179.00,129.87
3178.00,129.87
3177.00,129.87
3176.00,129.87
3175.00,129.86
3174.00,129.86
3173.00,129.85
3172.00,129.85
3171.00,129.85
3170.00,129.85
3169.00,129.85
3168.00,129.85
3167.00,129.86
3166.00,129.86
3165.00,129.87
3164.00,129.88
3163.00,129.88
3162.00,129.89
3161.00,129.89
3160.00,129.90
3159.00,129.90
3158.00,129.91
3157.00,129.91
3156.00,129.91
3155.00,129.91
3154.00,129.91
3153.00,129.91
3152.00,129.91
3151.00,129.91
3150.00,129.91
3149.00,129.91
3148.00,129.91
3147.00,129.91
3146.00,129.90
3145.00,129.90
3144.00,129.90
3143.00,129.89
3142.00,129.89
3141.00,129.88
3140.00,129.88
3139.00,129.88
3138.00,129.88
3137.00,129.88
3136.00,129.88
3135.00,129.88
3134.00,129.88
3133.00,129.88
3132.00,129.88
3131.00,129.88
3130.00,129.88
3129.00,129.89
3128.00,129.89
3127.00,129.90
3126.00,129.90
3125.00,129.90
3124.00,129.91
3123.00,129.91
3122.00,129.91
3121.00,129.92
3120.00,129.93
3119.00,129.93
3118.00,129.94
3117.00,129.96
3116.00,129.97
3115.00,129.99
3114.00,130.00
3113.00,130.02
3112.00,130.03
3111.00,130.04
3110.00,130.06
3109.00,130.07
3108.00,130.09
3107.00,130.11
3106.00,130.12
3105.00,130.13
3104.00,130.14
3103.00,130.15
3102.00,130.15
3101.00,130.16
3100.00,130.16
3099.00,130.17
3098.00,130.17
3097.00,130.17
3096.00,130.18
3095.00,130.18
3094.00,130.18
3093.00,130.18
3092.00,130.18
3091.00,130.19
3090.00,130.19
3089.00,130.20
3088.00,130.21
3087.00,130.22
3086.00,130.22
3085.00,130.23
3084.00,130.24
3083.00,130.25
3082.00,130.25
3081.00,130.26
3080.00,130.27
3079.00,130.27
3078.00,130.28
3077.00,130.28
3076.00,130.28
3075.00,130.29
3074.00,130.29
3073.00,130.29
3072.00,130.29
3071.00,130.29
3070.00,130.29
3069.00,130.29
3068.00,130.29
3067.00,130.29
3066.00,130.29
3065.00,130.30
3064.00,130.30
3063.00,130.30
3062.00,130.31
3061.00,130.31
3060.00,130.31
3059.00,130.31
3058.00,130.31
3057.00,130.32
3056.00,130.32
3055.00,130.32
3054.00,130.32
3053.00,130.32
3052.00,130.32
3051.00,130.32
3050.00,130.32
3049.00,130.32
3048.00,130.33
3047.00,130.33
3046.00,130.33
3045.00,130.33
3044.00,130.33
3043.00,130.32
3042.00,130.32
3041.00,130.32
3040.00,130.33
3039.00,130.33
3038.00,130.33
3037.00,130.33
3036.00,130.32
3035.00,130.32
3034.00,130.32
3033.00,130.32
3032.00,130.32
3031.00,130.32
3030.00,130.31
3029.00,130.31
3028.00,130.30
3027.00,130.30
3026.00,130.30
3025.00,130.29
3024.00,130.29
3023.00,130.28
3022.00,130.28
3021.00,130.28
3020.00,130.28
3019.00,130.28
3018.00,130.27
3017.00,130.27
3016.00,130.27
3015.00,130.27
3014.00,130.28
3013.00,130.28
3012.00,130.28
3011.00,130.29
3010.00,130.29
3009.00,130.29
3008.00,130.30
3007.00,130.30
3006.00,130.30
3005.00,130.30
3004.00,130.30
3003.00,130.31
3002.00,130.31
3001.00,130.31
3000.00,130.31
2999.00,130.31
2998.00,130.31
2997.00,130.31
2996.00,130.31
2995.00,130.31
2994.00,130.31
2993.00,130.31
2992.00,130.31
2991.00,130.31
2990.00,130.31
2989.00,130.31
2988.00,130.31
2987.00,130.31
2986.00,130.31
2985.00,130.31
2984.00,130.30
2983.00,130.30
2982.00,130.30
2981.00,130.29
2980.00,130.29
2979.00,130.28
2978.00,130.28
2977.00,130.28
2976.00,130.27
2975.00,130.27
2974.00,130.27
2973.00,130.27
2972.00,130.26
2971.00,130.26
2970.00,130.26
2969.00,130.26
2968.00,130.26
2967.00,130.26
2966.00,130.26
2965.00,130.26
2964.00,130.27
2963.00,130.27
2962.00,130.27
2961.00,130.28
2960.00,130.28
2959.00,130.28
2958.00,130.29
2957.00,130.29
2956.00,130.29
2955.00,130.30
2954.00,130.30
2953.00,130.30
2952.00,130.31
2951.00,130.31
2950.00,130.31
2949.00,130.31
2948.00,130.31
2947.00,130.31
2946.00,130.31
2945.00,130.31
2944.00,130.31
2943.00,130.32
2942.00,130.32
2941.00,130.32
2940.00,130.32
2939.00,130.32
2938.00,130.32
2937.00,130.32
2936.00,130.32
2935.00,130.32
2934.00,130.32
2933.00,130.32
2932.00,130.32
2931.00,130.31
2930.00,130.31
2929.00,130.31
2928.00,130.31
2927.00,130.31
2926.00,130.31
2925.00,130.32
2924.00,130.32
2923.00,130.32
2922.00,130.32
2921.00,130.32
2920.00,130.31
2919.00,130.31
2918.00,130.30
2917.00,130.30
2916.00,130.29
2915.00,130.28
2914.00,130.28
2913.00,130.27
2912.00,130.27
2911.00,130.26
2910.00,130.26
2909.00,130.25
2908.00,130.25
2907.00,130.25
2906.00,130.25
2905.00,130.25
2904.00,130.25
2903.00,130.26
2902.00,130.26
2901.00,130.26
2900.00,130.26
2899.00,130.27
2898.00,130.27
2897.00,130.27
2896.00,130.28
2895.00,130.28
2894.00,130.29
2893.00,130.30
2892.00,130.30
2891.00,130.30
2890.00,130.30
2889.00,130.30
2888.00,130.30
2887.00,130.30
2886.00,130.30
2885.00,130.30
2884.00,130.30
2883.00,130.30
2882.00,130.29
2881.00,130.29
2880.00,130.29
2879.00,130.28
2878.00,130.28
2877.00,130.27
2876.00,130.26
2875.00,130.26
2874.00,130.25
2873.00,130.25
2872.00,130.25
2871.00,130.24
2870.00,130.24
2869.00,130.24
2868.00,130.23
2867.00,130.23
2866.00,130.22
2865.00,130.22
2864.00,130.22
2863.00,130.22
2862.00,130.22
2861.00,130.22
2860.00,130.22
2859.00,130.23
2858.00,130.23
2857.00,130.23
2856.00,130.24
2855.00,130.25
2854.00,130.25
2853.00,130.26
2852.00,130.27
2851.00,130.28
2850.00,130.28
2849.00,130.29
2848.00,130.29
2847.00,130.29
2846.00,130.29
2845.00,130.29
2844.00,130.29
2843.00,130.29
2842.00,130.29
2841.00,130.28
2840.00,130.28
2839.00,130.28
2838.00,130.28
2837.00,130.28
2836.00,130.28
2835.00,130.28
2834.00,130.28
2833.00,130.28
2832.00,130.28
2831.00,130.27
2830.00,130.27
2829.00,130.27
2828.00,130.26
2827.00,130.26
2826.00,130.25
2825.00,130.25
2824.00,130.24
2823.00,130.24
2822.00,130.23
2821.00,130.22
2820.00,130.21
2819.00,130.21
2818.00,130.20
2817.00,130.20
2816.00,130.19
2815.00,130.19
2814.00,130.18
2813.00,130.17
2812.00,130.17
2811.00,130.17
2810.00,130.17
2809.00,130.17
2808.00,130.17
2807.00,130.17
2806.00,130.17
2805.00,130.17
2804.00,130.17
2803.00,130.17
2802.00,130.18
2801.00,130.18
2800.00,130.18
2799.00,130.18
2798.00,130.19
2797.00,130.19
2796.00,130.19
2795.00,130.20
2794.00,130.20
2793.00,130.20
2792.00,130.20
2791.00,130.20
2790.00,130.20
2789.00,130.20
2788.00,130.20
2787.00,130.20
2786.00,130.20
2785.00,130.20
2784.00,130.20
2783.00,130.19
2782.00,130.19
2781.00,130.19
2780.00,130.18
2779.00,130.18
2778.00,130.17
2777.00,130.17
2776.00,130.16
2775.00,130.16
2774.00,130.15
2773.00,130.15
2772.00,130.14
2771.00,130.13
2770.00,130.13
2769.00,130.12
2768.00,130.12
2767.00,130.11
2766.00,130.11
2765.00,130.10
2764.00,130.10
2763.00,130.09
2762.00,130.09
2761.00,130.08
2760.00,130.08
2759.00,130.08
2758.00,130.07
2757.00,130.07
2756.00,130.07
2755.00,130.07
2754.00,130.07
2753.00,130.07
2752.00,130.07
2751.00,130.07
2750.00,130.08
2749.00,130.08
2748.00,130.08
2747.00,130.09
2746.00,130.10
2745.00,130.10
2744.00,130.11
2743.00,130.11
2742.00,130.12
2741.00,130.12
2740.00,130.12
2739.00,130.13
2738.00,130.13
2737.00,130.14
2736.00,130.14
2735.00,130.14
2734.00,130.14
2733.00,130.15
2732.00,130.15
2731.00,130.14
2730.00,130.14
2729.00,130.13
2728.00,130.13
2727.00,130.12
2726.00,130.11
2725.00,130.10
2724.00,130.09
2723.00,130.08
2722.00,130.07
2721.00,130.06
2720.00,130.05
2719.00,130.04
2718.00,130.03
2717.00,130.02
2716.00,130.01
2715.00,130.00
2714.00,129.99
2713.00,129.98
2712.00,129.98
2711.00,129.97
2710.00,129.96
2709.00,129.95
2708.00,129.94
2707.00,129.93
2706.00,129.93
2705.00,129.92
2704.00,129.92
2703.00,129.92
2702.00,129.91
2701.00,129.91
2700.00,129.91
2699.00,129.90
2698.00,129.90
2697.00,129.90
2696.00,129.90
2695.00,129.91
2694.00,129.91
2693.00,129.91
2692.00,129.91
2691.00,129.92
2690.00,129.92
2689.00,129.92
2688.00,129.93
2687.00,129.93
2686.00,129.94
2685.00,129.95
2684.00,129.95
2683.00,129.96
2682.00,129.96
2681.00,129.97
2680.00,129.97
2679.00,129.98
2678.00,129.98
2677.00,129.99
2676.00,129.99
2675.00,129.99
2674.00,129.99
2673.00,129.99
2672.00,129.99
2671.00,129.98
2670.00,129.98
2669.00,129.97
2668.00,129.96
2667.00,129.95
2666.00,129.94
2665.00,129.93
2664.00,129.92
2663.00,129.90
2662.00,129.89
2661.00,129.88
2660.00,129.86
2659.00,129.85
2658.00,129.84
2657.00,129.82
2656.00,129.81
2655.00,129.80
2654.00,129.79
2653.00,129.78
2652.00,129.77
2651.00,129.76
2650.00,129.76
2649.00,129.75
2648.00,129.75
2647.00,129.75
2646.00,129.75
2645.00,129.74
2644.00,129.74
2643.00,129.74
2642.00,129.74
2641.00,129.74
2640.00,129.75
2639.00,129.75
2638.00,129.75
2637.00,129.76
2636.00,129.76
2635.00,129.76
2634.00,129.77
2633.00,129.77
2632.00,129.78
2631.00,129.79
2630.00,129.79
2629.00,129.80
2628.00,129.80
2627.00,129.81
2626.00,129.81
2625.00,129.82
2624.00,129.82
2623.00,129.83
2622.00,129.83
2621.00,129.84
2620.00,129.84
2619.00,129.84
2618.00,129.84
2617.00,129.84
2616.00,129.84
2615.00,129.84
2614.00,129.84
2613.00,129.84
2612.00,129.84
2611.00,129.83
2610.00,129.83
2609.00,129.83
2608.00,129.82
2607.00,129.82
2606.00,129.82
2605.00,129.81
2604.00,129.81
2603.00,129.80
2602.00,129.80
2601.00,129.79
2600.00,129.79
2599.00,129.79
2598.00,129.78
2597.00,129.78
2596.00,129.78
2595.00,129.78
2594.00,129.78
2593.00,129.78
2592.00,129.78
2591.00,129.78
2590.00,129.78
2589.00,129.79
2588.00,129.79
2587.00,129.79
2586.00,129.79
2585.00,129.80
2584.00,129.80
2583.00,129.80
2582.00,129.81
2581.00,129.81
2580.00,129.81
2579.00,129.81
2578.00,129.82
2577.00,129.82
2576.00,129.82
2575.00,129.82
2574.00,129.82
2573.00,129.81
2572.00,129.81
2571.00,129.81
2570.00,129.81
2569.00,129.80
2568.00,129.80
2567.00,129.79
2566.00,129.78
2565.00,129.78
2564.00,129.77
2563.00,129.76
2562.00,129.75
2561.00,129.75
2560.00,129.74
2559.00,129.73
2558.00,129.72
2557.00,129.71
2556.00,129.70
2555.00,129.69
2554.00,129.68
2553.00,129.67
2552.00,129.67
2551.00,129.65
2550.00,129.64
2549.00,129.63
2548.00,129.62
2547.00,129.61
2546.00,129.61
2545.00,129.60
2544.00,129.59
2543.00,129.59
2542.00,129.58
2541.00,129.58
2540.00,129.58
2539.00,129.57
2538.00,129.58
2537.00,129.58
2536.00,129.58
2535.00,129.58
2534.00,129.58
2533.00,129.58
2532.00,129.59
2531.00,129.59
2530.00,129.59
2529.00,129.59
2528.00,129.60
2527.00,129.60
2526.00,129.60
2525.00,129.60
2524.00,129.59
2523.00,129.59
2522.00,129.59
2521.00,129.59
2520.00,129.58
2519.00,129.58
2518.00,129.57
2517.00,129.56
2516.00,129.55
2515.00,129.54
2514.00,129.53
2513.00,129.52
2512.00,129.51
2511.00,129.49
2510.00,129.48
2509.00,129.47
2508.00,129.45
2507.00,129.44
2506.00,129.43
2505.00,129.41
2504.00,129.40
2503.00,129.39
2502.00,129.38
2501.00,129.36
2500.00,129.35
2499.00,129.34
2498.00,129.32
2497.00,129.31
2496.00,129.30
2495.00,129.30
2494.00,129.29
2493.00,129.28
2492.00,129.28
2491.00,129.27
2490.00,129.27
2489.00,129.26
2488.00,129.26
2487.00,129.26
2486.00,129.26
2485.00,129.26
2484.00,129.26
2483.00,129.25
2482.00,129.25
2481.00,129.25
2480.00,129.25
2479.00,129.25
2478.00,129.24
2477.00,129.24
2476.00,129.24
2475.00,129.24
2474.00,129.24
2473.00,129.24
2472.00,129.24
2471.00,129.24
2470.00,129.24
2469.00,129.24
2468.00,129.24
2467.00,129.24
2466.00,129.24
2465.00,129.24
2464.00,129.24
2463.00,129.24
2462.00,129.24
2461.00,129.23
2460.00,129.23
2459.00,129.23
2458.00,129.22
2457.00,129.22
2456.00,129.22
2455.00,129.21
2454.00,129.21
2453.00,129.21
2452.00,129.21
2451.00,129.21
2450.00,129.21
2449.00,129.21
2448.00,129.21
2447.00,129.21
2446.00,129.21
2445.00,129.22
2444.00,129.22
2443.00,129.23
2442.00,129.23
2441.00,129.24
2440.00,129.25
2439.00,129.26
2438.00,129.27
2437.00,129.28
2436.00,129.29
2435.00,129.30
2434.00,129.31
2433.00,129.32
2432.00,129.33
2431.00,129.34
2430.00,129.36
2429.00,129.37
2428.00,129.38
2427.00,129.40
2426.00,129.42
2425.00,129.43
2424.00,129.45
2423.00,129.47
2422.00,129.48
2421.00,129.49
2420.00,129.51
2419.00,129.52
2418.00,129.53
2417.00,129.54
2416.00,129.55
2415.00,129.56
2414.00,129.56
2413.00,129.56
2412.00,129.57
2411.00,129.56
2410.00,129.56
2409.00,129.56
2408.00,129.55
2407.00,129.54
2406.00,129.53
2405.00,129.52
2404.00,129.51
2403.00,129.50
2402.00,129.49
2401.00,129.48
2400.00,129.46
2399.00,129.45
2398.00,129.44
2397.00,129.43
2396.00,129.42
2395.00,129.41
2394.00,129.40
2393.00,129.39
2392.00,129.38
2391.00,129.38
2390.00,129.37
2389.00,129.37
2388.00,129.36
2387.00,129.36
2386.00,129.36
2385.00,129.36
2384.00,129.37
2383.00,129.37
2382.00,129.37
2381.00,129.37
2380.00,129.37
2379.00,129.37
2378.00,129.37
2377.00,129.36
2376.00,129.36
2375.00,129.36
2374.00,129.36
2373.00,129.36
2372.00,129.35
2371.00,129.35
2370.00,129.34
2369.00,129.33
2368.00,129.33
2367.00,129.32
2366.00,129.32
2365.00,129.32
2364.00,129.31
2363.00,129.31
2362.00,129.30
2361.00,129.29
2360.00,129.29
2359.00,129.29
2358.00,129.29
2357.00,129.29
2356.00,129.29
2355.00,129.29
2354.00,129.29
2353.00,129.29
2352.00,129.28
2351.00,129.28
2350.00,129.28
2349.00,129.28
2348.00,129.27
2347.00,129.25
2346.00,129.22
2345.00,129.19
2344.00,129.17
2343.00,129.18
2342.00,129.20
2341.00,129.21
2340.00,129.23
2339.00,129.24
2338.00,129.25
2337.00,129.26
2336.00,129.27
2335.00,129.28
2334.00,129.29
2333.00,129.30
2332.00,129.30
2331.00,129.30
2330.00,129.30
2329.00,129.30
2328.00,129.29
2327.00,129.29
2326.00,129.27
2325.00,129.26
2324.00,129.24
2323.00,129.23
2322.00,129.21
2321.00,129.20
2320.00,129.19
2319.00,129.19
2318.00,129.18
2317.00,129.18
2316.00,129.17
2315.00,129.17
2314.00,129.16
2313.00,129.16
2312.00,129.15
2311.00,129.15
2310.00,129.15
2309.00,129.14
2308.00,129.14
2307.00,129.15
2306.00,129.15
2305.00,129.15
2304.00,129.15
2303.00,129.14
2302.00,129.14
2301.00,129.14
2300.00,129.13
2299.00,129.13
2298.00,129.13
2297.00,129.13
2296.00,129.12
2295.00,129.12
2294.00,129.12
2293.00,129.11
2292.00,129.11
2291.00,129.10
2290.00,129.10
2289.00,129.10
2288.00,129.10
2287.00,129.09
2286.00,129.09
2285.00,129.09
2284.00,129.09
2283.00,129.08
2282.00,129.08
2281.00,129.08
2280.00,129.07
2279.00,129.07
2278.00,129.07
2277.00,129.06
2276.00,129.06
2275.00,129.07
2274.00,129.07
2273.00,129.07
2272.00,129.08
2271.00,129.08
2270.00,129.09
2269.00,129.09
2268.00,129.10
2267.00,129.10
2266.00,129.11
2265.00,129.11
2264.00,129.12
2263.00,129.12
2262.00,129.12
2261.00,129.13
2260.00,129.13
2259.00,129.14
2258.00,129.14
2257.00,129.15
2256.00,129.15
2255.00,129.15
2254.00,129.15
2253.00,129.15
2252.00,129.15
2251.00,129.15
2250.00,129.15
2249.00,129.15
2248.00,129.14
2247.00,129.14
2246.00,129.13
2245.00,129.12
2244.00,129.11
2243.00,129.10
2242.00,129.09
2241.00,129.08
2240.00,129.07
2239.00,129.06
2238.00,129.04
2237.00,129.03
2236.00,129.01
2235.00,129.00
2234.00,128.98
2233.00,128.97
2232.00,128.96
2231.00,128.94
2230.00,128.93
2229.00,128.92
2228.00,128.91
2227.00,128.89
2226.00,128.88
2225.00,128.87
2224.00,128.86
2223.00,128.86
2222.00,128.85
2221.00,128.85
2220.00,128.85
2219.00,128.85
2218.00,128.85
2217.00,128.85
2216.00,128.85
2215.00,128.86
2214.00,128.86
2213.00,128.86
2212.00,128.87
2211.00,128.87
2210.00,128.87
2209.00,128.87
2208.00,128.87
2207.00,128.87
2206.00,128.87
2205.00,128.87
2204.00,128.86
2203.00,128.86
2202.00,128.85
2201.00,128.84
2200.00,128.83
2199.00,128.83
2198.00,128.82
2197.00,128.81
2196.00,128.80
2195.00,128.78
2194.00,128.77
2193.00,128.76
2192.00,128.75
2191.00,128.74
2190.00,128.72
2189.00,128.71
2188.00,128.70
2187.00,128.69
2186.00,128.67
2185.00,128.66
2184.00,128.65
2183.00,128.64
2182.00,128.64
2181.00,128.63
2180.00,128.62
2179.00,128.62
2178.00,128.62
2177.00,128.61
2176.00,128.61
2175.00,128.61
2174.00,128.61
2173.00,128.61
2172.00,128.62
2171.00,128.62
2170.00,128.63
2169.00,128.64
2168.00,128.65
2167.00,128.66
2166.00,128.67
2165.00,128.69
2164.00,128.70
2163.00,128.71
2162.00,128.72
2161.00,128.74
2160.00,128.75
2159.00,128.76
2158.00,128.77
2157.00,128.78
2156.00,128.79
2155.00,128.79
2154.00,128.79
2153.00,128.80
2152.00,128.80
2151.00,128.80
2150.00,128.80
2149.00,128.80
2148.00,128.79
2147.00,128.79
2146.00,128.78
2145.00,128.78
2144.00,128.77
2143.00,128.76
2142.00,128.75
2141.00,128.74
2140.00,128.73
2139.00,128.72
2138.00,128.71
2137.00,128.69
2136.00,128.68
2135.00,128.66
2134.00,128.65
2133.00,128.64
2132.00,128.63
2131.00,128.62
2130.00,128.61
2129.00,128.60
2128.00,128.59
2127.00,128.58
2126.00,128.58
2125.00,128.57
2124.00,128.57
2123.00,128.57
2122.00,128.57
2121.00,128.57
2120.00,128.57
2119.00,128.57
2118.00,128.57
2117.00,128.57
2116.00,128.57
2115.00,128.58
2114.00,128.58
2113.00,128.58
2112.00,128.59
2111.00,128.59
2110.00,128.59
2109.00,128.60
2108.00,128.60
2107.00,128.61
2106.00,128.61
2105.00,128.61
2104.00,128.62
2103.00,128.62
2102.00,128.62
2101.00,128.63
2100.00,128.63
2099.00,128.64
2098.00,128.64
2097.00,128.65
2096.00,128.65
2095.00,128.66
2094.00,128.66
2093.00,128.66
2092.00,128.67
2091.00,128.67
2090.00,128.67
2089.00,128.67
2088.00,128.68
2087.00,128.68
2086.00,128.67
2085.00,128.67
2084.00,128.67
2083.00,128.67
2082.00,128.67
2081.00,128.67
2080.00,128.66
2079.00,128.66
2078.00,128.65
2077.00,128.65
2076.00,128.64
2075.00,128.64
2074.00,128.63
2073.00,128.63
2072.00,128.63
2071.00,128.62
2070.00,128.61
2069.00,128.61
2068.00,128.60
2067.00,128.60
2066.00,128.59
2065.00,128.58
2064.00,128.58
2063.00,128.57
2062.00,128.57
2061.00,128.57
2060.00,128.57
2059.00,128.56
2058.00,128.56
2057.00,128.56
2056.00,128.56
2055.00,128.57
2054.00,128.57
2053.00,128.57
2052.00,128.57
2051.00,128.58
2050.00,128.58
2049.00,128.59
2048.00,128.60
2047.00,128.61
2046.00,128.61
2045.00,128.62
2044.00,128.63
2043.00,128.64
2042.00,128.65
2041.00,128.66
2040.00,128.67
2039.00,128.68
2038.00,128.68
2037.00,128.69
2036.00,128.70
2035.00,128.70
2034.00,128.70
2033.00,128.71
2032.00,128.70
2031.00,128.70
2030.00,128.70
2029.00,128.69
2028.00,128.68
2027.00,128.67
2026.00,128.66
2025.00,128.65
2024.00,128.64
2023.00,128.63
2022.00,128.62
2021.00,128.60
2020.00,128.59
2019.00,128.58
2018.00,128.57
2017.00,128.56
2016.00,128.55
2015.00,128.55
2014.00,128.54
2013.00,128.54
2012.00,128.54
2011.00,128.55
2010.00,128.55
2009.00,128.56
2008.00,128.56
2007.00,128.57
2006.00,128.59
2005.00,128.60
2004.00,128.62
2003.00,128.63
2002.00,128.65
2001.00,128.67
2000.00,128.69
1999.00,128.71
1998.00,128.73
1997.00,128.75
1996.00,128.77
1995.00,128.79
1994.00,128.82
1993.00,128.84
1992.00,128.87
1991.00,128.89
1990.00,128.91
1989.00,128.93
1988.00,128.96
1987.00,128.98
1986.00,129.00
1985.00,129.02
1984.00,129.04
1983.00,129.06
1982.00,129.07
1981.00,129.08
1980.00,129.09
1979.00,129.10
1978.00,129.10
1977.00,129.10
1976.00,129.10
1975.00,129.09
1974.00,129.08
1973.00,129.06
1972.00,129.04
1971.00,129.02
1970.00,129.00
1969.00,128.98
1968.00,128.97
1967.00,128.95
1966.00,128.94
1965.00,128.93
1964.00,128.93
1963.00,128.93
1962.00,128.94
1961.00,128.95
1960.00,128.97
1959.00,128.99
1958.00,129.02
1957.00,129.06
1956.00,129.09
1955.00,129.13
1954.00,129.16
1953.00,129.20
1952.00,129.23
1951.00,129.26
1950.00,129.29
1949.00,129.31
1948.00,129.33
1947.00,129.34
1946.00,129.34
1945.00,129.34
1944.00,129.34
1943.00,129.34
1942.00,129.32
1941.00,129.30
1940.00,129.28
1939.00,129.25
1938.00,129.23
1937.00,129.20
1936.00,129.16
1935.00,129.13
1934.00,129.10
1933.00,129.07
1932.00,129.05
1931.00,129.02
1930.00,129.00
1929.00,128.99
1928.00,128.97
1927.00,128.96
1926.00,128.94
1925.00,128.94
1924.00,128.93
1923.00,128.93
1922.00,128.92
1921.00,128.92
1920.00,128.92
1919.00,128.92
1918.00,128.92
1917.00,128.92
1916.00,128.91
1915.00,128.90
1914.00,128.89
1913.00,128.88
1912.00,128.87
1911.00,128.86
1910.00,128.85
1909.00,128.84
1908.00,128.83
1907.00,128.82
1906.00,128.81
1905.00,128.81
1904.00,128.81
1903.00,128.80
1902.00,128.80
1901.00,128.80
1900.00,128.81
1899.00,128.81
1898.00,128.82
1897.00,128.83
1896.00,128.84
1895.00,128.85
1894.00,128.86
1893.00,128.87
1892.00,128.88
1891.00,128.89
1890.00,128.91
1889.00,128.93
1888.00,128.94
1887.00,128.95
1886.00,128.97
1885.00,128.98
1884.00,129.00
1883.00,129.02
1882.00,129.03
1881.00,129.05
1880.00,129.06
1879.00,129.08
1878.00,129.09
1877.00,129.10
1876.00,129.11
1875.00,129.12
1874.00,129.12
1873.00,129.12
1872.00,129.12
1871.00,129.11
1870.00,129.11
1869.00,129.11
1868.00,129.10
1867.00,129.09
1866.00,129.08
1865.00,129.07
1864.00,129.06
1863.00,129.06
1862.00,129.05
1861.00,129.06
1860.00,129.06
1859.00,129.07
1858.00,129.08
1857.00,129.09
1856.00,129.11
1855.00,129.14
1854.00,129.16
1853.00,129.19
1852.00,129.22
1851.00,129.25
1850.00,129.28
1849.00,129.30
1848.00,129.32
1847.00,129.34
1846.00,129.37
1845.00,129.40
1844.00,129.43
1843.00,129.45
1842.00,129.45
1841.00,129.46
1840.00,129.48
1839.00,129.49
1838.00,129.49
1837.00,129.49
1836.00,129.49
1835.00,129.49
1834.00,129.48
1833.00,129.47
1832.00,129.47
1831.00,129.48
1830.00,129.48
1829.00,129.48
1828.00,129.47
1827.00,129.48
1826.00,129.49
1825.00,129.51
1824.00,129.51
1823.00,129.52
1822.00,129.52
1821.00,129.53
1820.00,129.55
1819.00,129.56
1818.00,129.57
1817.00,129.57
1816.00,129.58
1815.00,129.58
1814.00,129.59
1813.00,129.59
1812.00,129.60
1811.00,129.61
1810.00,129.61
1809.00,129.62
1808.00,129.63
1807.00,129.64
1806.00,129.64
1805.00,129.65
1804.00,129.66
1803.00,129.67
1802.00,129.68
1801.00,129.70
1800.00,129.72
1799.00,129.73
1798.00,129.74
1797.00,129.74
1796.00,129.75
1795.00,129.76
1794.00,129.78
1793.00,129.81
1792.00,129.84
1791.00,129.86
1790.00,129.87
1789.00,129.88
1788.00,129.89
1787.00,129.91
1786.00,129.92
1785.00,129.94
1784.00,129.95
1783.00,129.95
1782.00,129.96
1781.00,129.98
1780.00,129.99
1779.00,129.99
1778.00,129.99
1777.00,129.99
1776.00,129.98
1775.00,129.98
1774.00,129.98
1773.00,130.00
1772.00,130.00
1771.00,129.99
1770.00,129.98
1769.00,129.98
1768.00,129.99
1767.00,129.99
1766.00,129.98
1765.00,129.97
1764.00,129.96
1763.00,129.96
1762.00,129.96
1761.00,129.95
1760.00,129.93
1759.00,129.92
1758.00,129.93
1757.00,129.93
1756.00,129.92
1755.00,129.91
1754.00,129.90
1753.00,129.89
1752.00,129.89
1751.00,129.89
1750.00,129.90
1749.00,129.90
1748.00,129.90
1747.00,129.91
1746.00,129.91
1745.00,129.91
1744.00,129.91
1743.00,129.91
1742.00,129.92
1741.00,129.93
1740.00,129.95
1739.00,129.95
1738.00,129.93
1737.00,129.92
1736.00,129.93
1735.00,129.95
1734.00,129.96
1733.00,129.96
1732.00,129.94
1731.00,129.96
1730.00,129.98
1729.00,130.00
1728.00,130.01
1727.00,130.01
1726.00,130.01
1725.00,130.02
1724.00,130.02
1723.00,130.02
1722.00,130.01
1721.00,130.00
1720.00,129.99
1719.00,129.99
1718.00,130.00
1717.00,129.99
1716.00,129.98
1715.00,129.98
1714.00,129.98
1713.00,129.99
1712.00,129.99
1711.00,129.99
1710.00,129.98
1709.00,129.97
1708.00,129.96
1707.00,129.96
1706.00,129.96
1705.00,129.95
1704.00,129.92
1703.00,129.90
1702.00,129.90
1701.00,129.92
1700.00,129.93
1699.00,129.90
1698.00,129.87
1697.00,129.88
1696.00,129.91
1695.00,129.91
1694.00,129.88
1693.00,129.88
1692.00,129.89
1691.00,129.91
1690.00,129.91
1689.00,129.90
1688.00,129.88
1687.00,129.87
1686.00,129.87
1685.00,129.88
1684.00,129.91
1683.00,129.90
1682.00,129.89
1681.00,129.91
1680.00,129.94
1679.00,129.93
1678.00,129.93
1677.00,129.93
1676.00,129.95
1675.00,129.96
1674.00,129.95
1673.00,129.94
1672.00,129.94
1671.00,129.95
1670.00,129.96
1669.00,129.96
1668.00,129.95
1667.00,129.94
1666.00,129.93
1665.00,129.93
1664.00,129.93
1663.00,129.93
1662.00,129.92
1661.00,129.91
1660.00,129.89
1659.00,129.88
1658.00,129.87
1657.00,129.84
1656.00,129.80
1655.00,129.77
1654.00,129.78
1653.00,129.81
1652.00,129.79
1651.00,129.74
1650.00,129.74
1649.00,129.77
1648.00,129.80
1647.00,129.81
1646.00,129.81
1645.00,129.80
1644.00,129.80
1643.00,129.81
1642.00,129.82
1641.00,129.83
1640.00,129.83
1639.00,129.83
1638.00,129.82
1637.00,129.83
1636.00,129.85
1635.00,129.86
1634.00,129.86
1633.00,129.85
1632.00,129.86
1631.00,129.86
1630.00,129.86
1629.00,129.86
1628.00,129.86
1627.00,129.86
1626.00,129.86
1625.00,129.86
1624.00,129.88
1623.00,129.89
1622.00,129.88
1621.00,129.87
1620.00,129.87
1619.00,129.87
1618.00,129.88
1617.00,129.88
1616.00,129.88
1615.00,129.87
1614.00,129.87
1613.00,129.89
1612.00,129.90
1611.00,129.91
1610.00,129.91
1609.00,129.92
1608.00,129.93
1607.00,129.94
1606.00,129.94
1605.00,129.95
1604.00,129.94
1603.00,129.94
1602.00,129.93
1601.00,129.92
1600.00,129.92
1599.00,129.91
1598.00,129.91
1597.00,129.90
1596.00,129.89
1595.00,129.88
1594.00,129.87
1593.00,129.87
1592.00,129.86
1591.00,129.86
1590.00,129.87
1589.00,129.87
1588.00,129.87
1587.00,129.87
1586.00,129.88
1585.00,129.88
1584.00,129.89
1583.00,129.89
1582.00,129.90
1581.00,129.90
1580.00,129.90
1579.00,129.90
1578.00,129.90
1577.00,129.91
1576.00,129.92
1575.00,129.91
1574.00,129.90
1573.00,129.91
1572.00,129.93
1571.00,129.94
1570.00,129.95
1569.00,129.95
1568.00,129.94
1567.00,129.94
1566.00,129.94
1565.00,129.94
1564.00,129.93
1563.00,129.90
1562.00,129.87
1561.00,129.85
1560.00,129.84
1559.00,129.86
1558.00,129.86
1557.00,129.83
1556.00,129.84
1555.00,129.87
1554.00,129.88
1553.00,129.87
1552.00,129.86
1551.00,129.86
1550.00,129.87
1549.00,129.86
1548.00,129.85
1547.00,129.85
1546.00,129.85
1545.00,129.85
1544.00,129.85
1543.00,129.84
1542.00,129.84
1541.00,129.85
1540.00,129.87
1539.00,129.87
1538.00,129.84
1537.00,129.82
1536.00,129.83
1535.00,129.83
1534.00,129.83
1533.00,129.82
1532.00,129.81
1531.00,129.80
1530.00,129.79
1529.00,129.79
1528.00,129.79
1527.00,129.79
1526.00,129.78
1525.00,129.78
1524.00,129.77
1523.00,129.78
1522.00,129.79
1521.00,129.79
1520.00,129.79
1519.00,129.80
1518.00,129.82
1517.00,129.84
1516.00,129.85
1515.00,129.85
1514.00,129.85
1513.00,129.86
1512.00,129.86
1511.00,129.86
1510.00,129.85
1509.00,129.85
1508.00,129.85
1507.00,129.88
1506.00,129.89
1505.00,129.88
1504.00,129.87
1503.00,129.88
1502.00,129.89
1501.00,129.89
1500.00,129.88
1499.00,129.87
1498.00,129.87
1497.00,129.87
1496.00,129.87
1495.00,129.86
1494.00,129.86
1493.00,129.86
1492.00,129.86
1491.00,129.87
1490.00,129.87
1489.00,129.87
1488.00,129.87
1487.00,129.88
1486.00,129.88
1485.00,129.88
1484.00,129.88
1483.00,129.88
1482.00,129.88
1481.00,129.88
1480.00,129.87
1479.00,129.87
1478.00,129.87
1477.00,129.88
1476.00,129.88
1475.00,129.89
1474.00,129.90
1473.00,129.91
1472.00,129.93
1471.00,129.93
1470.00,129.94
1469.00,129.95
1468.00,129.95
1467.00,129.96
1466.00,129.96
1465.00,129.97
1464.00,129.98
1463.00,129.97
1462.00,129.97
1461.00,129.96
1460.00,129.95
1459.00,129.94
1458.00,129.95
1457.00,129.96
1456.00,129.96
1455.00,129.95
1454.00,129.95
1453.00,129.96
1452.00,129.96
1451.00,129.96
1450.00,129.95
1449.00,129.95
1448.00,129.95
1447.00,129.95
1446.00,129.94
1445.00,129.93
1444.00,129.92
1443.00,129.91
1442.00,129.91
1441.00,129.90
1440.00,129.88
1439.00,129.87
1438.00,129.86
1437.00,129.86
1436.00,129.86
1435.00,129.85
1434.00,129.85
1433.00,129.85
1432.00,129.84
1431.00,129.84
1430.00,129.84
1429.00,129.84
1428.00,129.84
1427.00,129.84
1426.00,129.85
1425.00,129.85
1424.00,129.85
1423.00,129.85
1422.00,129.86
1421.00,129.86
1420.00,129.86
1419.00,129.87
1418.00,129.88
1417.00,129.89
1416.00,129.90
1415.00,129.92
1414.00,129.93
1413.00,129.93
1412.00,129.93
1411.00,129.93
1410.00,129.94
1409.00,129.93
1408.00,129.93
1407.00,129.94
1406.00,129.94
1405.00,129.95
1404.00,129.94
1403.00,129.94
1402.00,129.94
1401.00,129.94
1400.00,129.94
1399.00,129.94
1398.00,129.94
1397.00,129.93
1396.00,129.94
1395.00,129.94
1394.00,129.94
1393.00,129.94
1392.00,129.93
1391.00,129.92
1390.00,129.92
1389.00,129.91
1388.00,129.91
1387.00,129.91
1386.00,129.91
1385.00,129.90
1384.00,129.90
1383.00,129.89
1382.00,129.89
1381.00,129.88
1380.00,129.88
1379.00,129.88
1378.00,129.88
1377.00,129.87
1376.00,129.87
1375.00,129.87
1374.00,129.87
1373.00,129.88
1372.00,129.88
1371.00,129.89
1370.00,129.89
1369.00,129.89
1368.00,129.89
1367.00,129.89
1366.00,129.89
1365.00,129.89
1364.00,129.89
1363.00,129.90
1362.00,129.91
1361.00,129.91
1360.00,129.92
1359.00,129.92
1358.00,129.93
1357.00,129.93
1356.00,129.93
1355.00,129.93
1354.00,129.94
1353.00,129.94
1352.00,129.95
1351.00,129.95
1350.00,129.95
1349.00,129.94
1348.00,129.94
1347.00,129.94
1346.00,129.94
1345.00,129.94
1344.00,129.93
1343.00,129.93
1342.00,129.92
1341.00,129.92
1340.00,129.91
1339.00,129.91
1338.00,129.90
1337.00,129.90
1336.00,129.90
1335.00,129.90
1334.00,129.89
1333.00,129.89
1332.00,129.88
1331.00,129.88
1330.00,129.87
1329.00,129.87
1328.00,129.87
1327.00,129.87
1326.00,129.87
1325.00,129.87
1324.00,129.87
1323.00,129.87
1322.00,129.87
1321.00,129.87
1320.00,129.87
1319.00,129.87
1318.00,129.88
1317.00,129.88
1316.00,129.89
1315.00,129.89
1314.00,129.90
1313.00,129.90
1312.00,129.90
1311.00,129.91
1310.00,129.91
1309.00,129.92
1308.00,129.92
1307.00,129.93
1306.00,129.93
1305.00,129.93
1304.00,129.94
1303.00,129.94
1302.00,129.94
1301.00,129.94
1300.00,129.94
1299.00,129.94
1298.00,129.94
1297.00,129.94
1296.00,129.93
1295.00,129.93
1294.00,129.92
1293.00,129.92
1292.00,129.92
1291.00,129.91
1290.00,129.91
1289.00,129.90
1288.00,129.90
1287.00,129.89
1286.00,129.88
1285.00,129.87
1284.00,129.87
1283.00,129.86
1282.00,129.85
1281.00,129.85
1280.00,129.84
1279.00,129.83
1278.00,129.83
1277.00,129.82
1276.00,129.82
1275.00,129.82
1274.00,129.81
1273.00,129.81
1272.00,129.81
1271.00,129.81
1270.00,129.81
1269.00,129.81
1268.00,129.81
1267.00,129.81
1266.00,129.82
1265.00,129.82
1264.00,129.83
1263.00,129.84
1262.00,129.85
1261.00,129.86
1260.00,129.87
1259.00,129.88
1258.00,129.89
1257.00,129.89
1256.00,129.89
1255.00,129.90
1254.00,129.89
1253.00,129.89
1252.00,129.88
1251.00,129.88
1250.00,129.88
1249.00,129.89
1248.00,129.89
1247.00,129.89
1246.00,129.89
1245.00,129.88
1244.00,129.88
1243.00,129.89
1242.00,129.89
1241.00,129.89
1240.00,129.88
1239.00,129.88
1238.00,129.87
1237.00,129.87
1236.00,129.86
1235.00,129.85
1234.00,129.84
1233.00,129.84
1232.00,129.83
1231.00,129.83
1230.00,129.82
1229.00,129.81
1228.00,129.81
1227.00,129.80
1226.00,129.79
1225.00,129.78
1224.00,129.77
1223.00,129.77
1222.00,129.76
1221.00,129.76
1220.00,129.76
1219.00,129.76
1218.00,129.75
1217.00,129.75
1216.00,129.75
1215.00,129.75
1214.00,129.75
1213.00,129.75
1212.00,129.76
1211.00,129.76
1210.00,129.76
1209.00,129.76
1208.00,129.76
1207.00,129.76
1206.00,129.77
1205.00,129.77
1204.00,129.77
1203.00,129.78
1202.00,129.78
1201.00,129.78
1200.00,129.79
1199.00,129.79
1198.00,129.79
1197.00,129.79
1196.00,129.80
1195.00,129.80
1194.00,129.81
1193.00,129.81
1192.00,129.81
1191.00,129.81
1190.00,129.80
1189.00,129.80
1188.00,129.79
1187.00,129.79
1186.00,129.79
1185.00,129.79
1184.00,129.78
1183.00,129.77
1182.00,129.77
1181.00,129.76
1180.00,129.76
1179.00,129.75
1178.00,129.75
1177.00,129.74
1176.00,129.73
1175.00,129.73
1174.00,129.72
1173.00,129.71
1172.00,129.70
1171.00,129.69
1170.00,129.69
1169.00,129.69
1168.00,129.68
1167.00,129.68
1166.00,129.68
1165.00,129.67
1164.00,129.67
1163.00,129.67
1162.00,129.67
1161.00,129.67
1160.00,129.67
1159.00,129.67
1158.00,129.67
1157.00,129.67
1156.00,129.67
1155.00,129.67
1154.00,129.67
1153.00,129.68
1152.00,129.69
1151.00,129.69
1150.00,129.70
1149.00,129.71
1148.00,129.71
1147.00,129.71
1146.00,129.71
1145.00,129.72
1144.00,129.72
1143.00,129.73
1142.00,129.73
1141.00,129.73
1140.00,129.73
1139.00,129.73
1138.00,129.72
1137.00,129.72
1136.00,129.72
1135.00,129.73
1134.00,129.73
1133.00,129.73
1132.00,129.73
1131.00,129.72
1130.00,129.72
1129.00,129.71
1128.00,129.70
1127.00,129.70
1126.00,129.70
1125.00,129.69
1124.00,129.69
1123.00,129.69
1122.00,129.68
1121.00,129.68
1120.00,129.67
1119.00,129.67
1118.00,129.66
1117.00,129.66
1116.00,129.65
1115.00,129.65
1114.00,129.65
1113.00,129.65
1112.00,129.66
1111.00,129.66
1110.00,129.65
1109.00,129.65
1108.00,129.65
1107.00,129.65
1106.00,129.66
1105.00,129.66
1104.00,129.66
1103.00,129.67
1102.00,129.67
1101.00,129.67
1100.00,129.68
1099.00,129.69
1098.00,129.69
1097.00,129.69
1096.00,129.69
1095.00,129.69
1094.00,129.69
1093.00,129.69
1092.00,129.69
1091.00,129.69
1090.00,129.69
1089.00,129.69
1088.00,129.69
1087.00,129.69
1086.00,129.69
1085.00,129.69
1084.00,129.68
1083.00,129.68
1082.00,129.68
1081.00,129.68
1080.00,129.67
1079.00,129.66
1078.00,129.65
1077.00,129.64
1076.00,129.64
1075.00,129.63
1074.00,129.62
1073.00,129.61
1072.00,129.60
1071.00,129.59
1070.00,129.58
1069.00,129.58
1068.00,129.57
1067.00,129.57
1066.00,129.56
1065.00,129.56
1064.00,129.55
1063.00,129.55
1062.00,129.54
1061.00,129.54
1060.00,129.54
1059.00,129.54
1058.00,129.54
1057.00,129.54
1056.00,129.54
1055.00,129.54
1054.00,129.53
1053.00,129.53
1052.00,129.52
1051.00,129.52
1050.00,129.53
1049.00,129.54
1048.00,129.56
1047.00,129.58
1046.00,129.60
1045.00,129.61
1044.00,129.62
1043.00,129.62
1042.00,129.62
1041.00,129.62
1040.00,129.63
1039.00,129.64
1038.00,129.66
1037.00,129.67
1036.00,129.69
1035.00,129.69
1034.00,129.69
1033.00,129.69
1032.00,129.70
1031.00,129.71
1030.00,129.71
1029.00,129.72
1028.00,129.73
1027.00,129.73
1026.00,129.74
1025.00,129.74
1024.00,129.75
1023.00,129.75
1022.00,129.75
1021.00,129.76
1020.00,129.76
1019.00,129.77
1018.00,129.77
1017.00,129.77
1016.00,129.78
1015.00,129.78
1014.00,129.78
1013.00,129.78
1012.00,129.78
1011.00,129.78
1010.00,129.78
1009.00,129.79
1008.00,129.79
1007.00,129.79
1006.00,129.79
1005.00,129.78
1004.00,129.79
1003.00,129.79
1002.00,129.80
1001.00,129.80
1000.00,129.81
999.00,129.82
998.00,129.83
997.00,129.84
996.00,129.85
995.00,129.86
994.00,129.88
993.00,129.89
992.00,129.89
991.00,129.90
990.00,129.90
989.00,129.91
988.00,129.91
987.00,129.92
986.00,129.93
985.00,129.94
984.00,129.96
983.00,129.97
982.00,129.97
981.00,129.97
980.00,129.97
979.00,129.97
978.00,129.97
977.00,129.98
976.00,129.99
975.00,129.99
974.00,130.00
973.00,130.00
972.00,130.00
971.00,130.00
970.00,130.00
969.00,130.00
968.00,130.00
967.00,130.01
966.00,130.01
965.00,130.01
964.00,130.01
963.00,130.01
962.00,130.00
961.00,130.00
960.00,130.00
959.00,130.00
958.00,130.01
957.00,130.01
956.00,130.02
955.00,130.02
954.00,130.02
953.00,130.02
952.00,130.02
951.00,130.02
950.00,130.03
949.00,130.04
948.00,130.05
947.00,130.05
946.00,130.05
945.00,130.05
944.00,130.06
943.00,130.07
942.00,130.08
941.00,130.09
940.00,130.10
939.00,130.10
938.00,130.11
937.00,130.12
936.00,130.12
935.00,130.13
934.00,130.14
933.00,130.15
932.00,130.15
931.00,130.16
930.00,130.16
929.00,130.16
928.00,130.16
927.00,130.17
926.00,130.17
925.00,130.18
924.00,130.18
923.00,130.19
922.00,130.19
921.00,130.18
920.00,130.18
919.00,130.17
918.00,130.17
917.00,130.17
916.00,130.18
915.00,130.18
914.00,130.18
913.00,130.17
912.00,130.17
911.00,130.16
910.00,130.15
909.00,130.15
908.00,130.16
907.00,130.16
906.00,130.16
905.00,130.16
904.00,130.16
903.00,130.17
902.00,130.17
901.00,130.17
900.00,130.17
899.00,130.17
898.00,130.17
897.00,130.18
896.00,130.18
895.00,130.19
894.00,130.20
893.00,130.20
892.00,130.20
891.00,130.20
890.00,130.21
889.00,130.22
888.00,130.24
887.00,130.24
886.00,130.25
885.00,130.25
884.00,130.25
883.00,130.25
882.00,130.25
881.00,130.26
880.00,130.27
879.00,130.28
878.00,130.28
877.00,130.29
876.00,130.29
875.00,130.29
874.00,130.29
873.00,130.30
872.00,130.30
871.00,130.30
870.00,130.30
869.00,130.30
868.00,130.30
867.00,130.30
866.00,130.29
865.00,130.29
864.00,130.28
863.00,130.28
862.00,130.27
861.00,130.27
860.00,130.28
859.00,130.28
858.00,130.27
857.00,130.27
856.00,130.26
855.00,130.26
854.00,130.26
853.00,130.26
852.00,130.26
851.00,130.26
850.00,130.26
849.00,130.26
848.00,130.25
847.00,130.25
846.00,130.26
845.00,130.26
844.00,130.26
843.00,130.26
842.00,130.26
841.00,130.26
840.00,130.26
839.00,130.26
838.00,130.27
837.00,130.27
836.00,130.28
835.00,130.28
834.00,130.29
833.00,130.29
832.00,130.29
831.00,130.29
830.00,130.29
829.00,130.29
828.00,130.29
827.00,130.29
826.00,130.29
825.00,130.30
824.00,130.30
823.00,130.31
822.00,130.31
821.00,130.31
820.00,130.31
819.00,130.32
818.00,130.33
817.00,130.33
816.00,130.32
815.00,130.32
814.00,130.30
813.00,130.30
812.00,130.30
811.00,130.30
810.00,130.30
809.00,130.30
808.00,130.30
807.00,130.30
806.00,130.30
805.00,130.31
804.00,130.31
803.00,130.32
802.00,130.32
801.00,130.32
800.00,130.33
799.00,130.33
798.00,130.33
797.00,130.33
796.00,130.33
795.00,130.33
794.00,130.32
793.00,130.32
792.00,130.32
791.00,130.32
790.00,130.32
789.00,130.32
788.00,130.32
787.00,130.32
786.00,130.31
785.00,130.31
784.00,130.31
783.00,130.31
782.00,130.31
781.00,130.31
780.00,130.31
779.00,130.31
778.00,130.32
777.00,130.32
776.00,130.32
775.00,130.32
774.00,130.32
773.00,130.32
772.00,130.32
771.00,130.32
770.00,130.32
769.00,130.31
768.00,130.31
767.00,130.31
766.00,130.31
765.00,130.31
764.00,130.31
763.00,130.30
762.00,130.29
761.00,130.28
760.00,130.28
759.00,130.28
758.00,130.28
757.00,130.28
756.00,130.28
755.00,130.27
754.00,130.27
753.00,130.26
752.00,130.25
751.00,130.25
750.00,130.25
749.00,130.24
748.00,130.24
747.00,130.24
746.00,130.24
745.00,130.24
744.00,130.24
743.00,130.24
742.00,130.24
741.00,130.23
740.00,130.23
739.00,130.23
738.00,130.23
737.00,130.24
736.00,130.24
735.00,130.24
734.00,130.23
733.00,130.24
732.00,130.24
731.00,130.25
730.00,130.26
729.00,130.26
728.00,130.26
727.00,130.26
726.00,130.26
725.00,130.26
724.00,130.26
723.00,130.27
722.00,130.28
721.00,130.27
720.00,130.27
719.00,130.26
718.00,130.26
717.00,130.26
716.00,130.26
715.00,130.26
714.00,130.26
713.00,130.26
712.00,130.26
711.00,130.26
710.00,130.25
709.00,130.25
708.00,130.24
707.00,130.24
706.00,130.23
705.00,130.23
704.00,130.23
703.00,130.23
702.00,130.23
701.00,130.21
700.00,130.20
699.00,130.20
698.00,130.20
697.00,130.20
696.00,130.19
695.00,130.18
694.00,130.17
693.00,130.15
692.00,130.14
691.00,130.14
690.00,130.14
689.00,130.14
688.00,130.14
687.00,130.14
686.00,130.13
685.00,130.13
684.00,130.13
683.00,130.13
682.00,130.13
681.00,130.12
680.00,130.11
679.00,130.11
678.00,130.11
677.00,130.12
676.00,130.12
675.00,130.11
674.00,130.11
673.00,130.11
672.00,130.12
671.00,130.14
670.00,130.15
669.00,130.12
668.00,130.07
667.00,130.07
666.00,130.09
665.00,130.10
664.00,130.10
663.00,130.11
662.00,130.12
661.00,130.11
660.00,130.10
659.00,130.09
658.00,130.07
657.00,130.05
656.00,130.04
655.00,130.03
654.00,130.03
653.00,130.03
652.00,130.03
651.00,130.03
650.00,130.03
649.00,130.02
648.00,130.01
647.00,130.00
646.00,129.99
645.00,130.00
644.00,130.01
643.00,130.01
642.00,130.01
641.00,130.00
640.00,129.98
639.00,129.97
638.00,129.97
637.00,129.98
636.00,129.99
635.00,129.99
634.00,129.99
633.00,129.98
632.00,129.98
631.00,129.98
630.00,129.98
629.00,129.97
628.00,129.97
627.00,129.96
626.00,129.96
625.00,129.97
624.00,129.98
623.00,129.98
622.00,129.98
621.00,129.96
620.00,129.96
619.00,129.96
618.00,129.96
617.00,129.97
616.00,129.97
615.00,129.97
614.00,129.95
613.00,129.94
612.00,129.93
611.00,129.94
610.00,129.94
609.00,129.95
608.00,129.96
607.00,129.95
606.00,129.94
605.00,129.93
604.00,129.93
603.00,129.93
602.00,129.94
601.00,129.94
600.00,129.95
599.00,129.96
598.00,129.96
597.00,129.97
596.00,129.96
595.00,129.94
594.00,129.92
593.00,129.90
592.00,129.88
591.00,129.87
590.00,129.87
589.00,129.87
588.00,129.87
587.00,129.88
586.00,129.87
585.00,129.87
584.00,129.87
583.00,129.87
582.00,129.87
581.00,129.87
580.00,129.86
579.00,129.85
578.00,129.83
577.00,129.82
576.00,129.81
575.00,129.81
574.00,129.80
573.00,129.80
572.00,129.81
571.00,129.81
570.00,129.80
569.00,129.79
568.00,129.78
567.00,129.78
566.00,129.78
565.00,129.80
564.00,129.82
563.00,129.83
562.00,129.83
561.00,129.82
560.00,129.81
559.00,129.81
558.00,129.81
557.00,129.82
556.00,129.81
555.00,129.80
554.00,129.78
553.00,129.78
552.00,129.79
551.00,129.82
550.00,129.84
549.00,129.86
548.00,129.88
547.00,129.89
546.00,129.89
545.00,129.88
544.00,129.87
543.00,129.87
542.00,129.87
541.00,129.87
540.00,129.88
539.00,129.88
538.00,129.89
537.00,129.89
536.00,129.91
535.00,129.92
534.00,129.93
533.00,129.94
532.00,129.96
531.00,129.97
530.00,129.98
529.00,129.98
528.00,129.98
527.00,129.99
526.00,130.00
525.00,130.02
524.00,130.05
523.00,130.09
522.00,130.12
521.00,130.14
520.00,130.15
519.00,130.16
518.00,130.16
517.00,130.15
516.00,130.15
515.00,130.16
514.00,130.17
513.00,130.19
512.00,130.22
511.00,130.26
510.00,130.28
509.00,130.29
508.00,130.30
507.00,130.31
506.00,130.32
505.00,130.33
504.00,130.34
503.00,130.34
502.00,130.33
501.00,130.32
500.00,130.32
