Created as New Dataset,Sample 382 By Analyst Date Monday, February 10 2025
cm-1,%T
4000.00,100.91
3999.00,100.91
3998.00,100.91
3997.00,100.91
3996.00,100.91
3995.00,100.91
3994.00,100.91
3993.00,100.91
3992.00,100.91
3991.00,100.91
3990.00,100.91
3989.00,100.92
3988.00,100.92
3987.00,100.91
3986.00,100.91
3985.00,100.91
3984.00,100.91
3983.00,100.91
3982.00,100.91
3981.00,100.91
3980.00,100.91
3979.00,100.91
3978.00,100.91
3977.00,100.91
3976.00,100.91
3975.00,100.91
3974.00,100.91
3973.00,100.91
3972.00,100.91
3971.00,100.91
3970.00,100.90
3969.00,100.90
3968.00,100.90
3967.00,100.90
3966.00,100.90
3965.00,100.90
3964.00,100.90
3963.00,100.90
3962.00,100.90
3961.00,100.90
3960.00,100.90
3959.00,100.90
3958.00,100.90
3957.00,100.90
3956.00,100.90
3955.00,100.90
3954.00,100.90
3953.00,100.90
3952.00,100.90
3951.00,100.90
3950.00,100.90
3949.00,100.90
3948.00,100.90
3947.00,100.90
3946.00,100.90
3945.00,100.90
3944.00,100.90
3943.00,100.90
3942.00,100.91
3941.00,100.91
3940.00,100.91
3939.00,100.91
3938.00,100.90
3937.00,100.90
3936.00,100.90
3935.00,100.90
3934.00,100.90
3933.00,100.90
3932.00,100.90
3931.00,100.90
3930.00,100.90
3929.00,100.90
3928.00,100.90
3927.00,100.90
3926.00,100.90
3925.00,100.90
3924.00,100.91
3923.00,100.91
3922.00,100.90
3921.00,100.90
3920.00,100.90
3919.00,100.90
3918.00,100.90
3917.00,100.90
3916.00,100.90
3915.00,100.90
3914.00,100.90
3913.00,100.90
3912.00,100.90
3911.00,100.90
3910.00,100.90
3909.00,100.90
3908.00,100.90
3907.00,100.89
3906.00,100.89
3905.00,100.90
3904.00,100.90
3903.00,100.90
3902.00,100.90
3901.00,100.90
3900.00,100.90
3899.00,100.91
3898.00,100.91
3897.00,100.91
3896.00,100.91
3895.00,100.90
3894.00,100.90
3893.00,100.90
3892.00,100.90
3891.00,100.90
3890.00,100.91
3889.00,100.91
3888.00,100.90
3887.00,100.89
3886.00,100.88
3885.00,100.90
3884.00,100.91
3883.00,100.90
3882.00,100.89
3881.00,100.89
3880.00,100.91
3879.00,100.92
3878.00,100.92
3877.00,100.91
3876.00,100.89
3875.00,100.89
3874.00,100.90
3873.00,100.91
3872.00,100.91
3871.00,100.89
3870.00,100.89
3869.00,100.90
3868.00,100.91
3867.00,100.91
3866.00,100.89
3865.00,100.89
3864.00,100.90
3863.00,100.91
3862.00,100.91
3861.00,100.90
3860.00,100.90
3859.00,100.90
3858.00,100.91
3857.00,100.93
3856.00,100.93
3855.00,100.92
3854.00,100.91
3853.00,100.91
3852.00,100.92
3851.00,100.91
3850.00,100.90
3849.00,100.90
3848.00,100.91
3847.00,100.91
3846.00,100.91
3845.00,100.90
3844.00,100.89
3843.00,100.88
3842.00,100.89
3841.00,100.90
3840.00,100.90
3839.00,100.89
3838.00,100.89
3837.00,100.90
3836.00,100.90
3835.00,100.90
3834.00,100.91
3833.00,100.91
3832.00,100.91
3831.00,100.91
3830.00,100.91
3829.00,100.90
3828.00,100.89
3827.00,100.89
3826.00,100.89
3825.00,100.90
3824.00,100.90
3823.00,100.89
3822.00,100.88
3821.00,100.89
3820.00,100.91
3819.00,100.92
3818.00,100.91
3817.00,100.89
3816.00,100.89
3815.00,100.91
3814.00,100.91
3813.00,100.91
3812.00,100.90
3811.00,100.90
3810.00,100.91
3809.00,100.91
3808.00,100.90
3807.00,100.89
3806.00,100.90
3805.00,100.91
3804.00,100.90
3803.00,100.89
3802.00,100.89
3801.00,100.90
3800.00,100.91
3799.00,100.90
3798.00,100.89
3797.00,100.89
3796.00,100.90
3795.00,100.91
3794.00,100.91
3793.00,100.90
3792.00,100.89
3791.00,100.89
3790.00,100.90
3789.00,100.90
3788.00,100.89
3787.00,100.89
3786.00,100.89
3785.00,100.89
3784.00,100.89
3783.00,100.89
3782.00,100.89
3781.00,100.89
3780.00,100.89
3779.00,100.90
3778.00,100.90
3777.00,100.90
3776.00,100.90
3775.00,100.89
3774.00,100.89
3773.00,100.90
3772.00,100.89
3771.00,100.89
3770.00,100.89
3769.00,100.90
3768.00,100.90
3767.00,100.89
3766.00,100.89
3765.00,100.89
3764.00,100.90
3763.00,100.90
3762.00,100.89
3761.00,100.88
3760.00,100.88
3759.00,100.89
3758.00,100.89
3757.00,100.89
3756.00,100.89
3755.00,100.90
3754.00,100.89
3753.00,100.89
3752.00,100.88
3751.00,100.88
3750.00,100.88
3749.00,100.88
3748.00,100.90
3747.00,100.91
3746.00,100.91
3745.00,100.90
3744.00,100.91
3743.00,100.91
3742.00,100.90
3741.00,100.88
3740.00,100.87
3739.00,100.88
3738.00,100.88
3737.00,100.87
3736.00,100.86
3735.00,100.87
3734.00,100.89
3733.00,100.89
3732.00,100.89
3731.00,100.90
3730.00,100.90
3729.00,100.90
3728.00,100.89
3727.00,100.88
3726.00,100.88
3725.00,100.89
3724.00,100.89
3723.00,100.88
3722.00,100.89
3721.00,100.90
3720.00,100.90
3719.00,100.90
3718.00,100.90
3717.00,100.90
3716.00,100.90
3715.00,100.90
3714.00,100.89
3713.00,100.88
3712.00,100.88
3711.00,100.89
3710.00,100.90
3709.00,100.90
3708.00,100.90
3707.00,100.90
3706.00,100.90
3705.00,100.90
3704.00,100.90
3703.00,100.89
3702.00,100.90
3701.00,100.90
3700.00,100.90
3699.00,100.90
3698.00,100.89
3697.00,100.89
3696.00,100.89
3695.00,100.89
3694.00,100.89
3693.00,100.88
3692.00,100.88
3691.00,100.89
3690.00,100.89
3689.00,100.89
3688.00,100.89
3687.00,100.89
3686.00,100.89
3685.00,100.89
3684.00,100.89
3683.00,100.89
3682.00,100.89
3681.00,100.89
3680.00,100.88
3679.00,100.88
3678.00,100.89
3677.00,100.88
3676.00,100.87
3675.00,100.89
3674.00,100.91
3673.00,100.91
3672.00,100.89
3671.00,100.88
3670.00,100.89
3669.00,100.91
3668.00,100.91
3667.00,100.91
3666.00,100.90
3665.00,100.90
3664.00,100.90
3663.00,100.90
3662.00,100.89
3661.00,100.89
3660.00,100.89
3659.00,100.89
3658.00,100.89
3657.00,100.89
3656.00,100.88
3655.00,100.89
3654.00,100.89
3653.00,100.88
3652.00,100.87
3651.00,100.87
3650.00,100.88
3649.00,100.89
3648.00,100.89
3647.00,100.89
3646.00,100.90
3645.00,100.90
3644.00,100.90
3643.00,100.90
3642.00,100.90
3641.00,100.90
3640.00,100.89
3639.00,100.89
3638.00,100.88
3637.00,100.88
3636.00,100.88
3635.00,100.88
3634.00,100.88
3633.00,100.88
3632.00,100.89
3631.00,100.88
3630.00,100.88
3629.00,100.88
3628.00,100.89
3627.00,100.90
3626.00,100.89
3625.00,100.88
3624.00,100.89
3623.00,100.90
3622.00,100.90
3621.00,100.89
3620.00,100.89
3619.00,100.89
3618.00,100.89
3617.00,100.89
3616.00,100.88
3615.00,100.88
3614.00,100.88
3613.00,100.89
3612.00,100.89
3611.00,100.89
3610.00,100.89
3609.00,100.88
3608.00,100.88
3607.00,100.89
3606.00,100.89
3605.00,100.89
3604.00,100.89
3603.00,100.88
3602.00,100.88
3601.00,100.88
3600.00,100.88
3599.00,100.88
3598.00,100.88
3597.00,100.88
3596.00,100.88
3595.00,100.88
3594.00,100.88
3593.00,100.88
3592.00,100.88
3591.00,100.88
3590.00,100.87
3589.00,100.87
3588.00,100.87
3587.00,100.88
3586.00,100.88
3585.00,100.88
3584.00,100.88
3583.00,100.88
3582.00,100.88
3581.00,100.88
3580.00,100.89
3579.00,100.89
3578.00,100.89
3577.00,100.88
3576.00,100.88
3575.00,100.88
3574.00,100.88
3573.00,100.88
3572.00,100.88
3571.00,100.87
3570.00,100.87
3569.00,100.86
3568.00,100.86
3567.00,100.87
3566.00,100.88
3565.00,100.88
3564.00,100.88
3563.00,100.88
3562.00,100.88
3561.00,100.89
3560.00,100.89
3559.00,100.89
3558.00,100.89
3557.00,100.89
3556.00,100.88
3555.00,100.88
3554.00,100.88
3553.00,100.88
3552.00,100.88
3551.00,100.88
3550.00,100.88
3549.00,100.88
3548.00,100.88
3547.00,100.88
3546.00,100.88
3545.00,100.89
3544.00,100.89
3543.00,100.89
3542.00,100.89
3541.00,100.89
3540.00,100.89
3539.00,100.89
3538.00,100.89
3537.00,100.89
3536.00,100.88
3535.00,100.88
3534.00,100.88
3533.00,100.88
3532.00,100.88
3531.00,100.88
3530.00,100.88
3529.00,100.88
3528.00,100.88
3527.00,100.88
3526.00,100.88
3525.00,100.88
3524.00,100.88
3523.00,100.88
3522.00,100.88
3521.00,100.88
3520.00,100.89
3519.00,100.89
3518.00,100.88
3517.00,100.88
3516.00,100.88
3515.00,100.88
3514.00,100.88
3513.00,100.88
3512.00,100.88
3511.00,100.88
3510.00,100.88
3509.00,100.88
3508.00,100.88
3507.00,100.88
3506.00,100.88
3505.00,100.88
3504.00,100.88
3503.00,100.88
3502.00,100.88
3501.00,100.88
3500.00,100.89
3499.00,100.89
3498.00,100.89
3497.00,100.89
3496.00,100.89
3495.00,100.89
3494.00,100.89
3493.00,100.89
3492.00,100.89
3491.00,100.88
3490.00,100.88
3489.00,100.88
3488.00,100.88
3487.00,100.88
3486.00,100.88
3485.00,100.88
3484.00,100.88
3483.00,100.88
3482.00,100.88
3481.00,100.88
3480.00,100.88
3479.00,100.88
3478.00,100.88
3477.00,100.88
3476.00,100.88
3475.00,100.88
3474.00,100.88
3473.00,100.88
3472.00,100.88
3471.00,100.88
3470.00,100.88
3469.00,100.88
3468.00,100.88
3467.00,100.88
3466.00,100.88
3465.00,100.88
3464.00,100.88
3463.00,100.88
3462.00,100.88
3461.00,100.88
3460.00,100.88
3459.00,100.88
3458.00,100.88
3457.00,100.88
3456.00,100.88
3455.00,100.88
3454.00,100.89
3453.00,100.89
3452.00,100.89
3451.00,100.89
3450.00,100.88
3449.00,100.88
3448.00,100.88
3447.00,100.88
3446.00,100.88
3445.00,100.89
3444.00,100.89
3443.00,100.89
3442.00,100.89
3441.00,100.89
3440.00,100.89
3439.00,100.89
3438.00,100.89
3437.00,100.89
3436.00,100.89
3435.00,100.88
3434.00,100.88
3433.00,100.88
3432.00,100.88
3431.00,100.88
3430.00,100.88
3429.00,100.88
3428.00,100.88
3427.00,100.88
3426.00,100.88
3425.00,100.88
3424.00,100.88
3423.00,100.88
3422.00,100.88
3421.00,100.88
3420.00,100.88
3419.00,100.88
3418.00,100.88
3417.00,100.88
3416.00,100.88
3415.00,100.88
3414.00,100.88
3413.00,100.88
3412.00,100.88
3411.00,100.88
3410.00,100.88
3409.00,100.88
3408.00,100.88
3407.00,100.88
3406.00,100.88
3405.00,100.88
3404.00,100.88
3403.00,100.88
3402.00,100.88
3401.00,100.88
3400.00,100.88
3399.00,100.88
3398.00,100.88
3397.00,100.88
3396.00,100.89
3395.00,100.89
3394.00,100.89
3393.00,100.89
3392.00,100.89
3391.00,100.89
3390.00,100.89
3389.00,100.89
3388.00,100.89
3387.00,100.89
3386.00,100.89
3385.00,100.89
3384.00,100.89
3383.00,100.89
3382.00,100.88
3381.00,100.88
3380.00,100.88
3379.00,100.88
3378.00,100.88
3377.00,100.88
3376.00,100.88
3375.00,100.88
3374.00,100.88
3373.00,100.88
3372.00,100.88
3371.00,100.88
3370.00,100.88
3369.00,100.88
3368.00,100.88
3367.00,100.88
3366.00,100.88
3365.00,100.88
3364.00,100.88
3363.00,100.88
3362.00,100.88
3361.00,100.88
3360.00,100.88
3359.00,100.88
3358.00,100.88
3357.00,100.88
3356.00,100.88
3355.00,100.89
3354.00,100.89
3353.00,100.89
3352.00,100.89
3351.00,100.89
3350.00,100.89
3349.00,100.89
3348.00,100.89
3347.00,100.89
3346.00,100.89
3345.00,100.89
3344.00,100.89
3343.00,100.89
3342.00,100.89
3341.00,100.89
3340.00,100.89
3339.00,100.89
3338.00,100.89
3337.00,100.89
3336.00,100.89
3335.00,100.89
3334.00,100.89
3333.00,100.89
3332.00,100.89
3331.00,100.89
3330.00,100.89
3329.00,100.89
3328.00,100.89
3327.00,100.89
3326.00,100.88
3325.00,100.88
3324.00,100.88
3323.00,100.88
3322.00,100.88
3321.00,100.88
3320.00,100.89
3319.00,100.89
3318.00,100.89
3317.00,100.89
3316.00,100.89
3315.00,100.89
3314.00,100.89
3313.00,100.88
3312.00,100.88
3311.00,100.88
3310.00,100.88
3309.00,100.88
3308.00,100.89
3307.00,100.89
3306.00,100.89
3305.00,100.89
3304.00,100.89
3303.00,100.89
3302.00,100.89
3301.00,100.89
3300.00,100.89
3299.00,100.89
3298.00,100.89
3297.00,100.89
3296.00,100.89
3295.00,100.89
3294.00,100.89
3293.00,100.89
3292.00,100.89
3291.00,100.89
3290.00,100.89
3289.00,100.89
3288.00,100.89
3287.00,100.89
3286.00,100.89
3285.00,100.89
3284.00,100.89
3283.00,100.89
3282.00,100.89
3281.00,100.89
3280.00,100.89
3279.00,100.89
3278.00,100.89
3277.00,100.89
3276.00,100.89
3275.00,100.89
3274.00,100.88
3273.00,100.88
3272.00,100.88
3271.00,100.89
3270.00,100.89
3269.00,100.89
3268.00,100.89
3267.00,100.89
3266.00,100.89
3265.00,100.89
3264.00,100.89
3263.00,100.89
3262.00,100.89
3261.00,100.89
3260.00,100.89
3259.00,100.89
3258.00,100.89
3257.00,100.89
3256.00,100.89
3255.00,100.89
3254.00,100.89
3253.00,100.89
3252.00,100.89
3251.00,100.89
3250.00,100.89
3249.00,100.89
3248.00,100.89
3247.00,100.89
3246.00,100.89
3245.00,100.89
3244.00,100.89
3243.00,100.89
3242.00,100.89
3241.00,100.89
3240.00,100.89
3239.00,100.89
3238.00,100.89
3237.00,100.89
3236.00,100.89
3235.00,100.89
3234.00,100.89
3233.00,100.89
3232.00,100.89
3231.00,100.89
3230.00,100.89
3229.00,100.89
3228.00,100.89
3227.00,100.89
3226.00,100.89
3225.00,100.89
3224.00,100.89
3223.00,100.89
3222.00,100.89
3221.00,100.89
3220.00,100.89
3219.00,100.89
3218.00,100.89
3217.00,100.89
3216.00,100.89
3215.00,100.89
3214.00,100.89
3213.00,100.89
3212.00,100.89
3211.00,100.89
3210.00,100.89
3209.00,100.89
3208.00,100.89
3207.00,100.89
3206.00,100.89
3205.00,100.89
3204.00,100.89
3203.00,100.89
3202.00,100.89
3201.00,100.89
3200.00,100.89
3199.00,100.89
3198.00,100.89
3197.00,100.89
3196.00,100.89
3195.00,100.89
3194.00,100.89
3193.00,100.89
3192.00,100.89
3191.00,100.89
3190.00,100.89
3189.00,100.89
3188.00,100.89
3187.00,100.89
3186.00,100.89
3185.00,100.89
3184.00,100.89
3183.00,100.89
3182.00,100.89
3181.00,100.89
3180.00,100.90
3179.00,100.90
3178.00,100.90
3177.00,100.90
3176.00,100.90
3175.00,100.89
3174.00,100.89
3173.00,100.90
3172.00,100.90
3171.00,100.90
3170.00,100.89
3169.00,100.89
3168.00,100.89
3167.00,100.89
3166.00,100.89
3165.00,100.89
3164.00,100.89
3163.00,100.89
3162.00,100.89
3161.00,100.89
3160.00,100.89
3159.00,100.89
3158.00,100.89
3157.00,100.89
3156.00,100.89
3155.00,100.89
3154.00,100.89
3153.00,100.89
3152.00,100.89
3151.00,100.89
3150.00,100.89
3149.00,100.89
3148.00,100.89
3147.00,100.89
3146.00,100.89
3145.00,100.89
3144.00,100.89
3143.00,100.89
3142.00,100.89
3141.00,100.89
3140.00,100.89
3139.00,100.89
3138.00,100.89
3137.00,100.89
3136.00,100.89
3135.00,100.89
3134.00,100.89
3133.00,100.89
3132.00,100.89
3131.00,100.89
3130.00,100.89
3129.00,100.89
3128.00,100.89
3127.00,100.89
3126.00,100.90
3125.00,100.90
3124.00,100.90
3123.00,100.89
3122.00,100.89
3121.00,100.89
3120.00,100.89
3119.00,100.89
3118.00,100.89
3117.00,100.89
3116.00,100.89
3115.00,100.89
3114.00,100.89
3113.00,100.89
3112.00,100.89
3111.00,100.89
3110.00,100.89
3109.00,100.89
3108.00,100.89
3107.00,100.89
3106.00,100.89
3105.00,100.89
3104.00,100.89
3103.00,100.89
3102.00,100.89
3101.00,100.89
3100.00,100.88
3099.00,100.88
3098.00,100.89
3097.00,100.89
3096.00,100.89
3095.00,100.89
3094.00,100.89
3093.00,100.89
3092.00,100.89
3091.00,100.89
3090.00,100.89
3089.00,100.89
3088.00,100.89
3087.00,100.89
3086.00,100.89
3085.00,100.89
3084.00,100.89
3083.00,100.89
3082.00,100.89
3081.00,100.89
3080.00,100.90
3079.00,100.90
3078.00,100.90
3077.00,100.90
3076.00,100.90
3075.00,100.90
3074.00,100.90
3073.00,100.90
3072.00,100.90
3071.00,100.90
3070.00,100.90
3069.00,100.90
3068.00,100.90
3067.00,100.90
3066.00,100.90
3065.00,100.90
3064.00,100.90
3063.00,100.90
3062.00,100.90
3061.00,100.90
3060.00,100.90
3059.00,100.90
3058.00,100.90
3057.00,100.90
3056.00,100.90
3055.00,100.89
3054.00,100.89
3053.00,100.89
3052.00,100.89
3051.00,100.89
3050.00,100.89
3049.00,100.89
3048.00,100.89
3047.00,100.89
3046.00,100.89
3045.00,100.89
3044.00,100.89
3043.00,100.89
3042.00,100.89
3041.00,100.89
3040.00,100.89
3039.00,100.89
3038.00,100.89
3037.00,100.89
3036.00,100.89
3035.00,100.89
3034.00,100.89
3033.00,100.89
3032.00,100.89
3031.00,100.89
3030.00,100.89
3029.00,100.89
3028.00,100.89
3027.00,100.89
3026.00,100.89
3025.00,100.89
3024.00,100.89
3023.00,100.89
3022.00,100.89
3021.00,100.89
3020.00,100.89
3019.00,100.89
3018.00,100.89
3017.00,100.89
3016.00,100.89
3015.00,100.89
3014.00,100.89
3013.00,100.89
3012.00,100.89
3011.00,100.89
3010.00,100.89
3009.00,100.89
3008.00,100.89
3007.00,100.89
3006.00,100.89
3005.00,100.89
3004.00,100.89
3003.00,100.89
3002.00,100.89
3001.00,100.89
3000.00,100.89
2999.00,100.89
2998.00,100.89
2997.00,100.89
2996.00,100.89
2995.00,100.89
2994.00,100.89
2993.00,100.89
2992.00,100.89
2991.00,100.89
2990.00,100.89
2989.00,100.89
2988.00,100.89
2987.00,100.89
2986.00,100.89
2985.00,100.89
2984.00,100.89
2983.00,100.89
2982.00,100.89
2981.00,100.89
2980.00,100.89
2979.00,100.89
2978.00,100.89
2977.00,100.89
2976.00,100.89
2975.00,100.89
2974.00,100.89
2973.00,100.89
2972.00,100.89
2971.00,100.90
2970.00,100.90
2969.00,100.90
2968.00,100.90
2967.00,100.90
2966.00,100.90
2965.00,100.90
2964.00,100.90
2963.00,100.90
2962.00,100.90
2961.00,100.90
2960.00,100.90
2959.00,100.90
2958.00,100.90
2957.00,100.90
2956.00,100.89
2955.00,100.89
2954.00,100.89
2953.00,100.89
2952.00,100.89
2951.00,100.89
2950.00,100.89
2949.00,100.89
2948.00,100.89
2947.00,100.89
2946.00,100.89
2945.00,100.89
2944.00,100.89
2943.00,100.89
2942.00,100.89
2941.00,100.89
2940.00,100.89
2939.00,100.89
2938.00,100.89
2937.00,100.89
2936.00,100.89
2935.00,100.88
2934.00,100.88
2933.00,100.89
2932.00,100.89
2931.00,100.89
2930.00,100.89
2929.00,100.89
2928.00,100.89
2927.00,100.89
2926.00,100.89
2925.00,100.89
2924.00,100.89
2923.00,100.89
2922.00,100.89
2921.00,100.89
2920.00,100.89
2919.00,100.89
2918.00,100.89
2917.00,100.89
2916.00,100.89
2915.00,100.89
2914.00,100.89
2913.00,100.89
2912.00,100.89
2911.00,100.89
2910.00,100.89
2909.00,100.89
2908.00,100.90
2907.00,100.90
2906.00,100.90
2905.00,100.90
2904.00,100.90
2903.00,100.89
2902.00,100.89
2901.00,100.89
2900.00,100.89
2899.00,100.89
2898.00,100.89
2897.00,100.89
2896.00,100.89
2895.00,100.89
2894.00,100.89
2893.00,100.89
2892.00,100.89
2891.00,100.89
2890.00,100.89
2889.00,100.89
2888.00,100.89
2887.00,100.89
2886.00,100.89
2885.00,100.89
2884.00,100.89
2883.00,100.89
2882.00,100.89
2881.00,100.89
2880.00,100.89
2879.00,100.89
2878.00,100.89
2877.00,100.89
2876.00,100.89
2875.00,100.89
2874.00,100.89
2873.00,100.90
2872.00,100.90
2871.00,100.90
2870.00,100.90
2869.00,100.90
2868.00,100.90
2867.00,100.90
2866.00,100.90
2865.00,100.90
2864.00,100.90
2863.00,100.90
2862.00,100.90
2861.00,100.90
2860.00,100.90
2859.00,100.90
2858.00,100.90
2857.00,100.90
2856.00,100.90
2855.00,100.90
2854.00,100.90
2853.00,100.90
2852.00,100.90
2851.00,100.90
2850.00,100.89
2849.00,100.89
2848.00,100.89
2847.00,100.89
2846.00,100.89
2845.00,100.89
2844.00,100.89
2843.00,100.89
2842.00,100.89
2841.00,100.89
2840.00,100.89
2839.00,100.89
2838.00,100.89
2837.00,100.89
2836.00,100.89
2835.00,100.89
2834.00,100.89
2833.00,100.89
2832.00,100.89
2831.00,100.89
2830.00,100.89
2829.00,100.89
2828.00,100.89
2827.00,100.89
2826.00,100.89
2825.00,100.89
2824.00,100.89
2823.00,100.89
2822.00,100.89
2821.00,100.89
2820.00,100.89
2819.00,100.89
2818.00,100.89
2817.00,100.90
2816.00,100.90
2815.00,100.90
2814.00,100.90
2813.00,100.90
2812.00,100.90
2811.00,100.90
2810.00,100.90
2809.00,100.90
2808.00,100.90
2807.00,100.90
2806.00,100.90
2805.00,100.90
2804.00,100.90
2803.00,100.90
2802.00,100.90
2801.00,100.90
2800.00,100.90
2799.00,100.90
2798.00,100.90
2797.00,100.90
2796.00,100.90
2795.00,100.90
2794.00,100.90
2793.00,100.90
2792.00,100.90
2791.00,100.90
2790.00,100.90
2789.00,100.90
2788.00,100.90
2787.00,100.90
2786.00,100.89
2785.00,100.89
2784.00,100.89
2783.00,100.89
2782.00,100.89
2781.00,100.89
2780.00,100.89
2779.00,100.89
2778.00,100.89
2777.00,100.89
2776.00,100.89
2775.00,100.89
2774.00,100.89
2773.00,100.89
2772.00,100.89
2771.00,100.89
2770.00,100.89
2769.00,100.89
2768.00,100.89
2767.00,100.89
2766.00,100.89
2765.00,100.89
2764.00,100.89
2763.00,100.89
2762.00,100.90
2761.00,100.90
2760.00,100.90
2759.00,100.90
2758.00,100.90
2757.00,100.90
2756.00,100.90
2755.00,100.90
2754.00,100.90
2753.00,100.90
2752.00,100.90
2751.00,100.90
2750.00,100.90
2749.00,100.90
2748.00,100.90
2747.00,100.90
2746.00,100.90
2745.00,100.90
2744.00,100.90
2743.00,100.90
2742.00,100.90
2741.00,100.89
2740.00,100.89
2739.00,100.89
2738.00,100.89
2737.00,100.90
2736.00,100.89
2735.00,100.89
2734.00,100.89
2733.00,100.89
2732.00,100.89
2731.00,100.89
2730.00,100.89
2729.00,100.89
2728.00,100.89
2727.00,100.89
2726.00,100.89
2725.00,100.89
2724.00,100.89
2723.00,100.89
2722.00,100.89
2721.00,100.89
2720.00,100.89
2719.00,100.89
2718.00,100.89
2717.00,100.89
2716.00,100.89
2715.00,100.89
2714.00,100.90
2713.00,100.90
2712.00,100.90
2711.00,100.90
2710.00,100.90
2709.00,100.90
2708.00,100.90
2707.00,100.90
2706.00,100.90
2705.00,100.90
2704.00,100.90
2703.00,100.90
2702.00,100.90
2701.00,100.90
2700.00,100.90
2699.00,100.90
2698.00,100.90
2697.00,100.90
2696.00,100.90
2695.00,100.90
2694.00,100.90
2693.00,100.90
2692.00,100.90
2691.00,100.90
2690.00,100.90
2689.00,100.90
2688.00,100.90
2687.00,100.90
2686.00,100.90
2685.00,100.90
2684.00,100.90
2683.00,100.90
2682.00,100.89
2681.00,100.89
2680.00,100.89
2679.00,100.89
2678.00,100.89
2677.00,100.89
2676.00,100.89
2675.00,100.89
2674.00,100.89
2673.00,100.89
2672.00,100.89
2671.00,100.89
2670.00,100.89
2669.00,100.89
2668.00,100.89
2667.00,100.89
2666.00,100.89
2665.00,100.89
2664.00,100.89
2663.00,100.89
2662.00,100.89
2661.00,100.89
2660.00,100.89
2659.00,100.89
2658.00,100.89
2657.00,100.90
2656.00,100.90
2655.00,100.90
2654.00,100.90
2653.00,100.90
2652.00,100.90
2651.00,100.90
2650.00,100.90
2649.00,100.90
2648.00,100.90
2647.00,100.90
2646.00,100.90
2645.00,100.90
2644.00,100.90
2643.00,100.90
2642.00,100.90
2641.00,100.90
2640.00,100.90
2639.00,100.90
2638.00,100.90
2637.00,100.90
2636.00,100.90
2635.00,100.90
2634.00,100.90
2633.00,100.90
2632.00,100.90
2631.00,100.90
2630.00,100.90
2629.00,100.90
2628.00,100.90
2627.00,100.90
2626.00,100.90
2625.00,100.89
2624.00,100.89
2623.00,100.89
2622.00,100.89
2621.00,100.89
2620.00,100.89
2619.00,100.89
2618.00,100.90
2617.00,100.90
2616.00,100.89
2615.00,100.89
2614.00,100.89
2613.00,100.89
2612.00,100.89
2611.00,100.89
2610.00,100.90
2609.00,100.90
2608.00,100.90
2607.00,100.90
2606.00,100.90
2605.00,100.90
2604.00,100.90
2603.00,100.90
2602.00,100.90
2601.00,100.90
2600.00,100.90
2599.00,100.90
2598.00,100.90
2597.00,100.90
2596.00,100.90
2595.00,100.90
2594.00,100.90
2593.00,100.90
2592.00,100.90
2591.00,100.90
2590.00,100.90
2589.00,100.90
2588.00,100.90
2587.00,100.90
2586.00,100.90
2585.00,100.90
2584.00,100.90
2583.00,100.90
2582.00,100.90
2581.00,100.90
2580.00,100.90
2579.00,100.90
2578.00,100.90
2577.00,100.90
2576.00,100.90
2575.00,100.90
2574.00,100.89
2573.00,100.89
2572.00,100.89
2571.00,100.89
2570.00,100.89
2569.00,100.89
2568.00,100.89
2567.00,100.89
2566.00,100.89
2565.00,100.89
2564.00,100.89
2563.00,100.89
2562.00,100.89
2561.00,100.89
2560.00,100.89
2559.00,100.89
2558.00,100.89
2557.00,100.89
2556.00,100.89
2555.00,100.89
2554.00,100.89
2553.00,100.89
2552.00,100.89
2551.00,100.89
2550.00,100.89
2549.00,100.89
2548.00,100.89
2547.00,100.89
2546.00,100.89
2545.00,100.90
2544.00,100.90
2543.00,100.90
2542.00,100.90
2541.00,100.90
2540.00,100.90
2539.00,100.90
2538.00,100.90
2537.00,100.90
2536.00,100.90
2535.00,100.90
2534.00,100.90
2533.00,100.90
2532.00,100.90
2531.00,100.90
2530.00,100.90
2529.00,100.90
2528.00,100.90
2527.00,100.90
2526.00,100.90
2525.00,100.90
2524.00,100.90
2523.00,100.90
2522.00,100.90
2521.00,100.89
2520.00,100.89
2519.00,100.89
2518.00,100.89
2517.00,100.89
2516.00,100.89
2515.00,100.89
2514.00,100.89
2513.00,100.89
2512.00,100.89
2511.00,100.89
2510.00,100.89
2509.00,100.89
2508.00,100.89
2507.00,100.89
2506.00,100.89
2505.00,100.89
2504.00,100.89
2503.00,100.89
2502.00,100.89
2501.00,100.89
2500.00,100.89
2499.00,100.89
2498.00,100.89
2497.00,100.89
2496.00,100.89
2495.00,100.89
2494.00,100.89
2493.00,100.89
2492.00,100.90
2491.00,100.90
2490.00,100.90
2489.00,100.90
2488.00,100.90
2487.00,100.90
2486.00,100.90
2485.00,100.90
2484.00,100.90
2483.00,100.90
2482.00,100.90
2481.00,100.90
2480.00,100.90
2479.00,100.90
2478.00,100.90
2477.00,100.90
2476.00,100.90
2475.00,100.90
2474.00,100.90
2473.00,100.90
2472.00,100.90
2471.00,100.90
2470.00,100.90
2469.00,100.90
2468.00,100.89
2467.00,100.89
2466.00,100.89
2465.00,100.89
2464.00,100.89
2463.00,100.89
2462.00,100.89
2461.00,100.89
2460.00,100.89
2459.00,100.89
2458.00,100.89
2457.00,100.89
2456.00,100.89
2455.00,100.89
2454.00,100.89
2453.00,100.89
2452.00,100.89
2451.00,100.89
2450.00,100.89
2449.00,100.89
2448.00,100.89
2447.00,100.89
2446.00,100.89
2445.00,100.89
2444.00,100.89
2443.00,100.90
2442.00,100.90
2441.00,100.90
2440.00,100.90
2439.00,100.90
2438.00,100.90
2437.00,100.90
2436.00,100.90
2435.00,100.90
2434.00,100.90
2433.00,100.90
2432.00,100.90
2431.00,100.90
2430.00,100.90
2429.00,100.90
2428.00,100.90
2427.00,100.90
2426.00,100.90
2425.00,100.90
2424.00,100.90
2423.00,100.90
2422.00,100.90
2421.00,100.90
2420.00,100.89
2419.00,100.89
2418.00,100.89
2417.00,100.90
2416.00,100.90
2415.00,100.90
2414.00,100.89
2413.00,100.89
2412.00,100.89
2411.00,100.89
2410.00,100.89
2409.00,100.89
2408.00,100.89
2407.00,100.89
2406.00,100.89
2405.00,100.89
2404.00,100.89
2403.00,100.89
2402.00,100.89
2401.00,100.89
2400.00,100.89
2399.00,100.89
2398.00,100.89
2397.00,100.89
2396.00,100.89
2395.00,100.89
2394.00,100.89
2393.00,100.89
2392.00,100.89
2391.00,100.89
2390.00,100.89
2389.00,100.89
2388.00,100.90
2387.00,100.90
2386.00,100.90
2385.00,100.90
2384.00,100.90
2383.00,100.90
2382.00,100.90
2381.00,100.90
2380.00,100.90
2379.00,100.90
2378.00,100.90
2377.00,100.90
2376.00,100.90
2375.00,100.90
2374.00,100.90
2373.00,100.90
2372.00,100.90
2371.00,100.89
2370.00,100.89
2369.00,100.89
2368.00,100.89
2367.00,100.89
2366.00,100.89
2365.00,100.89
2364.00,100.89
2363.00,100.89
2362.00,100.90
2361.00,100.90
2360.00,100.89
2359.00,100.89
2358.00,100.88
2357.00,100.88
2356.00,100.88
2355.00,100.88
2354.00,100.89
2353.00,100.90
2352.00,100.90
2351.00,100.88
2350.00,100.87
2349.00,100.87
2348.00,100.88
2347.00,100.90
2346.00,100.91
2345.00,100.90
2344.00,100.90
2343.00,100.89
2342.00,100.89
2341.00,100.90
2340.00,100.90
2339.00,100.90
2338.00,100.90
2337.00,100.90
2336.00,100.90
2335.00,100.90
2334.00,100.90
2333.00,100.90
2332.00,100.90
2331.00,100.90
2330.00,100.90
2329.00,100.89
2328.00,100.89
2327.00,100.89
2326.00,100.89
2325.00,100.89
2324.00,100.89
2323.00,100.89
2322.00,100.89
2321.00,100.89
2320.00,100.89
2319.00,100.89
2318.00,100.89
2317.00,100.89
2316.00,100.89
2315.00,100.89
2314.00,100.89
2313.00,100.89
2312.00,100.89
2311.00,100.89
2310.00,100.88
2309.00,100.88
2308.00,100.88
2307.00,100.88
2306.00,100.88
2305.00,100.88
2304.00,100.88
2303.00,100.88
2302.00,100.88
2301.00,100.88
2300.00,100.88
2299.00,100.88
2298.00,100.88
2297.00,100.88
2296.00,100.88
2295.00,100.88
2294.00,100.89
2293.00,100.89
2292.00,100.89
2291.00,100.89
2290.00,100.89
2289.00,100.89
2288.00,100.89
2287.00,100.89
2286.00,100.89
2285.00,100.89
2284.00,100.89
2283.00,100.89
2282.00,100.89
2281.00,100.89
2280.00,100.89
2279.00,100.90
2278.00,100.90
2277.00,100.90
2276.00,100.90
2275.00,100.90
2274.00,100.90
2273.00,100.90
2272.00,100.90
2271.00,100.90
2270.00,100.90
2269.00,100.90
2268.00,100.90
2267.00,100.90
2266.00,100.90
2265.00,100.90
2264.00,100.90
2263.00,100.90
2262.00,100.90
2261.00,100.90
2260.00,100.90
2259.00,100.90
2258.00,100.90
2257.00,100.90
2256.00,100.90
2255.00,100.90
2254.00,100.90
2253.00,100.89
2252.00,100.89
2251.00,100.89
2250.00,100.89
2249.00,100.89
2248.00,100.89
2247.00,100.89
2246.00,100.89
2245.00,100.89
2244.00,100.89
2243.00,100.89
2242.00,100.89
2241.00,100.89
2240.00,100.89
2239.00,100.89
2238.00,100.89
2237.00,100.89
2236.00,100.89
2235.00,100.89
2234.00,100.89
2233.00,100.89
2232.00,100.89
2231.00,100.89
2230.00,100.89
2229.00,100.89
2228.00,100.89
2227.00,100.89
2226.00,100.89
2225.00,100.89
2224.00,100.90
2223.00,100.90
2222.00,100.90
2221.00,100.90
2220.00,100.90
2219.00,100.90
2218.00,100.90
2217.00,100.90
2216.00,100.90
2215.00,100.90
2214.00,100.90
2213.00,100.90
2212.00,100.90
2211.00,100.90
2210.00,100.90
2209.00,100.90
2208.00,100.90
2207.00,100.90
2206.00,100.90
2205.00,100.89
2204.00,100.89
2203.00,100.89
2202.00,100.89
2201.00,100.89
2200.00,100.89
2199.00,100.89
2198.00,100.89
2197.00,100.89
2196.00,100.89
2195.00,100.89
2194.00,100.89
2193.00,100.89
2192.00,100.89
2191.00,100.89
2190.00,100.89
2189.00,100.89
2188.00,100.89
2187.00,100.89
2186.00,100.89
2185.00,100.89
2184.00,100.89
2183.00,100.89
2182.00,100.89
2181.00,100.89
2180.00,100.89
2179.00,100.89
2178.00,100.89
2177.00,100.89
2176.00,100.89
2175.00,100.89
2174.00,100.89
2173.00,100.90
2172.00,100.90
2171.00,100.90
2170.00,100.90
2169.00,100.90
2168.00,100.90
2167.00,100.90
2166.00,100.90
2165.00,100.90
2164.00,100.90
2163.00,100.90
2162.00,100.90
2161.00,100.90
2160.00,100.90
2159.00,100.90
2158.00,100.90
2157.00,100.90
2156.00,100.90
2155.00,100.90
2154.00,100.90
2153.00,100.90
2152.00,100.90
2151.00,100.90
2150.00,100.89
2149.00,100.89
2148.00,100.89
2147.00,100.89
2146.00,100.89
2145.00,100.89
2144.00,100.89
2143.00,100.89
2142.00,100.89
2141.00,100.89
2140.00,100.89
2139.00,100.89
2138.00,100.89
2137.00,100.89
2136.00,100.89
2135.00,100.89
2134.00,100.89
2133.00,100.89
2132.00,100.89
2131.00,100.89
2130.00,100.89
2129.00,100.88
2128.00,100.89
2127.00,100.89
2126.00,100.89
2125.00,100.89
2124.00,100.89
2123.00,100.89
2122.00,100.89
2121.00,100.89
2120.00,100.89
2119.00,100.89
2118.00,100.89
2117.00,100.90
2116.00,100.90
2115.00,100.90
2114.00,100.90
2113.00,100.90
2112.00,100.90
2111.00,100.90
2110.00,100.90
2109.00,100.90
2108.00,100.90
2107.00,100.90
2106.00,100.90
2105.00,100.90
2104.00,100.90
2103.00,100.90
2102.00,100.90
2101.00,100.90
2100.00,100.90
2099.00,100.90
2098.00,100.90
2097.00,100.90
2096.00,100.90
2095.00,100.90
2094.00,100.89
2093.00,100.89
2092.00,100.89
2091.00,100.89
2090.00,100.89
2089.00,100.89
2088.00,100.89
2087.00,100.89
2086.00,100.89
2085.00,100.89
2084.00,100.89
2083.00,100.89
2082.00,100.89
2081.00,100.89
2080.00,100.89
2079.00,100.89
2078.00,100.89
2077.00,100.89
2076.00,100.89
2075.00,100.89
2074.00,100.89
2073.00,100.89
2072.00,100.89
2071.00,100.89
2070.00,100.90
2069.00,100.90
2068.00,100.89
2067.00,100.89
2066.00,100.89
2065.00,100.90
2064.00,100.90
2063.00,100.90
2062.00,100.90
2061.00,100.90
2060.00,100.90
2059.00,100.90
2058.00,100.90
2057.00,100.90
2056.00,100.90
2055.00,100.90
2054.00,100.90
2053.00,100.90
2052.00,100.90
2051.00,100.90
2050.00,100.90
2049.00,100.90
2048.00,100.90
2047.00,100.90
2046.00,100.89
2045.00,100.89
2044.00,100.89
2043.00,100.89
2042.00,100.89
2041.00,100.89
2040.00,100.89
2039.00,100.89
2038.00,100.89
2037.00,100.89
2036.00,100.89
2035.00,100.89
2034.00,100.89
2033.00,100.89
2032.00,100.89
2031.00,100.89
2030.00,100.89
2029.00,100.89
2028.00,100.89
2027.00,100.89
2026.00,100.89
2025.00,100.89
2024.00,100.89
2023.00,100.89
2022.00,100.89
2021.00,100.89
2020.00,100.89
2019.00,100.89
2018.00,100.89
2017.00,100.89
2016.00,100.90
2015.00,100.90
2014.00,100.90
2013.00,100.90
2012.00,100.90
2011.00,100.90
2010.00,100.90
2009.00,100.90
2008.00,100.90
2007.00,100.90
2006.00,100.90
2005.00,100.90
2004.00,100.90
2003.00,100.90
2002.00,100.90
2001.00,100.90
2000.00,100.90
1999.00,100.90
1998.00,100.90
1997.00,100.90
1996.00,100.90
1995.00,100.90
1994.00,100.90
1993.00,100.90
1992.00,100.90
1991.00,100.90
1990.00,100.90
1989.00,100.90
1988.00,100.90
1987.00,100.90
1986.00,100.90
1985.00,100.89
1984.00,100.89
1983.00,100.89
1982.00,100.89
1981.00,100.89
1980.00,100.89
1979.00,100.89
1978.00,100.89
1977.00,100.89
1976.00,100.89
1975.00,100.89
1974.00,100.89
1973.00,100.89
1972.00,100.89
1971.00,100.89
1970.00,100.89
1969.00,100.89
1968.00,100.89
1967.00,100.89
1966.00,100.89
1965.00,100.89
1964.00,100.89
1963.00,100.89
1962.00,100.90
1961.00,100.90
1960.00,100.90
1959.00,100.89
1958.00,100.89
1957.00,100.89
1956.00,100.89
1955.00,100.90
1954.00,100.90
1953.00,100.90
1952.00,100.90
1951.00,100.90
1950.00,100.90
1949.00,100.90
1948.00,100.90
1947.00,100.90
1946.00,100.90
1945.00,100.90
1944.00,100.90
1943.00,100.90
1942.00,100.90
1941.00,100.90
1940.00,100.90
1939.00,100.90
1938.00,100.90
1937.00,100.89
1936.00,100.89
1935.00,100.89
1934.00,100.89
1933.00,100.89
1932.00,100.89
1931.00,100.89
1930.00,100.89
1929.00,100.89
1928.00,100.89
1927.00,100.89
1926.00,100.89
1925.00,100.89
1924.00,100.89
1923.00,100.89
1922.00,100.89
1921.00,100.89
1920.00,100.89
1919.00,100.89
1918.00,100.89
1917.00,100.89
1916.00,100.89
1915.00,100.89
1914.00,100.89
1913.00,100.89
1912.00,100.89
1911.00,100.89
1910.00,100.90
1909.00,100.90
1908.00,100.90
1907.00,100.90
1906.00,100.90
1905.00,100.90
1904.00,100.90
1903.00,100.90
1902.00,100.90
1901.00,100.90
1900.00,100.90
1899.00,100.90
1898.00,100.90
1897.00,100.90
1896.00,100.90
1895.00,100.90
1894.00,100.90
1893.00,100.90
1892.00,100.90
1891.00,100.90
1890.00,100.90
1889.00,100.90
1888.00,100.90
1887.00,100.90
1886.00,100.90
1885.00,100.90
1884.00,100.90
1883.00,100.90
1882.00,100.90
1881.00,100.90
1880.00,100.90
1879.00,100.90
1878.00,100.89
1877.00,100.89
1876.00,100.89
1875.00,100.89
1874.00,100.89
1873.00,100.89
1872.00,100.89
1871.00,100.89
1870.00,100.89
1869.00,100.89
1868.00,100.89
1867.00,100.89
1866.00,100.89
1865.00,100.89
1864.00,100.90
1863.00,100.90
1862.00,100.90
1861.00,100.90
1860.00,100.89
1859.00,100.89
1858.00,100.89
1857.00,100.89
1856.00,100.89
1855.00,100.89
1854.00,100.89
1853.00,100.89
1852.00,100.89
1851.00,100.89
1850.00,100.89
1849.00,100.89
1848.00,100.89
1847.00,100.90
1846.00,100.90
1845.00,100.90
1844.00,100.90
1843.00,100.90
1842.00,100.90
1841.00,100.90
1840.00,100.91
1839.00,100.91
1838.00,100.90
1837.00,100.90
1836.00,100.90
1835.00,100.90
1834.00,100.90
1833.00,100.90
1832.00,100.90
1831.00,100.90
1830.00,100.90
1829.00,100.90
1828.00,100.90
1827.00,100.90
1826.00,100.90
1825.00,100.90
1824.00,100.90
1823.00,100.90
1822.00,100.89
1821.00,100.89
1820.00,100.89
1819.00,100.89
1818.00,100.89
1817.00,100.89
1816.00,100.89
1815.00,100.89
1814.00,100.89
1813.00,100.89
1812.00,100.89
1811.00,100.89
1810.00,100.89
1809.00,100.89
1808.00,100.89
1807.00,100.89
1806.00,100.89
1805.00,100.89
1804.00,100.89
1803.00,100.89
1802.00,100.89
1801.00,100.89
1800.00,100.89
1799.00,100.89
1798.00,100.89
1797.00,100.89
1796.00,100.89
1795.00,100.89
1794.00,100.89
1793.00,100.89
1792.00,100.89
1791.00,100.90
1790.00,100.90
1789.00,100.90
1788.00,100.90
1787.00,100.90
1786.00,100.90
1785.00,100.90
1784.00,100.90
1783.00,100.90
1782.00,100.90
1781.00,100.90
1780.00,100.90
1779.00,100.89
1778.00,100.89
1777.00,100.89
1776.00,100.89
1775.00,100.89
1774.00,100.89
1773.00,100.89
1772.00,100.89
1771.00,100.89
1770.00,100.89
1769.00,100.89
1768.00,100.89
1767.00,100.89
1766.00,100.88
1765.00,100.88
1764.00,100.88
1763.00,100.89
1762.00,100.89
1761.00,100.88
1760.00,100.88
1759.00,100.88
1758.00,100.89
1757.00,100.88
1756.00,100.88
1755.00,100.88
1754.00,100.88
1753.00,100.87
1752.00,100.87
1751.00,100.86
1750.00,100.87
1749.00,100.88
1748.00,100.88
1747.00,100.89
1746.00,100.89
1745.00,100.89
1744.00,100.89
1743.00,100.89
1742.00,100.89
1741.00,100.89
1740.00,100.89
1739.00,100.89
1738.00,100.89
1737.00,100.89
1736.00,100.89
1735.00,100.89
1734.00,100.88
1733.00,100.88
1732.00,100.88
1731.00,100.89
1730.00,100.90
1729.00,100.90
1728.00,100.89
1727.00,100.89
1726.00,100.89
1725.00,100.89
1724.00,100.89
1723.00,100.89
1722.00,100.88
1721.00,100.88
1720.00,100.88
1719.00,100.88
1718.00,100.88
1717.00,100.87
1716.00,100.88
1715.00,100.89
1714.00,100.89
1713.00,100.89
1712.00,100.89
1711.00,100.89
1710.00,100.88
1709.00,100.88
1708.00,100.88
1707.00,100.88
1706.00,100.89
1705.00,100.89
1704.00,100.89
1703.00,100.89
1702.00,100.89
1701.00,100.89
1700.00,100.89
1699.00,100.88
1698.00,100.89
1697.00,100.90
1696.00,100.90
1695.00,100.90
1694.00,100.89
1693.00,100.89
1692.00,100.89
1691.00,100.89
1690.00,100.89
1689.00,100.89
1688.00,100.89
1687.00,100.89
1686.00,100.89
1685.00,100.89
1684.00,100.89
1683.00,100.90
1682.00,100.90
1681.00,100.90
1680.00,100.90
1679.00,100.90
1678.00,100.89
1677.00,100.89
1676.00,100.89
1675.00,100.89
1674.00,100.89
1673.00,100.89
1672.00,100.89
1671.00,100.90
1670.00,100.90
1669.00,100.90
1668.00,100.90
1667.00,100.90
1666.00,100.89
1665.00,100.89
1664.00,100.89
1663.00,100.89
1662.00,100.89
1661.00,100.89
1660.00,100.89
1659.00,100.89
1658.00,100.89
1657.00,100.89
1656.00,100.89
1655.00,100.89
1654.00,100.90
1653.00,100.90
1652.00,100.90
1651.00,100.89
1650.00,100.90
1649.00,100.90
1648.00,100.90
1647.00,100.90
1646.00,100.89
1645.00,100.89
1644.00,100.89
1643.00,100.89
1642.00,100.89
1641.00,100.89
1640.00,100.88
1639.00,100.88
1638.00,100.89
1637.00,100.89
1636.00,100.90
1635.00,100.90
1634.00,100.90
1633.00,100.90
1632.00,100.90
1631.00,100.90
1630.00,100.89
1629.00,100.89
1628.00,100.89
1627.00,100.89
1626.00,100.89
1625.00,100.90
1624.00,100.90
1623.00,100.90
1622.00,100.90
1621.00,100.89
1620.00,100.90
1619.00,100.90
1618.00,100.89
1617.00,100.89
1616.00,100.89
1615.00,100.89
1614.00,100.89
1613.00,100.89
1612.00,100.89
1611.00,100.89
1610.00,100.88
1609.00,100.88
1608.00,100.88
1607.00,100.88
1606.00,100.88
1605.00,100.88
1604.00,100.88
1603.00,100.88
1602.00,100.88
1601.00,100.89
1600.00,100.89
1599.00,100.89
1598.00,100.89
1597.00,100.89
1596.00,100.89
1595.00,100.89
1594.00,100.89
1593.00,100.89
1592.00,100.89
1591.00,100.89
1590.00,100.89
1589.00,100.89
1588.00,100.89
1587.00,100.89
1586.00,100.89
1585.00,100.89
1584.00,100.90
1583.00,100.90
1582.00,100.90
1581.00,100.90
1580.00,100.90
1579.00,100.90
1578.00,100.90
1577.00,100.90
1576.00,100.90
1575.00,100.90
1574.00,100.90
1573.00,100.90
1572.00,100.91
1571.00,100.90
1570.00,100.90
1569.00,100.90
1568.00,100.90
1567.00,100.90
1566.00,100.89
1565.00,100.89
1564.00,100.89
1563.00,100.89
1562.00,100.89
1561.00,100.89
1560.00,100.89
1559.00,100.89
1558.00,100.89
1557.00,100.90
1556.00,100.90
1555.00,100.90
1554.00,100.89
1553.00,100.89
1552.00,100.88
1551.00,100.88
1550.00,100.88
1549.00,100.88
1548.00,100.88
1547.00,100.88
1546.00,100.88
1545.00,100.88
1544.00,100.88
1543.00,100.88
1542.00,100.89
1541.00,100.89
1540.00,100.90
1539.00,100.90
1538.00,100.90
1537.00,100.89
1536.00,100.90
1535.00,100.90
1534.00,100.89
1533.00,100.89
1532.00,100.89
1531.00,100.89
1530.00,100.89
1529.00,100.89
1528.00,100.89
1527.00,100.89
1526.00,100.89
1525.00,100.89
1524.00,100.89
1523.00,100.89
1522.00,100.90
1521.00,100.90
1520.00,100.90
1519.00,100.90
1518.00,100.90
1517.00,100.90
1516.00,100.90
1515.00,100.89
1514.00,100.89
1513.00,100.89
1512.00,100.89
1511.00,100.89
1510.00,100.89
1509.00,100.89
1508.00,100.89
1507.00,100.89
1506.00,100.90
1505.00,100.90
1504.00,100.90
1503.00,100.90
1502.00,100.89
1501.00,100.89
1500.00,100.88
1499.00,100.88
1498.00,100.88
1497.00,100.88
1496.00,100.88
1495.00,100.88
1494.00,100.88
1493.00,100.88
1492.00,100.87
1491.00,100.87
1490.00,100.88
1489.00,100.88
1488.00,100.88
1487.00,100.89
1486.00,100.89
1485.00,100.89
1484.00,100.89
1483.00,100.89
1482.00,100.89
1481.00,100.89
1480.00,100.89
1479.00,100.89
1478.00,100.89
1477.00,100.89
1476.00,100.89
1475.00,100.89
1474.00,100.89
1473.00,100.89
1472.00,100.89
1471.00,100.89
1470.00,100.90
1469.00,100.90
1468.00,100.90
1467.00,100.90
1466.00,100.90
1465.00,100.89
1464.00,100.89
1463.00,100.89
1462.00,100.89
1461.00,100.89
1460.00,100.89
1459.00,100.89
1458.00,100.89
1457.00,100.89
1456.00,100.89
1455.00,100.89
1454.00,100.89
1453.00,100.89
1452.00,100.89
1451.00,100.89
1450.00,100.88
1449.00,100.88
1448.00,100.88
1447.00,100.88
1446.00,100.88
1445.00,100.89
1444.00,100.89
1443.00,100.89
1442.00,100.89
1441.00,100.89
1440.00,100.88
1439.00,100.88
1438.00,100.88
1437.00,100.88
1436.00,100.88
1435.00,100.88
1434.00,100.89
1433.00,100.89
1432.00,100.89
1431.00,100.89
1430.00,100.89
1429.00,100.89
1428.00,100.89
1427.00,100.89
1426.00,100.89
1425.00,100.89
1424.00,100.89
1423.00,100.89
1422.00,100.89
1421.00,100.90
1420.00,100.90
1419.00,100.90
1418.00,100.90
1417.00,100.90
1416.00,100.90
1415.00,100.90
1414.00,100.90
1413.00,100.90
1412.00,100.90
1411.00,100.90
1410.00,100.90
1409.00,100.90
1408.00,100.90
1407.00,100.90
1406.00,100.90
1405.00,100.90
1404.00,100.89
1403.00,100.89
1402.00,100.89
1401.00,100.89
1400.00,100.89
1399.00,100.88
1398.00,100.88
1397.00,100.88
1396.00,100.89
1395.00,100.89
1394.00,100.89
1393.00,100.89
1392.00,100.89
1391.00,100.89
1390.00,100.89
1389.00,100.89
1388.00,100.89
1387.00,100.88
1386.00,100.88
1385.00,100.88
1384.00,100.88
1383.00,100.88
1382.00,100.88
1381.00,100.88
1380.00,100.88
1379.00,100.88
1378.00,100.88
1377.00,100.88
1376.00,100.88
1375.00,100.89
1374.00,100.89
1373.00,100.89
1372.00,100.89
1371.00,100.89
1370.00,100.89
1369.00,100.89
1368.00,100.89
1367.00,100.89
1366.00,100.89
1365.00,100.89
1364.00,100.89
1363.00,100.89
1362.00,100.89
1361.00,100.90
1360.00,100.90
1359.00,100.90
1358.00,100.90
1357.00,100.90
1356.00,100.90
1355.00,100.89
1354.00,100.89
1353.00,100.89
1352.00,100.89
1351.00,100.89
1350.00,100.89
1349.00,100.89
1348.00,100.89
1347.00,100.89
1346.00,100.89
1345.00,100.89
1344.00,100.89
1343.00,100.89
1342.00,100.89
1341.00,100.89
1340.00,100.89
1339.00,100.89
1338.00,100.89
1337.00,100.89
1336.00,100.89
1335.00,100.89
1334.00,100.89
1333.00,100.89
1332.00,100.89
1331.00,100.89
1330.00,100.89
1329.00,100.89
1328.00,100.89
1327.00,100.89
1326.00,100.89
1325.00,100.89
1324.00,100.89
1323.00,100.89
1322.00,100.89
1321.00,100.89
1320.00,100.89
1319.00,100.89
1318.00,100.90
1317.00,100.90
1316.00,100.90
1315.00,100.90
1314.00,100.90
1313.00,100.90
1312.00,100.90
1311.00,100.90
1310.00,100.90
1309.00,100.90
1308.00,100.90
1307.00,100.90
1306.00,100.90
1305.00,100.90
1304.00,100.89
1303.00,100.89
1302.00,100.89
1301.00,100.90
1300.00,100.90
1299.00,100.90
1298.00,100.89
1297.00,100.89
1296.00,100.89
1295.00,100.89
1294.00,100.89
1293.00,100.89
1292.00,100.89
1291.00,100.89
1290.00,100.89
1289.00,100.89
1288.00,100.89
1287.00,100.88
1286.00,100.88
1285.00,100.88
1284.00,100.88
1283.00,100.88
1282.00,100.88
1281.00,100.89
1280.00,100.89
1279.00,100.89
1278.00,100.88
1277.00,100.89
1276.00,100.89
1275.00,100.89
1274.00,100.89
1273.00,100.89
1272.00,100.89
1271.00,100.89
1270.00,100.89
1269.00,100.89
1268.00,100.89
1267.00,100.89
1266.00,100.88
1265.00,100.88
1264.00,100.88
1263.00,100.88
1262.00,100.89
1261.00,100.89
1260.00,100.89
1259.00,100.89
1258.00,100.89
1257.00,100.89
1256.00,100.89
1255.00,100.89
1254.00,100.90
1253.00,100.90
1252.00,100.90
1251.00,100.90
1250.00,100.90
1249.00,100.90
1248.00,100.90
1247.00,100.90
1246.00,100.90
1245.00,100.90
1244.00,100.89
1243.00,100.89
1242.00,100.89
1241.00,100.89
1240.00,100.89
1239.00,100.88
1238.00,100.88
1237.00,100.88
1236.00,100.88
1235.00,100.88
1234.00,100.88
1233.00,100.88
1232.00,100.88
1231.00,100.88
1230.00,100.88
1229.00,100.88
1228.00,100.88
1227.00,100.87
1226.00,100.87
1225.00,100.87
1224.00,100.88
1223.00,100.88
1222.00,100.88
1221.00,100.88
1220.00,100.88
1219.00,100.88
1218.00,100.87
1217.00,100.87
1216.00,100.88
1215.00,100.88
1214.00,100.88
1213.00,100.88
1212.00,100.88
1211.00,100.88
1210.00,100.88
1209.00,100.88
1208.00,100.88
1207.00,100.88
1206.00,100.88
1205.00,100.88
1204.00,100.88
1203.00,100.88
1202.00,100.88
1201.00,100.88
1200.00,100.88
1199.00,100.88
1198.00,100.88
1197.00,100.88
1196.00,100.88
1195.00,100.88
1194.00,100.88
1193.00,100.89
1192.00,100.89
1191.00,100.88
1190.00,100.88
1189.00,100.88
1188.00,100.88
1187.00,100.88
1186.00,100.88
1185.00,100.89
1184.00,100.88
1183.00,100.88
1182.00,100.88
1181.00,100.88
1180.00,100.88
1179.00,100.87
1178.00,100.88
1177.00,100.88
1176.00,100.88
1175.00,100.88
1174.00,100.88
1173.00,100.88
1172.00,100.88
1171.00,100.88
1170.00,100.88
1169.00,100.88
1168.00,100.88
1167.00,100.88
1166.00,100.88
1165.00,100.88
1164.00,100.88
1163.00,100.88
1162.00,100.87
1161.00,100.88
1160.00,100.88
1159.00,100.88
1158.00,100.88
1157.00,100.88
1156.00,100.88
1155.00,100.88
1154.00,100.88
1153.00,100.88
1152.00,100.88
1151.00,100.88
1150.00,100.88
1149.00,100.88
1148.00,100.88
1147.00,100.88
1146.00,100.88
1145.00,100.88
1144.00,100.88
1143.00,100.88
1142.00,100.88
1141.00,100.88
1140.00,100.88
1139.00,100.88
1138.00,100.88
1137.00,100.88
1136.00,100.88
1135.00,100.88
1134.00,100.88
1133.00,100.88
1132.00,100.88
1131.00,100.88
1130.00,100.87
1129.00,100.87
1128.00,100.88
1127.00,100.88
1126.00,100.88
1125.00,100.88
1124.00,100.88
1123.00,100.88
1122.00,100.87
1121.00,100.88
1120.00,100.88
1119.00,100.88
1118.00,100.88
1117.00,100.88
1116.00,100.88
1115.00,100.87
1114.00,100.87
1113.00,100.87
1112.00,100.87
1111.00,100.87
1110.00,100.87
1109.00,100.87
1108.00,100.87
1107.00,100.87
1106.00,100.87
1105.00,100.87
1104.00,100.87
1103.00,100.87
1102.00,100.87
1101.00,100.87
1100.00,100.87
1099.00,100.87
1098.00,100.87
1097.00,100.87
1096.00,100.87
1095.00,100.87
1094.00,100.87
1093.00,100.87
1092.00,100.87
1091.00,100.87
1090.00,100.87
1089.00,100.87
1088.00,100.87
1087.00,100.87
1086.00,100.87
1085.00,100.87
1084.00,100.87
1083.00,100.87
1082.00,100.87
1081.00,100.87
1080.00,100.87
1079.00,100.87
1078.00,100.87
1077.00,100.87
1076.00,100.87
1075.00,100.87
1074.00,100.86
1073.00,100.86
1072.00,100.86
1071.00,100.86
1070.00,100.86
1069.00,100.86
1068.00,100.86
1067.00,100.86
1066.00,100.86
1065.00,100.86
1064.00,100.86
1063.00,100.86
1062.00,100.86
1061.00,100.86
1060.00,100.86
1059.00,100.86
1058.00,100.86
1057.00,100.86
1056.00,100.86
1055.00,100.86
1054.00,100.86
1053.00,100.86
1052.00,100.86
1051.00,100.87
1050.00,100.87
1049.00,100.87
1048.00,100.87
1047.00,100.87
1046.00,100.87
1045.00,100.87
1044.00,100.87
1043.00,100.87
1042.00,100.87
1041.00,100.87
1040.00,100.87
1039.00,100.87
1038.00,100.87
1037.00,100.87
1036.00,100.87
1035.00,100.87
1034.00,100.87
1033.00,100.87
1032.00,100.87
1031.00,100.87
1030.00,100.87
1029.00,100.87
1028.00,100.87
1027.00,100.87
1026.00,100.87
1025.00,100.87
1024.00,100.87
1023.00,100.87
1022.00,100.87
1021.00,100.87
1020.00,100.87
1019.00,100.87
1018.00,100.87
1017.00,100.87
1016.00,100.87
1015.00,100.87
1014.00,100.87
1013.00,100.87
1012.00,100.87
1011.00,100.87
1010.00,100.87
1009.00,100.88
1008.00,100.88
1007.00,100.88
1006.00,100.88
1005.00,100.88
1004.00,100.88
1003.00,100.89
1002.00,100.89
1001.00,100.89
1000.00,100.89
999.00,100.89
998.00,100.89
997.00,100.89
996.00,100.90
995.00,100.90
994.00,100.90
993.00,100.90
992.00,100.90
991.00,100.90
990.00,100.90
989.00,100.90
988.00,100.90
987.00,100.90
986.00,100.90
985.00,100.90
984.00,100.90
983.00,100.90
982.00,100.90
981.00,100.90
980.00,100.90
979.00,100.90
978.00,100.90
977.00,100.90
976.00,100.90
975.00,100.90
974.00,100.89
973.00,100.90
972.00,100.90
971.00,100.90
970.00,100.90
969.00,100.90
968.00,100.90
967.00,100.90
966.00,100.90
965.00,100.90
964.00,100.90
963.00,100.90
962.00,100.90
961.00,100.90
960.00,100.90
959.00,100.90
958.00,100.90
957.00,100.90
956.00,100.90
955.00,100.90
954.00,100.90
953.00,100.90
952.00,100.90
951.00,100.90
950.00,100.90
949.00,100.90
948.00,100.91
947.00,100.91
946.00,100.91
945.00,100.91
944.00,100.91
943.00,100.91
942.00,100.91
941.00,100.91
940.00,100.91
939.00,100.91
938.00,100.91
937.00,100.91
936.00,100.91
935.00,100.91
934.00,100.91
933.00,100.91
932.00,100.92
931.00,100.92
930.00,100.91
929.00,100.91
928.00,100.91
927.00,100.91
926.00,100.91
925.00,100.91
924.00,100.91
923.00,100.91
922.00,100.91
921.00,100.91
920.00,100.91
919.00,100.92
918.00,100.91
917.00,100.91
916.00,100.90
915.00,100.90
914.00,100.90
913.00,100.90
912.00,100.90
911.00,100.90
910.00,100.90
909.00,100.90
908.00,100.90
907.00,100.90
906.00,100.90
905.00,100.90
904.00,100.91
903.00,100.91
902.00,100.91
901.00,100.91
900.00,100.91
899.00,100.91
898.00,100.91
897.00,100.91
896.00,100.91
895.00,100.91
894.00,100.91
893.00,100.91
892.00,100.91
891.00,100.91
890.00,100.91
889.00,100.90
888.00,100.91
887.00,100.91
886.00,100.91
885.00,100.91
884.00,100.92
883.00,100.92
882.00,100.92
881.00,100.91
880.00,100.91
879.00,100.91
878.00,100.91
877.00,100.91
876.00,100.91
875.00,100.90
874.00,100.90
873.00,100.90
872.00,100.89
871.00,100.89
870.00,100.89
869.00,100.89
868.00,100.89
867.00,100.90
866.00,100.90
865.00,100.90
864.00,100.90
863.00,100.90
862.00,100.90
861.00,100.90
860.00,100.90
859.00,100.91
858.00,100.91
857.00,100.91
856.00,100.91
855.00,100.91
854.00,100.91
853.00,100.91
852.00,100.91
851.00,100.91
850.00,100.91
849.00,100.91
848.00,100.91
847.00,100.91
846.00,100.91
845.00,100.91
844.00,100.91
843.00,100.91
842.00,100.90
841.00,100.90
840.00,100.90
839.00,100.90
838.00,100.91
837.00,100.91
836.00,100.91
835.00,100.91
834.00,100.91
833.00,100.91
832.00,100.91
831.00,100.91
830.00,100.91
829.00,100.90
828.00,100.90
827.00,100.90
826.00,100.90
825.00,100.90
824.00,100.90
823.00,100.90
822.00,100.90
821.00,100.90
820.00,100.90
819.00,100.90
818.00,100.90
817.00,100.90
816.00,100.90
815.00,100.90
814.00,100.90
813.00,100.90
812.00,100.90
811.00,100.90
810.00,100.90
809.00,100.89
808.00,100.89
807.00,100.89
806.00,100.89
805.00,100.89
804.00,100.89
803.00,100.89
802.00,100.89
801.00,100.89
800.00,100.89
799.00,100.89
798.00,100.89
797.00,100.89
796.00,100.89
795.00,100.89
794.00,100.90
793.00,100.90
792.00,100.90
791.00,100.90
790.00,100.90
789.00,100.90
788.00,100.90
787.00,100.90
786.00,100.91
785.00,100.91
784.00,100.91
783.00,100.91
782.00,100.91
781.00,100.91
780.00,100.91
779.00,100.91
778.00,100.91
777.00,100.91
776.00,100.91
775.00,100.91
774.00,100.91
773.00,100.91
772.00,100.91
771.00,100.91
770.00,100.91
769.00,100.91
768.00,100.91
767.00,100.91
766.00,100.91
765.00,100.91
764.00,100.91
763.00,100.91
762.00,100.91
761.00,100.91
760.00,100.91
759.00,100.91
758.00,100.91
757.00,100.90
756.00,100.90
755.00,100.90
754.00,100.90
753.00,100.90
752.00,100.90
751.00,100.90
750.00,100.90
749.00,100.90
748.00,100.90
747.00,100.90
746.00,100.90
745.00,100.90
744.00,100.90
743.00,100.91
742.00,100.91
741.00,100.91
740.00,100.91
739.00,100.91
738.00,100.90
737.00,100.90
736.00,100.90
735.00,100.90
734.00,100.90
733.00,100.90
732.00,100.90
731.00,100.90
730.00,100.90
729.00,100.90
728.00,100.90
727.00,100.91
726.00,100.91
725.00,100.92
724.00,100.92
723.00,100.92
722.00,100.91
721.00,100.91
720.00,100.91
719.00,100.91
718.00,100.91
717.00,100.91
716.00,100.91
715.00,100.91
714.00,100.91
713.00,100.91
712.00,100.91
711.00,100.91
710.00,100.91
709.00,100.91
708.00,100.91
707.00,100.91
706.00,100.91
705.00,100.91
704.00,100.91
703.00,100.91
702.00,100.91
701.00,100.91
700.00,100.90
699.00,100.90
698.00,100.90
697.00,100.90
696.00,100.90
695.00,100.90
694.00,100.91
693.00,100.91
692.00,100.90
691.00,100.90
690.00,100.90
689.00,100.90
688.00,100.90
687.00,100.90
686.00,100.90
685.00,100.91
684.00,100.91
683.00,100.91
682.00,100.91
681.00,100.91
680.00,100.90
679.00,100.90
678.00,100.90
677.00,100.90
676.00,100.90
675.00,100.91
674.00,100.91
673.00,100.91
672.00,100.91
671.00,100.91
670.00,100.90
669.00,100.89
668.00,100.89
667.00,100.89
666.00,100.89
665.00,100.90
664.00,100.90
663.00,100.91
662.00,100.91
661.00,100.91
660.00,100.91
659.00,100.91
658.00,100.91
657.00,100.91
656.00,100.90
655.00,100.90
654.00,100.90
653.00,100.90
652.00,100.91
651.00,100.91
650.00,100.90
649.00,100.90
648.00,100.90
647.00,100.90
646.00,100.90
645.00,100.90
644.00,100.90
643.00,100.90
642.00,100.90
641.00,100.90
640.00,100.90
639.00,100.89
638.00,100.89
637.00,100.89
636.00,100.90
635.00,100.90
634.00,100.90
633.00,100.90
632.00,100.90
631.00,100.90
630.00,100.90
629.00,100.90
628.00,100.90
627.00,100.89
626.00,100.89
625.00,100.89
624.00,100.89
623.00,100.89
622.00,100.89
621.00,100.89
620.00,100.89
619.00,100.89
618.00,100.89
617.00,100.89
616.00,100.90
615.00,100.90
614.00,100.90
613.00,100.90
612.00,100.90
611.00,100.90
610.00,100.89
609.00,100.89
608.00,100.88
607.00,100.88
606.00,100.88
605.00,100.88
604.00,100.88
603.00,100.89
602.00,100.90
601.00,100.90
600.00,100.90
599.00,100.90
598.00,100.90
597.00,100.89
596.00,100.89
595.00,100.89
594.00,100.89
593.00,100.90
592.00,100.90
591.00,100.90
590.00,100.90
589.00,100.90
588.00,100.89
587.00,100.89
586.00,100.89
585.00,100.89
584.00,100.89
583.00,100.89
582.00,100.89
581.00,100.89
580.00,100.89
579.00,100.89
578.00,100.89
577.00,100.89
576.00,100.88
575.00,100.87
574.00,100.87
573.00,100.87
572.00,100.87
571.00,100.87
570.00,100.87
569.00,100.87
568.00,100.88
567.00,100.88
566.00,100.88
565.00,100.88
564.00,100.88
563.00,100.88
562.00,100.88
561.00,100.88
560.00,100.89
559.00,100.89
558.00,100.89
557.00,100.88
556.00,100.88
555.00,100.88
554.00,100.87
553.00,100.87
552.00,100.87
551.00,100.87
550.00,100.86
549.00,100.87
548.00,100.87
547.00,100.87
546.00,100.87
545.00,100.87
544.00,100.87
543.00,100.87
542.00,100.87
541.00,100.87
540.00,100.87
539.00,100.88
538.00,100.89
537.00,100.89
536.00,100.88
535.00,100.87
534.00,100.87
533.00,100.87
532.00,100.89
531.00,100.90
530.00,100.91
529.00,100.91
528.00,100.90
527.00,100.90
526.00,100.90
525.00,100.90
524.00,100.90
523.00,100.90
522.00,100.91
521.00,100.91
520.00,100.92
519.00,100.92
518.00,100.92
517.00,100.91
516.00,100.90
515.00,100.90
514.00,100.90
513.00,100.91
512.00,100.93
511.00,100.94
510.00,100.94
509.00,100.93
508.00,100.93
507.00,100.93
506.00,100.93
505.00,100.92
504.00,100.91
503.00,100.89
502.00,100.89
501.00,100.90
500.00,100.90
