Created as New Dataset,Sample 386 By Analyst Date Monday, February 10 2025
cm-1,%T
4000.00,98.49
3999.00,98.50
3998.00,98.49
3997.00,98.49
3996.00,98.49
3995.00,98.49
3994.00,98.49
3993.00,98.49
3992.00,98.49
3991.00,98.49
3990.00,98.49
3989.00,98.49
3988.00,98.49
3987.00,98.49
3986.00,98.49
3985.00,98.49
3984.00,98.49
3983.00,98.49
3982.00,98.49
3981.00,98.49
3980.00,98.49
3979.00,98.50
3978.00,98.50
3977.00,98.50
3976.00,98.50
3975.00,98.49
3974.00,98.49
3973.00,98.49
3972.00,98.49
3971.00,98.49
3970.00,98.49
3969.00,98.49
3968.00,98.49
3967.00,98.49
3966.00,98.50
3965.00,98.50
3964.00,98.49
3963.00,98.49
3962.00,98.49
3961.00,98.49
3960.00,98.49
3959.00,98.49
3958.00,98.49
3957.00,98.49
3956.00,98.49
3955.00,98.49
3954.00,98.49
3953.00,98.49
3952.00,98.48
3951.00,98.48
3950.00,98.48
3949.00,98.48
3948.00,98.48
3947.00,98.48
3946.00,98.48
3945.00,98.48
3944.00,98.48
3943.00,98.48
3942.00,98.48
3941.00,98.48
3940.00,98.48
3939.00,98.49
3938.00,98.49
3937.00,98.48
3936.00,98.48
3935.00,98.48
3934.00,98.48
3933.00,98.48
3932.00,98.48
3931.00,98.48
3930.00,98.48
3929.00,98.48
3928.00,98.47
3927.00,98.47
3926.00,98.47
3925.00,98.47
3924.00,98.47
3923.00,98.46
3922.00,98.46
3921.00,98.47
3920.00,98.46
3919.00,98.46
3918.00,98.46
3917.00,98.46
3916.00,98.46
3915.00,98.47
3914.00,98.47
3913.00,98.47
3912.00,98.48
3911.00,98.48
3910.00,98.48
3909.00,98.47
3908.00,98.47
3907.00,98.47
3906.00,98.46
3905.00,98.45
3904.00,98.43
3903.00,98.41
3902.00,98.41
3901.00,98.41
3900.00,98.42
3899.00,98.42
3898.00,98.42
3897.00,98.42
3896.00,98.43
3895.00,98.44
3894.00,98.44
3893.00,98.45
3892.00,98.45
3891.00,98.45
3890.00,98.44
3889.00,98.43
3888.00,98.44
3887.00,98.45
3886.00,98.44
3885.00,98.43
3884.00,98.42
3883.00,98.43
3882.00,98.45
3881.00,98.45
3880.00,98.43
3879.00,98.42
3878.00,98.42
3877.00,98.44
3876.00,98.45
3875.00,98.45
3874.00,98.43
3873.00,98.42
3872.00,98.42
3871.00,98.44
3870.00,98.44
3869.00,98.42
3868.00,98.41
3867.00,98.42
3866.00,98.43
3865.00,98.43
3864.00,98.41
3863.00,98.41
3862.00,98.42
3861.00,98.43
3860.00,98.43
3859.00,98.43
3858.00,98.43
3857.00,98.43
3856.00,98.44
3855.00,98.45
3854.00,98.45
3853.00,98.42
3852.00,98.40
3851.00,98.41
3850.00,98.42
3849.00,98.42
3848.00,98.41
3847.00,98.41
3846.00,98.42
3845.00,98.43
3844.00,98.44
3843.00,98.43
3842.00,98.43
3841.00,98.42
3840.00,98.43
3839.00,98.43
3838.00,98.42
3837.00,98.41
3836.00,98.41
3835.00,98.41
3834.00,98.41
3833.00,98.41
3832.00,98.41
3831.00,98.41
3830.00,98.42
3829.00,98.43
3828.00,98.44
3827.00,98.44
3826.00,98.44
3825.00,98.42
3824.00,98.42
3823.00,98.43
3822.00,98.44
3821.00,98.42
3820.00,98.39
3819.00,98.39
3818.00,98.41
3817.00,98.43
3816.00,98.42
3815.00,98.41
3814.00,98.42
3813.00,98.44
3812.00,98.45
3811.00,98.45
3810.00,98.44
3809.00,98.44
3808.00,98.45
3807.00,98.45
3806.00,98.44
3805.00,98.43
3804.00,98.43
3803.00,98.44
3802.00,98.44
3801.00,98.41
3800.00,98.40
3799.00,98.41
3798.00,98.42
3797.00,98.43
3796.00,98.42
3795.00,98.42
3794.00,98.43
3793.00,98.45
3792.00,98.47
3791.00,98.47
3790.00,98.47
3789.00,98.47
3788.00,98.48
3787.00,98.48
3786.00,98.48
3785.00,98.48
3784.00,98.47
3783.00,98.47
3782.00,98.47
3781.00,98.47
3780.00,98.47
3779.00,98.46
3778.00,98.46
3777.00,98.46
3776.00,98.47
3775.00,98.47
3774.00,98.46
3773.00,98.46
3772.00,98.46
3771.00,98.46
3770.00,98.46
3769.00,98.45
3768.00,98.44
3767.00,98.45
3766.00,98.45
3765.00,98.45
3764.00,98.44
3763.00,98.44
3762.00,98.44
3761.00,98.45
3760.00,98.44
3759.00,98.44
3758.00,98.43
3757.00,98.43
3756.00,98.43
3755.00,98.42
3754.00,98.42
3753.00,98.41
3752.00,98.41
3751.00,98.40
3750.00,98.39
3749.00,98.38
3748.00,98.36
3747.00,98.36
3746.00,98.37
3745.00,98.38
3744.00,98.36
3743.00,98.35
3742.00,98.37
3741.00,98.39
3740.00,98.38
3739.00,98.36
3738.00,98.35
3737.00,98.36
3736.00,98.37
3735.00,98.38
3734.00,98.38
3733.00,98.39
3732.00,98.39
3731.00,98.39
3730.00,98.39
3729.00,98.40
3728.00,98.41
3727.00,98.42
3726.00,98.42
3725.00,98.42
3724.00,98.43
3723.00,98.44
3722.00,98.43
3721.00,98.43
3720.00,98.43
3719.00,98.44
3718.00,98.44
3717.00,98.44
3716.00,98.44
3715.00,98.44
3714.00,98.44
3713.00,98.44
3712.00,98.43
3711.00,98.42
3710.00,98.42
3709.00,98.42
3708.00,98.42
3707.00,98.43
3706.00,98.43
3705.00,98.44
3704.00,98.44
3703.00,98.45
3702.00,98.45
3701.00,98.45
3700.00,98.45
3699.00,98.46
3698.00,98.46
3697.00,98.46
3696.00,98.46
3695.00,98.45
3694.00,98.45
3693.00,98.45
3692.00,98.44
3691.00,98.44
3690.00,98.43
3689.00,98.43
3688.00,98.42
3687.00,98.42
3686.00,98.43
3685.00,98.44
3684.00,98.44
3683.00,98.44
3682.00,98.44
3681.00,98.44
3680.00,98.44
3679.00,98.43
3678.00,98.43
3677.00,98.43
3676.00,98.42
3675.00,98.40
3674.00,98.38
3673.00,98.38
3672.00,98.40
3671.00,98.40
3670.00,98.39
3669.00,98.39
3668.00,98.40
3667.00,98.42
3666.00,98.44
3665.00,98.44
3664.00,98.44
3663.00,98.45
3662.00,98.46
3661.00,98.47
3660.00,98.47
3659.00,98.46
3658.00,98.47
3657.00,98.46
3656.00,98.45
3655.00,98.44
3654.00,98.43
3653.00,98.42
3652.00,98.41
3651.00,98.40
3650.00,98.38
3649.00,98.37
3648.00,98.37
3647.00,98.38
3646.00,98.39
3645.00,98.40
3644.00,98.41
3643.00,98.42
3642.00,98.43
3641.00,98.44
3640.00,98.45
3639.00,98.46
3638.00,98.46
3637.00,98.46
3636.00,98.46
3635.00,98.46
3634.00,98.45
3633.00,98.44
3632.00,98.43
3631.00,98.43
3630.00,98.43
3629.00,98.42
3628.00,98.41
3627.00,98.41
3626.00,98.42
3625.00,98.43
3624.00,98.42
3623.00,98.41
3622.00,98.42
3621.00,98.43
3620.00,98.44
3619.00,98.43
3618.00,98.42
3617.00,98.41
3616.00,98.41
3615.00,98.42
3614.00,98.41
3613.00,98.41
3612.00,98.40
3611.00,98.40
3610.00,98.41
3609.00,98.42
3608.00,98.42
3607.00,98.43
3606.00,98.43
3605.00,98.44
3604.00,98.44
3603.00,98.45
3602.00,98.45
3601.00,98.45
3600.00,98.45
3599.00,98.45
3598.00,98.45
3597.00,98.45
3596.00,98.45
3595.00,98.45
3594.00,98.44
3593.00,98.44
3592.00,98.44
3591.00,98.43
3590.00,98.43
3589.00,98.43
3588.00,98.43
3587.00,98.43
3586.00,98.43
3585.00,98.44
3584.00,98.44
3583.00,98.45
3582.00,98.45
3581.00,98.45
3580.00,98.46
3579.00,98.47
3578.00,98.47
3577.00,98.47
3576.00,98.47
3575.00,98.47
3574.00,98.47
3573.00,98.47
3572.00,98.47
3571.00,98.46
3570.00,98.45
3569.00,98.44
3568.00,98.44
3567.00,98.44
3566.00,98.43
3565.00,98.44
3564.00,98.44
3563.00,98.44
3562.00,98.44
3561.00,98.45
3560.00,98.45
3559.00,98.46
3558.00,98.47
3557.00,98.47
3556.00,98.47
3555.00,98.47
3554.00,98.47
3553.00,98.47
3552.00,98.47
3551.00,98.46
3550.00,98.46
3549.00,98.45
3548.00,98.45
3547.00,98.45
3546.00,98.45
3545.00,98.45
3544.00,98.46
3543.00,98.46
3542.00,98.46
3541.00,98.46
3540.00,98.46
3539.00,98.46
3538.00,98.47
3537.00,98.47
3536.00,98.47
3535.00,98.47
3534.00,98.47
3533.00,98.47
3532.00,98.46
3531.00,98.46
3530.00,98.46
3529.00,98.46
3528.00,98.46
3527.00,98.46
3526.00,98.45
3525.00,98.46
3524.00,98.46
3523.00,98.46
3522.00,98.46
3521.00,98.46
3520.00,98.47
3519.00,98.47
3518.00,98.47
3517.00,98.47
3516.00,98.47
3515.00,98.48
3514.00,98.48
3513.00,98.47
3512.00,98.47
3511.00,98.47
3510.00,98.47
3509.00,98.47
3508.00,98.47
3507.00,98.47
3506.00,98.47
3505.00,98.47
3504.00,98.46
3503.00,98.46
3502.00,98.46
3501.00,98.47
3500.00,98.47
3499.00,98.47
3498.00,98.47
3497.00,98.47
3496.00,98.47
3495.00,98.47
3494.00,98.47
3493.00,98.47
3492.00,98.47
3491.00,98.47
3490.00,98.47
3489.00,98.47
3488.00,98.47
3487.00,98.47
3486.00,98.47
3485.00,98.47
3484.00,98.47
3483.00,98.47
3482.00,98.47
3481.00,98.47
3480.00,98.47
3479.00,98.47
3478.00,98.47
3477.00,98.47
3476.00,98.47
3475.00,98.48
3474.00,98.48
3473.00,98.48
3472.00,98.48
3471.00,98.47
3470.00,98.47
3469.00,98.47
3468.00,98.47
3467.00,98.47
3466.00,98.47
3465.00,98.48
3464.00,98.48
3463.00,98.48
3462.00,98.48
3461.00,98.47
3460.00,98.47
3459.00,98.47
3458.00,98.48
3457.00,98.48
3456.00,98.48
3455.00,98.48
3454.00,98.48
3453.00,98.47
3452.00,98.47
3451.00,98.47
3450.00,98.47
3449.00,98.47
3448.00,98.47
3447.00,98.47
3446.00,98.46
3445.00,98.46
3444.00,98.47
3443.00,98.47
3442.00,98.47
3441.00,98.47
3440.00,98.47
3439.00,98.47
3438.00,98.47
3437.00,98.47
3436.00,98.47
3435.00,98.47
3434.00,98.47
3433.00,98.47
3432.00,98.47
3431.00,98.47
3430.00,98.47
3429.00,98.47
3428.00,98.47
3427.00,98.47
3426.00,98.47
3425.00,98.47
3424.00,98.47
3423.00,98.47
3422.00,98.47
3421.00,98.47
3420.00,98.47
3419.00,98.47
3418.00,98.47
3417.00,98.47
3416.00,98.47
3415.00,98.47
3414.00,98.47
3413.00,98.47
3412.00,98.47
3411.00,98.48
3410.00,98.48
3409.00,98.48
3408.00,98.48
3407.00,98.48
3406.00,98.48
3405.00,98.48
3404.00,98.48
3403.00,98.47
3402.00,98.47
3401.00,98.47
3400.00,98.47
3399.00,98.47
3398.00,98.47
3397.00,98.47
3396.00,98.47
3395.00,98.47
3394.00,98.47
3393.00,98.47
3392.00,98.47
3391.00,98.47
3390.00,98.47
3389.00,98.47
3388.00,98.47
3387.00,98.47
3386.00,98.47
3385.00,98.47
3384.00,98.47
3383.00,98.47
3382.00,98.47
3381.00,98.47
3380.00,98.47
3379.00,98.47
3378.00,98.47
3377.00,98.47
3376.00,98.47
3375.00,98.47
3374.00,98.47
3373.00,98.47
3372.00,98.47
3371.00,98.47
3370.00,98.47
3369.00,98.47
3368.00,98.47
3367.00,98.47
3366.00,98.47
3365.00,98.47
3364.00,98.47
3363.00,98.47
3362.00,98.47
3361.00,98.47
3360.00,98.47
3359.00,98.47
3358.00,98.47
3357.00,98.47
3356.00,98.47
3355.00,98.47
3354.00,98.47
3353.00,98.47
3352.00,98.47
3351.00,98.47
3350.00,98.47
3349.00,98.47
3348.00,98.47
3347.00,98.47
3346.00,98.47
3345.00,98.47
3344.00,98.47
3343.00,98.47
3342.00,98.47
3341.00,98.47
3340.00,98.47
3339.00,98.47
3338.00,98.47
3337.00,98.47
3336.00,98.47
3335.00,98.47
3334.00,98.47
3333.00,98.47
3332.00,98.47
3331.00,98.47
3330.00,98.47
3329.00,98.47
3328.00,98.47
3327.00,98.47
3326.00,98.47
3325.00,98.47
3324.00,98.47
3323.00,98.47
3322.00,98.47
3321.00,98.47
3320.00,98.47
3319.00,98.47
3318.00,98.47
3317.00,98.47
3316.00,98.47
3315.00,98.47
3314.00,98.47
3313.00,98.47
3312.00,98.47
3311.00,98.47
3310.00,98.47
3309.00,98.47
3308.00,98.47
3307.00,98.47
3306.00,98.47
3305.00,98.47
3304.00,98.47
3303.00,98.47
3302.00,98.48
3301.00,98.48
3300.00,98.48
3299.00,98.48
3298.00,98.47
3297.00,98.47
3296.00,98.47
3295.00,98.47
3294.00,98.47
3293.00,98.47
3292.00,98.47
3291.00,98.48
3290.00,98.48
3289.00,98.48
3288.00,98.47
3287.00,98.47
3286.00,98.47
3285.00,98.47
3284.00,98.47
3283.00,98.47
3282.00,98.47
3281.00,98.47
3280.00,98.47
3279.00,98.47
3278.00,98.47
3277.00,98.47
3276.00,98.47
3275.00,98.47
3274.00,98.46
3273.00,98.46
3272.00,98.46
3271.00,98.46
3270.00,98.47
3269.00,98.47
3268.00,98.47
3267.00,98.47
3266.00,98.47
3265.00,98.47
3264.00,98.47
3263.00,98.47
3262.00,98.47
3261.00,98.47
3260.00,98.47
3259.00,98.47
3258.00,98.47
3257.00,98.47
3256.00,98.47
3255.00,98.47
3254.00,98.47
3253.00,98.47
3252.00,98.47
3251.00,98.47
3250.00,98.47
3249.00,98.47
3248.00,98.47
3247.00,98.47
3246.00,98.47
3245.00,98.47
3244.00,98.47
3243.00,98.47
3242.00,98.47
3241.00,98.47
3240.00,98.47
3239.00,98.47
3238.00,98.47
3237.00,98.47
3236.00,98.47
3235.00,98.46
3234.00,98.46
3233.00,98.46
3232.00,98.47
3231.00,98.47
3230.00,98.47
3229.00,98.47
3228.00,98.47
3227.00,98.47
3226.00,98.47
3225.00,98.47
3224.00,98.47
3223.00,98.47
3222.00,98.47
3221.00,98.47
3220.00,98.47
3219.00,98.47
3218.00,98.47
3217.00,98.47
3216.00,98.47
3215.00,98.47
3214.00,98.47
3213.00,98.47
3212.00,98.47
3211.00,98.47
3210.00,98.47
3209.00,98.47
3208.00,98.47
3207.00,98.47
3206.00,98.47
3205.00,98.47
3204.00,98.47
3203.00,98.47
3202.00,98.47
3201.00,98.47
3200.00,98.47
3199.00,98.47
3198.00,98.47
3197.00,98.47
3196.00,98.47
3195.00,98.47
3194.00,98.47
3193.00,98.47
3192.00,98.47
3191.00,98.47
3190.00,98.48
3189.00,98.48
3188.00,98.48
3187.00,98.47
3186.00,98.47
3185.00,98.47
3184.00,98.47
3183.00,98.47
3182.00,98.47
3181.00,98.47
3180.00,98.47
3179.00,98.47
3178.00,98.47
3177.00,98.47
3176.00,98.47
3175.00,98.47
3174.00,98.47
3173.00,98.46
3172.00,98.46
3171.00,98.46
3170.00,98.46
3169.00,98.46
3168.00,98.46
3167.00,98.46
3166.00,98.46
3165.00,98.46
3164.00,98.46
3163.00,98.46
3162.00,98.46
3161.00,98.47
3160.00,98.47
3159.00,98.47
3158.00,98.47
3157.00,98.47
3156.00,98.47
3155.00,98.47
3154.00,98.47
3153.00,98.47
3152.00,98.47
3151.00,98.47
3150.00,98.47
3149.00,98.47
3148.00,98.47
3147.00,98.47
3146.00,98.47
3145.00,98.47
3144.00,98.47
3143.00,98.47
3142.00,98.47
3141.00,98.47
3140.00,98.47
3139.00,98.47
3138.00,98.47
3137.00,98.47
3136.00,98.47
3135.00,98.47
3134.00,98.47
3133.00,98.47
3132.00,98.47
3131.00,98.47
3130.00,98.47
3129.00,98.47
3128.00,98.47
3127.00,98.47
3126.00,98.47
3125.00,98.47
3124.00,98.46
3123.00,98.46
3122.00,98.46
3121.00,98.46
3120.00,98.46
3119.00,98.46
3118.00,98.46
3117.00,98.46
3116.00,98.46
3115.00,98.46
3114.00,98.46
3113.00,98.46
3112.00,98.46
3111.00,98.46
3110.00,98.46
3109.00,98.46
3108.00,98.46
3107.00,98.46
3106.00,98.47
3105.00,98.47
3104.00,98.47
3103.00,98.47
3102.00,98.47
3101.00,98.47
3100.00,98.47
3099.00,98.47
3098.00,98.47
3097.00,98.47
3096.00,98.47
3095.00,98.47
3094.00,98.47
3093.00,98.47
3092.00,98.47
3091.00,98.47
3090.00,98.47
3089.00,98.47
3088.00,98.47
3087.00,98.47
3086.00,98.47
3085.00,98.47
3084.00,98.47
3083.00,98.46
3082.00,98.46
3081.00,98.46
3080.00,98.46
3079.00,98.46
3078.00,98.46
3077.00,98.46
3076.00,98.46
3075.00,98.46
3074.00,98.46
3073.00,98.46
3072.00,98.46
3071.00,98.46
3070.00,98.46
3069.00,98.46
3068.00,98.46
3067.00,98.46
3066.00,98.46
3065.00,98.46
3064.00,98.46
3063.00,98.46
3062.00,98.46
3061.00,98.46
3060.00,98.46
3059.00,98.46
3058.00,98.46
3057.00,98.46
3056.00,98.46
3055.00,98.46
3054.00,98.46
3053.00,98.46
3052.00,98.46
3051.00,98.46
3050.00,98.46
3049.00,98.46
3048.00,98.46
3047.00,98.46
3046.00,98.46
3045.00,98.47
3044.00,98.47
3043.00,98.47
3042.00,98.47
3041.00,98.47
3040.00,98.47
3039.00,98.47
3038.00,98.47
3037.00,98.47
3036.00,98.47
3035.00,98.47
3034.00,98.47
3033.00,98.47
3032.00,98.47
3031.00,98.47
3030.00,98.47
3029.00,98.47
3028.00,98.47
3027.00,98.46
3026.00,98.46
3025.00,98.46
3024.00,98.46
3023.00,98.46
3022.00,98.46
3021.00,98.46
3020.00,98.46
3019.00,98.46
3018.00,98.46
3017.00,98.46
3016.00,98.46
3015.00,98.46
3014.00,98.46
3013.00,98.46
3012.00,98.46
3011.00,98.46
3010.00,98.46
3009.00,98.46
3008.00,98.46
3007.00,98.46
3006.00,98.46
3005.00,98.46
3004.00,98.46
3003.00,98.46
3002.00,98.46
3001.00,98.46
3000.00,98.46
2999.00,98.46
2998.00,98.46
2997.00,98.46
2996.00,98.46
2995.00,98.46
2994.00,98.46
2993.00,98.46
2992.00,98.46
2991.00,98.46
2990.00,98.46
2989.00,98.46
2988.00,98.46
2987.00,98.46
2986.00,98.46
2985.00,98.46
2984.00,98.46
2983.00,98.46
2982.00,98.46
2981.00,98.46
2980.00,98.46
2979.00,98.46
2978.00,98.46
2977.00,98.46
2976.00,98.45
2975.00,98.45
2974.00,98.45
2973.00,98.45
2972.00,98.45
2971.00,98.45
2970.00,98.45
2969.00,98.45
2968.00,98.45
2967.00,98.45
2966.00,98.45
2965.00,98.45
2964.00,98.45
2963.00,98.45
2962.00,98.45
2961.00,98.45
2960.00,98.45
2959.00,98.45
2958.00,98.45
2957.00,98.45
2956.00,98.46
2955.00,98.46
2954.00,98.46
2953.00,98.46
2952.00,98.46
2951.00,98.46
2950.00,98.46
2949.00,98.46
2948.00,98.46
2947.00,98.46
2946.00,98.46
2945.00,98.46
2944.00,98.46
2943.00,98.46
2942.00,98.46
2941.00,98.46
2940.00,98.46
2939.00,98.46
2938.00,98.46
2937.00,98.47
2936.00,98.47
2935.00,98.47
2934.00,98.47
2933.00,98.47
2932.00,98.47
2931.00,98.47
2930.00,98.47
2929.00,98.47
2928.00,98.47
2927.00,98.47
2926.00,98.47
2925.00,98.48
2924.00,98.48
2923.00,98.48
2922.00,98.48
2921.00,98.48
2920.00,98.48
2919.00,98.48
2918.00,98.48
2917.00,98.48
2916.00,98.47
2915.00,98.47
2914.00,98.47
2913.00,98.47
2912.00,98.47
2911.00,98.47
2910.00,98.46
2909.00,98.46
2908.00,98.46
2907.00,98.46
2906.00,98.46
2905.00,98.46
2904.00,98.46
2903.00,98.46
2902.00,98.46
2901.00,98.46
2900.00,98.45
2899.00,98.45
2898.00,98.45
2897.00,98.45
2896.00,98.45
2895.00,98.46
2894.00,98.46
2893.00,98.46
2892.00,98.46
2891.00,98.46
2890.00,98.46
2889.00,98.46
2888.00,98.46
2887.00,98.46
2886.00,98.46
2885.00,98.46
2884.00,98.46
2883.00,98.46
2882.00,98.46
2881.00,98.46
2880.00,98.46
2879.00,98.46
2878.00,98.46
2877.00,98.46
2876.00,98.46
2875.00,98.46
2874.00,98.46
2873.00,98.46
2872.00,98.46
2871.00,98.46
2870.00,98.46
2869.00,98.46
2868.00,98.46
2867.00,98.46
2866.00,98.46
2865.00,98.46
2864.00,98.46
2863.00,98.46
2862.00,98.46
2861.00,98.46
2860.00,98.46
2859.00,98.46
2858.00,98.46
2857.00,98.46
2856.00,98.46
2855.00,98.46
2854.00,98.46
2853.00,98.47
2852.00,98.47
2851.00,98.47
2850.00,98.47
2849.00,98.47
2848.00,98.47
2847.00,98.46
2846.00,98.46
2845.00,98.46
2844.00,98.46
2843.00,98.46
2842.00,98.46
2841.00,98.46
2840.00,98.46
2839.00,98.46
2838.00,98.46
2837.00,98.46
2836.00,98.46
2835.00,98.46
2834.00,98.46
2833.00,98.47
2832.00,98.47
2831.00,98.46
2830.00,98.46
2829.00,98.46
2828.00,98.46
2827.00,98.47
2826.00,98.47
2825.00,98.47
2824.00,98.47
2823.00,98.47
2822.00,98.47
2821.00,98.46
2820.00,98.46
2819.00,98.46
2818.00,98.46
2817.00,98.46
2816.00,98.46
2815.00,98.46
2814.00,98.46
2813.00,98.46
2812.00,98.46
2811.00,98.45
2810.00,98.45
2809.00,98.45
2808.00,98.45
2807.00,98.45
2806.00,98.45
2805.00,98.45
2804.00,98.45
2803.00,98.45
2802.00,98.45
2801.00,98.45
2800.00,98.45
2799.00,98.45
2798.00,98.45
2797.00,98.45
2796.00,98.45
2795.00,98.45
2794.00,98.45
2793.00,98.45
2792.00,98.45
2791.00,98.45
2790.00,98.45
2789.00,98.45
2788.00,98.45
2787.00,98.45
2786.00,98.45
2785.00,98.45
2784.00,98.45
2783.00,98.46
2782.00,98.46
2781.00,98.46
2780.00,98.46
2779.00,98.46
2778.00,98.46
2777.00,98.46
2776.00,98.46
2775.00,98.46
2774.00,98.46
2773.00,98.46
2772.00,98.46
2771.00,98.46
2770.00,98.46
2769.00,98.46
2768.00,98.46
2767.00,98.46
2766.00,98.46
2765.00,98.46
2764.00,98.46
2763.00,98.46
2762.00,98.46
2761.00,98.46
2760.00,98.46
2759.00,98.46
2758.00,98.46
2757.00,98.45
2756.00,98.45
2755.00,98.45
2754.00,98.45
2753.00,98.45
2752.00,98.45
2751.00,98.45
2750.00,98.45
2749.00,98.45
2748.00,98.45
2747.00,98.45
2746.00,98.45
2745.00,98.45
2744.00,98.45
2743.00,98.45
2742.00,98.45
2741.00,98.45
2740.00,98.45
2739.00,98.45
2738.00,98.45
2737.00,98.45
2736.00,98.45
2735.00,98.45
2734.00,98.45
2733.00,98.45
2732.00,98.45
2731.00,98.45
2730.00,98.45
2729.00,98.45
2728.00,98.45
2727.00,98.45
2726.00,98.45
2725.00,98.45
2724.00,98.46
2723.00,98.46
2722.00,98.46
2721.00,98.46
2720.00,98.46
2719.00,98.46
2718.00,98.46
2717.00,98.46
2716.00,98.46
2715.00,98.46
2714.00,98.46
2713.00,98.46
2712.00,98.46
2711.00,98.45
2710.00,98.45
2709.00,98.45
2708.00,98.45
2707.00,98.45
2706.00,98.45
2705.00,98.45
2704.00,98.45
2703.00,98.45
2702.00,98.45
2701.00,98.45
2700.00,98.45
2699.00,98.45
2698.00,98.45
2697.00,98.44
2696.00,98.44
2695.00,98.44
2694.00,98.44
2693.00,98.44
2692.00,98.44
2691.00,98.44
2690.00,98.44
2689.00,98.44
2688.00,98.44
2687.00,98.44
2686.00,98.44
2685.00,98.44
2684.00,98.44
2683.00,98.44
2682.00,98.44
2681.00,98.45
2680.00,98.45
2679.00,98.45
2678.00,98.45
2677.00,98.45
2676.00,98.45
2675.00,98.45
2674.00,98.45
2673.00,98.45
2672.00,98.45
2671.00,98.46
2670.00,98.46
2669.00,98.46
2668.00,98.46
2667.00,98.46
2666.00,98.46
2665.00,98.46
2664.00,98.46
2663.00,98.46
2662.00,98.46
2661.00,98.46
2660.00,98.46
2659.00,98.46
2658.00,98.46
2657.00,98.46
2656.00,98.46
2655.00,98.46
2654.00,98.45
2653.00,98.45
2652.00,98.45
2651.00,98.45
2650.00,98.45
2649.00,98.45
2648.00,98.45
2647.00,98.45
2646.00,98.45
2645.00,98.44
2644.00,98.44
2643.00,98.44
2642.00,98.44
2641.00,98.44
2640.00,98.44
2639.00,98.44
2638.00,98.44
2637.00,98.44
2636.00,98.44
2635.00,98.44
2634.00,98.44
2633.00,98.44
2632.00,98.44
2631.00,98.44
2630.00,98.44
2629.00,98.44
2628.00,98.44
2627.00,98.44
2626.00,98.44
2625.00,98.45
2624.00,98.45
2623.00,98.45
2622.00,98.45
2621.00,98.45
2620.00,98.45
2619.00,98.45
2618.00,98.45
2617.00,98.45
2616.00,98.45
2615.00,98.45
2614.00,98.45
2613.00,98.45
2612.00,98.45
2611.00,98.45
2610.00,98.45
2609.00,98.45
2608.00,98.45
2607.00,98.45
2606.00,98.45
2605.00,98.45
2604.00,98.45
2603.00,98.45
2602.00,98.45
2601.00,98.45
2600.00,98.45
2599.00,98.45
2598.00,98.45
2597.00,98.45
2596.00,98.44
2595.00,98.44
2594.00,98.44
2593.00,98.44
2592.00,98.44
2591.00,98.44
2590.00,98.44
2589.00,98.44
2588.00,98.44
2587.00,98.44
2586.00,98.44
2585.00,98.44
2584.00,98.44
2583.00,98.44
2582.00,98.44
2581.00,98.44
2580.00,98.44
2579.00,98.44
2578.00,98.44
2577.00,98.44
2576.00,98.44
2575.00,98.44
2574.00,98.44
2573.00,98.44
2572.00,98.44
2571.00,98.45
2570.00,98.45
2569.00,98.45
2568.00,98.45
2567.00,98.45
2566.00,98.45
2565.00,98.45
2564.00,98.45
2563.00,98.45
2562.00,98.45
2561.00,98.45
2560.00,98.45
2559.00,98.45
2558.00,98.45
2557.00,98.45
2556.00,98.45
2555.00,98.45
2554.00,98.45
2553.00,98.45
2552.00,98.45
2551.00,98.45
2550.00,98.45
2549.00,98.45
2548.00,98.45
2547.00,98.45
2546.00,98.44
2545.00,98.44
2544.00,98.44
2543.00,98.44
2542.00,98.44
2541.00,98.44
2540.00,98.44
2539.00,98.43
2538.00,98.43
2537.00,98.43
2536.00,98.43
2535.00,98.43
2534.00,98.43
2533.00,98.43
2532.00,98.43
2531.00,98.43
2530.00,98.43
2529.00,98.43
2528.00,98.43
2527.00,98.43
2526.00,98.43
2525.00,98.43
2524.00,98.43
2523.00,98.44
2522.00,98.44
2521.00,98.44
2520.00,98.44
2519.00,98.44
2518.00,98.44
2517.00,98.44
2516.00,98.44
2515.00,98.44
2514.00,98.44
2513.00,98.44
2512.00,98.45
2511.00,98.45
2510.00,98.45
2509.00,98.45
2508.00,98.45
2507.00,98.45
2506.00,98.45
2505.00,98.45
2504.00,98.45
2503.00,98.45
2502.00,98.45
2501.00,98.45
2500.00,98.45
2499.00,98.45
2498.00,98.45
2497.00,98.45
2496.00,98.44
2495.00,98.44
2494.00,98.44
2493.00,98.44
2492.00,98.44
2491.00,98.44
2490.00,98.44
2489.00,98.44
2488.00,98.44
2487.00,98.44
2486.00,98.44
2485.00,98.44
2484.00,98.44
2483.00,98.43
2482.00,98.43
2481.00,98.43
2480.00,98.43
2479.00,98.43
2478.00,98.43
2477.00,98.43
2476.00,98.43
2475.00,98.43
2474.00,98.43
2473.00,98.43
2472.00,98.43
2471.00,98.43
2470.00,98.44
2469.00,98.44
2468.00,98.44
2467.00,98.44
2466.00,98.44
2465.00,98.44
2464.00,98.44
2463.00,98.44
2462.00,98.44
2461.00,98.44
2460.00,98.44
2459.00,98.44
2458.00,98.44
2457.00,98.45
2456.00,98.45
2455.00,98.45
2454.00,98.44
2453.00,98.44
2452.00,98.44
2451.00,98.44
2450.00,98.44
2449.00,98.44
2448.00,98.44
2447.00,98.44
2446.00,98.44
2445.00,98.44
2444.00,98.44
2443.00,98.44
2442.00,98.44
2441.00,98.44
2440.00,98.44
2439.00,98.44
2438.00,98.44
2437.00,98.44
2436.00,98.43
2435.00,98.43
2434.00,98.43
2433.00,98.43
2432.00,98.43
2431.00,98.43
2430.00,98.43
2429.00,98.43
2428.00,98.43
2427.00,98.43
2426.00,98.43
2425.00,98.43
2424.00,98.43
2423.00,98.43
2422.00,98.43
2421.00,98.43
2420.00,98.43
2419.00,98.43
2418.00,98.43
2417.00,98.43
2416.00,98.43
2415.00,98.43
2414.00,98.43
2413.00,98.43
2412.00,98.43
2411.00,98.43
2410.00,98.44
2409.00,98.44
2408.00,98.44
2407.00,98.44
2406.00,98.44
2405.00,98.44
2404.00,98.44
2403.00,98.44
2402.00,98.45
2401.00,98.45
2400.00,98.45
2399.00,98.45
2398.00,98.45
2397.00,98.45
2396.00,98.45
2395.00,98.45
2394.00,98.45
2393.00,98.45
2392.00,98.45
2391.00,98.45
2390.00,98.45
2389.00,98.45
2388.00,98.45
2387.00,98.44
2386.00,98.45
2385.00,98.45
2384.00,98.45
2383.00,98.45
2382.00,98.45
2381.00,98.45
2380.00,98.45
2379.00,98.45
2378.00,98.46
2377.00,98.46
2376.00,98.46
2375.00,98.46
2374.00,98.46
2373.00,98.45
2372.00,98.45
2371.00,98.45
2370.00,98.45
2369.00,98.45
2368.00,98.45
2367.00,98.46
2366.00,98.46
2365.00,98.46
2364.00,98.46
2363.00,98.47
2362.00,98.47
2361.00,98.47
2360.00,98.48
2359.00,98.49
2358.00,98.50
2357.00,98.51
2356.00,98.51
2355.00,98.51
2354.00,98.49
2353.00,98.47
2352.00,98.46
2351.00,98.48
2350.00,98.49
2349.00,98.50
2348.00,98.48
2347.00,98.46
2346.00,98.44
2345.00,98.45
2344.00,98.46
2343.00,98.47
2342.00,98.47
2341.00,98.47
2340.00,98.47
2339.00,98.46
2338.00,98.46
2337.00,98.46
2336.00,98.46
2335.00,98.47
2334.00,98.47
2333.00,98.47
2332.00,98.46
2331.00,98.46
2330.00,98.45
2329.00,98.45
2328.00,98.46
2327.00,98.46
2326.00,98.46
2325.00,98.46
2324.00,98.45
2323.00,98.45
2322.00,98.45
2321.00,98.44
2320.00,98.44
2319.00,98.44
2318.00,98.44
2317.00,98.44
2316.00,98.44
2315.00,98.43
2314.00,98.43
2313.00,98.42
2312.00,98.42
2311.00,98.42
2310.00,98.42
2309.00,98.42
2308.00,98.42
2307.00,98.42
2306.00,98.42
2305.00,98.42
2304.00,98.42
2303.00,98.42
2302.00,98.43
2301.00,98.43
2300.00,98.43
2299.00,98.43
2298.00,98.43
2297.00,98.43
2296.00,98.44
2295.00,98.44
2294.00,98.44
2293.00,98.44
2292.00,98.44
2291.00,98.44
2290.00,98.44
2289.00,98.44
2288.00,98.44
2287.00,98.44
2286.00,98.44
2285.00,98.44
2284.00,98.44
2283.00,98.44
2282.00,98.44
2281.00,98.44
2280.00,98.43
2279.00,98.43
2278.00,98.43
2277.00,98.43
2276.00,98.43
2275.00,98.43
2274.00,98.43
2273.00,98.42
2272.00,98.42
2271.00,98.42
2270.00,98.42
2269.00,98.42
2268.00,98.42
2267.00,98.42
2266.00,98.42
2265.00,98.42
2264.00,98.42
2263.00,98.42
2262.00,98.42
2261.00,98.42
2260.00,98.42
2259.00,98.42
2258.00,98.42
2257.00,98.42
2256.00,98.42
2255.00,98.42
2254.00,98.42
2253.00,98.42
2252.00,98.43
2251.00,98.43
2250.00,98.43
2249.00,98.43
2248.00,98.43
2247.00,98.43
2246.00,98.43
2245.00,98.44
2244.00,98.44
2243.00,98.44
2242.00,98.44
2241.00,98.44
2240.00,98.44
2239.00,98.44
2238.00,98.44
2237.00,98.44
2236.00,98.44
2235.00,98.44
2234.00,98.44
2233.00,98.44
2232.00,98.44
2231.00,98.44
2230.00,98.44
2229.00,98.44
2228.00,98.43
2227.00,98.43
2226.00,98.43
2225.00,98.43
2224.00,98.43
2223.00,98.43
2222.00,98.43
2221.00,98.43
2220.00,98.42
2219.00,98.42
2218.00,98.42
2217.00,98.42
2216.00,98.42
2215.00,98.42
2214.00,98.42
2213.00,98.42
2212.00,98.42
2211.00,98.42
2210.00,98.42
2209.00,98.42
2208.00,98.42
2207.00,98.42
2206.00,98.42
2205.00,98.42
2204.00,98.42
2203.00,98.42
2202.00,98.42
2201.00,98.42
2200.00,98.43
2199.00,98.43
2198.00,98.43
2197.00,98.43
2196.00,98.43
2195.00,98.43
2194.00,98.43
2193.00,98.43
2192.00,98.43
2191.00,98.43
2190.00,98.43
2189.00,98.43
2188.00,98.44
2187.00,98.44
2186.00,98.43
2185.00,98.43
2184.00,98.43
2183.00,98.43
2182.00,98.43
2181.00,98.43
2180.00,98.43
2179.00,98.43
2178.00,98.43
2177.00,98.43
2176.00,98.43
2175.00,98.43
2174.00,98.43
2173.00,98.43
2172.00,98.42
2171.00,98.42
2170.00,98.42
2169.00,98.42
2168.00,98.42
2167.00,98.42
2166.00,98.42
2165.00,98.41
2164.00,98.41
2163.00,98.41
2162.00,98.41
2161.00,98.41
2160.00,98.41
2159.00,98.41
2158.00,98.41
2157.00,98.41
2156.00,98.41
2155.00,98.41
2154.00,98.41
2153.00,98.41
2152.00,98.41
2151.00,98.41
2150.00,98.41
2149.00,98.42
2148.00,98.42
2147.00,98.42
2146.00,98.42
2145.00,98.42
2144.00,98.42
2143.00,98.42
2142.00,98.43
2141.00,98.43
2140.00,98.43
2139.00,98.43
2138.00,98.43
2137.00,98.43
2136.00,98.43
2135.00,98.43
2134.00,98.43
2133.00,98.43
2132.00,98.43
2131.00,98.43
2130.00,98.43
2129.00,98.43
2128.00,98.43
2127.00,98.43
2126.00,98.43
2125.00,98.43
2124.00,98.43
2123.00,98.43
2122.00,98.43
2121.00,98.43
2120.00,98.43
2119.00,98.42
2118.00,98.42
2117.00,98.42
2116.00,98.42
2115.00,98.42
2114.00,98.42
2113.00,98.42
2112.00,98.42
2111.00,98.42
2110.00,98.42
2109.00,98.41
2108.00,98.41
2107.00,98.41
2106.00,98.41
2105.00,98.41
2104.00,98.41
2103.00,98.41
2102.00,98.41
2101.00,98.41
2100.00,98.41
2099.00,98.41
2098.00,98.41
2097.00,98.41
2096.00,98.41
2095.00,98.41
2094.00,98.41
2093.00,98.42
2092.00,98.42
2091.00,98.42
2090.00,98.42
2089.00,98.42
2088.00,98.42
2087.00,98.42
2086.00,98.42
2085.00,98.43
2084.00,98.43
2083.00,98.43
2082.00,98.43
2081.00,98.43
2080.00,98.43
2079.00,98.43
2078.00,98.43
2077.00,98.43
2076.00,98.43
2075.00,98.43
2074.00,98.43
2073.00,98.43
2072.00,98.43
2071.00,98.43
2070.00,98.43
2069.00,98.43
2068.00,98.42
2067.00,98.42
2066.00,98.42
2065.00,98.42
2064.00,98.42
2063.00,98.42
2062.00,98.41
2061.00,98.41
2060.00,98.41
2059.00,98.41
2058.00,98.41
2057.00,98.41
2056.00,98.41
2055.00,98.41
2054.00,98.41
2053.00,98.41
2052.00,98.41
2051.00,98.41
2050.00,98.41
2049.00,98.41
2048.00,98.41
2047.00,98.41
2046.00,98.41
2045.00,98.41
2044.00,98.41
2043.00,98.41
2042.00,98.41
2041.00,98.41
2040.00,98.41
2039.00,98.41
2038.00,98.41
2037.00,98.42
2036.00,98.42
2035.00,98.42
2034.00,98.42
2033.00,98.42
2032.00,98.42
2031.00,98.42
2030.00,98.42
2029.00,98.43
2028.00,98.43
2027.00,98.43
2026.00,98.43
2025.00,98.43
2024.00,98.43
2023.00,98.43
2022.00,98.43
2021.00,98.43
2020.00,98.43
2019.00,98.43
2018.00,98.42
2017.00,98.42
2016.00,98.42
2015.00,98.42
2014.00,98.42
2013.00,98.41
2012.00,98.41
2011.00,98.41
2010.00,98.41
2009.00,98.41
2008.00,98.41
2007.00,98.40
2006.00,98.40
2005.00,98.40
2004.00,98.40
2003.00,98.40
2002.00,98.40
2001.00,98.40
2000.00,98.40
1999.00,98.40
1998.00,98.40
1997.00,98.40
1996.00,98.40
1995.00,98.40
1994.00,98.40
1993.00,98.40
1992.00,98.40
1991.00,98.40
1990.00,98.40
1989.00,98.40
1988.00,98.40
1987.00,98.40
1986.00,98.40
1985.00,98.41
1984.00,98.41
1983.00,98.41
1982.00,98.41
1981.00,98.41
1980.00,98.41
1979.00,98.42
1978.00,98.42
1977.00,98.42
1976.00,98.42
1975.00,98.42
1974.00,98.42
1973.00,98.42
1972.00,98.42
1971.00,98.42
1970.00,98.42
1969.00,98.42
1968.00,98.42
1967.00,98.42
1966.00,98.42
1965.00,98.42
1964.00,98.41
1963.00,98.41
1962.00,98.41
1961.00,98.41
1960.00,98.41
1959.00,98.41
1958.00,98.42
1957.00,98.42
1956.00,98.41
1955.00,98.41
1954.00,98.40
1953.00,98.40
1952.00,98.40
1951.00,98.40
1950.00,98.40
1949.00,98.40
1948.00,98.40
1947.00,98.40
1946.00,98.40
1945.00,98.40
1944.00,98.40
1943.00,98.39
1942.00,98.39
1941.00,98.39
1940.00,98.39
1939.00,98.39
1938.00,98.40
1937.00,98.40
1936.00,98.40
1935.00,98.40
1934.00,98.40
1933.00,98.40
1932.00,98.41
1931.00,98.41
1930.00,98.41
1929.00,98.41
1928.00,98.41
1927.00,98.41
1926.00,98.41
1925.00,98.41
1924.00,98.41
1923.00,98.41
1922.00,98.41
1921.00,98.41
1920.00,98.41
1919.00,98.41
1918.00,98.41
1917.00,98.41
1916.00,98.41
1915.00,98.41
1914.00,98.41
1913.00,98.41
1912.00,98.41
1911.00,98.41
1910.00,98.41
1909.00,98.41
1908.00,98.41
1907.00,98.41
1906.00,98.40
1905.00,98.40
1904.00,98.40
1903.00,98.40
1902.00,98.40
1901.00,98.40
1900.00,98.40
1899.00,98.40
1898.00,98.39
1897.00,98.39
1896.00,98.39
1895.00,98.39
1894.00,98.39
1893.00,98.39
1892.00,98.39
1891.00,98.39
1890.00,98.39
1889.00,98.39
1888.00,98.39
1887.00,98.39
1886.00,98.39
1885.00,98.39
1884.00,98.39
1883.00,98.39
1882.00,98.39
1881.00,98.40
1880.00,98.40
1879.00,98.40
1878.00,98.40
1877.00,98.40
1876.00,98.41
1875.00,98.41
1874.00,98.41
1873.00,98.41
1872.00,98.41
1871.00,98.41
1870.00,98.41
1869.00,98.41
1868.00,98.41
1867.00,98.41
1866.00,98.40
1865.00,98.41
1864.00,98.41
1863.00,98.41
1862.00,98.41
1861.00,98.41
1860.00,98.42
1859.00,98.41
1858.00,98.41
1857.00,98.41
1856.00,98.41
1855.00,98.41
1854.00,98.41
1853.00,98.40
1852.00,98.40
1851.00,98.40
1850.00,98.40
1849.00,98.40
1848.00,98.40
1847.00,98.39
1846.00,98.39
1845.00,98.39
1844.00,98.38
1843.00,98.38
1842.00,98.38
1841.00,98.37
1840.00,98.37
1839.00,98.37
1838.00,98.38
1837.00,98.38
1836.00,98.38
1835.00,98.38
1834.00,98.38
1833.00,98.39
1832.00,98.39
1831.00,98.39
1830.00,98.39
1829.00,98.39
1828.00,98.38
1827.00,98.38
1826.00,98.38
1825.00,98.38
1824.00,98.39
1823.00,98.39
1822.00,98.39
1821.00,98.39
1820.00,98.40
1819.00,98.40
1818.00,98.40
1817.00,98.40
1816.00,98.41
1815.00,98.41
1814.00,98.41
1813.00,98.41
1812.00,98.41
1811.00,98.41
1810.00,98.41
1809.00,98.41
1808.00,98.41
1807.00,98.40
1806.00,98.40
1805.00,98.40
1804.00,98.41
1803.00,98.40
1802.00,98.40
1801.00,98.39
1800.00,98.39
1799.00,98.39
1798.00,98.39
1797.00,98.39
1796.00,98.39
1795.00,98.39
1794.00,98.38
1793.00,98.38
1792.00,98.38
1791.00,98.37
1790.00,98.37
1789.00,98.37
1788.00,98.37
1787.00,98.37
1786.00,98.37
1785.00,98.37
1784.00,98.38
1783.00,98.38
1782.00,98.38
1781.00,98.38
1780.00,98.38
1779.00,98.38
1778.00,98.38
1777.00,98.38
1776.00,98.38
1775.00,98.39
1774.00,98.39
1773.00,98.39
1772.00,98.39
1771.00,98.38
1770.00,98.37
1769.00,98.37
1768.00,98.37
1767.00,98.38
1766.00,98.38
1765.00,98.39
1764.00,98.39
1763.00,98.39
1762.00,98.39
1761.00,98.39
1760.00,98.39
1759.00,98.39
1758.00,98.38
1757.00,98.38
1756.00,98.38
1755.00,98.38
1754.00,98.37
1753.00,98.36
1752.00,98.36
1751.00,98.37
1750.00,98.37
1749.00,98.37
1748.00,98.36
1747.00,98.36
1746.00,98.36
1745.00,98.36
1744.00,98.36
1743.00,98.36
1742.00,98.36
1741.00,98.36
1740.00,98.36
1739.00,98.36
1738.00,98.36
1737.00,98.35
1736.00,98.34
1735.00,98.34
1734.00,98.35
1733.00,98.36
1732.00,98.35
1731.00,98.34
1730.00,98.34
1729.00,98.35
1728.00,98.35
1727.00,98.36
1726.00,98.36
1725.00,98.37
1724.00,98.37
1723.00,98.37
1722.00,98.37
1721.00,98.37
1720.00,98.37
1719.00,98.37
1718.00,98.37
1717.00,98.37
1716.00,98.37
1715.00,98.36
1714.00,98.35
1713.00,98.36
1712.00,98.37
1711.00,98.38
1710.00,98.38
1709.00,98.39
1708.00,98.40
1707.00,98.40
1706.00,98.39
1705.00,98.40
1704.00,98.39
1703.00,98.38
1702.00,98.37
1701.00,98.37
1700.00,98.38
1699.00,98.39
1698.00,98.37
1697.00,98.36
1696.00,98.36
1695.00,98.38
1694.00,98.38
1693.00,98.38
1692.00,98.37
1691.00,98.37
1690.00,98.38
1689.00,98.38
1688.00,98.38
1687.00,98.38
1686.00,98.38
1685.00,98.38
1684.00,98.38
1683.00,98.37
1682.00,98.36
1681.00,98.35
1680.00,98.35
1679.00,98.35
1678.00,98.36
1677.00,98.36
1676.00,98.36
1675.00,98.36
1674.00,98.37
1673.00,98.36
1672.00,98.36
1671.00,98.36
1670.00,98.36
1669.00,98.36
1668.00,98.36
1667.00,98.36
1666.00,98.37
1665.00,98.37
1664.00,98.38
1663.00,98.38
1662.00,98.39
1661.00,98.38
1660.00,98.38
1659.00,98.38
1658.00,98.39
1657.00,98.39
1656.00,98.39
1655.00,98.40
1654.00,98.40
1653.00,98.40
1652.00,98.40
1651.00,98.40
1650.00,98.38
1649.00,98.36
1648.00,98.36
1647.00,98.37
1646.00,98.37
1645.00,98.38
1644.00,98.38
1643.00,98.38
1642.00,98.38
1641.00,98.38
1640.00,98.39
1639.00,98.39
1638.00,98.39
1637.00,98.38
1636.00,98.38
1635.00,98.37
1634.00,98.37
1633.00,98.37
1632.00,98.36
1631.00,98.36
1630.00,98.37
1629.00,98.38
1628.00,98.38
1627.00,98.37
1626.00,98.37
1625.00,98.37
1624.00,98.37
1623.00,98.37
1622.00,98.37
1621.00,98.37
1620.00,98.37
1619.00,98.37
1618.00,98.38
1617.00,98.39
1616.00,98.39
1615.00,98.39
1614.00,98.38
1613.00,98.38
1612.00,98.38
1611.00,98.39
1610.00,98.39
1609.00,98.40
1608.00,98.40
1607.00,98.40
1606.00,98.40
1605.00,98.40
1604.00,98.40
1603.00,98.40
1602.00,98.41
1601.00,98.41
1600.00,98.40
1599.00,98.40
1598.00,98.41
1597.00,98.41
1596.00,98.40
1595.00,98.40
1594.00,98.40
1593.00,98.40
1592.00,98.40
1591.00,98.40
1590.00,98.40
1589.00,98.39
1588.00,98.39
1587.00,98.39
1586.00,98.39
1585.00,98.39
1584.00,98.39
1583.00,98.38
1582.00,98.39
1581.00,98.39
1580.00,98.38
1579.00,98.38
1578.00,98.38
1577.00,98.38
1576.00,98.38
1575.00,98.38
1574.00,98.37
1573.00,98.37
1572.00,98.36
1571.00,98.37
1570.00,98.37
1569.00,98.37
1568.00,98.36
1567.00,98.36
1566.00,98.36
1565.00,98.36
1564.00,98.37
1563.00,98.37
1562.00,98.38
1561.00,98.38
1560.00,98.38
1559.00,98.37
1558.00,98.36
1557.00,98.35
1556.00,98.34
1555.00,98.34
1554.00,98.36
1553.00,98.37
1552.00,98.37
1551.00,98.38
1550.00,98.38
1549.00,98.38
1548.00,98.38
1547.00,98.38
1546.00,98.38
1545.00,98.38
1544.00,98.38
1543.00,98.38
1542.00,98.37
1541.00,98.37
1540.00,98.36
1539.00,98.36
1538.00,98.37
1537.00,98.37
1536.00,98.36
1535.00,98.36
1534.00,98.37
1533.00,98.37
1532.00,98.37
1531.00,98.37
1530.00,98.36
1529.00,98.36
1528.00,98.37
1527.00,98.37
1526.00,98.36
1525.00,98.36
1524.00,98.35
1523.00,98.35
1522.00,98.35
1521.00,98.35
1520.00,98.35
1519.00,98.34
1518.00,98.34
1517.00,98.34
1516.00,98.34
1515.00,98.34
1514.00,98.34
1513.00,98.34
1512.00,98.35
1511.00,98.36
1510.00,98.36
1509.00,98.36
1508.00,98.36
1507.00,98.35
1506.00,98.34
1505.00,98.35
1504.00,98.35
1503.00,98.35
1502.00,98.36
1501.00,98.37
1500.00,98.38
1499.00,98.38
1498.00,98.38
1497.00,98.38
1496.00,98.38
1495.00,98.39
1494.00,98.39
1493.00,98.39
1492.00,98.40
1491.00,98.40
1490.00,98.39
1489.00,98.39
1488.00,98.38
1487.00,98.38
1486.00,98.38
1485.00,98.39
1484.00,98.39
1483.00,98.39
1482.00,98.39
1481.00,98.39
1480.00,98.38
1479.00,98.38
1478.00,98.38
1477.00,98.37
1476.00,98.37
1475.00,98.36
1474.00,98.35
1473.00,98.35
1472.00,98.35
1471.00,98.35
1470.00,98.35
1469.00,98.35
1468.00,98.36
1467.00,98.36
1466.00,98.36
1465.00,98.36
1464.00,98.36
1463.00,98.36
1462.00,98.36
1461.00,98.36
1460.00,98.36
1459.00,98.36
1458.00,98.36
1457.00,98.35
1456.00,98.35
1455.00,98.35
1454.00,98.35
1453.00,98.35
1452.00,98.36
1451.00,98.38
1450.00,98.38
1449.00,98.38
1448.00,98.38
1447.00,98.38
1446.00,98.38
1445.00,98.38
1444.00,98.38
1443.00,98.39
1442.00,98.39
1441.00,98.39
1440.00,98.39
1439.00,98.39
1438.00,98.38
1437.00,98.38
1436.00,98.38
1435.00,98.38
1434.00,98.38
1433.00,98.37
1432.00,98.38
1431.00,98.38
1430.00,98.38
1429.00,98.38
1428.00,98.37
1427.00,98.38
1426.00,98.38
1425.00,98.37
1424.00,98.37
1423.00,98.37
1422.00,98.37
1421.00,98.36
1420.00,98.36
1419.00,98.36
1418.00,98.35
1417.00,98.34
1416.00,98.34
1415.00,98.35
1414.00,98.36
1413.00,98.36
1412.00,98.36
1411.00,98.36
1410.00,98.37
1409.00,98.36
1408.00,98.36
1407.00,98.37
1406.00,98.37
1405.00,98.37
1404.00,98.37
1403.00,98.37
1402.00,98.37
1401.00,98.37
1400.00,98.37
1399.00,98.37
1398.00,98.37
1397.00,98.37
1396.00,98.37
1395.00,98.37
1394.00,98.37
1393.00,98.37
1392.00,98.38
1391.00,98.38
1390.00,98.39
1389.00,98.39
1388.00,98.38
1387.00,98.38
1386.00,98.38
1385.00,98.38
1384.00,98.39
1383.00,98.39
1382.00,98.39
1381.00,98.39
1380.00,98.39
1379.00,98.39
1378.00,98.39
1377.00,98.38
1376.00,98.38
1375.00,98.38
1374.00,98.38
1373.00,98.37
1372.00,98.37
1371.00,98.37
1370.00,98.37
1369.00,98.37
1368.00,98.37
1367.00,98.37
1366.00,98.37
1365.00,98.37
1364.00,98.37
1363.00,98.37
1362.00,98.36
1361.00,98.36
1360.00,98.35
1359.00,98.36
1358.00,98.36
1357.00,98.36
1356.00,98.36
1355.00,98.37
1354.00,98.37
1353.00,98.37
1352.00,98.37
1351.00,98.37
1350.00,98.37
1349.00,98.37
1348.00,98.37
1347.00,98.37
1346.00,98.38
1345.00,98.38
1344.00,98.38
1343.00,98.38
1342.00,98.38
1341.00,98.38
1340.00,98.39
1339.00,98.38
1338.00,98.38
1337.00,98.38
1336.00,98.39
1335.00,98.39
1334.00,98.39
1333.00,98.39
1332.00,98.39
1331.00,98.39
1330.00,98.39
1329.00,98.39
1328.00,98.39
1327.00,98.39
1326.00,98.39
1325.00,98.39
1324.00,98.39
1323.00,98.39
1322.00,98.39
1321.00,98.39
1320.00,98.39
1319.00,98.39
1318.00,98.38
1317.00,98.38
1316.00,98.38
1315.00,98.38
1314.00,98.38
1313.00,98.38
1312.00,98.38
1311.00,98.37
1310.00,98.37
1309.00,98.37
1308.00,98.37
1307.00,98.38
1306.00,98.38
1305.00,98.38
1304.00,98.38
1303.00,98.38
1302.00,98.38
1301.00,98.38
1300.00,98.38
1299.00,98.38
1298.00,98.38
1297.00,98.38
1296.00,98.38
1295.00,98.38
1294.00,98.39
1293.00,98.39
1292.00,98.39
1291.00,98.39
1290.00,98.39
1289.00,98.39
1288.00,98.39
1287.00,98.39
1286.00,98.40
1285.00,98.40
1284.00,98.40
1283.00,98.40
1282.00,98.40
1281.00,98.40
1280.00,98.40
1279.00,98.40
1278.00,98.40
1277.00,98.40
1276.00,98.40
1275.00,98.40
1274.00,98.40
1273.00,98.40
1272.00,98.40
1271.00,98.40
1270.00,98.40
1269.00,98.40
1268.00,98.40
1267.00,98.40
1266.00,98.39
1265.00,98.39
1264.00,98.39
1263.00,98.39
1262.00,98.39
1261.00,98.39
1260.00,98.39
1259.00,98.39
1258.00,98.39
1257.00,98.39
1256.00,98.39
1255.00,98.39
1254.00,98.38
1253.00,98.38
1252.00,98.38
1251.00,98.38
1250.00,98.38
1249.00,98.38
1248.00,98.39
1247.00,98.39
1246.00,98.39
1245.00,98.39
1244.00,98.39
1243.00,98.39
1242.00,98.39
1241.00,98.39
1240.00,98.39
1239.00,98.39
1238.00,98.39
1237.00,98.40
1236.00,98.40
1235.00,98.40
1234.00,98.40
1233.00,98.40
1232.00,98.40
1231.00,98.40
1230.00,98.40
1229.00,98.40
1228.00,98.40
1227.00,98.40
1226.00,98.41
1225.00,98.41
1224.00,98.41
1223.00,98.41
1222.00,98.41
1221.00,98.41
1220.00,98.40
1219.00,98.40
1218.00,98.40
1217.00,98.40
1216.00,98.40
1215.00,98.40
1214.00,98.40
1213.00,98.40
1212.00,98.40
1211.00,98.40
1210.00,98.40
1209.00,98.39
1208.00,98.39
1207.00,98.39
1206.00,98.39
1205.00,98.39
1204.00,98.39
1203.00,98.39
1202.00,98.39
1201.00,98.39
1200.00,98.39
1199.00,98.39
1198.00,98.39
1197.00,98.39
1196.00,98.39
1195.00,98.39
1194.00,98.39
1193.00,98.39
1192.00,98.39
1191.00,98.39
1190.00,98.40
1189.00,98.40
1188.00,98.40
1187.00,98.40
1186.00,98.41
1185.00,98.41
1184.00,98.41
1183.00,98.41
1182.00,98.41
1181.00,98.41
1180.00,98.41
1179.00,98.41
1178.00,98.41
1177.00,98.41
1176.00,98.41
1175.00,98.41
1174.00,98.42
1173.00,98.42
1172.00,98.42
1171.00,98.42
1170.00,98.42
1169.00,98.42
1168.00,98.42
1167.00,98.42
1166.00,98.42
1165.00,98.42
1164.00,98.42
1163.00,98.42
1162.00,98.42
1161.00,98.42
1160.00,98.41
1159.00,98.41
1158.00,98.41
1157.00,98.41
1156.00,98.41
1155.00,98.41
1154.00,98.41
1153.00,98.41
1152.00,98.40
1151.00,98.40
1150.00,98.40
1149.00,98.40
1148.00,98.40
1147.00,98.40
1146.00,98.40
1145.00,98.40
1144.00,98.40
1143.00,98.40
1142.00,98.40
1141.00,98.40
1140.00,98.40
1139.00,98.40
1138.00,98.40
1137.00,98.40
1136.00,98.40
1135.00,98.40
1134.00,98.40
1133.00,98.41
1132.00,98.41
1131.00,98.41
1130.00,98.41
1129.00,98.41
1128.00,98.41
1127.00,98.42
1126.00,98.42
1125.00,98.42
1124.00,98.42
1123.00,98.42
1122.00,98.42
1121.00,98.42
1120.00,98.42
1119.00,98.42
1118.00,98.42
1117.00,98.42
1116.00,98.42
1115.00,98.42
1114.00,98.42
1113.00,98.42
1112.00,98.42
1111.00,98.42
1110.00,98.42
1109.00,98.42
1108.00,98.42
1107.00,98.42
1106.00,98.42
1105.00,98.41
1104.00,98.41
1103.00,98.41
1102.00,98.41
1101.00,98.41
1100.00,98.41
1099.00,98.40
1098.00,98.40
1097.00,98.40
1096.00,98.40
1095.00,98.40
1094.00,98.40
1093.00,98.40
1092.00,98.40
1091.00,98.40
1090.00,98.40
1089.00,98.40
1088.00,98.40
1087.00,98.40
1086.00,98.40
1085.00,98.40
1084.00,98.40
1083.00,98.41
1082.00,98.41
1081.00,98.41
1080.00,98.41
1079.00,98.41
1078.00,98.41
1077.00,98.41
1076.00,98.42
1075.00,98.42
1074.00,98.42
1073.00,98.42
1072.00,98.42
1071.00,98.42
1070.00,98.42
1069.00,98.42
1068.00,98.42
1067.00,98.42
1066.00,98.42
1065.00,98.42
1064.00,98.42
1063.00,98.42
1062.00,98.42
1061.00,98.42
1060.00,98.42
1059.00,98.42
1058.00,98.42
1057.00,98.42
1056.00,98.42
1055.00,98.42
1054.00,98.42
1053.00,98.42
1052.00,98.42
1051.00,98.42
1050.00,98.42
1049.00,98.42
1048.00,98.41
1047.00,98.41
1046.00,98.41
1045.00,98.41
1044.00,98.40
1043.00,98.40
1042.00,98.40
1041.00,98.40
1040.00,98.39
1039.00,98.39
1038.00,98.39
1037.00,98.39
1036.00,98.39
1035.00,98.39
1034.00,98.39
1033.00,98.38
1032.00,98.38
1031.00,98.38
1030.00,98.38
1029.00,98.38
1028.00,98.38
1027.00,98.39
1026.00,98.39
1025.00,98.39
1024.00,98.39
1023.00,98.39
1022.00,98.39
1021.00,98.38
1020.00,98.38
1019.00,98.38
1018.00,98.38
1017.00,98.38
1016.00,98.38
1015.00,98.38
1014.00,98.39
1013.00,98.39
1012.00,98.38
1011.00,98.38
1010.00,98.38
1009.00,98.38
1008.00,98.38
1007.00,98.38
1006.00,98.38
1005.00,98.38
1004.00,98.37
1003.00,98.37
1002.00,98.37
1001.00,98.37
1000.00,98.37
999.00,98.37
998.00,98.36
997.00,98.36
996.00,98.36
995.00,98.36
994.00,98.35
993.00,98.35
992.00,98.35
991.00,98.35
990.00,98.35
989.00,98.35
988.00,98.35
987.00,98.35
986.00,98.34
985.00,98.34
984.00,98.34
983.00,98.34
982.00,98.34
981.00,98.34
980.00,98.34
979.00,98.34
978.00,98.34
977.00,98.35
976.00,98.35
975.00,98.35
974.00,98.35
973.00,98.34
972.00,98.35
971.00,98.35
970.00,98.35
969.00,98.35
968.00,98.35
967.00,98.35
966.00,98.35
965.00,98.35
964.00,98.35
963.00,98.35
962.00,98.35
961.00,98.35
960.00,98.35
959.00,98.35
958.00,98.35
957.00,98.35
956.00,98.35
955.00,98.35
954.00,98.35
953.00,98.35
952.00,98.35
951.00,98.35
950.00,98.35
949.00,98.35
948.00,98.35
947.00,98.34
946.00,98.34
945.00,98.34
944.00,98.34
943.00,98.34
942.00,98.34
941.00,98.33
940.00,98.33
939.00,98.33
938.00,98.33
937.00,98.33
936.00,98.33
935.00,98.33
934.00,98.33
933.00,98.33
932.00,98.33
931.00,98.33
930.00,98.32
929.00,98.32
928.00,98.32
927.00,98.33
926.00,98.33
925.00,98.33
924.00,98.33
923.00,98.33
922.00,98.33
921.00,98.33
920.00,98.33
919.00,98.33
918.00,98.34
917.00,98.34
916.00,98.34
915.00,98.34
914.00,98.34
913.00,98.34
912.00,98.34
911.00,98.34
910.00,98.35
909.00,98.35
908.00,98.35
907.00,98.35
906.00,98.34
905.00,98.34
904.00,98.35
903.00,98.35
902.00,98.35
901.00,98.35
900.00,98.35
899.00,98.35
898.00,98.34
897.00,98.34
896.00,98.34
895.00,98.34
894.00,98.35
893.00,98.35
892.00,98.34
891.00,98.34
890.00,98.34
889.00,98.34
888.00,98.34
887.00,98.34
886.00,98.34
885.00,98.34
884.00,98.34
883.00,98.34
882.00,98.34
881.00,98.34
880.00,98.34
879.00,98.34
878.00,98.34
877.00,98.34
876.00,98.34
875.00,98.35
874.00,98.35
873.00,98.35
872.00,98.35
871.00,98.35
870.00,98.35
869.00,98.35
868.00,98.35
867.00,98.35
866.00,98.35
865.00,98.36
864.00,98.36
863.00,98.36
862.00,98.36
861.00,98.36
860.00,98.36
859.00,98.36
858.00,98.36
857.00,98.36
856.00,98.36
855.00,98.36
854.00,98.36
853.00,98.36
852.00,98.36
851.00,98.36
850.00,98.36
849.00,98.36
848.00,98.37
847.00,98.37
846.00,98.37
845.00,98.37
844.00,98.36
843.00,98.36
842.00,98.36
841.00,98.36
840.00,98.36
839.00,98.36
838.00,98.36
837.00,98.36
836.00,98.36
835.00,98.36
834.00,98.36
833.00,98.36
832.00,98.36
831.00,98.36
830.00,98.37
829.00,98.37
828.00,98.37
827.00,98.37
826.00,98.37
825.00,98.37
824.00,98.37
823.00,98.37
822.00,98.37
821.00,98.37
820.00,98.37
819.00,98.37
818.00,98.37
817.00,98.37
816.00,98.37
815.00,98.37
814.00,98.38
813.00,98.38
812.00,98.38
811.00,98.38
810.00,98.38
809.00,98.38
808.00,98.38
807.00,98.38
806.00,98.38
805.00,98.38
804.00,98.38
803.00,98.38
802.00,98.38
801.00,98.38
800.00,98.38
799.00,98.38
798.00,98.38
797.00,98.38
796.00,98.38
795.00,98.38
794.00,98.38
793.00,98.38
792.00,98.38
791.00,98.38
790.00,98.38
789.00,98.38
788.00,98.37
787.00,98.37
786.00,98.38
785.00,98.38
784.00,98.38
783.00,98.38
782.00,98.37
781.00,98.37
780.00,98.37
779.00,98.37
778.00,98.37
777.00,98.37
776.00,98.37
775.00,98.37
774.00,98.37
773.00,98.37
772.00,98.37
771.00,98.37
770.00,98.37
769.00,98.37
768.00,98.36
767.00,98.36
766.00,98.36
765.00,98.37
764.00,98.37
763.00,98.37
762.00,98.38
761.00,98.38
760.00,98.38
759.00,98.38
758.00,98.38
757.00,98.38
756.00,98.38
755.00,98.39
754.00,98.39
753.00,98.39
752.00,98.39
751.00,98.40
750.00,98.40
749.00,98.40
748.00,98.40
747.00,98.39
746.00,98.39
745.00,98.39
744.00,98.39
743.00,98.39
742.00,98.39
741.00,98.39
740.00,98.40
739.00,98.40
738.00,98.40
737.00,98.40
736.00,98.40
735.00,98.40
734.00,98.40
733.00,98.39
732.00,98.39
731.00,98.39
730.00,98.39
729.00,98.38
728.00,98.38
727.00,98.38
726.00,98.38
725.00,98.39
724.00,98.39
723.00,98.39
722.00,98.39
721.00,98.39
720.00,98.38
719.00,98.38
718.00,98.38
717.00,98.39
716.00,98.39
715.00,98.39
714.00,98.40
713.00,98.40
712.00,98.40
711.00,98.40
710.00,98.40
709.00,98.40
708.00,98.40
707.00,98.40
706.00,98.39
705.00,98.39
704.00,98.40
703.00,98.40
702.00,98.40
701.00,98.41
700.00,98.41
699.00,98.41
698.00,98.41
697.00,98.42
696.00,98.42
695.00,98.42
694.00,98.42
693.00,98.42
692.00,98.42
691.00,98.42
690.00,98.42
689.00,98.43
688.00,98.43
687.00,98.43
686.00,98.42
685.00,98.42
684.00,98.42
683.00,98.42
682.00,98.42
681.00,98.42
680.00,98.42
679.00,98.42
678.00,98.42
677.00,98.42
676.00,98.42
675.00,98.42
674.00,98.43
673.00,98.43
672.00,98.44
671.00,98.45
670.00,98.47
669.00,98.49
668.00,98.48
667.00,98.46
666.00,98.45
665.00,98.43
664.00,98.42
663.00,98.42
662.00,98.43
661.00,98.43
660.00,98.43
659.00,98.44
658.00,98.44
657.00,98.45
656.00,98.45
655.00,98.45
654.00,98.45
653.00,98.45
652.00,98.45
651.00,98.45
650.00,98.45
649.00,98.45
648.00,98.44
647.00,98.45
646.00,98.45
645.00,98.45
644.00,98.46
643.00,98.45
642.00,98.45
641.00,98.44
640.00,98.44
639.00,98.45
638.00,98.46
637.00,98.46
636.00,98.46
635.00,98.46
634.00,98.46
633.00,98.46
632.00,98.46
631.00,98.46
630.00,98.46
629.00,98.45
628.00,98.45
627.00,98.45
626.00,98.46
625.00,98.46
624.00,98.46
623.00,98.47
622.00,98.47
621.00,98.47
620.00,98.47
619.00,98.47
618.00,98.46
617.00,98.46
616.00,98.46
615.00,98.45
614.00,98.45
613.00,98.45
612.00,98.45
611.00,98.46
610.00,98.46
609.00,98.47
608.00,98.47
607.00,98.47
606.00,98.47
605.00,98.47
604.00,98.47
603.00,98.48
602.00,98.48
601.00,98.48
600.00,98.48
599.00,98.49
598.00,98.49
597.00,98.48
596.00,98.48
595.00,98.48
594.00,98.48
593.00,98.48
592.00,98.49
591.00,98.49
590.00,98.49
589.00,98.49
588.00,98.49
587.00,98.49
586.00,98.49
585.00,98.49
584.00,98.49
583.00,98.48
582.00,98.48
581.00,98.48
580.00,98.49
579.00,98.49
578.00,98.49
577.00,98.48
576.00,98.48
575.00,98.48
574.00,98.49
573.00,98.50
572.00,98.50
571.00,98.50
570.00,98.49
569.00,98.49
568.00,98.49
567.00,98.49
566.00,98.49
565.00,98.49
564.00,98.49
563.00,98.48
562.00,98.48
561.00,98.48
560.00,98.48
559.00,98.48
558.00,98.48
557.00,98.48
556.00,98.48
555.00,98.49
554.00,98.50
553.00,98.50
552.00,98.50
551.00,98.50
550.00,98.50
549.00,98.49
548.00,98.49
547.00,98.49
546.00,98.49
545.00,98.49
544.00,98.49
543.00,98.48
542.00,98.49
541.00,98.49
540.00,98.49
539.00,98.49
538.00,98.50
537.00,98.50
536.00,98.50
535.00,98.50
534.00,98.50
533.00,98.49
532.00,98.48
531.00,98.48
530.00,98.49
529.00,98.49
528.00,98.49
527.00,98.49
526.00,98.49
525.00,98.49
524.00,98.49
523.00,98.49
522.00,98.50
521.00,98.49
520.00,98.49
519.00,98.48
518.00,98.48
517.00,98.48
516.00,98.48
515.00,98.48
514.00,98.48
513.00,98.48
512.00,98.48
511.00,98.48
510.00,98.49
509.00,98.49
508.00,98.49
507.00,98.50
506.00,98.50
505.00,98.49
504.00,98.49
503.00,98.49
502.00,98.49
501.00,98.49
500.00,98.50
