Created as New Dataset,Sample 374 By Analyst Date Monday, February 10 2025
cm-1,%T
4000.00,139.92
3999.00,139.91
3998.00,139.91
3997.00,139.90
3996.00,139.89
3995.00,139.88
3994.00,139.87
3993.00,139.86
3992.00,139.84
3991.00,139.83
3990.00,139.82
3989.00,139.81
3988.00,139.80
3987.00,139.79
3986.00,139.77
3985.00,139.76
3984.00,139.74
3983.00,139.73
3982.00,139.72
3981.00,139.70
3980.00,139.69
3979.00,139.68
3978.00,139.66
3977.00,139.65
3976.00,139.65
3975.00,139.64
3974.00,139.63
3973.00,139.62
3972.00,139.61
3971.00,139.60
3970.00,139.58
3969.00,139.57
3968.00,139.57
3967.00,139.56
3966.00,139.55
3965.00,139.55
3964.00,139.54
3963.00,139.54
3962.00,139.53
3961.00,139.53
3960.00,139.53
3959.00,139.53
3958.00,139.53
3957.00,139.53
3956.00,139.53
3955.00,139.53
3954.00,139.53
3953.00,139.53
3952.00,139.53
3951.00,139.52
3950.00,139.52
3949.00,139.52
3948.00,139.52
3947.00,139.52
3946.00,139.52
3945.00,139.52
3944.00,139.52
3943.00,139.52
3942.00,139.52
3941.00,139.51
3940.00,139.50
3939.00,139.49
3938.00,139.49
3937.00,139.48
3936.00,139.48
3935.00,139.47
3934.00,139.46
3933.00,139.45
3932.00,139.45
3931.00,139.45
3930.00,139.44
3929.00,139.44
3928.00,139.43
3927.00,139.42
3926.00,139.42
3925.00,139.41
3924.00,139.40
3923.00,139.39
3922.00,139.38
3921.00,139.37
3920.00,139.37
3919.00,139.37
3918.00,139.36
3917.00,139.36
3916.00,139.36
3915.00,139.36
3914.00,139.36
3913.00,139.36
3912.00,139.36
3911.00,139.36
3910.00,139.35
3909.00,139.35
3908.00,139.34
3907.00,139.34
3906.00,139.33
3905.00,139.33
3904.00,139.33
3903.00,139.32
3902.00,139.32
3901.00,139.32
3900.00,139.33
3899.00,139.34
3898.00,139.33
3897.00,139.33
3896.00,139.32
3895.00,139.32
3894.00,139.32
3893.00,139.32
3892.00,139.32
3891.00,139.31
3890.00,139.30
3889.00,139.28
3888.00,139.27
3887.00,139.27
3886.00,139.28
3885.00,139.29
3884.00,139.28
3883.00,139.27
3882.00,139.27
3881.00,139.28
3880.00,139.27
3879.00,139.25
3878.00,139.23
3877.00,139.23
3876.00,139.24
3875.00,139.25
3874.00,139.24
3873.00,139.22
3872.00,139.21
3871.00,139.20
3870.00,139.21
3869.00,139.21
3868.00,139.20
3867.00,139.19
3866.00,139.20
3865.00,139.20
3864.00,139.20
3863.00,139.18
3862.00,139.16
3861.00,139.15
3860.00,139.15
3859.00,139.15
3858.00,139.15
3857.00,139.14
3856.00,139.12
3855.00,139.11
3854.00,139.16
3853.00,139.21
3852.00,139.18
3851.00,139.12
3850.00,139.12
3849.00,139.14
3848.00,139.15
3847.00,139.15
3846.00,139.13
3845.00,139.12
3844.00,139.12
3843.00,139.11
3842.00,139.11
3841.00,139.10
3840.00,139.10
3839.00,139.10
3838.00,139.10
3837.00,139.10
3836.00,139.09
3835.00,139.09
3834.00,139.09
3833.00,139.08
3832.00,139.07
3831.00,139.05
3830.00,139.04
3829.00,139.03
3828.00,139.03
3827.00,139.03
3826.00,139.02
3825.00,139.01
3824.00,138.99
3823.00,138.99
3822.00,139.00
3821.00,139.01
3820.00,138.99
3819.00,138.96
3818.00,138.96
3817.00,138.97
3816.00,138.98
3815.00,138.97
3814.00,138.95
3813.00,138.93
3812.00,138.93
3811.00,138.92
3810.00,138.91
3809.00,138.89
3808.00,138.88
3807.00,138.89
3806.00,138.88
3805.00,138.86
3804.00,138.86
3803.00,138.86
3802.00,138.86
3801.00,138.86
3800.00,138.84
3799.00,138.81
3798.00,138.81
3797.00,138.81
3796.00,138.81
3795.00,138.79
3794.00,138.77
3793.00,138.76
3792.00,138.76
3791.00,138.76
3790.00,138.76
3789.00,138.76
3788.00,138.76
3787.00,138.76
3786.00,138.76
3785.00,138.76
3784.00,138.76
3783.00,138.75
3782.00,138.75
3781.00,138.75
3780.00,138.76
3779.00,138.76
3778.00,138.75
3777.00,138.74
3776.00,138.74
3775.00,138.75
3774.00,138.76
3773.00,138.76
3772.00,138.76
3771.00,138.76
3770.00,138.77
3769.00,138.76
3768.00,138.76
3767.00,138.76
3766.00,138.76
3765.00,138.76
3764.00,138.76
3763.00,138.75
3762.00,138.75
3761.00,138.75
3760.00,138.76
3759.00,138.75
3758.00,138.73
3757.00,138.72
3756.00,138.71
3755.00,138.70
3754.00,138.69
3753.00,138.68
3752.00,138.68
3751.00,138.70
3750.00,138.70
3749.00,138.67
3748.00,138.66
3747.00,138.66
3746.00,138.65
3745.00,138.65
3744.00,138.64
3743.00,138.60
3742.00,138.55
3741.00,138.54
3740.00,138.55
3739.00,138.53
3738.00,138.49
3737.00,138.47
3736.00,138.48
3735.00,138.49
3734.00,138.49
3733.00,138.47
3732.00,138.45
3731.00,138.43
3730.00,138.42
3729.00,138.41
3728.00,138.41
3727.00,138.41
3726.00,138.40
3725.00,138.40
3724.00,138.39
3723.00,138.38
3722.00,138.38
3721.00,138.37
3720.00,138.36
3719.00,138.35
3718.00,138.35
3717.00,138.36
3716.00,138.36
3715.00,138.36
3714.00,138.37
3713.00,138.39
3712.00,138.41
3711.00,138.44
3710.00,138.44
3709.00,138.44
3708.00,138.44
3707.00,138.46
3706.00,138.48
3705.00,138.50
3704.00,138.52
3703.00,138.55
3702.00,138.58
3701.00,138.60
3700.00,138.62
3699.00,138.65
3698.00,138.69
3697.00,138.73
3696.00,138.77
3695.00,138.81
3694.00,138.85
3693.00,138.88
3692.00,138.92
3691.00,138.95
3690.00,138.98
3689.00,139.01
3688.00,139.04
3687.00,139.06
3686.00,139.09
3685.00,139.13
3684.00,139.16
3683.00,139.18
3682.00,139.19
3681.00,139.20
3680.00,139.21
3679.00,139.21
3678.00,139.21
3677.00,139.22
3676.00,139.24
3675.00,139.26
3674.00,139.25
3673.00,139.24
3672.00,139.25
3671.00,139.26
3670.00,139.26
3669.00,139.25
3668.00,139.21
3667.00,139.19
3666.00,139.19
3665.00,139.19
3664.00,139.17
3663.00,139.16
3662.00,139.13
3661.00,139.11
3660.00,139.10
3659.00,139.08
3658.00,139.06
3657.00,139.06
3656.00,139.05
3655.00,139.03
3654.00,139.01
3653.00,139.00
3652.00,138.98
3651.00,138.96
3650.00,138.95
3649.00,138.95
3648.00,138.93
3647.00,138.91
3646.00,138.89
3645.00,138.89
3644.00,138.89
3643.00,138.90
3642.00,138.89
3641.00,138.89
3640.00,138.88
3639.00,138.88
3638.00,138.88
3637.00,138.87
3636.00,138.87
3635.00,138.88
3634.00,138.88
3633.00,138.88
3632.00,138.88
3631.00,138.88
3630.00,138.90
3629.00,138.93
3628.00,138.95
3627.00,138.94
3626.00,138.94
3625.00,138.96
3624.00,138.97
3623.00,138.97
3622.00,138.97
3621.00,138.96
3620.00,138.97
3619.00,138.98
3618.00,138.97
3617.00,138.96
3616.00,138.96
3615.00,138.97
3614.00,138.97
3613.00,138.97
3612.00,138.96
3611.00,138.95
3610.00,138.95
3609.00,138.96
3608.00,138.96
3607.00,138.96
3606.00,138.95
3605.00,138.95
3604.00,138.95
3603.00,138.94
3602.00,138.94
3601.00,138.94
3600.00,138.93
3599.00,138.93
3598.00,138.93
3597.00,138.93
3596.00,138.94
3595.00,138.94
3594.00,138.95
3593.00,138.94
3592.00,138.94
3591.00,138.94
3590.00,138.94
3589.00,138.94
3588.00,138.96
3587.00,138.97
3586.00,138.97
3585.00,138.97
3584.00,138.99
3583.00,139.00
3582.00,139.02
3581.00,139.03
3580.00,139.05
3579.00,139.06
3578.00,139.07
3577.00,139.09
3576.00,139.10
3575.00,139.11
3574.00,139.12
3573.00,139.13
3572.00,139.13
3571.00,139.14
3570.00,139.14
3569.00,139.15
3568.00,139.17
3567.00,139.19
3566.00,139.21
3565.00,139.22
3564.00,139.23
3563.00,139.24
3562.00,139.25
3561.00,139.26
3560.00,139.27
3559.00,139.28
3558.00,139.29
3557.00,139.30
3556.00,139.31
3555.00,139.32
3554.00,139.33
3553.00,139.33
3552.00,139.34
3551.00,139.33
3550.00,139.33
3549.00,139.33
3548.00,139.33
3547.00,139.32
3546.00,139.32
3545.00,139.33
3544.00,139.33
3543.00,139.33
3542.00,139.34
3541.00,139.34
3540.00,139.34
3539.00,139.34
3538.00,139.34
3537.00,139.34
3536.00,139.34
3535.00,139.34
3534.00,139.34
3533.00,139.34
3532.00,139.34
3531.00,139.34
3530.00,139.34
3529.00,139.33
3528.00,139.33
3527.00,139.32
3526.00,139.31
3525.00,139.30
3524.00,139.30
3523.00,139.30
3522.00,139.30
3521.00,139.30
3520.00,139.30
3519.00,139.29
3518.00,139.29
3517.00,139.28
3516.00,139.27
3515.00,139.26
3514.00,139.26
3513.00,139.26
3512.00,139.25
3511.00,139.25
3510.00,139.25
3509.00,139.24
3508.00,139.24
3507.00,139.23
3506.00,139.22
3505.00,139.21
3504.00,139.20
3503.00,139.19
3502.00,139.19
3501.00,139.19
3500.00,139.19
3499.00,139.19
3498.00,139.19
3497.00,139.19
3496.00,139.20
3495.00,139.20
3494.00,139.20
3493.00,139.21
3492.00,139.21
3491.00,139.22
3490.00,139.23
3489.00,139.23
3488.00,139.24
3487.00,139.25
3486.00,139.26
3485.00,139.27
3484.00,139.28
3483.00,139.29
3482.00,139.29
3481.00,139.30
3480.00,139.31
3479.00,139.32
3478.00,139.34
3477.00,139.36
3476.00,139.37
3475.00,139.39
3474.00,139.41
3473.00,139.42
3472.00,139.43
3471.00,139.43
3470.00,139.44
3469.00,139.45
3468.00,139.47
3467.00,139.49
3466.00,139.51
3465.00,139.54
3464.00,139.56
3463.00,139.58
3462.00,139.59
3461.00,139.61
3460.00,139.62
3459.00,139.64
3458.00,139.65
3457.00,139.67
3456.00,139.69
3455.00,139.70
3454.00,139.71
3453.00,139.73
3452.00,139.74
3451.00,139.75
3450.00,139.76
3449.00,139.77
3448.00,139.78
3447.00,139.79
3446.00,139.80
3445.00,139.81
3444.00,139.82
3443.00,139.83
3442.00,139.84
3441.00,139.84
3440.00,139.84
3439.00,139.84
3438.00,139.84
3437.00,139.83
3436.00,139.84
3435.00,139.84
3434.00,139.85
3433.00,139.85
3432.00,139.86
3431.00,139.86
3430.00,139.86
3429.00,139.86
3428.00,139.86
3427.00,139.86
3426.00,139.86
3425.00,139.85
3424.00,139.85
3423.00,139.84
3422.00,139.83
3421.00,139.82
3420.00,139.81
3419.00,139.79
3418.00,139.78
3417.00,139.76
3416.00,139.75
3415.00,139.72
3414.00,139.70
3413.00,139.68
3412.00,139.65
3411.00,139.63
3410.00,139.60
3409.00,139.58
3408.00,139.55
3407.00,139.53
3406.00,139.50
3405.00,139.48
3404.00,139.45
3403.00,139.41
3402.00,139.38
3401.00,139.35
3400.00,139.33
3399.00,139.32
3398.00,139.30
3397.00,139.29
3396.00,139.27
3395.00,139.24
3394.00,139.22
3393.00,139.19
3392.00,139.18
3391.00,139.16
3390.00,139.16
3389.00,139.15
3388.00,139.14
3387.00,139.14
3386.00,139.13
3385.00,139.12
3384.00,139.11
3383.00,139.10
3382.00,139.09
3381.00,139.08
3380.00,139.08
3379.00,139.07
3378.00,139.07
3377.00,139.07
3376.00,139.07
3375.00,139.07
3374.00,139.06
3373.00,139.06
3372.00,139.05
3371.00,139.04
3370.00,139.03
3369.00,139.03
3368.00,139.03
3367.00,139.04
3366.00,139.05
3365.00,139.06
3364.00,139.07
3363.00,139.07
3362.00,139.07
3361.00,139.07
3360.00,139.07
3359.00,139.07
3358.00,139.07
3357.00,139.08
3356.00,139.08
3355.00,139.08
3354.00,139.07
3353.00,139.07
3352.00,139.06
3351.00,139.06
3350.00,139.06
3349.00,139.06
3348.00,139.06
3347.00,139.07
3346.00,139.07
3345.00,139.07
3344.00,139.06
3343.00,139.06
3342.00,139.06
3341.00,139.06
3340.00,139.06
3339.00,139.06
3338.00,139.06
3337.00,139.07
3336.00,139.08
3335.00,139.09
3334.00,139.10
3333.00,139.10
3332.00,139.11
3331.00,139.12
3330.00,139.12
3329.00,139.13
3328.00,139.13
3327.00,139.13
3326.00,139.14
3325.00,139.15
3324.00,139.16
3323.00,139.17
3322.00,139.19
3321.00,139.20
3320.00,139.22
3319.00,139.23
3318.00,139.24
3317.00,139.26
3316.00,139.27
3315.00,139.29
3314.00,139.31
3313.00,139.33
3312.00,139.35
3311.00,139.38
3310.00,139.40
3309.00,139.43
3308.00,139.45
3307.00,139.48
3306.00,139.52
3305.00,139.55
3304.00,139.58
3303.00,139.61
3302.00,139.62
3301.00,139.62
3300.00,139.61
3299.00,139.58
3298.00,139.55
3297.00,139.51
3296.00,139.47
3295.00,139.43
3294.00,139.40
3293.00,139.36
3292.00,139.32
3291.00,139.29
3290.00,139.27
3289.00,139.24
3288.00,139.21
3287.00,139.19
3286.00,139.16
3285.00,139.14
3284.00,139.11
3283.00,139.10
3282.00,139.08
3281.00,139.06
3280.00,139.05
3279.00,139.03
3278.00,139.02
3277.00,139.00
3276.00,138.99
3275.00,138.98
3274.00,138.96
3273.00,138.95
3272.00,138.94
3271.00,138.93
3270.00,138.93
3269.00,138.93
3268.00,138.94
3267.00,138.94
3266.00,138.94
3265.00,138.93
3264.00,138.93
3263.00,138.93
3262.00,138.93
3261.00,138.93
3260.00,138.93
3259.00,138.92
3258.00,138.92
3257.00,138.92
3256.00,138.92
3255.00,138.92
3254.00,138.92
3253.00,138.92
3252.00,138.92
3251.00,138.92
3250.00,138.92
3249.00,138.91
3248.00,138.91
3247.00,138.91
3246.00,138.91
3245.00,138.91
3244.00,138.92
3243.00,138.92
3242.00,138.92
3241.00,138.92
3240.00,138.92
3239.00,138.93
3238.00,138.92
3237.00,138.92
3236.00,138.92
3235.00,138.91
3234.00,138.91
3233.00,138.92
3232.00,138.92
3231.00,138.93
3230.00,138.94
3229.00,138.95
3228.00,138.96
3227.00,138.97
3226.00,138.98
3225.00,138.98
3224.00,138.99
3223.00,139.00
3222.00,139.01
3221.00,139.02
3220.00,139.02
3219.00,139.03
3218.00,139.05
3217.00,139.06
3216.00,139.07
3215.00,139.08
3214.00,139.09
3213.00,139.11
3212.00,139.12
3211.00,139.13
3210.00,139.14
3209.00,139.16
3208.00,139.17
3207.00,139.18
3206.00,139.19
3205.00,139.20
3204.00,139.21
3203.00,139.22
3202.00,139.23
3201.00,139.24
3200.00,139.25
3199.00,139.26
3198.00,139.26
3197.00,139.27
3196.00,139.27
3195.00,139.27
3194.00,139.27
3193.00,139.27
3192.00,139.27
3191.00,139.27
3190.00,139.28
3189.00,139.28
3188.00,139.28
3187.00,139.29
3186.00,139.30
3185.00,139.30
3184.00,139.31
3183.00,139.32
3182.00,139.33
3181.00,139.33
3180.00,139.34
3179.00,139.34
3178.00,139.34
3177.00,139.34
3176.00,139.33
3175.00,139.32
3174.00,139.32
3173.00,139.31
3172.00,139.31
3171.00,139.31
3170.00,139.30
3169.00,139.30
3168.00,139.30
3167.00,139.29
3166.00,139.29
3165.00,139.30
3164.00,139.30
3163.00,139.30
3162.00,139.31
3161.00,139.31
3160.00,139.32
3159.00,139.32
3158.00,139.32
3157.00,139.32
3156.00,139.32
3155.00,139.31
3154.00,139.30
3153.00,139.29
3152.00,139.29
3151.00,139.29
3150.00,139.29
3149.00,139.29
3148.00,139.29
3147.00,139.29
3146.00,139.29
3145.00,139.29
3144.00,139.28
3143.00,139.28
3142.00,139.28
3141.00,139.27
3140.00,139.27
3139.00,139.27
3138.00,139.27
3137.00,139.27
3136.00,139.28
3135.00,139.28
3134.00,139.29
3133.00,139.29
3132.00,139.28
3131.00,139.28
3130.00,139.29
3129.00,139.29
3128.00,139.30
3127.00,139.31
3126.00,139.31
3125.00,139.32
3124.00,139.32
3123.00,139.32
3122.00,139.32
3121.00,139.33
3120.00,139.33
3119.00,139.34
3118.00,139.36
3117.00,139.37
3116.00,139.39
3115.00,139.41
3114.00,139.43
3113.00,139.46
3112.00,139.47
3111.00,139.49
3110.00,139.51
3109.00,139.52
3108.00,139.54
3107.00,139.56
3106.00,139.59
3105.00,139.60
3104.00,139.62
3103.00,139.63
3102.00,139.64
3101.00,139.65
3100.00,139.65
3099.00,139.66
3098.00,139.67
3097.00,139.67
3096.00,139.68
3095.00,139.69
3094.00,139.70
3093.00,139.71
3092.00,139.72
3091.00,139.73
3090.00,139.74
3089.00,139.76
3088.00,139.77
3087.00,139.79
3086.00,139.80
3085.00,139.82
3084.00,139.84
3083.00,139.85
3082.00,139.86
3081.00,139.87
3080.00,139.88
3079.00,139.88
3078.00,139.89
3077.00,139.90
3076.00,139.91
3075.00,139.92
3074.00,139.92
3073.00,139.92
3072.00,139.92
3071.00,139.92
3070.00,139.91
3069.00,139.91
3068.00,139.90
3067.00,139.90
3066.00,139.90
3065.00,139.90
3064.00,139.90
3063.00,139.90
3062.00,139.90
3061.00,139.90
3060.00,139.90
3059.00,139.90
3058.00,139.89
3057.00,139.89
3056.00,139.88
3055.00,139.88
3054.00,139.88
3053.00,139.88
3052.00,139.87
3051.00,139.87
3050.00,139.88
3049.00,139.88
3048.00,139.88
3047.00,139.88
3046.00,139.88
3045.00,139.88
3044.00,139.87
3043.00,139.87
3042.00,139.88
3041.00,139.88
3040.00,139.89
3039.00,139.89
3038.00,139.90
3037.00,139.89
3036.00,139.89
3035.00,139.89
3034.00,139.88
3033.00,139.89
3032.00,139.89
3031.00,139.89
3030.00,139.89
3029.00,139.89
3028.00,139.89
3027.00,139.88
3026.00,139.88
3025.00,139.88
3024.00,139.88
3023.00,139.88
3022.00,139.88
3021.00,139.87
3020.00,139.87
3019.00,139.87
3018.00,139.86
3017.00,139.86
3016.00,139.86
3015.00,139.86
3014.00,139.86
3013.00,139.86
3012.00,139.86
3011.00,139.87
3010.00,139.88
3009.00,139.88
3008.00,139.89
3007.00,139.89
3006.00,139.89
3005.00,139.89
3004.00,139.89
3003.00,139.89
3002.00,139.90
3001.00,139.90
3000.00,139.90
2999.00,139.90
2998.00,139.90
2997.00,139.90
2996.00,139.91
2995.00,139.91
2994.00,139.90
2993.00,139.90
2992.00,139.90
2991.00,139.91
2990.00,139.91
2989.00,139.92
2988.00,139.92
2987.00,139.92
2986.00,139.92
2985.00,139.92
2984.00,139.91
2983.00,139.90
2982.00,139.90
2981.00,139.89
2980.00,139.89
2979.00,139.89
2978.00,139.89
2977.00,139.89
2976.00,139.88
2975.00,139.88
2974.00,139.88
2973.00,139.88
2972.00,139.87
2971.00,139.87
2970.00,139.87
2969.00,139.87
2968.00,139.86
2967.00,139.86
2966.00,139.86
2965.00,139.86
2964.00,139.86
2963.00,139.86
2962.00,139.87
2961.00,139.87
2960.00,139.87
2959.00,139.88
2958.00,139.88
2957.00,139.88
2956.00,139.88
2955.00,139.88
2954.00,139.87
2953.00,139.87
2952.00,139.87
2951.00,139.87
2950.00,139.88
2949.00,139.88
2948.00,139.87
2947.00,139.87
2946.00,139.87
2945.00,139.87
2944.00,139.87
2943.00,139.87
2942.00,139.87
2941.00,139.88
2940.00,139.88
2939.00,139.88
2938.00,139.88
2937.00,139.88
2936.00,139.88
2935.00,139.88
2934.00,139.88
2933.00,139.88
2932.00,139.88
2931.00,139.88
2930.00,139.88
2929.00,139.88
2928.00,139.89
2927.00,139.89
2926.00,139.90
2925.00,139.90
2924.00,139.91
2923.00,139.91
2922.00,139.91
2921.00,139.91
2920.00,139.91
2919.00,139.91
2918.00,139.90
2917.00,139.90
2916.00,139.89
2915.00,139.88
2914.00,139.88
2913.00,139.87
2912.00,139.87
2911.00,139.87
2910.00,139.87
2909.00,139.86
2908.00,139.86
2907.00,139.86
2906.00,139.87
2905.00,139.87
2904.00,139.87
2903.00,139.87
2902.00,139.87
2901.00,139.87
2900.00,139.87
2899.00,139.87
2898.00,139.87
2897.00,139.87
2896.00,139.87
2895.00,139.87
2894.00,139.88
2893.00,139.88
2892.00,139.88
2891.00,139.88
2890.00,139.88
2889.00,139.88
2888.00,139.88
2887.00,139.88
2886.00,139.88
2885.00,139.87
2884.00,139.87
2883.00,139.86
2882.00,139.86
2881.00,139.86
2880.00,139.85
2879.00,139.85
2878.00,139.84
2877.00,139.84
2876.00,139.83
2875.00,139.82
2874.00,139.82
2873.00,139.82
2872.00,139.82
2871.00,139.82
2870.00,139.82
2869.00,139.82
2868.00,139.82
2867.00,139.82
2866.00,139.81
2865.00,139.81
2864.00,139.81
2863.00,139.80
2862.00,139.80
2861.00,139.80
2860.00,139.80
2859.00,139.80
2858.00,139.81
2857.00,139.81
2856.00,139.81
2855.00,139.81
2854.00,139.82
2853.00,139.82
2852.00,139.83
2851.00,139.83
2850.00,139.83
2849.00,139.83
2848.00,139.84
2847.00,139.84
2846.00,139.84
2845.00,139.83
2844.00,139.83
2843.00,139.83
2842.00,139.82
2841.00,139.82
2840.00,139.81
2839.00,139.81
2838.00,139.81
2837.00,139.81
2836.00,139.81
2835.00,139.81
2834.00,139.81
2833.00,139.81
2832.00,139.81
2831.00,139.81
2830.00,139.81
2829.00,139.80
2828.00,139.80
2827.00,139.80
2826.00,139.80
2825.00,139.80
2824.00,139.80
2823.00,139.79
2822.00,139.79
2821.00,139.79
2820.00,139.78
2819.00,139.78
2818.00,139.78
2817.00,139.78
2816.00,139.78
2815.00,139.78
2814.00,139.78
2813.00,139.78
2812.00,139.77
2811.00,139.77
2810.00,139.77
2809.00,139.76
2808.00,139.76
2807.00,139.76
2806.00,139.76
2805.00,139.76
2804.00,139.76
2803.00,139.76
2802.00,139.76
2801.00,139.75
2800.00,139.75
2799.00,139.75
2798.00,139.74
2797.00,139.74
2796.00,139.74
2795.00,139.74
2794.00,139.74
2793.00,139.74
2792.00,139.73
2791.00,139.73
2790.00,139.73
2789.00,139.72
2788.00,139.72
2787.00,139.72
2786.00,139.71
2785.00,139.71
2784.00,139.70
2783.00,139.70
2782.00,139.69
2781.00,139.68
2780.00,139.68
2779.00,139.67
2778.00,139.66
2777.00,139.66
2776.00,139.65
2775.00,139.64
2774.00,139.63
2773.00,139.63
2772.00,139.63
2771.00,139.62
2770.00,139.62
2769.00,139.61
2768.00,139.61
2767.00,139.60
2766.00,139.59
2765.00,139.59
2764.00,139.58
2763.00,139.58
2762.00,139.58
2761.00,139.58
2760.00,139.57
2759.00,139.57
2758.00,139.57
2757.00,139.57
2756.00,139.57
2755.00,139.57
2754.00,139.57
2753.00,139.57
2752.00,139.57
2751.00,139.57
2750.00,139.57
2749.00,139.57
2748.00,139.58
2747.00,139.58
2746.00,139.59
2745.00,139.60
2744.00,139.60
2743.00,139.60
2742.00,139.61
2741.00,139.61
2740.00,139.62
2739.00,139.62
2738.00,139.63
2737.00,139.63
2736.00,139.64
2735.00,139.64
2734.00,139.64
2733.00,139.64
2732.00,139.64
2731.00,139.64
2730.00,139.64
2729.00,139.63
2728.00,139.63
2727.00,139.62
2726.00,139.61
2725.00,139.60
2724.00,139.60
2723.00,139.59
2722.00,139.57
2721.00,139.57
2720.00,139.56
2719.00,139.55
2718.00,139.54
2717.00,139.53
2716.00,139.52
2715.00,139.50
2714.00,139.49
2713.00,139.48
2712.00,139.47
2711.00,139.46
2710.00,139.45
2709.00,139.44
2708.00,139.43
2707.00,139.42
2706.00,139.41
2705.00,139.40
2704.00,139.40
2703.00,139.39
2702.00,139.38
2701.00,139.38
2700.00,139.37
2699.00,139.37
2698.00,139.36
2697.00,139.36
2696.00,139.35
2695.00,139.35
2694.00,139.35
2693.00,139.35
2692.00,139.35
2691.00,139.35
2690.00,139.35
2689.00,139.35
2688.00,139.35
2687.00,139.36
2686.00,139.36
2685.00,139.37
2684.00,139.37
2683.00,139.37
2682.00,139.38
2681.00,139.38
2680.00,139.39
2679.00,139.39
2678.00,139.39
2677.00,139.40
2676.00,139.40
2675.00,139.40
2674.00,139.40
2673.00,139.40
2672.00,139.39
2671.00,139.39
2670.00,139.39
2669.00,139.38
2668.00,139.37
2667.00,139.36
2666.00,139.35
2665.00,139.34
2664.00,139.33
2663.00,139.31
2662.00,139.29
2661.00,139.28
2660.00,139.26
2659.00,139.25
2658.00,139.24
2657.00,139.22
2656.00,139.21
2655.00,139.20
2654.00,139.19
2653.00,139.18
2652.00,139.17
2651.00,139.16
2650.00,139.15
2649.00,139.15
2648.00,139.14
2647.00,139.14
2646.00,139.14
2645.00,139.14
2644.00,139.13
2643.00,139.13
2642.00,139.13
2641.00,139.14
2640.00,139.14
2639.00,139.14
2638.00,139.15
2637.00,139.15
2636.00,139.16
2635.00,139.16
2634.00,139.17
2633.00,139.17
2632.00,139.18
2631.00,139.19
2630.00,139.19
2629.00,139.20
2628.00,139.20
2627.00,139.21
2626.00,139.21
2625.00,139.22
2624.00,139.22
2623.00,139.23
2622.00,139.23
2621.00,139.23
2620.00,139.24
2619.00,139.24
2618.00,139.24
2617.00,139.24
2616.00,139.24
2615.00,139.24
2614.00,139.24
2613.00,139.24
2612.00,139.24
2611.00,139.24
2610.00,139.24
2609.00,139.24
2608.00,139.23
2607.00,139.23
2606.00,139.23
2605.00,139.22
2604.00,139.22
2603.00,139.21
2602.00,139.21
2601.00,139.20
2600.00,139.20
2599.00,139.19
2598.00,139.19
2597.00,139.19
2596.00,139.18
2595.00,139.18
2594.00,139.18
2593.00,139.18
2592.00,139.18
2591.00,139.17
2590.00,139.17
2589.00,139.17
2588.00,139.18
2587.00,139.18
2586.00,139.18
2585.00,139.18
2584.00,139.18
2583.00,139.18
2582.00,139.18
2581.00,139.18
2580.00,139.18
2579.00,139.18
2578.00,139.18
2577.00,139.18
2576.00,139.17
2575.00,139.17
2574.00,139.17
2573.00,139.16
2572.00,139.16
2571.00,139.15
2570.00,139.15
2569.00,139.14
2568.00,139.14
2567.00,139.13
2566.00,139.12
2565.00,139.12
2564.00,139.11
2563.00,139.11
2562.00,139.10
2561.00,139.09
2560.00,139.08
2559.00,139.08
2558.00,139.07
2557.00,139.06
2556.00,139.05
2555.00,139.05
2554.00,139.04
2553.00,139.03
2552.00,139.03
2551.00,139.02
2550.00,139.01
2549.00,139.00
2548.00,138.99
2547.00,138.99
2546.00,138.98
2545.00,138.97
2544.00,138.97
2543.00,138.96
2542.00,138.96
2541.00,138.95
2540.00,138.94
2539.00,138.94
2538.00,138.93
2537.00,138.93
2536.00,138.93
2535.00,138.93
2534.00,138.93
2533.00,138.93
2532.00,138.93
2531.00,138.93
2530.00,138.93
2529.00,138.92
2528.00,138.92
2527.00,138.91
2526.00,138.91
2525.00,138.90
2524.00,138.90
2523.00,138.89
2522.00,138.88
2521.00,138.87
2520.00,138.86
2519.00,138.84
2518.00,138.83
2517.00,138.82
2516.00,138.81
2515.00,138.79
2514.00,138.78
2513.00,138.77
2512.00,138.75
2511.00,138.74
2510.00,138.72
2509.00,138.70
2508.00,138.68
2507.00,138.67
2506.00,138.65
2505.00,138.64
2504.00,138.62
2503.00,138.61
2502.00,138.59
2501.00,138.57
2500.00,138.56
2499.00,138.55
2498.00,138.53
2497.00,138.52
2496.00,138.51
2495.00,138.50
2494.00,138.49
2493.00,138.48
2492.00,138.47
2491.00,138.47
2490.00,138.47
2489.00,138.46
2488.00,138.46
2487.00,138.46
2486.00,138.45
2485.00,138.45
2484.00,138.44
2483.00,138.44
2482.00,138.44
2481.00,138.43
2480.00,138.42
2479.00,138.42
2478.00,138.41
2477.00,138.41
2476.00,138.40
2475.00,138.40
2474.00,138.39
2473.00,138.39
2472.00,138.38
2471.00,138.38
2470.00,138.38
2469.00,138.38
2468.00,138.38
2467.00,138.38
2466.00,138.38
2465.00,138.39
2464.00,138.39
2463.00,138.39
2462.00,138.39
2461.00,138.39
2460.00,138.39
2459.00,138.39
2458.00,138.39
2457.00,138.39
2456.00,138.39
2455.00,138.39
2454.00,138.39
2453.00,138.39
2452.00,138.40
2451.00,138.40
2450.00,138.40
2449.00,138.41
2448.00,138.41
2447.00,138.42
2446.00,138.43
2445.00,138.43
2444.00,138.44
2443.00,138.45
2442.00,138.46
2441.00,138.47
2440.00,138.48
2439.00,138.50
2438.00,138.51
2437.00,138.52
2436.00,138.53
2435.00,138.54
2434.00,138.55
2433.00,138.57
2432.00,138.58
2431.00,138.59
2430.00,138.61
2429.00,138.62
2428.00,138.64
2427.00,138.66
2426.00,138.67
2425.00,138.69
2424.00,138.71
2423.00,138.73
2422.00,138.74
2421.00,138.76
2420.00,138.77
2419.00,138.79
2418.00,138.80
2417.00,138.80
2416.00,138.81
2415.00,138.82
2414.00,138.82
2413.00,138.82
2412.00,138.82
2411.00,138.82
2410.00,138.81
2409.00,138.81
2408.00,138.80
2407.00,138.79
2406.00,138.78
2405.00,138.77
2404.00,138.76
2403.00,138.74
2402.00,138.73
2401.00,138.72
2400.00,138.70
2399.00,138.69
2398.00,138.68
2397.00,138.67
2396.00,138.66
2395.00,138.65
2394.00,138.64
2393.00,138.63
2392.00,138.62
2391.00,138.61
2390.00,138.61
2389.00,138.61
2388.00,138.61
2387.00,138.61
2386.00,138.61
2385.00,138.61
2384.00,138.62
2383.00,138.63
2382.00,138.64
2381.00,138.64
2380.00,138.65
2379.00,138.65
2378.00,138.65
2377.00,138.65
2376.00,138.64
2375.00,138.64
2374.00,138.64
2373.00,138.64
2372.00,138.63
2371.00,138.63
2370.00,138.63
2369.00,138.62
2368.00,138.62
2367.00,138.62
2366.00,138.62
2365.00,138.63
2364.00,138.62
2363.00,138.62
2362.00,138.61
2361.00,138.61
2360.00,138.61
2359.00,138.61
2358.00,138.60
2357.00,138.60
2356.00,138.59
2355.00,138.59
2354.00,138.59
2353.00,138.60
2352.00,138.60
2351.00,138.61
2350.00,138.61
2349.00,138.59
2348.00,138.57
2347.00,138.56
2346.00,138.57
2345.00,138.58
2344.00,138.57
2343.00,138.54
2342.00,138.52
2341.00,138.51
2340.00,138.50
2339.00,138.50
2338.00,138.49
2337.00,138.49
2336.00,138.50
2335.00,138.51
2334.00,138.51
2333.00,138.52
2332.00,138.52
2331.00,138.51
2330.00,138.50
2329.00,138.49
2328.00,138.48
2327.00,138.45
2326.00,138.43
2325.00,138.41
2324.00,138.40
2323.00,138.37
2322.00,138.34
2321.00,138.31
2320.00,138.29
2319.00,138.27
2318.00,138.26
2317.00,138.25
2316.00,138.25
2315.00,138.24
2314.00,138.24
2313.00,138.23
2312.00,138.23
2311.00,138.22
2310.00,138.21
2309.00,138.20
2308.00,138.20
2307.00,138.19
2306.00,138.20
2305.00,138.20
2304.00,138.20
2303.00,138.21
2302.00,138.21
2301.00,138.21
2300.00,138.21
2299.00,138.21
2298.00,138.21
2297.00,138.21
2296.00,138.21
2295.00,138.21
2294.00,138.21
2293.00,138.21
2292.00,138.22
2291.00,138.22
2290.00,138.22
2289.00,138.22
2288.00,138.22
2287.00,138.23
2286.00,138.23
2285.00,138.23
2284.00,138.24
2283.00,138.24
2282.00,138.24
2281.00,138.25
2280.00,138.25
2279.00,138.25
2278.00,138.25
2277.00,138.25
2276.00,138.26
2275.00,138.26
2274.00,138.26
2273.00,138.26
2272.00,138.27
2271.00,138.27
2270.00,138.27
2269.00,138.28
2268.00,138.28
2267.00,138.28
2266.00,138.27
2265.00,138.27
2264.00,138.27
2263.00,138.27
2262.00,138.27
2261.00,138.27
2260.00,138.27
2259.00,138.27
2258.00,138.27
2257.00,138.27
2256.00,138.27
2255.00,138.27
2254.00,138.27
2253.00,138.26
2252.00,138.26
2251.00,138.26
2250.00,138.25
2249.00,138.24
2248.00,138.24
2247.00,138.23
2246.00,138.22
2245.00,138.21
2244.00,138.20
2243.00,138.19
2242.00,138.18
2241.00,138.17
2240.00,138.15
2239.00,138.13
2238.00,138.12
2237.00,138.10
2236.00,138.08
2235.00,138.07
2234.00,138.05
2233.00,138.04
2232.00,138.02
2231.00,138.00
2230.00,137.99
2229.00,137.97
2228.00,137.96
2227.00,137.94
2226.00,137.93
2225.00,137.92
2224.00,137.90
2223.00,137.89
2222.00,137.89
2221.00,137.88
2220.00,137.88
2219.00,137.88
2218.00,137.88
2217.00,137.88
2216.00,137.88
2215.00,137.88
2214.00,137.88
2213.00,137.89
2212.00,137.89
2211.00,137.89
2210.00,137.89
2209.00,137.89
2208.00,137.88
2207.00,137.88
2206.00,137.87
2205.00,137.86
2204.00,137.85
2203.00,137.84
2202.00,137.83
2201.00,137.83
2200.00,137.82
2199.00,137.81
2198.00,137.79
2197.00,137.78
2196.00,137.77
2195.00,137.76
2194.00,137.75
2193.00,137.73
2192.00,137.72
2191.00,137.71
2190.00,137.70
2189.00,137.69
2188.00,137.68
2187.00,137.67
2186.00,137.66
2185.00,137.64
2184.00,137.63
2183.00,137.62
2182.00,137.61
2181.00,137.61
2180.00,137.60
2179.00,137.59
2178.00,137.58
2177.00,137.58
2176.00,137.58
2175.00,137.58
2174.00,137.58
2173.00,137.58
2172.00,137.59
2171.00,137.59
2170.00,137.60
2169.00,137.61
2168.00,137.63
2167.00,137.64
2166.00,137.65
2165.00,137.66
2164.00,137.68
2163.00,137.69
2162.00,137.70
2161.00,137.71
2160.00,137.72
2159.00,137.73
2158.00,137.74
2157.00,137.75
2156.00,137.75
2155.00,137.75
2154.00,137.75
2153.00,137.76
2152.00,137.75
2151.00,137.75
2150.00,137.74
2149.00,137.74
2148.00,137.73
2147.00,137.73
2146.00,137.72
2145.00,137.71
2144.00,137.70
2143.00,137.69
2142.00,137.67
2141.00,137.66
2140.00,137.64
2139.00,137.63
2138.00,137.61
2137.00,137.60
2136.00,137.58
2135.00,137.56
2134.00,137.55
2133.00,137.54
2132.00,137.53
2131.00,137.52
2130.00,137.51
2129.00,137.50
2128.00,137.50
2127.00,137.49
2126.00,137.49
2125.00,137.49
2124.00,137.49
2123.00,137.49
2122.00,137.49
2121.00,137.49
2120.00,137.49
2119.00,137.49
2118.00,137.49
2117.00,137.50
2116.00,137.50
2115.00,137.50
2114.00,137.51
2113.00,137.51
2112.00,137.51
2111.00,137.52
2110.00,137.53
2109.00,137.53
2108.00,137.54
2107.00,137.54
2106.00,137.54
2105.00,137.55
2104.00,137.55
2103.00,137.56
2102.00,137.56
2101.00,137.57
2100.00,137.57
2099.00,137.57
2098.00,137.58
2097.00,137.58
2096.00,137.58
2095.00,137.59
2094.00,137.59
2093.00,137.59
2092.00,137.59
2091.00,137.59
2090.00,137.59
2089.00,137.59
2088.00,137.59
2087.00,137.59
2086.00,137.59
2085.00,137.59
2084.00,137.59
2083.00,137.59
2082.00,137.58
2081.00,137.58
2080.00,137.58
2079.00,137.57
2078.00,137.57
2077.00,137.57
2076.00,137.56
2075.00,137.56
2074.00,137.55
2073.00,137.54
2072.00,137.53
2071.00,137.53
2070.00,137.52
2069.00,137.51
2068.00,137.51
2067.00,137.50
2066.00,137.49
2065.00,137.49
2064.00,137.48
2063.00,137.47
2062.00,137.46
2061.00,137.46
2060.00,137.45
2059.00,137.44
2058.00,137.44
2057.00,137.44
2056.00,137.44
2055.00,137.43
2054.00,137.43
2053.00,137.44
2052.00,137.44
2051.00,137.44
2050.00,137.44
2049.00,137.45
2048.00,137.46
2047.00,137.46
2046.00,137.47
2045.00,137.48
2044.00,137.49
2043.00,137.50
2042.00,137.51
2041.00,137.53
2040.00,137.54
2039.00,137.55
2038.00,137.57
2037.00,137.58
2036.00,137.59
2035.00,137.59
2034.00,137.60
2033.00,137.60
2032.00,137.60
2031.00,137.60
2030.00,137.60
2029.00,137.59
2028.00,137.59
2027.00,137.59
2026.00,137.58
2025.00,137.57
2024.00,137.55
2023.00,137.54
2022.00,137.53
2021.00,137.52
2020.00,137.51
2019.00,137.50
2018.00,137.50
2017.00,137.49
2016.00,137.48
2015.00,137.48
2014.00,137.48
2013.00,137.48
2012.00,137.48
2011.00,137.48
2010.00,137.49
2009.00,137.49
2008.00,137.50
2007.00,137.51
2006.00,137.52
2005.00,137.54
2004.00,137.55
2003.00,137.57
2002.00,137.59
2001.00,137.61
2000.00,137.63
1999.00,137.66
1998.00,137.68
1997.00,137.70
1996.00,137.73
1995.00,137.75
1994.00,137.78
1993.00,137.81
1992.00,137.84
1991.00,137.87
1990.00,137.89
1989.00,137.92
1988.00,137.95
1987.00,137.97
1986.00,138.00
1985.00,138.02
1984.00,138.05
1983.00,138.07
1982.00,138.09
1981.00,138.11
1980.00,138.12
1979.00,138.13
1978.00,138.13
1977.00,138.13
1976.00,138.13
1975.00,138.12
1974.00,138.10
1973.00,138.09
1972.00,138.07
1971.00,138.05
1970.00,138.02
1969.00,138.00
1968.00,137.98
1967.00,137.96
1966.00,137.95
1965.00,137.93
1964.00,137.93
1963.00,137.94
1962.00,137.95
1961.00,137.97
1960.00,137.99
1959.00,138.03
1958.00,138.08
1957.00,138.14
1956.00,138.19
1955.00,138.23
1954.00,138.28
1953.00,138.32
1952.00,138.36
1951.00,138.40
1950.00,138.44
1949.00,138.47
1948.00,138.49
1947.00,138.50
1946.00,138.51
1945.00,138.51
1944.00,138.51
1943.00,138.49
1942.00,138.47
1941.00,138.44
1940.00,138.40
1939.00,138.36
1938.00,138.32
1937.00,138.28
1936.00,138.24
1935.00,138.19
1934.00,138.15
1933.00,138.11
1932.00,138.08
1931.00,138.05
1930.00,138.02
1929.00,138.00
1928.00,137.99
1927.00,137.97
1926.00,137.96
1925.00,137.96
1924.00,137.96
1923.00,137.95
1922.00,137.95
1921.00,137.94
1920.00,137.94
1919.00,137.94
1918.00,137.94
1917.00,137.93
1916.00,137.92
1915.00,137.91
1914.00,137.90
1913.00,137.89
1912.00,137.88
1911.00,137.87
1910.00,137.85
1909.00,137.83
1908.00,137.82
1907.00,137.80
1906.00,137.79
1905.00,137.78
1904.00,137.78
1903.00,137.77
1902.00,137.77
1901.00,137.77
1900.00,137.77
1899.00,137.77
1898.00,137.77
1897.00,137.78
1896.00,137.79
1895.00,137.80
1894.00,137.81
1893.00,137.82
1892.00,137.83
1891.00,137.85
1890.00,137.86
1889.00,137.87
1888.00,137.88
1887.00,137.90
1886.00,137.91
1885.00,137.93
1884.00,137.96
1883.00,137.97
1882.00,137.99
1881.00,138.01
1880.00,138.03
1879.00,138.05
1878.00,138.07
1877.00,138.08
1876.00,138.10
1875.00,138.11
1874.00,138.12
1873.00,138.12
1872.00,138.13
1871.00,138.14
1870.00,138.14
1869.00,138.13
1868.00,138.11
1867.00,138.09
1866.00,138.07
1865.00,138.07
1864.00,138.08
1863.00,138.08
1862.00,138.08
1861.00,138.08
1860.00,138.10
1859.00,138.12
1858.00,138.13
1857.00,138.16
1856.00,138.20
1855.00,138.23
1854.00,138.27
1853.00,138.31
1852.00,138.36
1851.00,138.40
1850.00,138.44
1849.00,138.48
1848.00,138.53
1847.00,138.57
1846.00,138.60
1845.00,138.64
1844.00,138.67
1843.00,138.68
1842.00,138.69
1841.00,138.70
1840.00,138.72
1839.00,138.72
1838.00,138.72
1837.00,138.71
1836.00,138.71
1835.00,138.70
1834.00,138.69
1833.00,138.69
1832.00,138.68
1831.00,138.67
1830.00,138.66
1829.00,138.65
1828.00,138.64
1827.00,138.64
1826.00,138.65
1825.00,138.66
1824.00,138.67
1823.00,138.68
1822.00,138.69
1821.00,138.71
1820.00,138.73
1819.00,138.74
1818.00,138.75
1817.00,138.77
1816.00,138.78
1815.00,138.79
1814.00,138.80
1813.00,138.81
1812.00,138.82
1811.00,138.83
1810.00,138.84
1809.00,138.85
1808.00,138.86
1807.00,138.88
1806.00,138.89
1805.00,138.91
1804.00,138.93
1803.00,138.94
1802.00,138.96
1801.00,138.98
1800.00,139.00
1799.00,139.01
1798.00,139.03
1797.00,139.05
1796.00,139.08
1795.00,139.10
1794.00,139.11
1793.00,139.13
1792.00,139.15
1791.00,139.17
1790.00,139.18
1789.00,139.20
1788.00,139.22
1787.00,139.24
1786.00,139.25
1785.00,139.26
1784.00,139.28
1783.00,139.29
1782.00,139.30
1781.00,139.31
1780.00,139.31
1779.00,139.31
1778.00,139.32
1777.00,139.33
1776.00,139.34
1775.00,139.35
1774.00,139.35
1773.00,139.35
1772.00,139.35
1771.00,139.33
1770.00,139.32
1769.00,139.31
1768.00,139.32
1767.00,139.33
1766.00,139.33
1765.00,139.33
1764.00,139.32
1763.00,139.32
1762.00,139.32
1761.00,139.31
1760.00,139.30
1759.00,139.30
1758.00,139.30
1757.00,139.30
1756.00,139.30
1755.00,139.29
1754.00,139.29
1753.00,139.28
1752.00,139.28
1751.00,139.29
1750.00,139.29
1749.00,139.29
1748.00,139.28
1747.00,139.27
1746.00,139.27
1745.00,139.28
1744.00,139.28
1743.00,139.29
1742.00,139.29
1741.00,139.29
1740.00,139.29
1739.00,139.29
1738.00,139.30
1737.00,139.30
1736.00,139.30
1735.00,139.30
1734.00,139.32
1733.00,139.33
1732.00,139.32
1731.00,139.32
1730.00,139.32
1729.00,139.32
1728.00,139.32
1727.00,139.32
1726.00,139.32
1725.00,139.32
1724.00,139.32
1723.00,139.32
1722.00,139.32
1721.00,139.32
1720.00,139.32
1719.00,139.32
1718.00,139.31
1717.00,139.30
1716.00,139.30
1715.00,139.29
1714.00,139.28
1713.00,139.28
1712.00,139.28
1711.00,139.28
1710.00,139.27
1709.00,139.27
1708.00,139.27
1707.00,139.27
1706.00,139.26
1705.00,139.25
1704.00,139.25
1703.00,139.25
1702.00,139.24
1701.00,139.24
1700.00,139.26
1699.00,139.25
1698.00,139.24
1697.00,139.25
1696.00,139.26
1695.00,139.26
1694.00,139.24
1693.00,139.24
1692.00,139.24
1691.00,139.24
1690.00,139.23
1689.00,139.23
1688.00,139.24
1687.00,139.24
1686.00,139.24
1685.00,139.26
1684.00,139.27
1683.00,139.25
1682.00,139.24
1681.00,139.25
1680.00,139.26
1679.00,139.27
1678.00,139.28
1677.00,139.29
1676.00,139.29
1675.00,139.30
1674.00,139.30
1673.00,139.29
1672.00,139.28
1671.00,139.28
1670.00,139.27
1669.00,139.27
1668.00,139.25
1667.00,139.24
1666.00,139.24
1665.00,139.23
1664.00,139.22
1663.00,139.20
1662.00,139.19
1661.00,139.17
1660.00,139.16
1659.00,139.15
1658.00,139.14
1657.00,139.14
1656.00,139.12
1655.00,139.10
1654.00,139.11
1653.00,139.12
1652.00,139.09
1651.00,139.07
1650.00,139.07
1649.00,139.06
1648.00,139.05
1647.00,139.04
1646.00,139.04
1645.00,139.04
1644.00,139.05
1643.00,139.07
1642.00,139.08
1641.00,139.10
1640.00,139.11
1639.00,139.12
1638.00,139.13
1637.00,139.13
1636.00,139.13
1635.00,139.12
1634.00,139.11
1633.00,139.10
1632.00,139.10
1631.00,139.09
1630.00,139.09
1629.00,139.09
1628.00,139.08
1627.00,139.08
1626.00,139.08
1625.00,139.08
1624.00,139.08
1623.00,139.08
1622.00,139.07
1621.00,139.07
1620.00,139.08
1619.00,139.08
1618.00,139.08
1617.00,139.09
1616.00,139.09
1615.00,139.09
1614.00,139.10
1613.00,139.11
1612.00,139.12
1611.00,139.13
1610.00,139.14
1609.00,139.16
1608.00,139.17
1607.00,139.18
1606.00,139.20
1605.00,139.21
1604.00,139.21
1603.00,139.20
1602.00,139.20
1601.00,139.20
1600.00,139.19
1599.00,139.19
1598.00,139.19
1597.00,139.18
1596.00,139.18
1595.00,139.17
1594.00,139.17
1593.00,139.16
1592.00,139.16
1591.00,139.16
1590.00,139.16
1589.00,139.16
1588.00,139.16
1587.00,139.16
1586.00,139.17
1585.00,139.17
1584.00,139.17
1583.00,139.17
1582.00,139.18
1581.00,139.19
1580.00,139.19
1579.00,139.18
1578.00,139.18
1577.00,139.19
1576.00,139.19
1575.00,139.19
1574.00,139.19
1573.00,139.20
1572.00,139.19
1571.00,139.18
1570.00,139.18
1569.00,139.17
1568.00,139.15
1567.00,139.14
1566.00,139.14
1565.00,139.13
1564.00,139.12
1563.00,139.11
1562.00,139.11
1561.00,139.10
1560.00,139.10
1559.00,139.10
1558.00,139.06
1557.00,139.03
1556.00,139.02
1555.00,139.02
1554.00,139.02
1553.00,139.02
1552.00,139.02
1551.00,139.01
1550.00,139.02
1549.00,139.02
1548.00,139.01
1547.00,139.01
1546.00,139.02
1545.00,139.03
1544.00,139.04
1543.00,139.04
1542.00,139.04
1541.00,139.04
1540.00,139.04
1539.00,139.02
1538.00,139.01
1537.00,139.02
1536.00,139.01
1535.00,138.99
1534.00,138.97
1533.00,138.96
1532.00,138.95
1531.00,138.95
1530.00,138.95
1529.00,138.95
1528.00,138.95
1527.00,138.95
1526.00,138.95
1525.00,138.95
1524.00,138.95
1523.00,138.95
1522.00,138.96
1521.00,138.97
1520.00,138.99
1519.00,139.00
1518.00,139.00
1517.00,139.00
1516.00,139.00
1515.00,139.01
1514.00,139.02
1513.00,139.04
1512.00,139.06
1511.00,139.07
1510.00,139.07
1509.00,139.07
1508.00,139.08
1507.00,139.09
1506.00,139.09
1505.00,139.09
1504.00,139.09
1503.00,139.10
1502.00,139.09
1501.00,139.09
1500.00,139.09
1499.00,139.09
1498.00,139.09
1497.00,139.10
1496.00,139.11
1495.00,139.12
1494.00,139.13
1493.00,139.13
1492.00,139.13
1491.00,139.12
1490.00,139.11
1489.00,139.10
1488.00,139.09
1487.00,139.08
1486.00,139.07
1485.00,139.08
1484.00,139.08
1483.00,139.08
1482.00,139.07
1481.00,139.07
1480.00,139.08
1479.00,139.07
1478.00,139.07
1477.00,139.07
1476.00,139.08
1475.00,139.07
1474.00,139.08
1473.00,139.09
1472.00,139.10
1471.00,139.11
1470.00,139.11
1469.00,139.11
1468.00,139.11
1467.00,139.11
1466.00,139.11
1465.00,139.11
1464.00,139.11
1463.00,139.12
1462.00,139.12
1461.00,139.12
1460.00,139.11
1459.00,139.11
1458.00,139.11
1457.00,139.12
1456.00,139.13
1455.00,139.13
1454.00,139.13
1453.00,139.12
1452.00,139.12
1451.00,139.12
1450.00,139.12
1449.00,139.11
1448.00,139.11
1447.00,139.10
1446.00,139.10
1445.00,139.09
1444.00,139.08
1443.00,139.08
1442.00,139.08
1441.00,139.07
1440.00,139.06
1439.00,139.06
1438.00,139.06
1437.00,139.07
1436.00,139.07
1435.00,139.07
1434.00,139.07
1433.00,139.06
1432.00,139.05
1431.00,139.05
1430.00,139.05
1429.00,139.05
1428.00,139.05
1427.00,139.05
1426.00,139.05
1425.00,139.05
1424.00,139.05
1423.00,139.06
1422.00,139.06
1421.00,139.06
1420.00,139.06
1419.00,139.08
1418.00,139.08
1417.00,139.08
1416.00,139.08
1415.00,139.08
1414.00,139.09
1413.00,139.09
1412.00,139.09
1411.00,139.10
1410.00,139.10
1409.00,139.10
1408.00,139.09
1407.00,139.09
1406.00,139.09
1405.00,139.09
1404.00,139.09
1403.00,139.09
1402.00,139.10
1401.00,139.09
1400.00,139.08
1399.00,139.07
1398.00,139.07
1397.00,139.07
1396.00,139.06
1395.00,139.06
1394.00,139.06
1393.00,139.06
1392.00,139.04
1391.00,139.04
1390.00,139.03
1389.00,139.02
1388.00,139.02
1387.00,139.02
1386.00,139.02
1385.00,139.02
1384.00,139.02
1383.00,139.01
1382.00,139.01
1381.00,139.00
1380.00,139.00
1379.00,139.00
1378.00,139.00
1377.00,139.00
1376.00,139.00
1375.00,139.00
1374.00,139.01
1373.00,139.01
1372.00,139.01
1371.00,139.01
1370.00,139.02
1369.00,139.03
1368.00,139.03
1367.00,139.04
1366.00,139.04
1365.00,139.04
1364.00,139.04
1363.00,139.05
1362.00,139.06
1361.00,139.07
1360.00,139.07
1359.00,139.08
1358.00,139.08
1357.00,139.08
1356.00,139.08
1355.00,139.08
1354.00,139.08
1353.00,139.08
1352.00,139.08
1351.00,139.08
1350.00,139.08
1349.00,139.08
1348.00,139.07
1347.00,139.07
1346.00,139.07
1345.00,139.06
1344.00,139.06
1343.00,139.06
1342.00,139.06
1341.00,139.06
1340.00,139.06
1339.00,139.05
1338.00,139.05
1337.00,139.04
1336.00,139.04
1335.00,139.03
1334.00,139.03
1333.00,139.02
1332.00,139.02
1331.00,139.01
1330.00,139.01
1329.00,139.00
1328.00,139.00
1327.00,139.00
1326.00,139.01
1325.00,139.01
1324.00,139.01
1323.00,139.01
1322.00,139.01
1321.00,139.01
1320.00,139.01
1319.00,139.02
1318.00,139.02
1317.00,139.02
1316.00,139.03
1315.00,139.03
1314.00,139.04
1313.00,139.04
1312.00,139.05
1311.00,139.05
1310.00,139.05
1309.00,139.06
1308.00,139.06
1307.00,139.07
1306.00,139.07
1305.00,139.07
1304.00,139.06
1303.00,139.06
1302.00,139.07
1301.00,139.07
1300.00,139.07
1299.00,139.08
1298.00,139.08
1297.00,139.08
1296.00,139.08
1295.00,139.07
1294.00,139.07
1293.00,139.06
1292.00,139.06
1291.00,139.06
1290.00,139.07
1289.00,139.06
1288.00,139.06
1287.00,139.06
1286.00,139.05
1285.00,139.04
1284.00,139.04
1283.00,139.04
1282.00,139.04
1281.00,139.04
1280.00,139.04
1279.00,139.04
1278.00,139.04
1277.00,139.03
1276.00,139.02
1275.00,139.02
1274.00,139.02
1273.00,139.02
1272.00,139.02
1271.00,139.03
1270.00,139.03
1269.00,139.04
1268.00,139.05
1267.00,139.05
1266.00,139.07
1265.00,139.08
1264.00,139.09
1263.00,139.11
1262.00,139.12
1261.00,139.13
1260.00,139.14
1259.00,139.14
1258.00,139.14
1257.00,139.13
1256.00,139.13
1255.00,139.12
1254.00,139.11
1253.00,139.10
1252.00,139.09
1251.00,139.08
1250.00,139.07
1249.00,139.07
1248.00,139.06
1247.00,139.06
1246.00,139.06
1245.00,139.05
1244.00,139.05
1243.00,139.04
1242.00,139.03
1241.00,139.03
1240.00,139.02
1239.00,139.02
1238.00,139.02
1237.00,139.02
1236.00,139.02
1235.00,139.01
1234.00,139.01
1233.00,139.00
1232.00,139.00
1231.00,138.99
1230.00,138.99
1229.00,138.99
1228.00,138.99
1227.00,138.99
1226.00,138.99
1225.00,138.99
1224.00,138.99
1223.00,138.99
1222.00,138.99
1221.00,138.99
1220.00,138.99
1219.00,138.99
1218.00,139.00
1217.00,139.00
1216.00,139.00
1215.00,139.01
1214.00,139.02
1213.00,139.02
1212.00,139.02
1211.00,139.03
1210.00,139.04
1209.00,139.04
1208.00,139.04
1207.00,139.05
1206.00,139.05
1205.00,139.05
1204.00,139.06
1203.00,139.06
1202.00,139.07
1201.00,139.07
1200.00,139.08
1199.00,139.08
1198.00,139.08
1197.00,139.08
1196.00,139.08
1195.00,139.08
1194.00,139.08
1193.00,139.08
1192.00,139.08
1191.00,139.08
1190.00,139.08
1189.00,139.08
1188.00,139.08
1187.00,139.07
1186.00,139.07
1185.00,139.07
1184.00,139.06
1183.00,139.06
1182.00,139.06
1181.00,139.05
1180.00,139.04
1179.00,139.04
1178.00,139.04
1177.00,139.04
1176.00,139.04
1175.00,139.03
1174.00,139.02
1173.00,139.02
1172.00,139.01
1171.00,139.01
1170.00,139.02
1169.00,139.02
1168.00,139.02
1167.00,139.02
1166.00,139.02
1165.00,139.02
1164.00,139.02
1163.00,139.02
1162.00,139.03
1161.00,139.03
1160.00,139.04
1159.00,139.05
1158.00,139.05
1157.00,139.06
1156.00,139.06
1155.00,139.06
1154.00,139.06
1153.00,139.07
1152.00,139.07
1151.00,139.08
1150.00,139.09
1149.00,139.09
1148.00,139.10
1147.00,139.10
1146.00,139.10
1145.00,139.10
1144.00,139.09
1143.00,139.10
1142.00,139.10
1141.00,139.11
1140.00,139.11
1139.00,139.10
1138.00,139.10
1137.00,139.09
1136.00,139.09
1135.00,139.09
1134.00,139.09
1133.00,139.09
1132.00,139.09
1131.00,139.08
1130.00,139.08
1129.00,139.07
1128.00,139.07
1127.00,139.07
1126.00,139.06
1125.00,139.06
1124.00,139.06
1123.00,139.07
1122.00,139.07
1121.00,139.06
1120.00,139.06
1119.00,139.06
1118.00,139.06
1117.00,139.06
1116.00,139.06
1115.00,139.07
1114.00,139.08
1113.00,139.08
1112.00,139.08
1111.00,139.08
1110.00,139.07
1109.00,139.07
1108.00,139.08
1107.00,139.09
1106.00,139.10
1105.00,139.11
1104.00,139.11
1103.00,139.11
1102.00,139.12
1101.00,139.12
1100.00,139.12
1099.00,139.13
1098.00,139.13
1097.00,139.13
1096.00,139.13
1095.00,139.14
1094.00,139.14
1093.00,139.14
1092.00,139.13
1091.00,139.13
1090.00,139.13
1089.00,139.13
1088.00,139.13
1087.00,139.13
1086.00,139.13
1085.00,139.12
1084.00,139.11
1083.00,139.10
1082.00,139.09
1081.00,139.08
1080.00,139.07
1079.00,139.07
1078.00,139.06
1077.00,139.06
1076.00,139.05
1075.00,139.04
1074.00,139.03
1073.00,139.02
1072.00,139.01
1071.00,139.01
1070.00,139.00
1069.00,139.00
1068.00,138.99
1067.00,138.98
1066.00,138.98
1065.00,138.97
1064.00,138.96
1063.00,138.96
1062.00,138.97
1061.00,138.97
1060.00,138.97
1059.00,138.97
1058.00,138.97
1057.00,138.96
1056.00,138.96
1055.00,138.97
1054.00,138.97
1053.00,138.98
1052.00,138.99
1051.00,138.99
1050.00,139.00
1049.00,139.00
1048.00,139.00
1047.00,139.01
1046.00,139.02
1045.00,139.03
1044.00,139.03
1043.00,139.03
1042.00,139.03
1041.00,139.03
1040.00,139.03
1039.00,139.03
1038.00,139.04
1037.00,139.04
1036.00,139.04
1035.00,139.05
1034.00,139.05
1033.00,139.06
1032.00,139.06
1031.00,139.06
1030.00,139.05
1029.00,139.05
1028.00,139.05
1027.00,139.05
1026.00,139.05
1025.00,139.05
1024.00,139.05
1023.00,139.05
1022.00,139.05
1021.00,139.04
1020.00,139.04
1019.00,139.04
1018.00,139.04
1017.00,139.04
1016.00,139.03
1015.00,139.02
1014.00,139.02
1013.00,139.01
1012.00,139.00
1011.00,139.00
1010.00,139.00
1009.00,139.00
1008.00,138.99
1007.00,138.99
1006.00,138.99
1005.00,138.98
1004.00,138.98
1003.00,138.98
1002.00,138.99
1001.00,138.99
1000.00,139.00
999.00,139.00
998.00,139.00
997.00,139.00
996.00,139.00
995.00,139.01
994.00,139.01
993.00,139.01
992.00,139.02
991.00,139.03
990.00,139.04
989.00,139.04
988.00,139.04
987.00,139.03
986.00,139.04
985.00,139.04
984.00,139.04
983.00,139.05
982.00,139.05
981.00,139.05
980.00,139.05
979.00,139.05
978.00,139.04
977.00,139.04
976.00,139.04
975.00,139.04
974.00,139.04
973.00,139.03
972.00,139.03
971.00,139.02
970.00,139.02
969.00,139.02
968.00,139.03
967.00,139.03
966.00,139.03
965.00,139.03
964.00,139.03
963.00,139.02
962.00,139.02
961.00,139.01
960.00,139.01
959.00,139.01
958.00,139.01
957.00,139.02
956.00,139.02
955.00,139.02
954.00,139.03
953.00,139.03
952.00,139.03
951.00,139.03
950.00,139.04
949.00,139.05
948.00,139.06
947.00,139.06
946.00,139.07
945.00,139.07
944.00,139.08
943.00,139.08
942.00,139.08
941.00,139.09
940.00,139.09
939.00,139.10
938.00,139.11
937.00,139.11
936.00,139.12
935.00,139.12
934.00,139.11
933.00,139.11
932.00,139.11
931.00,139.12
930.00,139.12
929.00,139.13
928.00,139.14
927.00,139.14
926.00,139.14
925.00,139.14
924.00,139.14
923.00,139.14
922.00,139.14
921.00,139.14
920.00,139.14
919.00,139.13
918.00,139.13
917.00,139.13
916.00,139.13
915.00,139.13
914.00,139.13
913.00,139.13
912.00,139.13
911.00,139.14
910.00,139.14
909.00,139.15
908.00,139.16
907.00,139.16
906.00,139.16
905.00,139.17
904.00,139.17
903.00,139.18
902.00,139.18
901.00,139.19
900.00,139.19
899.00,139.20
898.00,139.20
897.00,139.21
896.00,139.22
895.00,139.24
894.00,139.25
893.00,139.26
892.00,139.27
891.00,139.27
890.00,139.28
889.00,139.28
888.00,139.30
887.00,139.31
886.00,139.32
885.00,139.32
884.00,139.33
883.00,139.33
882.00,139.34
881.00,139.35
880.00,139.36
879.00,139.37
878.00,139.37
877.00,139.38
876.00,139.38
875.00,139.38
874.00,139.39
873.00,139.39
872.00,139.39
871.00,139.39
870.00,139.39
869.00,139.39
868.00,139.39
867.00,139.39
866.00,139.38
865.00,139.38
864.00,139.38
863.00,139.38
862.00,139.38
861.00,139.38
860.00,139.39
859.00,139.39
858.00,139.39
857.00,139.39
856.00,139.39
855.00,139.39
854.00,139.39
853.00,139.39
852.00,139.39
851.00,139.39
850.00,139.39
849.00,139.40
848.00,139.41
847.00,139.42
846.00,139.43
845.00,139.44
844.00,139.44
843.00,139.45
842.00,139.46
841.00,139.47
840.00,139.47
839.00,139.48
838.00,139.49
837.00,139.50
836.00,139.50
835.00,139.51
834.00,139.52
833.00,139.53
832.00,139.54
831.00,139.55
830.00,139.55
829.00,139.55
828.00,139.56
827.00,139.56
826.00,139.58
825.00,139.59
824.00,139.60
823.00,139.60
822.00,139.60
821.00,139.60
820.00,139.60
819.00,139.60
818.00,139.60
817.00,139.59
816.00,139.59
815.00,139.59
814.00,139.59
813.00,139.58
812.00,139.58
811.00,139.57
810.00,139.57
809.00,139.57
808.00,139.58
807.00,139.59
806.00,139.59
805.00,139.60
804.00,139.61
803.00,139.62
802.00,139.62
801.00,139.63
800.00,139.63
799.00,139.63
798.00,139.63
797.00,139.63
796.00,139.62
795.00,139.62
794.00,139.61
793.00,139.61
792.00,139.61
791.00,139.61
790.00,139.61
789.00,139.60
788.00,139.60
787.00,139.60
786.00,139.60
785.00,139.61
784.00,139.61
783.00,139.60
782.00,139.60
781.00,139.60
780.00,139.60
779.00,139.61
778.00,139.60
777.00,139.60
776.00,139.60
775.00,139.59
774.00,139.60
773.00,139.61
772.00,139.62
771.00,139.62
770.00,139.62
769.00,139.62
768.00,139.61
767.00,139.61
766.00,139.61
765.00,139.61
764.00,139.61
763.00,139.61
762.00,139.60
761.00,139.59
760.00,139.59
759.00,139.59
758.00,139.59
757.00,139.59
756.00,139.58
755.00,139.58
754.00,139.57
753.00,139.57
752.00,139.57
751.00,139.58
750.00,139.58
749.00,139.58
748.00,139.58
747.00,139.59
746.00,139.59
745.00,139.59
744.00,139.59
743.00,139.59
742.00,139.59
741.00,139.59
740.00,139.60
739.00,139.62
738.00,139.63
737.00,139.64
736.00,139.63
735.00,139.63
734.00,139.62
733.00,139.63
732.00,139.64
731.00,139.65
730.00,139.66
729.00,139.68
728.00,139.68
727.00,139.68
726.00,139.67
725.00,139.67
724.00,139.68
723.00,139.68
722.00,139.69
721.00,139.69
720.00,139.69
719.00,139.69
718.00,139.68
717.00,139.68
716.00,139.68
715.00,139.68
714.00,139.68
713.00,139.69
712.00,139.69
711.00,139.69
710.00,139.69
709.00,139.69
708.00,139.68
707.00,139.68
706.00,139.68
705.00,139.69
704.00,139.69
703.00,139.69
702.00,139.69
701.00,139.68
700.00,139.67
699.00,139.67
698.00,139.67
697.00,139.68
696.00,139.69
695.00,139.69
694.00,139.70
693.00,139.69
692.00,139.69
691.00,139.69
690.00,139.70
689.00,139.71
688.00,139.72
687.00,139.73
686.00,139.74
685.00,139.75
684.00,139.75
683.00,139.75
682.00,139.74
681.00,139.74
680.00,139.73
679.00,139.74
678.00,139.75
677.00,139.77
676.00,139.77
675.00,139.77
674.00,139.76
673.00,139.76
672.00,139.75
671.00,139.73
670.00,139.69
669.00,139.63
668.00,139.57
667.00,139.59
666.00,139.67
665.00,139.73
664.00,139.77
663.00,139.79
662.00,139.80
661.00,139.80
660.00,139.80
659.00,139.80
658.00,139.81
657.00,139.80
656.00,139.79
655.00,139.77
654.00,139.76
653.00,139.76
652.00,139.77
651.00,139.78
650.00,139.79
649.00,139.80
648.00,139.79
647.00,139.78
646.00,139.77
645.00,139.77
644.00,139.78
643.00,139.80
642.00,139.81
641.00,139.82
640.00,139.83
639.00,139.83
638.00,139.84
637.00,139.84
636.00,139.84
635.00,139.85
634.00,139.86
633.00,139.87
632.00,139.88
631.00,139.89
630.00,139.89
629.00,139.88
628.00,139.88
627.00,139.88
626.00,139.88
625.00,139.90
624.00,139.91
623.00,139.92
622.00,139.93
621.00,139.92
620.00,139.91
619.00,139.90
618.00,139.90
617.00,139.90
616.00,139.91
615.00,139.92
614.00,139.92
613.00,139.92
612.00,139.91
611.00,139.91
610.00,139.91
609.00,139.91
608.00,139.90
607.00,139.89
606.00,139.88
605.00,139.88
604.00,139.88
603.00,139.89
602.00,139.89
601.00,139.89
600.00,139.88
599.00,139.88
598.00,139.89
597.00,139.89
596.00,139.89
595.00,139.89
594.00,139.89
593.00,139.89
592.00,139.90
591.00,139.91
590.00,139.92
589.00,139.93
588.00,139.93
587.00,139.92
586.00,139.91
585.00,139.90
584.00,139.89
583.00,139.89
582.00,139.90
581.00,139.91
580.00,139.92
579.00,139.92
578.00,139.93
577.00,139.92
576.00,139.92
575.00,139.90
574.00,139.89
573.00,139.89
572.00,139.90
571.00,139.92
570.00,139.93
569.00,139.93
568.00,139.91
567.00,139.88
566.00,139.86
565.00,139.85
564.00,139.84
563.00,139.84
562.00,139.83
561.00,139.82
560.00,139.82
559.00,139.81
558.00,139.80
557.00,139.79
556.00,139.77
555.00,139.76
554.00,139.76
553.00,139.77
552.00,139.77
551.00,139.77
550.00,139.77
549.00,139.75
548.00,139.74
547.00,139.74
546.00,139.75
545.00,139.75
544.00,139.75
543.00,139.74
542.00,139.72
541.00,139.71
540.00,139.70
539.00,139.71
538.00,139.72
537.00,139.72
536.00,139.72
535.00,139.70
534.00,139.68
533.00,139.67
532.00,139.67
531.00,139.67
530.00,139.67
529.00,139.66
528.00,139.65
527.00,139.64
526.00,139.65
525.00,139.67
524.00,139.69
523.00,139.70
522.00,139.71
521.00,139.72
520.00,139.73
519.00,139.74
518.00,139.76
517.00,139.78
516.00,139.80
515.00,139.81
514.00,139.81
513.00,139.82
512.00,139.83
511.00,139.85
510.00,139.85
509.00,139.84
508.00,139.83
507.00,139.82
506.00,139.83
505.00,139.85
504.00,139.88
503.00,139.90
502.00,139.92
501.00,139.92
500.00,139.92
