3996.73391,0.00010
3994.67373,0.00012
3992.61356,0.00034
3990.55339,0.00057
3988.49322,0.00058
3986.43305,0.00042
3984.37287,0.00019
3982.31270,0.00003
3980.25253,0.00000
3978.19236,0.00011
3976.13219,0.00032
3974.07201,0.00044
3972.01184,0.00034
3969.95167,0.00022
3967.89150,0.00021
3965.83133,0.00024
3963.77115,0.00038
3961.71098,0.00069
3959.65081,0.00090
3957.59064,0.00077
3955.53046,0.00045
3953.47029,0.00019
3951.41012,0.00011
3949.34995,0.00039
3947.28978,0.00084
3945.22960,0.00089
3943.16943,0.00069
3941.10926,0.00064
3939.04909,0.00069
3936.98892,0.00086
3934.92874,0.00122
3932.86857,0.00147
3930.80840,0.00123
3928.74823,0.00076
3926.68805,0.00041
3924.62788,0.00050
3922.56771,0.00109
3920.50754,0.00144
3918.44737,0.00118
3916.38719,0.00103
3914.32702,0.00116
3912.26685,0.00104
3910.20668,0.00069
3908.14651,0.00047
3906.08633,0.00065
3904.02616,0.00104
3901.96599,0.00107
3899.90582,0.00079
3897.84565,0.00072
3895.78547,0.00091
3893.72530,0.00129
3891.66513,0.00167
3889.60496,0.00149
3887.54478,0.00069
3885.48461,0.00018
3883.42444,0.00070
3881.36427,0.00165
3879.30410,0.00217
3877.24392,0.00214
3875.18375,0.00188
3873.12358,0.00146
3871.06341,0.00082
3869.00324,0.00034
3866.94306,0.00018
3864.88289,0.00017
3862.82272,0.00034
3860.76255,0.00061
3858.70237,0.00072
3856.64220,0.00061
3854.58203,0.00051
3852.52186,0.00075
3850.46169,0.00098
3848.40151,0.00100
3846.34134,0.00100
3844.28117,0.00098
3842.22100,0.00084
3840.16083,0.00048
3838.10065,0.00018
3836.04048,0.00032
3833.98031,0.00072
3831.92014,0.00119
3829.85997,0.00165
3827.79979,0.00195
3825.73962,0.00194
3823.67945,0.00147
3821.61928,0.00088
3819.55910,0.00099
3817.49893,0.00145
3815.43876,0.00149
3813.37859,0.00132
3811.31842,0.00136
3809.25824,0.00143
3807.19807,0.00130
3805.13790,0.00101
3803.07773,0.00070
3801.01756,0.00053
3798.95738,0.00052
3796.89721,0.00057
3794.83704,0.00077
3792.77687,0.00116
3790.71670,0.00141
3788.65652,0.00127
3786.59635,0.00087
3784.53618,0.00061
3782.47601,0.00063
3780.41583,0.00083
3778.35566,0.00127
3776.29549,0.00166
3774.23532,0.00166
3772.17515,0.00142
3770.11497,0.00142
3768.05480,0.00188
3765.99463,0.00243
3763.93446,0.00267
3761.87429,0.00244
3759.81411,0.00199
3757.75394,0.00175
3755.69377,0.00160
3753.63360,0.00107
3751.57342,0.00063
3749.51325,0.00099
3747.45308,0.00156
3745.39291,0.00201
3743.33274,0.00256
3741.27256,0.00296
3739.21239,0.00295
3737.15222,0.00255
3735.09205,0.00185
3733.03188,0.00121
3730.97170,0.00107
3728.91153,0.00128
3726.85136,0.00152
3724.79119,0.00177
3722.73102,0.00197
3720.67084,0.00185
3718.61067,0.00150
3716.55050,0.00115
3714.49033,0.00072
3712.43015,0.00056
3710.36998,0.00119
3708.30981,0.00196
3706.24964,0.00232
3704.18947,0.00243
3702.12929,0.00226
3700.06912,0.00190
3698.00895,0.00176
3695.94878,0.00185
3693.88861,0.00191
3691.82843,0.00194
3689.76826,0.00218
3687.70809,0.00249
3685.64792,0.00249
3683.58775,0.00230
3681.52757,0.00223
3679.46740,0.00212
3677.40723,0.00175
3675.34706,0.00150
3673.28688,0.00203
3671.22671,0.00319
3669.16654,0.00405
3667.10637,0.00387
3665.04620,0.00337
3662.98602,0.00335
3660.92585,0.00372
3658.86568,0.00395
3656.80551,0.00399
3654.74534,0.00409
3652.68516,0.00451
3650.62499,0.00532
3648.56482,0.00605
3646.50465,0.00640
3644.44447,0.00649
3642.38430,0.00640
3640.32413,0.00629
3638.26396,0.00636
3636.20379,0.00672
3634.14361,0.00714
3632.08344,0.00711
3630.02327,0.00681
3627.96310,0.00718
3625.90293,0.00816
3623.84275,0.00872
3621.78258,0.00858
3619.72241,0.00824
3617.66224,0.00836
3615.60207,0.00886
3613.54189,0.00937
3611.48172,0.00997
3609.42155,0.01070
3607.36138,0.01136
3605.30120,0.01189
3603.24103,0.01218
3601.18086,0.01218
3599.12069,0.01252
3597.06052,0.01350
3595.00034,0.01433
3592.94017,0.01456
3590.88000,0.01456
3588.81983,0.01451
3586.75966,0.01450
3584.69948,0.01473
3582.63931,0.01505
3580.57914,0.01545
3578.51897,0.01615
3576.45879,0.01685
3574.39862,0.01721
3572.33845,0.01743
3570.27828,0.01758
3568.21811,0.01743
3566.15793,0.01718
3564.09776,0.01743
3562.03759,0.01800
3559.97742,0.01838
3557.91725,0.01868
3555.85707,0.01920
3553.79690,0.01975
3551.73673,0.02004
3549.67656,0.02025
3547.61639,0.02068
3545.55621,0.02133
3543.49604,0.02201
3541.43587,0.02244
3539.37570,0.02256
3537.31552,0.02268
3535.25535,0.02301
3533.19518,0.02342
3531.13501,0.02374
3529.07484,0.02402
3527.01466,0.02436
3524.95449,0.02462
3522.89432,0.02467
3520.83415,0.02462
3518.77398,0.02468
3516.71380,0.02516
3514.65363,0.02603
3512.59346,0.02681
3510.53329,0.02719
3508.47312,0.02731
3506.41294,0.02731
3504.35277,0.02730
3502.29260,0.02745
3500.23243,0.02766
3498.17225,0.02781
3496.11208,0.02805
3494.05191,0.02854
3491.99174,0.02916
3489.93157,0.02965
3487.87139,0.02995
3485.81122,0.03007
3483.75105,0.03000
3481.69088,0.03007
3479.63071,0.03045
3477.57053,0.03079
3475.51036,0.03092
3473.45019,0.03115
3471.39002,0.03154
3469.32984,0.03186
3467.26967,0.03221
3465.20950,0.03258
3463.14933,0.03277
3461.08916,0.03300
3459.02898,0.03339
3456.96881,0.03371
3454.90864,0.03393
3452.84847,0.03404
3450.78830,0.03407
3448.72812,0.03406
3446.66795,0.03402
3444.60778,0.03409
3442.54761,0.03420
3440.48744,0.03443
3438.42726,0.03497
3436.36709,0.03548
3434.30692,0.03584
3432.24675,0.03618
3430.18657,0.03638
3428.12640,0.03649
3426.06623,0.03653
3424.00606,0.03651
3421.94589,0.03660
3419.88571,0.03685
3417.82554,0.03736
3415.76537,0.03793
3413.70520,0.03810
3411.64503,0.03788
3409.58485,0.03761
3407.52468,0.03764
3405.46451,0.03790
3403.40434,0.03812
3401.34416,0.03839
3399.28399,0.03870
3397.22382,0.03880
3395.16365,0.03881
3393.10348,0.03876
3391.04330,0.03862
3388.98313,0.03863
3386.92296,0.03879
3384.86279,0.03882
3382.80262,0.03883
3380.74244,0.03911
3378.68227,0.03927
3376.62210,0.03907
3374.56193,0.03894
3372.50176,0.03889
3370.44158,0.03879
3368.38141,0.03892
3366.32124,0.03931
3364.26107,0.03965
3362.20089,0.03994
3360.14072,0.04022
3358.08055,0.04037
3356.02038,0.04035
3353.96021,0.04016
3351.90003,0.03999
3349.83986,0.03987
3347.77969,0.03970
3345.71952,0.03969
3343.65935,0.03991
3341.59917,0.04004
3339.53900,0.03990
3337.47883,0.03968
3335.41866,0.03973
3333.35849,0.03992
3331.29831,0.03979
3329.23814,0.03943
3327.17797,0.03928
3325.11780,0.03934
3323.05762,0.03952
3320.99745,0.03984
3318.93728,0.04014
3316.87711,0.04009
3314.81694,0.03990
3312.75676,0.03990
3310.69659,0.03988
3308.63642,0.03991
3306.57625,0.04013
3304.51608,0.04023
3302.45590,0.04020
3300.39573,0.04022
3298.33556,0.04015
3296.27539,0.03996
3294.21521,0.03990
3292.15504,0.04005
3290.09487,0.04010
3288.03470,0.03983
3285.97453,0.03963
3283.91435,0.03969
3281.85418,0.03985
3279.79401,0.04018
3277.73384,0.04055
3275.67367,0.04053
3273.61349,0.04032
3271.55332,0.04032
3269.49315,0.04032
3267.43298,0.04016
3265.37281,0.04008
3263.31263,0.04007
3261.25246,0.04015
3259.19229,0.04041
3257.13212,0.04040
3255.07194,0.04003
3253.01177,0.03985
3250.95160,0.03992
3248.89143,0.03984
3246.83126,0.03956
3244.77108,0.03921
3242.71091,0.03920
3240.65074,0.03953
3238.59057,0.03965
3236.53040,0.03944
3234.47022,0.03928
3232.41005,0.03937
3230.34988,0.03956
3228.28971,0.03957
3226.22954,0.03942
3224.16936,0.03933
3222.10919,0.03931
3220.04902,0.03918
3217.98885,0.03894
3215.92867,0.03884
3213.86850,0.03883
3211.80833,0.03877
3209.74816,0.03873
3207.68799,0.03866
3205.62781,0.03869
3203.56764,0.03882
3201.50747,0.03884
3199.44730,0.03882
3197.38713,0.03881
3195.32695,0.03858
3193.26678,0.03827
3191.20661,0.03817
3189.14644,0.03822
3187.08626,0.03806
3185.02609,0.03765
3182.96592,0.03740
3180.90575,0.03722
3178.84558,0.03673
3176.78540,0.03630
3174.72523,0.03635
3172.66506,0.03665
3170.60489,0.03688
3168.54472,0.03702
3166.48454,0.03700
3164.42437,0.03666
3162.36420,0.03605
3160.30403,0.03563
3158.24386,0.03575
3156.18368,0.03603
3154.12351,0.03601
3152.06334,0.03574
3150.00317,0.03539
3147.94299,0.03518
3145.88282,0.03533
3143.82265,0.03552
3141.76248,0.03534
3139.70231,0.03488
3137.64213,0.03448
3135.58196,0.03426
3133.52179,0.03413
3131.46162,0.03407
3129.40145,0.03406
3127.34127,0.03404
3125.28110,0.03391
3123.22093,0.03360
3121.16076,0.03331
3119.10058,0.03293
3117.04041,0.03239
3114.98024,0.03221
3112.92007,0.03250
3110.85990,0.03274
3108.79972,0.03265
3106.73955,0.03243
3104.67938,0.03230
3102.61921,0.03205
3100.55904,0.03163
3098.49886,0.03139
3096.43869,0.03138
3094.37852,0.03128
3092.31835,0.03109
3090.25818,0.03107
3088.19800,0.03115
3086.13783,0.03097
3084.07766,0.03066
3082.01749,0.03057
3079.95731,0.03048
3077.89714,0.03010
3075.83697,0.02957
3073.77680,0.02923
3071.71663,0.02932
3069.65645,0.02960
3067.59628,0.02954
3065.53611,0.02913
3063.47594,0.02881
3061.41577,0.02874
3059.35559,0.02869
3057.29542,0.02855
3055.23525,0.02841
3053.17508,0.02829
3051.11491,0.02810
3049.05473,0.02780
3046.99456,0.02748
3044.93439,0.02728
3042.87422,0.02725
3040.81404,0.02728
3038.75387,0.02726
3036.69370,0.02722
3034.63353,0.02716
3032.57336,0.02706
3030.51318,0.02691
3028.45301,0.02669
3026.39284,0.02630
3024.33267,0.02586
3022.27250,0.02565
3020.21232,0.02557
3018.15215,0.02540
3016.09198,0.02521
3014.03181,0.02507
3011.97163,0.02497
3009.91146,0.02484
3007.85129,0.02462
3005.79112,0.02437
3003.73095,0.02420
3001.67077,0.02423
2999.61060,0.02434
2997.55043,0.02432
2995.49026,0.02414
2993.43009,0.02384
2991.36991,0.02356
2989.30974,0.02352
2987.24957,0.02343
2985.18940,0.02311
2983.12923,0.02294
2981.06905,0.02300
2979.00888,0.02314
2976.94871,0.02312
2974.88854,0.02289
2972.82836,0.02272
2970.76819,0.02268
2968.70802,0.02270
2966.64785,0.02268
2964.58768,0.02251
2962.52750,0.02243
2960.46733,0.02256
2958.40716,0.02273
2956.34699,0.02278
2954.28682,0.02267
2952.22664,0.02262
2950.16647,0.02256
2948.10630,0.02255
2946.04613,0.02282
2943.98596,0.02306
2941.92578,0.02304
2939.86561,0.02300
2937.80544,0.02310
2935.74527,0.02314
2933.68509,0.02296
2931.62492,0.02283
2929.56475,0.02280
2927.50458,0.02264
2925.44441,0.02249
2923.38423,0.02262
2921.32406,0.02289
2919.26389,0.02294
2917.20372,0.02273
2915.14355,0.02234
2913.08337,0.02197
2911.02320,0.02189
2908.96303,0.02176
2906.90286,0.02133
2904.84268,0.02080
2902.78251,0.02049
2900.72234,0.02059
2898.66217,0.02095
2896.60200,0.02109
2894.54182,0.02090
2892.48165,0.02083
2890.42148,0.02100
2888.36131,0.02093
2886.30114,0.02049
2884.24096,0.02022
2882.18079,0.02033
2880.12062,0.02045
2878.06045,0.02036
2876.00028,0.02011
2873.94010,0.01986
2871.87993,0.01973
2869.81976,0.01977
2867.75959,0.01994
2865.69941,0.01988
2863.63924,0.01963
2861.57907,0.01960
2859.51890,0.01957
2857.45873,0.01925
2855.39855,0.01893
2853.33838,0.01888
2851.27821,0.01883
2849.21804,0.01862
2847.15787,0.01861
2845.09769,0.01887
2843.03752,0.01890
2840.97735,0.01851
2838.91718,0.01820
2836.85700,0.01826
2834.79683,0.01830
2832.73666,0.01810
2830.67649,0.01798
2828.61632,0.01794
2826.55614,0.01773
2824.49597,0.01748
2822.43580,0.01733
2820.37563,0.01731
2818.31546,0.01727
2816.25528,0.01701
2814.19511,0.01677
2812.13494,0.01693
2810.07477,0.01715
2808.01460,0.01708
2805.95442,0.01689
2803.89425,0.01676
2801.83408,0.01668
2799.77391,0.01657
2797.71373,0.01658
2795.65356,0.01669
2793.59339,0.01655
2791.53322,0.01625
2789.47305,0.01606
2787.41287,0.01600
2785.35270,0.01612
2783.29253,0.01635
2781.23236,0.01650
2779.17219,0.01651
2777.11201,0.01629
2775.05184,0.01598
2772.99167,0.01578
2770.93150,0.01566
2768.87133,0.01557
2766.81115,0.01554
2764.75098,0.01547
2762.69081,0.01535
2760.63064,0.01521
2758.57046,0.01496
2756.51029,0.01480
2754.45012,0.01490
2752.38995,0.01495
2750.32978,0.01475
2748.26960,0.01452
2746.20943,0.01453
2744.14926,0.01467
2742.08909,0.01484
2740.02892,0.01505
2737.96874,0.01500
2735.90857,0.01458
2733.84840,0.01423
2731.78823,0.01416
2729.72805,0.01415
2727.66788,0.01413
2725.60771,0.01407
2723.54754,0.01392
2721.48737,0.01383
2719.42719,0.01385
2717.36702,0.01386
2715.30685,0.01370
2713.24668,0.01356
2711.18651,0.01361
2709.12633,0.01359
2707.06616,0.01333
2705.00599,0.01310
2702.94582,0.01298
2700.88565,0.01304
2698.82547,0.01335
2696.76530,0.01343
2694.70513,0.01316
2692.64496,0.01299
2690.58478,0.01293
2688.52461,0.01293
2686.46444,0.01302
2684.40427,0.01306
2682.34410,0.01295
2680.28392,0.01272
2678.22375,0.01250
2676.16358,0.01244
2674.10341,0.01258
2672.04324,0.01271
2669.98306,0.01269
2667.92289,0.01247
2665.86272,0.01222
2663.80255,0.01220
2661.74238,0.01224
2659.68220,0.01224
2657.62203,0.01233
2655.56186,0.01238
2653.50169,0.01224
2651.44151,0.01209
2649.38134,0.01211
2647.32117,0.01212
2645.26100,0.01189
2643.20083,0.01163
2641.14065,0.01160
2639.08048,0.01166
2637.02031,0.01169
2634.96014,0.01152
2632.89997,0.01135
2630.83979,0.01139
2628.77962,0.01137
2626.71945,0.01122
2624.65928,0.01103
2622.59910,0.01078
2620.53893,0.01055
2618.47876,0.01040
2616.41859,0.01039
2614.35842,0.01052
2612.29824,0.01065
2610.23807,0.01066
2608.17790,0.01050
2606.11773,0.01022
2604.05756,0.00993
2601.99738,0.00964
2599.93721,0.00948
2597.87704,0.00953
2595.81687,0.00959
2593.75670,0.00949
2591.69652,0.00953
2589.63635,0.00971
2587.57618,0.00961
2585.51601,0.00941
2583.45583,0.00951
2581.39566,0.00968
2579.33549,0.00955
2577.27532,0.00922
2575.21515,0.00914
2573.15497,0.00948
2571.09480,0.00986
2569.03463,0.00984
2566.97446,0.00982
2564.91429,0.01014
2562.85411,0.01000
2560.79394,0.00940
2558.73377,0.00947
2556.67360,0.00988
2554.61342,0.00969
2552.55325,0.00929
2550.49308,0.00931
2548.43291,0.00956
2546.37274,0.00943
2544.31256,0.00888
2542.25239,0.00865
2540.19222,0.00890
2538.13205,0.00939
2536.07188,0.00990
2534.01170,0.01026
2531.95153,0.01057
2529.89136,0.01062
2527.83119,0.01032
2525.77102,0.01003
2523.71084,0.00981
2521.65067,0.00944
2519.59050,0.00909
2517.53033,0.00915
2515.47015,0.00951
2513.40998,0.00974
2511.34981,0.00972
2509.28964,0.00946
2507.22947,0.00927
2505.16929,0.00958
2503.10912,0.00991
2501.04895,0.00985
2498.98878,0.00981
2496.92861,0.00978
2494.86843,0.00944
2492.80826,0.00905
2490.74809,0.00902
2488.68792,0.00912
2486.62775,0.00909
2484.56757,0.00923
2482.50740,0.00958
2480.44723,0.00999
2478.38706,0.00994
2476.32688,0.00916
2474.26671,0.00859
2472.20654,0.00866
2470.14637,0.00882
2468.08620,0.00905
2466.02602,0.00942
2463.96585,0.00933
2461.90568,0.00893
2459.84551,0.00885
2457.78534,0.00908
2455.72516,0.00951
2453.66499,0.00990
2451.60482,0.01003
2449.54465,0.00992
2447.48447,0.00959
2445.42430,0.00941
2443.36413,0.00948
2441.30396,0.00927
2439.24379,0.00905
2437.18361,0.00960
2435.12344,0.01046
2433.06327,0.01058
2431.00310,0.01010
2428.94293,0.00955
2426.88275,0.00906
2424.82258,0.00885
2422.76241,0.00905
2420.70224,0.00967
2418.64207,0.01021
2416.58189,0.01004
2414.52172,0.00953
2412.46155,0.00923
2410.40138,0.00903
2408.34120,0.00901
2406.28103,0.00932
2404.22086,0.00958
2402.16069,0.00962
2400.10052,0.00965
2398.04034,0.00970
2395.98017,0.00968
2393.92000,0.00968
2391.85983,0.00966
2389.79966,0.00953
2387.73948,0.00938
2385.67931,0.00938
2383.61914,0.00940
2381.55897,0.00917
2379.49880,0.00889
2377.43862,0.00902
2375.37845,0.00947
2373.31828,0.00943
2371.25811,0.00877
2369.19793,0.00848
2367.13776,0.00942
2365.07759,0.01079
2363.01742,0.01119
2360.95725,0.01089
2358.89707,0.00973
2356.83690,0.00742
2354.77673,0.00639
2352.71656,0.00807
2350.65639,0.01022
2348.59621,0.01095
2346.53604,0.01040
2344.47587,0.00932
2342.41570,0.00835
2340.35552,0.00786
2338.29535,0.00778
2336.23518,0.00818
2334.17501,0.00916
2332.11484,0.01006
2330.05466,0.01018
2327.99449,0.01009
2325.93432,0.01049
2323.87415,0.01089
2321.81398,0.01082
2319.75380,0.01042
2317.69363,0.00991
2315.63346,0.00953
2313.57329,0.00939
2311.51312,0.00945
2309.45294,0.00967
2307.39277,0.00999
2305.33260,0.01029
2303.27243,0.01050
2301.21225,0.01057
2299.15208,0.01038
2297.09191,0.01006
2295.03174,0.00994
2292.97157,0.00991
2290.91139,0.00969
2288.85122,0.00932
2286.79105,0.00915
2284.73088,0.00944
2282.67071,0.01012
2280.61053,0.01062
2278.55036,0.01039
2276.49019,0.00964
2274.43002,0.00898
2272.36984,0.00850
2270.30967,0.00794
2268.24950,0.00734
2266.18933,0.00727
2264.12916,0.00775
2262.06898,0.00806
2260.00881,0.00791
2257.94864,0.00748
2255.88847,0.00737
2253.82830,0.00786
2251.76812,0.00840
2249.70795,0.00851
2247.64778,0.00843
2245.58761,0.00840
2243.52744,0.00807
2241.46726,0.00764
2239.40709,0.00724
2237.34692,0.00698
2235.28675,0.00772
2233.22657,0.00858
2231.16640,0.00846
2229.10623,0.00871
2227.04606,0.00949
2224.98589,0.00956
2222.92571,0.00904
2220.86554,0.00870
2218.80537,0.00865
2216.74520,0.00835
2214.68503,0.00783
2212.62485,0.00795
2210.56468,0.00819
2208.50451,0.00777
2206.44434,0.00804
2204.38417,0.00881
2202.32399,0.00823
2200.26382,0.00703
2198.20365,0.00713
2196.14348,0.00767
2194.08330,0.00703
2192.02313,0.00632
2189.96296,0.00658
2187.90279,0.00679
2185.84262,0.00600
2183.78244,0.00609
2181.72227,0.00818
2179.66210,0.00926
2177.60193,0.00808
2175.54176,0.00668
2173.48158,0.00626
2171.42141,0.00607
2169.36124,0.00569
2167.30107,0.00584
2165.24089,0.00716
2163.18072,0.00844
2161.12055,0.00698
2159.06038,0.00325
2157.00021,0.00131
2154.94003,0.00267
2152.87986,0.00483
2150.81969,0.00508
2148.75952,0.00452
2146.69935,0.00494
2144.63917,0.00553
2142.57900,0.00604
2140.51883,0.00609
2138.45866,0.00500
2136.39849,0.00392
2134.33831,0.00410
2132.27814,0.00494
2130.21797,0.00543
2128.15780,0.00561
2126.09762,0.00575
2124.03745,0.00621
2121.97728,0.00668
2119.91711,0.00653
2117.85694,0.00669
2115.79676,0.00779
2113.73659,0.00868
2111.67642,0.00855
2109.61625,0.00741
2107.55608,0.00604
2105.49590,0.00570
2103.43573,0.00617
2101.37556,0.00646
2099.31539,0.00607
2097.25521,0.00529
2095.19504,0.00505
2093.13487,0.00544
2091.07470,0.00544
2089.01453,0.00517
2086.95435,0.00544
2084.89418,0.00619
2082.83401,0.00676
2080.77384,0.00662
2078.71367,0.00598
2076.65349,0.00528
2074.59332,0.00495
2072.53315,0.00523
2070.47298,0.00594
2068.41281,0.00648
2066.35263,0.00628
2064.29246,0.00555
2062.23229,0.00510
2060.17212,0.00527
2058.11194,0.00561
2056.05177,0.00592
2053.99160,0.00604
2051.93143,0.00563
2049.87126,0.00460
2047.81108,0.00316
2045.75091,0.00214
2043.69074,0.00216
2041.63057,0.00271
2039.57040,0.00243
2037.51022,0.00139
2035.45005,0.00139
2033.38988,0.00320
2031.32971,0.00572
2029.26954,0.00774
2027.20936,0.00772
2025.14919,0.00494
2023.08902,0.00219
2021.02885,0.00173
2018.96867,0.00229
2016.90850,0.00250
2014.84833,0.00270
2012.78816,0.00298
2010.72799,0.00314
2008.66781,0.00385
2006.60764,0.00477
2004.54747,0.00448
2002.48730,0.00335
2000.42713,0.00298
1998.36695,0.00358
1996.30678,0.00375
1994.24661,0.00353
1992.18644,0.00396
1990.12626,0.00408
1988.06609,0.00387
1986.00592,0.00413
1983.94575,0.00429
1981.88558,0.00432
1979.82540,0.00420
1977.76523,0.00408
1975.70506,0.00418
1973.64489,0.00358
1971.58472,0.00238
1969.52454,0.00171
1967.46437,0.00204
1965.40420,0.00255
1963.34403,0.00241
1961.28386,0.00235
1959.22368,0.00287
1957.16351,0.00311
1955.10334,0.00251
1953.04317,0.00173
1950.98299,0.00166
1948.92282,0.00213
1946.86265,0.00236
1944.80248,0.00237
1942.74231,0.00234
1940.68213,0.00239
1938.62196,0.00294
1936.56179,0.00370
1934.50162,0.00403
1932.44145,0.00381
1930.38127,0.00301
1928.32110,0.00224
1926.26093,0.00242
1924.20076,0.00310
1922.14059,0.00332
1920.08041,0.00340
1918.02024,0.00382
1915.96007,0.00408
1913.89990,0.00390
1911.83972,0.00371
1909.77955,0.00389
1907.71938,0.00421
1905.65921,0.00413
1903.59904,0.00378
1901.53886,0.00373
1899.47869,0.00369
1897.41852,0.00334
1895.35835,0.00318
1893.29818,0.00342
1891.23800,0.00361
1889.17783,0.00352
1887.11766,0.00333
1885.05749,0.00334
1882.99731,0.00368
1880.93714,0.00408
1878.87697,0.00422
1876.81680,0.00404
1874.75663,0.00362
1872.69645,0.00297
1870.63628,0.00249
1868.57611,0.00271
1866.51594,0.00327
1864.45577,0.00344
1862.39559,0.00331
1860.33542,0.00341
1858.27525,0.00366
1856.21508,0.00358
1854.15491,0.00322
1852.09473,0.00311
1850.03456,0.00330
1847.97439,0.00323
1845.91422,0.00289
1843.85404,0.00287
1841.79387,0.00313
1839.73370,0.00329
1837.67353,0.00342
1835.61336,0.00359
1833.55318,0.00364
1831.49301,0.00371
1829.43284,0.00393
1827.37267,0.00392
1825.31250,0.00351
1823.25232,0.00321
1821.19215,0.00330
1819.13198,0.00354
1817.07181,0.00364
1815.01163,0.00362
1812.95146,0.00358
1810.89129,0.00362
1808.83112,0.00387
1806.77095,0.00409
1804.71077,0.00389
1802.65060,0.00338
1800.59043,0.00292
1798.53026,0.00263
1796.47009,0.00244
1794.40991,0.00235
1792.34974,0.00248
1790.28957,0.00282
1788.22940,0.00316
1786.16923,0.00338
1784.10905,0.00351
1782.04888,0.00367
1779.98871,0.00393
1777.92854,0.00404
1775.86836,0.00379
1773.80819,0.00340
1771.74802,0.00329
1769.68785,0.00362
1767.62768,0.00410
1765.56750,0.00439
1763.50733,0.00435
1761.44716,0.00409
1759.38699,0.00394
1757.32682,0.00416
1755.26664,0.00461
1753.20647,0.00490
1751.14630,0.00472
1749.08613,0.00429
1747.02596,0.00413
1744.96578,0.00436
1742.90561,0.00457
1740.84544,0.00466
1738.78527,0.00492
1736.72509,0.00530
1734.66492,0.00560
1732.60475,0.00575
1730.54458,0.00582
1728.48441,0.00596
1726.42423,0.00621
1724.36406,0.00640
1722.30389,0.00640
1720.24372,0.00618
1718.18355,0.00587
1716.12337,0.00591
1714.06320,0.00648
1712.00303,0.00709
1709.94286,0.00736
1707.88268,0.00735
1705.82251,0.00728
1703.76234,0.00720
1701.70217,0.00710
1699.64200,0.00717
1697.58182,0.00774
1695.52165,0.00864
1693.46148,0.00931
1691.40131,0.00943
1689.34114,0.00931
1687.28096,0.00937
1685.22079,0.00975
1683.16062,0.01033
1681.10045,0.01088
1679.04028,0.01138
1676.98010,0.01186
1674.91993,0.01221
1672.85976,0.01240
1670.79959,0.01256
1668.73941,0.01303
1666.67924,0.01385
1664.61907,0.01455
1662.55890,0.01502
1660.49873,0.01542
1658.43855,0.01569
1656.37838,0.01554
1654.31821,0.01497
1652.25804,0.01481
1650.19787,0.01537
1648.13769,0.01569
1646.07752,0.01566
1644.01735,0.01592
1641.95718,0.01638
1639.89701,0.01660
1637.83683,0.01632
1635.77666,0.01579
1633.71649,0.01573
1631.65632,0.01599
1629.59614,0.01588
1627.53597,0.01536
1625.47580,0.01496
1623.41563,0.01497
1621.35546,0.01523
1619.29528,0.01541
1617.23511,0.01532
1615.17494,0.01520
1613.11477,0.01520
1611.05460,0.01506
1608.99442,0.01467
1606.93425,0.01427
1604.87408,0.01398
1602.81391,0.01381
1600.75373,0.01374
1598.69356,0.01357
1596.63339,0.01320
1594.57322,0.01275
1592.51305,0.01230
1590.45287,0.01184
1588.39270,0.01141
1586.33253,0.01103
1584.27236,0.01067
1582.21219,0.01030
1580.15201,0.00990
1578.09184,0.00939
1576.03167,0.00891
1573.97150,0.00870
1571.91133,0.00851
1569.85115,0.00808
1567.79098,0.00772
1565.73081,0.00764
1563.67064,0.00760
1561.61046,0.00724
1559.55029,0.00662
1557.49012,0.00633
1555.42995,0.00631
1553.36978,0.00625
1551.30960,0.00617
1549.24943,0.00606
1547.18926,0.00581
1545.12909,0.00529
1543.06892,0.00461
1541.00874,0.00414
1538.94857,0.00422
1536.88840,0.00452
1534.82823,0.00446
1532.76805,0.00422
1530.70788,0.00422
1528.64771,0.00427
1526.58754,0.00417
1524.52737,0.00397
1522.46719,0.00373
1520.40702,0.00373
1518.34685,0.00393
1516.28668,0.00398
1514.22651,0.00397
1512.16633,0.00395
1510.10616,0.00364
1508.04599,0.00296
1505.98582,0.00261
1503.92565,0.00298
1501.86547,0.00340
1499.80530,0.00354
1497.74513,0.00348
1495.68496,0.00348
1493.62478,0.00356
1491.56461,0.00347
1489.50444,0.00330
1487.44427,0.00345
1485.38410,0.00376
1483.32392,0.00381
1481.26375,0.00369
1479.20358,0.00378
1477.14341,0.00399
1475.08324,0.00396
1473.02306,0.00387
1470.96289,0.00424
1468.90272,0.00465
1466.84255,0.00466
1464.78238,0.00464
1462.72220,0.00491
1460.66203,0.00505
1458.60186,0.00488
1456.54169,0.00486
1454.48151,0.00523
1452.42134,0.00554
1450.36117,0.00559
1448.30100,0.00552
1446.24083,0.00553
1444.18065,0.00557
1442.12048,0.00544
1440.06031,0.00523
1438.00014,0.00514
1435.93997,0.00527
1433.87979,0.00553
1431.81962,0.00573
1429.75945,0.00587
1427.69928,0.00601
1425.63910,0.00616
1423.57893,0.00634
1421.51876,0.00657
1419.45859,0.00670
1417.39842,0.00675
1415.33824,0.00673
1413.27807,0.00667
1411.21790,0.00670
1409.15773,0.00681
1407.09756,0.00688
1405.03738,0.00681
1402.97721,0.00662
1400.91704,0.00637
1398.85687,0.00601
1396.79670,0.00551
1394.73652,0.00515
1392.67635,0.00517
1390.61618,0.00531
1388.55601,0.00540
1386.49583,0.00554
1384.43566,0.00572
1382.37549,0.00588
1380.31532,0.00605
1378.25515,0.00616
1376.19497,0.00610
1374.13480,0.00599
1372.07463,0.00593
1370.01446,0.00583
1367.95429,0.00567
1365.89411,0.00553
1363.83394,0.00535
1361.77377,0.00516
1359.71360,0.00511
1357.65343,0.00519
1355.59325,0.00520
1353.53308,0.00502
1351.47291,0.00469
1349.41274,0.00440
1347.35256,0.00436
1345.29239,0.00455
1343.23222,0.00472
1341.17205,0.00468
1339.11188,0.00448
1337.05170,0.00434
1334.99153,0.00434
1332.93136,0.00433
1330.87119,0.00424
1328.81102,0.00418
1326.75084,0.00423
1324.69067,0.00424
1322.63050,0.00417
1320.57033,0.00408
1318.51015,0.00405
1316.44998,0.00409
1314.38981,0.00414
1312.32964,0.00410
1310.26947,0.00404
1308.20929,0.00401
1306.14912,0.00390
1304.08895,0.00378
1302.02878,0.00376
1299.96861,0.00384
1297.90843,0.00392
1295.84826,0.00385
1293.78809,0.00368
1291.72792,0.00367
1289.66775,0.00388
1287.60757,0.00413
1285.54740,0.00429
1283.48723,0.00436
1281.42706,0.00441
1279.36688,0.00443
1277.30671,0.00436
1275.24654,0.00434
1273.18637,0.00456
1271.12620,0.00477
1269.06602,0.00481
1267.00585,0.00478
1264.94568,0.00473
1262.88551,0.00468
1260.82534,0.00466
1258.76516,0.00470
1256.70499,0.00476
1254.64482,0.00480
1252.58465,0.00477
1250.52447,0.00471
1248.46430,0.00462
1246.40413,0.00449
1244.34396,0.00427
1242.28379,0.00410
1240.22361,0.00409
1238.16344,0.00405
1236.10327,0.00393
1234.04310,0.00387
1231.98293,0.00381
1229.92275,0.00369
1227.86258,0.00351
1225.80241,0.00340
1223.74224,0.00339
1221.68207,0.00325
1219.62189,0.00302
1217.56172,0.00290
1215.50155,0.00274
1213.44138,0.00251
1211.38120,0.00236
1209.32103,0.00227
1207.26086,0.00209
1205.20069,0.00194
1203.14052,0.00204
1201.08034,0.00224
1199.02017,0.00221
1196.96000,0.00195
1194.89983,0.00182
1192.83966,0.00187
1190.77948,0.00210
1188.71931,0.00245
1186.65914,0.00263
1184.59897,0.00275
1182.53880,0.00307
1180.47862,0.00353
1178.41845,0.00405
1176.35828,0.00449
1174.29811,0.00482
1172.23793,0.00525
1170.17776,0.00594
1168.11759,0.00675
1166.05742,0.00754
1163.99725,0.00803
1161.93707,0.00815
1159.87690,0.00836
1157.81673,0.00892
1155.75656,0.00955
1153.69639,0.01009
1151.63621,0.01060
1149.57604,0.01105
1147.51587,0.01149
1145.45570,0.01194
1143.39552,0.01234
1141.33535,0.01286
1139.27518,0.01351
1137.21501,0.01405
1135.15484,0.01449
1133.09466,0.01503
1131.03449,0.01571
1128.97432,0.01654
1126.91415,0.01738
1124.85398,0.01793
1122.79380,0.01828
1120.73363,0.01870
1118.67346,0.01930
1116.61329,0.02010
1114.55312,0.02100
1112.49294,0.02181
1110.43277,0.02276
1108.37260,0.02403
1106.31243,0.02513
1104.25225,0.02582
1102.19208,0.02655
1100.13191,0.02745
1098.07174,0.02820
1096.01157,0.02873
1093.95139,0.02936
1091.89122,0.03036
1089.83105,0.03150
1087.77088,0.03240
1085.71071,0.03298
1083.65053,0.03336
1081.59036,0.03393
1079.53019,0.03467
1077.47002,0.03520
1075.40985,0.03564
1073.34967,0.03624
1071.28950,0.03679
1069.22933,0.03722
1067.16916,0.03745
1065.10898,0.03721
1063.04881,0.03696
1060.98864,0.03709
1058.92847,0.03712
1056.86830,0.03676
1054.80812,0.03620
1052.74795,0.03570
1050.68778,0.03534
1048.62761,0.03491
1046.56744,0.03438
1044.50726,0.03391
1042.44709,0.03343
1040.38692,0.03288
1038.32675,0.03221
1036.26657,0.03140
1034.20640,0.03076
1032.14623,0.03042
1030.08606,0.02990
1028.02589,0.02915
1025.96571,0.02849
1023.90554,0.02791
1021.84537,0.02728
1019.78520,0.02665
1017.72503,0.02609
1015.66485,0.02545
1013.60468,0.02464
1011.54451,0.02389
1009.48434,0.02347
1007.42417,0.02316
1005.36399,0.02259
1003.30382,0.02212
1001.24365,0.02219
999.18348,0.02249
997.12330,0.02278
995.06313,0.02324
993.00296,0.02363
990.94279,0.02371
988.88262,0.02376
986.82244,0.02386
984.76227,0.02370
982.70210,0.02331
980.64193,0.02285
978.58176,0.02246
976.52158,0.02195
974.46141,0.02102
972.40124,0.01991
970.34107,0.01876
968.28089,0.01753
966.22072,0.01647
964.16055,0.01552
962.10038,0.01448
960.04021,0.01354
957.98003,0.01283
955.91986,0.01207
953.85969,0.01122
951.79952,0.01052
949.73935,0.00989
947.67917,0.00923
945.61900,0.00889
943.55883,0.00899
941.49866,0.00913
939.43849,0.00913
937.37831,0.00901
935.31814,0.00893
933.25797,0.00907
931.19780,0.00912
929.13762,0.00886
927.07745,0.00861
925.01728,0.00866
922.95711,0.00869
920.89694,0.00837
918.83676,0.00788
916.77659,0.00738
914.71642,0.00674
912.65625,0.00623
910.59608,0.00594
908.53590,0.00557
906.47573,0.00514
904.41556,0.00482
902.35539,0.00470
900.29522,0.00477
898.23504,0.00492
896.17487,0.00509
894.11470,0.00527
892.05453,0.00549
889.99435,0.00590
887.93418,0.00649
885.87401,0.00684
883.81384,0.00668
881.75367,0.00642
879.69349,0.00658
877.63332,0.00693
875.57315,0.00731
873.51298,0.00783
871.45281,0.00813
869.39263,0.00803
867.33246,0.00788
865.27229,0.00785
863.21212,0.00763
861.15194,0.00733
859.09177,0.00753
857.03160,0.00804
854.97143,0.00816
852.91126,0.00792
850.85108,0.00762
848.79091,0.00714
846.73074,0.00668
844.67057,0.00677
842.61040,0.00724
840.55022,0.00734
838.49005,0.00687
836.42988,0.00605
834.36971,0.00514
832.30954,0.00470
830.24936,0.00474
828.18919,0.00497
826.12902,0.00503
824.06885,0.00471
822.00867,0.00439
819.94850,0.00438
817.88833,0.00443
815.82816,0.00425
813.76799,0.00404
811.70781,0.00402
809.64764,0.00385
807.58747,0.00355
805.52730,0.00353
803.46713,0.00360
801.40695,0.00344
799.34678,0.00305
797.28661,0.00258
795.22644,0.00235
793.16627,0.00248
791.10609,0.00277
789.04592,0.00291
786.98575,0.00281
784.92558,0.00288
782.86540,0.00330
780.80523,0.00370
778.74506,0.00402
776.68489,0.00415
774.62472,0.00397
772.56454,0.00367
770.50437,0.00360
768.44420,0.00394
766.38403,0.00406
764.32386,0.00363
762.26368,0.00311
760.20351,0.00305
758.14334,0.00334
756.08317,0.00320
754.02299,0.00294
751.96282,0.00328
749.90265,0.00390
747.84248,0.00415
745.78231,0.00375
743.72213,0.00297
741.66196,0.00238
739.60179,0.00226
737.54162,0.00242
735.48145,0.00252
733.42127,0.00263
731.36110,0.00301
729.30093,0.00313
727.24076,0.00257
725.18059,0.00216
723.12041,0.00251
721.06024,0.00307
719.00007,0.00331
716.93990,0.00344
714.87972,0.00367
712.81955,0.00397
710.75938,0.00430
708.69921,0.00466
706.63904,0.00506
704.57886,0.00520
702.51869,0.00467
700.45852,0.00378
698.39835,0.00321
696.33818,0.00313
694.27800,0.00318
692.21783,0.00344
690.15766,0.00408
688.09749,0.00425
686.03731,0.00349
683.97714,0.00271
681.91697,0.00267
679.85680,0.00320
677.79663,0.00370
675.73645,0.00372
673.67628,0.00356
671.61611,0.00356
669.55594,0.00321
667.49577,0.00248
665.43559,0.00230
663.37542,0.00253
661.31525,0.00315
659.25508,0.00414
657.19491,0.00500
655.13473,0.00533
653.07456,0.00498
651.01439,0.00399
648.95422,0.00289
646.89404,0.00232
644.83387,0.00244
642.77370,0.00328
640.71353,0.00478
638.65336,0.00633
636.59318,0.00665
634.53301,0.00554
632.47284,0.00422
630.41267,0.00357
628.35250,0.00309
626.29232,0.00185
624.23215,0.00113
622.17198,0.00215
620.11181,0.00333
618.05164,0.00413
615.99146,0.00541
613.93129,0.00710
611.87112,0.00702
609.81095,0.00464
607.75077,0.00207
605.69060,0.00039
603.63043,0.00000
601.57026,0.00043
599.51009,0.00000
