3996.73391,0.00011
3994.67373,-0.00036
3992.61356,-0.00044
3990.55339,0.00011
3988.49322,0.00063
3986.43305,0.00055
3984.37287,0.00007
3982.31270,-0.00013
3980.25253,0.00011
3978.19236,0.00038
3976.13219,0.00040
3974.07201,0.00027
3972.01184,0.00027
3969.95167,0.00050
3967.89150,0.00065
3965.83133,0.00058
3963.77115,0.00046
3961.71098,0.00022
3959.65081,0.00000
3957.59064,0.00009
3955.53046,0.00019
3953.47029,0.00021
3951.41012,0.00049
3949.34995,0.00093
3947.28978,0.00104
3945.22960,0.00126
3943.16943,0.00154
3941.10926,0.00085
3939.04909,0.00003
3936.98892,0.00000
3934.92874,0.00067
3932.86857,0.00156
3930.80840,0.00159
3928.74823,0.00094
3926.68805,0.00103
3924.62788,0.00147
3922.56771,0.00105
3920.50754,0.00075
3918.44737,0.00109
3916.38719,0.00122
3914.32702,0.00107
3912.26685,0.00133
3910.20668,0.00147
3908.14651,0.00156
3906.08633,0.00251
3904.02616,0.00320
3901.96599,0.00264
3899.90582,0.00193
3897.84565,0.00099
3895.78547,0.00064
3893.72530,0.00168
3891.66513,0.00216
3889.60496,0.00079
3887.54478,0.00046
3885.48461,0.00115
3883.42444,0.00109
3881.36427,0.00151
3879.30410,0.00085
3877.24392,0.00000
3875.18375,0.00125
3873.12358,0.00255
3871.06341,0.00303
3869.00324,0.00180
3866.94306,0.00040
3864.88289,0.00132
3862.82272,0.00194
3860.76255,0.00128
3858.70237,0.00065
3856.64220,0.00141
3854.58203,0.00352
3852.52186,0.00335
3850.46169,0.00130
3848.40151,0.00072
3846.34134,0.00118
3844.28117,0.00164
3842.22100,0.00163
3840.16083,0.00210
3838.10065,0.00253
3836.04048,0.00200
3833.98031,0.00189
3831.92014,0.00195
3829.85997,0.00140
3827.79979,0.00123
3825.73962,0.00094
3823.67945,0.00143
3821.61928,0.00324
3819.55910,0.00320
3817.49893,0.00330
3815.43876,0.00314
3813.37859,0.00111
3811.31842,0.00000
3809.25824,0.00070
3807.19807,0.00149
3805.13790,0.00095
3803.07773,0.00192
3801.01756,0.00277
3798.95738,0.00177
3796.89721,0.00203
3794.83704,0.00206
3792.77687,0.00145
3790.71670,0.00130
3788.65652,0.00176
3786.59635,0.00260
3784.53618,0.00270
3782.47601,0.00214
3780.41583,0.00246
3778.35566,0.00244
3776.29549,0.00158
3774.23532,0.00116
3772.17515,0.00159
3770.11497,0.00201
3768.05480,0.00139
3765.99463,0.00085
3763.93446,0.00025
3761.87429,0.00045
3759.81411,0.00150
3757.75394,0.00136
3755.69377,0.00073
3753.63360,0.00205
3751.57342,0.00417
3749.51325,0.00287
3747.45308,0.00059
3745.39291,0.00137
3743.33274,0.00159
3741.27256,0.00077
3739.21239,0.00127
3737.15222,0.00249
3735.09205,0.00299
3733.03188,0.00212
3730.97170,0.00055
3728.91153,0.00000
3726.85136,0.00126
3724.79119,0.00238
3722.73102,0.00260
3720.67084,0.00257
3718.61067,0.00236
3716.55050,0.00154
3714.49033,0.00128
3712.43015,0.00239
3710.36998,0.00283
3708.30981,0.00162
3706.24964,0.00048
3704.18947,0.00068
3702.12929,0.00161
3700.06912,0.00169
3698.00895,0.00171
3695.94878,0.00193
3693.88861,0.00182
3691.82843,0.00241
3689.76826,0.00313
3687.70809,0.00209
3685.64792,0.00087
3683.58775,0.00091
3681.52757,0.00133
3679.46740,0.00207
3677.40723,0.00394
3675.34706,0.00437
3673.28688,0.00169
3671.22671,0.00184
3669.16654,0.00285
3667.10637,0.00190
3665.04620,0.00190
3662.98602,0.00264
3660.92585,0.00279
3658.86568,0.00297
3656.80551,0.00339
3654.74534,0.00274
3652.68516,0.00339
3650.62499,0.00660
3648.56482,0.00806
3646.50465,0.00616
3644.44447,0.00449
3642.38430,0.00478
3640.32413,0.00559
3638.26396,0.00580
3636.20379,0.00565
3634.14361,0.00562
3632.08344,0.00639
3630.02327,0.00885
3627.96310,0.00963
3625.90293,0.00777
3623.84275,0.00718
3621.78258,0.00830
3619.72241,0.00927
3617.66224,0.00837
3615.60207,0.00747
3613.54189,0.00798
3611.48172,0.00850
3609.42155,0.00927
3607.36138,0.01003
3605.30120,0.01021
3603.24103,0.01087
3601.18086,0.01183
3599.12069,0.01199
3597.06052,0.01187
3595.00034,0.01220
3592.94017,0.01233
3590.88000,0.01287
3588.81983,0.01456
3586.75966,0.01528
3584.69948,0.01441
3582.63931,0.01451
3580.57914,0.01563
3578.51897,0.01648
3576.45879,0.01688
3574.39862,0.01682
3572.33845,0.01644
3570.27828,0.01718
3568.21811,0.01949
3566.15793,0.02063
3564.09776,0.01979
3562.03759,0.01952
3559.97742,0.02000
3557.91725,0.02047
3555.85707,0.02121
3553.79690,0.02233
3551.73673,0.02293
3549.67656,0.02299
3547.61639,0.02365
3545.55621,0.02468
3543.49604,0.02517
3541.43587,0.02530
3539.37570,0.02583
3537.31552,0.02686
3535.25535,0.02754
3533.19518,0.02769
3531.13501,0.02805
3529.07484,0.02864
3527.01466,0.02893
3524.95449,0.02906
3522.89432,0.02934
3520.83415,0.02973
3518.77398,0.03038
3516.71380,0.03090
3514.65363,0.03127
3512.59346,0.03192
3510.53329,0.03272
3508.47312,0.03320
3506.41294,0.03379
3504.35277,0.03491
3502.29260,0.03550
3500.23243,0.03540
3498.17225,0.03564
3496.11208,0.03638
3494.05191,0.03720
3491.99174,0.03804
3489.93157,0.03893
3487.87139,0.03950
3485.81122,0.03955
3483.75105,0.03977
3481.69088,0.04032
3479.63071,0.04062
3477.57053,0.04109
3475.51036,0.04203
3473.45019,0.04281
3471.39002,0.04331
3469.32984,0.04387
3467.26967,0.04439
3465.20950,0.04482
3463.14933,0.04528
3461.08916,0.04548
3459.02898,0.04559
3456.96881,0.04598
3454.90864,0.04662
3452.84847,0.04737
3450.78830,0.04806
3448.72812,0.04887
3446.66795,0.04947
3444.60778,0.04950
3442.54761,0.04965
3440.48744,0.05003
3438.42726,0.05062
3436.36709,0.05137
3434.30692,0.05199
3432.24675,0.05239
3430.18657,0.05269
3428.12640,0.05307
3426.06623,0.05355
3424.00606,0.05418
3421.94589,0.05496
3419.88571,0.05531
3417.82554,0.05536
3415.76537,0.05569
3413.70520,0.05626
3411.64503,0.05661
3409.58485,0.05667
3407.52468,0.05686
3405.46451,0.05730
3403.40434,0.05774
3401.34416,0.05801
3399.28399,0.05830
3397.22382,0.05861
3395.16365,0.05887
3393.10348,0.05961
3391.04330,0.06041
3388.98313,0.06076
3386.92296,0.06088
3384.86279,0.06094
3382.80262,0.06092
3380.74244,0.06112
3378.68227,0.06184
3376.62210,0.06263
3374.56193,0.06285
3372.50176,0.06276
3370.44158,0.06288
3368.38141,0.06317
3366.32124,0.06344
3364.26107,0.06385
3362.20089,0.06444
3360.14072,0.06470
3358.08055,0.06474
3356.02038,0.06496
3353.96021,0.06514
3351.90003,0.06537
3349.83986,0.06591
3347.77969,0.06624
3345.71952,0.06606
3343.65935,0.06605
3341.59917,0.06657
3339.53900,0.06703
3337.47883,0.06713
3335.41866,0.06701
3333.35849,0.06670
3331.29831,0.06646
3329.23814,0.06654
3327.17797,0.06712
3325.11780,0.06802
3323.05762,0.06818
3320.99745,0.06754
3318.93728,0.06731
3316.87711,0.06787
3314.81694,0.06841
3312.75676,0.06861
3310.69659,0.06875
3308.63642,0.06887
3306.57625,0.06878
3304.51608,0.06856
3302.45590,0.06861
3300.39573,0.06914
3298.33556,0.06969
3296.27539,0.06989
3294.21521,0.06981
3292.15504,0.06956
3290.09487,0.06922
3288.03470,0.06913
3285.97453,0.06940
3283.91435,0.06959
3281.85418,0.06967
3279.79401,0.06978
3277.73384,0.06979
3275.67367,0.06982
3273.61349,0.06986
3271.55332,0.06983
3269.49315,0.06981
3267.43298,0.06973
3265.37281,0.06943
3263.31263,0.06897
3261.25246,0.06857
3259.19229,0.06833
3257.13212,0.06831
3255.07194,0.06846
3253.01177,0.06840
3250.95160,0.06801
3248.89143,0.06768
3246.83126,0.06771
3244.77108,0.06774
3242.71091,0.06748
3240.65074,0.06724
3238.59057,0.06701
3236.53040,0.06674
3234.47022,0.06655
3232.41005,0.06638
3230.34988,0.06607
3228.28971,0.06573
3226.22954,0.06548
3224.16936,0.06536
3222.10919,0.06524
3220.04902,0.06503
3217.98885,0.06484
3215.92867,0.06476
3213.86850,0.06454
3211.80833,0.06434
3209.74816,0.06451
3207.68799,0.06450
3205.62781,0.06413
3203.56764,0.06376
3201.50747,0.06332
3199.44730,0.06280
3197.38713,0.06231
3195.32695,0.06196
3193.26678,0.06163
3191.20661,0.06129
3189.14644,0.06130
3187.08626,0.06126
3185.02609,0.06062
3182.96592,0.05995
3180.90575,0.06000
3178.84558,0.06040
3176.78540,0.06024
3174.72523,0.05963
3172.66506,0.05932
3170.60489,0.05928
3168.54472,0.05902
3166.48454,0.05852
3164.42437,0.05808
3162.36420,0.05776
3160.30403,0.05737
3158.24386,0.05696
3156.18368,0.05661
3154.12351,0.05638
3152.06334,0.05622
3150.00317,0.05582
3147.94299,0.05523
3145.88282,0.05487
3143.82265,0.05467
3141.76248,0.05451
3139.70231,0.05431
3137.64213,0.05400
3135.58196,0.05369
3133.52179,0.05339
3131.46162,0.05290
3129.40145,0.05232
3127.34127,0.05198
3125.28110,0.05192
3123.22093,0.05177
3121.16076,0.05126
3119.10058,0.05064
3117.04041,0.05021
3114.98024,0.04992
3112.92007,0.04971
3110.85990,0.04956
3108.79972,0.04937
3106.73955,0.04917
3104.67938,0.04900
3102.61921,0.04882
3100.55904,0.04864
3098.49886,0.04843
3096.43869,0.04816
3094.37852,0.04783
3092.31835,0.04765
3090.25818,0.04751
3088.19800,0.04715
3086.13783,0.04667
3084.07766,0.04618
3082.01749,0.04588
3079.95731,0.04581
3077.89714,0.04562
3075.83697,0.04515
3073.77680,0.04462
3071.71663,0.04428
3069.65645,0.04407
3067.59628,0.04381
3065.53611,0.04348
3063.47594,0.04342
3061.41577,0.04360
3059.35559,0.04340
3057.29542,0.04266
3055.23525,0.04184
3053.17508,0.04144
3051.11491,0.04148
3049.05473,0.04156
3046.99456,0.04150
3044.93439,0.04130
3042.87422,0.04094
3040.81404,0.04063
3038.75387,0.04039
3036.69370,0.03986
3034.63353,0.03937
3032.57336,0.03936
3030.51318,0.03926
3028.45301,0.03865
3026.39284,0.03805
3024.33267,0.03769
3022.27250,0.03744
3020.21232,0.03726
3018.15215,0.03710
3016.09198,0.03695
3014.03181,0.03686
3011.97163,0.03683
3009.91146,0.03671
3007.85129,0.03639
3005.79112,0.03600
3003.73095,0.03577
3001.67077,0.03556
2999.61060,0.03512
2997.55043,0.03462
2995.49026,0.03451
2993.43009,0.03488
2991.36991,0.03540
2989.30974,0.03571
2987.24957,0.03579
2985.18940,0.03596
2983.12923,0.03630
2981.06905,0.03658
2979.00888,0.03683
2976.94871,0.03729
2974.88854,0.03781
2972.82836,0.03833
2970.76819,0.03912
2968.70802,0.04027
2966.64785,0.04141
2964.58768,0.04238
2962.52750,0.04328
2960.46733,0.04429
2958.40716,0.04559
2956.34699,0.04701
2954.28682,0.04828
2952.22664,0.04923
2950.16647,0.04999
2948.10630,0.05108
2946.04613,0.05247
2943.98596,0.05404
2941.92578,0.05601
2939.86561,0.05824
2937.80544,0.06060
2935.74527,0.06307
2933.68509,0.06555
2931.62492,0.06794
2929.56475,0.07020
2927.50458,0.07242
2925.44441,0.07455
2923.38423,0.07647
2921.32406,0.07832
2919.26389,0.07989
2917.20372,0.08025
2915.14355,0.07823
2913.08337,0.07421
2911.02320,0.07003
2908.96303,0.06661
2906.90286,0.06378
2904.84268,0.06153
2902.78251,0.05986
2900.72234,0.05852
2898.66217,0.05737
2896.60200,0.05626
2894.54182,0.05506
2892.48165,0.05377
2890.42148,0.05251
2888.36131,0.05133
2886.30114,0.05017
2884.24096,0.04918
2882.18079,0.04847
2880.12062,0.04800
2878.06045,0.04773
2876.00028,0.04758
2873.94010,0.04752
2871.87993,0.04769
2869.81976,0.04805
2867.75959,0.04860
2865.69941,0.04934
2863.63924,0.05037
2861.57907,0.05187
2859.51890,0.05373
2857.45873,0.05573
2855.39855,0.05801
2853.33838,0.06074
2851.27821,0.06333
2849.21804,0.06393
2847.15787,0.06089
2845.09769,0.05526
2843.03752,0.04982
2840.97735,0.04602
2838.91718,0.04343
2836.85700,0.04151
2834.79683,0.04011
2832.73666,0.03904
2830.67649,0.03812
2828.61632,0.03734
2826.55614,0.03672
2824.49597,0.03609
2822.43580,0.03514
2820.37563,0.03419
2818.31546,0.03365
2816.25528,0.03339
2814.19511,0.03319
2812.13494,0.03297
2810.07477,0.03268
2808.01460,0.03227
2805.95442,0.03178
2803.89425,0.03139
2801.83408,0.03125
2799.77391,0.03126
2797.71373,0.03110
2795.65356,0.03067
2793.59339,0.03026
2791.53322,0.03000
2789.47305,0.02964
2787.41287,0.02934
2785.35270,0.02934
2783.29253,0.02928
2781.23236,0.02902
2779.17219,0.02903
2777.11201,0.02911
2775.05184,0.02882
2772.99167,0.02846
2770.93150,0.02820
2768.87133,0.02794
2766.81115,0.02785
2764.75098,0.02801
2762.69081,0.02809
2760.63064,0.02797
2758.57046,0.02779
2756.51029,0.02754
2754.45012,0.02728
2752.38995,0.02725
2750.32978,0.02748
2748.26960,0.02762
2746.20943,0.02740
2744.14926,0.02708
2742.08909,0.02698
2740.02892,0.02696
2737.96874,0.02704
2735.90857,0.02714
2733.84840,0.02699
2731.78823,0.02671
2729.72805,0.02663
2727.66788,0.02664
2725.60771,0.02658
2723.54754,0.02645
2721.48737,0.02628
2719.42719,0.02610
2717.36702,0.02591
2715.30685,0.02565
2713.24668,0.02551
2711.18651,0.02566
2709.12633,0.02585
2707.06616,0.02579
2705.00599,0.02552
2702.94582,0.02537
2700.88565,0.02537
2698.82547,0.02521
2696.76530,0.02497
2694.70513,0.02491
2692.64496,0.02499
2690.58478,0.02495
2688.52461,0.02482
2686.46444,0.02481
2684.40427,0.02481
2682.34410,0.02460
2680.28392,0.02430
2678.22375,0.02409
2676.16358,0.02409
2674.10341,0.02415
2672.04324,0.02407
2669.98306,0.02397
2667.92289,0.02384
2665.86272,0.02361
2663.80255,0.02355
2661.74238,0.02346
2659.68220,0.02301
2657.62203,0.02261
2655.56186,0.02257
2653.50169,0.02263
2651.44151,0.02261
2649.38134,0.02269
2647.32117,0.02289
2645.26100,0.02289
2643.20083,0.02274
2641.14065,0.02253
2639.08048,0.02221
2637.02031,0.02192
2634.96014,0.02160
2632.89997,0.02117
2630.83979,0.02106
2628.77962,0.02126
2626.71945,0.02125
2624.65928,0.02116
2622.59910,0.02134
2620.53893,0.02154
2618.47876,0.02132
2616.41859,0.02069
2614.35842,0.02023
2612.29824,0.01998
2610.23807,0.01974
2608.17790,0.01965
2606.11773,0.01982
2604.05756,0.01995
2601.99738,0.01990
2599.93721,0.01987
2597.87704,0.01982
2595.81687,0.01976
2593.75670,0.01966
2591.69652,0.01913
2589.63635,0.01829
2587.57618,0.01786
2585.51601,0.01802
2583.45583,0.01847
2581.39566,0.01880
2579.33549,0.01874
2577.27532,0.01844
2575.21515,0.01807
2573.15497,0.01781
2571.09480,0.01789
2569.03463,0.01798
2566.97446,0.01778
2564.91429,0.01766
2562.85411,0.01775
2560.79394,0.01778
2558.73377,0.01758
2556.67360,0.01729
2554.61342,0.01689
2552.55325,0.01644
2550.49308,0.01631
2548.43291,0.01637
2546.37274,0.01657
2544.31256,0.01718
2542.25239,0.01759
2540.19222,0.01712
2538.13205,0.01626
2536.07188,0.01580
2534.01170,0.01573
2531.95153,0.01556
2529.89136,0.01528
2527.83119,0.01516
2525.77102,0.01521
2523.71084,0.01543
2521.65067,0.01589
2519.59050,0.01630
2517.53033,0.01646
2515.47015,0.01636
2513.40998,0.01588
2511.34981,0.01533
2509.28964,0.01506
2507.22947,0.01497
2505.16929,0.01489
2503.10912,0.01486
2501.04895,0.01490
2498.98878,0.01475
2496.92861,0.01462
2494.86843,0.01478
2492.80826,0.01487
2490.74809,0.01462
2488.68792,0.01426
2486.62775,0.01420
2484.56757,0.01444
2482.50740,0.01452
2480.44723,0.01438
2478.38706,0.01444
2476.32688,0.01478
2474.26671,0.01484
2472.20654,0.01460
2470.14637,0.01418
2468.08620,0.01352
2466.02602,0.01300
2463.96585,0.01278
2461.90568,0.01283
2459.84551,0.01316
2457.78534,0.01345
2455.72516,0.01368
2453.66499,0.01400
2451.60482,0.01406
2449.54465,0.01363
2447.48447,0.01313
2445.42430,0.01282
2443.36413,0.01272
2441.30396,0.01283
2439.24379,0.01312
2437.18361,0.01331
2435.12344,0.01318
2433.06327,0.01289
2431.00310,0.01266
2428.94293,0.01271
2426.88275,0.01295
2424.82258,0.01300
2422.76241,0.01285
2420.70224,0.01255
2418.64207,0.01204
2416.58189,0.01168
2414.52172,0.01132
2412.46155,0.01088
2410.40138,0.01115
2408.34120,0.01180
2406.28103,0.01196
2404.22086,0.01180
2402.16069,0.01169
2400.10052,0.01152
2398.04034,0.01142
2395.98017,0.01146
2393.92000,0.01133
2391.85983,0.01111
2389.79966,0.01118
2387.73948,0.01146
2385.67931,0.01173
2383.61914,0.01200
2381.55897,0.01232
2379.49880,0.01251
2377.43862,0.01231
2375.37845,0.01128
2373.31828,0.01018
2371.25811,0.00964
2369.19793,0.00891
2367.13776,0.00838
2365.07759,0.00878
2363.01742,0.00890
2360.95725,0.00949
2358.89707,0.00945
2356.83690,0.00986
2354.77673,0.00987
2352.71656,0.01021
2350.65639,0.01328
2348.59621,0.01464
2346.53604,0.01036
2344.47587,0.00870
2342.41570,0.00974
2340.35552,0.01135
2338.29535,0.01315
2336.23518,0.01342
2334.17501,0.01197
2332.11484,0.01003
2330.05466,0.00946
2327.99449,0.01006
2325.93432,0.01139
2323.87415,0.01173
2321.81398,0.01175
2319.75380,0.01174
2317.69363,0.01238
2315.63346,0.01182
2313.57329,0.01036
2311.51312,0.00975
2309.45294,0.00997
2307.39277,0.01003
2305.33260,0.00987
2303.27243,0.01015
2301.21225,0.01051
2299.15208,0.01037
2297.09191,0.00983
2295.03174,0.00954
2292.97157,0.00975
2290.91139,0.01007
2288.85122,0.01015
2286.79105,0.01006
2284.73088,0.00999
2282.67071,0.00979
2280.61053,0.00955
2278.55036,0.00960
2276.49019,0.00977
2274.43002,0.00984
2272.36984,0.00974
2270.30967,0.00944
2268.24950,0.00908
2266.18933,0.00876
2264.12916,0.00849
2262.06898,0.00856
2260.00881,0.00899
2257.94864,0.00920
2255.88847,0.00885
2253.82830,0.00836
2251.76812,0.00814
2249.70795,0.00791
2247.64778,0.00755
2245.58761,0.00686
2243.52744,0.00593
2241.46726,0.00604
2239.40709,0.00684
2237.34692,0.00682
2235.28675,0.00608
2233.22657,0.00536
2231.16640,0.00527
2229.10623,0.00622
2227.04606,0.00735
2224.98589,0.00742
2222.92571,0.00683
2220.86554,0.00642
2218.80537,0.00645
2216.74520,0.00703
2214.68503,0.00724
2212.62485,0.00684
2210.56468,0.00659
2208.50451,0.00647
2206.44434,0.00622
2204.38417,0.00558
2202.32399,0.00484
2200.26382,0.00494
2198.20365,0.00579
2196.14348,0.00659
2194.08330,0.00693
2192.02313,0.00726
2189.96296,0.00809
2187.90279,0.00811
2185.84262,0.00680
2183.78244,0.00509
2181.72227,0.00368
2179.66210,0.00341
2177.60193,0.00415
2175.54176,0.00539
2173.48158,0.00611
2171.42141,0.00597
2169.36124,0.00602
2167.30107,0.00669
2165.24089,0.00773
2163.18072,0.00719
2161.12055,0.00434
2159.06038,0.00191
2157.00021,0.00240
2154.94003,0.00486
2152.87986,0.00603
2150.81969,0.00501
2148.75952,0.00438
2146.69935,0.00513
2144.63917,0.00535
2142.57900,0.00498
2140.51883,0.00513
2138.45866,0.00525
2136.39849,0.00580
2134.33831,0.00751
2132.27814,0.00819
2130.21797,0.00717
2128.15780,0.00675
2126.09762,0.00713
2124.03745,0.00750
2121.97728,0.00743
2119.91711,0.00658
2117.85694,0.00609
2115.79676,0.00689
2113.73659,0.00790
2111.67642,0.00780
2109.61625,0.00705
2107.55608,0.00649
2105.49590,0.00612
2103.43573,0.00588
2101.37556,0.00607
2099.31539,0.00694
2097.25521,0.00769
2095.19504,0.00739
2093.13487,0.00659
2091.07470,0.00647
2089.01453,0.00671
2086.95435,0.00674
2084.89418,0.00683
2082.83401,0.00689
2080.77384,0.00696
2078.71367,0.00748
2076.65349,0.00805
2074.59332,0.00811
2072.53315,0.00733
2070.47298,0.00562
2068.41281,0.00436
2066.35263,0.00452
2064.29246,0.00495
2062.23229,0.00500
2060.17212,0.00518
2058.11194,0.00528
2056.05177,0.00539
2053.99160,0.00616
2051.93143,0.00697
2049.87126,0.00695
2047.81108,0.00602
2045.75091,0.00470
2043.69074,0.00428
2041.63057,0.00510
2039.57040,0.00599
2037.51022,0.00586
2035.45005,0.00419
2033.38988,0.00151
2031.32971,0.00000
2029.26954,0.00145
2027.20936,0.00397
2025.14919,0.00454
2023.08902,0.00417
2021.02885,0.00438
2018.96867,0.00397
2016.90850,0.00341
2014.84833,0.00398
2012.78816,0.00430
2010.72799,0.00365
2008.66781,0.00275
2006.60764,0.00213
2004.54747,0.00202
2002.48730,0.00199
2000.42713,0.00243
1998.36695,0.00377
1996.30678,0.00445
1994.24661,0.00387
1992.18644,0.00353
1990.12626,0.00391
1988.06609,0.00456
1986.00592,0.00520
1983.94575,0.00553
1981.88558,0.00481
1979.82540,0.00291
1977.76523,0.00099
1975.70506,0.00030
1973.64489,0.00146
1971.58472,0.00347
1969.52454,0.00388
1967.46437,0.00237
1965.40420,0.00089
1963.34403,0.00104
1961.28386,0.00233
1959.22368,0.00288
1957.16351,0.00233
1955.10334,0.00128
1953.04317,0.00047
1950.98299,0.00108
1948.92282,0.00227
1946.86265,0.00252
1944.80248,0.00237
1942.74231,0.00242
1940.68213,0.00214
1938.62196,0.00222
1936.56179,0.00257
1934.50162,0.00241
1932.44145,0.00210
1930.38127,0.00212
1928.32110,0.00236
1926.26093,0.00254
1924.20076,0.00266
1922.14059,0.00206
1920.08041,0.00158
1918.02024,0.00214
1915.96007,0.00230
1913.89990,0.00237
1911.83972,0.00282
1909.77955,0.00311
1907.71938,0.00297
1905.65921,0.00300
1903.59904,0.00331
1901.53886,0.00328
1899.47869,0.00281
1897.41852,0.00223
1895.35835,0.00163
1893.29818,0.00116
1891.23800,0.00151
1889.17783,0.00200
1887.11766,0.00207
1885.05749,0.00251
1882.99731,0.00275
1880.93714,0.00230
1878.87697,0.00171
1876.81680,0.00142
1874.75663,0.00123
1872.69645,0.00126
1870.63628,0.00225
1868.57611,0.00300
1866.51594,0.00196
1864.45577,0.00086
1862.39559,0.00086
1860.33542,0.00115
1858.27525,0.00112
1856.21508,0.00098
1854.15491,0.00087
1852.09473,0.00061
1850.03456,0.00026
1847.97439,0.00000
1845.91422,0.00042
1843.85404,0.00101
1841.79387,0.00074
1839.73370,0.00102
1837.67353,0.00176
1835.61336,0.00152
1833.55318,0.00083
1831.49301,0.00121
1829.43284,0.00156
1827.37267,0.00102
1825.31250,0.00097
1823.25232,0.00078
1821.19215,0.00056
1819.13198,0.00072
1817.07181,0.00074
1815.01163,0.00070
1812.95146,0.00111
1810.89129,0.00141
1808.83112,0.00090
1806.77095,0.00039
1804.71077,0.00050
1802.65060,0.00099
1800.59043,0.00104
1798.53026,0.00036
1796.47009,0.00000
1794.40991,0.00062
1792.34974,0.00126
1790.28957,0.00041
1788.22940,-0.00021
1786.16923,0.00026
1784.10905,0.00043
1782.04888,0.00038
1779.98871,0.00035
1777.92854,0.00000
1775.86836,0.00018
1773.80819,0.00148
1771.74802,0.00214
1769.68785,0.00154
1767.62768,0.00150
1765.56750,0.00190
1763.50733,0.00319
1761.44716,0.00437
1759.38699,0.00460
1757.32682,0.00540
1755.26664,0.00616
1753.20647,0.00761
1751.14630,0.01049
1749.08613,0.01296
1747.02596,0.01487
1744.96578,0.01757
1742.90561,0.02140
1740.84544,0.02593
1738.78527,0.02967
1736.72509,0.03336
1734.66492,0.03886
1732.60475,0.04211
1730.54458,0.04258
1728.48441,0.04248
1726.42423,0.04216
1724.36406,0.04190
1722.30389,0.04118
1720.24372,0.04146
1718.18355,0.04328
1716.12337,0.04337
1714.06320,0.04175
1712.00303,0.04048
1709.94286,0.04008
1707.88268,0.04021
1705.82251,0.03957
1703.76234,0.03749
1701.70217,0.03685
1699.64200,0.03670
1697.58182,0.03608
1695.52165,0.03604
1693.46148,0.03460
1691.40131,0.03394
1689.34114,0.03382
1687.28096,0.03392
1685.22079,0.03616
1683.16062,0.03654
1681.10045,0.03433
1679.04028,0.03345
1676.98010,0.03448
1674.91993,0.03554
1672.85976,0.03572
1670.79959,0.03746
1668.73941,0.03846
1666.67924,0.03772
1664.61907,0.03908
1662.55890,0.04184
1660.49873,0.04279
1658.43855,0.04305
1656.37838,0.04503
1654.31821,0.04902
1652.25804,0.04920
1650.19787,0.04712
1648.13769,0.04968
1646.07752,0.05193
1644.01735,0.05048
1641.95718,0.04954
1639.89701,0.05010
1637.83683,0.05247
1635.77666,0.05503
1633.71649,0.05402
1631.65632,0.05298
1629.59614,0.05410
1627.53597,0.05522
1625.47580,0.05616
1623.41563,0.05736
1621.35546,0.05700
1619.29528,0.05738
1617.23511,0.05948
1615.17494,0.05963
1613.11477,0.05916
1611.05460,0.06025
1608.99442,0.06154
1606.93425,0.06186
1604.87408,0.06166
1602.81391,0.06127
1600.75373,0.06028
1598.69356,0.05889
1596.63339,0.05737
1594.57322,0.05540
1592.51305,0.05302
1590.45287,0.05080
1588.39270,0.04877
1586.33253,0.04681
1584.27236,0.04476
1582.21219,0.04251
1580.15201,0.04058
1578.09184,0.04006
1576.03167,0.03878
1573.97150,0.03495
1571.91133,0.03329
1569.85115,0.03351
1567.79098,0.03171
1565.73081,0.02971
1563.67064,0.02832
1561.61046,0.02924
1559.55029,0.03246
1557.49012,0.03036
1555.42995,0.02768
1553.36978,0.02779
1551.30960,0.02862
1549.24943,0.02879
1547.18926,0.02846
1545.12909,0.02933
1543.06892,0.03121
1541.00874,0.03339
1538.94857,0.03199
1536.88840,0.02881
1534.82823,0.02910
1532.76805,0.02935
1530.70788,0.02737
1528.64771,0.02657
1526.58754,0.02606
1524.52737,0.02491
1522.46719,0.02521
1520.40702,0.02527
1518.34685,0.02512
1516.28668,0.02543
1514.22651,0.02449
1512.16633,0.02366
1510.10616,0.02436
1508.04599,0.02608
1505.98582,0.02325
1503.92565,0.01764
1501.86547,0.01554
1499.80530,0.01586
1497.74513,0.01550
1495.68496,0.01296
1493.62478,0.01046
1491.56461,0.01071
1489.50444,0.01121
1487.44427,0.00942
1485.38410,0.00754
1483.32392,0.00718
1481.26375,0.00753
1479.20358,0.00770
1477.14341,0.00903
1475.08324,0.01252
1473.02306,0.01712
1470.96289,0.01939
1468.90272,0.02055
1466.84255,0.02388
1464.78238,0.02746
1462.72220,0.02829
1460.66203,0.02924
1458.60186,0.03298
1456.54169,0.03598
1454.48151,0.03569
1452.42134,0.03597
1450.36117,0.03768
1448.30100,0.03961
1446.24083,0.04058
1444.18065,0.04095
1442.12048,0.04115
1440.06031,0.04103
1438.00014,0.04110
1435.93997,0.03954
1433.87979,0.03637
1431.81962,0.03474
1429.75945,0.03369
1427.69928,0.03199
1425.63910,0.03096
1423.57893,0.03026
1421.51876,0.03006
1419.45859,0.03110
1417.39842,0.03069
1415.33824,0.02936
1413.27807,0.02896
1411.21790,0.02877
1409.15773,0.02827
1407.09756,0.02827
1405.03738,0.02846
1402.97721,0.02778
1400.91704,0.02757
1398.85687,0.02807
1396.79670,0.02840
1394.73652,0.02874
1392.67635,0.02846
1390.61618,0.02878
1388.55601,0.03052
1386.49583,0.03174
1384.43566,0.03188
1382.37549,0.03254
1380.31532,0.03395
1378.25515,0.03553
1376.19497,0.03719
1374.13480,0.03841
1372.07463,0.03854
1370.01446,0.03872
1367.95429,0.03895
1365.89411,0.03906
1363.83394,0.03988
1361.77377,0.04033
1359.71360,0.03996
1357.65343,0.03994
1355.59325,0.04032
1353.53308,0.04068
1351.47291,0.04117
1349.41274,0.04175
1347.35256,0.04206
1345.29239,0.04223
1343.23222,0.04271
1341.17205,0.04388
1339.11188,0.04494
1337.05170,0.04509
1334.99153,0.04529
1332.93136,0.04605
1330.87119,0.04708
1328.81102,0.04826
1326.75084,0.04953
1324.69067,0.05061
1322.63050,0.05153
1320.57033,0.05264
1318.51015,0.05357
1316.44998,0.05375
1314.38981,0.05347
1312.32964,0.05291
1310.26947,0.05211
1308.20929,0.05115
1306.14912,0.04959
1304.08895,0.04740
1302.02878,0.04501
1299.96861,0.04263
1297.90843,0.04029
1295.84826,0.03808
1293.78809,0.03609
1291.72792,0.03435
1289.66775,0.03303
1287.60757,0.03212
1285.54740,0.03138
1283.48723,0.03081
1281.42706,0.03046
1279.36688,0.03037
1277.30671,0.03051
1275.24654,0.03067
1273.18637,0.03092
1271.12620,0.03139
1269.06602,0.03193
1267.00585,0.03244
1264.94568,0.03298
1262.88551,0.03358
1260.82534,0.03420
1258.76516,0.03490
1256.70499,0.03580
1254.64482,0.03662
1252.58465,0.03720
1250.52447,0.03782
1248.46430,0.03866
1246.40413,0.03963
1244.34396,0.04054
1242.28379,0.04133
1240.22361,0.04212
1238.16344,0.04293
1236.10327,0.04361
1234.04310,0.04422
1231.98293,0.04503
1229.92275,0.04619
1227.86258,0.04741
1225.80241,0.04837
1223.74224,0.04919
1221.68207,0.05013
1219.62189,0.05115
1217.56172,0.05201
1215.50155,0.05260
1213.44138,0.05313
1211.38120,0.05375
1209.32103,0.05437
1207.26086,0.05505
1205.20069,0.05586
1203.14052,0.05686
1201.08034,0.05796
1199.02017,0.05875
1196.96000,0.05912
1194.89983,0.05922
1192.83966,0.05910
1190.77948,0.05884
1188.71931,0.05831
1186.65914,0.05739
1184.59897,0.05653
1182.53880,0.05608
1180.47862,0.05573
1178.41845,0.05536
1176.35828,0.05518
1174.29811,0.05544
1172.23793,0.05605
1170.17776,0.05650
1168.11759,0.05657
1166.05742,0.05667
1163.99725,0.05672
1161.93707,0.05614
1159.87690,0.05501
1157.81673,0.05383
1155.75656,0.05271
1153.69639,0.05164
1151.63621,0.05052
1149.57604,0.04912
1147.51587,0.04766
1145.45570,0.04633
1143.39552,0.04497
1141.33535,0.04348
1139.27518,0.04200
1137.21501,0.04079
1135.15484,0.03989
1133.09466,0.03932
1131.03449,0.03912
1128.97432,0.03941
1126.91415,0.04030
1124.85398,0.04160
1122.79380,0.04324
1120.73363,0.04519
1118.67346,0.04723
1116.61329,0.04952
1114.55312,0.05232
1112.49294,0.05542
1110.43277,0.05854
1108.37260,0.06154
1106.31243,0.06432
1104.25225,0.06677
1102.19208,0.06898
1100.13191,0.07109
1098.07174,0.07290
1096.01157,0.07437
1093.95139,0.07595
1091.89122,0.07764
1089.83105,0.07935
1087.77088,0.08145
1085.71071,0.08383
1083.65053,0.08600
1081.59036,0.08828
1079.53019,0.09064
1077.47002,0.09258
1075.40985,0.09431
1073.34967,0.09600
1071.28950,0.09739
1069.22933,0.09862
1067.16916,0.09975
1065.10898,0.10055
1063.04881,0.10135
1060.98864,0.10276
1058.92847,0.10459
1056.86830,0.10625
1054.80812,0.10768
1052.74795,0.10904
1050.68778,0.11044
1048.62761,0.11206
1046.56744,0.11363
1044.50726,0.11522
1042.44709,0.11717
1040.38692,0.11936
1038.32675,0.12183
1036.26657,0.12470
1034.20640,0.12761
1032.14623,0.13006
1030.08606,0.13214
1028.02589,0.13395
1025.96571,0.13506
1023.90554,0.13521
1021.84537,0.13493
1019.78520,0.13472
1017.72503,0.13431
1015.66485,0.13359
1013.60468,0.13258
1011.54451,0.13072
1009.48434,0.12816
1007.42417,0.12569
1005.36399,0.12311
1003.30382,0.12012
1001.24365,0.11687
999.18348,0.11345
997.12330,0.11023
995.06313,0.10727
993.00296,0.10413
990.94279,0.10089
988.88262,0.09776
986.82244,0.09426
984.76227,0.09035
982.70210,0.08634
980.64193,0.08206
978.58176,0.07788
976.52158,0.07425
974.46141,0.07094
972.40124,0.06787
970.34107,0.06510
968.28089,0.06252
966.22072,0.06023
964.16055,0.05828
962.10038,0.05615
960.04021,0.05374
957.98003,0.05153
955.91986,0.04926
953.85969,0.04642
951.79952,0.04334
949.73935,0.04080
947.67917,0.03868
945.61900,0.03634
943.55883,0.03391
941.49866,0.03191
939.43849,0.03051
937.37831,0.02952
935.31814,0.02867
933.25797,0.02791
931.19780,0.02717
929.13762,0.02634
927.07745,0.02531
925.01728,0.02431
922.95711,0.02365
920.89694,0.02295
918.83676,0.02167
916.77659,0.01979
914.71642,0.01778
912.65625,0.01621
910.59608,0.01480
908.53590,0.01329
906.47573,0.01216
904.41556,0.01141
902.35539,0.01075
900.29522,0.01031
898.23504,0.01022
896.17487,0.01036
894.11470,0.01050
892.05453,0.01033
889.99435,0.01013
887.93418,0.00991
885.87401,0.00947
883.81384,0.00922
881.75367,0.00915
879.69349,0.00884
877.63332,0.00860
875.57315,0.00900
873.51298,0.00995
871.45281,0.01064
869.39263,0.01055
867.33246,0.00971
865.27229,0.00820
863.21212,0.00650
861.15194,0.00505
859.09177,0.00385
857.03160,0.00289
854.97143,0.00210
852.91126,0.00143
850.85108,0.00071
848.79091,0.00000
846.73074,-0.00022
844.67057,0.00004
842.61040,0.00006
840.55022,0.00033
838.49005,0.00139
836.42988,0.00207
834.36971,0.00228
832.30954,0.00282
830.24936,0.00309
828.18919,0.00296
826.12902,0.00309
824.06885,0.00330
822.00867,0.00321
819.94850,0.00290
817.88833,0.00314
815.82816,0.00381
813.76799,0.00362
811.70781,0.00285
809.64764,0.00262
807.58747,0.00257
805.52730,0.00209
803.46713,0.00166
801.40695,0.00160
799.34678,0.00113
797.28661,0.00036
795.22644,0.00000
793.16627,-0.00029
791.10609,0.00020
789.04592,0.00125
786.98575,0.00189
784.92558,0.00197
782.86540,0.00233
780.80523,0.00318
778.74506,0.00376
776.68489,0.00379
774.62472,0.00392
772.56454,0.00474
770.50437,0.00569
768.44420,0.00651
766.38403,0.00826
764.32386,0.01109
762.26368,0.01386
760.20351,0.01622
758.14334,0.01825
756.08317,0.01876
754.02299,0.01742
751.96282,0.01590
749.90265,0.01458
747.84248,0.01267
745.78231,0.01062
743.72213,0.00922
741.66196,0.00831
739.60179,0.00750
737.54162,0.00687
735.48145,0.00688
733.42127,0.00765
731.36110,0.00856
729.30093,0.00858
727.24076,0.00869
725.18059,0.00995
723.12041,0.01078
721.06024,0.01000
719.00007,0.00939
716.93990,0.00858
714.87972,0.00762
712.81955,0.00720
710.75938,0.00666
708.69921,0.00596
706.63904,0.00615
704.57886,0.00717
702.51869,0.00759
700.45852,0.00668
698.39835,0.00564
696.33818,0.00569
694.27800,0.00618
692.21783,0.00616
690.15766,0.00599
688.09749,0.00594
686.03731,0.00620
683.97714,0.00682
681.91697,0.00709
679.85680,0.00671
677.79663,0.00601
675.73645,0.00515
673.67628,0.00576
671.61611,0.00863
669.55594,0.00663
667.49577,0.00334
665.43559,0.01075
663.37542,0.01064
661.31525,0.00906
659.25508,0.00778
657.19491,0.00691
655.13473,0.00736
653.07456,0.00842
651.01439,0.00921
648.95422,0.00935
646.89404,0.00818
644.83387,0.00586
642.77370,0.00409
640.71353,0.00388
638.65336,0.00553
636.59318,0.00721
634.53301,0.00701
632.47284,0.00659
630.41267,0.00758
628.35250,0.00886
626.29232,0.00975
624.23215,0.01052
622.17198,0.00927
620.11181,0.00623
618.05164,0.00494
615.99146,0.00867
613.93129,0.01405
611.87112,0.01498
609.81095,0.01261
607.75077,0.01074
605.69060,0.00980
603.63043,0.00757
601.57026,0.00275
599.51009,0.00000
