3996.73391,0.00065
3994.67373,0.00013
3992.61356,0.00035
3990.55339,0.00126
3988.49322,0.00197
3986.43305,0.00172
3984.37287,0.00078
3982.31270,0.00009
3980.25253,0.00007
3978.19236,0.00028
3976.13219,0.00038
3974.07201,0.00046
3972.01184,0.00065
3969.95167,0.00094
3967.89150,0.00108
3965.83133,0.00091
3963.77115,0.00055
3961.71098,0.00017
3959.65081,0.00000
3957.59064,0.00012
3955.53046,0.00031
3953.47029,0.00046
3951.41012,0.00066
3949.34995,0.00092
3947.28978,0.00105
3945.22960,0.00100
3943.16943,0.00096
3941.10926,0.00095
3939.04909,0.00082
3936.98892,0.00074
3934.92874,0.00089
3932.86857,0.00107
3930.80840,0.00110
3928.74823,0.00115
3926.68805,0.00134
3924.62788,0.00147
3922.56771,0.00137
3920.50754,0.00122
3918.44737,0.00129
3916.38719,0.00147
3914.32702,0.00154
3912.26685,0.00160
3910.20668,0.00159
3908.14651,0.00126
3906.08633,0.00071
3904.02616,0.00047
3901.96599,0.00066
3899.90582,0.00074
3897.84565,0.00084
3895.78547,0.00123
3893.72530,0.00125
3891.66513,0.00055
3889.60496,0.00004
3887.54478,0.00014
3885.48461,0.00048
3883.42444,0.00085
3881.36427,0.00096
3879.30410,0.00064
3877.24392,0.00043
3875.18375,0.00095
3873.12358,0.00189
3871.06341,0.00223
3869.00324,0.00175
3866.94306,0.00131
3864.88289,0.00132
3862.82272,0.00141
3860.76255,0.00125
3858.70237,0.00093
3856.64220,0.00046
3854.58203,0.00000
3852.52186,0.00025
3850.46169,0.00108
3848.40151,0.00156
3846.34134,0.00157
3844.28117,0.00158
3842.22100,0.00175
3840.16083,0.00183
3838.10065,0.00183
3836.04048,0.00200
3833.98031,0.00215
3831.92014,0.00215
3829.85997,0.00211
3827.79979,0.00198
3825.73962,0.00170
3823.67945,0.00155
3821.61928,0.00163
3819.55910,0.00178
3817.49893,0.00196
3815.43876,0.00194
3813.37859,0.00151
3811.31842,0.00111
3809.25824,0.00123
3807.19807,0.00158
3805.13790,0.00154
3803.07773,0.00124
3801.01756,0.00117
3798.95738,0.00156
3796.89721,0.00197
3794.83704,0.00187
3792.77687,0.00151
3790.71670,0.00149
3788.65652,0.00190
3786.59635,0.00221
3784.53618,0.00201
3782.47601,0.00167
3780.41583,0.00160
3778.35566,0.00174
3776.29549,0.00195
3774.23532,0.00197
3772.17515,0.00164
3770.11497,0.00126
3768.05480,0.00118
3765.99463,0.00119
3763.93446,0.00118
3761.87429,0.00130
3759.81411,0.00139
3757.75394,0.00122
3755.69377,0.00099
3753.63360,0.00091
3751.57342,0.00070
3749.51325,0.00027
3747.45308,0.00000
3745.39291,-0.00000
3743.33274,0.00045
3741.27256,0.00135
3739.21239,0.00199
3737.15222,0.00184
3735.09205,0.00138
3733.03188,0.00152
3730.97170,0.00208
3728.91153,0.00241
3726.85136,0.00255
3724.79119,0.00266
3722.73102,0.00252
3720.67084,0.00237
3718.61067,0.00237
3716.55050,0.00219
3714.49033,0.00174
3712.43015,0.00137
3710.36998,0.00137
3708.30981,0.00148
3706.24964,0.00139
3704.18947,0.00110
3702.12929,0.00102
3700.06912,0.00158
3698.00895,0.00243
3695.94878,0.00282
3693.88861,0.00249
3691.82843,0.00174
3689.76826,0.00106
3687.70809,0.00119
3685.64792,0.00193
3683.58775,0.00238
3681.52757,0.00239
3679.46740,0.00242
3677.40723,0.00255
3675.34706,0.00233
3673.28688,0.00176
3671.22671,0.00122
3669.16654,0.00116
3667.10637,0.00187
3665.04620,0.00259
3662.98602,0.00280
3660.92585,0.00271
3658.86568,0.00251
3656.80551,0.00252
3654.74534,0.00318
3652.68516,0.00404
3650.62499,0.00440
3648.56482,0.00414
3646.50465,0.00392
3644.44447,0.00412
3642.38430,0.00442
3640.32413,0.00472
3638.26396,0.00518
3636.20379,0.00572
3634.14361,0.00632
3632.08344,0.00711
3630.02327,0.00787
3627.96310,0.00811
3625.90293,0.00809
3623.84275,0.00824
3621.78258,0.00819
3619.72241,0.00757
3617.66224,0.00690
3615.60207,0.00678
3613.54189,0.00730
3611.48172,0.00806
3609.42155,0.00855
3607.36138,0.00892
3605.30120,0.00940
3603.24103,0.00997
3601.18086,0.01067
3599.12069,0.01122
3597.06052,0.01154
3595.00034,0.01204
3592.94017,0.01252
3590.88000,0.01275
3588.81983,0.01303
3586.75966,0.01345
3584.69948,0.01379
3582.63931,0.01411
3580.57914,0.01448
3578.51897,0.01491
3576.45879,0.01553
3574.39862,0.01604
3572.33845,0.01609
3570.27828,0.01608
3568.21811,0.01656
3566.15793,0.01736
3564.09776,0.01791
3562.03759,0.01828
3559.97742,0.01869
3557.91725,0.01915
3555.85707,0.01960
3553.79690,0.02010
3551.73673,0.02063
3549.67656,0.02106
3547.61639,0.02160
3545.55621,0.02241
3543.49604,0.02319
3541.43587,0.02372
3539.37570,0.02399
3537.31552,0.02415
3535.25535,0.02455
3533.19518,0.02508
3531.13501,0.02543
3529.07484,0.02564
3527.01466,0.02583
3524.95449,0.02620
3522.89432,0.02702
3520.83415,0.02807
3518.77398,0.02882
3516.71380,0.02891
3514.65363,0.02861
3512.59346,0.02863
3510.53329,0.02923
3508.47312,0.03005
3506.41294,0.03080
3504.35277,0.03163
3502.29260,0.03252
3500.23243,0.03292
3498.17225,0.03286
3496.11208,0.03312
3494.05191,0.03397
3491.99174,0.03497
3489.93157,0.03573
3487.87139,0.03606
3485.81122,0.03615
3483.75105,0.03650
3481.69088,0.03722
3479.63071,0.03772
3477.57053,0.03790
3475.51036,0.03822
3473.45019,0.03879
3471.39002,0.03929
3469.32984,0.03950
3467.26967,0.03967
3465.20950,0.04018
3463.14933,0.04089
3461.08916,0.04140
3459.02898,0.04176
3456.96881,0.04209
3454.90864,0.04257
3452.84847,0.04340
3450.78830,0.04418
3448.72812,0.04438
3446.66795,0.04414
3444.60778,0.04408
3442.54761,0.04451
3440.48744,0.04517
3438.42726,0.04601
3436.36709,0.04696
3434.30692,0.04756
3432.24675,0.04786
3430.18657,0.04829
3428.12640,0.04862
3426.06623,0.04875
3424.00606,0.04892
3421.94589,0.04916
3419.88571,0.04968
3417.82554,0.05046
3415.76537,0.05105
3413.70520,0.05132
3411.64503,0.05108
3409.58485,0.05073
3407.52468,0.05104
3405.46451,0.05180
3403.40434,0.05260
3401.34416,0.05334
3399.28399,0.05381
3397.22382,0.05393
3395.16365,0.05397
3393.10348,0.05433
3391.04330,0.05478
3388.98313,0.05494
3386.92296,0.05511
3384.86279,0.05548
3382.80262,0.05569
3380.74244,0.05575
3378.68227,0.05602
3376.62210,0.05651
3374.56193,0.05677
3372.50176,0.05669
3370.44158,0.05679
3368.38141,0.05730
3366.32124,0.05779
3364.26107,0.05790
3362.20089,0.05786
3360.14072,0.05796
3358.08055,0.05808
3356.02038,0.05819
3353.96021,0.05848
3351.90003,0.05895
3349.83986,0.05943
3347.77969,0.05973
3345.71952,0.05958
3343.65935,0.05928
3341.59917,0.05953
3339.53900,0.06026
3337.47883,0.06078
3335.41866,0.06076
3333.35849,0.06051
3331.29831,0.06047
3329.23814,0.06060
3327.17797,0.06079
3325.11780,0.06122
3323.05762,0.06160
3320.99745,0.06151
3318.93728,0.06142
3316.87711,0.06179
3314.81694,0.06206
3312.75676,0.06180
3310.69659,0.06142
3308.63642,0.06148
3306.57625,0.06199
3304.51608,0.06235
3302.45590,0.06235
3300.39573,0.06247
3298.33556,0.06264
3296.27539,0.06243
3294.21521,0.06213
3292.15504,0.06222
3290.09487,0.06234
3288.03470,0.06220
3285.97453,0.06221
3283.91435,0.06247
3281.85418,0.06277
3279.79401,0.06283
3277.73384,0.06258
3275.67367,0.06235
3273.61349,0.06228
3271.55332,0.06225
3269.49315,0.06220
3267.43298,0.06215
3265.37281,0.06212
3263.31263,0.06202
3261.25246,0.06175
3259.19229,0.06131
3257.13212,0.06111
3255.07194,0.06143
3253.01177,0.06171
3250.95160,0.06164
3248.89143,0.06145
3246.83126,0.06128
3244.77108,0.06098
3242.71091,0.06054
3240.65074,0.06033
3238.59057,0.06040
3236.53040,0.06033
3234.47022,0.06002
3232.41005,0.05969
3230.34988,0.05961
3228.28971,0.05967
3226.22954,0.05941
3224.16936,0.05888
3222.10919,0.05840
3220.04902,0.05815
3217.98885,0.05844
3215.92867,0.05904
3213.86850,0.05911
3211.80833,0.05871
3209.74816,0.05853
3207.68799,0.05830
3205.62781,0.05782
3203.56764,0.05760
3201.50747,0.05751
3199.44730,0.05707
3197.38713,0.05654
3195.32695,0.05647
3193.26678,0.05653
3191.20661,0.05630
3189.14644,0.05614
3187.08626,0.05611
3185.02609,0.05578
3182.96592,0.05527
3180.90575,0.05500
3178.84558,0.05493
3176.78540,0.05486
3174.72523,0.05478
3172.66506,0.05462
3170.60489,0.05432
3168.54472,0.05396
3166.48454,0.05344
3164.42437,0.05292
3162.36420,0.05282
3160.30403,0.05305
3158.24386,0.05301
3156.18368,0.05253
3154.12351,0.05223
3152.06334,0.05211
3150.00317,0.05166
3147.94299,0.05110
3145.88282,0.05079
3143.82265,0.05051
3141.76248,0.05022
3139.70231,0.05012
3137.64213,0.04999
3135.58196,0.04973
3133.52179,0.04944
3131.46162,0.04905
3129.40145,0.04862
3127.34127,0.04841
3125.28110,0.04848
3123.22093,0.04838
3121.16076,0.04797
3119.10058,0.04749
3117.04041,0.04706
3114.98024,0.04666
3112.92007,0.04652
3110.85990,0.04662
3108.79972,0.04656
3106.73955,0.04644
3104.67938,0.04631
3102.61921,0.04595
3100.55904,0.04562
3098.49886,0.04567
3096.43869,0.04570
3094.37852,0.04543
3092.31835,0.04517
3090.25818,0.04491
3088.19800,0.04441
3086.13783,0.04391
3084.07766,0.04367
3082.01749,0.04362
3079.95731,0.04365
3077.89714,0.04351
3075.83697,0.04302
3073.77680,0.04231
3071.71663,0.04177
3069.65645,0.04167
3067.59628,0.04176
3065.53611,0.04169
3063.47594,0.04152
3061.41577,0.04142
3059.35559,0.04124
3057.29542,0.04079
3055.23525,0.04024
3053.17508,0.03991
3051.11491,0.03970
3049.05473,0.03946
3046.99456,0.03929
3044.93439,0.03924
3042.87422,0.03913
3040.81404,0.03874
3038.75387,0.03819
3036.69370,0.03764
3034.63353,0.03730
3032.57336,0.03731
3030.51318,0.03732
3028.45301,0.03702
3026.39284,0.03647
3024.33267,0.03589
3022.27250,0.03542
3020.21232,0.03517
3018.15215,0.03508
3016.09198,0.03511
3014.03181,0.03528
3011.97163,0.03547
3009.91146,0.03541
3007.85129,0.03508
3005.79112,0.03465
3003.73095,0.03430
3001.67077,0.03409
2999.61060,0.03394
2997.55043,0.03395
2995.49026,0.03422
2993.43009,0.03442
2991.36991,0.03433
2989.30974,0.03413
2987.24957,0.03415
2985.18940,0.03444
2983.12923,0.03473
2981.06905,0.03484
2979.00888,0.03491
2976.94871,0.03525
2974.88854,0.03586
2972.82836,0.03664
2970.76819,0.03755
2968.70802,0.03846
2966.64785,0.03928
2964.58768,0.03996
2962.52750,0.04073
2960.46733,0.04179
2958.40716,0.04288
2956.34699,0.04401
2954.28682,0.04538
2952.22664,0.04658
2950.16647,0.04735
2948.10630,0.04814
2946.04613,0.04938
2943.98596,0.05110
2941.92578,0.05319
2939.86561,0.05547
2937.80544,0.05782
2935.74527,0.06012
2933.68509,0.06233
2931.62492,0.06473
2929.56475,0.06726
2927.50458,0.06953
2925.44441,0.07152
2923.38423,0.07332
2921.32406,0.07482
2919.26389,0.07578
2917.20372,0.07567
2915.14355,0.07368
2913.08337,0.07002
2911.02320,0.06607
2908.96303,0.06282
2906.90286,0.06041
2904.84268,0.05849
2902.78251,0.05676
2900.72234,0.05528
2898.66217,0.05419
2896.60200,0.05329
2894.54182,0.05219
2892.48165,0.05091
2890.42148,0.04978
2888.36131,0.04875
2886.30114,0.04777
2884.24096,0.04694
2882.18079,0.04610
2880.12062,0.04522
2878.06045,0.04463
2876.00028,0.04465
2873.94010,0.04502
2871.87993,0.04523
2869.81976,0.04530
2867.75959,0.04565
2865.69941,0.04646
2863.63924,0.04758
2861.57907,0.04908
2859.51890,0.05092
2857.45873,0.05289
2855.39855,0.05501
2853.33838,0.05746
2851.27821,0.05985
2849.21804,0.06049
2847.15787,0.05778
2845.09769,0.05268
2843.03752,0.04754
2840.97735,0.04358
2838.91718,0.04089
2836.85700,0.03915
2834.79683,0.03787
2832.73666,0.03671
2830.67649,0.03573
2828.61632,0.03509
2826.55614,0.03473
2824.49597,0.03420
2822.43580,0.03335
2820.37563,0.03269
2818.31546,0.03236
2816.25528,0.03208
2814.19511,0.03185
2812.13494,0.03172
2810.07477,0.03145
2808.01460,0.03091
2805.95442,0.03046
2803.89425,0.03025
2801.83408,0.03003
2799.77391,0.02979
2797.71373,0.02968
2795.65356,0.02955
2793.59339,0.02913
2791.53322,0.02857
2789.47305,0.02825
2787.41287,0.02826
2785.35270,0.02830
2783.29253,0.02807
2781.23236,0.02779
2779.17219,0.02765
2777.11201,0.02756
2775.05184,0.02734
2772.99167,0.02707
2770.93150,0.02685
2768.87133,0.02662
2766.81115,0.02658
2764.75098,0.02679
2762.69081,0.02680
2760.63064,0.02660
2758.57046,0.02649
2756.51029,0.02639
2754.45012,0.02626
2752.38995,0.02626
2750.32978,0.02640
2748.26960,0.02656
2746.20943,0.02645
2744.14926,0.02600
2742.08909,0.02567
2740.02892,0.02557
2737.96874,0.02561
2735.90857,0.02576
2733.84840,0.02573
2731.78823,0.02551
2729.72805,0.02540
2727.66788,0.02545
2725.60771,0.02551
2723.54754,0.02542
2721.48737,0.02526
2719.42719,0.02507
2717.36702,0.02491
2715.30685,0.02479
2713.24668,0.02466
2711.18651,0.02451
2709.12633,0.02446
2707.06616,0.02449
2705.00599,0.02449
2702.94582,0.02439
2700.88565,0.02422
2698.82547,0.02407
2696.76530,0.02407
2694.70513,0.02408
2692.64496,0.02407
2690.58478,0.02403
2688.52461,0.02389
2686.46444,0.02380
2684.40427,0.02366
2682.34410,0.02341
2680.28392,0.02325
2678.22375,0.02312
2676.16358,0.02305
2674.10341,0.02308
2672.04324,0.02311
2669.98306,0.02307
2667.92289,0.02291
2665.86272,0.02253
2663.80255,0.02227
2661.74238,0.02233
2659.68220,0.02230
2657.62203,0.02204
2655.56186,0.02182
2653.50169,0.02164
2651.44151,0.02145
2649.38134,0.02158
2647.32117,0.02191
2645.26100,0.02190
2643.20083,0.02162
2641.14065,0.02144
2639.08048,0.02137
2637.02031,0.02115
2634.96014,0.02070
2632.89997,0.02032
2630.83979,0.02026
2628.77962,0.02029
2626.71945,0.02012
2624.65928,0.02009
2622.59910,0.02022
2620.53893,0.02005
2618.47876,0.01965
2616.41859,0.01944
2614.35842,0.01952
2612.29824,0.01967
2610.23807,0.01957
2608.17790,0.01931
2606.11773,0.01924
2604.05756,0.01913
2601.99738,0.01877
2599.93721,0.01863
2597.87704,0.01872
2595.81687,0.01876
2593.75670,0.01880
2591.69652,0.01861
2589.63635,0.01807
2587.57618,0.01751
2585.51601,0.01733
2583.45583,0.01770
2581.39566,0.01805
2579.33549,0.01785
2577.27532,0.01744
2575.21515,0.01726
2573.15497,0.01721
2571.09480,0.01725
2569.03463,0.01734
2566.97446,0.01723
2564.91429,0.01710
2562.85411,0.01702
2560.79394,0.01704
2558.73377,0.01726
2556.67360,0.01724
2554.61342,0.01669
2552.55325,0.01610
2550.49308,0.01600
2548.43291,0.01605
2546.37274,0.01598
2544.31256,0.01611
2542.25239,0.01608
2540.19222,0.01558
2538.13205,0.01508
2536.07188,0.01475
2534.01170,0.01449
2531.95153,0.01430
2529.89136,0.01430
2527.83119,0.01438
2525.77102,0.01424
2523.71084,0.01396
2521.65067,0.01416
2519.59050,0.01483
2517.53033,0.01533
2515.47015,0.01554
2513.40998,0.01544
2511.34981,0.01513
2509.28964,0.01487
2507.22947,0.01457
2505.16929,0.01442
2503.10912,0.01449
2501.04895,0.01435
2498.98878,0.01401
2496.92861,0.01379
2494.86843,0.01372
2492.80826,0.01363
2490.74809,0.01359
2488.68792,0.01367
2486.62775,0.01364
2484.56757,0.01346
2482.50740,0.01316
2480.44723,0.01296
2478.38706,0.01312
2476.32688,0.01329
2474.26671,0.01338
2472.20654,0.01358
2470.14637,0.01355
2468.08620,0.01313
2466.02602,0.01269
2463.96585,0.01255
2461.90568,0.01273
2459.84551,0.01302
2457.78534,0.01321
2455.72516,0.01350
2453.66499,0.01362
2451.60482,0.01302
2449.54465,0.01208
2447.48447,0.01153
2445.42430,0.01154
2443.36413,0.01208
2441.30396,0.01276
2439.24379,0.01312
2437.18361,0.01303
2435.12344,0.01269
2433.06327,0.01232
2431.00310,0.01195
2428.94293,0.01165
2426.88275,0.01161
2424.82258,0.01179
2422.76241,0.01183
2420.70224,0.01161
2418.64207,0.01129
2416.58189,0.01109
2414.52172,0.01079
2412.46155,0.01051
2410.40138,0.01074
2408.34120,0.01118
2406.28103,0.01111
2404.22086,0.01060
2402.16069,0.01035
2400.10052,0.01053
2398.04034,0.01071
2395.98017,0.01064
2393.92000,0.01026
2391.85983,0.00988
2389.79966,0.00987
2387.73948,0.01015
2385.67931,0.01039
2383.61914,0.01050
2381.55897,0.01054
2379.49880,0.01064
2377.43862,0.01077
2375.37845,0.01050
2373.31828,0.00975
2371.25811,0.00891
2369.19793,0.00820
2367.13776,0.00763
2365.07759,0.00769
2363.01742,0.00841
2360.95725,0.00950
2358.89707,0.00954
2356.83690,0.00883
2354.77673,0.00849
2352.71656,0.00897
2350.65639,0.01030
2348.59621,0.01109
2346.53604,0.01015
2344.47587,0.01013
2342.41570,0.01039
2340.35552,0.00994
2338.29535,0.00936
2336.23518,0.00912
2334.17501,0.00928
2332.11484,0.00947
2330.05466,0.00959
2327.99449,0.00953
2325.93432,0.00962
2323.87415,0.00946
2321.81398,0.00938
2319.75380,0.00935
2317.69363,0.00938
2315.63346,0.00872
2313.57329,0.00779
2311.51312,0.00745
2309.45294,0.00778
2307.39277,0.00830
2305.33260,0.00847
2303.27243,0.00844
2301.21225,0.00850
2299.15208,0.00854
2297.09191,0.00839
2295.03174,0.00832
2292.97157,0.00845
2290.91139,0.00848
2288.85122,0.00844
2286.79105,0.00858
2284.73088,0.00871
2282.67071,0.00829
2280.61053,0.00774
2278.55036,0.00804
2276.49019,0.00882
2274.43002,0.00902
2272.36984,0.00828
2270.30967,0.00719
2268.24950,0.00664
2266.18933,0.00666
2264.12916,0.00683
2262.06898,0.00713
2260.00881,0.00726
2257.94864,0.00689
2255.88847,0.00635
2253.82830,0.00603
2251.76812,0.00630
2249.70795,0.00700
2247.64778,0.00695
2245.58761,0.00582
2243.52744,0.00502
2241.46726,0.00500
2239.40709,0.00516
2237.34692,0.00561
2235.28675,0.00625
2233.22657,0.00635
2231.16640,0.00583
2229.10623,0.00536
2227.04606,0.00560
2224.98589,0.00621
2222.92571,0.00629
2220.86554,0.00613
2218.80537,0.00617
2216.74520,0.00632
2214.68503,0.00646
2212.62485,0.00594
2210.56468,0.00494
2208.50451,0.00458
2206.44434,0.00475
2204.38417,0.00419
2202.32399,0.00279
2200.26382,0.00231
2198.20365,0.00312
2196.14348,0.00367
2194.08330,0.00368
2192.02313,0.00415
2189.96296,0.00507
2187.90279,0.00536
2185.84262,0.00474
2183.78244,0.00397
2181.72227,0.00333
2179.66210,0.00333
2177.60193,0.00427
2175.54176,0.00520
2173.48158,0.00497
2171.42141,0.00407
2169.36124,0.00339
2167.30107,0.00282
2165.24089,0.00281
2163.18072,0.00283
2161.12055,0.00187
2159.06038,0.00123
2157.00021,0.00170
2154.94003,0.00246
2152.87986,0.00263
2150.81969,0.00163
2148.75952,0.00109
2146.69935,0.00203
2144.63917,0.00280
2142.57900,0.00343
2140.51883,0.00424
2138.45866,0.00440
2136.39849,0.00460
2134.33831,0.00552
2132.27814,0.00595
2130.21797,0.00544
2128.15780,0.00532
2126.09762,0.00593
2124.03745,0.00659
2121.97728,0.00650
2119.91711,0.00532
2117.85694,0.00451
2115.79676,0.00501
2113.73659,0.00600
2111.67642,0.00633
2109.61625,0.00565
2107.55608,0.00467
2105.49590,0.00406
2103.43573,0.00435
2101.37556,0.00505
2099.31539,0.00530
2097.25521,0.00566
2095.19504,0.00601
2093.13487,0.00569
2091.07470,0.00535
2089.01453,0.00539
2086.95435,0.00564
2084.89418,0.00596
2082.83401,0.00561
2080.77384,0.00466
2078.71367,0.00436
2076.65349,0.00466
2074.59332,0.00472
2072.53315,0.00434
2070.47298,0.00360
2068.41281,0.00293
2066.35263,0.00256
2064.29246,0.00225
2062.23229,0.00254
2060.17212,0.00373
2058.11194,0.00467
2056.05177,0.00538
2053.99160,0.00671
2051.93143,0.00704
2049.87126,0.00552
2047.81108,0.00429
2045.75091,0.00380
2043.69074,0.00294
2041.63057,0.00212
2039.57040,0.00157
2037.51022,0.00077
2035.45005,0.00023
2033.38988,0.00015
2031.32971,0.00021
2029.26954,0.00085
2027.20936,0.00244
2025.14919,0.00348
2023.08902,0.00296
2021.02885,0.00221
2018.96867,0.00171
2016.90850,0.00165
2014.84833,0.00237
2012.78816,0.00278
2010.72799,0.00216
2008.66781,0.00086
2006.60764,0.00000
2004.54747,0.00032
2002.48730,0.00106
2000.42713,0.00122
1998.36695,0.00146
1996.30678,0.00261
1994.24661,0.00345
1992.18644,0.00313
1990.12626,0.00256
1988.06609,0.00251
1986.00592,0.00307
1983.94575,0.00359
1981.88558,0.00364
1979.82540,0.00341
1977.76523,0.00284
1975.70506,0.00189
1973.64489,0.00118
1971.58472,0.00136
1969.52454,0.00181
1967.46437,0.00164
1965.40420,0.00110
1963.34403,0.00117
1961.28386,0.00195
1959.22368,0.00226
1957.16351,0.00182
1955.10334,0.00127
1953.04317,0.00080
1950.98299,0.00098
1948.92282,0.00201
1946.86265,0.00265
1944.80248,0.00212
1942.74231,0.00134
1940.68213,0.00143
1938.62196,0.00186
1936.56179,0.00151
1934.50162,0.00088
1932.44145,0.00117
1930.38127,0.00179
1928.32110,0.00173
1926.26093,0.00137
1924.20076,0.00105
1922.14059,0.00054
1920.08041,0.00034
1918.02024,0.00093
1915.96007,0.00161
1913.89990,0.00201
1911.83972,0.00237
1909.77955,0.00252
1907.71938,0.00234
1905.65921,0.00216
1903.59904,0.00214
1901.53886,0.00216
1899.47869,0.00193
1897.41852,0.00136
1895.35835,0.00080
1893.29818,0.00082
1891.23800,0.00135
1889.17783,0.00175
1887.11766,0.00202
1885.05749,0.00238
1882.99731,0.00234
1880.93714,0.00168
1878.87697,0.00097
1876.81680,0.00086
1874.75663,0.00124
1872.69645,0.00131
1870.63628,0.00085
1868.57611,0.00055
1866.51594,0.00074
1864.45577,0.00105
1862.39559,0.00126
1860.33542,0.00124
1858.27525,0.00096
1856.21508,0.00076
1854.15491,0.00074
1852.09473,0.00070
1850.03456,0.00045
1847.97439,0.00009
1845.91422,0.00000
1843.85404,0.00025
1841.79387,0.00065
1839.73370,0.00102
1837.67353,0.00119
1835.61336,0.00094
1833.55318,0.00046
1831.49301,0.00015
1829.43284,0.00012
1827.37267,0.00025
1825.31250,0.00031
1823.25232,0.00017
1821.19215,-0.00002
1819.13198,-0.00006
1817.07181,0.00011
1815.01163,0.00050
1812.95146,0.00087
1810.89129,0.00087
1808.83112,0.00055
1806.77095,0.00023
1804.71077,0.00005
1802.65060,-0.00000
1800.59043,0.00009
1798.53026,0.00033
1796.47009,0.00050
1794.40991,0.00034
1792.34974,-0.00002
1790.28957,-0.00022
1788.22940,-0.00009
1786.16923,0.00014
1784.10905,0.00016
1782.04888,0.00000
1779.98871,-0.00008
1777.92854,0.00022
1775.86836,0.00059
1773.80819,0.00065
1771.74802,0.00044
1769.68785,0.00051
1767.62768,0.00111
1765.56750,0.00193
1763.50733,0.00264
1761.44716,0.00330
1759.38699,0.00408
1757.32682,0.00503
1755.26664,0.00605
1753.20647,0.00701
1751.14630,0.00831
1749.08613,0.01056
1747.02596,0.01364
1744.96578,0.01696
1742.90561,0.02045
1740.84544,0.02443
1738.78527,0.02885
1736.72509,0.03301
1734.66492,0.03696
1732.60475,0.04033
1730.54458,0.04201
1728.48441,0.04247
1726.42423,0.04250
1724.36406,0.04249
1722.30389,0.04244
1720.24372,0.04224
1718.18355,0.04196
1716.12337,0.04191
1714.06320,0.04193
1712.00303,0.04170
1709.94286,0.04127
1707.88268,0.04065
1705.82251,0.03979
1703.76234,0.03889
1701.70217,0.03802
1699.64200,0.03707
1697.58182,0.03630
1695.52165,0.03568
1693.46148,0.03524
1691.40131,0.03486
1689.34114,0.03439
1687.28096,0.03393
1685.22079,0.03345
1683.16062,0.03284
1681.10045,0.03227
1679.04028,0.03187
1676.98010,0.03174
1674.91993,0.03193
1672.85976,0.03231
1670.79959,0.03263
1668.73941,0.03299
1666.67924,0.03368
1664.61907,0.03464
1662.55890,0.03589
1660.49873,0.03731
1658.43855,0.03847
1656.37838,0.03924
1654.31821,0.03990
1652.25804,0.04079
1650.19787,0.04150
1648.13769,0.04193
1646.07752,0.04243
1644.01735,0.04301
1641.95718,0.04348
1639.89701,0.04382
1637.83683,0.04406
1635.77666,0.04454
1633.71649,0.04540
1631.65632,0.04614
1629.59614,0.04685
1627.53597,0.04778
1625.47580,0.04882
1623.41563,0.04987
1621.35546,0.05092
1619.29528,0.05183
1617.23511,0.05277
1615.17494,0.05390
1613.11477,0.05499
1611.05460,0.05586
1608.99442,0.05644
1606.93425,0.05677
1604.87408,0.05686
1602.81391,0.05656
1600.75373,0.05578
1598.69356,0.05457
1596.63339,0.05291
1594.57322,0.05092
1592.51305,0.04895
1590.45287,0.04712
1588.39270,0.04525
1586.33253,0.04324
1584.27236,0.04115
1582.21219,0.03910
1580.15201,0.03721
1578.09184,0.03524
1576.03167,0.03308
1573.97150,0.03151
1571.91133,0.03044
1569.85115,0.02903
1567.79098,0.02763
1565.73081,0.02689
1563.67064,0.02658
1561.61046,0.02636
1559.55029,0.02559
1557.49012,0.02450
1555.42995,0.02454
1553.36978,0.02518
1551.30960,0.02565
1549.24943,0.02593
1547.18926,0.02609
1545.12909,0.02618
1543.06892,0.02633
1541.00874,0.02657
1538.94857,0.02679
1536.88840,0.02684
1534.82823,0.02651
1532.76805,0.02575
1530.70788,0.02499
1528.64771,0.02432
1526.58754,0.02342
1524.52737,0.02233
1522.46719,0.02131
1520.40702,0.02059
1518.34685,0.02044
1516.28668,0.02085
1514.22651,0.02139
1512.16633,0.02137
1510.10616,0.02041
1508.04599,0.01840
1505.98582,0.01613
1503.92565,0.01502
1501.86547,0.01450
1499.80530,0.01363
1497.74513,0.01207
1495.68496,0.01024
1493.62478,0.00886
1491.56461,0.00776
1489.50444,0.00650
1487.44427,0.00548
1485.38410,0.00510
1483.32392,0.00502
1481.26375,0.00502
1479.20358,0.00528
1477.14341,0.00624
1475.08324,0.00828
1473.02306,0.01151
1470.96289,0.01503
1468.90272,0.01785
1466.84255,0.02026
1464.78238,0.02247
1462.72220,0.02415
1460.66203,0.02536
1458.60186,0.02668
1456.54169,0.02856
1454.48151,0.03049
1452.42134,0.03209
1450.36117,0.03359
1448.30100,0.03507
1446.24083,0.03634
1444.18065,0.03722
1442.12048,0.03763
1440.06031,0.03746
1438.00014,0.03646
1435.93997,0.03455
1433.87979,0.03251
1431.81962,0.03079
1429.75945,0.02912
1427.69928,0.02763
1425.63910,0.02660
1423.57893,0.02602
1421.51876,0.02589
1419.45859,0.02597
1417.39842,0.02586
1415.33824,0.02560
1413.27807,0.02531
1411.21790,0.02502
1409.15773,0.02486
1407.09756,0.02483
1405.03738,0.02473
1402.97721,0.02450
1400.91704,0.02426
1398.85687,0.02419
1396.79670,0.02446
1394.73652,0.02502
1392.67635,0.02563
1390.61618,0.02618
1388.55601,0.02684
1386.49583,0.02776
1384.43566,0.02885
1382.37549,0.03005
1380.31532,0.03141
1378.25515,0.03281
1376.19497,0.03399
1374.13480,0.03494
1372.07463,0.03579
1370.01446,0.03643
1367.95429,0.03681
1365.89411,0.03708
1363.83394,0.03730
1361.77377,0.03750
1359.71360,0.03778
1357.65343,0.03817
1355.59325,0.03861
1353.53308,0.03912
1351.47291,0.03978
1349.41274,0.04051
1347.35256,0.04123
1345.29239,0.04196
1343.23222,0.04260
1341.17205,0.04310
1339.11188,0.04365
1337.05170,0.04440
1334.99153,0.04526
1332.93136,0.04619
1330.87119,0.04720
1328.81102,0.04827
1326.75084,0.04937
1324.69067,0.05052
1322.63050,0.05158
1320.57033,0.05243
1318.51015,0.05308
1316.44998,0.05344
1314.38981,0.05334
1312.32964,0.05280
1310.26947,0.05196
1308.20929,0.05077
1306.14912,0.04913
1304.08895,0.04709
1302.02878,0.04468
1299.96861,0.04204
1297.90843,0.03939
1295.84826,0.03685
1293.78809,0.03451
1291.72792,0.03249
1289.66775,0.03089
1287.60757,0.02974
1285.54740,0.02890
1283.48723,0.02824
1281.42706,0.02773
1279.36688,0.02743
1277.30671,0.02736
1275.24654,0.02750
1273.18637,0.02783
1271.12620,0.02829
1269.06602,0.02870
1267.00585,0.02906
1264.94568,0.02958
1262.88551,0.03027
1260.82534,0.03097
1258.76516,0.03166
1256.70499,0.03240
1254.64482,0.03305
1252.58465,0.03362
1250.52447,0.03431
1248.46430,0.03522
1246.40413,0.03631
1244.34396,0.03746
1242.28379,0.03844
1240.22361,0.03911
1238.16344,0.03979
1236.10327,0.04072
1234.04310,0.04179
1231.98293,0.04297
1229.92275,0.04438
1227.86258,0.04578
1225.80241,0.04696
1223.74224,0.04807
1221.68207,0.04915
1219.62189,0.05016
1217.56172,0.05111
1215.50155,0.05203
1213.44138,0.05304
1211.38120,0.05419
1209.32103,0.05533
1207.26086,0.05646
1205.20069,0.05758
1203.14052,0.05865
1201.08034,0.05961
1199.02017,0.06036
1196.96000,0.06087
1194.89983,0.06110
1192.83966,0.06101
1190.77948,0.06074
1188.71931,0.06037
1186.65914,0.05971
1184.59897,0.05889
1182.53880,0.05812
1180.47862,0.05742
1178.41845,0.05672
1176.35828,0.05604
1174.29811,0.05543
1172.23793,0.05501
1170.17776,0.05484
1168.11759,0.05460
1166.05742,0.05393
1163.99725,0.05295
1161.93707,0.05187
1159.87690,0.05063
1157.81673,0.04942
1155.75656,0.04836
1153.69639,0.04719
1151.63621,0.04584
1149.57604,0.04440
1147.51587,0.04310
1145.45570,0.04199
1143.39552,0.04073
1141.33535,0.03931
1139.27518,0.03797
1137.21501,0.03675
1135.15484,0.03555
1133.09466,0.03449
1131.03449,0.03396
1128.97432,0.03419
1126.91415,0.03504
1124.85398,0.03623
1122.79380,0.03759
1120.73363,0.03903
1118.67346,0.04063
1116.61329,0.04278
1114.55312,0.04540
1112.49294,0.04796
1110.43277,0.05050
1108.37260,0.05337
1106.31243,0.05653
1104.25225,0.05935
1102.19208,0.06160
1100.13191,0.06365
1098.07174,0.06548
1096.01157,0.06695
1093.95139,0.06838
1091.89122,0.06986
1089.83105,0.07131
1087.77088,0.07285
1085.71071,0.07470
1083.65053,0.07686
1081.59036,0.07917
1079.53019,0.08146
1077.47002,0.08330
1075.40985,0.08483
1073.34967,0.08642
1071.28950,0.08786
1069.22933,0.08900
1067.16916,0.08986
1065.10898,0.09051
1063.04881,0.09130
1060.98864,0.09230
1058.92847,0.09317
1056.86830,0.09411
1054.80812,0.09538
1052.74795,0.09681
1050.68778,0.09835
1048.62761,0.10001
1046.56744,0.10171
1044.50726,0.10369
1042.44709,0.10593
1040.38692,0.10807
1038.32675,0.11010
1036.26657,0.11205
1034.20640,0.11397
1032.14623,0.11599
1030.08606,0.11782
1028.02589,0.11899
1025.96571,0.11954
1023.90554,0.11995
1021.84537,0.12060
1019.78520,0.12127
1017.72503,0.12130
1015.66485,0.12067
1013.60468,0.11975
1011.54451,0.11864
1009.48434,0.11717
1007.42417,0.11516
1005.36399,0.11269
1003.30382,0.11010
1001.24365,0.10743
999.18348,0.10447
997.12330,0.10146
995.06313,0.09861
993.00296,0.09575
990.94279,0.09276
988.88262,0.08959
986.82244,0.08602
984.76227,0.08214
982.70210,0.07831
980.64193,0.07458
978.58176,0.07096
976.52158,0.06753
974.46141,0.06445
972.40124,0.06194
970.34107,0.05971
968.28089,0.05748
966.22072,0.05562
964.16055,0.05435
962.10038,0.05315
960.04021,0.05148
957.98003,0.04944
955.91986,0.04718
953.85969,0.04472
951.79952,0.04232
949.73935,0.04019
947.67917,0.03829
945.61900,0.03648
943.55883,0.03455
941.49866,0.03246
939.43849,0.03070
937.37831,0.02959
935.31814,0.02877
933.25797,0.02786
931.19780,0.02681
929.13762,0.02584
927.07745,0.02503
925.01728,0.02422
922.95711,0.02347
920.89694,0.02265
918.83676,0.02136
916.77659,0.01970
914.71642,0.01801
912.65625,0.01650
910.59608,0.01502
908.53590,0.01331
906.47573,0.01188
904.41556,0.01125
902.35539,0.01105
900.29522,0.01065
898.23504,0.01027
896.17487,0.01023
894.11470,0.01014
892.05453,0.01001
889.99435,0.01014
887.93418,0.01027
885.87401,0.01016
883.81384,0.00998
881.75367,0.00983
879.69349,0.00962
877.63332,0.00953
875.57315,0.00982
873.51298,0.01026
871.45281,0.01047
869.39263,0.01025
867.33246,0.00965
865.27229,0.00875
863.21212,0.00745
861.15194,0.00594
859.09177,0.00465
857.03160,0.00375
854.97143,0.00305
852.91126,0.00226
850.85108,0.00124
848.79091,0.00033
846.73074,0.00000
844.67057,0.00014
842.61040,0.00053
840.55022,0.00099
838.49005,0.00131
836.42988,0.00157
834.36971,0.00230
832.30954,0.00305
830.24936,0.00296
828.18919,0.00255
826.12902,0.00241
824.06885,0.00261
822.00867,0.00285
819.94850,0.00268
817.88833,0.00268
815.82816,0.00310
813.76799,0.00307
811.70781,0.00266
809.64764,0.00255
807.58747,0.00270
805.52730,0.00270
803.46713,0.00234
801.40695,0.00187
799.34678,0.00119
797.28661,0.00039
795.22644,0.00000
793.16627,-0.00032
791.10609,-0.00002
789.04592,0.00065
786.98575,0.00090
784.92558,0.00087
782.86540,0.00142
780.80523,0.00239
778.74506,0.00283
776.68489,0.00266
774.62472,0.00283
772.56454,0.00388
770.50437,0.00533
768.44420,0.00671
766.38403,0.00880
764.32386,0.01191
762.26368,0.01460
760.20351,0.01658
758.14334,0.01868
756.08317,0.01981
754.02299,0.01944
751.96282,0.01872
749.90265,0.01786
747.84248,0.01629
745.78231,0.01432
743.72213,0.01225
741.66196,0.01039
739.60179,0.00961
737.54162,0.00960
735.48145,0.00938
733.42127,0.00898
731.36110,0.00876
729.30093,0.00843
727.24076,0.00770
725.18059,0.00729
723.12041,0.00742
721.06024,0.00721
719.00007,0.00706
716.93990,0.00712
714.87972,0.00701
712.81955,0.00638
710.75938,0.00559
708.69921,0.00561
706.63904,0.00650
704.57886,0.00713
702.51869,0.00670
700.45852,0.00584
698.39835,0.00578
696.33818,0.00637
694.27800,0.00588
692.21783,0.00374
690.15766,0.00204
688.09749,0.00248
686.03731,0.00400
683.97714,0.00463
681.91697,0.00372
679.85680,0.00222
677.79663,0.00163
675.73645,0.00229
673.67628,0.00358
671.61611,0.00492
669.55594,0.00359
667.49577,0.00087
665.43559,0.00332
663.37542,0.00450
661.31525,0.00517
659.25508,0.00555
657.19491,0.00588
655.13473,0.00619
653.07456,0.00644
651.01439,0.00699
648.95422,0.00718
646.89404,0.00602
644.83387,0.00402
642.77370,0.00258
640.71353,0.00208
638.65336,0.00233
636.59318,0.00290
634.53301,0.00318
632.47284,0.00291
630.41267,0.00271
628.35250,0.00335
626.29232,0.00449
624.23215,0.00454
622.17198,0.00361
620.11181,0.00348
618.05164,0.00449
615.99146,0.00607
613.93129,0.00821
611.87112,0.00884
609.81095,0.00771
607.75077,0.00758
605.69060,0.00873
603.63043,0.00741
601.57026,0.00236
599.51009,0.00000
