3996.73391,-0.00009
3994.67373,0.00003
3992.61356,0.00003
3990.55339,0.00001
3988.49322,-0.00008
3986.43305,-0.00012
3984.37287,0.00016
3982.31270,0.00043
3980.25253,0.00040
3978.19236,0.00034
3976.13219,0.00037
3974.07201,0.00038
3972.01184,0.00040
3969.95167,0.00046
3967.89150,0.00055
3965.83133,0.00067
3963.77115,0.00071
3961.71098,0.00057
3959.65081,0.00040
3957.59064,0.00036
3955.53046,0.00023
3953.47029,0.00000
3951.41012,0.00004
3949.34995,0.00049
3947.28978,0.00093
3945.22960,0.00085
3943.16943,0.00045
3941.10926,0.00033
3939.04909,0.00053
3936.98892,0.00081
3934.92874,0.00105
3932.86857,0.00109
3930.80840,0.00088
3928.74823,0.00068
3926.68805,0.00068
3924.62788,0.00087
3922.56771,0.00116
3920.50754,0.00127
3918.44737,0.00103
3916.38719,0.00060
3914.32702,0.00030
3912.26685,0.00033
3910.20668,0.00062
3908.14651,0.00102
3906.08633,0.00132
3904.02616,0.00127
3901.96599,0.00115
3899.90582,0.00156
3897.84565,0.00223
3895.78547,0.00237
3893.72530,0.00218
3891.66513,0.00224
3889.60496,0.00239
3887.54478,0.00207
3885.48461,0.00137
3883.42444,0.00054
3881.36427,0.00000
3879.30410,0.00039
3877.24392,0.00150
3875.18375,0.00243
3873.12358,0.00281
3871.06341,0.00279
3869.00324,0.00259
3866.94306,0.00221
3864.88289,0.00189
3862.82272,0.00170
3860.76255,0.00129
3858.70237,0.00066
3856.64220,0.00023
3854.58203,0.00058
3852.52186,0.00182
3850.46169,0.00254
3848.40151,0.00252
3846.34134,0.00246
3844.28117,0.00220
3842.22100,0.00156
3840.16083,0.00117
3838.10065,0.00135
3836.04048,0.00159
3833.98031,0.00153
3831.92014,0.00123
3829.85997,0.00119
3827.79979,0.00174
3825.73962,0.00246
3823.67945,0.00271
3821.61928,0.00248
3819.55910,0.00226
3817.49893,0.00222
3815.43876,0.00214
3813.37859,0.00181
3811.31842,0.00133
3809.25824,0.00101
3807.19807,0.00109
3805.13790,0.00131
3803.07773,0.00118
3801.01756,0.00065
3798.95738,0.00031
3796.89721,0.00069
3794.83704,0.00141
3792.77687,0.00179
3790.71670,0.00167
3788.65652,0.00145
3786.59635,0.00148
3784.53618,0.00168
3782.47601,0.00157
3780.41583,0.00099
3778.35566,0.00038
3776.29549,0.00016
3774.23532,0.00047
3772.17515,0.00125
3770.11497,0.00193
3768.05480,0.00187
3765.99463,0.00148
3763.93446,0.00139
3761.87429,0.00146
3759.81411,0.00141
3757.75394,0.00138
3755.69377,0.00153
3753.63360,0.00166
3751.57342,0.00162
3749.51325,0.00120
3747.45308,0.00055
3745.39291,0.00007
3743.33274,0.00012
3741.27256,0.00082
3739.21239,0.00163
3737.15222,0.00202
3735.09205,0.00174
3733.03188,0.00126
3730.97170,0.00109
3728.91153,0.00099
3726.85136,0.00098
3724.79119,0.00136
3722.73102,0.00164
3720.67084,0.00130
3718.61067,0.00093
3716.55050,0.00078
3714.49033,0.00058
3712.43015,0.00018
3710.36998,0.00000
3708.30981,0.00081
3706.24964,0.00197
3704.18947,0.00260
3702.12929,0.00259
3700.06912,0.00228
3698.00895,0.00196
3695.94878,0.00166
3693.88861,0.00145
3691.82843,0.00151
3689.76826,0.00193
3687.70809,0.00222
3685.64792,0.00211
3683.58775,0.00180
3681.52757,0.00162
3679.46740,0.00144
3677.40723,0.00124
3675.34706,0.00131
3673.28688,0.00153
3671.22671,0.00161
3669.16654,0.00175
3667.10637,0.00209
3665.04620,0.00239
3662.98602,0.00244
3660.92585,0.00242
3658.86568,0.00272
3656.80551,0.00339
3654.74534,0.00391
3652.68516,0.00404
3650.62499,0.00408
3648.56482,0.00410
3646.50465,0.00427
3644.44447,0.00465
3642.38430,0.00496
3640.32413,0.00509
3638.26396,0.00504
3636.20379,0.00497
3634.14361,0.00516
3632.08344,0.00575
3630.02327,0.00669
3627.96310,0.00745
3625.90293,0.00746
3623.84275,0.00715
3621.78258,0.00698
3619.72241,0.00686
3617.66224,0.00708
3615.60207,0.00769
3613.54189,0.00793
3611.48172,0.00806
3609.42155,0.00855
3607.36138,0.00901
3605.30120,0.00925
3603.24103,0.00966
3601.18086,0.01036
3599.12069,0.01082
3597.06052,0.01099
3595.00034,0.01149
3592.94017,0.01237
3590.88000,0.01301
3588.81983,0.01345
3586.75966,0.01379
3584.69948,0.01386
3582.63931,0.01400
3580.57914,0.01442
3578.51897,0.01488
3576.45879,0.01540
3574.39862,0.01606
3572.33845,0.01649
3570.27828,0.01662
3568.21811,0.01685
3566.15793,0.01724
3564.09776,0.01765
3562.03759,0.01810
3559.97742,0.01864
3557.91725,0.01918
3555.85707,0.01955
3553.79690,0.01981
3551.73673,0.02024
3549.67656,0.02084
3547.61639,0.02140
3545.55621,0.02198
3543.49604,0.02267
3541.43587,0.02335
3539.37570,0.02386
3537.31552,0.02424
3535.25535,0.02474
3533.19518,0.02549
3531.13501,0.02602
3529.07484,0.02601
3527.01466,0.02600
3524.95449,0.02665
3522.89432,0.02782
3520.83415,0.02884
3518.77398,0.02934
3516.71380,0.02952
3514.65363,0.02972
3512.59346,0.03010
3510.53329,0.03056
3508.47312,0.03084
3506.41294,0.03111
3504.35277,0.03158
3502.29260,0.03220
3500.23243,0.03293
3498.17225,0.03366
3496.11208,0.03408
3494.05191,0.03418
3491.99174,0.03441
3489.93157,0.03498
3487.87139,0.03557
3485.81122,0.03576
3483.75105,0.03568
3481.69088,0.03591
3479.63071,0.03664
3477.57053,0.03735
3475.51036,0.03782
3473.45019,0.03835
3471.39002,0.03895
3469.32984,0.03938
3467.26967,0.03971
3465.20950,0.04016
3463.14933,0.04058
3461.08916,0.04097
3459.02898,0.04158
3456.96881,0.04211
3454.90864,0.04208
3452.84847,0.04192
3450.78830,0.04242
3448.72812,0.04342
3446.66795,0.04400
3444.60778,0.04399
3442.54761,0.04412
3440.48744,0.04468
3438.42726,0.04536
3436.36709,0.04594
3434.30692,0.04645
3432.24675,0.04686
3430.18657,0.04721
3428.12640,0.04760
3426.06623,0.04804
3424.00606,0.04847
3421.94589,0.04899
3419.88571,0.04960
3417.82554,0.04998
3415.76537,0.05011
3413.70520,0.05037
3411.64503,0.05076
3409.58485,0.05103
3407.52468,0.05117
3405.46451,0.05148
3403.40434,0.05194
3401.34416,0.05224
3399.28399,0.05237
3397.22382,0.05270
3395.16365,0.05334
3393.10348,0.05394
3391.04330,0.05410
3388.98313,0.05405
3386.92296,0.05433
3384.86279,0.05500
3382.80262,0.05549
3380.74244,0.05557
3378.68227,0.05569
3376.62210,0.05610
3374.56193,0.05646
3372.50176,0.05660
3370.44158,0.05683
3368.38141,0.05710
3366.32124,0.05726
3364.26107,0.05733
3362.20089,0.05740
3360.14072,0.05776
3358.08055,0.05836
3356.02038,0.05883
3353.96021,0.05914
3351.90003,0.05924
3349.83986,0.05925
3347.77969,0.05944
3345.71952,0.05973
3343.65935,0.05986
3341.59917,0.05984
3339.53900,0.05989
3337.47883,0.06011
3335.41866,0.06029
3333.35849,0.06009
3331.29831,0.05986
3329.23814,0.06019
3327.17797,0.06076
3325.11780,0.06091
3323.05762,0.06078
3320.99745,0.06095
3318.93728,0.06120
3316.87711,0.06118
3314.81694,0.06119
3312.75676,0.06131
3310.69659,0.06154
3308.63642,0.06209
3306.57625,0.06263
3304.51608,0.06272
3302.45590,0.06263
3300.39573,0.06270
3298.33556,0.06270
3296.27539,0.06258
3294.21521,0.06261
3292.15504,0.06264
3290.09487,0.06248
3288.03470,0.06248
3285.97453,0.06277
3283.91435,0.06289
3281.85418,0.06271
3279.79401,0.06254
3277.73384,0.06257
3275.67367,0.06266
3273.61349,0.06277
3271.55332,0.06297
3269.49315,0.06311
3267.43298,0.06288
3265.37281,0.06240
3263.31263,0.06206
3261.25246,0.06204
3259.19229,0.06207
3257.13212,0.06197
3255.07194,0.06176
3253.01177,0.06132
3250.95160,0.06086
3248.89143,0.06074
3246.83126,0.06096
3244.77108,0.06115
3242.71091,0.06100
3240.65074,0.06060
3238.59057,0.06011
3236.53040,0.05964
3234.47022,0.05955
3232.41005,0.05978
3230.34988,0.05975
3228.28971,0.05950
3226.22954,0.05930
3224.16936,0.05911
3222.10919,0.05893
3220.04902,0.05879
3217.98885,0.05866
3215.92867,0.05853
3213.86850,0.05854
3211.80833,0.05869
3209.74816,0.05853
3207.68799,0.05797
3205.62781,0.05751
3203.56764,0.05739
3201.50747,0.05736
3199.44730,0.05729
3197.38713,0.05727
3195.32695,0.05724
3193.26678,0.05702
3191.20661,0.05654
3189.14644,0.05601
3187.08626,0.05565
3185.02609,0.05549
3182.96592,0.05536
3180.90575,0.05516
3178.84558,0.05507
3176.78540,0.05518
3174.72523,0.05528
3172.66506,0.05496
3170.60489,0.05426
3168.54472,0.05362
3166.48454,0.05331
3164.42437,0.05331
3162.36420,0.05326
3160.30403,0.05306
3158.24386,0.05289
3156.18368,0.05269
3154.12351,0.05232
3152.06334,0.05182
3150.00317,0.05125
3147.94299,0.05061
3145.88282,0.04999
3143.82265,0.04972
3141.76248,0.04987
3139.70231,0.05001
3137.64213,0.04974
3135.58196,0.04927
3133.52179,0.04893
3131.46162,0.04877
3129.40145,0.04868
3127.34127,0.04840
3125.28110,0.04794
3123.22093,0.04755
3121.16076,0.04737
3119.10058,0.04735
3117.04041,0.04714
3114.98024,0.04673
3112.92007,0.04641
3110.85990,0.04615
3108.79972,0.04590
3106.73955,0.04574
3104.67938,0.04564
3102.61921,0.04542
3100.55904,0.04505
3098.49886,0.04481
3096.43869,0.04471
3094.37852,0.04462
3092.31835,0.04441
3090.25818,0.04405
3088.19800,0.04374
3086.13783,0.04366
3084.07766,0.04358
3082.01749,0.04330
3079.95731,0.04299
3077.89714,0.04264
3075.83697,0.04209
3073.77680,0.04170
3071.71663,0.04174
3069.65645,0.04189
3067.59628,0.04188
3065.53611,0.04165
3063.47594,0.04114
3061.41577,0.04056
3059.35559,0.04021
3057.29542,0.04005
3055.23525,0.04009
3053.17508,0.04023
3051.11491,0.04015
3049.05473,0.03985
3046.99456,0.03947
3044.93439,0.03896
3042.87422,0.03843
3040.81404,0.03793
3038.75387,0.03737
3036.69370,0.03707
3034.63353,0.03724
3032.57336,0.03745
3030.51318,0.03722
3028.45301,0.03662
3026.39284,0.03603
3024.33267,0.03581
3022.27250,0.03574
3020.21232,0.03544
3018.15215,0.03505
3016.09198,0.03496
3014.03181,0.03507
3011.97163,0.03508
3009.91146,0.03488
3007.85129,0.03464
3005.79112,0.03449
3003.73095,0.03437
3001.67077,0.03404
2999.61060,0.03358
2997.55043,0.03343
2995.49026,0.03355
2993.43009,0.03355
2991.36991,0.03333
2989.30974,0.03311
2987.24957,0.03317
2985.18940,0.03353
2983.12923,0.03385
2981.06905,0.03409
2979.00888,0.03450
2976.94871,0.03496
2974.88854,0.03525
2972.82836,0.03558
2970.76819,0.03639
2968.70802,0.03751
2966.64785,0.03842
2964.58768,0.03921
2962.52750,0.04017
2960.46733,0.04139
2958.40716,0.04247
2956.34699,0.04319
2954.28682,0.04385
2952.22664,0.04480
2950.16647,0.04600
2948.10630,0.04717
2946.04613,0.04829
2943.98596,0.04966
2941.92578,0.05151
2939.86561,0.05369
2937.80544,0.05590
2935.74527,0.05812
2933.68509,0.06030
2931.62492,0.06254
2929.56475,0.06476
2927.50458,0.06655
2925.44441,0.06800
2923.38423,0.06940
2921.32406,0.07088
2919.26389,0.07195
2917.20372,0.07173
2915.14355,0.06990
2913.08337,0.06689
2911.02320,0.06343
2908.96303,0.06039
2906.90286,0.05832
2904.84268,0.05673
2902.78251,0.05506
2900.72234,0.05350
2898.66217,0.05227
2896.60200,0.05137
2894.54182,0.05043
2892.48165,0.04931
2890.42148,0.04829
2888.36131,0.04733
2886.30114,0.04632
2884.24096,0.04555
2882.18079,0.04504
2880.12062,0.04449
2878.06045,0.04405
2876.00028,0.04398
2873.94010,0.04415
2871.87993,0.04422
2869.81976,0.04425
2867.75959,0.04460
2865.69941,0.04535
2863.63924,0.04629
2861.57907,0.04745
2859.51890,0.04911
2857.45873,0.05108
2855.39855,0.05307
2853.33838,0.05533
2851.27821,0.05741
2849.21804,0.05757
2847.15787,0.05478
2845.09769,0.05023
2843.03752,0.04599
2840.97735,0.04291
2838.91718,0.04066
2836.85700,0.03882
2834.79683,0.03729
2832.73666,0.03603
2830.67649,0.03494
2828.61632,0.03405
2826.55614,0.03331
2824.49597,0.03280
2822.43580,0.03259
2820.37563,0.03233
2818.31546,0.03188
2816.25528,0.03146
2814.19511,0.03114
2812.13494,0.03094
2810.07477,0.03074
2808.01460,0.03038
2805.95442,0.03011
2803.89425,0.02999
2801.83408,0.02964
2799.77391,0.02913
2797.71373,0.02877
2795.65356,0.02847
2793.59339,0.02832
2791.53322,0.02824
2789.47305,0.02804
2787.41287,0.02778
2785.35270,0.02757
2783.29253,0.02740
2781.23236,0.02723
2779.17219,0.02707
2777.11201,0.02695
2775.05184,0.02683
2772.99167,0.02673
2770.93150,0.02669
2768.87133,0.02664
2766.81115,0.02647
2764.75098,0.02628
2762.69081,0.02618
2760.63064,0.02606
2758.57046,0.02597
2756.51029,0.02592
2754.45012,0.02582
2752.38995,0.02579
2750.32978,0.02584
2748.26960,0.02576
2746.20943,0.02570
2744.14926,0.02581
2742.08909,0.02568
2740.02892,0.02537
2737.96874,0.02526
2735.90857,0.02517
2733.84840,0.02483
2731.78823,0.02450
2729.72805,0.02448
2727.66788,0.02462
2725.60771,0.02482
2723.54754,0.02498
2721.48737,0.02489
2719.42719,0.02468
2717.36702,0.02459
2715.30685,0.02451
2713.24668,0.02428
2711.18651,0.02400
2709.12633,0.02378
2707.06616,0.02352
2705.00599,0.02341
2702.94582,0.02360
2700.88565,0.02377
2698.82547,0.02366
2696.76530,0.02340
2694.70513,0.02322
2692.64496,0.02320
2690.58478,0.02329
2688.52461,0.02330
2686.46444,0.02312
2684.40427,0.02279
2682.34410,0.02255
2680.28392,0.02258
2678.22375,0.02268
2676.16358,0.02263
2674.10341,0.02255
2672.04324,0.02246
2669.98306,0.02231
2667.92289,0.02217
2665.86272,0.02203
2663.80255,0.02193
2661.74238,0.02198
2659.68220,0.02197
2657.62203,0.02178
2655.56186,0.02161
2653.50169,0.02158
2651.44151,0.02150
2649.38134,0.02125
2647.32117,0.02109
2645.26100,0.02105
2643.20083,0.02094
2641.14065,0.02094
2639.08048,0.02088
2637.02031,0.02062
2634.96014,0.02051
2632.89997,0.02042
2630.83979,0.02014
2628.77962,0.01992
2626.71945,0.01969
2624.65928,0.01936
2622.59910,0.01916
2620.53893,0.01925
2618.47876,0.01939
2616.41859,0.01924
2614.35842,0.01874
2612.29824,0.01828
2610.23807,0.01825
2608.17790,0.01867
2606.11773,0.01889
2604.05756,0.01845
2601.99738,0.01790
2599.93721,0.01774
2597.87704,0.01769
2595.81687,0.01737
2593.75670,0.01710
2591.69652,0.01732
2589.63635,0.01749
2587.57618,0.01721
2585.51601,0.01705
2583.45583,0.01731
2581.39566,0.01743
2579.33549,0.01722
2577.27532,0.01709
2575.21515,0.01691
2573.15497,0.01649
2571.09480,0.01643
2569.03463,0.01669
2566.97446,0.01657
2564.91429,0.01619
2562.85411,0.01602
2560.79394,0.01606
2558.73377,0.01609
2556.67360,0.01614
2554.61342,0.01617
2552.55325,0.01634
2550.49308,0.01648
2548.43291,0.01614
2546.37274,0.01598
2544.31256,0.01618
2542.25239,0.01595
2540.19222,0.01533
2538.13205,0.01481
2536.07188,0.01456
2534.01170,0.01449
2531.95153,0.01447
2529.89136,0.01449
2527.83119,0.01461
2525.77102,0.01478
2523.71084,0.01483
2521.65067,0.01441
2519.59050,0.01392
2517.53033,0.01438
2515.47015,0.01519
2513.40998,0.01506
2511.34981,0.01442
2509.28964,0.01412
2507.22947,0.01396
2505.16929,0.01369
2503.10912,0.01341
2501.04895,0.01328
2498.98878,0.01317
2496.92861,0.01334
2494.86843,0.01383
2492.80826,0.01390
2490.74809,0.01345
2488.68792,0.01284
2486.62775,0.01235
2484.56757,0.01236
2482.50740,0.01256
2480.44723,0.01239
2478.38706,0.01233
2476.32688,0.01263
2474.26671,0.01272
2472.20654,0.01267
2470.14637,0.01268
2468.08620,0.01266
2466.02602,0.01266
2463.96585,0.01262
2461.90568,0.01256
2459.84551,0.01250
2457.78534,0.01245
2455.72516,0.01230
2453.66499,0.01180
2451.60482,0.01128
2449.54465,0.01121
2447.48447,0.01140
2445.42430,0.01169
2443.36413,0.01191
2441.30396,0.01179
2439.24379,0.01166
2437.18361,0.01167
2435.12344,0.01146
2433.06327,0.01112
2431.00310,0.01113
2428.94293,0.01156
2426.88275,0.01200
2424.82258,0.01205
2422.76241,0.01169
2420.70224,0.01120
2418.64207,0.01084
2416.58189,0.01073
2414.52172,0.01068
2412.46155,0.01059
2410.40138,0.01065
2408.34120,0.01072
2406.28103,0.01053
2404.22086,0.01024
2402.16069,0.01017
2400.10052,0.01027
2398.04034,0.01018
2395.98017,0.01001
2393.92000,0.00990
2391.85983,0.00990
2389.79966,0.00988
2387.73948,0.00957
2385.67931,0.00909
2383.61914,0.00894
2381.55897,0.00911
2379.49880,0.00925
2377.43862,0.00932
2375.37845,0.00951
2373.31828,0.00922
2371.25811,0.00887
2369.19793,0.00936
2367.13776,0.00968
2365.07759,0.00903
2363.01742,0.00910
2360.95725,0.00826
2358.89707,0.00811
2356.83690,0.00827
2354.77673,0.00896
2352.71656,0.00930
2350.65639,0.00744
2348.59621,0.00627
2346.53604,0.00974
2344.47587,0.01033
2342.41570,0.00949
2340.35552,0.00940
2338.29535,0.00967
2336.23518,0.00958
2334.17501,0.00900
2332.11484,0.00870
2330.05466,0.00853
2327.99449,0.00906
2325.93432,0.00891
2323.87415,0.00917
2321.81398,0.00944
2319.75380,0.01042
2317.69363,0.01040
2315.63346,0.00982
2313.57329,0.00894
2311.51312,0.00808
2309.45294,0.00788
2307.39277,0.00820
2305.33260,0.00841
2303.27243,0.00826
2301.21225,0.00829
2299.15208,0.00830
2297.09191,0.00819
2295.03174,0.00802
2292.97157,0.00798
2290.91139,0.00823
2288.85122,0.00837
2286.79105,0.00813
2284.73088,0.00782
2282.67071,0.00783
2280.61053,0.00802
2278.55036,0.00802
2276.49019,0.00804
2274.43002,0.00834
2272.36984,0.00870
2270.30967,0.00880
2268.24950,0.00842
2266.18933,0.00771
2264.12916,0.00733
2262.06898,0.00752
2260.00881,0.00771
2257.94864,0.00701
2255.88847,0.00566
2253.82830,0.00488
2251.76812,0.00501
2249.70795,0.00567
2247.64778,0.00702
2245.58761,0.00811
2243.52744,0.00774
2241.46726,0.00677
2239.40709,0.00594
2237.34692,0.00495
2235.28675,0.00427
2233.22657,0.00445
2231.16640,0.00493
2229.10623,0.00553
2227.04606,0.00575
2224.98589,0.00552
2222.92571,0.00574
2220.86554,0.00592
2218.80537,0.00575
2216.74520,0.00605
2214.68503,0.00586
2212.62485,0.00429
2210.56468,0.00337
2208.50451,0.00440
2206.44434,0.00553
2204.38417,0.00561
2202.32399,0.00553
2200.26382,0.00508
2198.20365,0.00457
2196.14348,0.00507
2194.08330,0.00561
2192.02313,0.00473
2189.96296,0.00339
2187.90279,0.00365
2185.84262,0.00520
2183.78244,0.00555
2181.72227,0.00392
2179.66210,0.00354
2177.60193,0.00601
2175.54176,0.00832
2173.48158,0.00871
2171.42141,0.00784
2169.36124,0.00607
2167.30107,0.00405
2165.24089,0.00317
2163.18072,0.00355
2161.12055,0.00317
2159.06038,0.00213
2157.00021,0.00241
2154.94003,0.00313
2152.87986,0.00370
2150.81969,0.00431
2148.75952,0.00460
2146.69935,0.00450
2144.63917,0.00397
2142.57900,0.00323
2140.51883,0.00360
2138.45866,0.00492
2136.39849,0.00528
2134.33831,0.00497
2132.27814,0.00507
2130.21797,0.00535
2128.15780,0.00524
2126.09762,0.00486
2124.03745,0.00467
2121.97728,0.00497
2119.91711,0.00550
2117.85694,0.00512
2115.79676,0.00442
2113.73659,0.00481
2111.67642,0.00527
2109.61625,0.00520
2107.55608,0.00548
2105.49590,0.00560
2103.43573,0.00509
2101.37556,0.00486
2099.31539,0.00507
2097.25521,0.00490
2095.19504,0.00467
2093.13487,0.00529
2091.07470,0.00595
2089.01453,0.00544
2086.95435,0.00436
2084.89418,0.00372
2082.83401,0.00371
2080.77384,0.00421
2078.71367,0.00471
2076.65349,0.00517
2074.59332,0.00546
2072.53315,0.00502
2070.47298,0.00418
2068.41281,0.00365
2066.35263,0.00318
2064.29246,0.00252
2062.23229,0.00277
2060.17212,0.00373
2058.11194,0.00411
2056.05177,0.00421
2053.99160,0.00440
2051.93143,0.00389
2049.87126,0.00219
2047.81108,0.00066
2045.75091,0.00073
2043.69074,0.00181
2041.63057,0.00263
2039.57040,0.00223
2037.51022,0.00069
2035.45005,0.00017
2033.38988,0.00167
2031.32971,0.00322
2029.26954,0.00291
2027.20936,0.00149
2025.14919,0.00106
2023.08902,0.00232
2021.02885,0.00379
2018.96867,0.00347
2016.90850,0.00203
2014.84833,0.00177
2012.78816,0.00265
2010.72799,0.00279
2008.66781,0.00155
2006.60764,0.00083
2004.54747,0.00186
2002.48730,0.00320
2000.42713,0.00357
1998.36695,0.00308
1996.30678,0.00272
1994.24661,0.00259
1992.18644,0.00224
1990.12626,0.00215
1988.06609,0.00156
1986.00592,0.00040
1983.94575,0.00076
1981.88558,0.00185
1979.82540,0.00129
1977.76523,0.00000
1975.70506,0.00005
1973.64489,0.00133
1971.58472,0.00218
1969.52454,0.00145
1967.46437,0.00067
1965.40420,0.00144
1963.34403,0.00231
1961.28386,0.00200
1959.22368,0.00170
1957.16351,0.00217
1955.10334,0.00222
1953.04317,0.00175
1950.98299,0.00210
1948.92282,0.00299
1946.86265,0.00333
1944.80248,0.00324
1942.74231,0.00259
1940.68213,0.00195
1938.62196,0.00246
1936.56179,0.00319
1934.50162,0.00289
1932.44145,0.00213
1930.38127,0.00193
1928.32110,0.00209
1926.26093,0.00181
1924.20076,0.00114
1922.14059,0.00086
1920.08041,0.00112
1918.02024,0.00148
1915.96007,0.00193
1913.89990,0.00237
1911.83972,0.00250
1909.77955,0.00245
1907.71938,0.00235
1905.65921,0.00219
1903.59904,0.00227
1901.53886,0.00240
1899.47869,0.00209
1897.41852,0.00170
1895.35835,0.00167
1893.29818,0.00175
1891.23800,0.00186
1889.17783,0.00218
1887.11766,0.00252
1885.05749,0.00255
1882.99731,0.00230
1880.93714,0.00210
1878.87697,0.00214
1876.81680,0.00240
1874.75663,0.00267
1872.69645,0.00272
1870.63628,0.00250
1868.57611,0.00207
1866.51594,0.00165
1864.45577,0.00138
1862.39559,0.00116
1860.33542,0.00102
1858.27525,0.00102
1856.21508,0.00119
1854.15491,0.00156
1852.09473,0.00196
1850.03456,0.00213
1847.97439,0.00199
1845.91422,0.00188
1843.85404,0.00210
1841.79387,0.00241
1839.73370,0.00230
1837.67353,0.00180
1835.61336,0.00114
1833.55318,0.00044
1831.49301,0.00000
1829.43284,0.00004
1827.37267,0.00047
1825.31250,0.00077
1823.25232,0.00083
1821.19215,0.00078
1819.13198,0.00063
1817.07181,0.00053
1815.01163,0.00060
1812.95146,0.00076
1810.89129,0.00080
1808.83112,0.00062
1806.77095,0.00033
1804.71077,0.00027
1802.65060,0.00050
1800.59043,0.00073
1798.53026,0.00064
1796.47009,0.00037
1794.40991,0.00019
1792.34974,0.00006
1790.28957,-0.00011
1788.22940,-0.00026
1786.16923,-0.00026
1784.10905,-0.00012
1782.04888,0.00000
1779.98871,-0.00008
1777.92854,-0.00022
1775.86836,-0.00026
1773.80819,-0.00008
1771.74802,0.00027
1769.68785,0.00051
1767.62768,0.00057
1765.56750,0.00087
1763.50733,0.00167
1761.44716,0.00273
1759.38699,0.00357
1757.32682,0.00432
1755.26664,0.00530
1753.20647,0.00647
1751.14630,0.00808
1749.08613,0.01035
1747.02596,0.01300
1744.96578,0.01603
1742.90561,0.01967
1740.84544,0.02381
1738.78527,0.02791
1736.72509,0.03134
1734.66492,0.03446
1732.60475,0.03737
1730.54458,0.03925
1728.48441,0.04016
1726.42423,0.04048
1724.36406,0.04050
1722.30389,0.04038
1720.24372,0.04014
1718.18355,0.04001
1716.12337,0.04026
1714.06320,0.04045
1712.00303,0.04027
1709.94286,0.03990
1707.88268,0.03934
1705.82251,0.03864
1703.76234,0.03820
1701.70217,0.03772
1699.64200,0.03655
1697.58182,0.03548
1695.52165,0.03518
1693.46148,0.03501
1691.40131,0.03463
1689.34114,0.03417
1687.28096,0.03369
1685.22079,0.03302
1683.16062,0.03257
1681.10045,0.03289
1679.04028,0.03343
1676.98010,0.03393
1674.91993,0.03458
1672.85976,0.03536
1670.79959,0.03614
1668.73941,0.03683
1666.67924,0.03734
1664.61907,0.03805
1662.55890,0.03944
1660.49873,0.04123
1658.43855,0.04280
1656.37838,0.04400
1654.31821,0.04511
1652.25804,0.04629
1650.19787,0.04698
1648.13769,0.04708
1646.07752,0.04710
1644.01735,0.04744
1641.95718,0.04806
1639.89701,0.04881
1637.83683,0.04953
1635.77666,0.05026
1633.71649,0.05103
1631.65632,0.05164
1629.59614,0.05211
1627.53597,0.05271
1625.47580,0.05351
1623.41563,0.05440
1621.35546,0.05538
1619.29528,0.05638
1617.23511,0.05739
1615.17494,0.05834
1613.11477,0.05922
1611.05460,0.05999
1608.99442,0.06048
1606.93425,0.06053
1604.87408,0.06023
1602.81391,0.05968
1600.75373,0.05892
1598.69356,0.05782
1596.63339,0.05634
1594.57322,0.05471
1592.51305,0.05303
1590.45287,0.05111
1588.39270,0.04897
1586.33253,0.04679
1584.27236,0.04477
1582.21219,0.04303
1580.15201,0.04153
1578.09184,0.03992
1576.03167,0.03791
1573.97150,0.03596
1571.91133,0.03435
1569.85115,0.03264
1567.79098,0.03104
1565.73081,0.03013
1563.67064,0.02978
1561.61046,0.02959
1559.55029,0.02913
1557.49012,0.02850
1555.42995,0.02846
1553.36978,0.02880
1551.30960,0.02925
1549.24943,0.02977
1547.18926,0.03019
1545.12909,0.03054
1543.06892,0.03096
1541.00874,0.03114
1538.94857,0.03083
1536.88840,0.03057
1534.82823,0.03036
1532.76805,0.02969
1530.70788,0.02855
1528.64771,0.02736
1526.58754,0.02641
1524.52737,0.02572
1522.46719,0.02507
1520.40702,0.02467
1518.34685,0.02483
1516.28668,0.02524
1514.22651,0.02541
1512.16633,0.02509
1510.10616,0.02402
1508.04599,0.02181
1505.98582,0.01929
1503.92565,0.01805
1501.86547,0.01737
1499.80530,0.01626
1497.74513,0.01455
1495.68496,0.01273
1493.62478,0.01147
1491.56461,0.01046
1489.50444,0.00908
1487.44427,0.00761
1485.38410,0.00671
1483.32392,0.00646
1481.26375,0.00672
1479.20358,0.00748
1477.14341,0.00883
1475.08324,0.01088
1473.02306,0.01368
1470.96289,0.01678
1468.90272,0.01949
1466.84255,0.02205
1464.78238,0.02457
1462.72220,0.02628
1460.66203,0.02703
1458.60186,0.02796
1456.54169,0.03008
1454.48151,0.03248
1452.42134,0.03426
1450.36117,0.03572
1448.30100,0.03719
1446.24083,0.03848
1444.18065,0.03916
1442.12048,0.03918
1440.06031,0.03876
1438.00014,0.03772
1435.93997,0.03583
1433.87979,0.03385
1431.81962,0.03222
1429.75945,0.03063
1427.69928,0.02923
1425.63910,0.02831
1423.57893,0.02783
1421.51876,0.02757
1419.45859,0.02729
1417.39842,0.02708
1415.33824,0.02706
1413.27807,0.02692
1411.21790,0.02654
1409.15773,0.02614
1407.09756,0.02593
1405.03738,0.02579
1402.97721,0.02573
1400.91704,0.02584
1398.85687,0.02599
1396.79670,0.02615
1394.73652,0.02651
1392.67635,0.02712
1390.61618,0.02782
1388.55601,0.02859
1386.49583,0.02948
1384.43566,0.03044
1382.37549,0.03138
1380.31532,0.03238
1378.25515,0.03353
1376.19497,0.03470
1374.13480,0.03567
1372.07463,0.03639
1370.01446,0.03697
1367.95429,0.03750
1365.89411,0.03790
1363.83394,0.03800
1361.77377,0.03798
1359.71360,0.03817
1357.65343,0.03856
1355.59325,0.03905
1353.53308,0.03961
1351.47291,0.04020
1349.41274,0.04078
1347.35256,0.04134
1345.29239,0.04180
1343.23222,0.04217
1341.17205,0.04263
1339.11188,0.04341
1337.05170,0.04438
1334.99153,0.04525
1332.93136,0.04613
1330.87119,0.04721
1328.81102,0.04838
1326.75084,0.04938
1324.69067,0.05029
1322.63050,0.05125
1320.57033,0.05213
1318.51015,0.05272
1316.44998,0.05294
1314.38981,0.05273
1312.32964,0.05215
1310.26947,0.05129
1308.20929,0.05010
1306.14912,0.04847
1304.08895,0.04639
1302.02878,0.04396
1299.96861,0.04144
1297.90843,0.03905
1295.84826,0.03681
1293.78809,0.03479
1291.72792,0.03304
1289.66775,0.03150
1287.60757,0.03019
1285.54740,0.02926
1283.48723,0.02868
1281.42706,0.02822
1279.36688,0.02786
1277.30671,0.02782
1275.24654,0.02820
1273.18637,0.02878
1271.12620,0.02929
1269.06602,0.02977
1267.00585,0.03039
1264.94568,0.03102
1262.88551,0.03151
1260.82534,0.03203
1258.76516,0.03275
1256.70499,0.03358
1254.64482,0.03447
1252.58465,0.03533
1250.52447,0.03618
1248.46430,0.03705
1246.40413,0.03785
1244.34396,0.03860
1242.28379,0.03936
1240.22361,0.04017
1238.16344,0.04096
1236.10327,0.04185
1234.04310,0.04302
1231.98293,0.04432
1229.92275,0.04562
1227.86258,0.04694
1225.80241,0.04817
1223.74224,0.04922
1221.68207,0.05031
1219.62189,0.05145
1217.56172,0.05241
1215.50155,0.05337
1213.44138,0.05443
1211.38120,0.05540
1209.32103,0.05619
1207.26086,0.05698
1205.20069,0.05794
1203.14052,0.05901
1201.08034,0.06008
1199.02017,0.06078
1196.96000,0.06084
1194.89983,0.06067
1192.83966,0.06058
1190.77948,0.06039
1188.71931,0.05986
1186.65914,0.05894
1184.59897,0.05806
1182.53880,0.05736
1180.47862,0.05658
1178.41845,0.05585
1176.35828,0.05541
1174.29811,0.05538
1172.23793,0.05564
1170.17776,0.05571
1168.11759,0.05541
1166.05742,0.05502
1163.99725,0.05444
1161.93707,0.05355
1159.87690,0.05257
1157.81673,0.05147
1155.75656,0.05018
1153.69639,0.04899
1151.63621,0.04789
1149.57604,0.04658
1147.51587,0.04518
1145.45570,0.04394
1143.39552,0.04271
1141.33535,0.04116
1139.27518,0.03949
1137.21501,0.03835
1135.15484,0.03783
1133.09466,0.03760
1131.03449,0.03739
1128.97432,0.03734
1126.91415,0.03798
1124.85398,0.03921
1122.79380,0.04049
1120.73363,0.04187
1118.67346,0.04381
1116.61329,0.04621
1114.55312,0.04882
1112.49294,0.05172
1110.43277,0.05486
1108.37260,0.05804
1106.31243,0.06111
1104.25225,0.06380
1102.19208,0.06600
1100.13191,0.06792
1098.07174,0.06972
1096.01157,0.07138
1093.95139,0.07302
1091.89122,0.07464
1089.83105,0.07616
1087.77088,0.07793
1085.71071,0.08011
1083.65053,0.08245
1081.59036,0.08477
1079.53019,0.08694
1077.47002,0.08906
1075.40985,0.09110
1073.34967,0.09249
1071.28950,0.09326
1069.22933,0.09410
1067.16916,0.09520
1065.10898,0.09632
1063.04881,0.09728
1060.98864,0.09808
1058.92847,0.09909
1056.86830,0.10061
1054.80812,0.10223
1052.74795,0.10381
1050.68778,0.10576
1048.62761,0.10760
1046.56744,0.10902
1044.50726,0.11053
1042.44709,0.11214
1040.38692,0.11403
1038.32675,0.11649
1036.26657,0.11899
1034.20640,0.12125
1032.14623,0.12348
1030.08606,0.12558
1028.02589,0.12717
1025.96571,0.12809
1023.90554,0.12851
1021.84537,0.12858
1019.78520,0.12837
1017.72503,0.12775
1015.66485,0.12665
1013.60468,0.12512
1011.54451,0.12356
1009.48434,0.12218
1007.42417,0.12014
1005.36399,0.11725
1003.30382,0.11438
1001.24365,0.11169
999.18348,0.10882
997.12330,0.10580
995.06313,0.10270
993.00296,0.09932
990.94279,0.09572
988.88262,0.09210
986.82244,0.08831
984.76227,0.08437
982.70210,0.08051
980.64193,0.07695
978.58176,0.07366
976.52158,0.07041
974.46141,0.06730
972.40124,0.06459
970.34107,0.06249
968.28089,0.06076
966.22072,0.05880
964.16055,0.05670
962.10038,0.05481
960.04021,0.05296
957.98003,0.05087
955.91986,0.04839
953.85969,0.04558
951.79952,0.04309
949.73935,0.04110
947.67917,0.03920
945.61900,0.03711
943.55883,0.03489
941.49866,0.03310
939.43849,0.03206
937.37831,0.03138
935.31814,0.03063
933.25797,0.02963
931.19780,0.02837
929.13762,0.02699
927.07745,0.02594
925.01728,0.02546
922.95711,0.02486
920.89694,0.02342
918.83676,0.02147
916.77659,0.01982
914.71642,0.01832
912.65625,0.01649
910.59608,0.01479
908.53590,0.01354
906.47573,0.01270
904.41556,0.01236
902.35539,0.01241
900.29522,0.01261
898.23504,0.01271
896.17487,0.01280
894.11470,0.01278
892.05453,0.01253
889.99435,0.01218
887.93418,0.01191
885.87401,0.01172
883.81384,0.01138
881.75367,0.01095
879.69349,0.01072
877.63332,0.01079
875.57315,0.01113
873.51298,0.01158
871.45281,0.01180
869.39263,0.01158
867.33246,0.01072
865.27229,0.00941
863.21212,0.00829
861.15194,0.00741
859.09177,0.00625
857.03160,0.00491
854.97143,0.00372
852.91126,0.00284
850.85108,0.00228
848.79091,0.00152
846.73074,0.00048
844.67057,0.00000
842.61040,0.00033
840.55022,0.00115
838.49005,0.00188
836.42988,0.00270
834.36971,0.00361
832.30954,0.00410
830.24936,0.00393
828.18919,0.00330
826.12902,0.00252
824.06885,0.00173
822.00867,0.00169
819.94850,0.00238
817.88833,0.00252
815.82816,0.00209
813.76799,0.00198
811.70781,0.00233
809.64764,0.00257
807.58747,0.00243
805.52730,0.00208
803.46713,0.00163
801.40695,0.00112
799.34678,0.00045
797.28661,0.00000
795.22644,-0.00035
793.16627,-0.00097
791.10609,-0.00142
789.04592,-0.00102
786.98575,-0.00048
784.92558,-0.00021
782.86540,0.00017
780.80523,0.00061
778.74506,0.00058
776.68489,0.00028
774.62472,0.00070
772.56454,0.00197
770.50437,0.00332
768.44420,0.00454
766.38403,0.00637
764.32386,0.00900
762.26368,0.01170
760.20351,0.01357
758.14334,0.01423
756.08317,0.01421
754.02299,0.01381
751.96282,0.01273
749.90265,0.01138
747.84248,0.01016
745.78231,0.00874
743.72213,0.00737
741.66196,0.00687
739.60179,0.00705
737.54162,0.00720
735.48145,0.00708
733.42127,0.00644
731.36110,0.00553
729.30093,0.00507
727.24076,0.00508
725.18059,0.00525
723.12041,0.00533
721.06024,0.00599
719.00007,0.00573
716.93990,0.00448
714.87972,0.00310
712.81955,0.00250
710.75938,0.00222
708.69921,0.00170
706.63904,0.00143
704.57886,0.00198
702.51869,0.00262
700.45852,0.00227
698.39835,0.00144
696.33818,0.00123
694.27800,0.00123
692.21783,0.00040
690.15766,-0.00099
688.09749,-0.00170
686.03731,-0.00131
683.97714,-0.00087
681.91697,-0.00081
679.85680,-0.00030
677.79663,0.00037
675.73645,0.00038
673.67628,-0.00088
671.61611,-0.00364
669.55594,-0.00160
667.49577,0.00386
665.43559,-0.00302
663.37542,-0.00294
661.31525,-0.00237
659.25508,-0.00217
657.19491,-0.00067
655.13473,0.00168
653.07456,0.00362
651.01439,0.00377
648.95422,0.00199
646.89404,0.00000
644.83387,-0.00006
642.77370,0.00112
640.71353,0.00159
638.65336,0.00064
636.59318,0.00023
634.53301,0.00224
632.47284,0.00431
630.41267,0.00359
628.35250,0.00157
626.29232,0.00050
624.23215,0.00083
622.17198,0.00248
620.11181,0.00307
618.05164,0.00322
615.99146,0.00394
613.93129,0.00517
611.87112,0.00788
609.81095,0.00864
607.75077,0.00579
605.69060,0.00301
603.63043,0.00084
601.57026,-0.00065
599.51009,0.00000
