3996.73391,0.00056
3994.67373,0.00033
3992.61356,0.00017
3990.55339,0.00020
3988.49322,0.00037
3986.43305,0.00052
3984.37287,0.00048
3982.31270,0.00035
3980.25253,0.00038
3978.19236,0.00058
3976.13219,0.00069
3974.07201,0.00045
3972.01184,0.00011
3969.95167,0.00008
3967.89150,0.00015
3965.83133,0.00000
3963.77115,0.00005
3961.71098,0.00054
3959.65081,0.00084
3957.59064,0.00056
3955.53046,0.00030
3953.47029,0.00032
3951.41012,0.00034
3949.34995,0.00037
3947.28978,0.00048
3945.22960,0.00041
3943.16943,0.00035
3941.10926,0.00073
3939.04909,0.00129
3936.98892,0.00137
3934.92874,0.00102
3932.86857,0.00092
3930.80840,0.00100
3928.74823,0.00075
3926.68805,0.00030
3924.62788,0.00020
3922.56771,0.00062
3920.50754,0.00106
3918.44737,0.00111
3916.38719,0.00080
3914.32702,0.00043
3912.26685,0.00033
3910.20668,0.00042
3908.14651,0.00042
3906.08633,0.00030
3904.02616,0.00037
3901.96599,0.00063
3899.90582,0.00067
3897.84565,0.00051
3895.78547,0.00034
3893.72530,0.00013
3891.66513,0.00000
3889.60496,0.00032
3887.54478,0.00095
3885.48461,0.00121
3883.42444,0.00103
3881.36427,0.00097
3879.30410,0.00124
3877.24392,0.00141
3875.18375,0.00116
3873.12358,0.00081
3871.06341,0.00066
3869.00324,0.00053
3866.94306,0.00030
3864.88289,0.00038
3862.82272,0.00093
3860.76255,0.00130
3858.70237,0.00116
3856.64220,0.00088
3854.58203,0.00073
3852.52186,0.00073
3850.46169,0.00074
3848.40151,0.00068
3846.34134,0.00062
3844.28117,0.00059
3842.22100,0.00054
3840.16083,0.00042
3838.10065,0.00049
3836.04048,0.00086
3833.98031,0.00108
3831.92014,0.00102
3829.85997,0.00109
3827.79979,0.00140
3825.73962,0.00156
3823.67945,0.00139
3821.61928,0.00091
3819.55910,0.00031
3817.49893,0.00001
3815.43876,0.00017
3813.37859,0.00062
3811.31842,0.00093
3809.25824,0.00083
3807.19807,0.00063
3805.13790,0.00076
3803.07773,0.00098
3801.01756,0.00100
3798.95738,0.00083
3796.89721,0.00058
3794.83704,0.00048
3792.77687,0.00051
3790.71670,0.00051
3788.65652,0.00056
3786.59635,0.00061
3784.53618,0.00059
3782.47601,0.00066
3780.41583,0.00069
3778.35566,0.00046
3776.29549,0.00016
3774.23532,0.00007
3772.17515,0.00012
3770.11497,0.00023
3768.05480,0.00059
3765.99463,0.00106
3763.93446,0.00113
3761.87429,0.00079
3759.81411,0.00060
3757.75394,0.00083
3755.69377,0.00105
3753.63360,0.00090
3751.57342,0.00067
3749.51325,0.00093
3747.45308,0.00145
3745.39291,0.00173
3743.33274,0.00145
3741.27256,0.00101
3739.21239,0.00094
3737.15222,0.00102
3735.09205,0.00088
3733.03188,0.00041
3730.97170,0.00016
3728.91153,0.00042
3726.85136,0.00064
3724.79119,0.00054
3722.73102,0.00059
3720.67084,0.00084
3718.61067,0.00100
3716.55050,0.00099
3714.49033,0.00078
3712.43015,0.00036
3710.36998,0.00012
3708.30981,0.00044
3706.24964,0.00081
3704.18947,0.00084
3702.12929,0.00084
3700.06912,0.00099
3698.00895,0.00111
3695.94878,0.00146
3693.88861,0.00195
3691.82843,0.00195
3689.76826,0.00177
3687.70809,0.00194
3685.64792,0.00201
3683.58775,0.00167
3681.52757,0.00125
3679.46740,0.00123
3677.40723,0.00163
3675.34706,0.00187
3673.28688,0.00178
3671.22671,0.00187
3669.16654,0.00250
3667.10637,0.00339
3665.04620,0.00386
3662.98602,0.00390
3660.92585,0.00415
3658.86568,0.00478
3656.80551,0.00540
3654.74534,0.00567
3652.68516,0.00550
3650.62499,0.00542
3648.56482,0.00610
3646.50465,0.00705
3644.44447,0.00768
3642.38430,0.00823
3640.32413,0.00912
3638.26396,0.01012
3636.20379,0.01048
3634.14361,0.01028
3632.08344,0.01028
3630.02327,0.01065
3627.96310,0.01126
3625.90293,0.01231
3623.84275,0.01362
3621.78258,0.01455
3619.72241,0.01482
3617.66224,0.01509
3615.60207,0.01594
3613.54189,0.01713
3611.48172,0.01838
3609.42155,0.01932
3607.36138,0.01977
3605.30120,0.02011
3603.24103,0.02066
3601.18086,0.02130
3599.12069,0.02174
3597.06052,0.02196
3595.00034,0.02235
3592.94017,0.02328
3590.88000,0.02436
3588.81983,0.02532
3586.75966,0.02633
3584.69948,0.02722
3582.63931,0.02791
3580.57914,0.02849
3578.51897,0.02902
3576.45879,0.02978
3574.39862,0.03085
3572.33845,0.03180
3570.27828,0.03250
3568.21811,0.03324
3566.15793,0.03410
3564.09776,0.03480
3562.03759,0.03536
3559.97742,0.03609
3557.91725,0.03704
3555.85707,0.03785
3553.79690,0.03832
3551.73673,0.03888
3549.67656,0.03960
3547.61639,0.04022
3545.55621,0.04101
3543.49604,0.04201
3541.43587,0.04289
3539.37570,0.04353
3537.31552,0.04403
3535.25535,0.04451
3533.19518,0.04496
3531.13501,0.04541
3529.07484,0.04605
3527.01466,0.04700
3524.95449,0.04799
3522.89432,0.04867
3520.83415,0.04924
3518.77398,0.04994
3516.71380,0.05054
3514.65363,0.05086
3512.59346,0.05105
3510.53329,0.05134
3508.47312,0.05199
3506.41294,0.05305
3504.35277,0.05426
3502.29260,0.05515
3500.23243,0.05544
3498.17225,0.05558
3496.11208,0.05618
3494.05191,0.05735
3491.99174,0.05868
3489.93157,0.05961
3487.87139,0.06000
3485.81122,0.06013
3483.75105,0.06023
3481.69088,0.06041
3479.63071,0.06089
3477.57053,0.06176
3475.51036,0.06257
3473.45019,0.06293
3471.39002,0.06326
3469.32984,0.06411
3467.26967,0.06512
3465.20950,0.06571
3463.14933,0.06596
3461.08916,0.06637
3459.02898,0.06698
3456.96881,0.06768
3454.90864,0.06838
3452.84847,0.06881
3450.78830,0.06894
3448.72812,0.06914
3446.66795,0.06971
3444.60778,0.07032
3442.54761,0.07082
3440.48744,0.07145
3438.42726,0.07209
3436.36709,0.07256
3434.30692,0.07287
3432.24675,0.07300
3430.18657,0.07309
3428.12640,0.07344
3426.06623,0.07405
3424.00606,0.07476
3421.94589,0.07551
3419.88571,0.07594
3417.82554,0.07586
3415.76537,0.07581
3413.70520,0.07617
3411.64503,0.07655
3409.58485,0.07684
3407.52468,0.07744
3405.46451,0.07819
3403.40434,0.07849
3401.34416,0.07853
3399.28399,0.07915
3397.22382,0.07996
3395.16365,0.08039
3393.10348,0.08066
3391.04330,0.08105
3388.98313,0.08127
3386.92296,0.08143
3384.86279,0.08158
3382.80262,0.08133
3380.74244,0.08102
3378.68227,0.08111
3376.62210,0.08147
3374.56193,0.08192
3372.50176,0.08238
3370.44158,0.08279
3368.38141,0.08309
3366.32124,0.08324
3364.26107,0.08344
3362.20089,0.08391
3360.14072,0.08453
3358.08055,0.08478
3356.02038,0.08460
3353.96021,0.08439
3351.90003,0.08434
3349.83986,0.08441
3347.77969,0.08458
3345.71952,0.08489
3343.65935,0.08524
3341.59917,0.08537
3339.53900,0.08519
3337.47883,0.08479
3335.41866,0.08440
3333.35849,0.08426
3331.29831,0.08451
3329.23814,0.08510
3327.17797,0.08558
3325.11780,0.08578
3323.05762,0.08582
3320.99745,0.08565
3318.93728,0.08533
3316.87711,0.08510
3314.81694,0.08517
3312.75676,0.08538
3310.69659,0.08546
3308.63642,0.08540
3306.57625,0.08530
3304.51608,0.08518
3302.45590,0.08513
3300.39573,0.08529
3298.33556,0.08564
3296.27539,0.08592
3294.21521,0.08609
3292.15504,0.08643
3290.09487,0.08684
3288.03470,0.08703
3285.97453,0.08685
3283.91435,0.08635
3281.85418,0.08581
3279.79401,0.08558
3277.73384,0.08575
3275.67367,0.08612
3273.61349,0.08640
3271.55332,0.08658
3269.49315,0.08678
3267.43298,0.08691
3265.37281,0.08693
3263.31263,0.08685
3261.25246,0.08675
3259.19229,0.08667
3257.13212,0.08661
3255.07194,0.08670
3253.01177,0.08691
3250.95160,0.08697
3248.89143,0.08678
3246.83126,0.08671
3244.77108,0.08702
3242.71091,0.08721
3240.65074,0.08700
3238.59057,0.08673
3236.53040,0.08655
3234.47022,0.08658
3232.41005,0.08669
3230.34988,0.08646
3228.28971,0.08602
3226.22954,0.08583
3224.16936,0.08582
3222.10919,0.08579
3220.04902,0.08596
3217.98885,0.08629
3215.92867,0.08639
3213.86850,0.08604
3211.80833,0.08553
3209.74816,0.08523
3207.68799,0.08499
3205.62781,0.08468
3203.56764,0.08440
3201.50747,0.08424
3199.44730,0.08414
3197.38713,0.08400
3195.32695,0.08389
3193.26678,0.08377
3191.20661,0.08338
3189.14644,0.08278
3187.08626,0.08235
3185.02609,0.08227
3182.96592,0.08242
3180.90575,0.08239
3178.84558,0.08202
3176.78540,0.08187
3174.72523,0.08209
3172.66506,0.08189
3170.60489,0.08111
3168.54472,0.08065
3166.48454,0.08069
3164.42437,0.08056
3162.36420,0.07995
3160.30403,0.07932
3158.24386,0.07919
3156.18368,0.07928
3154.12351,0.07908
3152.06334,0.07868
3150.00317,0.07834
3147.94299,0.07805
3145.88282,0.07758
3143.82265,0.07701
3141.76248,0.07668
3139.70231,0.07662
3137.64213,0.07651
3135.58196,0.07621
3133.52179,0.07588
3131.46162,0.07564
3129.40145,0.07524
3127.34127,0.07464
3125.28110,0.07418
3123.22093,0.07389
3121.16076,0.07352
3119.10058,0.07310
3117.04041,0.07289
3114.98024,0.07290
3112.92007,0.07262
3110.85990,0.07194
3108.79972,0.07151
3106.73955,0.07152
3104.67938,0.07130
3102.61921,0.07073
3100.55904,0.07017
3098.49886,0.06968
3096.43869,0.06935
3094.37852,0.06917
3092.31835,0.06901
3090.25818,0.06881
3088.19800,0.06857
3086.13783,0.06818
3084.07766,0.06761
3082.01749,0.06703
3079.95731,0.06650
3077.89714,0.06605
3075.83697,0.06579
3073.77680,0.06569
3071.71663,0.06545
3069.65645,0.06495
3067.59628,0.06452
3065.53611,0.06444
3063.47594,0.06437
3061.41577,0.06383
3059.35559,0.06305
3057.29542,0.06243
3055.23525,0.06196
3053.17508,0.06162
3051.11491,0.06132
3049.05473,0.06085
3046.99456,0.06021
3044.93439,0.05976
3042.87422,0.05966
3040.81404,0.05961
3038.75387,0.05935
3036.69370,0.05881
3034.63353,0.05803
3032.57336,0.05737
3030.51318,0.05701
3028.45301,0.05669
3026.39284,0.05638
3024.33267,0.05612
3022.27250,0.05575
3020.21232,0.05530
3018.15215,0.05480
3016.09198,0.05439
3014.03181,0.05419
3011.97163,0.05392
3009.91146,0.05333
3007.85129,0.05272
3005.79112,0.05230
3003.73095,0.05201
3001.67077,0.05174
2999.61060,0.05134
2997.55043,0.05084
2995.49026,0.05044
2993.43009,0.05020
2991.36991,0.04991
2989.30974,0.04953
2987.24957,0.04936
2985.18940,0.04941
2983.12923,0.04928
2981.06905,0.04884
2979.00888,0.04847
2976.94871,0.04844
2974.88854,0.04857
2972.82836,0.04853
2970.76819,0.04821
2968.70802,0.04802
2966.64785,0.04825
2964.58768,0.04840
2962.52750,0.04825
2960.46733,0.04821
2958.40716,0.04833
2956.34699,0.04845
2954.28682,0.04855
2952.22664,0.04845
2950.16647,0.04814
2948.10630,0.04804
2946.04613,0.04815
2943.98596,0.04819
2941.92578,0.04820
2939.86561,0.04835
2937.80544,0.04854
2935.74527,0.04853
2933.68509,0.04823
2931.62492,0.04784
2929.56475,0.04761
2927.50458,0.04769
2925.44441,0.04781
2923.38423,0.04762
2921.32406,0.04722
2919.26389,0.04687
2917.20372,0.04650
2915.14355,0.04610
2913.08337,0.04590
2911.02320,0.04589
2908.96303,0.04591
2906.90286,0.04588
2904.84268,0.04551
2902.78251,0.04506
2900.72234,0.04489
2898.66217,0.04476
2896.60200,0.04471
2894.54182,0.04483
2892.48165,0.04482
2890.42148,0.04474
2888.36131,0.04477
2886.30114,0.04464
2884.24096,0.04416
2882.18079,0.04374
2880.12062,0.04359
2878.06045,0.04346
2876.00028,0.04326
2873.94010,0.04288
2871.87993,0.04237
2869.81976,0.04220
2867.75959,0.04223
2865.69941,0.04204
2863.63924,0.04171
2861.57907,0.04147
2859.51890,0.04124
2857.45873,0.04097
2855.39855,0.04071
2853.33838,0.04048
2851.27821,0.04022
2849.21804,0.03979
2847.15787,0.03925
2845.09769,0.03885
2843.03752,0.03858
2840.97735,0.03837
2838.91718,0.03829
2836.85700,0.03841
2834.79683,0.03843
2832.73666,0.03803
2830.67649,0.03751
2828.61632,0.03722
2826.55614,0.03698
2824.49597,0.03668
2822.43580,0.03634
2820.37563,0.03582
2818.31546,0.03537
2816.25528,0.03527
2814.19511,0.03527
2812.13494,0.03511
2810.07477,0.03478
2808.01460,0.03438
2805.95442,0.03406
2803.89425,0.03396
2801.83408,0.03400
2799.77391,0.03406
2797.71373,0.03401
2795.65356,0.03364
2793.59339,0.03314
2791.53322,0.03285
2789.47305,0.03273
2787.41287,0.03261
2785.35270,0.03244
2783.29253,0.03218
2781.23236,0.03193
2779.17219,0.03180
2777.11201,0.03172
2775.05184,0.03160
2772.99167,0.03149
2770.93150,0.03149
2768.87133,0.03143
2766.81115,0.03116
2764.75098,0.03093
2762.69081,0.03079
2760.63064,0.03067
2758.57046,0.03060
2756.51029,0.03050
2754.45012,0.03029
2752.38995,0.02993
2750.32978,0.02960
2748.26960,0.02952
2746.20943,0.02962
2744.14926,0.02963
2742.08909,0.02949
2740.02892,0.02934
2737.96874,0.02911
2735.90857,0.02881
2733.84840,0.02861
2731.78823,0.02842
2729.72805,0.02820
2727.66788,0.02805
2725.60771,0.02801
2723.54754,0.02795
2721.48737,0.02775
2719.42719,0.02752
2717.36702,0.02741
2715.30685,0.02746
2713.24668,0.02748
2711.18651,0.02716
2709.12633,0.02647
2707.06616,0.02591
2705.00599,0.02572
2702.94582,0.02558
2700.88565,0.02533
2698.82547,0.02521
2696.76530,0.02526
2694.70513,0.02517
2692.64496,0.02489
2690.58478,0.02469
2688.52461,0.02467
2686.46444,0.02468
2684.40427,0.02453
2682.34410,0.02423
2680.28392,0.02395
2678.22375,0.02370
2676.16358,0.02341
2674.10341,0.02318
2672.04324,0.02313
2669.98306,0.02301
2667.92289,0.02264
2665.86272,0.02234
2663.80255,0.02242
2661.74238,0.02243
2659.68220,0.02194
2657.62203,0.02126
2655.56186,0.02093
2653.50169,0.02099
2651.44151,0.02104
2649.38134,0.02089
2647.32117,0.02062
2645.26100,0.02037
2643.20083,0.02028
2641.14065,0.02029
2639.08048,0.02004
2637.02031,0.01965
2634.96014,0.01950
2632.89997,0.01957
2630.83979,0.01959
2628.77962,0.01943
2626.71945,0.01918
2624.65928,0.01871
2622.59910,0.01809
2620.53893,0.01784
2618.47876,0.01787
2616.41859,0.01768
2614.35842,0.01732
2612.29824,0.01732
2610.23807,0.01773
2608.17790,0.01793
2606.11773,0.01756
2604.05756,0.01697
2601.99738,0.01667
2599.93721,0.01656
2597.87704,0.01626
2595.81687,0.01597
2593.75670,0.01597
2591.69652,0.01604
2589.63635,0.01595
2587.57618,0.01566
2585.51601,0.01556
2583.45583,0.01570
2581.39566,0.01559
2579.33549,0.01528
2577.27532,0.01529
2575.21515,0.01551
2573.15497,0.01549
2571.09480,0.01528
2569.03463,0.01494
2566.97446,0.01480
2564.91429,0.01483
2562.85411,0.01463
2560.79394,0.01447
2558.73377,0.01459
2556.67360,0.01484
2554.61342,0.01500
2552.55325,0.01503
2550.49308,0.01501
2548.43291,0.01484
2546.37274,0.01448
2544.31256,0.01412
2542.25239,0.01414
2540.19222,0.01453
2538.13205,0.01470
2536.07188,0.01452
2534.01170,0.01439
2531.95153,0.01456
2529.89136,0.01498
2527.83119,0.01515
2525.77102,0.01481
2523.71084,0.01445
2521.65067,0.01445
2519.59050,0.01473
2517.53033,0.01476
2515.47015,0.01449
2513.40998,0.01469
2511.34981,0.01516
2509.28964,0.01503
2507.22947,0.01467
2505.16929,0.01440
2503.10912,0.01421
2501.04895,0.01435
2498.98878,0.01451
2496.92861,0.01465
2494.86843,0.01482
2492.80826,0.01461
2490.74809,0.01438
2488.68792,0.01448
2486.62775,0.01450
2484.56757,0.01431
2482.50740,0.01451
2480.44723,0.01497
2478.38706,0.01507
2476.32688,0.01497
2474.26671,0.01493
2472.20654,0.01479
2470.14637,0.01465
2468.08620,0.01468
2466.02602,0.01461
2463.96585,0.01451
2461.90568,0.01480
2459.84551,0.01503
2457.78534,0.01474
2455.72516,0.01440
2453.66499,0.01452
2451.60482,0.01494
2449.54465,0.01523
2447.48447,0.01521
2445.42430,0.01493
2443.36413,0.01447
2441.30396,0.01402
2439.24379,0.01417
2437.18361,0.01476
2435.12344,0.01495
2433.06327,0.01474
2431.00310,0.01468
2428.94293,0.01467
2426.88275,0.01461
2424.82258,0.01463
2422.76241,0.01448
2420.70224,0.01430
2418.64207,0.01450
2416.58189,0.01473
2414.52172,0.01475
2412.46155,0.01468
2410.40138,0.01458
2408.34120,0.01460
2406.28103,0.01473
2404.22086,0.01473
2402.16069,0.01456
2400.10052,0.01436
2398.04034,0.01417
2395.98017,0.01420
2393.92000,0.01439
2391.85983,0.01447
2389.79966,0.01438
2387.73948,0.01441
2385.67931,0.01459
2383.61914,0.01452
2381.55897,0.01400
2379.49880,0.01329
2377.43862,0.01270
2375.37845,0.01271
2373.31828,0.01330
2371.25811,0.01324
2369.19793,0.01105
2367.13776,0.00696
2365.07759,0.00371
2363.01742,0.00324
2360.95725,0.00296
2358.89707,0.00339
2356.83690,0.00502
2354.77673,0.00675
2352.71656,0.00829
2350.65639,0.00876
2348.59621,0.00920
2346.53604,0.01042
2344.47587,0.00839
2342.41570,0.00548
2340.35552,0.00426
2338.29535,0.00381
2336.23518,0.00423
2334.17501,0.00606
2332.11484,0.00814
2330.05466,0.00863
2327.99449,0.00873
2325.93432,0.00915
2323.87415,0.00959
2321.81398,0.00961
2319.75380,0.01023
2317.69363,0.01104
2315.63346,0.01172
2313.57329,0.01206
2311.51312,0.01214
2309.45294,0.01236
2307.39277,0.01287
2305.33260,0.01318
2303.27243,0.01289
2301.21225,0.01222
2299.15208,0.01150
2297.09191,0.01137
2295.03174,0.01179
2292.97157,0.01212
2290.91139,0.01226
2288.85122,0.01230
2286.79105,0.01205
2284.73088,0.01166
2282.67071,0.01151
2280.61053,0.01140
2278.55036,0.01092
2276.49019,0.01020
2274.43002,0.00959
2272.36984,0.00951
2270.30967,0.00997
2268.24950,0.01031
2266.18933,0.01011
2264.12916,0.00977
2262.06898,0.00965
2260.00881,0.00966
2257.94864,0.00972
2255.88847,0.00999
2253.82830,0.01035
2251.76812,0.01064
2249.70795,0.01096
2247.64778,0.01077
2245.58761,0.00963
2243.52744,0.00873
2241.46726,0.00884
2239.40709,0.00935
2237.34692,0.00920
2235.28675,0.00850
2233.22657,0.00859
2231.16640,0.00881
2229.10623,0.00765
2227.04606,0.00650
2224.98589,0.00713
2222.92571,0.00860
2220.86554,0.00894
2218.80537,0.00780
2216.74520,0.00699
2214.68503,0.00776
2212.62485,0.00845
2210.56468,0.00783
2208.50451,0.00753
2206.44434,0.00784
2204.38417,0.00781
2202.32399,0.00799
2200.26382,0.00778
2198.20365,0.00684
2196.14348,0.00682
2194.08330,0.00687
2192.02313,0.00605
2189.96296,0.00579
2187.90279,0.00634
2185.84262,0.00697
2183.78244,0.00611
2181.72227,0.00401
2179.66210,0.00374
2177.60193,0.00531
2175.54176,0.00651
2173.48158,0.00660
2171.42141,0.00576
2169.36124,0.00526
2167.30107,0.00630
2165.24089,0.00770
2163.18072,0.00788
2161.12055,0.00674
2159.06038,0.00475
2157.00021,0.00263
2154.94003,0.00197
2152.87986,0.00370
2150.81969,0.00638
2148.75952,0.00753
2146.69935,0.00692
2144.63917,0.00595
2142.57900,0.00492
2140.51883,0.00416
2138.45866,0.00432
2136.39849,0.00488
2134.33831,0.00549
2132.27814,0.00593
2130.21797,0.00525
2128.15780,0.00437
2126.09762,0.00475
2124.03745,0.00554
2121.97728,0.00568
2119.91711,0.00524
2117.85694,0.00438
2115.79676,0.00394
2113.73659,0.00454
2111.67642,0.00516
2109.61625,0.00538
2107.55608,0.00565
2105.49590,0.00565
2103.43573,0.00559
2101.37556,0.00546
2099.31539,0.00488
2097.25521,0.00457
2095.19504,0.00478
2093.13487,0.00503
2091.07470,0.00475
2089.01453,0.00432
2086.95435,0.00427
2084.89418,0.00423
2082.83401,0.00401
2080.77384,0.00396
2078.71367,0.00424
2076.65349,0.00441
2074.59332,0.00409
2072.53315,0.00389
2070.47298,0.00412
2068.41281,0.00395
2066.35263,0.00343
2064.29246,0.00360
2062.23229,0.00420
2060.17212,0.00431
2058.11194,0.00386
2056.05177,0.00357
2053.99160,0.00402
2051.93143,0.00430
2049.87126,0.00363
2047.81108,0.00336
2045.75091,0.00402
2043.69074,0.00416
2041.63057,0.00359
2039.57040,0.00344
2037.51022,0.00401
2035.45005,0.00479
2033.38988,0.00447
2031.32971,0.00323
2029.26954,0.00310
2027.20936,0.00298
2025.14919,0.00134
2023.08902,0.00007
2021.02885,0.00018
2018.96867,0.00069
2016.90850,0.00140
2014.84833,0.00201
2012.78816,0.00166
2010.72799,0.00059
2008.66781,0.00053
2006.60764,0.00157
2004.54747,0.00168
2002.48730,0.00124
2000.42713,0.00146
1998.36695,0.00155
1996.30678,0.00139
1994.24661,0.00247
1992.18644,0.00445
1990.12626,0.00505
1988.06609,0.00367
1986.00592,0.00225
1983.94575,0.00244
1981.88558,0.00309
1979.82540,0.00228
1977.76523,0.00141
1975.70506,0.00247
1973.64489,0.00375
1971.58472,0.00393
1969.52454,0.00362
1967.46437,0.00263
1965.40420,0.00146
1963.34403,0.00135
1961.28386,0.00152
1959.22368,0.00078
1957.16351,0.00008
1955.10334,0.00053
1953.04317,0.00152
1950.98299,0.00218
1948.92282,0.00230
1946.86265,0.00187
1944.80248,0.00139
1942.74231,0.00128
1940.68213,0.00142
1938.62196,0.00189
1936.56179,0.00252
1934.50162,0.00248
1932.44145,0.00161
1930.38127,0.00113
1928.32110,0.00137
1926.26093,0.00146
1924.20076,0.00155
1922.14059,0.00214
1920.08041,0.00252
1918.02024,0.00233
1915.96007,0.00230
1913.89990,0.00230
1911.83972,0.00192
1909.77955,0.00155
1907.71938,0.00146
1905.65921,0.00143
1903.59904,0.00137
1901.53886,0.00117
1899.47869,0.00077
1897.41852,0.00043
1895.35835,0.00063
1893.29818,0.00129
1891.23800,0.00171
1889.17783,0.00165
1887.11766,0.00140
1885.05749,0.00114
1882.99731,0.00107
1880.93714,0.00128
1878.87697,0.00148
1876.81680,0.00140
1874.75663,0.00136
1872.69645,0.00131
1870.63628,0.00081
1868.57611,0.00029
1866.51594,0.00053
1864.45577,0.00111
1862.39559,0.00129
1860.33542,0.00113
1858.27525,0.00098
1856.21508,0.00101
1854.15491,0.00117
1852.09473,0.00124
1850.03456,0.00098
1847.97439,0.00041
1845.91422,0.00000
1843.85404,0.00024
1841.79387,0.00090
1839.73370,0.00143
1837.67353,0.00163
1835.61336,0.00150
1833.55318,0.00109
1831.49301,0.00071
1829.43284,0.00073
1827.37267,0.00108
1825.31250,0.00128
1823.25232,0.00142
1821.19215,0.00168
1819.13198,0.00183
1817.07181,0.00172
1815.01163,0.00165
1812.95146,0.00171
1810.89129,0.00162
1808.83112,0.00144
1806.77095,0.00149
1804.71077,0.00167
1802.65060,0.00168
1800.59043,0.00150
1798.53026,0.00138
1796.47009,0.00124
1794.40991,0.00099
1792.34974,0.00092
1790.28957,0.00127
1788.22940,0.00169
1786.16923,0.00182
1784.10905,0.00181
1782.04888,0.00187
1779.98871,0.00196
1777.92854,0.00196
1775.86836,0.00167
1773.80819,0.00109
1771.74802,0.00090
1769.68785,0.00149
1767.62768,0.00225
1765.56750,0.00264
1763.50733,0.00263
1761.44716,0.00264
1759.38699,0.00301
1757.32682,0.00356
1755.26664,0.00399
1753.20647,0.00416
1751.14630,0.00428
1749.08613,0.00463
1747.02596,0.00515
1744.96578,0.00548
1742.90561,0.00553
1740.84544,0.00558
1738.78527,0.00579
1736.72509,0.00596
1734.66492,0.00615
1732.60475,0.00665
1730.54458,0.00726
1728.48441,0.00778
1726.42423,0.00823
1724.36406,0.00861
1722.30389,0.00881
1720.24372,0.00858
1718.18355,0.00827
1716.12337,0.00882
1714.06320,0.00990
1712.00303,0.01062
1709.94286,0.01089
1707.88268,0.01101
1705.82251,0.01112
1703.76234,0.01122
1701.70217,0.01137
1699.64200,0.01182
1697.58182,0.01266
1695.52165,0.01370
1693.46148,0.01468
1691.40131,0.01548
1689.34114,0.01605
1687.28096,0.01626
1685.22079,0.01650
1683.16062,0.01749
1681.10045,0.01867
1679.04028,0.01939
1676.98010,0.01975
1674.91993,0.02015
1672.85976,0.02069
1670.79959,0.02146
1668.73941,0.02259
1666.67924,0.02346
1664.61907,0.02388
1662.55890,0.02443
1660.49873,0.02514
1658.43855,0.02553
1656.37838,0.02541
1654.31821,0.02516
1652.25804,0.02543
1650.19787,0.02572
1648.13769,0.02593
1646.07752,0.02664
1644.01735,0.02742
1641.95718,0.02755
1639.89701,0.02708
1637.83683,0.02657
1635.77666,0.02675
1633.71649,0.02739
1631.65632,0.02746
1629.59614,0.02696
1627.53597,0.02650
1625.47580,0.02627
1623.41563,0.02610
1621.35546,0.02606
1619.29528,0.02609
1617.23511,0.02622
1615.17494,0.02664
1613.11477,0.02687
1611.05460,0.02665
1608.99442,0.02622
1606.93425,0.02573
1604.87408,0.02506
1602.81391,0.02433
1600.75373,0.02381
1598.69356,0.02337
1596.63339,0.02272
1594.57322,0.02185
1592.51305,0.02096
1590.45287,0.02008
1588.39270,0.01914
1586.33253,0.01815
1584.27236,0.01718
1582.21219,0.01624
1580.15201,0.01529
1578.09184,0.01425
1576.03167,0.01339
1573.97150,0.01299
1571.91133,0.01245
1569.85115,0.01146
1567.79098,0.01066
1565.73081,0.01041
1563.67064,0.01024
1561.61046,0.00935
1559.55029,0.00774
1557.49012,0.00707
1555.42995,0.00761
1553.36978,0.00792
1551.30960,0.00764
1549.24943,0.00729
1547.18926,0.00696
1545.12909,0.00619
1543.06892,0.00472
1541.00874,0.00325
1538.94857,0.00316
1536.88840,0.00375
1534.82823,0.00390
1532.76805,0.00382
1530.70788,0.00370
1528.64771,0.00326
1526.58754,0.00268
1524.52737,0.00223
1522.46719,0.00181
1520.40702,0.00171
1518.34685,0.00206
1516.28668,0.00255
1514.22651,0.00277
1512.16633,0.00238
1510.10616,0.00134
1508.04599,0.00026
1505.98582,0.00019
1503.92565,0.00086
1501.86547,0.00115
1499.80530,0.00085
1497.74513,0.00041
1495.68496,0.00032
1493.62478,0.00037
1491.56461,0.00024
1489.50444,0.00023
1487.44427,0.00065
1485.38410,0.00107
1483.32392,0.00122
1481.26375,0.00135
1479.20358,0.00158
1477.14341,0.00166
1475.08324,0.00158
1473.02306,0.00195
1470.96289,0.00293
1468.90272,0.00372
1466.84255,0.00407
1464.78238,0.00435
1462.72220,0.00473
1460.66203,0.00497
1458.60186,0.00513
1456.54169,0.00556
1454.48151,0.00601
1452.42134,0.00621
1450.36117,0.00615
1448.30100,0.00600
1446.24083,0.00605
1444.18065,0.00621
1442.12048,0.00630
1440.06031,0.00618
1438.00014,0.00594
1435.93997,0.00591
1433.87979,0.00602
1431.81962,0.00606
1429.75945,0.00614
1427.69928,0.00633
1425.63910,0.00662
1423.57893,0.00696
1421.51876,0.00724
1419.45859,0.00758
1417.39842,0.00806
1415.33824,0.00833
1413.27807,0.00831
1411.21790,0.00814
1409.15773,0.00794
1407.09756,0.00768
1405.03738,0.00739
1402.97721,0.00720
1400.91704,0.00706
1398.85687,0.00683
1396.79670,0.00661
1394.73652,0.00664
1392.67635,0.00692
1390.61618,0.00719
1388.55601,0.00735
1386.49583,0.00746
1384.43566,0.00759
1382.37549,0.00785
1380.31532,0.00817
1378.25515,0.00836
1376.19497,0.00837
1374.13480,0.00843
1372.07463,0.00858
1370.01446,0.00862
1367.95429,0.00850
1365.89411,0.00827
1363.83394,0.00803
1361.77377,0.00785
1359.71360,0.00760
1357.65343,0.00719
1355.59325,0.00684
1353.53308,0.00670
1351.47291,0.00660
1349.41274,0.00641
1347.35256,0.00623
1345.29239,0.00620
1343.23222,0.00619
1341.17205,0.00612
1339.11188,0.00609
1337.05170,0.00608
1334.99153,0.00591
1332.93136,0.00564
1330.87119,0.00548
1328.81102,0.00538
1326.75084,0.00520
1324.69067,0.00500
1322.63050,0.00482
1320.57033,0.00465
1318.51015,0.00443
1316.44998,0.00423
1314.38981,0.00421
1312.32964,0.00432
1310.26947,0.00437
1308.20929,0.00429
1306.14912,0.00424
1304.08895,0.00423
1302.02878,0.00414
1299.96861,0.00401
1297.90843,0.00406
1295.84826,0.00433
1293.78809,0.00455
1291.72792,0.00450
1289.66775,0.00430
1287.60757,0.00416
1285.54740,0.00411
1283.48723,0.00407
1281.42706,0.00412
1279.36688,0.00434
1277.30671,0.00463
1275.24654,0.00477
1273.18637,0.00469
1271.12620,0.00466
1269.06602,0.00468
1267.00585,0.00460
1264.94568,0.00451
1262.88551,0.00458
1260.82534,0.00475
1258.76516,0.00482
1256.70499,0.00474
1254.64482,0.00452
1252.58465,0.00429
1250.52447,0.00420
1248.46430,0.00422
1246.40413,0.00415
1244.34396,0.00399
1242.28379,0.00388
1240.22361,0.00377
1238.16344,0.00362
1236.10327,0.00344
1234.04310,0.00314
1231.98293,0.00290
1229.92275,0.00290
1227.86258,0.00297
1225.80241,0.00292
1223.74224,0.00275
1221.68207,0.00259
1219.62189,0.00241
1217.56172,0.00216
1215.50155,0.00188
1213.44138,0.00166
1211.38120,0.00150
1209.32103,0.00123
1207.26086,0.00090
1205.20069,0.00061
1203.14052,0.00027
1201.08034,0.00004
1199.02017,0.00008
1196.96000,0.00026
1194.89983,0.00035
1192.83966,0.00042
1190.77948,0.00064
1188.71931,0.00112
1186.65914,0.00177
1184.59897,0.00241
1182.53880,0.00311
1180.47862,0.00412
1178.41845,0.00551
1176.35828,0.00707
1174.29811,0.00848
1172.23793,0.00968
1170.17776,0.01089
1168.11759,0.01218
1166.05742,0.01346
1163.99725,0.01470
1161.93707,0.01596
1159.87690,0.01721
1157.81673,0.01832
1155.75656,0.01930
1153.69639,0.02038
1151.63621,0.02164
1149.57604,0.02298
1147.51587,0.02445
1145.45570,0.02611
1143.39552,0.02773
1141.33535,0.02913
1139.27518,0.03042
1137.21501,0.03169
1135.15484,0.03312
1133.09466,0.03482
1131.03449,0.03642
1128.97432,0.03779
1126.91415,0.03918
1124.85398,0.04066
1122.79380,0.04215
1120.73363,0.04359
1118.67346,0.04507
1116.61329,0.04683
1114.55312,0.04871
1112.49294,0.05055
1110.43277,0.05244
1108.37260,0.05442
1106.31243,0.05655
1104.25225,0.05896
1102.19208,0.06169
1100.13191,0.06464
1098.07174,0.06740
1096.01157,0.06971
1093.95139,0.07192
1091.89122,0.07425
1089.83105,0.07659
1087.77088,0.07901
1085.71071,0.08145
1083.65053,0.08383
1081.59036,0.08625
1079.53019,0.08858
1077.47002,0.09075
1075.40985,0.09267
1073.34967,0.09430
1071.28950,0.09581
1069.22933,0.09698
1067.16916,0.09779
1065.10898,0.09856
1063.04881,0.09909
1060.98864,0.09927
1058.92847,0.09931
1056.86830,0.09923
1054.80812,0.09906
1052.74795,0.09899
1050.68778,0.09887
1048.62761,0.09838
1046.56744,0.09727
1044.50726,0.09573
1042.44709,0.09436
1040.38692,0.09319
1038.32675,0.09174
1036.26657,0.08982
1034.20640,0.08781
1032.14623,0.08607
1030.08606,0.08462
1028.02589,0.08324
1025.96571,0.08147
1023.90554,0.07931
1021.84537,0.07726
1019.78520,0.07538
1017.72503,0.07343
1015.66485,0.07150
1013.60468,0.06967
1011.54451,0.06788
1009.48434,0.06617
1007.42417,0.06458
1005.36399,0.06321
1003.30382,0.06203
1001.24365,0.06113
999.18348,0.06089
997.12330,0.06128
995.06313,0.06190
993.00296,0.06270
990.94279,0.06365
988.88262,0.06450
986.82244,0.06529
984.76227,0.06583
982.70210,0.06549
980.64193,0.06428
978.58176,0.06265
976.52158,0.06064
974.46141,0.05813
972.40124,0.05523
970.34107,0.05231
968.28089,0.04969
966.22072,0.04705
964.16055,0.04421
962.10038,0.04160
960.04021,0.03931
957.98003,0.03724
955.91986,0.03555
953.85969,0.03414
951.79952,0.03294
949.73935,0.03205
947.67917,0.03127
945.61900,0.03066
943.55883,0.03033
941.49866,0.03009
939.43849,0.02989
937.37831,0.02975
935.31814,0.02960
933.25797,0.02930
931.19780,0.02884
929.13762,0.02831
927.07745,0.02789
925.01728,0.02753
922.95711,0.02675
920.89694,0.02552
918.83676,0.02434
916.77659,0.02341
914.71642,0.02245
912.65625,0.02141
910.59608,0.02044
908.53590,0.01952
906.47573,0.01874
904.41556,0.01823
902.35539,0.01801
900.29522,0.01792
898.23504,0.01786
896.17487,0.01781
894.11470,0.01774
892.05453,0.01782
889.99435,0.01799
887.93418,0.01809
885.87401,0.01851
883.81384,0.01934
881.75367,0.02006
879.69349,0.02084
877.63332,0.02179
875.57315,0.02225
873.51298,0.02223
871.45281,0.02242
869.39263,0.02275
867.33246,0.02296
865.27229,0.02325
863.21212,0.02348
861.15194,0.02332
859.09177,0.02328
857.03160,0.02328
854.97143,0.02266
852.91126,0.02191
850.85108,0.02123
848.79091,0.02029
846.73074,0.01921
844.67057,0.01819
842.61040,0.01747
840.55022,0.01688
838.49005,0.01608
836.42988,0.01522
834.36971,0.01430
832.30954,0.01333
830.24936,0.01250
828.18919,0.01186
826.12902,0.01141
824.06885,0.01101
822.00867,0.01055
819.94850,0.00976
817.88833,0.00879
815.82816,0.00837
813.76799,0.00837
811.70781,0.00818
809.64764,0.00801
807.58747,0.00762
805.52730,0.00663
803.46713,0.00594
801.40695,0.00604
799.34678,0.00596
797.28661,0.00525
795.22644,0.00481
793.16627,0.00504
791.10609,0.00535
789.04592,0.00552
786.98575,0.00571
784.92558,0.00581
782.86540,0.00594
780.80523,0.00624
778.74506,0.00601
776.68489,0.00511
774.62472,0.00465
772.56454,0.00472
770.50437,0.00447
768.44420,0.00458
766.38403,0.00581
764.32386,0.00667
762.26368,0.00604
760.20351,0.00496
758.14334,0.00442
756.08317,0.00431
754.02299,0.00429
751.96282,0.00434
749.90265,0.00429
747.84248,0.00383
745.78231,0.00306
743.72213,0.00212
741.66196,0.00153
739.60179,0.00182
737.54162,0.00230
735.48145,0.00219
733.42127,0.00178
731.36110,0.00183
729.30093,0.00229
727.24076,0.00237
725.18059,0.00228
723.12041,0.00299
721.06024,0.00419
719.00007,0.00442
716.93990,0.00406
714.87972,0.00409
712.81955,0.00451
710.75938,0.00479
708.69921,0.00437
706.63904,0.00360
704.57886,0.00333
702.51869,0.00385
700.45852,0.00463
698.39835,0.00485
696.33818,0.00416
694.27800,0.00284
692.21783,0.00171
690.15766,0.00157
688.09749,0.00188
686.03731,0.00137
683.97714,0.00033
681.91697,0.00001
679.85680,0.00036
677.79663,0.00088
675.73645,0.00116
673.67628,0.00077
671.61611,0.00003
669.55594,0.00214
667.49577,0.00441
665.43559,0.00124
663.37542,0.00074
661.31525,0.00103
659.25508,0.00124
657.19491,0.00149
655.13473,0.00189
653.07456,0.00258
651.01439,0.00318
648.95422,0.00352
646.89404,0.00385
644.83387,0.00421
642.77370,0.00356
640.71353,0.00156
638.65336,0.00000
636.59318,0.00095
634.53301,0.00320
632.47284,0.00374
630.41267,0.00252
628.35250,0.00179
626.29232,0.00256
624.23215,0.00346
622.17198,0.00373
620.11181,0.00422
618.05164,0.00563
615.99146,0.00671
613.93129,0.00590
611.87112,0.00444
609.81095,0.00459
607.75077,0.00554
605.69060,0.00540
603.63043,0.00353
601.57026,0.00092
599.51009,0.00000
