3996.73391,0.00040
3994.67373,0.00050
3992.61356,0.00069
3990.55339,0.00058
3988.49322,0.00046
3986.43305,0.00073
3984.37287,0.00091
3982.31270,0.00070
3980.25253,0.00048
3978.19236,0.00038
3976.13219,0.00023
3974.07201,0.00012
3972.01184,0.00009
3969.95167,0.00000
3967.89150,0.00015
3965.83133,0.00060
3963.77115,0.00075
3961.71098,0.00070
3959.65081,0.00084
3957.59064,0.00100
3955.53046,0.00109
3953.47029,0.00103
3951.41012,0.00079
3949.34995,0.00069
3947.28978,0.00107
3945.22960,0.00120
3943.16943,0.00073
3941.10926,0.00063
3939.04909,0.00095
3936.98892,0.00122
3934.92874,0.00109
3932.86857,0.00063
3930.80840,0.00090
3928.74823,0.00181
3926.68805,0.00201
3924.62788,0.00170
3922.56771,0.00184
3920.50754,0.00175
3918.44737,0.00108
3916.38719,0.00067
3914.32702,0.00078
3912.26685,0.00094
3910.20668,0.00136
3908.14651,0.00177
3906.08633,0.00125
3904.02616,0.00041
3901.96599,0.00023
3899.90582,0.00046
3897.84565,0.00147
3895.78547,0.00234
3893.72530,0.00171
3891.66513,0.00101
3889.60496,0.00195
3887.54478,0.00221
3885.48461,0.00180
3883.42444,0.00222
3881.36427,0.00181
3879.30410,0.00203
3877.24392,0.00298
3875.18375,0.00265
3873.12358,0.00221
3871.06341,0.00167
3869.00324,0.00174
3866.94306,0.00213
3864.88289,0.00153
3862.82272,0.00177
3860.76255,0.00276
3858.70237,0.00344
3856.64220,0.00276
3854.58203,0.00036
3852.52186,0.00000
3850.46169,0.00235
3848.40151,0.00363
3846.34134,0.00337
3844.28117,0.00269
3842.22100,0.00245
3840.16083,0.00206
3838.10065,0.00184
3836.04048,0.00266
3833.98031,0.00312
3831.92014,0.00272
3829.85997,0.00241
3827.79979,0.00239
3825.73962,0.00317
3823.67945,0.00322
3821.61928,0.00193
3819.55910,0.00238
3817.49893,0.00247
3815.43876,0.00197
3813.37859,0.00277
3811.31842,0.00316
3809.25824,0.00253
3807.19807,0.00231
3805.13790,0.00345
3803.07773,0.00296
3801.01756,0.00192
3798.95738,0.00248
3796.89721,0.00226
3794.83704,0.00214
3792.77687,0.00267
3790.71670,0.00335
3788.65652,0.00387
3786.59635,0.00368
3784.53618,0.00347
3782.47601,0.00352
3780.41583,0.00266
3778.35566,0.00205
3776.29549,0.00257
3774.23532,0.00313
3772.17515,0.00312
3770.11497,0.00276
3768.05480,0.00244
3765.99463,0.00200
3763.93446,0.00257
3761.87429,0.00320
3759.81411,0.00298
3757.75394,0.00339
3755.69377,0.00419
3753.63360,0.00347
3751.57342,0.00189
3749.51325,0.00267
3747.45308,0.00422
3745.39291,0.00319
3743.33274,0.00317
3741.27256,0.00484
3739.21239,0.00506
3737.15222,0.00388
3735.09205,0.00274
3733.03188,0.00245
3730.97170,0.00302
3728.91153,0.00343
3726.85136,0.00273
3724.79119,0.00216
3722.73102,0.00220
3720.67084,0.00265
3718.61067,0.00341
3716.55050,0.00402
3714.49033,0.00351
3712.43015,0.00213
3710.36998,0.00183
3708.30981,0.00276
3706.24964,0.00338
3704.18947,0.00292
3702.12929,0.00222
3700.06912,0.00268
3698.00895,0.00351
3695.94878,0.00409
3693.88861,0.00434
3691.82843,0.00331
3689.76826,0.00181
3687.70809,0.00216
3685.64792,0.00362
3683.58775,0.00428
3681.52757,0.00471
3679.46740,0.00527
3677.40723,0.00460
3675.34706,0.00379
3673.28688,0.00516
3671.22671,0.00487
3669.16654,0.00388
3667.10637,0.00454
3665.04620,0.00495
3662.98602,0.00485
3660.92585,0.00488
3658.86568,0.00467
3656.80551,0.00458
3654.74534,0.00617
3652.68516,0.00735
3650.62499,0.00655
3648.56482,0.00604
3646.50465,0.00653
3644.44447,0.00681
3642.38430,0.00676
3640.32413,0.00736
3638.26396,0.00832
3636.20379,0.00880
3634.14361,0.00898
3632.08344,0.00921
3630.02327,0.00869
3627.96310,0.00915
3625.90293,0.01089
3623.84275,0.01142
3621.78258,0.01063
3619.72241,0.01002
3617.66224,0.01097
3615.60207,0.01171
3613.54189,0.01135
3611.48172,0.01152
3609.42155,0.01190
3607.36138,0.01263
3605.30120,0.01399
3603.24103,0.01446
3601.18086,0.01405
3599.12069,0.01412
3597.06052,0.01442
3595.00034,0.01459
3592.94017,0.01533
3590.88000,0.01584
3588.81983,0.01539
3586.75966,0.01559
3584.69948,0.01659
3582.63931,0.01685
3580.57914,0.01692
3578.51897,0.01739
3576.45879,0.01783
3574.39862,0.01833
3572.33845,0.01908
3570.27828,0.01946
3568.21811,0.01925
3566.15793,0.01971
3564.09776,0.02073
3562.03759,0.02092
3559.97742,0.02078
3557.91725,0.02127
3555.85707,0.02203
3553.79690,0.02232
3551.73673,0.02248
3549.67656,0.02278
3547.61639,0.02294
3545.55621,0.02364
3543.49604,0.02493
3541.43587,0.02552
3539.37570,0.02529
3537.31552,0.02498
3535.25535,0.02495
3533.19518,0.02517
3531.13501,0.02543
3529.07484,0.02549
3527.01466,0.02544
3524.95449,0.02586
3522.89432,0.02690
3520.83415,0.02791
3518.77398,0.02833
3516.71380,0.02846
3514.65363,0.02863
3512.59346,0.02899
3510.53329,0.02954
3508.47312,0.03019
3506.41294,0.03051
3504.35277,0.03023
3502.29260,0.03022
3500.23243,0.03060
3498.17225,0.03068
3496.11208,0.03079
3494.05191,0.03112
3491.99174,0.03146
3489.93157,0.03174
3487.87139,0.03189
3485.81122,0.03211
3483.75105,0.03241
3481.69088,0.03275
3479.63071,0.03320
3477.57053,0.03351
3475.51036,0.03370
3473.45019,0.03394
3471.39002,0.03418
3469.32984,0.03439
3467.26967,0.03441
3465.20950,0.03417
3463.14933,0.03413
3461.08916,0.03468
3459.02898,0.03538
3456.96881,0.03580
3454.90864,0.03607
3452.84847,0.03658
3450.78830,0.03743
3448.72812,0.03784
3446.66795,0.03764
3444.60778,0.03747
3442.54761,0.03746
3440.48744,0.03767
3438.42726,0.03783
3436.36709,0.03803
3434.30692,0.03851
3432.24675,0.03897
3430.18657,0.03911
3428.12640,0.03910
3426.06623,0.03902
3424.00606,0.03889
3421.94589,0.03897
3419.88571,0.03919
3417.82554,0.03930
3415.76537,0.03963
3413.70520,0.04016
3411.64503,0.04054
3409.58485,0.04075
3407.52468,0.04069
3405.46451,0.04040
3403.40434,0.04029
3401.34416,0.04051
3399.28399,0.04077
3397.22382,0.04107
3395.16365,0.04122
3393.10348,0.04103
3391.04330,0.04094
3388.98313,0.04111
3386.92296,0.04130
3384.86279,0.04133
3382.80262,0.04132
3380.74244,0.04133
3378.68227,0.04133
3376.62210,0.04148
3374.56193,0.04174
3372.50176,0.04181
3370.44158,0.04187
3368.38141,0.04208
3366.32124,0.04225
3364.26107,0.04242
3362.20089,0.04249
3360.14072,0.04239
3358.08055,0.04238
3356.02038,0.04253
3353.96021,0.04261
3351.90003,0.04243
3349.83986,0.04211
3347.77969,0.04208
3345.71952,0.04246
3343.65935,0.04269
3341.59917,0.04243
3339.53900,0.04204
3337.47883,0.04188
3335.41866,0.04185
3333.35849,0.04190
3331.29831,0.04208
3329.23814,0.04214
3327.17797,0.04192
3325.11780,0.04179
3323.05762,0.04196
3320.99745,0.04211
3318.93728,0.04219
3316.87711,0.04226
3314.81694,0.04244
3312.75676,0.04272
3310.69659,0.04268
3308.63642,0.04254
3306.57625,0.04271
3304.51608,0.04285
3302.45590,0.04277
3300.39573,0.04273
3298.33556,0.04268
3296.27539,0.04253
3294.21521,0.04245
3292.15504,0.04234
3290.09487,0.04201
3288.03470,0.04174
3285.97453,0.04185
3283.91435,0.04199
3281.85418,0.04181
3279.79401,0.04173
3277.73384,0.04190
3275.67367,0.04204
3273.61349,0.04204
3271.55332,0.04203
3269.49315,0.04211
3267.43298,0.04213
3265.37281,0.04195
3263.31263,0.04173
3261.25246,0.04167
3259.19229,0.04162
3257.13212,0.04140
3255.07194,0.04132
3253.01177,0.04138
3250.95160,0.04115
3248.89143,0.04105
3246.83126,0.04139
3244.77108,0.04168
3242.71091,0.04179
3240.65074,0.04164
3238.59057,0.04131
3236.53040,0.04123
3234.47022,0.04129
3232.41005,0.04103
3230.34988,0.04080
3228.28971,0.04080
3226.22954,0.04087
3224.16936,0.04103
3222.10919,0.04116
3220.04902,0.04107
3217.98885,0.04090
3215.92867,0.04077
3213.86850,0.04055
3211.80833,0.04024
3209.74816,0.03991
3207.68799,0.03983
3205.62781,0.04006
3203.56764,0.04016
3201.50747,0.03995
3199.44730,0.03963
3197.38713,0.03943
3195.32695,0.03932
3193.26678,0.03921
3191.20661,0.03923
3189.14644,0.03927
3187.08626,0.03908
3185.02609,0.03875
3182.96592,0.03860
3180.90575,0.03876
3178.84558,0.03865
3176.78540,0.03792
3174.72523,0.03719
3172.66506,0.03697
3170.60489,0.03710
3168.54472,0.03728
3166.48454,0.03731
3164.42437,0.03725
3162.36420,0.03715
3160.30403,0.03690
3158.24386,0.03664
3156.18368,0.03658
3154.12351,0.03675
3152.06334,0.03702
3150.00317,0.03701
3147.94299,0.03662
3145.88282,0.03619
3143.82265,0.03595
3141.76248,0.03589
3139.70231,0.03596
3137.64213,0.03585
3135.58196,0.03533
3133.52179,0.03479
3131.46162,0.03464
3129.40145,0.03471
3127.34127,0.03467
3125.28110,0.03453
3123.22093,0.03439
3121.16076,0.03428
3119.10058,0.03407
3117.04041,0.03385
3114.98024,0.03376
3112.92007,0.03353
3110.85990,0.03316
3108.79972,0.03299
3106.73955,0.03290
3104.67938,0.03289
3102.61921,0.03302
3100.55904,0.03296
3098.49886,0.03259
3096.43869,0.03202
3094.37852,0.03150
3092.31835,0.03129
3090.25818,0.03128
3088.19800,0.03124
3086.13783,0.03117
3084.07766,0.03113
3082.01749,0.03103
3079.95731,0.03083
3077.89714,0.03067
3075.83697,0.03054
3073.77680,0.03034
3071.71663,0.03004
3069.65645,0.02971
3067.59628,0.02946
3065.53611,0.02938
3063.47594,0.02943
3061.41577,0.02940
3059.35559,0.02912
3057.29542,0.02860
3055.23525,0.02821
3053.17508,0.02818
3051.11491,0.02826
3049.05473,0.02815
3046.99456,0.02789
3044.93439,0.02777
3042.87422,0.02780
3040.81404,0.02773
3038.75387,0.02766
3036.69370,0.02773
3034.63353,0.02762
3032.57336,0.02717
3030.51318,0.02673
3028.45301,0.02646
3026.39284,0.02629
3024.33267,0.02623
3022.27250,0.02609
3020.21232,0.02584
3018.15215,0.02556
3016.09198,0.02522
3014.03181,0.02497
3011.97163,0.02479
3009.91146,0.02460
3007.85129,0.02446
3005.79112,0.02437
3003.73095,0.02427
3001.67077,0.02405
2999.61060,0.02394
2997.55043,0.02415
2995.49026,0.02420
2993.43009,0.02381
2991.36991,0.02348
2989.30974,0.02346
2987.24957,0.02343
2985.18940,0.02329
2983.12923,0.02311
2981.06905,0.02294
2979.00888,0.02305
2976.94871,0.02344
2974.88854,0.02359
2972.82836,0.02317
2970.76819,0.02257
2968.70802,0.02232
2966.64785,0.02241
2964.58768,0.02245
2962.52750,0.02230
2960.46733,0.02228
2958.40716,0.02256
2956.34699,0.02277
2954.28682,0.02274
2952.22664,0.02261
2950.16647,0.02245
2948.10630,0.02235
2946.04613,0.02252
2943.98596,0.02280
2941.92578,0.02279
2939.86561,0.02264
2937.80544,0.02267
2935.74527,0.02257
2933.68509,0.02229
2931.62492,0.02216
2929.56475,0.02232
2927.50458,0.02261
2925.44441,0.02268
2923.38423,0.02252
2921.32406,0.02237
2919.26389,0.02215
2917.20372,0.02192
2915.14355,0.02176
2913.08337,0.02143
2911.02320,0.02087
2908.96303,0.02040
2906.90286,0.02019
2904.84268,0.02025
2902.78251,0.02047
2900.72234,0.02056
2898.66217,0.02043
2896.60200,0.02028
2894.54182,0.02018
2892.48165,0.02012
2890.42148,0.02016
2888.36131,0.02017
2886.30114,0.02009
2884.24096,0.01999
2882.18079,0.01981
2880.12062,0.01962
2878.06045,0.01962
2876.00028,0.01965
2873.94010,0.01947
2871.87993,0.01929
2869.81976,0.01918
2867.75959,0.01903
2865.69941,0.01894
2863.63924,0.01881
2861.57907,0.01864
2859.51890,0.01866
2857.45873,0.01862
2855.39855,0.01837
2853.33838,0.01814
2851.27821,0.01797
2849.21804,0.01774
2847.15787,0.01755
2845.09769,0.01746
2843.03752,0.01732
2840.97735,0.01718
2838.91718,0.01725
2836.85700,0.01736
2834.79683,0.01707
2832.73666,0.01662
2830.67649,0.01653
2828.61632,0.01651
2826.55614,0.01637
2824.49597,0.01634
2822.43580,0.01634
2820.37563,0.01620
2818.31546,0.01613
2816.25528,0.01620
2814.19511,0.01622
2812.13494,0.01605
2810.07477,0.01575
2808.01460,0.01556
2805.95442,0.01559
2803.89425,0.01564
2801.83408,0.01558
2799.77391,0.01539
2797.71373,0.01522
2795.65356,0.01518
2793.59339,0.01512
2791.53322,0.01504
2789.47305,0.01502
2787.41287,0.01492
2785.35270,0.01462
2783.29253,0.01441
2781.23236,0.01444
2779.17219,0.01444
2777.11201,0.01439
2775.05184,0.01442
2772.99167,0.01447
2770.93150,0.01446
2768.87133,0.01433
2766.81115,0.01421
2764.75098,0.01428
2762.69081,0.01438
2760.63064,0.01436
2758.57046,0.01415
2756.51029,0.01385
2754.45012,0.01365
2752.38995,0.01357
2750.32978,0.01355
2748.26960,0.01351
2746.20943,0.01344
2744.14926,0.01333
2742.08909,0.01318
2740.02892,0.01308
2737.96874,0.01305
2735.90857,0.01303
2733.84840,0.01304
2731.78823,0.01310
2729.72805,0.01313
2727.66788,0.01309
2725.60771,0.01306
2723.54754,0.01309
2721.48737,0.01304
2719.42719,0.01281
2717.36702,0.01259
2715.30685,0.01250
2713.24668,0.01238
2711.18651,0.01226
2709.12633,0.01231
2707.06616,0.01241
2705.00599,0.01225
2702.94582,0.01194
2700.88565,0.01177
2698.82547,0.01165
2696.76530,0.01167
2694.70513,0.01178
2692.64496,0.01170
2690.58478,0.01157
2688.52461,0.01144
2686.46444,0.01130
2684.40427,0.01128
2682.34410,0.01142
2680.28392,0.01153
2678.22375,0.01151
2676.16358,0.01130
2674.10341,0.01094
2672.04324,0.01069
2669.98306,0.01061
2667.92289,0.01056
2665.86272,0.01065
2663.80255,0.01076
2661.74238,0.01069
2659.68220,0.01065
2657.62203,0.01070
2655.56186,0.01069
2653.50169,0.01066
2651.44151,0.01067
2649.38134,0.01057
2647.32117,0.01017
2645.26100,0.00977
2643.20083,0.00980
2641.14065,0.01005
2639.08048,0.01018
2637.02031,0.01013
2634.96014,0.00998
2632.89997,0.00981
2630.83979,0.00979
2628.77962,0.00978
2626.71945,0.00951
2624.65928,0.00926
2622.59910,0.00933
2620.53893,0.00934
2618.47876,0.00916
2616.41859,0.00915
2614.35842,0.00914
2612.29824,0.00902
2610.23807,0.00906
2608.17790,0.00905
2606.11773,0.00881
2604.05756,0.00868
2601.99738,0.00871
2599.93721,0.00880
2597.87704,0.00901
2595.81687,0.00912
2593.75670,0.00884
2591.69652,0.00850
2589.63635,0.00841
2587.57618,0.00865
2585.51601,0.00896
2583.45583,0.00888
2581.39566,0.00849
2579.33549,0.00806
2577.27532,0.00784
2575.21515,0.00784
2573.15497,0.00756
2571.09480,0.00714
2569.03463,0.00719
2566.97446,0.00759
2564.91429,0.00780
2562.85411,0.00759
2560.79394,0.00727
2558.73377,0.00722
2556.67360,0.00731
2554.61342,0.00742
2552.55325,0.00783
2550.49308,0.00838
2548.43291,0.00842
2546.37274,0.00790
2544.31256,0.00741
2542.25239,0.00727
2540.19222,0.00740
2538.13205,0.00762
2536.07188,0.00755
2534.01170,0.00717
2531.95153,0.00704
2529.89136,0.00727
2527.83119,0.00746
2525.77102,0.00740
2523.71084,0.00723
2521.65067,0.00714
2519.59050,0.00711
2517.53033,0.00717
2515.47015,0.00741
2513.40998,0.00766
2511.34981,0.00787
2509.28964,0.00805
2507.22947,0.00796
2505.16929,0.00779
2503.10912,0.00771
2501.04895,0.00757
2498.98878,0.00755
2496.92861,0.00768
2494.86843,0.00763
2492.80826,0.00738
2490.74809,0.00745
2488.68792,0.00781
2486.62775,0.00781
2484.56757,0.00751
2482.50740,0.00766
2480.44723,0.00823
2478.38706,0.00849
2476.32688,0.00825
2474.26671,0.00789
2472.20654,0.00780
2470.14637,0.00793
2468.08620,0.00813
2466.02602,0.00851
2463.96585,0.00876
2461.90568,0.00865
2459.84551,0.00841
2457.78534,0.00833
2455.72516,0.00858
2453.66499,0.00896
2451.60482,0.00898
2449.54465,0.00862
2447.48447,0.00847
2445.42430,0.00843
2443.36413,0.00823
2441.30396,0.00807
2439.24379,0.00791
2437.18361,0.00760
2435.12344,0.00762
2433.06327,0.00805
2431.00310,0.00831
2428.94293,0.00827
2426.88275,0.00801
2424.82258,0.00752
2422.76241,0.00729
2420.70224,0.00761
2418.64207,0.00793
2416.58189,0.00781
2414.52172,0.00741
2412.46155,0.00723
2410.40138,0.00735
2408.34120,0.00761
2406.28103,0.00792
2404.22086,0.00809
2402.16069,0.00809
2400.10052,0.00790
2398.04034,0.00744
2395.98017,0.00724
2393.92000,0.00736
2391.85983,0.00752
2389.79966,0.00758
2387.73948,0.00771
2385.67931,0.00796
2383.61914,0.00817
2381.55897,0.00823
2379.49880,0.00826
2377.43862,0.00831
2375.37845,0.00882
2373.31828,0.00967
2371.25811,0.01007
2369.19793,0.00962
2367.13776,0.00809
2365.07759,0.00634
2363.01742,0.00652
2360.95725,0.00689
2358.89707,0.00595
2356.83690,0.00464
2354.77673,0.00523
2352.71656,0.00702
2350.65639,0.00717
2348.59621,0.00670
2346.53604,0.00804
2344.47587,0.00856
2342.41570,0.00858
2340.35552,0.00921
2338.29535,0.01023
2336.23518,0.01072
2334.17501,0.01013
2332.11484,0.00912
2330.05466,0.00878
2327.99449,0.00948
2325.93432,0.00972
2323.87415,0.00912
2321.81398,0.00805
2319.75380,0.00765
2317.69363,0.00777
2315.63346,0.00823
2313.57329,0.00859
2311.51312,0.00859
2309.45294,0.00822
2307.39277,0.00776
2305.33260,0.00756
2303.27243,0.00745
2301.21225,0.00720
2299.15208,0.00693
2297.09191,0.00703
2295.03174,0.00732
2292.97157,0.00745
2290.91139,0.00759
2288.85122,0.00785
2286.79105,0.00802
2284.73088,0.00806
2282.67071,0.00802
2280.61053,0.00783
2278.55036,0.00752
2276.49019,0.00738
2274.43002,0.00743
2272.36984,0.00752
2270.30967,0.00767
2268.24950,0.00765
2266.18933,0.00708
2264.12916,0.00632
2262.06898,0.00613
2260.00881,0.00652
2257.94864,0.00689
2255.88847,0.00706
2253.82830,0.00698
2251.76812,0.00708
2249.70795,0.00759
2247.64778,0.00762
2245.58761,0.00692
2243.52744,0.00637
2241.46726,0.00588
2239.40709,0.00522
2237.34692,0.00490
2235.28675,0.00514
2233.22657,0.00545
2231.16640,0.00549
2229.10623,0.00549
2227.04606,0.00572
2224.98589,0.00539
2222.92571,0.00460
2220.86554,0.00492
2218.80537,0.00636
2216.74520,0.00734
2214.68503,0.00672
2212.62485,0.00563
2210.56468,0.00554
2208.50451,0.00569
2206.44434,0.00509
2204.38417,0.00398
2202.32399,0.00292
2200.26382,0.00211
2198.20365,0.00214
2196.14348,0.00367
2194.08330,0.00514
2192.02313,0.00479
2189.96296,0.00411
2187.90279,0.00456
2185.84262,0.00510
2183.78244,0.00496
2181.72227,0.00503
2179.66210,0.00544
2177.60193,0.00576
2175.54176,0.00668
2173.48158,0.00754
2171.42141,0.00737
2169.36124,0.00670
2167.30107,0.00513
2165.24089,0.00354
2163.18072,0.00394
2161.12055,0.00454
2159.06038,0.00392
2157.00021,0.00414
2154.94003,0.00480
2152.87986,0.00433
2150.81969,0.00366
2148.75952,0.00334
2146.69935,0.00301
2144.63917,0.00288
2142.57900,0.00337
2140.51883,0.00396
2138.45866,0.00399
2136.39849,0.00413
2134.33831,0.00450
2132.27814,0.00457
2130.21797,0.00442
2128.15780,0.00442
2126.09762,0.00484
2124.03745,0.00518
2121.97728,0.00504
2119.91711,0.00504
2117.85694,0.00531
2115.79676,0.00501
2113.73659,0.00407
2111.67642,0.00333
2109.61625,0.00313
2107.55608,0.00354
2105.49590,0.00421
2103.43573,0.00446
2101.37556,0.00449
2099.31539,0.00458
2097.25521,0.00419
2095.19504,0.00353
2093.13487,0.00345
2091.07470,0.00394
2089.01453,0.00463
2086.95435,0.00503
2084.89418,0.00494
2082.83401,0.00477
2080.77384,0.00446
2078.71367,0.00416
2076.65349,0.00472
2074.59332,0.00588
2072.53315,0.00644
2070.47298,0.00600
2068.41281,0.00524
2066.35263,0.00505
2064.29246,0.00536
2062.23229,0.00490
2060.17212,0.00348
2058.11194,0.00275
2056.05177,0.00327
2053.99160,0.00380
2051.93143,0.00348
2049.87126,0.00275
2047.81108,0.00220
2045.75091,0.00169
2043.69074,0.00189
2041.63057,0.00332
2039.57040,0.00433
2037.51022,0.00397
2035.45005,0.00434
2033.38988,0.00623
2031.32971,0.00683
2029.26954,0.00464
2027.20936,0.00161
2025.14919,0.00000
2023.08902,0.00078
2021.02885,0.00283
2018.96867,0.00365
2016.90850,0.00289
2014.84833,0.00244
2012.78816,0.00245
2010.72799,0.00257
2008.66781,0.00320
2006.60764,0.00394
2004.54747,0.00418
2002.48730,0.00358
2000.42713,0.00273
1998.36695,0.00256
1996.30678,0.00310
1994.24661,0.00423
1992.18644,0.00534
1990.12626,0.00565
1988.06609,0.00497
1986.00592,0.00419
1983.94575,0.00398
1981.88558,0.00424
1979.82540,0.00463
1977.76523,0.00474
1975.70506,0.00446
1973.64489,0.00359
1971.58472,0.00207
1969.52454,0.00066
1967.46437,0.00000
1965.40420,0.00091
1963.34403,0.00280
1961.28386,0.00392
1959.22368,0.00370
1957.16351,0.00274
1955.10334,0.00228
1953.04317,0.00269
1950.98299,0.00299
1948.92282,0.00286
1946.86265,0.00275
1944.80248,0.00246
1942.74231,0.00179
1940.68213,0.00166
1938.62196,0.00189
1936.56179,0.00220
1934.50162,0.00280
1932.44145,0.00327
1930.38127,0.00310
1928.32110,0.00261
1926.26093,0.00262
1924.20076,0.00285
1922.14059,0.00325
1920.08041,0.00346
1918.02024,0.00303
1915.96007,0.00277
1913.89990,0.00254
1911.83972,0.00244
1909.77955,0.00262
1907.71938,0.00284
1905.65921,0.00281
1903.59904,0.00253
1901.53886,0.00235
1899.47869,0.00229
1897.41852,0.00224
1895.35835,0.00237
1893.29818,0.00276
1891.23800,0.00251
1889.17783,0.00185
1887.11766,0.00163
1885.05749,0.00137
1882.99731,0.00128
1880.93714,0.00169
1878.87697,0.00219
1876.81680,0.00250
1874.75663,0.00263
1872.69645,0.00251
1870.63628,0.00165
1868.57611,0.00083
1866.51594,0.00121
1864.45577,0.00186
1862.39559,0.00202
1860.33542,0.00205
1858.27525,0.00232
1856.21508,0.00264
1854.15491,0.00260
1852.09473,0.00236
1850.03456,0.00215
1847.97439,0.00201
1845.91422,0.00166
1843.85404,0.00156
1841.79387,0.00248
1839.73370,0.00297
1837.67353,0.00261
1835.61336,0.00228
1833.55318,0.00215
1831.49301,0.00180
1829.43284,0.00199
1827.37267,0.00258
1825.31250,0.00223
1823.25232,0.00197
1821.19215,0.00215
1819.13198,0.00220
1817.07181,0.00219
1815.01163,0.00214
1812.95146,0.00175
1810.89129,0.00143
1808.83112,0.00189
1806.77095,0.00263
1804.71077,0.00288
1802.65060,0.00245
1800.59043,0.00196
1798.53026,0.00207
1796.47009,0.00212
1794.40991,0.00121
1792.34974,0.00041
1790.28957,0.00159
1788.22940,0.00291
1786.16923,0.00291
1784.10905,0.00271
1782.04888,0.00263
1779.98871,0.00266
1777.92854,0.00314
1775.86836,0.00315
1773.80819,0.00223
1771.74802,0.00188
1769.68785,0.00250
1767.62768,0.00276
1765.56750,0.00308
1763.50733,0.00275
1761.44716,0.00235
1759.38699,0.00273
1757.32682,0.00288
1755.26664,0.00346
1753.20647,0.00371
1751.14630,0.00315
1749.08613,0.00342
1747.02596,0.00437
1744.96578,0.00488
1742.90561,0.00491
1740.84544,0.00505
1738.78527,0.00613
1736.72509,0.00649
1734.66492,0.00470
1732.60475,0.00459
1730.54458,0.00557
1728.48441,0.00573
1726.42423,0.00577
1724.36406,0.00597
1722.30389,0.00661
1720.24372,0.00629
1718.18355,0.00466
1716.12337,0.00467
1714.06320,0.00609
1712.00303,0.00700
1709.94286,0.00710
1707.88268,0.00679
1705.82251,0.00699
1703.76234,0.00812
1701.70217,0.00771
1699.64200,0.00720
1697.58182,0.00765
1695.52165,0.00756
1693.46148,0.00877
1691.40131,0.00945
1689.34114,0.00986
1687.28096,0.01037
1685.22079,0.00924
1683.16062,0.00965
1681.10045,0.01192
1679.04028,0.01283
1676.98010,0.01233
1674.91993,0.01231
1672.85976,0.01334
1670.79959,0.01307
1668.73941,0.01339
1666.67924,0.01510
1664.61907,0.01514
1662.55890,0.01446
1660.49873,0.01558
1658.43855,0.01710
1656.37838,0.01681
1654.31821,0.01453
1652.25804,0.01550
1650.19787,0.01855
1648.13769,0.01747
1646.07752,0.01603
1644.01735,0.01725
1641.95718,0.01820
1639.89701,0.01823
1637.83683,0.01703
1635.77666,0.01542
1633.71649,0.01624
1631.65632,0.01712
1629.59614,0.01645
1627.53597,0.01603
1625.47580,0.01589
1623.41563,0.01541
1621.35546,0.01609
1619.29528,0.01609
1617.23511,0.01470
1615.17494,0.01496
1613.11477,0.01567
1611.05460,0.01505
1608.99442,0.01427
1606.93425,0.01410
1604.87408,0.01401
1602.81391,0.01373
1600.75373,0.01357
1598.69356,0.01343
1596.63339,0.01303
1594.57322,0.01252
1592.51305,0.01206
1590.45287,0.01156
1588.39270,0.01111
1586.33253,0.01072
1584.27236,0.01036
1582.21219,0.01031
1580.15201,0.01031
1578.09184,0.00911
1576.03167,0.00805
1573.97150,0.00919
1571.91133,0.00895
1569.85115,0.00717
1567.79098,0.00732
1565.73081,0.00817
1563.67064,0.00887
1561.61046,0.00781
1559.55029,0.00451
1557.49012,0.00524
1555.42995,0.00699
1553.36978,0.00676
1551.30960,0.00598
1549.24943,0.00581
1547.18926,0.00618
1545.12909,0.00562
1543.06892,0.00425
1541.00874,0.00251
1538.94857,0.00337
1536.88840,0.00579
1534.82823,0.00507
1532.76805,0.00382
1530.70788,0.00443
1528.64771,0.00437
1526.58754,0.00410
1524.52737,0.00427
1522.46719,0.00337
1520.40702,0.00303
1518.34685,0.00319
1516.28668,0.00290
1514.22651,0.00346
1512.16633,0.00394
1510.10616,0.00313
1508.04599,0.00048
1505.98582,0.00010
1503.92565,0.00282
1501.86547,0.00365
1499.80530,0.00241
1497.74513,0.00121
1495.68496,0.00166
1493.62478,0.00264
1491.56461,0.00189
1489.50444,0.00102
1487.44427,0.00175
1485.38410,0.00249
1483.32392,0.00234
1481.26375,0.00215
1479.20358,0.00256
1477.14341,0.00256
1475.08324,0.00176
1473.02306,0.00103
1470.96289,0.00231
1468.90272,0.00385
1466.84255,0.00330
1464.78238,0.00259
1462.72220,0.00371
1460.66203,0.00415
1458.60186,0.00245
1456.54169,0.00199
1454.48151,0.00391
1452.42134,0.00462
1450.36117,0.00399
1448.30100,0.00330
1446.24083,0.00338
1444.18065,0.00378
1442.12048,0.00411
1440.06031,0.00425
1438.00014,0.00338
1435.93997,0.00318
1433.87979,0.00437
1431.81962,0.00447
1429.75945,0.00418
1427.69928,0.00470
1425.63910,0.00494
1423.57893,0.00515
1421.51876,0.00527
1419.45859,0.00454
1417.39842,0.00485
1415.33824,0.00570
1413.27807,0.00570
1411.21790,0.00544
1409.15773,0.00553
1407.09756,0.00542
1405.03738,0.00519
1402.97721,0.00545
1400.91704,0.00513
1398.85687,0.00432
1396.79670,0.00393
1394.73652,0.00371
1392.67635,0.00420
1390.61618,0.00448
1388.55601,0.00388
1386.49583,0.00381
1384.43566,0.00447
1382.37549,0.00465
1380.31532,0.00449
1378.25515,0.00451
1376.19497,0.00435
1374.13480,0.00407
1372.07463,0.00433
1370.01446,0.00434
1367.95429,0.00405
1365.89411,0.00386
1363.83394,0.00340
1361.77377,0.00335
1359.71360,0.00375
1357.65343,0.00362
1355.59325,0.00315
1353.53308,0.00284
1351.47291,0.00265
1349.41274,0.00255
1347.35256,0.00264
1345.29239,0.00273
1343.23222,0.00263
1341.17205,0.00221
1339.11188,0.00197
1337.05170,0.00225
1334.99153,0.00241
1332.93136,0.00230
1330.87119,0.00216
1328.81102,0.00212
1326.75084,0.00216
1324.69067,0.00227
1322.63050,0.00234
1320.57033,0.00224
1318.51015,0.00217
1316.44998,0.00223
1314.38981,0.00209
1312.32964,0.00198
1310.26947,0.00209
1308.20929,0.00213
1306.14912,0.00207
1304.08895,0.00206
1302.02878,0.00215
1299.96861,0.00221
1297.90843,0.00208
1295.84826,0.00194
1293.78809,0.00197
1291.72792,0.00203
1289.66775,0.00201
1287.60757,0.00211
1285.54740,0.00232
1283.48723,0.00245
1281.42706,0.00257
1279.36688,0.00273
1277.30671,0.00278
1275.24654,0.00267
1273.18637,0.00243
1271.12620,0.00232
1269.06602,0.00248
1267.00585,0.00265
1264.94568,0.00269
1262.88551,0.00266
1260.82534,0.00269
1258.76516,0.00292
1256.70499,0.00312
1254.64482,0.00315
1252.58465,0.00316
1250.52447,0.00309
1248.46430,0.00284
1246.40413,0.00256
1244.34396,0.00237
1242.28379,0.00231
1240.22361,0.00240
1238.16344,0.00242
1236.10327,0.00227
1234.04310,0.00211
1231.98293,0.00196
1229.92275,0.00181
1227.86258,0.00169
1225.80241,0.00152
1223.74224,0.00129
1221.68207,0.00119
1219.62189,0.00121
1217.56172,0.00114
1215.50155,0.00096
1213.44138,0.00080
1211.38120,0.00067
1209.32103,0.00051
1207.26086,0.00036
1205.20069,0.00025
1203.14052,0.00014
1201.08034,0.00005
1199.02017,0.00000
1196.96000,-0.00003
1194.89983,-0.00004
1192.83966,-0.00005
1190.77948,0.00008
1188.71931,0.00044
1186.65914,0.00068
1184.59897,0.00085
1182.53880,0.00125
1180.47862,0.00166
1178.41845,0.00194
1176.35828,0.00239
1174.29811,0.00309
1172.23793,0.00386
1170.17776,0.00455
1168.11759,0.00505
1166.05742,0.00552
1163.99725,0.00613
1161.93707,0.00681
1159.87690,0.00757
1157.81673,0.00831
1155.75656,0.00883
1153.69639,0.00926
1151.63621,0.00968
1149.57604,0.01004
1147.51587,0.01055
1145.45570,0.01132
1143.39552,0.01206
1141.33535,0.01254
1139.27518,0.01297
1137.21501,0.01355
1135.15484,0.01428
1133.09466,0.01500
1131.03449,0.01579
1128.97432,0.01672
1126.91415,0.01750
1124.85398,0.01809
1122.79380,0.01875
1120.73363,0.01951
1118.67346,0.02037
1116.61329,0.02134
1114.55312,0.02235
1112.49294,0.02330
1110.43277,0.02435
1108.37260,0.02547
1106.31243,0.02643
1104.25225,0.02740
1102.19208,0.02842
1100.13191,0.02933
1098.07174,0.03021
1096.01157,0.03111
1093.95139,0.03213
1091.89122,0.03313
1089.83105,0.03386
1087.77088,0.03460
1085.71071,0.03548
1083.65053,0.03618
1081.59036,0.03675
1079.53019,0.03744
1077.47002,0.03819
1075.40985,0.03871
1073.34967,0.03900
1071.28950,0.03934
1069.22933,0.03970
1067.16916,0.03980
1065.10898,0.03976
1063.04881,0.03978
1060.98864,0.03982
1058.92847,0.03955
1056.86830,0.03892
1054.80812,0.03836
1052.74795,0.03802
1050.68778,0.03761
1048.62761,0.03702
1046.56744,0.03627
1044.50726,0.03544
1042.44709,0.03469
1040.38692,0.03408
1038.32675,0.03341
1036.26657,0.03255
1034.20640,0.03160
1032.14623,0.03072
1030.08606,0.02999
1028.02589,0.02926
1025.96571,0.02847
1023.90554,0.02773
1021.84537,0.02696
1019.78520,0.02601
1017.72503,0.02495
1015.66485,0.02411
1013.60468,0.02340
1011.54451,0.02264
1009.48434,0.02210
1007.42417,0.02185
1005.36399,0.02159
1003.30382,0.02130
1001.24365,0.02119
999.18348,0.02130
997.12330,0.02161
995.06313,0.02209
993.00296,0.02265
990.94279,0.02322
988.88262,0.02368
986.82244,0.02401
984.76227,0.02405
982.70210,0.02376
980.64193,0.02341
978.58176,0.02276
976.52158,0.02159
974.46141,0.02044
972.40124,0.01952
970.34107,0.01848
968.28089,0.01728
966.22072,0.01614
964.16055,0.01511
962.10038,0.01395
960.04021,0.01252
957.98003,0.01141
955.91986,0.01091
953.85969,0.01043
951.79952,0.00971
949.73935,0.00915
947.67917,0.00898
945.61900,0.00894
943.55883,0.00861
941.49866,0.00807
939.43849,0.00774
937.37831,0.00756
935.31814,0.00733
933.25797,0.00719
931.19780,0.00709
929.13762,0.00702
927.07745,0.00705
925.01728,0.00700
922.95711,0.00667
920.89694,0.00610
918.83676,0.00561
916.77659,0.00543
914.71642,0.00517
912.65625,0.00473
910.59608,0.00452
908.53590,0.00444
906.47573,0.00413
904.41556,0.00376
902.35539,0.00386
900.29522,0.00438
898.23504,0.00468
896.17487,0.00465
894.11470,0.00461
892.05453,0.00464
889.99435,0.00468
887.93418,0.00486
885.87401,0.00527
883.81384,0.00562
881.75367,0.00564
879.69349,0.00566
877.63332,0.00599
875.57315,0.00645
873.51298,0.00675
871.45281,0.00696
869.39263,0.00709
867.33246,0.00700
865.27229,0.00685
863.21212,0.00696
861.15194,0.00728
859.09177,0.00738
857.03160,0.00720
854.97143,0.00718
852.91126,0.00751
850.85108,0.00783
848.79091,0.00758
846.73074,0.00667
844.67057,0.00581
842.61040,0.00561
840.55022,0.00573
838.49005,0.00542
836.42988,0.00468
834.36971,0.00416
832.30954,0.00390
830.24936,0.00377
828.18919,0.00390
826.12902,0.00389
824.06885,0.00328
822.00867,0.00266
819.94850,0.00280
817.88833,0.00305
815.82816,0.00267
813.76799,0.00219
811.70781,0.00227
809.64764,0.00253
807.58747,0.00253
805.52730,0.00237
803.46713,0.00216
801.40695,0.00160
799.34678,0.00085
797.28661,0.00058
795.22644,0.00084
793.16627,0.00116
791.10609,0.00134
789.04592,0.00154
786.98575,0.00181
784.92558,0.00186
782.86540,0.00157
780.80523,0.00156
778.74506,0.00204
776.68489,0.00209
774.62472,0.00134
772.56454,0.00089
770.50437,0.00114
768.44420,0.00134
766.38403,0.00139
764.32386,0.00150
762.26368,0.00156
760.20351,0.00162
758.14334,0.00147
756.08317,0.00133
754.02299,0.00151
751.96282,0.00114
749.90265,0.00036
747.84248,0.00031
745.78231,0.00072
743.72213,0.00080
741.66196,0.00086
739.60179,0.00131
737.54162,0.00185
735.48145,0.00214
733.42127,0.00218
731.36110,0.00221
729.30093,0.00227
727.24076,0.00182
725.18059,0.00114
723.12041,0.00143
721.06024,0.00238
719.00007,0.00282
716.93990,0.00287
714.87972,0.00245
712.81955,0.00176
710.75938,0.00189
708.69921,0.00274
706.63904,0.00299
704.57886,0.00248
702.51869,0.00239
700.45852,0.00301
698.39835,0.00337
696.33818,0.00314
694.27800,0.00295
692.21783,0.00304
690.15766,0.00299
688.09749,0.00271
686.03731,0.00250
683.97714,0.00226
681.91697,0.00178
679.85680,0.00091
677.79663,0.00000
675.73645,0.00013
673.67628,0.00092
671.61611,0.00105
669.55594,0.00294
667.49577,0.00493
665.43559,0.00192
663.37542,0.00145
661.31525,0.00143
659.25508,0.00112
657.19491,0.00094
655.13473,0.00093
653.07456,0.00070
651.01439,0.00023
648.95422,0.00044
646.89404,0.00127
644.83387,0.00183
642.77370,0.00206
640.71353,0.00263
638.65336,0.00305
636.59318,0.00271
634.53301,0.00234
632.47284,0.00276
630.41267,0.00390
628.35250,0.00528
626.29232,0.00615
624.23215,0.00543
622.17198,0.00332
620.11181,0.00234
618.05164,0.00242
615.99146,0.00151
613.93129,-0.00003
611.87112,-0.00163
609.81095,-0.00189
607.75077,-0.00061
605.69060,-0.00004
603.63043,-0.00096
601.57026,-0.00156
599.51009,0.00000
