3996.73391,0.00064
3994.67373,0.00095
3992.61356,0.00134
3990.55339,0.00143
3988.49322,0.00152
3986.43305,0.00180
3984.37287,0.00199
3982.31270,0.00185
3980.25253,0.00151
3978.19236,0.00136
3976.13219,0.00159
3974.07201,0.00188
3972.01184,0.00188
3969.95167,0.00175
3967.89150,0.00171
3965.83133,0.00169
3963.77115,0.00171
3961.71098,0.00169
3959.65081,0.00145
3957.59064,0.00125
3955.53046,0.00120
3953.47029,0.00103
3951.41012,0.00061
3949.34995,0.00014
3947.28978,0.00000
3945.22960,0.00020
3943.16943,0.00054
3941.10926,0.00090
3939.04909,0.00109
3936.98892,0.00118
3934.92874,0.00158
3932.86857,0.00226
3930.80840,0.00252
3928.74823,0.00216
3926.68805,0.00165
3924.62788,0.00126
3922.56771,0.00111
3920.50754,0.00128
3918.44737,0.00161
3916.38719,0.00190
3914.32702,0.00211
3912.26685,0.00230
3910.20668,0.00221
3908.14651,0.00173
3906.08633,0.00147
3904.02616,0.00189
3901.96599,0.00202
3899.90582,0.00122
3897.84565,0.00065
3895.78547,0.00099
3893.72530,0.00169
3891.66513,0.00204
3889.60496,0.00178
3887.54478,0.00126
3885.48461,0.00120
3883.42444,0.00182
3881.36427,0.00215
3879.30410,0.00173
3877.24392,0.00149
3875.18375,0.00187
3873.12358,0.00219
3871.06341,0.00197
3869.00324,0.00173
3866.94306,0.00180
3864.88289,0.00184
3862.82272,0.00162
3860.76255,0.00142
3858.70237,0.00147
3856.64220,0.00145
3854.58203,0.00111
3852.52186,0.00070
3850.46169,0.00089
3848.40151,0.00160
3846.34134,0.00205
3844.28117,0.00187
3842.22100,0.00150
3840.16083,0.00166
3838.10065,0.00232
3836.04048,0.00269
3833.98031,0.00238
3831.92014,0.00188
3829.85997,0.00174
3827.79979,0.00193
3825.73962,0.00188
3823.67945,0.00136
3821.61928,0.00065
3819.55910,0.00012
3817.49893,0.00000
3815.43876,0.00025
3813.37859,0.00072
3811.31842,0.00106
3809.25824,0.00123
3807.19807,0.00148
3805.13790,0.00168
3803.07773,0.00149
3801.01756,0.00104
3798.95738,0.00107
3796.89721,0.00169
3794.83704,0.00193
3792.77687,0.00135
3790.71670,0.00092
3788.65652,0.00142
3786.59635,0.00215
3784.53618,0.00221
3782.47601,0.00195
3780.41583,0.00189
3778.35566,0.00157
3776.29549,0.00100
3774.23532,0.00083
3772.17515,0.00095
3770.11497,0.00102
3768.05480,0.00118
3765.99463,0.00151
3763.93446,0.00177
3761.87429,0.00184
3759.81411,0.00172
3757.75394,0.00125
3755.69377,0.00054
3753.63360,0.00000
3751.57342,0.00015
3749.51325,0.00102
3747.45308,0.00147
3745.39291,0.00102
3743.33274,0.00068
3741.27256,0.00112
3739.21239,0.00147
3737.15222,0.00152
3735.09205,0.00186
3733.03188,0.00194
3730.97170,0.00148
3728.91153,0.00125
3726.85136,0.00121
3724.79119,0.00095
3722.73102,0.00059
3720.67084,0.00025
3718.61067,0.00001
3716.55050,0.00020
3714.49033,0.00072
3712.43015,0.00107
3710.36998,0.00095
3708.30981,0.00074
3706.24964,0.00074
3704.18947,0.00078
3702.12929,0.00091
3700.06912,0.00129
3698.00895,0.00166
3695.94878,0.00176
3693.88861,0.00164
3691.82843,0.00155
3689.76826,0.00132
3687.70809,0.00088
3685.64792,0.00080
3683.58775,0.00118
3681.52757,0.00175
3679.46740,0.00249
3677.40723,0.00304
3675.34706,0.00270
3673.28688,0.00199
3671.22671,0.00194
3669.16654,0.00177
3667.10637,0.00110
3665.04620,0.00088
3662.98602,0.00111
3660.92585,0.00124
3658.86568,0.00130
3656.80551,0.00168
3654.74534,0.00241
3652.68516,0.00313
3650.62499,0.00372
3648.56482,0.00416
3646.50465,0.00416
3644.44447,0.00379
3642.38430,0.00354
3640.32413,0.00362
3638.26396,0.00382
3636.20379,0.00401
3634.14361,0.00434
3632.08344,0.00511
3630.02327,0.00622
3627.96310,0.00664
3625.90293,0.00588
3623.84275,0.00509
3621.78258,0.00508
3619.72241,0.00595
3617.66224,0.00703
3615.60207,0.00745
3613.54189,0.00740
3611.48172,0.00744
3609.42155,0.00771
3607.36138,0.00746
3605.30120,0.00655
3603.24103,0.00616
3601.18086,0.00694
3599.12069,0.00832
3597.06052,0.00916
3595.00034,0.00923
3592.94017,0.00938
3590.88000,0.00987
3588.81983,0.00988
3586.75966,0.00935
3584.69948,0.00924
3582.63931,0.00978
3580.57914,0.01049
3578.51897,0.01120
3576.45879,0.01204
3574.39862,0.01292
3572.33845,0.01365
3570.27828,0.01401
3568.21811,0.01369
3566.15793,0.01298
3564.09776,0.01282
3562.03759,0.01326
3559.97742,0.01374
3557.91725,0.01421
3555.85707,0.01489
3553.79690,0.01551
3551.73673,0.01583
3549.67656,0.01646
3547.61639,0.01772
3545.55621,0.01869
3543.49604,0.01878
3541.43587,0.01870
3539.37570,0.01892
3537.31552,0.01937
3535.25535,0.01987
3533.19518,0.02033
3531.13501,0.02069
3529.07484,0.02101
3527.01466,0.02157
3524.95449,0.02226
3522.89432,0.02265
3520.83415,0.02279
3518.77398,0.02298
3516.71380,0.02316
3514.65363,0.02331
3512.59346,0.02362
3510.53329,0.02407
3508.47312,0.02457
3506.41294,0.02529
3504.35277,0.02618
3502.29260,0.02665
3500.23243,0.02652
3498.17225,0.02637
3496.11208,0.02656
3494.05191,0.02711
3491.99174,0.02788
3489.93157,0.02856
3487.87139,0.02901
3485.81122,0.02950
3483.75105,0.03015
3481.69088,0.03071
3479.63071,0.03115
3477.57053,0.03165
3475.51036,0.03189
3473.45019,0.03181
3471.39002,0.03211
3469.32984,0.03279
3467.26967,0.03324
3465.20950,0.03358
3463.14933,0.03390
3461.08916,0.03404
3459.02898,0.03422
3456.96881,0.03454
3454.90864,0.03491
3452.84847,0.03527
3450.78830,0.03567
3448.72812,0.03606
3446.66795,0.03635
3444.60778,0.03688
3442.54761,0.03761
3440.48744,0.03785
3438.42726,0.03773
3436.36709,0.03790
3434.30692,0.03833
3432.24675,0.03885
3430.18657,0.03944
3428.12640,0.03987
3426.06623,0.04001
3424.00606,0.04006
3421.94589,0.04024
3419.88571,0.04074
3417.82554,0.04143
3415.76537,0.04195
3413.70520,0.04224
3411.64503,0.04243
3409.58485,0.04256
3407.52468,0.04272
3405.46451,0.04319
3403.40434,0.04374
3401.34416,0.04408
3399.28399,0.04442
3397.22382,0.04492
3395.16365,0.04544
3393.10348,0.04574
3391.04330,0.04568
3388.98313,0.04561
3386.92296,0.04608
3384.86279,0.04690
3382.80262,0.04724
3380.74244,0.04694
3378.68227,0.04650
3376.62210,0.04634
3374.56193,0.04675
3372.50176,0.04739
3370.44158,0.04769
3368.38141,0.04774
3366.32124,0.04791
3364.26107,0.04812
3362.20089,0.04813
3360.14072,0.04805
3358.08055,0.04832
3356.02038,0.04897
3353.96021,0.04968
3351.90003,0.05029
3349.83986,0.05046
3347.77969,0.05020
3345.71952,0.05012
3343.65935,0.05017
3341.59917,0.05026
3339.53900,0.05062
3337.47883,0.05098
3335.41866,0.05116
3333.35849,0.05132
3331.29831,0.05149
3329.23814,0.05171
3327.17797,0.05198
3325.11780,0.05240
3323.05762,0.05273
3320.99745,0.05254
3318.93728,0.05215
3316.87711,0.05203
3314.81694,0.05217
3312.75676,0.05255
3310.69659,0.05311
3308.63642,0.05347
3306.57625,0.05344
3304.51608,0.05327
3302.45590,0.05313
3300.39573,0.05319
3298.33556,0.05347
3296.27539,0.05376
3294.21521,0.05383
3292.15504,0.05383
3290.09487,0.05409
3288.03470,0.05446
3285.97453,0.05440
3283.91435,0.05396
3281.85418,0.05349
3279.79401,0.05303
3277.73384,0.05295
3275.67367,0.05358
3273.61349,0.05444
3271.55332,0.05461
3269.49315,0.05414
3267.43298,0.05396
3265.37281,0.05412
3263.31263,0.05409
3261.25246,0.05382
3259.19229,0.05347
3257.13212,0.05342
3255.07194,0.05383
3253.01177,0.05402
3250.95160,0.05339
3248.89143,0.05248
3246.83126,0.05194
3244.77108,0.05176
3242.71091,0.05174
3240.65074,0.05178
3238.59057,0.05174
3236.53040,0.05152
3234.47022,0.05121
3232.41005,0.05102
3230.34988,0.05109
3228.28971,0.05153
3226.22954,0.05210
3224.16936,0.05203
3222.10919,0.05123
3220.04902,0.05052
3217.98885,0.05037
3215.92867,0.05051
3213.86850,0.05046
3211.80833,0.05013
3209.74816,0.04977
3207.68799,0.04968
3205.62781,0.04987
3203.56764,0.04985
3201.50747,0.04932
3199.44730,0.04863
3197.38713,0.04833
3195.32695,0.04856
3193.26678,0.04878
3191.20661,0.04833
3189.14644,0.04740
3187.08626,0.04672
3185.02609,0.04650
3182.96592,0.04645
3180.90575,0.04640
3178.84558,0.04652
3176.78540,0.04683
3174.72523,0.04703
3172.66506,0.04686
3170.60489,0.04636
3168.54472,0.04572
3166.48454,0.04527
3164.42437,0.04513
3162.36420,0.04499
3160.30403,0.04465
3158.24386,0.04442
3156.18368,0.04443
3154.12351,0.04442
3152.06334,0.04405
3150.00317,0.04346
3147.94299,0.04311
3145.88282,0.04282
3143.82265,0.04252
3141.76248,0.04259
3139.70231,0.04258
3137.64213,0.04185
3135.58196,0.04102
3133.52179,0.04075
3131.46162,0.04100
3129.40145,0.04137
3127.34127,0.04129
3125.28110,0.04066
3123.22093,0.04010
3121.16076,0.03991
3119.10058,0.03991
3117.04041,0.03995
3114.98024,0.03982
3112.92007,0.03943
3110.85990,0.03922
3108.79972,0.03932
3106.73955,0.03924
3104.67938,0.03879
3102.61921,0.03835
3100.55904,0.03814
3098.49886,0.03806
3096.43869,0.03787
3094.37852,0.03750
3092.31835,0.03720
3090.25818,0.03715
3088.19800,0.03710
3086.13783,0.03689
3084.07766,0.03671
3082.01749,0.03651
3079.95731,0.03628
3077.89714,0.03618
3075.83697,0.03615
3073.77680,0.03609
3071.71663,0.03602
3069.65645,0.03578
3067.59628,0.03540
3065.53611,0.03526
3063.47594,0.03531
3061.41577,0.03513
3059.35559,0.03487
3057.29542,0.03471
3055.23525,0.03448
3053.17508,0.03407
3051.11491,0.03361
3049.05473,0.03325
3046.99456,0.03302
3044.93439,0.03304
3042.87422,0.03320
3040.81404,0.03299
3038.75387,0.03246
3036.69370,0.03215
3034.63353,0.03205
3032.57336,0.03171
3030.51318,0.03110
3028.45301,0.03065
3026.39284,0.03071
3024.33267,0.03101
3022.27250,0.03113
3020.21232,0.03099
3018.15215,0.03069
3016.09198,0.03034
3014.03181,0.03007
3011.97163,0.02996
3009.91146,0.02993
3007.85129,0.02981
3005.79112,0.02951
3003.73095,0.02910
3001.67077,0.02874
2999.61060,0.02857
2997.55043,0.02859
2995.49026,0.02856
2993.43009,0.02837
2991.36991,0.02836
2989.30974,0.02857
2987.24957,0.02885
2985.18940,0.02917
2983.12923,0.02941
2981.06905,0.02973
2979.00888,0.03031
2976.94871,0.03095
2974.88854,0.03162
2972.82836,0.03232
2970.76819,0.03283
2968.70802,0.03347
2966.64785,0.03447
2964.58768,0.03569
2962.52750,0.03717
2960.46733,0.03843
2958.40716,0.03906
2956.34699,0.03952
2954.28682,0.04020
2952.22664,0.04111
2950.16647,0.04223
2948.10630,0.04355
2946.04613,0.04492
2943.98596,0.04645
2941.92578,0.04851
2939.86561,0.05082
2937.80544,0.05288
2935.74527,0.05501
2933.68509,0.05773
2931.62492,0.06060
2929.56475,0.06291
2927.50458,0.06486
2925.44441,0.06688
2923.38423,0.06883
2921.32406,0.07036
2919.26389,0.07119
2917.20372,0.07086
2915.14355,0.06886
2913.08337,0.06546
2911.02320,0.06178
2908.96303,0.05866
2906.90286,0.05629
2904.84268,0.05442
2902.78251,0.05279
2900.72234,0.05141
2898.66217,0.05026
2896.60200,0.04928
2894.54182,0.04821
2892.48165,0.04689
2890.42148,0.04549
2888.36131,0.04421
2886.30114,0.04320
2884.24096,0.04243
2882.18079,0.04191
2880.12062,0.04163
2878.06045,0.04148
2876.00028,0.04142
2873.94010,0.04156
2871.87993,0.04168
2869.81976,0.04165
2867.75959,0.04185
2865.69941,0.04248
2863.63924,0.04342
2861.57907,0.04483
2859.51890,0.04690
2857.45873,0.04956
2855.39855,0.05247
2853.33838,0.05499
2851.27821,0.05668
2849.21804,0.05655
2847.15787,0.05356
2845.09769,0.04875
2843.03752,0.04404
2840.97735,0.04039
2838.91718,0.03789
2836.85700,0.03612
2834.79683,0.03462
2832.73666,0.03338
2830.67649,0.03249
2828.61632,0.03177
2826.55614,0.03104
2824.49597,0.03032
2822.43580,0.02974
2820.37563,0.02929
2818.31546,0.02887
2816.25528,0.02847
2814.19511,0.02817
2812.13494,0.02784
2810.07477,0.02737
2808.01460,0.02703
2805.95442,0.02683
2803.89425,0.02654
2801.83408,0.02628
2799.77391,0.02627
2797.71373,0.02630
2795.65356,0.02613
2793.59339,0.02576
2791.53322,0.02517
2789.47305,0.02456
2787.41287,0.02424
2785.35270,0.02417
2783.29253,0.02402
2781.23236,0.02372
2779.17219,0.02351
2777.11201,0.02352
2775.05184,0.02373
2772.99167,0.02391
2770.93150,0.02393
2768.87133,0.02385
2766.81115,0.02365
2764.75098,0.02325
2762.69081,0.02295
2760.63064,0.02298
2758.57046,0.02307
2756.51029,0.02313
2754.45012,0.02311
2752.38995,0.02286
2750.32978,0.02250
2748.26960,0.02213
2746.20943,0.02201
2744.14926,0.02224
2742.08909,0.02236
2740.02892,0.02226
2737.96874,0.02211
2735.90857,0.02194
2733.84840,0.02175
2731.78823,0.02166
2729.72805,0.02187
2727.66788,0.02217
2725.60771,0.02210
2723.54754,0.02174
2721.48737,0.02147
2719.42719,0.02143
2717.36702,0.02134
2715.30685,0.02109
2713.24668,0.02108
2711.18651,0.02133
2709.12633,0.02154
2707.06616,0.02162
2705.00599,0.02139
2702.94582,0.02091
2700.88565,0.02051
2698.82547,0.02036
2696.76530,0.02042
2694.70513,0.02060
2692.64496,0.02079
2690.58478,0.02085
2688.52461,0.02076
2686.46444,0.02040
2684.40427,0.01996
2682.34410,0.01990
2680.28392,0.02012
2678.22375,0.02019
2676.16358,0.02009
2674.10341,0.01996
2672.04324,0.01985
2669.98306,0.01973
2667.92289,0.01937
2665.86272,0.01906
2663.80255,0.01931
2661.74238,0.01961
2659.68220,0.01952
2657.62203,0.01925
2655.56186,0.01887
2653.50169,0.01866
2651.44151,0.01878
2649.38134,0.01872
2647.32117,0.01834
2645.26100,0.01806
2643.20083,0.01797
2641.14065,0.01789
2639.08048,0.01777
2637.02031,0.01761
2634.96014,0.01733
2632.89997,0.01709
2630.83979,0.01723
2628.77962,0.01759
2626.71945,0.01756
2624.65928,0.01746
2622.59910,0.01745
2620.53893,0.01716
2618.47876,0.01699
2616.41859,0.01707
2614.35842,0.01696
2612.29824,0.01668
2610.23807,0.01645
2608.17790,0.01605
2606.11773,0.01537
2604.05756,0.01504
2601.99738,0.01510
2599.93721,0.01508
2597.87704,0.01495
2595.81687,0.01478
2593.75670,0.01476
2591.69652,0.01493
2589.63635,0.01522
2587.57618,0.01559
2585.51601,0.01576
2583.45583,0.01548
2581.39566,0.01513
2579.33549,0.01517
2577.27532,0.01540
2575.21515,0.01520
2573.15497,0.01481
2571.09480,0.01465
2569.03463,0.01429
2566.97446,0.01383
2564.91429,0.01390
2562.85411,0.01421
2560.79394,0.01415
2558.73377,0.01402
2556.67360,0.01395
2554.61342,0.01363
2552.55325,0.01344
2550.49308,0.01344
2548.43291,0.01332
2546.37274,0.01359
2544.31256,0.01420
2542.25239,0.01436
2540.19222,0.01403
2538.13205,0.01365
2536.07188,0.01337
2534.01170,0.01336
2531.95153,0.01351
2529.89136,0.01360
2527.83119,0.01368
2525.77102,0.01359
2523.71084,0.01328
2521.65067,0.01307
2519.59050,0.01303
2517.53033,0.01281
2515.47015,0.01246
2513.40998,0.01263
2511.34981,0.01309
2509.28964,0.01296
2507.22947,0.01235
2505.16929,0.01192
2503.10912,0.01179
2501.04895,0.01169
2498.98878,0.01154
2496.92861,0.01153
2494.86843,0.01147
2492.80826,0.01115
2490.74809,0.01121
2488.68792,0.01177
2486.62775,0.01219
2484.56757,0.01211
2482.50740,0.01201
2480.44723,0.01222
2478.38706,0.01208
2476.32688,0.01134
2474.26671,0.01066
2472.20654,0.01057
2470.14637,0.01099
2468.08620,0.01127
2466.02602,0.01118
2463.96585,0.01136
2461.90568,0.01179
2459.84551,0.01177
2457.78534,0.01107
2455.72516,0.01048
2453.66499,0.01066
2451.60482,0.01096
2449.54465,0.01061
2447.48447,0.00996
2445.42430,0.00963
2443.36413,0.00940
2441.30396,0.00927
2439.24379,0.00967
2437.18361,0.01018
2435.12344,0.01017
2433.06327,0.00985
2431.00310,0.00992
2428.94293,0.01054
2426.88275,0.01085
2424.82258,0.01029
2422.76241,0.00956
2420.70224,0.00930
2418.64207,0.00930
2416.58189,0.00934
2414.52172,0.00922
2412.46155,0.00908
2410.40138,0.00926
2408.34120,0.00957
2406.28103,0.00954
2404.22086,0.00937
2402.16069,0.00939
2400.10052,0.00929
2398.04034,0.00900
2395.98017,0.00878
2393.92000,0.00866
2391.85983,0.00861
2389.79966,0.00866
2387.73948,0.00875
2385.67931,0.00896
2383.61914,0.00921
2381.55897,0.00929
2379.49880,0.00901
2377.43862,0.00866
2375.37845,0.00883
2373.31828,0.00935
2371.25811,0.00854
2369.19793,0.00657
2367.13776,0.00658
2365.07759,0.00894
2363.01742,0.00914
2360.95725,0.00742
2358.89707,0.00578
2356.83690,0.00579
2354.77673,0.00611
2352.71656,0.00709
2350.65639,0.00979
2348.59621,0.01118
2346.53604,0.00837
2344.47587,0.00720
2342.41570,0.00757
2340.35552,0.00811
2338.29535,0.00873
2336.23518,0.00916
2334.17501,0.00888
2332.11484,0.00790
2330.05466,0.00740
2327.99449,0.00744
2325.93432,0.00826
2323.87415,0.00830
2321.81398,0.00821
2319.75380,0.00825
2317.69363,0.00891
2315.63346,0.00908
2313.57329,0.00914
2311.51312,0.00940
2309.45294,0.00935
2307.39277,0.00900
2305.33260,0.00855
2303.27243,0.00822
2301.21225,0.00801
2299.15208,0.00792
2297.09191,0.00772
2295.03174,0.00747
2292.97157,0.00743
2290.91139,0.00740
2288.85122,0.00714
2286.79105,0.00705
2284.73088,0.00741
2282.67071,0.00759
2280.61053,0.00709
2278.55036,0.00676
2276.49019,0.00706
2274.43002,0.00726
2272.36984,0.00704
2270.30967,0.00668
2268.24950,0.00689
2266.18933,0.00786
2264.12916,0.00812
2262.06898,0.00721
2260.00881,0.00639
2257.94864,0.00611
2255.88847,0.00603
2253.82830,0.00608
2251.76812,0.00626
2249.70795,0.00647
2247.64778,0.00658
2245.58761,0.00627
2243.52744,0.00539
2241.46726,0.00438
2239.40709,0.00436
2237.34692,0.00600
2235.28675,0.00787
2233.22657,0.00782
2231.16640,0.00650
2229.10623,0.00631
2227.04606,0.00654
2224.98589,0.00535
2222.92571,0.00404
2220.86554,0.00405
2218.80537,0.00440
2216.74520,0.00481
2214.68503,0.00524
2212.62485,0.00447
2210.56468,0.00334
2208.50451,0.00335
2206.44434,0.00367
2204.38417,0.00312
2202.32399,0.00256
2200.26382,0.00338
2198.20365,0.00467
2196.14348,0.00503
2194.08330,0.00531
2192.02313,0.00674
2189.96296,0.00828
2187.90279,0.00890
2185.84262,0.00909
2183.78244,0.00839
2181.72227,0.00624
2179.66210,0.00457
2177.60193,0.00484
2175.54176,0.00474
2173.48158,0.00317
2171.42141,0.00249
2169.36124,0.00297
2167.30107,0.00291
2165.24089,0.00207
2163.18072,0.00131
2161.12055,0.00095
2159.06038,0.00066
2157.00021,0.00073
2154.94003,0.00175
2152.87986,0.00295
2150.81969,0.00359
2148.75952,0.00415
2146.69935,0.00457
2144.63917,0.00448
2142.57900,0.00389
2140.51883,0.00325
2138.45866,0.00335
2136.39849,0.00380
2134.33831,0.00372
2132.27814,0.00325
2130.21797,0.00298
2128.15780,0.00359
2126.09762,0.00442
2124.03745,0.00420
2121.97728,0.00380
2119.91711,0.00423
2117.85694,0.00490
2115.79676,0.00504
2113.73659,0.00485
2111.67642,0.00471
2109.61625,0.00460
2107.55608,0.00489
2105.49590,0.00568
2103.43573,0.00649
2101.37556,0.00657
2099.31539,0.00547
2097.25521,0.00394
2095.19504,0.00348
2093.13487,0.00436
2091.07470,0.00511
2089.01453,0.00518
2086.95435,0.00534
2084.89418,0.00558
2082.83401,0.00529
2080.77384,0.00454
2078.71367,0.00397
2076.65349,0.00385
2074.59332,0.00385
2072.53315,0.00446
2070.47298,0.00576
2068.41281,0.00668
2066.35263,0.00667
2064.29246,0.00538
2062.23229,0.00346
2060.17212,0.00199
2058.11194,0.00106
2056.05177,0.00093
2053.99160,0.00228
2051.93143,0.00415
2049.87126,0.00497
2047.81108,0.00484
2045.75091,0.00419
2043.69074,0.00298
2041.63057,0.00170
2039.57040,0.00105
2037.51022,0.00122
2035.45005,0.00184
2033.38988,0.00195
2031.32971,0.00216
2029.26954,0.00355
2027.20936,0.00459
2025.14919,0.00334
2023.08902,0.00136
2021.02885,0.00162
2018.96867,0.00301
2016.90850,0.00255
2014.84833,0.00074
2012.78816,0.00077
2010.72799,0.00328
2008.66781,0.00486
2006.60764,0.00383
2004.54747,0.00305
2002.48730,0.00338
2000.42713,0.00320
1998.36695,0.00295
1996.30678,0.00340
1994.24661,0.00414
1992.18644,0.00457
1990.12626,0.00411
1988.06609,0.00328
1986.00592,0.00282
1983.94575,0.00284
1981.88558,0.00348
1979.82540,0.00441
1977.76523,0.00377
1975.70506,0.00116
1973.64489,0.00000
1971.58472,0.00203
1969.52454,0.00409
1967.46437,0.00327
1965.40420,0.00154
1963.34403,0.00159
1961.28386,0.00189
1959.22368,0.00184
1957.16351,0.00309
1955.10334,0.00446
1953.04317,0.00394
1950.98299,0.00249
1948.92282,0.00155
1946.86265,0.00138
1944.80248,0.00145
1942.74231,0.00129
1940.68213,0.00149
1938.62196,0.00245
1936.56179,0.00346
1934.50162,0.00349
1932.44145,0.00269
1930.38127,0.00198
1928.32110,0.00165
1926.26093,0.00143
1924.20076,0.00119
1922.14059,0.00100
1920.08041,0.00076
1918.02024,0.00063
1915.96007,0.00085
1913.89990,0.00107
1911.83972,0.00110
1909.77955,0.00140
1907.71938,0.00215
1905.65921,0.00282
1903.59904,0.00294
1901.53886,0.00229
1899.47869,0.00142
1897.41852,0.00094
1895.35835,0.00081
1893.29818,0.00103
1891.23800,0.00158
1889.17783,0.00181
1887.11766,0.00153
1885.05749,0.00132
1882.99731,0.00135
1880.93714,0.00146
1878.87697,0.00159
1876.81680,0.00159
1874.75663,0.00143
1872.69645,0.00120
1870.63628,0.00086
1868.57611,0.00054
1866.51594,0.00063
1864.45577,0.00114
1862.39559,0.00157
1860.33542,0.00145
1858.27525,0.00093
1856.21508,0.00064
1854.15491,0.00078
1852.09473,0.00092
1850.03456,0.00096
1847.97439,0.00094
1845.91422,0.00067
1843.85404,0.00033
1841.79387,0.00018
1839.73370,0.00017
1837.67353,0.00030
1835.61336,0.00069
1833.55318,0.00120
1831.49301,0.00136
1829.43284,0.00105
1827.37267,0.00071
1825.31250,0.00048
1823.25232,0.00019
1821.19215,0.00000
1819.13198,-0.00001
1817.07181,0.00011
1815.01163,0.00032
1812.95146,0.00062
1810.89129,0.00086
1808.83112,0.00079
1806.77095,0.00049
1804.71077,0.00011
1802.65060,-0.00006
1800.59043,0.00004
1798.53026,-0.00004
1796.47009,-0.00027
1794.40991,-0.00014
1792.34974,0.00018
1790.28957,0.00008
1788.22940,-0.00029
1786.16923,-0.00041
1784.10905,-0.00021
1782.04888,0.00000
1779.98871,-0.00010
1777.92854,-0.00021
1775.86836,-0.00012
1773.80819,0.00013
1771.74802,0.00037
1769.68785,0.00062
1767.62768,0.00091
1765.56750,0.00108
1763.50733,0.00109
1761.44716,0.00133
1759.38699,0.00234
1757.32682,0.00385
1755.26664,0.00509
1753.20647,0.00597
1751.14630,0.00725
1749.08613,0.00929
1747.02596,0.01180
1744.96578,0.01472
1742.90561,0.01796
1740.84544,0.02152
1738.78527,0.02532
1736.72509,0.02884
1734.66492,0.03194
1732.60475,0.03428
1730.54458,0.03536
1728.48441,0.03581
1726.42423,0.03605
1724.36406,0.03589
1722.30389,0.03552
1720.24372,0.03563
1718.18355,0.03619
1716.12337,0.03633
1714.06320,0.03622
1712.00303,0.03633
1709.94286,0.03630
1707.88268,0.03567
1705.82251,0.03447
1703.76234,0.03347
1701.70217,0.03306
1699.64200,0.03266
1697.58182,0.03193
1695.52165,0.03115
1693.46148,0.03080
1691.40131,0.03086
1689.34114,0.03103
1687.28096,0.03121
1685.22079,0.03114
1683.16062,0.03069
1681.10045,0.03058
1679.04028,0.03109
1676.98010,0.03185
1674.91993,0.03257
1672.85976,0.03307
1670.79959,0.03336
1668.73941,0.03397
1666.67924,0.03544
1664.61907,0.03737
1662.55890,0.03904
1660.49873,0.04037
1658.43855,0.04188
1656.37838,0.04348
1654.31821,0.04451
1652.25804,0.04483
1650.19787,0.04527
1648.13769,0.04588
1646.07752,0.04638
1644.01735,0.04688
1641.95718,0.04748
1639.89701,0.04815
1637.83683,0.04875
1635.77666,0.04918
1633.71649,0.04983
1631.65632,0.05078
1629.59614,0.05159
1627.53597,0.05200
1625.47580,0.05219
1623.41563,0.05255
1621.35546,0.05314
1619.29528,0.05363
1617.23511,0.05384
1615.17494,0.05396
1613.11477,0.05427
1611.05460,0.05456
1608.99442,0.05456
1606.93425,0.05424
1604.87408,0.05364
1602.81391,0.05279
1600.75373,0.05179
1598.69356,0.05075
1596.63339,0.04961
1594.57322,0.04816
1592.51305,0.04639
1590.45287,0.04452
1588.39270,0.04275
1586.33253,0.04115
1584.27236,0.03980
1582.21219,0.03871
1580.15201,0.03773
1578.09184,0.03651
1576.03167,0.03475
1573.97150,0.03317
1571.91133,0.03228
1569.85115,0.03155
1567.79098,0.03084
1565.73081,0.03031
1563.67064,0.03000
1561.61046,0.02996
1559.55029,0.02999
1557.49012,0.02987
1555.42995,0.03005
1553.36978,0.03056
1551.30960,0.03109
1549.24943,0.03154
1547.18926,0.03198
1545.12909,0.03249
1543.06892,0.03295
1541.00874,0.03293
1538.94857,0.03258
1536.88840,0.03251
1534.82823,0.03229
1532.76805,0.03156
1530.70788,0.03085
1528.64771,0.03033
1526.58754,0.02961
1524.52737,0.02871
1522.46719,0.02798
1520.40702,0.02768
1518.34685,0.02778
1516.28668,0.02796
1514.22651,0.02801
1512.16633,0.02800
1510.10616,0.02770
1508.04599,0.02602
1505.98582,0.02272
1503.92565,0.02054
1501.86547,0.01965
1499.80530,0.01863
1497.74513,0.01689
1495.68496,0.01488
1493.62478,0.01345
1491.56461,0.01248
1489.50444,0.01139
1487.44427,0.01018
1485.38410,0.00942
1483.32392,0.00920
1481.26375,0.00934
1479.20358,0.00976
1477.14341,0.01075
1475.08324,0.01280
1473.02306,0.01575
1470.96289,0.01856
1468.90272,0.02089
1466.84255,0.02324
1464.78238,0.02553
1462.72220,0.02722
1460.66203,0.02839
1458.60186,0.02953
1456.54169,0.03093
1454.48151,0.03251
1452.42134,0.03392
1450.36117,0.03504
1448.30100,0.03589
1446.24083,0.03643
1444.18065,0.03675
1442.12048,0.03692
1440.06031,0.03679
1438.00014,0.03594
1435.93997,0.03435
1433.87979,0.03296
1431.81962,0.03190
1429.75945,0.03066
1427.69928,0.02958
1425.63910,0.02908
1423.57893,0.02898
1421.51876,0.02899
1419.45859,0.02884
1417.39842,0.02856
1415.33824,0.02849
1413.27807,0.02842
1411.21790,0.02800
1409.15773,0.02743
1407.09756,0.02698
1405.03738,0.02682
1402.97721,0.02706
1400.91704,0.02737
1398.85687,0.02738
1396.79670,0.02729
1394.73652,0.02748
1392.67635,0.02792
1390.61618,0.02851
1388.55601,0.02923
1386.49583,0.02993
1384.43566,0.03061
1382.37549,0.03154
1380.31532,0.03277
1378.25515,0.03404
1376.19497,0.03507
1374.13480,0.03567
1372.07463,0.03596
1370.01446,0.03611
1367.95429,0.03604
1365.89411,0.03572
1363.83394,0.03533
1361.77377,0.03505
1359.71360,0.03496
1357.65343,0.03514
1355.59325,0.03559
1353.53308,0.03600
1351.47291,0.03619
1349.41274,0.03629
1347.35256,0.03642
1345.29239,0.03663
1343.23222,0.03710
1341.17205,0.03762
1339.11188,0.03783
1337.05170,0.03806
1334.99153,0.03873
1332.93136,0.03964
1330.87119,0.04060
1328.81102,0.04143
1326.75084,0.04193
1324.69067,0.04230
1322.63050,0.04288
1320.57033,0.04359
1318.51015,0.04422
1316.44998,0.04472
1314.38981,0.04495
1312.32964,0.04464
1310.26947,0.04383
1308.20929,0.04268
1306.14912,0.04116
1304.08895,0.03935
1302.02878,0.03750
1299.96861,0.03570
1297.90843,0.03384
1295.84826,0.03198
1293.78809,0.03043
1291.72792,0.02937
1289.66775,0.02834
1287.60757,0.02718
1285.54740,0.02632
1283.48723,0.02594
1281.42706,0.02579
1279.36688,0.02567
1277.30671,0.02559
1275.24654,0.02564
1273.18637,0.02585
1271.12620,0.02627
1269.06602,0.02699
1267.00585,0.02776
1264.94568,0.02840
1262.88551,0.02893
1260.82534,0.02949
1258.76516,0.03022
1256.70499,0.03095
1254.64482,0.03152
1252.58465,0.03206
1250.52447,0.03269
1248.46430,0.03328
1246.40413,0.03383
1244.34396,0.03455
1242.28379,0.03543
1240.22361,0.03629
1238.16344,0.03704
1236.10327,0.03767
1234.04310,0.03837
1231.98293,0.03925
1229.92275,0.04012
1227.86258,0.04080
1225.80241,0.04129
1223.74224,0.04187
1221.68207,0.04272
1219.62189,0.04350
1217.56172,0.04409
1215.50155,0.04475
1213.44138,0.04542
1211.38120,0.04606
1209.32103,0.04668
1207.26086,0.04725
1205.20069,0.04791
1203.14052,0.04868
1201.08034,0.04934
1199.02017,0.04987
1196.96000,0.05017
1194.89983,0.04998
1192.83966,0.04957
1190.77948,0.04914
1188.71931,0.04867
1186.65914,0.04815
1184.59897,0.04741
1182.53880,0.04662
1180.47862,0.04599
1178.41845,0.04550
1176.35828,0.04518
1174.29811,0.04508
1172.23793,0.04526
1170.17776,0.04561
1168.11759,0.04586
1166.05742,0.04593
1163.99725,0.04590
1161.93707,0.04549
1159.87690,0.04462
1157.81673,0.04356
1155.75656,0.04254
1153.69639,0.04154
1151.63621,0.04037
1149.57604,0.03896
1147.51587,0.03749
1145.45570,0.03617
1143.39552,0.03490
1141.33535,0.03352
1139.27518,0.03218
1137.21501,0.03113
1135.15484,0.03042
1133.09466,0.03013
1131.03449,0.03032
1128.97432,0.03088
1126.91415,0.03164
1124.85398,0.03266
1122.79380,0.03397
1120.73363,0.03562
1118.67346,0.03777
1116.61329,0.04011
1114.55312,0.04251
1112.49294,0.04517
1110.43277,0.04787
1108.37260,0.05018
1106.31243,0.05209
1104.25225,0.05370
1102.19208,0.05512
1100.13191,0.05656
1098.07174,0.05795
1096.01157,0.05907
1093.95139,0.05993
1091.89122,0.06077
1089.83105,0.06216
1087.77088,0.06436
1085.71071,0.06687
1083.65053,0.06926
1081.59036,0.07153
1079.53019,0.07377
1077.47002,0.07592
1075.40985,0.07784
1073.34967,0.07969
1071.28950,0.08142
1069.22933,0.08252
1067.16916,0.08309
1065.10898,0.08380
1063.04881,0.08490
1060.98864,0.08604
1058.92847,0.08678
1056.86830,0.08738
1054.80812,0.08845
1052.74795,0.08997
1050.68778,0.09148
1048.62761,0.09279
1046.56744,0.09389
1044.50726,0.09490
1042.44709,0.09623
1040.38692,0.09802
1038.32675,0.09998
1036.26657,0.10199
1034.20640,0.10394
1032.14623,0.10555
1030.08606,0.10686
1028.02589,0.10798
1025.96571,0.10881
1023.90554,0.10937
1021.84537,0.10969
1019.78520,0.10951
1017.72503,0.10883
1015.66485,0.10808
1013.60468,0.10727
1011.54451,0.10619
1009.48434,0.10455
1007.42417,0.10208
1005.36399,0.09924
1003.30382,0.09652
1001.24365,0.09396
999.18348,0.09117
997.12330,0.08801
995.06313,0.08503
993.00296,0.08258
990.94279,0.08014
988.88262,0.07701
986.82244,0.07383
984.76227,0.07127
982.70210,0.06853
980.64193,0.06541
978.58176,0.06232
976.52158,0.05933
974.46141,0.05660
972.40124,0.05407
970.34107,0.05181
968.28089,0.05013
966.22072,0.04897
964.16055,0.04786
962.10038,0.04645
960.04021,0.04477
957.98003,0.04292
955.91986,0.04108
953.85969,0.03915
951.79952,0.03684
949.73935,0.03450
947.67917,0.03247
945.61900,0.03068
943.55883,0.02905
941.49866,0.02746
939.43849,0.02599
937.37831,0.02484
935.31814,0.02380
933.25797,0.02258
931.19780,0.02151
929.13762,0.02097
927.07745,0.02066
925.01728,0.02006
922.95711,0.01909
920.89694,0.01807
918.83676,0.01691
916.77659,0.01541
914.71642,0.01390
912.65625,0.01254
910.59608,0.01106
908.53590,0.00960
906.47573,0.00883
904.41556,0.00879
902.35539,0.00890
900.29522,0.00878
898.23504,0.00857
896.17487,0.00864
894.11470,0.00850
892.05453,0.00790
889.99435,0.00761
887.93418,0.00778
885.87401,0.00770
883.81384,0.00728
881.75367,0.00724
879.69349,0.00782
877.63332,0.00826
875.57315,0.00845
873.51298,0.00897
871.45281,0.00934
869.39263,0.00869
867.33246,0.00748
865.27229,0.00683
863.21212,0.00654
861.15194,0.00571
859.09177,0.00462
857.03160,0.00350
854.97143,0.00214
852.91126,0.00117
850.85108,0.00085
848.79091,0.00040
846.73074,0.00000
844.67057,0.00040
842.61040,0.00105
840.55022,0.00127
838.49005,0.00151
836.42988,0.00234
834.36971,0.00355
832.30954,0.00398
830.24936,0.00265
828.18919,0.00113
826.12902,0.00154
824.06885,0.00263
822.00867,0.00266
819.94850,0.00230
817.88833,0.00220
815.82816,0.00222
813.76799,0.00234
811.70781,0.00223
809.64764,0.00171
807.58747,0.00124
805.52730,0.00123
803.46713,0.00146
801.40695,0.00138
799.34678,0.00097
797.28661,0.00052
795.22644,0.00000
793.16627,-0.00038
791.10609,0.00004
789.04592,0.00060
786.98575,0.00093
784.92558,0.00101
782.86540,0.00102
780.80523,0.00139
778.74506,0.00227
776.68489,0.00280
774.62472,0.00286
772.56454,0.00315
770.50437,0.00371
768.44420,0.00491
766.38403,0.00657
764.32386,0.00802
762.26368,0.00981
760.20351,0.01225
758.14334,0.01448
756.08317,0.01551
754.02299,0.01519
751.96282,0.01422
749.90265,0.01278
747.84248,0.01086
745.78231,0.00977
743.72213,0.00969
741.66196,0.00934
739.60179,0.00881
737.54162,0.00844
735.48145,0.00768
733.42127,0.00683
731.36110,0.00640
729.30093,0.00621
727.24076,0.00616
725.18059,0.00614
723.12041,0.00669
721.06024,0.00777
719.00007,0.00909
716.93990,0.00897
714.87972,0.00798
712.81955,0.00730
710.75938,0.00673
708.69921,0.00654
706.63904,0.00744
704.57886,0.00864
702.51869,0.00876
700.45852,0.00794
698.39835,0.00723
696.33818,0.00679
694.27800,0.00612
692.21783,0.00586
690.15766,0.00666
688.09749,0.00712
686.03731,0.00612
683.97714,0.00468
681.91697,0.00385
679.85680,0.00344
677.79663,0.00374
675.73645,0.00504
673.67628,0.00649
671.61611,0.00818
669.55594,0.00789
667.49577,0.00604
665.43559,0.01068
663.37542,0.00913
661.31525,0.00708
659.25508,0.00596
657.19491,0.00565
655.13473,0.00671
653.07456,0.00817
651.01439,0.00831
648.95422,0.00731
646.89404,0.00737
644.83387,0.00938
642.77370,0.01156
640.71353,0.01113
638.65336,0.00904
636.59318,0.00802
634.53301,0.00795
632.47284,0.00682
630.41267,0.00353
628.35250,0.00000
626.29232,-0.00107
624.23215,0.00178
622.17198,0.00536
620.11181,0.00673
618.05164,0.00550
615.99146,0.00404
613.93129,0.00171
611.87112,0.00041
609.81095,0.00422
607.75077,0.00697
605.69060,0.00448
603.63043,0.00156
601.57026,-0.00017
599.51009,0.00000
