3996.73391,0.00118
3994.67373,0.00111
3992.61356,0.00107
3990.55339,0.00105
3988.49322,0.00109
3986.43305,0.00103
3984.37287,0.00094
3982.31270,0.00101
3980.25253,0.00106
3978.19236,0.00069
3976.13219,0.00019
3974.07201,0.00010
3972.01184,0.00020
3969.95167,0.00011
3967.89150,0.00000
3965.83133,0.00005
3963.77115,0.00016
3961.71098,0.00043
3959.65081,0.00072
3957.59064,0.00083
3955.53046,0.00091
3953.47029,0.00087
3951.41012,0.00057
3949.34995,0.00034
3947.28978,0.00061
3945.22960,0.00090
3943.16943,0.00084
3941.10926,0.00096
3939.04909,0.00120
3936.98892,0.00138
3934.92874,0.00124
3932.86857,0.00068
3930.80840,0.00055
3928.74823,0.00089
3926.68805,0.00087
3924.62788,0.00085
3922.56771,0.00129
3920.50754,0.00127
3918.44737,0.00086
3916.38719,0.00096
3914.32702,0.00138
3912.26685,0.00140
3910.20668,0.00128
3908.14651,0.00110
3906.08633,0.00047
3904.02616,0.00015
3901.96599,0.00058
3899.90582,0.00092
3897.84565,0.00150
3895.78547,0.00188
3893.72530,0.00124
3891.66513,0.00089
3889.60496,0.00183
3887.54478,0.00174
3885.48461,0.00101
3883.42444,0.00117
3881.36427,0.00082
3879.30410,0.00127
3877.24392,0.00206
3875.18375,0.00141
3873.12358,0.00076
3871.06341,0.00033
3869.00324,0.00109
3866.94306,0.00221
3864.88289,0.00181
3862.82272,0.00167
3860.76255,0.00204
3858.70237,0.00216
3856.64220,0.00143
3854.58203,0.00006
3852.52186,0.00069
3850.46169,0.00229
3848.40151,0.00240
3846.34134,0.00175
3844.28117,0.00138
3842.22100,0.00154
3840.16083,0.00133
3838.10065,0.00123
3836.04048,0.00203
3833.98031,0.00231
3831.92014,0.00194
3829.85997,0.00169
3827.79979,0.00125
3825.73962,0.00132
3823.67945,0.00113
3821.61928,0.00025
3819.55910,0.00089
3817.49893,0.00070
3815.43876,0.00025
3813.37859,0.00133
3811.31842,0.00169
3809.25824,0.00082
3807.19807,0.00042
3805.13790,0.00154
3803.07773,0.00147
3801.01756,0.00120
3798.95738,0.00202
3796.89721,0.00173
3794.83704,0.00150
3792.77687,0.00152
3790.71670,0.00117
3788.65652,0.00081
3786.59635,0.00068
3784.53618,0.00105
3782.47601,0.00144
3780.41583,0.00101
3778.35566,0.00089
3776.29549,0.00125
3774.23532,0.00128
3772.17515,0.00100
3770.11497,0.00101
3768.05480,0.00171
3765.99463,0.00212
3763.93446,0.00238
3761.87429,0.00200
3759.81411,0.00136
3757.75394,0.00180
3755.69377,0.00228
3753.63360,0.00134
3751.57342,0.00000
3749.51325,0.00072
3747.45308,0.00172
3745.39291,0.00051
3743.33274,0.00074
3741.27256,0.00242
3739.21239,0.00243
3737.15222,0.00138
3735.09205,0.00136
3733.03188,0.00238
3730.97170,0.00302
3728.91153,0.00237
3726.85136,0.00099
3724.79119,0.00067
3722.73102,0.00092
3720.67084,0.00118
3718.61067,0.00152
3716.55050,0.00208
3714.49033,0.00183
3712.43015,0.00056
3710.36998,0.00058
3708.30981,0.00180
3706.24964,0.00254
3704.18947,0.00190
3702.12929,0.00094
3700.06912,0.00138
3698.00895,0.00212
3695.94878,0.00234
3693.88861,0.00239
3691.82843,0.00199
3689.76826,0.00130
3687.70809,0.00176
3685.64792,0.00270
3683.58775,0.00306
3681.52757,0.00315
3679.46740,0.00277
3677.40723,0.00124
3675.34706,0.00079
3673.28688,0.00287
3671.22671,0.00293
3669.16654,0.00235
3667.10637,0.00310
3665.04620,0.00334
3662.98602,0.00337
3660.92585,0.00376
3658.86568,0.00371
3656.80551,0.00340
3654.74534,0.00435
3652.68516,0.00453
3650.62499,0.00290
3648.56482,0.00267
3646.50465,0.00435
3644.44447,0.00545
3642.38430,0.00533
3640.32413,0.00505
3638.26396,0.00506
3636.20379,0.00539
3634.14361,0.00615
3632.08344,0.00675
3630.02327,0.00599
3627.96310,0.00638
3625.90293,0.00817
3623.84275,0.00886
3621.78258,0.00840
3619.72241,0.00797
3617.66224,0.00878
3615.60207,0.00954
3613.54189,0.00971
3611.48172,0.00996
3609.42155,0.01002
3607.36138,0.01044
3605.30120,0.01132
3603.24103,0.01175
3601.18086,0.01193
3599.12069,0.01226
3597.06052,0.01204
3595.00034,0.01210
3592.94017,0.01334
3590.88000,0.01421
3588.81983,0.01349
3586.75966,0.01330
3584.69948,0.01425
3582.63931,0.01467
3580.57914,0.01458
3578.51897,0.01464
3576.45879,0.01505
3574.39862,0.01586
3572.33845,0.01673
3570.27828,0.01685
3568.21811,0.01632
3566.15793,0.01675
3564.09776,0.01801
3562.03759,0.01843
3559.97742,0.01822
3557.91725,0.01826
3555.85707,0.01860
3553.79690,0.01895
3551.73673,0.01953
3549.67656,0.01997
3547.61639,0.01958
3545.55621,0.01931
3543.49604,0.01996
3541.43587,0.02058
3539.37570,0.02067
3537.31552,0.02079
3535.25535,0.02139
3533.19518,0.02208
3531.13501,0.02246
3529.07484,0.02285
3527.01466,0.02340
3524.95449,0.02381
3522.89432,0.02404
3520.83415,0.02411
3518.77398,0.02404
3516.71380,0.02423
3514.65363,0.02476
3512.59346,0.02525
3510.53329,0.02554
3508.47312,0.02596
3506.41294,0.02624
3504.35277,0.02577
3502.29260,0.02562
3500.23243,0.02635
3498.17225,0.02700
3496.11208,0.02736
3494.05191,0.02777
3491.99174,0.02804
3489.93157,0.02805
3487.87139,0.02825
3485.81122,0.02871
3483.75105,0.02890
3481.69088,0.02913
3479.63071,0.02958
3477.57053,0.02954
3475.51036,0.02933
3473.45019,0.02961
3471.39002,0.03009
3469.32984,0.03043
3467.26967,0.03075
3465.20950,0.03118
3463.14933,0.03154
3461.08916,0.03188
3459.02898,0.03224
3456.96881,0.03247
3454.90864,0.03278
3452.84847,0.03336
3450.78830,0.03378
3448.72812,0.03353
3446.66795,0.03326
3444.60778,0.03349
3442.54761,0.03381
3440.48744,0.03421
3438.42726,0.03444
3436.36709,0.03444
3434.30692,0.03449
3432.24675,0.03462
3430.18657,0.03490
3428.12640,0.03533
3426.06623,0.03579
3424.00606,0.03597
3421.94589,0.03573
3419.88571,0.03568
3417.82554,0.03610
3415.76537,0.03651
3413.70520,0.03685
3411.64503,0.03708
3409.58485,0.03696
3407.52468,0.03670
3405.46451,0.03672
3403.40434,0.03693
3401.34416,0.03718
3399.28399,0.03745
3397.22382,0.03776
3395.16365,0.03784
3393.10348,0.03767
3391.04330,0.03780
3388.98313,0.03803
3386.92296,0.03791
3384.86279,0.03779
3382.80262,0.03805
3380.74244,0.03842
3378.68227,0.03877
3376.62210,0.03918
3374.56193,0.03933
3372.50176,0.03924
3370.44158,0.03910
3368.38141,0.03885
3366.32124,0.03881
3364.26107,0.03910
3362.20089,0.03932
3360.14072,0.03940
3358.08055,0.03923
3356.02038,0.03883
3353.96021,0.03864
3351.90003,0.03878
3349.83986,0.03896
3347.77969,0.03914
3345.71952,0.03944
3343.65935,0.03972
3341.59917,0.03979
3339.53900,0.03951
3337.47883,0.03922
3335.41866,0.03934
3333.35849,0.03973
3331.29831,0.03997
3329.23814,0.03996
3327.17797,0.03990
3325.11780,0.03989
3323.05762,0.04000
3320.99745,0.04020
3318.93728,0.04032
3316.87711,0.04036
3314.81694,0.04043
3312.75676,0.04036
3310.69659,0.03995
3308.63642,0.03972
3306.57625,0.03998
3304.51608,0.04014
3302.45590,0.03998
3300.39573,0.03983
3298.33556,0.03990
3296.27539,0.04018
3294.21521,0.04041
3292.15504,0.04047
3290.09487,0.04054
3288.03470,0.04051
3285.97453,0.04033
3283.91435,0.04027
3281.85418,0.04039
3279.79401,0.04067
3277.73384,0.04088
3275.67367,0.04072
3273.61349,0.04048
3271.55332,0.04057
3269.49315,0.04074
3267.43298,0.04077
3265.37281,0.04078
3263.31263,0.04063
3261.25246,0.04042
3259.19229,0.04059
3257.13212,0.04091
3255.07194,0.04097
3253.01177,0.04078
3250.95160,0.04042
3248.89143,0.04006
3246.83126,0.03995
3244.77108,0.04013
3242.71091,0.04032
3240.65074,0.04029
3238.59057,0.04022
3236.53040,0.04020
3234.47022,0.04010
3232.41005,0.04005
3230.34988,0.04018
3228.28971,0.04029
3226.22954,0.04046
3224.16936,0.04080
3222.10919,0.04096
3220.04902,0.04082
3217.98885,0.04067
3215.92867,0.04061
3213.86850,0.04061
3211.80833,0.04053
3209.74816,0.04026
3207.68799,0.04000
3205.62781,0.03980
3203.56764,0.03952
3201.50747,0.03931
3199.44730,0.03943
3197.38713,0.03988
3195.32695,0.04014
3193.26678,0.03985
3191.20661,0.03949
3189.14644,0.03949
3187.08626,0.03967
3185.02609,0.03964
3182.96592,0.03938
3180.90575,0.03913
3178.84558,0.03898
3176.78540,0.03888
3174.72523,0.03892
3172.66506,0.03906
3170.60489,0.03900
3168.54472,0.03873
3166.48454,0.03855
3164.42437,0.03851
3162.36420,0.03841
3160.30403,0.03814
3158.24386,0.03792
3156.18368,0.03793
3154.12351,0.03795
3152.06334,0.03785
3150.00317,0.03768
3147.94299,0.03742
3145.88282,0.03713
3143.82265,0.03693
3141.76248,0.03676
3139.70231,0.03672
3137.64213,0.03690
3135.58196,0.03683
3133.52179,0.03639
3131.46162,0.03608
3129.40145,0.03596
3127.34127,0.03583
3125.28110,0.03568
3123.22093,0.03548
3121.16076,0.03532
3119.10058,0.03536
3117.04041,0.03547
3114.98024,0.03549
3112.92007,0.03536
3110.85990,0.03512
3108.79972,0.03489
3106.73955,0.03472
3104.67938,0.03448
3102.61921,0.03423
3100.55904,0.03413
3098.49886,0.03403
3096.43869,0.03374
3094.37852,0.03348
3092.31835,0.03338
3090.25818,0.03318
3088.19800,0.03277
3086.13783,0.03256
3084.07766,0.03278
3082.01749,0.03309
3079.95731,0.03315
3077.89714,0.03299
3075.83697,0.03276
3073.77680,0.03241
3071.71663,0.03203
3069.65645,0.03185
3067.59628,0.03184
3065.53611,0.03177
3063.47594,0.03155
3061.41577,0.03129
3059.35559,0.03114
3057.29542,0.03109
3055.23525,0.03092
3053.17508,0.03058
3051.11491,0.03027
3049.05473,0.03020
3046.99456,0.03027
3044.93439,0.03027
3042.87422,0.03016
3040.81404,0.02989
3038.75387,0.02955
3036.69370,0.02928
3034.63353,0.02905
3032.57336,0.02886
3030.51318,0.02889
3028.45301,0.02905
3026.39284,0.02890
3024.33267,0.02853
3022.27250,0.02819
3020.21232,0.02793
3018.15215,0.02792
3016.09198,0.02804
3014.03181,0.02796
3011.97163,0.02758
3009.91146,0.02717
3007.85129,0.02682
3005.79112,0.02643
3003.73095,0.02620
3001.67077,0.02628
2999.61060,0.02639
2997.55043,0.02628
2995.49026,0.02612
2993.43009,0.02588
2991.36991,0.02553
2989.30974,0.02527
2987.24957,0.02520
2985.18940,0.02526
2983.12923,0.02533
2981.06905,0.02533
2979.00888,0.02516
2976.94871,0.02495
2974.88854,0.02494
2972.82836,0.02482
2970.76819,0.02449
2968.70802,0.02436
2966.64785,0.02449
2964.58768,0.02464
2962.52750,0.02472
2960.46733,0.02466
2958.40716,0.02456
2956.34699,0.02455
2954.28682,0.02457
2952.22664,0.02452
2950.16647,0.02442
2948.10630,0.02441
2946.04613,0.02442
2943.98596,0.02436
2941.92578,0.02435
2939.86561,0.02438
2937.80544,0.02421
2935.74527,0.02399
2933.68509,0.02397
2931.62492,0.02413
2929.56475,0.02425
2927.50458,0.02398
2925.44441,0.02339
2923.38423,0.02295
2921.32406,0.02289
2919.26389,0.02311
2917.20372,0.02330
2915.14355,0.02323
2913.08337,0.02308
2911.02320,0.02298
2908.96303,0.02275
2906.90286,0.02238
2904.84268,0.02211
2902.78251,0.02202
2900.72234,0.02197
2898.66217,0.02191
2896.60200,0.02197
2894.54182,0.02202
2892.48165,0.02199
2890.42148,0.02202
2888.36131,0.02199
2886.30114,0.02201
2884.24096,0.02224
2882.18079,0.02233
2880.12062,0.02205
2878.06045,0.02166
2876.00028,0.02147
2873.94010,0.02144
2871.87993,0.02136
2869.81976,0.02129
2867.75959,0.02140
2865.69941,0.02133
2863.63924,0.02097
2861.57907,0.02073
2859.51890,0.02069
2857.45873,0.02069
2855.39855,0.02058
2853.33838,0.02031
2851.27821,0.02019
2849.21804,0.02031
2847.15787,0.02029
2845.09769,0.01991
2843.03752,0.01951
2840.97735,0.01940
2838.91718,0.01950
2836.85700,0.01945
2834.79683,0.01915
2832.73666,0.01888
2830.67649,0.01881
2828.61632,0.01890
2826.55614,0.01907
2824.49597,0.01909
2822.43580,0.01896
2820.37563,0.01882
2818.31546,0.01871
2816.25528,0.01861
2814.19511,0.01853
2812.13494,0.01855
2810.07477,0.01858
2808.01460,0.01862
2805.95442,0.01859
2803.89425,0.01838
2801.83408,0.01816
2799.77391,0.01804
2797.71373,0.01797
2795.65356,0.01790
2793.59339,0.01785
2791.53322,0.01778
2789.47305,0.01760
2787.41287,0.01731
2785.35270,0.01715
2783.29253,0.01722
2781.23236,0.01729
2779.17219,0.01724
2777.11201,0.01721
2775.05184,0.01723
2772.99167,0.01710
2770.93150,0.01688
2768.87133,0.01663
2766.81115,0.01651
2764.75098,0.01658
2762.69081,0.01675
2760.63064,0.01685
2758.57046,0.01667
2756.51029,0.01635
2754.45012,0.01621
2752.38995,0.01631
2750.32978,0.01639
2748.26960,0.01631
2746.20943,0.01617
2744.14926,0.01596
2742.08909,0.01563
2740.02892,0.01529
2737.96874,0.01517
2735.90857,0.01528
2733.84840,0.01542
2731.78823,0.01556
2729.72805,0.01560
2727.66788,0.01546
2725.60771,0.01531
2723.54754,0.01526
2721.48737,0.01515
2719.42719,0.01497
2717.36702,0.01494
2715.30685,0.01494
2713.24668,0.01483
2711.18651,0.01472
2709.12633,0.01460
2707.06616,0.01449
2705.00599,0.01442
2702.94582,0.01434
2700.88565,0.01425
2698.82547,0.01420
2696.76530,0.01413
2694.70513,0.01410
2692.64496,0.01416
2690.58478,0.01409
2688.52461,0.01376
2686.46444,0.01347
2684.40427,0.01356
2682.34410,0.01372
2680.28392,0.01354
2678.22375,0.01323
2676.16358,0.01314
2674.10341,0.01308
2672.04324,0.01287
2669.98306,0.01262
2667.92289,0.01248
2665.86272,0.01253
2663.80255,0.01257
2661.74238,0.01250
2659.68220,0.01242
2657.62203,0.01223
2655.56186,0.01204
2653.50169,0.01201
2651.44151,0.01203
2649.38134,0.01196
2647.32117,0.01190
2645.26100,0.01192
2643.20083,0.01186
2641.14065,0.01161
2639.08048,0.01143
2637.02031,0.01138
2634.96014,0.01125
2632.89997,0.01115
2630.83979,0.01114
2628.77962,0.01108
2626.71945,0.01113
2624.65928,0.01132
2622.59910,0.01134
2620.53893,0.01107
2618.47876,0.01068
2616.41859,0.01042
2614.35842,0.01042
2612.29824,0.01049
2610.23807,0.01046
2608.17790,0.01038
2606.11773,0.01039
2604.05756,0.01038
2601.99738,0.01024
2599.93721,0.01016
2597.87704,0.01020
2595.81687,0.01019
2593.75670,0.01015
2591.69652,0.01010
2589.63635,0.00992
2587.57618,0.00973
2585.51601,0.00956
2583.45583,0.00956
2581.39566,0.00972
2579.33549,0.00965
2577.27532,0.00949
2575.21515,0.00948
2573.15497,0.00959
2571.09480,0.00979
2569.03463,0.00983
2566.97446,0.00967
2564.91429,0.00969
2562.85411,0.00973
2560.79394,0.00940
2558.73377,0.00904
2556.67360,0.00894
2554.61342,0.00909
2552.55325,0.00928
2550.49308,0.00940
2548.43291,0.00947
2546.37274,0.00932
2544.31256,0.00904
2542.25239,0.00896
2540.19222,0.00902
2538.13205,0.00906
2536.07188,0.00923
2534.01170,0.00963
2531.95153,0.00987
2529.89136,0.00965
2527.83119,0.00932
2525.77102,0.00921
2523.71084,0.00924
2521.65067,0.00942
2519.59050,0.00967
2517.53033,0.00961
2515.47015,0.00948
2513.40998,0.00960
2511.34981,0.00964
2509.28964,0.00958
2507.22947,0.00957
2505.16929,0.00949
2503.10912,0.00946
2501.04895,0.00957
2498.98878,0.00962
2496.92861,0.00950
2494.86843,0.00919
2492.80826,0.00915
2490.74809,0.00947
2488.68792,0.00975
2486.62775,0.00979
2484.56757,0.00967
2482.50740,0.00955
2480.44723,0.00953
2478.38706,0.00964
2476.32688,0.00974
2474.26671,0.00965
2472.20654,0.00955
2470.14637,0.00982
2468.08620,0.01040
2466.02602,0.01073
2463.96585,0.01057
2461.90568,0.01014
2459.84551,0.00975
2457.78534,0.00953
2455.72516,0.00950
2453.66499,0.00977
2451.60482,0.01017
2449.54465,0.01035
2447.48447,0.01029
2445.42430,0.01024
2443.36413,0.01021
2441.30396,0.01004
2439.24379,0.01002
2437.18361,0.01034
2435.12344,0.01048
2433.06327,0.01030
2431.00310,0.01032
2428.94293,0.01051
2426.88275,0.01056
2424.82258,0.01056
2422.76241,0.01062
2420.70224,0.01076
2418.64207,0.01082
2416.58189,0.01073
2414.52172,0.01057
2412.46155,0.01023
2410.40138,0.00994
2408.34120,0.00998
2406.28103,0.01018
2404.22086,0.01040
2402.16069,0.01034
2400.10052,0.01004
2398.04034,0.00977
2395.98017,0.00991
2393.92000,0.01017
2391.85983,0.01028
2389.79966,0.01028
2387.73948,0.01043
2385.67931,0.01099
2383.61914,0.01140
2381.55897,0.01123
2379.49880,0.01070
2377.43862,0.01027
2375.37845,0.00921
2373.31828,0.00837
2371.25811,0.00793
2369.19793,0.00636
2367.13776,0.00578
2365.07759,0.00594
2363.01742,0.00373
2360.95725,0.00755
2358.89707,0.01030
2356.83690,0.00891
2354.77673,0.00734
2352.71656,0.00858
2350.65639,0.01710
2348.59621,0.02026
2346.53604,0.00847
2344.47587,0.00596
2342.41570,0.00963
2340.35552,0.01148
2338.29535,0.01214
2336.23518,0.01126
2334.17501,0.01062
2332.11484,0.00986
2330.05466,0.01028
2327.99449,0.01091
2325.93432,0.01274
2323.87415,0.01180
2321.81398,0.01015
2319.75380,0.00893
2317.69363,0.01043
2315.63346,0.01092
2313.57329,0.01017
2311.51312,0.00990
2309.45294,0.01031
2307.39277,0.01061
2305.33260,0.01042
2303.27243,0.01036
2301.21225,0.01028
2299.15208,0.01062
2297.09191,0.01076
2295.03174,0.01046
2292.97157,0.01023
2290.91139,0.01015
2288.85122,0.01019
2286.79105,0.01026
2284.73088,0.01021
2282.67071,0.00978
2280.61053,0.00901
2278.55036,0.00855
2276.49019,0.00882
2274.43002,0.00929
2272.36984,0.00933
2270.30967,0.00914
2268.24950,0.00876
2266.18933,0.00820
2264.12916,0.00795
2262.06898,0.00802
2260.00881,0.00810
2257.94864,0.00843
2255.88847,0.00892
2253.82830,0.00936
2251.76812,0.00931
2249.70795,0.00863
2247.64778,0.00826
2245.58761,0.00849
2243.52744,0.00870
2241.46726,0.00873
2239.40709,0.00873
2237.34692,0.00850
2235.28675,0.00800
2233.22657,0.00778
2231.16640,0.00793
2229.10623,0.00780
2227.04606,0.00731
2224.98589,0.00698
2222.92571,0.00692
2220.86554,0.00694
2218.80537,0.00664
2216.74520,0.00631
2214.68503,0.00684
2212.62485,0.00803
2210.56468,0.00872
2208.50451,0.00850
2206.44434,0.00806
2204.38417,0.00781
2202.32399,0.00731
2200.26382,0.00653
2198.20365,0.00618
2196.14348,0.00623
2194.08330,0.00663
2192.02313,0.00727
2189.96296,0.00751
2187.90279,0.00730
2185.84262,0.00651
2183.78244,0.00509
2181.72227,0.00439
2179.66210,0.00538
2177.60193,0.00687
2175.54176,0.00764
2173.48158,0.00775
2171.42141,0.00722
2169.36124,0.00648
2167.30107,0.00619
2165.24089,0.00602
2163.18072,0.00577
2161.12055,0.00480
2159.06038,0.00221
2157.00021,0.00070
2154.94003,0.00159
2152.87986,0.00252
2150.81969,0.00337
2148.75952,0.00474
2146.69935,0.00552
2144.63917,0.00568
2142.57900,0.00624
2140.51883,0.00671
2138.45866,0.00604
2136.39849,0.00495
2134.33831,0.00449
2132.27814,0.00412
2130.21797,0.00368
2128.15780,0.00379
2126.09762,0.00465
2124.03745,0.00610
2121.97728,0.00713
2119.91711,0.00721
2117.85694,0.00698
2115.79676,0.00707
2113.73659,0.00725
2111.67642,0.00673
2109.61625,0.00593
2107.55608,0.00579
2105.49590,0.00583
2103.43573,0.00587
2101.37556,0.00627
2099.31539,0.00624
2097.25521,0.00566
2095.19504,0.00552
2093.13487,0.00583
2091.07470,0.00575
2089.01453,0.00537
2086.95435,0.00522
2084.89418,0.00538
2082.83401,0.00585
2080.77384,0.00603
2078.71367,0.00552
2076.65349,0.00475
2074.59332,0.00442
2072.53315,0.00475
2070.47298,0.00539
2068.41281,0.00599
2066.35263,0.00591
2064.29246,0.00514
2062.23229,0.00474
2060.17212,0.00493
2058.11194,0.00522
2056.05177,0.00572
2053.99160,0.00668
2051.93143,0.00703
2049.87126,0.00594
2047.81108,0.00466
2045.75091,0.00408
2043.69074,0.00342
2041.63057,0.00283
2039.57040,0.00306
2037.51022,0.00406
2035.45005,0.00524
2033.38988,0.00587
2031.32971,0.00586
2029.26954,0.00528
2027.20936,0.00438
2025.14919,0.00382
2023.08902,0.00354
2021.02885,0.00330
2018.96867,0.00317
2016.90850,0.00304
2014.84833,0.00290
2012.78816,0.00300
2010.72799,0.00332
2008.66781,0.00349
2006.60764,0.00348
2004.54747,0.00376
2002.48730,0.00452
2000.42713,0.00472
1998.36695,0.00401
1996.30678,0.00436
1994.24661,0.00597
1992.18644,0.00646
1990.12626,0.00501
1988.06609,0.00327
1986.00592,0.00285
1983.94575,0.00253
1981.88558,0.00116
1979.82540,0.00000
1977.76523,0.00030
1975.70506,0.00204
1973.64489,0.00390
1971.58472,0.00487
1969.52454,0.00505
1967.46437,0.00473
1965.40420,0.00416
1963.34403,0.00352
1961.28386,0.00287
1959.22368,0.00248
1957.16351,0.00278
1955.10334,0.00362
1953.04317,0.00419
1950.98299,0.00447
1948.92282,0.00466
1946.86265,0.00408
1944.80248,0.00291
1942.74231,0.00244
1940.68213,0.00351
1938.62196,0.00452
1936.56179,0.00445
1934.50162,0.00413
1932.44145,0.00400
1930.38127,0.00393
1928.32110,0.00403
1926.26093,0.00439
1924.20076,0.00457
1922.14059,0.00496
1920.08041,0.00512
1918.02024,0.00431
1915.96007,0.00395
1913.89990,0.00416
1911.83972,0.00441
1909.77955,0.00454
1907.71938,0.00450
1905.65921,0.00440
1903.59904,0.00444
1901.53886,0.00451
1899.47869,0.00434
1897.41852,0.00401
1895.35835,0.00392
1893.29818,0.00422
1891.23800,0.00423
1889.17783,0.00430
1887.11766,0.00475
1885.05749,0.00472
1882.99731,0.00454
1880.93714,0.00460
1878.87697,0.00453
1876.81680,0.00436
1874.75663,0.00456
1872.69645,0.00498
1870.63628,0.00461
1868.57611,0.00387
1866.51594,0.00405
1864.45577,0.00456
1862.39559,0.00467
1860.33542,0.00450
1858.27525,0.00423
1856.21508,0.00398
1854.15491,0.00395
1852.09473,0.00423
1850.03456,0.00453
1847.97439,0.00446
1845.91422,0.00385
1843.85404,0.00382
1841.79387,0.00508
1839.73370,0.00559
1837.67353,0.00516
1835.61336,0.00507
1833.55318,0.00517
1831.49301,0.00467
1829.43284,0.00447
1827.37267,0.00493
1825.31250,0.00492
1823.25232,0.00508
1821.19215,0.00527
1819.13198,0.00512
1817.07181,0.00521
1815.01163,0.00543
1812.95146,0.00502
1810.89129,0.00451
1808.83112,0.00476
1806.77095,0.00515
1804.71077,0.00525
1802.65060,0.00521
1800.59043,0.00535
1798.53026,0.00582
1796.47009,0.00600
1794.40991,0.00539
1792.34974,0.00480
1790.28957,0.00541
1788.22940,0.00591
1786.16923,0.00560
1784.10905,0.00545
1782.04888,0.00531
1779.98871,0.00516
1777.92854,0.00558
1775.86836,0.00568
1773.80819,0.00477
1771.74802,0.00430
1769.68785,0.00511
1767.62768,0.00584
1765.56750,0.00639
1763.50733,0.00614
1761.44716,0.00594
1759.38699,0.00649
1757.32682,0.00671
1755.26664,0.00706
1753.20647,0.00679
1751.14630,0.00594
1749.08613,0.00634
1747.02596,0.00746
1744.96578,0.00788
1742.90561,0.00762
1740.84544,0.00743
1738.78527,0.00824
1736.72509,0.00852
1734.66492,0.00711
1732.60475,0.00742
1730.54458,0.00841
1728.48441,0.00851
1726.42423,0.00844
1724.36406,0.00838
1722.30389,0.00878
1720.24372,0.00856
1718.18355,0.00754
1716.12337,0.00811
1714.06320,0.00931
1712.00303,0.00975
1709.94286,0.00970
1707.88268,0.00943
1705.82251,0.00968
1703.76234,0.01074
1701.70217,0.01049
1699.64200,0.01061
1697.58182,0.01162
1695.52165,0.01166
1693.46148,0.01263
1691.40131,0.01290
1689.34114,0.01286
1687.28096,0.01303
1685.22079,0.01197
1683.16062,0.01266
1681.10045,0.01488
1679.04028,0.01555
1676.98010,0.01496
1674.91993,0.01494
1672.85976,0.01591
1670.79959,0.01566
1668.73941,0.01594
1666.67924,0.01724
1664.61907,0.01688
1662.55890,0.01623
1660.49873,0.01739
1658.43855,0.01852
1656.37838,0.01782
1654.31821,0.01569
1652.25804,0.01705
1650.19787,0.01980
1648.13769,0.01837
1646.07752,0.01701
1644.01735,0.01806
1641.95718,0.01851
1639.89701,0.01811
1637.83683,0.01685
1635.77666,0.01579
1633.71649,0.01721
1631.65632,0.01812
1629.59614,0.01721
1627.53597,0.01664
1625.47580,0.01645
1623.41563,0.01607
1621.35546,0.01669
1619.29528,0.01641
1617.23511,0.01490
1615.17494,0.01527
1613.11477,0.01600
1611.05460,0.01527
1608.99442,0.01452
1606.93425,0.01445
1604.87408,0.01441
1602.81391,0.01413
1600.75373,0.01394
1598.69356,0.01373
1596.63339,0.01330
1594.57322,0.01289
1592.51305,0.01259
1590.45287,0.01218
1588.39270,0.01172
1586.33253,0.01130
1584.27236,0.01098
1582.21219,0.01095
1580.15201,0.01093
1578.09184,0.00982
1576.03167,0.00908
1573.97150,0.01057
1571.91133,0.01056
1569.85115,0.00889
1567.79098,0.00895
1565.73081,0.00964
1563.67064,0.01016
1561.61046,0.00904
1559.55029,0.00631
1557.49012,0.00775
1555.42995,0.00946
1553.36978,0.00892
1551.30960,0.00800
1549.24943,0.00771
1547.18926,0.00800
1545.12909,0.00768
1543.06892,0.00684
1541.00874,0.00555
1538.94857,0.00645
1536.88840,0.00843
1534.82823,0.00738
1532.76805,0.00617
1530.70788,0.00681
1528.64771,0.00658
1526.58754,0.00595
1524.52737,0.00584
1522.46719,0.00530
1520.40702,0.00584
1518.34685,0.00641
1516.28668,0.00586
1514.22651,0.00604
1512.16633,0.00639
1510.10616,0.00578
1508.04599,0.00359
1505.98582,0.00341
1503.92565,0.00579
1501.86547,0.00626
1499.80530,0.00502
1497.74513,0.00416
1495.68496,0.00490
1493.62478,0.00590
1491.56461,0.00505
1489.50444,0.00397
1487.44427,0.00443
1485.38410,0.00506
1483.32392,0.00494
1481.26375,0.00472
1479.20358,0.00505
1477.14341,0.00522
1475.08324,0.00489
1473.02306,0.00449
1470.96289,0.00551
1468.90272,0.00654
1466.84255,0.00573
1464.78238,0.00511
1462.72220,0.00628
1460.66203,0.00658
1458.60186,0.00486
1456.54169,0.00458
1454.48151,0.00649
1452.42134,0.00699
1450.36117,0.00615
1448.30100,0.00538
1446.24083,0.00545
1444.18065,0.00575
1442.12048,0.00581
1440.06031,0.00570
1438.00014,0.00497
1435.93997,0.00518
1433.87979,0.00647
1431.81962,0.00633
1429.75945,0.00571
1427.69928,0.00594
1425.63910,0.00614
1423.57893,0.00633
1421.51876,0.00625
1419.45859,0.00548
1417.39842,0.00591
1415.33824,0.00664
1413.27807,0.00647
1411.21790,0.00620
1409.15773,0.00619
1407.09756,0.00593
1405.03738,0.00572
1402.97721,0.00612
1400.91704,0.00603
1398.85687,0.00556
1396.79670,0.00553
1394.73652,0.00560
1392.67635,0.00608
1390.61618,0.00609
1388.55601,0.00523
1386.49583,0.00495
1384.43566,0.00548
1382.37549,0.00573
1380.31532,0.00573
1378.25515,0.00574
1376.19497,0.00552
1374.13480,0.00538
1372.07463,0.00579
1370.01446,0.00593
1367.95429,0.00583
1365.89411,0.00573
1363.83394,0.00520
1361.77377,0.00507
1359.71360,0.00543
1357.65343,0.00542
1355.59325,0.00513
1353.53308,0.00499
1351.47291,0.00492
1349.41274,0.00477
1347.35256,0.00468
1345.29239,0.00478
1343.23222,0.00485
1341.17205,0.00458
1339.11188,0.00449
1337.05170,0.00492
1334.99153,0.00512
1332.93136,0.00505
1330.87119,0.00507
1328.81102,0.00511
1326.75084,0.00501
1324.69067,0.00492
1322.63050,0.00488
1320.57033,0.00474
1318.51015,0.00464
1316.44998,0.00474
1314.38981,0.00477
1312.32964,0.00474
1310.26947,0.00473
1308.20929,0.00465
1306.14912,0.00460
1304.08895,0.00467
1302.02878,0.00485
1299.96861,0.00499
1297.90843,0.00501
1295.84826,0.00494
1293.78809,0.00487
1291.72792,0.00491
1289.66775,0.00506
1287.60757,0.00519
1285.54740,0.00533
1283.48723,0.00543
1281.42706,0.00543
1279.36688,0.00538
1277.30671,0.00541
1275.24654,0.00559
1273.18637,0.00578
1271.12620,0.00580
1269.06602,0.00564
1267.00585,0.00552
1264.94568,0.00557
1262.88551,0.00570
1260.82534,0.00581
1258.76516,0.00588
1256.70499,0.00578
1254.64482,0.00557
1252.58465,0.00552
1250.52447,0.00560
1248.46430,0.00558
1246.40413,0.00538
1244.34396,0.00516
1242.28379,0.00508
1240.22361,0.00508
1238.16344,0.00503
1236.10327,0.00500
1234.04310,0.00501
1231.98293,0.00492
1229.92275,0.00470
1227.86258,0.00451
1225.80241,0.00446
1223.74224,0.00450
1221.68207,0.00448
1219.62189,0.00435
1217.56172,0.00410
1215.50155,0.00383
1213.44138,0.00358
1211.38120,0.00339
1209.32103,0.00332
1207.26086,0.00338
1205.20069,0.00354
1203.14052,0.00373
1201.08034,0.00383
1199.02017,0.00378
1196.96000,0.00366
1194.89983,0.00366
1192.83966,0.00389
1190.77948,0.00426
1188.71931,0.00461
1186.65914,0.00499
1184.59897,0.00553
1182.53880,0.00615
1180.47862,0.00659
1178.41845,0.00691
1176.35828,0.00732
1174.29811,0.00793
1172.23793,0.00878
1170.17776,0.00974
1168.11759,0.01057
1166.05742,0.01112
1163.99725,0.01152
1161.93707,0.01205
1159.87690,0.01271
1157.81673,0.01326
1155.75656,0.01366
1153.69639,0.01402
1151.63621,0.01448
1149.57604,0.01517
1147.51587,0.01598
1145.45570,0.01681
1143.39552,0.01776
1141.33535,0.01873
1139.27518,0.01949
1137.21501,0.02020
1135.15484,0.02102
1133.09466,0.02183
1131.03449,0.02263
1128.97432,0.02336
1126.91415,0.02412
1124.85398,0.02504
1122.79380,0.02582
1120.73363,0.02648
1118.67346,0.02730
1116.61329,0.02837
1114.55312,0.02955
1112.49294,0.03071
1110.43277,0.03174
1108.37260,0.03255
1106.31243,0.03339
1104.25225,0.03442
1102.19208,0.03552
1100.13191,0.03667
1098.07174,0.03779
1096.01157,0.03879
1093.95139,0.03970
1091.89122,0.04058
1089.83105,0.04143
1087.77088,0.04223
1085.71071,0.04299
1083.65053,0.04374
1081.59036,0.04451
1079.53019,0.04536
1077.47002,0.04609
1075.40985,0.04659
1073.34967,0.04716
1071.28950,0.04768
1069.22933,0.04791
1067.16916,0.04804
1065.10898,0.04815
1063.04881,0.04839
1060.98864,0.04865
1058.92847,0.04862
1056.86830,0.04842
1054.80812,0.04801
1052.74795,0.04738
1050.68778,0.04688
1048.62761,0.04633
1046.56744,0.04545
1044.50726,0.04448
1042.44709,0.04369
1040.38692,0.04309
1038.32675,0.04253
1036.26657,0.04173
1034.20640,0.04054
1032.14623,0.03942
1030.08606,0.03870
1028.02589,0.03792
1025.96571,0.03687
1023.90554,0.03593
1021.84537,0.03523
1019.78520,0.03467
1017.72503,0.03417
1015.66485,0.03361
1013.60468,0.03304
1011.54451,0.03247
1009.48434,0.03192
1007.42417,0.03159
1005.36399,0.03140
1003.30382,0.03120
1001.24365,0.03116
999.18348,0.03148
997.12330,0.03208
995.06313,0.03278
993.00296,0.03341
990.94279,0.03394
988.88262,0.03460
986.82244,0.03510
984.76227,0.03514
982.70210,0.03499
980.64193,0.03479
978.58176,0.03452
976.52158,0.03400
974.46141,0.03313
972.40124,0.03221
970.34107,0.03123
968.28089,0.02985
966.22072,0.02825
964.16055,0.02693
962.10038,0.02600
960.04021,0.02521
957.98003,0.02445
955.91986,0.02376
953.85969,0.02331
951.79952,0.02295
949.73935,0.02248
947.67917,0.02214
945.61900,0.02209
943.55883,0.02193
941.49866,0.02151
939.43849,0.02109
937.37831,0.02096
935.31814,0.02105
933.25797,0.02105
931.19780,0.02100
929.13762,0.02099
927.07745,0.02095
925.01728,0.02088
922.95711,0.02067
920.89694,0.02041
918.83676,0.02002
916.77659,0.01924
914.71642,0.01838
912.65625,0.01789
910.59608,0.01767
908.53590,0.01734
906.47573,0.01719
904.41556,0.01753
902.35539,0.01786
900.29522,0.01775
898.23504,0.01739
896.17487,0.01718
894.11470,0.01744
892.05453,0.01787
889.99435,0.01794
887.93418,0.01788
885.87401,0.01797
883.81384,0.01827
881.75367,0.01877
879.69349,0.01919
877.63332,0.01944
875.57315,0.01955
873.51298,0.01965
871.45281,0.01995
869.39263,0.02041
867.33246,0.02084
865.27229,0.02096
863.21212,0.02068
861.15194,0.02025
859.09177,0.02008
857.03160,0.02026
854.97143,0.02048
852.91126,0.02046
850.85108,0.02022
848.79091,0.01984
846.73074,0.01922
844.67057,0.01863
842.61040,0.01825
840.55022,0.01780
838.49005,0.01721
836.42988,0.01683
834.36971,0.01668
832.30954,0.01652
830.24936,0.01635
828.18919,0.01609
826.12902,0.01563
824.06885,0.01512
822.00867,0.01468
819.94850,0.01443
817.88833,0.01431
815.82816,0.01396
813.76799,0.01334
811.70781,0.01284
809.64764,0.01270
807.58747,0.01243
805.52730,0.01198
803.46713,0.01204
801.40695,0.01238
799.34678,0.01241
797.28661,0.01206
795.22644,0.01157
793.16627,0.01117
791.10609,0.01101
789.04592,0.01129
786.98575,0.01159
784.92558,0.01140
782.86540,0.01120
780.80523,0.01136
778.74506,0.01172
776.68489,0.01220
774.62472,0.01239
772.56454,0.01199
770.50437,0.01140
768.44420,0.01099
766.38403,0.01070
764.32386,0.01058
762.26368,0.01066
760.20351,0.01075
758.14334,0.01084
756.08317,0.01095
754.02299,0.01075
751.96282,0.01015
749.90265,0.00986
747.84248,0.00995
745.78231,0.00966
743.72213,0.00930
741.66196,0.00979
739.60179,0.01048
737.54162,0.01026
735.48145,0.00978
733.42127,0.00970
731.36110,0.00965
729.30093,0.00952
727.24076,0.00960
725.18059,0.01031
723.12041,0.01159
721.06024,0.01076
719.00007,0.01119
716.93990,0.01175
714.87972,0.01125
712.81955,0.01103
710.75938,0.01120
708.69921,0.01132
706.63904,0.01132
704.57886,0.01147
702.51869,0.01162
700.45852,0.01130
698.39835,0.01096
696.33818,0.01145
694.27800,0.01258
692.21783,0.01350
690.15766,0.01366
688.09749,0.01359
686.03731,0.01403
683.97714,0.01467
681.91697,0.01497
679.85680,0.01469
677.79663,0.01399
675.73645,0.01410
673.67628,0.01813
671.61611,0.02328
669.55594,0.01017
667.49577,0.00000
665.43559,0.02023
663.37542,0.01824
661.31525,0.01281
659.25508,0.01218
657.19491,0.01166
655.13473,0.00995
653.07456,0.00904
651.01439,0.00917
648.95422,0.00901
646.89404,0.00883
644.83387,0.00788
642.77370,0.00706
640.71353,0.00588
638.65336,0.00432
636.59318,0.00351
634.53301,0.00327
632.47284,0.00278
630.41267,0.00267
628.35250,0.00344
626.29232,0.00428
624.23215,0.00338
622.17198,0.00181
620.11181,0.00167
618.05164,0.00237
615.99146,0.00203
613.93129,0.00150
611.87112,0.00150
609.81095,0.00088
607.75077,-0.00045
605.69060,-0.00092
603.63043,-0.00045
601.57026,0.00028
599.51009,0.00000
