3996.73391,0.00077
3994.67373,0.00119
3992.61356,0.00123
3990.55339,0.00093
3988.49322,0.00069
3986.43305,0.00085
3984.37287,0.00121
3982.31270,0.00126
3980.25253,0.00111
3978.19236,0.00102
3976.13219,0.00094
3974.07201,0.00093
3972.01184,0.00112
3969.95167,0.00114
3967.89150,0.00075
3965.83133,0.00028
3963.77115,0.00000
3961.71098,0.00015
3959.65081,0.00062
3957.59064,0.00087
3955.53046,0.00110
3953.47029,0.00145
3951.41012,0.00132
3949.34995,0.00092
3947.28978,0.00112
3945.22960,0.00146
3943.16943,0.00129
3941.10926,0.00104
3939.04909,0.00092
3936.98892,0.00114
3934.92874,0.00110
3932.86857,0.00032
3930.80840,0.00009
3928.74823,0.00089
3926.68805,0.00163
3924.62788,0.00205
3922.56771,0.00222
3920.50754,0.00161
3918.44737,0.00091
3916.38719,0.00095
3914.32702,0.00129
3912.26685,0.00141
3910.20668,0.00176
3908.14651,0.00201
3906.08633,0.00115
3904.02616,0.00010
3901.96599,0.00007
3899.90582,0.00039
3897.84565,0.00125
3895.78547,0.00192
3893.72530,0.00139
3891.66513,0.00112
3889.60496,0.00218
3887.54478,0.00209
3885.48461,0.00118
3883.42444,0.00105
3881.36427,0.00038
3879.30410,0.00060
3877.24392,0.00154
3875.18375,0.00154
3873.12358,0.00171
3871.06341,0.00149
3869.00324,0.00136
3866.94306,0.00121
3864.88289,0.00013
3862.82272,0.00017
3860.76255,0.00131
3858.70237,0.00229
3856.64220,0.00187
3854.58203,0.00008
3852.52186,0.00049
3850.46169,0.00282
3848.40151,0.00371
3846.34134,0.00321
3844.28117,0.00221
3842.22100,0.00139
3840.16083,0.00078
3838.10065,0.00097
3836.04048,0.00197
3833.98031,0.00220
3831.92014,0.00177
3829.85997,0.00154
3827.79979,0.00126
3825.73962,0.00152
3823.67945,0.00128
3821.61928,0.00017
3819.55910,0.00102
3817.49893,0.00155
3815.43876,0.00140
3813.37859,0.00192
3811.31842,0.00153
3809.25824,0.00028
3807.19807,0.00000
3805.13790,0.00155
3803.07773,0.00223
3801.01756,0.00307
3798.95738,0.00455
3796.89721,0.00392
3794.83704,0.00317
3792.77687,0.00306
3790.71670,0.00275
3788.65652,0.00225
3786.59635,0.00142
3784.53618,0.00095
3782.47601,0.00098
3780.41583,0.00047
3778.35566,0.00055
3776.29549,0.00157
3774.23532,0.00208
3772.17515,0.00172
3770.11497,0.00125
3768.05480,0.00133
3765.99463,0.00135
3763.93446,0.00185
3761.87429,0.00190
3759.81411,0.00109
3757.75394,0.00123
3755.69377,0.00199
3753.63360,0.00129
3751.57342,0.00023
3749.51325,0.00196
3747.45308,0.00337
3745.39291,0.00104
3743.33274,0.00012
3741.27256,0.00186
3739.21239,0.00219
3737.15222,0.00081
3735.09205,0.00000
3733.03188,0.00087
3730.97170,0.00199
3728.91153,0.00214
3726.85136,0.00176
3724.79119,0.00218
3722.73102,0.00222
3720.67084,0.00135
3718.61067,0.00110
3716.55050,0.00181
3714.49033,0.00186
3712.43015,0.00118
3710.36998,0.00149
3708.30981,0.00228
3706.24964,0.00224
3704.18947,0.00145
3702.12929,0.00079
3700.06912,0.00116
3698.00895,0.00186
3695.94878,0.00262
3693.88861,0.00325
3691.82843,0.00246
3689.76826,0.00093
3687.70809,0.00075
3685.64792,0.00145
3683.58775,0.00161
3681.52757,0.00171
3679.46740,0.00199
3677.40723,0.00164
3675.34706,0.00201
3673.28688,0.00396
3671.22671,0.00341
3669.16654,0.00231
3667.10637,0.00257
3665.04620,0.00211
3662.98602,0.00153
3660.92585,0.00165
3658.86568,0.00146
3656.80551,0.00127
3654.74534,0.00299
3652.68516,0.00432
3650.62499,0.00320
3648.56482,0.00192
3646.50465,0.00229
3644.44447,0.00291
3642.38430,0.00259
3640.32413,0.00243
3638.26396,0.00276
3636.20379,0.00326
3634.14361,0.00462
3632.08344,0.00624
3630.02327,0.00599
3627.96310,0.00599
3625.90293,0.00733
3623.84275,0.00759
3621.78258,0.00671
3619.72241,0.00585
3617.66224,0.00602
3615.60207,0.00605
3613.54189,0.00531
3611.48172,0.00497
3609.42155,0.00475
3607.36138,0.00521
3605.30120,0.00645
3603.24103,0.00707
3601.18086,0.00740
3599.12069,0.00814
3597.06052,0.00842
3595.00034,0.00801
3592.94017,0.00828
3590.88000,0.00885
3588.81983,0.00841
3586.75966,0.00799
3584.69948,0.00839
3582.63931,0.00854
3580.57914,0.00858
3578.51897,0.00904
3576.45879,0.00954
3574.39862,0.00981
3572.33845,0.01004
3570.27828,0.00994
3568.21811,0.00969
3566.15793,0.01054
3564.09776,0.01186
3562.03759,0.01220
3559.97742,0.01224
3557.91725,0.01265
3555.85707,0.01301
3553.79690,0.01313
3551.73673,0.01349
3549.67656,0.01406
3547.61639,0.01430
3545.55621,0.01433
3543.49604,0.01451
3541.43587,0.01476
3539.37570,0.01490
3537.31552,0.01510
3535.25535,0.01575
3533.19518,0.01647
3531.13501,0.01693
3529.07484,0.01744
3527.01466,0.01790
3524.95449,0.01779
3522.89432,0.01739
3520.83415,0.01741
3518.77398,0.01781
3516.71380,0.01834
3514.65363,0.01892
3512.59346,0.01924
3510.53329,0.01910
3508.47312,0.01923
3506.41294,0.01992
3504.35277,0.02041
3502.29260,0.02081
3500.23243,0.02144
3498.17225,0.02209
3496.11208,0.02253
3494.05191,0.02275
3491.99174,0.02293
3489.93157,0.02318
3487.87139,0.02356
3485.81122,0.02389
3483.75105,0.02406
3481.69088,0.02435
3479.63071,0.02463
3477.57053,0.02461
3475.51036,0.02482
3473.45019,0.02545
3471.39002,0.02589
3469.32984,0.02602
3467.26967,0.02623
3465.20950,0.02649
3463.14933,0.02700
3461.08916,0.02799
3459.02898,0.02851
3456.96881,0.02822
3454.90864,0.02825
3452.84847,0.02889
3450.78830,0.02949
3448.72812,0.02968
3446.66795,0.02994
3444.60778,0.03048
3442.54761,0.03070
3440.48744,0.03080
3438.42726,0.03103
3436.36709,0.03138
3434.30692,0.03182
3432.24675,0.03221
3430.18657,0.03232
3428.12640,0.03225
3426.06623,0.03249
3424.00606,0.03283
3421.94589,0.03295
3419.88571,0.03328
3417.82554,0.03372
3415.76537,0.03390
3413.70520,0.03415
3411.64503,0.03466
3409.58485,0.03531
3407.52468,0.03573
3405.46451,0.03579
3403.40434,0.03603
3401.34416,0.03679
3399.28399,0.03746
3397.22382,0.03735
3395.16365,0.03680
3393.10348,0.03675
3391.04330,0.03740
3388.98313,0.03788
3386.92296,0.03798
3384.86279,0.03805
3382.80262,0.03798
3380.74244,0.03758
3378.68227,0.03724
3376.62210,0.03755
3374.56193,0.03828
3372.50176,0.03875
3370.44158,0.03880
3368.38141,0.03890
3366.32124,0.03936
3364.26107,0.03975
3362.20089,0.03964
3360.14072,0.03945
3358.08055,0.03969
3356.02038,0.04031
3353.96021,0.04080
3351.90003,0.04065
3349.83986,0.04018
3347.77969,0.03999
3345.71952,0.04040
3343.65935,0.04114
3341.59917,0.04151
3339.53900,0.04149
3337.47883,0.04157
3335.41866,0.04178
3333.35849,0.04167
3331.29831,0.04142
3329.23814,0.04152
3327.17797,0.04159
3325.11780,0.04153
3323.05762,0.04189
3320.99745,0.04254
3318.93728,0.04289
3316.87711,0.04269
3314.81694,0.04215
3312.75676,0.04179
3310.69659,0.04191
3308.63642,0.04245
3306.57625,0.04314
3304.51608,0.04343
3302.45590,0.04329
3300.39573,0.04327
3298.33556,0.04336
3296.27539,0.04344
3294.21521,0.04364
3292.15504,0.04362
3290.09487,0.04329
3288.03470,0.04308
3285.97453,0.04295
3283.91435,0.04270
3281.85418,0.04257
3279.79401,0.04276
3277.73384,0.04296
3275.67367,0.04315
3273.61349,0.04352
3271.55332,0.04378
3269.49315,0.04355
3267.43298,0.04318
3265.37281,0.04323
3263.31263,0.04365
3261.25246,0.04398
3259.19229,0.04387
3257.13212,0.04318
3255.07194,0.04235
3253.01177,0.04194
3250.95160,0.04195
3248.89143,0.04219
3246.83126,0.04228
3244.77108,0.04229
3242.71091,0.04269
3240.65074,0.04296
3238.59057,0.04262
3236.53040,0.04209
3234.47022,0.04189
3232.41005,0.04198
3230.34988,0.04215
3228.28971,0.04206
3226.22954,0.04159
3224.16936,0.04113
3222.10919,0.04096
3220.04902,0.04104
3217.98885,0.04118
3215.92867,0.04116
3213.86850,0.04115
3211.80833,0.04116
3209.74816,0.04106
3207.68799,0.04107
3205.62781,0.04092
3203.56764,0.04044
3201.50747,0.04002
3199.44730,0.03975
3197.38713,0.03966
3195.32695,0.03963
3193.26678,0.03949
3191.20661,0.03944
3189.14644,0.03944
3187.08626,0.03925
3185.02609,0.03903
3182.96592,0.03900
3180.90575,0.03898
3178.84558,0.03878
3176.78540,0.03870
3174.72523,0.03874
3172.66506,0.03842
3170.60489,0.03814
3168.54472,0.03824
3166.48454,0.03809
3164.42437,0.03777
3162.36420,0.03772
3160.30403,0.03758
3158.24386,0.03717
3156.18368,0.03686
3154.12351,0.03672
3152.06334,0.03649
3150.00317,0.03618
3147.94299,0.03606
3145.88282,0.03600
3143.82265,0.03575
3141.76248,0.03550
3139.70231,0.03568
3137.64213,0.03597
3135.58196,0.03559
3133.52179,0.03492
3131.46162,0.03462
3129.40145,0.03447
3127.34127,0.03420
3125.28110,0.03396
3123.22093,0.03414
3121.16076,0.03445
3119.10058,0.03427
3117.04041,0.03386
3114.98024,0.03370
3112.92007,0.03359
3110.85990,0.03348
3108.79972,0.03331
3106.73955,0.03279
3104.67938,0.03225
3102.61921,0.03220
3100.55904,0.03259
3098.49886,0.03296
3096.43869,0.03292
3094.37852,0.03257
3092.31835,0.03225
3090.25818,0.03218
3088.19800,0.03210
3086.13783,0.03186
3084.07766,0.03165
3082.01749,0.03146
3079.95731,0.03126
3077.89714,0.03108
3075.83697,0.03066
3073.77680,0.02998
3071.71663,0.02961
3069.65645,0.02961
3067.59628,0.02953
3065.53611,0.02928
3063.47594,0.02902
3061.41577,0.02903
3059.35559,0.02935
3057.29542,0.02958
3055.23525,0.02954
3053.17508,0.02928
3051.11491,0.02882
3049.05473,0.02843
3046.99456,0.02842
3044.93439,0.02842
3042.87422,0.02809
3040.81404,0.02770
3038.75387,0.02761
3036.69370,0.02767
3034.63353,0.02744
3032.57336,0.02688
3030.51318,0.02635
3028.45301,0.02606
3026.39284,0.02610
3024.33267,0.02649
3022.27250,0.02666
3020.21232,0.02626
3018.15215,0.02557
3016.09198,0.02505
3014.03181,0.02496
3011.97163,0.02512
3009.91146,0.02524
3007.85129,0.02531
3005.79112,0.02531
3003.73095,0.02491
3001.67077,0.02416
2999.61060,0.02380
2997.55043,0.02404
2995.49026,0.02426
2993.43009,0.02436
2991.36991,0.02447
2989.30974,0.02438
2987.24957,0.02430
2985.18940,0.02456
2983.12923,0.02480
2981.06905,0.02493
2979.00888,0.02507
2976.94871,0.02522
2974.88854,0.02556
2972.82836,0.02617
2970.76819,0.02662
2968.70802,0.02692
2966.64785,0.02772
2964.58768,0.02911
2962.52750,0.03029
2960.46733,0.03098
2958.40716,0.03166
2956.34699,0.03240
2954.28682,0.03316
2952.22664,0.03404
2950.16647,0.03480
2948.10630,0.03564
2946.04613,0.03698
2943.98596,0.03843
2941.92578,0.03978
2939.86561,0.04127
2937.80544,0.04304
2935.74527,0.04520
2933.68509,0.04746
2931.62492,0.04943
2929.56475,0.05096
2927.50458,0.05221
2925.44441,0.05348
2923.38423,0.05504
2921.32406,0.05696
2919.26389,0.05875
2917.20372,0.05951
2915.14355,0.05820
2913.08337,0.05497
2911.02320,0.05151
2908.96303,0.04878
2906.90286,0.04663
2904.84268,0.04497
2902.78251,0.04362
2900.72234,0.04229
2898.66217,0.04107
2896.60200,0.04005
2894.54182,0.03915
2892.48165,0.03857
2890.42148,0.03815
2888.36131,0.03761
2886.30114,0.03673
2884.24096,0.03571
2882.18079,0.03518
2880.12062,0.03501
2878.06045,0.03471
2876.00028,0.03432
2873.94010,0.03427
2871.87993,0.03458
2869.81976,0.03484
2867.75959,0.03515
2865.69941,0.03591
2863.63924,0.03694
2861.57907,0.03809
2859.51890,0.03947
2857.45873,0.04090
2855.39855,0.04255
2853.33838,0.04474
2851.27821,0.04697
2849.21804,0.04774
2847.15787,0.04584
2845.09769,0.04189
2843.03752,0.03786
2840.97735,0.03495
2838.91718,0.03282
2836.85700,0.03100
2834.79683,0.02962
2832.73666,0.02873
2830.67649,0.02804
2828.61632,0.02730
2826.55614,0.02665
2824.49597,0.02618
2822.43580,0.02581
2820.37563,0.02542
2818.31546,0.02497
2816.25528,0.02453
2814.19511,0.02424
2812.13494,0.02423
2810.07477,0.02431
2808.01460,0.02420
2805.95442,0.02376
2803.89425,0.02323
2801.83408,0.02279
2799.77391,0.02229
2797.71373,0.02178
2795.65356,0.02172
2793.59339,0.02213
2791.53322,0.02241
2789.47305,0.02240
2787.41287,0.02239
2785.35270,0.02222
2783.29253,0.02176
2781.23236,0.02132
2779.17219,0.02121
2777.11201,0.02130
2775.05184,0.02121
2772.99167,0.02095
2770.93150,0.02074
2768.87133,0.02073
2766.81115,0.02097
2764.75098,0.02102
2762.69081,0.02070
2760.63064,0.02046
2758.57046,0.02052
2756.51029,0.02068
2754.45012,0.02073
2752.38995,0.02065
2750.32978,0.02051
2748.26960,0.02030
2746.20943,0.02011
2744.14926,0.01999
2742.08909,0.02000
2740.02892,0.02015
2737.96874,0.02021
2735.90857,0.02029
2733.84840,0.02063
2731.78823,0.02092
2729.72805,0.02081
2727.66788,0.02051
2725.60771,0.02020
2723.54754,0.01984
2721.48737,0.01963
2719.42719,0.01971
2717.36702,0.02000
2715.30685,0.02013
2713.24668,0.01983
2711.18651,0.01947
2709.12633,0.01938
2707.06616,0.01939
2705.00599,0.01942
2702.94582,0.01941
2700.88565,0.01922
2698.82547,0.01890
2696.76530,0.01873
2694.70513,0.01880
2692.64496,0.01898
2690.58478,0.01914
2688.52461,0.01907
2686.46444,0.01865
2684.40427,0.01821
2682.34410,0.01810
2680.28392,0.01828
2678.22375,0.01839
2676.16358,0.01828
2674.10341,0.01817
2672.04324,0.01818
2669.98306,0.01810
2667.92289,0.01792
2665.86272,0.01801
2663.80255,0.01822
2661.74238,0.01828
2659.68220,0.01818
2657.62203,0.01815
2655.56186,0.01831
2653.50169,0.01833
2651.44151,0.01810
2649.38134,0.01781
2647.32117,0.01759
2645.26100,0.01757
2643.20083,0.01772
2641.14065,0.01769
2639.08048,0.01739
2637.02031,0.01718
2634.96014,0.01697
2632.89997,0.01673
2630.83979,0.01666
2628.77962,0.01671
2626.71945,0.01670
2624.65928,0.01640
2622.59910,0.01600
2620.53893,0.01577
2618.47876,0.01572
2616.41859,0.01576
2614.35842,0.01575
2612.29824,0.01580
2610.23807,0.01584
2608.17790,0.01559
2606.11773,0.01536
2604.05756,0.01532
2601.99738,0.01510
2599.93721,0.01479
2597.87704,0.01479
2595.81687,0.01507
2593.75670,0.01537
2591.69652,0.01534
2589.63635,0.01496
2587.57618,0.01464
2585.51601,0.01464
2583.45583,0.01476
2581.39566,0.01482
2579.33549,0.01497
2577.27532,0.01513
2575.21515,0.01502
2573.15497,0.01486
2571.09480,0.01491
2569.03463,0.01510
2566.97446,0.01488
2564.91429,0.01404
2562.85411,0.01335
2560.79394,0.01314
2558.73377,0.01289
2556.67360,0.01265
2554.61342,0.01282
2552.55325,0.01300
2550.49308,0.01300
2548.43291,0.01344
2546.37274,0.01426
2544.31256,0.01475
2542.25239,0.01460
2540.19222,0.01399
2538.13205,0.01324
2536.07188,0.01261
2534.01170,0.01210
2531.95153,0.01192
2529.89136,0.01234
2527.83119,0.01278
2525.77102,0.01285
2523.71084,0.01301
2521.65067,0.01300
2519.59050,0.01251
2517.53033,0.01229
2515.47015,0.01230
2513.40998,0.01214
2511.34981,0.01218
2509.28964,0.01244
2507.22947,0.01302
2505.16929,0.01363
2503.10912,0.01358
2501.04895,0.01325
2498.98878,0.01320
2496.92861,0.01303
2494.86843,0.01244
2492.80826,0.01199
2490.74809,0.01185
2488.68792,0.01165
2486.62775,0.01175
2484.56757,0.01246
2482.50740,0.01278
2480.44723,0.01219
2478.38706,0.01159
2476.32688,0.01148
2474.26671,0.01156
2472.20654,0.01152
2470.14637,0.01153
2468.08620,0.01168
2466.02602,0.01198
2463.96585,0.01217
2461.90568,0.01168
2459.84551,0.01112
2457.78534,0.01124
2455.72516,0.01153
2453.66499,0.01169
2451.60482,0.01151
2449.54465,0.01113
2447.48447,0.01126
2445.42430,0.01164
2443.36413,0.01152
2441.30396,0.01105
2439.24379,0.01086
2437.18361,0.01097
2435.12344,0.01075
2433.06327,0.01035
2431.00310,0.01038
2428.94293,0.01075
2426.88275,0.01084
2424.82258,0.01062
2422.76241,0.01074
2420.70224,0.01112
2418.64207,0.01153
2416.58189,0.01195
2414.52172,0.01191
2412.46155,0.01128
2410.40138,0.01059
2408.34120,0.01015
2406.28103,0.00985
2404.22086,0.00970
2402.16069,0.00943
2400.10052,0.00891
2398.04034,0.00887
2395.98017,0.00929
2393.92000,0.00977
2391.85983,0.01008
2389.79966,0.01014
2387.73948,0.00979
2385.67931,0.00931
2383.61914,0.00917
2381.55897,0.00903
2379.49880,0.00840
2377.43862,0.00765
2375.37845,0.00785
2373.31828,0.00867
2371.25811,0.00910
2369.19793,0.00898
2367.13776,0.00823
2365.07759,0.00715
2363.01742,0.00715
2360.95725,0.00825
2358.89707,0.01212
2356.83690,0.01474
2354.77673,0.01510
2352.71656,0.01384
2350.65639,0.00904
2348.59621,0.00604
2346.53604,0.01017
2344.47587,0.01275
2342.41570,0.01278
2340.35552,0.01155
2338.29535,0.01016
2336.23518,0.00926
2334.17501,0.00819
2332.11484,0.00852
2330.05466,0.01008
2327.99449,0.01147
2325.93432,0.01130
2323.87415,0.01135
2321.81398,0.01108
2319.75380,0.01027
2317.69363,0.00881
2315.63346,0.00859
2313.57329,0.00898
2311.51312,0.00914
2309.45294,0.00972
2307.39277,0.01049
2305.33260,0.01050
2303.27243,0.00986
2301.21225,0.00949
2299.15208,0.00927
2297.09191,0.00886
2295.03174,0.00835
2292.97157,0.00827
2290.91139,0.00890
2288.85122,0.00957
2286.79105,0.00965
2284.73088,0.00944
2282.67071,0.00961
2280.61053,0.01001
2278.55036,0.00973
2276.49019,0.00862
2274.43002,0.00742
2272.36984,0.00676
2270.30967,0.00680
2268.24950,0.00755
2266.18933,0.00835
2264.12916,0.00846
2262.06898,0.00834
2260.00881,0.00853
2257.94864,0.00858
2255.88847,0.00825
2253.82830,0.00738
2251.76812,0.00648
2249.70795,0.00675
2247.64778,0.00766
2245.58761,0.00777
2243.52744,0.00752
2241.46726,0.00732
2239.40709,0.00666
2237.34692,0.00649
2235.28675,0.00775
2233.22657,0.00886
2231.16640,0.00889
2229.10623,0.00859
2227.04606,0.00832
2224.98589,0.00819
2222.92571,0.00807
2220.86554,0.00809
2218.80537,0.00849
2216.74520,0.00825
2214.68503,0.00722
2212.62485,0.00612
2210.56468,0.00429
2208.50451,0.00252
2206.44434,0.00259
2204.38417,0.00442
2202.32399,0.00678
2200.26382,0.00792
2198.20365,0.00759
2196.14348,0.00779
2194.08330,0.00858
2192.02313,0.00858
2189.96296,0.00810
2187.90279,0.00754
2185.84262,0.00735
2183.78244,0.00717
2181.72227,0.00664
2179.66210,0.00682
2177.60193,0.00748
2175.54176,0.00757
2173.48158,0.00683
2171.42141,0.00610
2169.36124,0.00572
2167.30107,0.00463
2165.24089,0.00323
2163.18072,0.00283
2161.12055,0.00265
2159.06038,0.00197
2157.00021,0.00228
2154.94003,0.00349
2152.87986,0.00420
2150.81969,0.00446
2148.75952,0.00457
2146.69935,0.00469
2144.63917,0.00476
2142.57900,0.00420
2140.51883,0.00336
2138.45866,0.00352
2136.39849,0.00522
2134.33831,0.00722
2132.27814,0.00780
2130.21797,0.00736
2128.15780,0.00689
2126.09762,0.00613
2124.03745,0.00587
2121.97728,0.00700
2119.91711,0.00792
2117.85694,0.00758
2115.79676,0.00726
2113.73659,0.00746
2111.67642,0.00770
2109.61625,0.00817
2107.55608,0.00843
2105.49590,0.00786
2103.43573,0.00684
2101.37556,0.00633
2099.31539,0.00661
2097.25521,0.00687
2095.19504,0.00653
2093.13487,0.00565
2091.07470,0.00509
2089.01453,0.00572
2086.95435,0.00658
2084.89418,0.00677
2082.83401,0.00670
2080.77384,0.00658
2078.71367,0.00691
2076.65349,0.00770
2074.59332,0.00789
2072.53315,0.00736
2070.47298,0.00686
2068.41281,0.00619
2066.35263,0.00460
2064.29246,0.00332
2062.23229,0.00389
2060.17212,0.00523
2058.11194,0.00595
2056.05177,0.00612
2053.99160,0.00645
2051.93143,0.00719
2049.87126,0.00759
2047.81108,0.00708
2045.75091,0.00596
2043.69074,0.00461
2041.63057,0.00417
2039.57040,0.00492
2037.51022,0.00531
2035.45005,0.00526
2033.38988,0.00555
2031.32971,0.00546
2029.26954,0.00492
2027.20936,0.00529
2025.14919,0.00620
2023.08902,0.00587
2021.02885,0.00505
2018.96867,0.00559
2016.90850,0.00534
2014.84833,0.00241
2012.78816,0.00000
2010.72799,0.00041
2008.66781,0.00249
2006.60764,0.00443
2004.54747,0.00497
2002.48730,0.00386
2000.42713,0.00249
1998.36695,0.00257
1996.30678,0.00401
1994.24661,0.00584
1992.18644,0.00710
1990.12626,0.00680
1988.06609,0.00537
1986.00592,0.00462
1983.94575,0.00465
1981.88558,0.00495
1979.82540,0.00547
1977.76523,0.00507
1975.70506,0.00336
1973.64489,0.00246
1971.58472,0.00277
1969.52454,0.00265
1967.46437,0.00244
1965.40420,0.00302
1963.34403,0.00349
1961.28386,0.00336
1959.22368,0.00325
1957.16351,0.00350
1955.10334,0.00362
1953.04317,0.00355
1950.98299,0.00401
1948.92282,0.00483
1946.86265,0.00546
1944.80248,0.00540
1942.74231,0.00395
1940.68213,0.00289
1938.62196,0.00333
1936.56179,0.00380
1934.50162,0.00358
1932.44145,0.00320
1930.38127,0.00303
1928.32110,0.00327
1926.26093,0.00393
1924.20076,0.00461
1922.14059,0.00526
1920.08041,0.00477
1918.02024,0.00316
1915.96007,0.00267
1913.89990,0.00283
1911.83972,0.00293
1909.77955,0.00338
1907.71938,0.00407
1905.65921,0.00413
1903.59904,0.00326
1901.53886,0.00236
1899.47869,0.00228
1897.41852,0.00273
1895.35835,0.00302
1893.29818,0.00287
1891.23800,0.00200
1889.17783,0.00159
1887.11766,0.00223
1885.05749,0.00245
1882.99731,0.00240
1880.93714,0.00269
1878.87697,0.00283
1876.81680,0.00295
1874.75663,0.00333
1872.69645,0.00315
1870.63628,0.00186
1868.57611,0.00093
1866.51594,0.00153
1864.45577,0.00242
1862.39559,0.00270
1860.33542,0.00250
1858.27525,0.00219
1856.21508,0.00210
1854.15491,0.00214
1852.09473,0.00208
1850.03456,0.00194
1847.97439,0.00190
1845.91422,0.00182
1843.85404,0.00208
1841.79387,0.00270
1839.73370,0.00194
1837.67353,0.00038
1835.61336,0.00000
1833.55318,0.00053
1831.49301,0.00045
1829.43284,0.00031
1827.37267,0.00079
1825.31250,0.00101
1823.25232,0.00141
1821.19215,0.00161
1819.13198,0.00123
1817.07181,0.00089
1815.01163,0.00090
1812.95146,0.00094
1810.89129,0.00100
1808.83112,0.00119
1806.77095,0.00114
1804.71077,0.00085
1802.65060,0.00048
1800.59043,0.00034
1798.53026,0.00082
1796.47009,0.00133
1794.40991,0.00075
1792.34974,-0.00035
1790.28957,-0.00008
1788.22940,0.00036
1786.16923,0.00003
1784.10905,0.00021
1782.04888,0.00065
1779.98871,0.00067
1777.92854,0.00084
1775.86836,0.00081
1773.80819,0.00007
1771.74802,0.00000
1769.68785,0.00112
1767.62768,0.00191
1765.56750,0.00233
1763.50733,0.00202
1761.44716,0.00195
1759.38699,0.00273
1757.32682,0.00324
1755.26664,0.00425
1753.20647,0.00507
1751.14630,0.00548
1749.08613,0.00724
1747.02596,0.00985
1744.96578,0.01219
1742.90561,0.01452
1740.84544,0.01743
1738.78527,0.02141
1736.72509,0.02452
1734.66492,0.02552
1732.60475,0.02781
1730.54458,0.03000
1728.48441,0.03039
1726.42423,0.03012
1724.36406,0.02984
1722.30389,0.03006
1720.24372,0.02947
1718.18355,0.02781
1716.12337,0.02788
1714.06320,0.02920
1712.00303,0.02984
1709.94286,0.02947
1707.88268,0.02846
1705.82251,0.02779
1703.76234,0.02791
1701.70217,0.02628
1699.64200,0.02444
1697.58182,0.02400
1695.52165,0.02322
1693.46148,0.02379
1691.40131,0.02409
1689.34114,0.02393
1687.28096,0.02345
1685.22079,0.02113
1683.16062,0.02035
1681.10045,0.02194
1679.04028,0.02258
1676.98010,0.02179
1674.91993,0.02135
1672.85976,0.02185
1670.79959,0.02112
1668.73941,0.02145
1666.67924,0.02357
1664.61907,0.02397
1662.55890,0.02359
1660.49873,0.02510
1658.43855,0.02715
1656.37838,0.02752
1654.31821,0.02584
1652.25804,0.02716
1650.19787,0.03045
1648.13769,0.02948
1646.07752,0.02781
1644.01735,0.02871
1641.95718,0.02959
1639.89701,0.02978
1637.83683,0.02886
1635.77666,0.02790
1633.71649,0.02980
1631.65632,0.03168
1629.59614,0.03182
1627.53597,0.03204
1625.47580,0.03228
1623.41563,0.03232
1621.35546,0.03390
1619.29528,0.03485
1617.23511,0.03426
1615.17494,0.03538
1613.11477,0.03723
1611.05460,0.03778
1608.99442,0.03796
1606.93425,0.03838
1604.87408,0.03851
1602.81391,0.03810
1600.75373,0.03756
1598.69356,0.03684
1596.63339,0.03564
1594.57322,0.03418
1592.51305,0.03277
1590.45287,0.03140
1588.39270,0.03008
1586.33253,0.02872
1584.27236,0.02736
1582.21219,0.02636
1580.15201,0.02553
1578.09184,0.02332
1576.03167,0.02089
1573.97150,0.02112
1571.91133,0.02069
1569.85115,0.01846
1567.79098,0.01778
1565.73081,0.01817
1563.67064,0.01866
1561.61046,0.01704
1559.55029,0.01278
1557.49012,0.01311
1555.42995,0.01554
1553.36978,0.01625
1551.30960,0.01630
1549.24943,0.01679
1547.18926,0.01760
1545.12909,0.01750
1543.06892,0.01669
1541.00874,0.01525
1538.94857,0.01591
1536.88840,0.01803
1534.82823,0.01710
1532.76805,0.01569
1530.70788,0.01617
1528.64771,0.01583
1526.58754,0.01502
1524.52737,0.01477
1522.46719,0.01384
1520.40702,0.01374
1518.34685,0.01432
1516.28668,0.01451
1514.22651,0.01531
1512.16633,0.01582
1510.10616,0.01491
1508.04599,0.01155
1505.98582,0.00947
1503.92565,0.01091
1501.86547,0.01119
1499.80530,0.00925
1497.74513,0.00702
1495.68496,0.00661
1493.62478,0.00720
1491.56461,0.00606
1489.50444,0.00412
1487.44427,0.00352
1485.38410,0.00367
1483.32392,0.00357
1481.26375,0.00350
1479.20358,0.00421
1477.14341,0.00532
1475.08324,0.00658
1473.02306,0.00815
1470.96289,0.01101
1468.90272,0.01369
1466.84255,0.01474
1464.78238,0.01610
1462.72220,0.01873
1460.66203,0.01976
1458.60186,0.01828
1456.54169,0.01841
1454.48151,0.02157
1452.42134,0.02365
1450.36117,0.02407
1448.30100,0.02414
1446.24083,0.02482
1444.18065,0.02563
1442.12048,0.02602
1440.06031,0.02580
1438.00014,0.02411
1435.93997,0.02258
1433.87979,0.02243
1431.81962,0.02141
1429.75945,0.01997
1427.69928,0.01940
1425.63910,0.01885
1423.57893,0.01857
1421.51876,0.01848
1419.45859,0.01771
1417.39842,0.01793
1415.33824,0.01861
1413.27807,0.01846
1411.21790,0.01806
1409.15773,0.01797
1407.09756,0.01775
1405.03738,0.01750
1402.97721,0.01787
1400.91704,0.01793
1398.85687,0.01771
1396.79670,0.01787
1394.73652,0.01800
1392.67635,0.01869
1390.61618,0.01924
1388.55601,0.01914
1386.49583,0.01968
1384.43566,0.02077
1382.37549,0.02134
1380.31532,0.02176
1378.25515,0.02241
1376.19497,0.02293
1374.13480,0.02351
1372.07463,0.02457
1370.01446,0.02507
1367.95429,0.02514
1365.89411,0.02530
1363.83394,0.02513
1361.77377,0.02518
1359.71360,0.02556
1357.65343,0.02559
1355.59325,0.02555
1353.53308,0.02590
1351.47291,0.02648
1349.41274,0.02687
1347.35256,0.02711
1345.29239,0.02748
1343.23222,0.02796
1341.17205,0.02803
1339.11188,0.02794
1337.05170,0.02840
1334.99153,0.02905
1332.93136,0.02952
1330.87119,0.02988
1328.81102,0.03025
1326.75084,0.03072
1324.69067,0.03134
1322.63050,0.03188
1320.57033,0.03206
1318.51015,0.03213
1316.44998,0.03225
1314.38981,0.03208
1312.32964,0.03182
1310.26947,0.03150
1308.20929,0.03061
1306.14912,0.02926
1304.08895,0.02793
1302.02878,0.02660
1299.96861,0.02496
1297.90843,0.02318
1295.84826,0.02163
1293.78809,0.02044
1291.72792,0.01947
1289.66775,0.01861
1287.60757,0.01809
1285.54740,0.01781
1283.48723,0.01737
1281.42706,0.01685
1279.36688,0.01654
1277.30671,0.01647
1275.24654,0.01659
1273.18637,0.01674
1271.12620,0.01698
1269.06602,0.01745
1267.00585,0.01785
1264.94568,0.01815
1262.88551,0.01863
1260.82534,0.01933
1258.76516,0.01989
1256.70499,0.02004
1254.64482,0.02009
1252.58465,0.02032
1250.52447,0.02068
1248.46430,0.02120
1246.40413,0.02191
1244.34396,0.02275
1242.28379,0.02361
1240.22361,0.02437
1238.16344,0.02493
1236.10327,0.02541
1234.04310,0.02601
1231.98293,0.02667
1229.92275,0.02736
1227.86258,0.02820
1225.80241,0.02925
1223.74224,0.03021
1221.68207,0.03095
1219.62189,0.03142
1217.56172,0.03174
1215.50155,0.03228
1213.44138,0.03304
1211.38120,0.03383
1209.32103,0.03463
1207.26086,0.03548
1205.20069,0.03643
1203.14052,0.03711
1201.08034,0.03724
1199.02017,0.03754
1196.96000,0.03834
1194.89983,0.03870
1192.83966,0.03831
1190.77948,0.03786
1188.71931,0.03764
1186.65914,0.03739
1184.59897,0.03693
1182.53880,0.03638
1180.47862,0.03579
1178.41845,0.03524
1176.35828,0.03492
1174.29811,0.03494
1172.23793,0.03517
1170.17776,0.03530
1168.11759,0.03532
1166.05742,0.03512
1163.99725,0.03453
1161.93707,0.03379
1159.87690,0.03312
1157.81673,0.03242
1155.75656,0.03165
1153.69639,0.03101
1151.63621,0.03053
1149.57604,0.02993
1147.51587,0.02908
1145.45570,0.02812
1143.39552,0.02710
1141.33535,0.02607
1139.27518,0.02525
1137.21501,0.02466
1135.15484,0.02406
1133.09466,0.02355
1131.03449,0.02345
1128.97432,0.02369
1126.91415,0.02418
1124.85398,0.02485
1122.79380,0.02569
1120.73363,0.02679
1118.67346,0.02823
1116.61329,0.02997
1114.55312,0.03176
1112.49294,0.03369
1110.43277,0.03597
1108.37260,0.03827
1106.31243,0.04033
1104.25225,0.04230
1102.19208,0.04419
1100.13191,0.04579
1098.07174,0.04696
1096.01157,0.04769
1093.95139,0.04827
1091.89122,0.04908
1089.83105,0.05039
1087.77088,0.05209
1085.71071,0.05367
1083.65053,0.05490
1081.59036,0.05619
1079.53019,0.05779
1077.47002,0.05951
1075.40985,0.06095
1073.34967,0.06193
1071.28950,0.06294
1069.22933,0.06417
1067.16916,0.06527
1065.10898,0.06620
1063.04881,0.06720
1060.98864,0.06818
1058.92847,0.06892
1056.86830,0.06979
1054.80812,0.07117
1052.74795,0.07265
1050.68778,0.07373
1048.62761,0.07468
1046.56744,0.07578
1044.50726,0.07687
1042.44709,0.07810
1040.38692,0.07967
1038.32675,0.08131
1036.26657,0.08281
1034.20640,0.08449
1032.14623,0.08650
1030.08606,0.08814
1028.02589,0.08875
1025.96571,0.08891
1023.90554,0.08926
1021.84537,0.08940
1019.78520,0.08918
1017.72503,0.08891
1015.66485,0.08865
1013.60468,0.08826
1011.54451,0.08741
1009.48434,0.08621
1007.42417,0.08497
1005.36399,0.08350
1003.30382,0.08165
1001.24365,0.07955
999.18348,0.07736
997.12330,0.07541
995.06313,0.07385
993.00296,0.07236
990.94279,0.07032
988.88262,0.06770
986.82244,0.06511
984.76227,0.06268
982.70210,0.06032
980.64193,0.05798
978.58176,0.05542
976.52158,0.05281
974.46141,0.05060
972.40124,0.04869
970.34107,0.04694
968.28089,0.04569
966.22072,0.04473
964.16055,0.04352
962.10038,0.04204
960.04021,0.04062
957.98003,0.03913
955.91986,0.03727
953.85969,0.03532
951.79952,0.03352
949.73935,0.03171
947.67917,0.02990
945.61900,0.02811
943.55883,0.02637
941.49866,0.02510
939.43849,0.02420
937.37831,0.02321
935.31814,0.02212
933.25797,0.02129
931.19780,0.02110
929.13762,0.02111
927.07745,0.02043
925.01728,0.01896
922.95711,0.01752
920.89694,0.01677
918.83676,0.01644
916.77659,0.01586
914.71642,0.01477
912.65625,0.01351
910.59608,0.01246
908.53590,0.01152
906.47573,0.01043
904.41556,0.00942
902.35539,0.00870
900.29522,0.00810
898.23504,0.00793
896.17487,0.00829
894.11470,0.00855
892.05453,0.00848
889.99435,0.00828
887.93418,0.00788
885.87401,0.00727
883.81384,0.00700
881.75367,0.00730
879.69349,0.00760
877.63332,0.00757
875.57315,0.00791
873.51298,0.00890
871.45281,0.00937
869.39263,0.00902
867.33246,0.00829
865.27229,0.00694
863.21212,0.00559
861.15194,0.00466
859.09177,0.00386
857.03160,0.00341
854.97143,0.00311
852.91126,0.00215
850.85108,0.00074
848.79091,0.00000
846.73074,0.00019
844.67057,0.00062
842.61040,0.00064
840.55022,0.00019
838.49005,-0.00004
836.42988,0.00043
834.36971,0.00134
832.30954,0.00220
830.24936,0.00250
828.18919,0.00234
826.12902,0.00203
824.06885,0.00199
822.00867,0.00283
819.94850,0.00382
817.88833,0.00393
815.82816,0.00365
813.76799,0.00364
811.70781,0.00344
809.64764,0.00291
807.58747,0.00254
805.52730,0.00207
803.46713,0.00113
801.40695,0.00046
799.34678,0.00028
797.28661,0.00000
795.22644,-0.00034
793.16627,-0.00002
791.10609,0.00050
789.04592,0.00082
786.98575,0.00131
784.92558,0.00214
782.86540,0.00287
780.80523,0.00330
778.74506,0.00342
776.68489,0.00300
774.62472,0.00275
772.56454,0.00345
770.50437,0.00438
768.44420,0.00494
766.38403,0.00601
764.32386,0.00806
762.26368,0.00991
760.20351,0.01082
758.14334,0.01140
756.08317,0.01208
754.02299,0.01263
751.96282,0.01206
749.90265,0.01020
747.84248,0.00878
745.78231,0.00875
743.72213,0.00864
741.66196,0.00725
739.60179,0.00547
737.54162,0.00499
735.48145,0.00588
733.42127,0.00639
731.36110,0.00609
729.30093,0.00605
727.24076,0.00587
725.18059,0.00524
723.12041,0.00499
721.06024,0.00583
719.00007,0.00563
716.93990,0.00481
714.87972,0.00428
712.81955,0.00382
710.75938,0.00345
708.69921,0.00333
706.63904,0.00364
704.57886,0.00426
702.51869,0.00469
700.45852,0.00460
698.39835,0.00424
696.33818,0.00350
694.27800,0.00203
692.21783,0.00061
690.15766,0.00000
688.09749,-0.00028
686.03731,-0.00033
683.97714,0.00058
681.91697,0.00205
679.85680,0.00286
677.79663,0.00286
675.73645,0.00289
673.67628,0.00250
671.61611,0.00167
669.55594,0.00673
667.49577,0.01002
665.43559,0.00203
663.37542,0.00363
661.31525,0.00635
659.25508,0.00672
657.19491,0.00663
655.13473,0.00608
653.07456,0.00337
651.01439,-0.00004
648.95422,0.00000
646.89404,0.00211
644.83387,0.00320
642.77370,0.00189
640.71353,0.00125
638.65336,0.00349
636.59318,0.00581
634.53301,0.00441
632.47284,0.00113
630.41267,-0.00012
628.35250,0.00087
626.29232,0.00315
624.23215,0.00622
622.17198,0.00543
620.11181,-0.00062
618.05164,-0.00561
615.99146,-0.00197
613.93129,0.00550
611.87112,0.00578
609.81095,0.00139
607.75077,-0.00095
605.69060,-0.00238
603.63043,-0.00174
601.57026,0.00078
599.51009,0.00000
