3996.73391,0.00017
3994.67373,0.00039
3992.61356,0.00051
3990.55339,0.00064
3988.49322,0.00079
3986.43305,0.00071
3984.37287,0.00046
3982.31270,0.00042
3980.25253,0.00058
3978.19236,0.00053
3976.13219,0.00032
3974.07201,0.00020
3972.01184,0.00029
3969.95167,0.00054
3967.89150,0.00061
3965.83133,0.00035
3963.77115,0.00019
3961.71098,0.00043
3959.65081,0.00062
3957.59064,0.00045
3955.53046,0.00033
3953.47029,0.00045
3951.41012,0.00044
3949.34995,0.00017
3947.28978,0.00000
3945.22960,0.00011
3943.16943,0.00026
3941.10926,0.00033
3939.04909,0.00042
3936.98892,0.00039
3934.92874,0.00012
3932.86857,0.00000
3930.80840,0.00048
3928.74823,0.00138
3926.68805,0.00205
3924.62788,0.00224
3922.56771,0.00201
3920.50754,0.00145
3918.44737,0.00085
3916.38719,0.00059
3914.32702,0.00075
3912.26685,0.00104
3910.20668,0.00104
3908.14651,0.00067
3906.08633,0.00039
3904.02616,0.00067
3901.96599,0.00131
3899.90582,0.00189
3897.84565,0.00219
3895.78547,0.00213
3893.72530,0.00204
3891.66513,0.00218
3889.60496,0.00206
3887.54478,0.00139
3885.48461,0.00085
3883.42444,0.00109
3881.36427,0.00161
3879.30410,0.00176
3877.24392,0.00178
3875.18375,0.00197
3873.12358,0.00218
3871.06341,0.00230
3869.00324,0.00223
3866.94306,0.00195
3864.88289,0.00160
3862.82272,0.00136
3860.76255,0.00132
3858.70237,0.00129
3856.64220,0.00115
3854.58203,0.00130
3852.52186,0.00189
3850.46169,0.00216
3848.40151,0.00174
3846.34134,0.00082
3844.28117,0.00000
3842.22100,0.00000
3840.16083,0.00064
3838.10065,0.00125
3836.04048,0.00155
3833.98031,0.00171
3831.92014,0.00196
3829.85997,0.00192
3827.79979,0.00145
3825.73962,0.00121
3823.67945,0.00163
3821.61928,0.00204
3819.55910,0.00150
3817.49893,0.00052
3815.43876,0.00034
3813.37859,0.00091
3811.31842,0.00112
3809.25824,0.00079
3807.19807,0.00060
3805.13790,0.00083
3803.07773,0.00103
3801.01756,0.00097
3798.95738,0.00077
3796.89721,0.00069
3794.83704,0.00074
3792.77687,0.00066
3790.71670,0.00046
3788.65652,0.00047
3786.59635,0.00075
3784.53618,0.00112
3782.47601,0.00140
3780.41583,0.00164
3778.35566,0.00180
3776.29549,0.00161
3774.23532,0.00127
3772.17515,0.00116
3770.11497,0.00124
3768.05480,0.00124
3765.99463,0.00107
3763.93446,0.00079
3761.87429,0.00070
3759.81411,0.00105
3757.75394,0.00138
3755.69377,0.00131
3753.63360,0.00113
3751.57342,0.00088
3749.51325,0.00084
3747.45308,0.00156
3745.39291,0.00269
3743.33274,0.00328
3741.27256,0.00300
3739.21239,0.00254
3737.15222,0.00220
3735.09205,0.00172
3733.03188,0.00108
3730.97170,0.00076
3728.91153,0.00105
3726.85136,0.00143
3724.79119,0.00129
3722.73102,0.00091
3720.67084,0.00056
3718.61067,0.00025
3716.55050,0.00012
3714.49033,0.00022
3712.43015,0.00030
3710.36998,0.00033
3708.30981,0.00063
3706.24964,0.00085
3704.18947,0.00087
3702.12929,0.00087
3700.06912,0.00070
3698.00895,0.00048
3695.94878,0.00033
3693.88861,0.00036
3691.82843,0.00085
3689.76826,0.00163
3687.70809,0.00172
3685.64792,0.00111
3683.58775,0.00086
3681.52757,0.00127
3679.46740,0.00148
3677.40723,0.00083
3675.34706,0.00000
3673.28688,0.00013
3671.22671,0.00069
3669.16654,0.00090
3667.10637,0.00119
3665.04620,0.00179
3662.98602,0.00209
3660.92585,0.00188
3658.86568,0.00154
3656.80551,0.00139
3654.74534,0.00165
3652.68516,0.00252
3650.62499,0.00382
3648.56482,0.00439
3646.50465,0.00370
3644.44447,0.00298
3642.38430,0.00290
3640.32413,0.00335
3638.26396,0.00404
3636.20379,0.00472
3634.14361,0.00519
3632.08344,0.00522
3630.02327,0.00505
3627.96310,0.00529
3625.90293,0.00582
3623.84275,0.00613
3621.78258,0.00635
3619.72241,0.00680
3617.66224,0.00729
3615.60207,0.00733
3613.54189,0.00714
3611.48172,0.00757
3609.42155,0.00854
3607.36138,0.00914
3605.30120,0.00927
3603.24103,0.00953
3601.18086,0.01024
3599.12069,0.01096
3597.06052,0.01117
3595.00034,0.01109
3592.94017,0.01118
3590.88000,0.01150
3588.81983,0.01211
3586.75966,0.01301
3584.69948,0.01365
3582.63931,0.01372
3580.57914,0.01360
3578.51897,0.01373
3576.45879,0.01410
3574.39862,0.01461
3572.33845,0.01546
3570.27828,0.01656
3568.21811,0.01726
3566.15793,0.01743
3564.09776,0.01786
3562.03759,0.01866
3559.97742,0.01913
3557.91725,0.01926
3555.85707,0.01969
3553.79690,0.02055
3551.73673,0.02170
3549.67656,0.02302
3547.61639,0.02414
3545.55621,0.02469
3543.49604,0.02486
3541.43587,0.02512
3539.37570,0.02539
3537.31552,0.02556
3535.25535,0.02583
3533.19518,0.02610
3531.13501,0.02619
3529.07484,0.02653
3527.01466,0.02738
3524.95449,0.02840
3522.89432,0.02933
3520.83415,0.03005
3518.77398,0.03056
3516.71380,0.03122
3514.65363,0.03212
3512.59346,0.03297
3510.53329,0.03351
3508.47312,0.03374
3506.41294,0.03393
3504.35277,0.03422
3502.29260,0.03472
3500.23243,0.03538
3498.17225,0.03586
3496.11208,0.03625
3494.05191,0.03684
3491.99174,0.03762
3489.93157,0.03835
3487.87139,0.03896
3485.81122,0.03969
3483.75105,0.04063
3481.69088,0.04120
3479.63071,0.04107
3477.57053,0.04113
3475.51036,0.04198
3473.45019,0.04310
3471.39002,0.04420
3469.32984,0.04502
3467.26967,0.04536
3465.20950,0.04569
3463.14933,0.04633
3461.08916,0.04693
3459.02898,0.04736
3456.96881,0.04775
3454.90864,0.04810
3452.84847,0.04843
3450.78830,0.04881
3448.72812,0.04940
3446.66795,0.05011
3444.60778,0.05081
3442.54761,0.05169
3440.48744,0.05248
3438.42726,0.05296
3436.36709,0.05335
3434.30692,0.05341
3432.24675,0.05309
3430.18657,0.05307
3428.12640,0.05393
3426.06623,0.05512
3424.00606,0.05569
3421.94589,0.05600
3419.88571,0.05663
3417.82554,0.05717
3415.76537,0.05741
3413.70520,0.05757
3411.64503,0.05789
3409.58485,0.05852
3407.52468,0.05920
3405.46451,0.05952
3403.40434,0.05962
3401.34416,0.05997
3399.28399,0.06026
3397.22382,0.06031
3395.16365,0.06101
3393.10348,0.06226
3391.04330,0.06298
3388.98313,0.06324
3386.92296,0.06335
3384.86279,0.06357
3382.80262,0.06397
3380.74244,0.06411
3378.68227,0.06403
3376.62210,0.06410
3374.56193,0.06447
3372.50176,0.06513
3370.44158,0.06591
3368.38141,0.06649
3366.32124,0.06668
3364.26107,0.06686
3362.20089,0.06732
3360.14072,0.06761
3358.08055,0.06770
3356.02038,0.06813
3353.96021,0.06870
3351.90003,0.06879
3349.83986,0.06864
3347.77969,0.06880
3345.71952,0.06918
3343.65935,0.06951
3341.59917,0.06955
3339.53900,0.06930
3337.47883,0.06950
3335.41866,0.07056
3333.35849,0.07141
3331.29831,0.07112
3329.23814,0.07049
3327.17797,0.07047
3325.11780,0.07090
3323.05762,0.07114
3320.99745,0.07099
3318.93728,0.07101
3316.87711,0.07154
3314.81694,0.07202
3312.75676,0.07214
3310.69659,0.07204
3308.63642,0.07200
3306.57625,0.07237
3304.51608,0.07261
3302.45590,0.07220
3300.39573,0.07185
3298.33556,0.07212
3296.27539,0.07279
3294.21521,0.07328
3292.15504,0.07330
3290.09487,0.07304
3288.03470,0.07274
3285.97453,0.07276
3283.91435,0.07304
3281.85418,0.07324
3279.79401,0.07337
3277.73384,0.07353
3275.67367,0.07361
3273.61349,0.07342
3271.55332,0.07307
3269.49315,0.07273
3267.43298,0.07272
3265.37281,0.07313
3263.31263,0.07352
3261.25246,0.07380
3259.19229,0.07397
3257.13212,0.07338
3255.07194,0.07211
3253.01177,0.07145
3250.95160,0.07190
3248.89143,0.07255
3246.83126,0.07257
3244.77108,0.07207
3242.71091,0.07166
3240.65074,0.07162
3238.59057,0.07164
3236.53040,0.07150
3234.47022,0.07128
3232.41005,0.07088
3230.34988,0.07036
3228.28971,0.07010
3226.22954,0.07021
3224.16936,0.07022
3222.10919,0.06978
3220.04902,0.06942
3217.98885,0.06951
3215.92867,0.06942
3213.86850,0.06904
3211.80833,0.06898
3209.74816,0.06900
3207.68799,0.06867
3205.62781,0.06845
3203.56764,0.06850
3201.50747,0.06845
3199.44730,0.06816
3197.38713,0.06761
3195.32695,0.06682
3193.26678,0.06610
3191.20661,0.06572
3189.14644,0.06570
3187.08626,0.06575
3185.02609,0.06551
3182.96592,0.06520
3180.90575,0.06502
3178.84558,0.06484
3176.78540,0.06469
3174.72523,0.06436
3172.66506,0.06381
3170.60489,0.06344
3168.54472,0.06337
3166.48454,0.06333
3164.42437,0.06310
3162.36420,0.06281
3160.30403,0.06261
3158.24386,0.06240
3156.18368,0.06204
3154.12351,0.06137
3152.06334,0.06044
3150.00317,0.05955
3147.94299,0.05888
3145.88282,0.05856
3143.82265,0.05848
3141.76248,0.05856
3139.70231,0.05866
3137.64213,0.05842
3135.58196,0.05791
3133.52179,0.05748
3131.46162,0.05735
3129.40145,0.05725
3127.34127,0.05668
3125.28110,0.05606
3123.22093,0.05587
3121.16076,0.05569
3119.10058,0.05532
3117.04041,0.05491
3114.98024,0.05433
3112.92007,0.05369
3110.85990,0.05345
3108.79972,0.05349
3106.73955,0.05330
3104.67938,0.05268
3102.61921,0.05193
3100.55904,0.05175
3098.49886,0.05194
3096.43869,0.05168
3094.37852,0.05105
3092.31835,0.05083
3090.25818,0.05084
3088.19800,0.05049
3086.13783,0.05005
3084.07766,0.04965
3082.01749,0.04922
3079.95731,0.04898
3077.89714,0.04877
3075.83697,0.04841
3073.77680,0.04822
3071.71663,0.04811
3069.65645,0.04793
3067.59628,0.04780
3065.53611,0.04756
3063.47594,0.04711
3061.41577,0.04668
3059.35559,0.04639
3057.29542,0.04617
3055.23525,0.04589
3053.17508,0.04535
3051.11491,0.04454
3049.05473,0.04370
3046.99456,0.04318
3044.93439,0.04311
3042.87422,0.04304
3040.81404,0.04277
3038.75387,0.04263
3036.69370,0.04267
3034.63353,0.04247
3032.57336,0.04197
3030.51318,0.04151
3028.45301,0.04103
3026.39284,0.04035
3024.33267,0.03984
3022.27250,0.03974
3020.21232,0.03980
3018.15215,0.03982
3016.09198,0.03977
3014.03181,0.03965
3011.97163,0.03951
3009.91146,0.03938
3007.85129,0.03920
3005.79112,0.03885
3003.73095,0.03854
3001.67077,0.03840
2999.61060,0.03825
2997.55043,0.03797
2995.49026,0.03765
2993.43009,0.03756
2991.36991,0.03767
2989.30974,0.03751
2987.24957,0.03725
2985.18940,0.03740
2983.12923,0.03794
2981.06905,0.03843
2979.00888,0.03883
2976.94871,0.03945
2974.88854,0.04021
2972.82836,0.04089
2970.76819,0.04174
2968.70802,0.04289
2966.64785,0.04409
2964.58768,0.04524
2962.52750,0.04653
2960.46733,0.04786
2958.40716,0.04904
2956.34699,0.05028
2954.28682,0.05165
2952.22664,0.05292
2950.16647,0.05429
2948.10630,0.05605
2946.04613,0.05810
2943.98596,0.06019
2941.92578,0.06238
2939.86561,0.06483
2937.80544,0.06762
2935.74527,0.07081
2933.68509,0.07439
2931.62492,0.07791
2929.56475,0.08092
2927.50458,0.08356
2925.44441,0.08594
2923.38423,0.08827
2921.32406,0.09069
2919.26389,0.09247
2917.20372,0.09243
2915.14355,0.08974
2913.08337,0.08480
2911.02320,0.07930
2908.96303,0.07477
2906.90286,0.07147
2904.84268,0.06902
2902.78251,0.06722
2900.72234,0.06579
2898.66217,0.06417
2896.60200,0.06238
2894.54182,0.06085
2892.48165,0.05956
2890.42148,0.05841
2888.36131,0.05744
2886.30114,0.05640
2884.24096,0.05524
2882.18079,0.05416
2880.12062,0.05325
2878.06045,0.05253
2876.00028,0.05220
2873.94010,0.05250
2871.87993,0.05306
2869.81976,0.05342
2867.75959,0.05379
2865.69941,0.05459
2863.63924,0.05599
2861.57907,0.05801
2859.51890,0.06044
2857.45873,0.06330
2855.39855,0.06659
2853.33838,0.06990
2851.27821,0.07260
2849.21804,0.07301
2847.15787,0.06932
2845.09769,0.06279
2843.03752,0.05651
2840.97735,0.05181
2838.91718,0.04842
2836.85700,0.04588
2834.79683,0.04378
2832.73666,0.04221
2830.67649,0.04119
2828.61632,0.04036
2826.55614,0.03966
2824.49597,0.03911
2822.43580,0.03857
2820.37563,0.03795
2818.31546,0.03735
2816.25528,0.03684
2814.19511,0.03613
2812.13494,0.03532
2810.07477,0.03489
2808.01460,0.03471
2805.95442,0.03437
2803.89425,0.03418
2801.83408,0.03437
2799.77391,0.03413
2797.71373,0.03324
2795.65356,0.03248
2793.59339,0.03230
2791.53322,0.03232
2789.47305,0.03210
2787.41287,0.03165
2785.35270,0.03124
2783.29253,0.03108
2781.23236,0.03095
2779.17219,0.03072
2777.11201,0.03054
2775.05184,0.03042
2772.99167,0.03016
2770.93150,0.03005
2768.87133,0.03023
2766.81115,0.03015
2764.75098,0.02971
2762.69081,0.02938
2760.63064,0.02924
2758.57046,0.02915
2756.51029,0.02907
2754.45012,0.02903
2752.38995,0.02904
2750.32978,0.02909
2748.26960,0.02916
2746.20943,0.02916
2744.14926,0.02904
2742.08909,0.02901
2740.02892,0.02897
2737.96874,0.02871
2735.90857,0.02838
2733.84840,0.02806
2731.78823,0.02775
2729.72805,0.02759
2727.66788,0.02761
2725.60771,0.02770
2723.54754,0.02764
2721.48737,0.02750
2719.42719,0.02756
2717.36702,0.02764
2715.30685,0.02768
2713.24668,0.02772
2711.18651,0.02745
2709.12633,0.02702
2707.06616,0.02688
2705.00599,0.02690
2702.94582,0.02681
2700.88565,0.02680
2698.82547,0.02684
2696.76530,0.02665
2694.70513,0.02632
2692.64496,0.02606
2690.58478,0.02598
2688.52461,0.02616
2686.46444,0.02623
2684.40427,0.02595
2682.34410,0.02558
2680.28392,0.02544
2678.22375,0.02536
2676.16358,0.02504
2674.10341,0.02474
2672.04324,0.02479
2669.98306,0.02499
2667.92289,0.02504
2665.86272,0.02491
2663.80255,0.02489
2661.74238,0.02502
2659.68220,0.02503
2657.62203,0.02488
2655.56186,0.02453
2653.50169,0.02404
2651.44151,0.02370
2649.38134,0.02360
2647.32117,0.02350
2645.26100,0.02331
2643.20083,0.02311
2641.14065,0.02290
2639.08048,0.02278
2637.02031,0.02297
2634.96014,0.02341
2632.89997,0.02346
2630.83979,0.02298
2628.77962,0.02239
2626.71945,0.02190
2624.65928,0.02143
2622.59910,0.02103
2620.53893,0.02072
2618.47876,0.02076
2616.41859,0.02114
2614.35842,0.02108
2612.29824,0.02057
2610.23807,0.02034
2608.17790,0.02055
2606.11773,0.02067
2604.05756,0.02026
2601.99738,0.01960
2599.93721,0.01920
2597.87704,0.01931
2595.81687,0.01967
2593.75670,0.01976
2591.69652,0.01984
2589.63635,0.02011
2587.57618,0.02009
2585.51601,0.01956
2583.45583,0.01911
2581.39566,0.01931
2579.33549,0.01968
2577.27532,0.01946
2575.21515,0.01924
2573.15497,0.01936
2571.09480,0.01925
2569.03463,0.01889
2566.97446,0.01845
2564.91429,0.01796
2562.85411,0.01750
2560.79394,0.01710
2558.73377,0.01691
2556.67360,0.01713
2554.61342,0.01779
2552.55325,0.01834
2550.49308,0.01811
2548.43291,0.01757
2546.37274,0.01733
2544.31256,0.01690
2542.25239,0.01651
2540.19222,0.01686
2538.13205,0.01722
2536.07188,0.01704
2534.01170,0.01707
2531.95153,0.01751
2529.89136,0.01757
2527.83119,0.01703
2525.77102,0.01670
2523.71084,0.01680
2521.65067,0.01666
2519.59050,0.01618
2517.53033,0.01591
2515.47015,0.01612
2513.40998,0.01656
2511.34981,0.01669
2509.28964,0.01637
2507.22947,0.01599
2505.16929,0.01599
2503.10912,0.01603
2501.04895,0.01560
2498.98878,0.01474
2496.92861,0.01397
2494.86843,0.01404
2492.80826,0.01467
2490.74809,0.01516
2488.68792,0.01536
2486.62775,0.01535
2484.56757,0.01510
2482.50740,0.01473
2480.44723,0.01443
2478.38706,0.01429
2476.32688,0.01429
2474.26671,0.01432
2472.20654,0.01419
2470.14637,0.01384
2468.08620,0.01353
2466.02602,0.01355
2463.96585,0.01377
2461.90568,0.01368
2459.84551,0.01328
2457.78534,0.01309
2455.72516,0.01328
2453.66499,0.01349
2451.60482,0.01357
2449.54465,0.01377
2447.48447,0.01414
2445.42430,0.01427
2443.36413,0.01346
2441.30396,0.01213
2439.24379,0.01167
2437.18361,0.01194
2435.12344,0.01214
2433.06327,0.01249
2431.00310,0.01298
2428.94293,0.01306
2426.88275,0.01266
2424.82258,0.01221
2422.76241,0.01208
2420.70224,0.01202
2418.64207,0.01176
2416.58189,0.01165
2414.52172,0.01156
2412.46155,0.01108
2410.40138,0.01072
2408.34120,0.01097
2406.28103,0.01116
2404.22086,0.01095
2402.16069,0.01089
2400.10052,0.01099
2398.04034,0.01101
2395.98017,0.01084
2393.92000,0.01061
2391.85983,0.01053
2389.79966,0.01069
2387.73948,0.01075
2385.67931,0.01050
2383.61914,0.01049
2381.55897,0.01102
2379.49880,0.01177
2377.43862,0.01235
2375.37845,0.01277
2373.31828,0.01303
2371.25811,0.01312
2369.19793,0.01251
2367.13776,0.01074
2365.07759,0.00977
2363.01742,0.01113
2360.95725,0.01108
2358.89707,0.00926
2356.83690,0.00956
2354.77673,0.01273
2352.71656,0.01458
2350.65639,0.01274
2348.59621,0.01083
2346.53604,0.01172
2344.47587,0.01228
2342.41570,0.01229
2340.35552,0.01274
2338.29535,0.01326
2336.23518,0.01273
2334.17501,0.01199
2332.11484,0.01276
2330.05466,0.01348
2327.99449,0.01269
2325.93432,0.01148
2323.87415,0.01139
2321.81398,0.01124
2319.75380,0.01055
2317.69363,0.00988
2315.63346,0.00995
2313.57329,0.01018
2311.51312,0.01014
2309.45294,0.01001
2307.39277,0.01003
2305.33260,0.01050
2303.27243,0.01086
2301.21225,0.01049
2299.15208,0.00989
2297.09191,0.00995
2295.03174,0.01056
2292.97157,0.01097
2290.91139,0.01082
2288.85122,0.01034
2286.79105,0.01007
2284.73088,0.00999
2282.67071,0.00979
2280.61053,0.00959
2278.55036,0.00962
2276.49019,0.00961
2274.43002,0.00923
2272.36984,0.00853
2270.30967,0.00776
2268.24950,0.00737
2266.18933,0.00775
2264.12916,0.00852
2262.06898,0.00870
2260.00881,0.00855
2257.94864,0.00934
2255.88847,0.01019
2253.82830,0.00932
2251.76812,0.00785
2249.70795,0.00736
2247.64778,0.00707
2245.58761,0.00652
2243.52744,0.00622
2241.46726,0.00631
2239.40709,0.00695
2237.34692,0.00758
2235.28675,0.00709
2233.22657,0.00575
2231.16640,0.00476
2229.10623,0.00431
2227.04606,0.00431
2224.98589,0.00471
2222.92571,0.00505
2220.86554,0.00576
2218.80537,0.00634
2216.74520,0.00557
2214.68503,0.00469
2212.62485,0.00507
2210.56468,0.00607
2208.50451,0.00629
2206.44434,0.00554
2204.38417,0.00499
2202.32399,0.00559
2200.26382,0.00701
2198.20365,0.00729
2196.14348,0.00601
2194.08330,0.00465
2192.02313,0.00399
2189.96296,0.00428
2187.90279,0.00502
2185.84262,0.00530
2183.78244,0.00573
2181.72227,0.00655
2179.66210,0.00637
2177.60193,0.00629
2175.54176,0.00774
2173.48158,0.00824
2171.42141,0.00701
2169.36124,0.00631
2167.30107,0.00542
2165.24089,0.00309
2163.18072,0.00137
2161.12055,0.00163
2159.06038,0.00208
2157.00021,0.00187
2154.94003,0.00212
2152.87986,0.00242
2150.81969,0.00250
2148.75952,0.00329
2146.69935,0.00481
2144.63917,0.00538
2142.57900,0.00477
2140.51883,0.00486
2138.45866,0.00616
2136.39849,0.00742
2134.33831,0.00735
2132.27814,0.00652
2130.21797,0.00538
2128.15780,0.00418
2126.09762,0.00419
2124.03745,0.00446
2121.97728,0.00420
2119.91711,0.00472
2117.85694,0.00590
2115.79676,0.00682
2113.73659,0.00706
2111.67642,0.00647
2109.61625,0.00561
2107.55608,0.00495
2105.49590,0.00501
2103.43573,0.00557
2101.37556,0.00573
2099.31539,0.00576
2097.25521,0.00582
2095.19504,0.00578
2093.13487,0.00572
2091.07470,0.00559
2089.01453,0.00543
2086.95435,0.00526
2084.89418,0.00501
2082.83401,0.00460
2080.77384,0.00464
2078.71367,0.00587
2076.65349,0.00674
2074.59332,0.00582
2072.53315,0.00495
2070.47298,0.00524
2068.41281,0.00512
2066.35263,0.00452
2064.29246,0.00494
2062.23229,0.00609
2060.17212,0.00618
2058.11194,0.00488
2056.05177,0.00418
2053.99160,0.00519
2051.93143,0.00704
2049.87126,0.00824
2047.81108,0.00739
2045.75091,0.00530
2043.69074,0.00442
2041.63057,0.00615
2039.57040,0.00838
2037.51022,0.00726
2035.45005,0.00429
2033.38988,0.00276
2031.32971,0.00223
2029.26954,0.00293
2027.20936,0.00483
2025.14919,0.00521
2023.08902,0.00360
2021.02885,0.00242
2018.96867,0.00200
2016.90850,0.00173
2014.84833,0.00286
2012.78816,0.00517
2010.72799,0.00646
2008.66781,0.00583
2006.60764,0.00495
2004.54747,0.00582
2002.48730,0.00688
2000.42713,0.00603
1998.36695,0.00498
1996.30678,0.00483
1994.24661,0.00418
1992.18644,0.00328
1990.12626,0.00269
1988.06609,0.00222
1986.00592,0.00255
1983.94575,0.00318
1981.88558,0.00273
1979.82540,0.00131
1977.76523,0.00000
1975.70506,0.00042
1973.64489,0.00257
1971.58472,0.00427
1969.52454,0.00495
1967.46437,0.00445
1965.40420,0.00242
1963.34403,0.00083
1961.28386,0.00079
1959.22368,0.00109
1957.16351,0.00163
1955.10334,0.00255
1953.04317,0.00283
1950.98299,0.00250
1948.92282,0.00173
1946.86265,0.00096
1944.80248,0.00119
1942.74231,0.00220
1940.68213,0.00301
1938.62196,0.00294
1936.56179,0.00256
1934.50162,0.00270
1932.44145,0.00312
1930.38127,0.00329
1928.32110,0.00333
1926.26093,0.00362
1924.20076,0.00401
1922.14059,0.00371
1920.08041,0.00283
1918.02024,0.00252
1915.96007,0.00295
1913.89990,0.00327
1911.83972,0.00320
1909.77955,0.00293
1907.71938,0.00255
1905.65921,0.00245
1903.59904,0.00294
1901.53886,0.00359
1899.47869,0.00367
1897.41852,0.00296
1895.35835,0.00194
1893.29818,0.00139
1891.23800,0.00150
1889.17783,0.00174
1887.11766,0.00194
1885.05749,0.00227
1882.99731,0.00242
1880.93714,0.00206
1878.87697,0.00154
1876.81680,0.00117
1874.75663,0.00098
1872.69645,0.00113
1870.63628,0.00168
1868.57611,0.00223
1866.51594,0.00224
1864.45577,0.00192
1862.39559,0.00192
1860.33542,0.00213
1858.27525,0.00200
1856.21508,0.00164
1854.15491,0.00161
1852.09473,0.00171
1850.03456,0.00160
1847.97439,0.00144
1845.91422,0.00125
1843.85404,0.00095
1841.79387,0.00083
1839.73370,0.00096
1837.67353,0.00112
1835.61336,0.00111
1833.55318,0.00088
1831.49301,0.00070
1829.43284,0.00082
1827.37267,0.00092
1825.31250,0.00089
1823.25232,0.00109
1821.19215,0.00126
1819.13198,0.00089
1817.07181,0.00024
1815.01163,0.00000
1812.95146,0.00007
1810.89129,0.00011
1808.83112,0.00021
1806.77095,0.00052
1804.71077,0.00069
1802.65060,0.00058
1800.59043,0.00046
1798.53026,0.00040
1796.47009,0.00021
1794.40991,-0.00009
1792.34974,-0.00017
1790.28957,-0.00001
1788.22940,0.00001
1786.16923,-0.00015
1784.10905,-0.00020
1782.04888,0.00000
1779.98871,0.00019
1777.92854,0.00015
1775.86836,-0.00003
1773.80819,-0.00001
1771.74802,0.00014
1769.68785,-0.00001
1767.62768,-0.00024
1765.56750,0.00010
1763.50733,0.00110
1761.44716,0.00247
1759.38699,0.00378
1757.32682,0.00482
1755.26664,0.00584
1753.20647,0.00711
1751.14630,0.00880
1749.08613,0.01101
1747.02596,0.01377
1744.96578,0.01716
1742.90561,0.02118
1740.84544,0.02576
1738.78527,0.03043
1736.72509,0.03449
1734.66492,0.03822
1732.60475,0.04138
1730.54458,0.04299
1728.48441,0.04358
1726.42423,0.04364
1724.36406,0.04317
1722.30389,0.04249
1720.24372,0.04210
1718.18355,0.04207
1716.12337,0.04215
1714.06320,0.04224
1712.00303,0.04248
1709.94286,0.04262
1707.88268,0.04218
1705.82251,0.04107
1703.76234,0.03973
1701.70217,0.03851
1699.64200,0.03742
1697.58182,0.03651
1695.52165,0.03563
1693.46148,0.03481
1691.40131,0.03425
1689.34114,0.03404
1687.28096,0.03397
1685.22079,0.03380
1683.16062,0.03371
1681.10045,0.03379
1679.04028,0.03371
1676.98010,0.03346
1674.91993,0.03340
1672.85976,0.03378
1670.79959,0.03480
1668.73941,0.03614
1666.67924,0.03706
1664.61907,0.03788
1662.55890,0.03930
1660.49873,0.04097
1658.43855,0.04222
1656.37838,0.04312
1654.31821,0.04428
1652.25804,0.04584
1650.19787,0.04665
1648.13769,0.04663
1646.07752,0.04656
1644.01735,0.04676
1641.95718,0.04706
1639.89701,0.04752
1637.83683,0.04841
1635.77666,0.04966
1633.71649,0.05044
1631.65632,0.05064
1629.59614,0.05102
1627.53597,0.05189
1625.47580,0.05287
1623.41563,0.05367
1621.35546,0.05429
1619.29528,0.05493
1617.23511,0.05606
1615.17494,0.05763
1613.11477,0.05901
1611.05460,0.06018
1608.99442,0.06125
1606.93425,0.06186
1604.87408,0.06179
1602.81391,0.06126
1600.75373,0.06044
1598.69356,0.05922
1596.63339,0.05757
1594.57322,0.05562
1592.51305,0.05347
1590.45287,0.05116
1588.39270,0.04882
1586.33253,0.04659
1584.27236,0.04442
1582.21219,0.04227
1580.15201,0.04023
1578.09184,0.03818
1576.03167,0.03616
1573.97150,0.03462
1571.91133,0.03328
1569.85115,0.03159
1567.79098,0.02985
1565.73081,0.02857
1563.67064,0.02783
1561.61046,0.02749
1559.55029,0.02738
1557.49012,0.02735
1555.42995,0.02719
1553.36978,0.02705
1551.30960,0.02727
1549.24943,0.02769
1547.18926,0.02782
1545.12909,0.02739
1543.06892,0.02644
1541.00874,0.02559
1538.94857,0.02550
1536.88840,0.02571
1534.82823,0.02556
1532.76805,0.02506
1530.70788,0.02453
1528.64771,0.02397
1526.58754,0.02310
1524.52737,0.02211
1522.46719,0.02160
1520.40702,0.02158
1518.34685,0.02154
1516.28668,0.02130
1514.22651,0.02089
1512.16633,0.02024
1510.10616,0.01924
1508.04599,0.01763
1505.98582,0.01538
1503.92565,0.01356
1501.86547,0.01245
1499.80530,0.01144
1497.74513,0.01015
1495.68496,0.00879
1493.62478,0.00757
1491.56461,0.00625
1489.50444,0.00488
1487.44427,0.00409
1485.38410,0.00396
1483.32392,0.00411
1481.26375,0.00446
1479.20358,0.00514
1477.14341,0.00646
1475.08324,0.00888
1473.02306,0.01243
1470.96289,0.01601
1468.90272,0.01891
1466.84255,0.02178
1464.78238,0.02482
1462.72220,0.02714
1460.66203,0.02846
1458.60186,0.02974
1456.54169,0.03182
1454.48151,0.03394
1452.42134,0.03525
1450.36117,0.03614
1448.30100,0.03723
1446.24083,0.03853
1444.18065,0.03949
1442.12048,0.03991
1440.06031,0.03972
1438.00014,0.03865
1435.93997,0.03676
1433.87979,0.03476
1431.81962,0.03299
1429.75945,0.03149
1427.69928,0.03043
1425.63910,0.02964
1423.57893,0.02906
1421.51876,0.02896
1419.45859,0.02933
1417.39842,0.02957
1415.33824,0.02924
1413.27807,0.02863
1411.21790,0.02813
1409.15773,0.02784
1407.09756,0.02774
1405.03738,0.02782
1402.97721,0.02797
1400.91704,0.02801
1398.85687,0.02788
1396.79670,0.02788
1394.73652,0.02844
1392.67635,0.02930
1390.61618,0.02998
1388.55601,0.03054
1386.49583,0.03120
1384.43566,0.03197
1382.37549,0.03291
1380.31532,0.03399
1378.25515,0.03510
1376.19497,0.03623
1374.13480,0.03733
1372.07463,0.03825
1370.01446,0.03886
1367.95429,0.03914
1365.89411,0.03932
1363.83394,0.03962
1361.77377,0.03992
1359.71360,0.04007
1357.65343,0.04026
1355.59325,0.04064
1353.53308,0.04113
1351.47291,0.04161
1349.41274,0.04205
1347.35256,0.04247
1345.29239,0.04285
1343.23222,0.04312
1341.17205,0.04341
1339.11188,0.04393
1337.05170,0.04455
1334.99153,0.04507
1332.93136,0.04562
1330.87119,0.04637
1328.81102,0.04715
1326.75084,0.04773
1324.69067,0.04832
1322.63050,0.04914
1320.57033,0.04987
1318.51015,0.05023
1316.44998,0.05037
1314.38981,0.05019
1312.32964,0.04953
1310.26947,0.04864
1308.20929,0.04754
1306.14912,0.04604
1304.08895,0.04418
1302.02878,0.04194
1299.96861,0.03938
1297.90843,0.03691
1295.84826,0.03489
1293.78809,0.03325
1291.72792,0.03176
1289.66775,0.03046
1287.60757,0.02945
1285.54740,0.02857
1283.48723,0.02789
1281.42706,0.02755
1279.36688,0.02737
1277.30671,0.02724
1275.24654,0.02737
1273.18637,0.02790
1271.12620,0.02857
1269.06602,0.02910
1267.00585,0.02969
1264.94568,0.03045
1262.88551,0.03116
1260.82534,0.03193
1258.76516,0.03281
1256.70499,0.03347
1254.64482,0.03393
1252.58465,0.03449
1250.52447,0.03523
1248.46430,0.03605
1246.40413,0.03684
1244.34396,0.03771
1242.28379,0.03880
1240.22361,0.03986
1238.16344,0.04065
1236.10327,0.04127
1234.04310,0.04196
1231.98293,0.04299
1229.92275,0.04426
1227.86258,0.04542
1225.80241,0.04647
1223.74224,0.04744
1221.68207,0.04839
1219.62189,0.04942
1217.56172,0.05035
1215.50155,0.05126
1213.44138,0.05245
1211.38120,0.05368
1209.32103,0.05476
1207.26086,0.05599
1205.20069,0.05739
1203.14052,0.05858
1201.08034,0.05949
1199.02017,0.06013
1196.96000,0.06045
1194.89983,0.06064
1192.83966,0.06054
1190.77948,0.05990
1188.71931,0.05903
1186.65914,0.05820
1184.59897,0.05737
1182.53880,0.05652
1180.47862,0.05570
1178.41845,0.05513
1176.35828,0.05483
1174.29811,0.05455
1172.23793,0.05433
1170.17776,0.05414
1168.11759,0.05394
1166.05742,0.05381
1163.99725,0.05349
1161.93707,0.05273
1159.87690,0.05183
1157.81673,0.05117
1155.75656,0.05069
1153.69639,0.04974
1151.63621,0.04830
1149.57604,0.04721
1147.51587,0.04649
1145.45570,0.04559
1143.39552,0.04443
1141.33535,0.04306
1139.27518,0.04181
1137.21501,0.04091
1135.15484,0.03998
1133.09466,0.03913
1131.03449,0.03884
1128.97432,0.03902
1126.91415,0.03954
1124.85398,0.04069
1122.79380,0.04272
1120.73363,0.04523
1118.67346,0.04755
1116.61329,0.04995
1114.55312,0.05303
1112.49294,0.05636
1110.43277,0.05960
1108.37260,0.06297
1106.31243,0.06631
1104.25225,0.06945
1102.19208,0.07212
1100.13191,0.07396
1098.07174,0.07523
1096.01157,0.07644
1093.95139,0.07790
1091.89122,0.07980
1089.83105,0.08236
1087.77088,0.08517
1085.71071,0.08770
1083.65053,0.09002
1081.59036,0.09223
1079.53019,0.09454
1077.47002,0.09729
1075.40985,0.10002
1073.34967,0.10218
1071.28950,0.10402
1069.22933,0.10585
1067.16916,0.10735
1065.10898,0.10856
1063.04881,0.10978
1060.98864,0.11129
1058.92847,0.11307
1056.86830,0.11469
1054.80812,0.11608
1052.74795,0.11756
1050.68778,0.11927
1048.62761,0.12115
1046.56744,0.12331
1044.50726,0.12561
1042.44709,0.12751
1040.38692,0.12934
1038.32675,0.13195
1036.26657,0.13478
1034.20640,0.13704
1032.14623,0.13914
1030.08606,0.14118
1028.02589,0.14277
1025.96571,0.14383
1023.90554,0.14435
1021.84537,0.14461
1019.78520,0.14480
1017.72503,0.14453
1015.66485,0.14369
1013.60468,0.14250
1011.54451,0.14122
1009.48434,0.13965
1007.42417,0.13742
1005.36399,0.13473
1003.30382,0.13170
1001.24365,0.12795
999.18348,0.12369
997.12330,0.11991
995.06313,0.11673
993.00296,0.11353
990.94279,0.11017
988.88262,0.10671
986.82244,0.10293
984.76227,0.09871
982.70210,0.09450
980.64193,0.09033
978.58176,0.08586
976.52158,0.08177
974.46141,0.07846
972.40124,0.07527
970.34107,0.07212
968.28089,0.06974
966.22072,0.06811
964.16055,0.06629
962.10038,0.06380
960.04021,0.06064
957.98003,0.05742
955.91986,0.05478
953.85969,0.05243
951.79952,0.04985
949.73935,0.04719
947.67917,0.04475
945.61900,0.04228
943.55883,0.03965
941.49866,0.03729
939.43849,0.03546
937.37831,0.03383
935.31814,0.03245
933.25797,0.03190
931.19780,0.03159
929.13762,0.03043
927.07745,0.02895
925.01728,0.02818
922.95711,0.02768
920.89694,0.02653
918.83676,0.02484
916.77659,0.02313
914.71642,0.02129
912.65625,0.01928
910.59608,0.01723
908.53590,0.01550
906.47573,0.01471
904.41556,0.01431
902.35539,0.01336
900.29522,0.01230
898.23504,0.01178
896.17487,0.01178
894.11470,0.01202
892.05453,0.01188
889.99435,0.01123
887.93418,0.01050
885.87401,0.00982
883.81384,0.00952
881.75367,0.00968
879.69349,0.00994
877.63332,0.01048
875.57315,0.01133
873.51298,0.01195
871.45281,0.01226
869.39263,0.01215
867.33246,0.01160
865.27229,0.01090
863.21212,0.01008
861.15194,0.00881
859.09177,0.00684
857.03160,0.00475
854.97143,0.00299
852.91126,0.00172
850.85108,0.00101
848.79091,0.00039
846.73074,0.00000
844.67057,0.00035
842.61040,0.00118
840.55022,0.00173
838.49005,0.00211
836.42988,0.00261
834.36971,0.00286
832.30954,0.00327
830.24936,0.00418
828.18919,0.00461
826.12902,0.00449
824.06885,0.00463
822.00867,0.00511
819.94850,0.00588
817.88833,0.00667
815.82816,0.00663
813.76799,0.00582
811.70781,0.00540
809.64764,0.00552
807.58747,0.00527
805.52730,0.00455
803.46713,0.00353
801.40695,0.00222
799.34678,0.00121
797.28661,0.00046
795.22644,0.00000
793.16627,0.00003
791.10609,0.00076
789.04592,0.00116
786.98575,0.00111
784.92558,0.00182
782.86540,0.00395
780.80523,0.00589
778.74506,0.00619
776.68489,0.00605
774.62472,0.00623
772.56454,0.00651
770.50437,0.00785
768.44420,0.01031
766.38403,0.01310
764.32386,0.01565
762.26368,0.01701
760.20351,0.01754
758.14334,0.01833
756.08317,0.01891
754.02299,0.01852
751.96282,0.01749
749.90265,0.01572
747.84248,0.01281
745.78231,0.01043
743.72213,0.00933
741.66196,0.00820
739.60179,0.00703
737.54162,0.00630
735.48145,0.00658
733.42127,0.00831
731.36110,0.01010
729.30093,0.01030
727.24076,0.00912
725.18059,0.00800
723.12041,0.00739
721.06024,0.00774
719.00007,0.00846
716.93990,0.00902
714.87972,0.00916
712.81955,0.00870
710.75938,0.00776
708.69921,0.00702
706.63904,0.00707
704.57886,0.00784
702.51869,0.00901
700.45852,0.00993
698.39835,0.00978
696.33818,0.00849
694.27800,0.00687
692.21783,0.00530
690.15766,0.00329
688.09749,0.00112
686.03731,0.00000
683.97714,0.00009
681.91697,0.00170
679.85680,0.00402
677.79663,0.00492
675.73645,0.00436
673.67628,0.00403
671.61611,0.00466
669.55594,0.00843
667.49577,0.01129
665.43559,0.00689
663.37542,0.00345
661.31525,0.00165
659.25508,0.00188
657.19491,0.00294
655.13473,0.00302
653.07456,0.00157
651.01439,-0.00022
648.95422,0.00000
646.89404,0.00200
644.83387,0.00293
642.77370,0.00094
640.71353,-0.00154
638.65336,-0.00143
636.59318,0.00006
634.53301,0.00021
632.47284,-0.00087
630.41267,-0.00208
628.35250,-0.00320
626.29232,-0.00346
624.23215,-0.00188
622.17198,0.00026
620.11181,0.00259
618.05164,0.00403
615.99146,0.00333
613.93129,0.00307
611.87112,0.00488
609.81095,0.00469
607.75077,0.00080
605.69060,-0.00121
603.63043,0.00129
601.57026,0.00255
599.51009,0.00000
