3996.73391,0.00002
3994.67373,0.00008
3992.61356,-0.00011
3990.55339,-0.00025
3988.49322,-0.00004
3986.43305,0.00020
3984.37287,0.00018
3982.31270,0.00012
3980.25253,0.00026
3978.19236,0.00058
3976.13219,0.00090
3974.07201,0.00092
3972.01184,0.00072
3969.95167,0.00078
3967.89150,0.00094
3965.83133,0.00069
3963.77115,0.00020
3961.71098,0.00000
3959.65081,0.00015
3957.59064,0.00031
3955.53046,0.00021
3953.47029,0.00000
3951.41012,0.00009
3949.34995,0.00057
3947.28978,0.00097
3945.22960,0.00099
3943.16943,0.00105
3941.10926,0.00148
3939.04909,0.00186
3936.98892,0.00179
3934.92874,0.00150
3932.86857,0.00121
3930.80840,0.00097
3928.74823,0.00092
3926.68805,0.00097
3924.62788,0.00085
3922.56771,0.00065
3920.50754,0.00072
3918.44737,0.00121
3916.38719,0.00155
3914.32702,0.00138
3912.26685,0.00104
3910.20668,0.00085
3908.14651,0.00077
3906.08633,0.00067
3904.02616,0.00033
3901.96599,0.00006
3899.90582,0.00022
3897.84565,0.00050
3895.78547,0.00038
3893.72530,0.00003
3891.66513,0.00007
3889.60496,0.00037
3887.54478,0.00041
3885.48461,0.00045
3883.42444,0.00057
3881.36427,0.00067
3879.30410,0.00109
3877.24392,0.00160
3875.18375,0.00164
3873.12358,0.00139
3871.06341,0.00124
3869.00324,0.00110
3866.94306,0.00068
3864.88289,0.00022
3862.82272,0.00029
3860.76255,0.00088
3858.70237,0.00132
3856.64220,0.00123
3854.58203,0.00102
3852.52186,0.00110
3850.46169,0.00107
3848.40151,0.00080
3846.34134,0.00051
3844.28117,0.00019
3842.22100,-0.00010
3840.16083,0.00007
3838.10065,0.00080
3836.04048,0.00132
3833.98031,0.00104
3831.92014,0.00035
3829.85997,0.00005
3827.79979,0.00031
3825.73962,0.00080
3823.67945,0.00121
3821.61928,0.00138
3819.55910,0.00108
3817.49893,0.00034
3815.43876,0.00000
3813.37859,0.00061
3811.31842,0.00169
3809.25824,0.00233
3807.19807,0.00197
3805.13790,0.00125
3803.07773,0.00115
3801.01756,0.00149
3798.95738,0.00185
3796.89721,0.00228
3794.83704,0.00253
3792.77687,0.00224
3790.71670,0.00170
3788.65652,0.00117
3786.59635,0.00057
3784.53618,0.00021
3782.47601,0.00043
3780.41583,0.00088
3778.35566,0.00116
3776.29549,0.00126
3774.23532,0.00125
3772.17515,0.00113
3770.11497,0.00100
3768.05480,0.00109
3765.99463,0.00115
3763.93446,0.00088
3761.87429,0.00072
3759.81411,0.00113
3757.75394,0.00173
3755.69377,0.00151
3753.63360,0.00056
3751.57342,0.00047
3749.51325,0.00165
3747.45308,0.00238
3745.39291,0.00212
3743.33274,0.00126
3741.27256,0.00039
3739.21239,0.00000
3737.15222,0.00016
3735.09205,0.00087
3733.03188,0.00142
3730.97170,0.00109
3728.91153,0.00055
3726.85136,0.00056
3724.79119,0.00103
3722.73102,0.00153
3720.67084,0.00187
3718.61067,0.00197
3716.55050,0.00183
3714.49033,0.00154
3712.43015,0.00115
3710.36998,0.00099
3708.30981,0.00116
3706.24964,0.00127
3704.18947,0.00149
3702.12929,0.00238
3700.06912,0.00339
3698.00895,0.00336
3695.94878,0.00249
3693.88861,0.00162
3691.82843,0.00088
3689.76826,0.00020
3687.70809,0.00000
3685.64792,0.00029
3683.58775,0.00069
3681.52757,0.00111
3679.46740,0.00159
3677.40723,0.00217
3675.34706,0.00274
3673.28688,0.00261
3671.22671,0.00159
3669.16654,0.00059
3667.10637,0.00035
3665.04620,0.00070
3662.98602,0.00129
3660.92585,0.00185
3658.86568,0.00201
3656.80551,0.00181
3654.74534,0.00180
3652.68516,0.00191
3650.62499,0.00174
3648.56482,0.00162
3646.50465,0.00210
3644.44447,0.00270
3642.38430,0.00280
3640.32413,0.00268
3638.26396,0.00298
3636.20379,0.00368
3634.14361,0.00448
3632.08344,0.00494
3630.02327,0.00487
3627.96310,0.00491
3625.90293,0.00510
3623.84275,0.00498
3621.78258,0.00470
3619.72241,0.00464
3617.66224,0.00494
3615.60207,0.00517
3613.54189,0.00520
3611.48172,0.00549
3609.42155,0.00610
3607.36138,0.00657
3605.30120,0.00685
3603.24103,0.00741
3601.18086,0.00832
3599.12069,0.00894
3597.06052,0.00885
3595.00034,0.00866
3592.94017,0.00916
3590.88000,0.00996
3588.81983,0.01013
3586.75966,0.00989
3584.69948,0.00991
3582.63931,0.01026
3580.57914,0.01081
3578.51897,0.01144
3576.45879,0.01176
3574.39862,0.01159
3572.33845,0.01161
3570.27828,0.01225
3568.21811,0.01308
3566.15793,0.01372
3564.09776,0.01414
3562.03759,0.01445
3559.97742,0.01473
3557.91725,0.01492
3555.85707,0.01523
3553.79690,0.01595
3551.73673,0.01702
3549.67656,0.01776
3547.61639,0.01769
3545.55621,0.01758
3543.49604,0.01813
3541.43587,0.01862
3539.37570,0.01857
3537.31552,0.01834
3535.25535,0.01847
3533.19518,0.01922
3531.13501,0.02032
3529.07484,0.02125
3527.01466,0.02180
3524.95449,0.02202
3522.89432,0.02213
3520.83415,0.02247
3518.77398,0.02297
3516.71380,0.02323
3514.65363,0.02304
3512.59346,0.02303
3510.53329,0.02369
3508.47312,0.02441
3506.41294,0.02475
3504.35277,0.02521
3502.29260,0.02588
3500.23243,0.02619
3498.17225,0.02622
3496.11208,0.02636
3494.05191,0.02674
3491.99174,0.02736
3489.93157,0.02799
3487.87139,0.02855
3485.81122,0.02926
3483.75105,0.02981
3481.69088,0.02983
3479.63071,0.02980
3477.57053,0.03028
3475.51036,0.03096
3473.45019,0.03124
3471.39002,0.03120
3469.32984,0.03163
3467.26967,0.03254
3465.20950,0.03305
3463.14933,0.03298
3461.08916,0.03325
3459.02898,0.03411
3456.96881,0.03460
3454.90864,0.03440
3452.84847,0.03417
3450.78830,0.03443
3448.72812,0.03498
3446.66795,0.03550
3444.60778,0.03615
3442.54761,0.03692
3440.48744,0.03733
3438.42726,0.03750
3436.36709,0.03786
3434.30692,0.03829
3432.24675,0.03860
3430.18657,0.03871
3428.12640,0.03870
3426.06623,0.03868
3424.00606,0.03876
3421.94589,0.03931
3419.88571,0.04000
3417.82554,0.03981
3415.76537,0.03937
3413.70520,0.03989
3411.64503,0.04080
3409.58485,0.04164
3407.52468,0.04259
3405.46451,0.04313
3403.40434,0.04302
3401.34416,0.04286
3399.28399,0.04310
3397.22382,0.04362
3395.16365,0.04388
3393.10348,0.04371
3391.04330,0.04366
3388.98313,0.04400
3386.92296,0.04466
3384.86279,0.04529
3382.80262,0.04561
3380.74244,0.04578
3378.68227,0.04604
3376.62210,0.04628
3374.56193,0.04605
3372.50176,0.04576
3370.44158,0.04602
3368.38141,0.04648
3366.32124,0.04691
3364.26107,0.04741
3362.20089,0.04801
3360.14072,0.04831
3358.08055,0.04792
3356.02038,0.04747
3353.96021,0.04779
3351.90003,0.04855
3349.83986,0.04901
3347.77969,0.04885
3345.71952,0.04848
3343.65935,0.04858
3341.59917,0.04923
3339.53900,0.04971
3337.47883,0.04977
3335.41866,0.04984
3333.35849,0.05000
3331.29831,0.05005
3329.23814,0.04991
3327.17797,0.04985
3325.11780,0.05012
3323.05762,0.05020
3320.99745,0.04984
3318.93728,0.04976
3316.87711,0.05008
3314.81694,0.05033
3312.75676,0.05068
3310.69659,0.05100
3308.63642,0.05114
3306.57625,0.05130
3304.51608,0.05133
3302.45590,0.05111
3300.39573,0.05091
3298.33556,0.05104
3296.27539,0.05117
3294.21521,0.05102
3292.15504,0.05096
3290.09487,0.05116
3288.03470,0.05138
3285.97453,0.05151
3283.91435,0.05154
3281.85418,0.05140
3279.79401,0.05134
3277.73384,0.05144
3275.67367,0.05157
3273.61349,0.05173
3271.55332,0.05173
3269.49315,0.05154
3267.43298,0.05145
3265.37281,0.05142
3263.31263,0.05133
3261.25246,0.05119
3259.19229,0.05115
3257.13212,0.05114
3255.07194,0.05094
3253.01177,0.05074
3250.95160,0.05080
3248.89143,0.05122
3246.83126,0.05150
3244.77108,0.05103
3242.71091,0.05044
3240.65074,0.05049
3238.59057,0.05071
3236.53040,0.05058
3234.47022,0.05032
3232.41005,0.05009
3230.34988,0.04990
3228.28971,0.04987
3226.22954,0.04980
3224.16936,0.04926
3222.10919,0.04848
3220.04902,0.04825
3217.98885,0.04848
3215.92867,0.04847
3213.86850,0.04829
3211.80833,0.04813
3209.74816,0.04791
3207.68799,0.04762
3205.62781,0.04741
3203.56764,0.04751
3201.50747,0.04773
3199.44730,0.04784
3197.38713,0.04792
3195.32695,0.04790
3193.26678,0.04772
3191.20661,0.04762
3189.14644,0.04751
3187.08626,0.04711
3185.02609,0.04656
3182.96592,0.04601
3180.90575,0.04536
3178.84558,0.04489
3176.78540,0.04516
3174.72523,0.04587
3172.66506,0.04609
3170.60489,0.04567
3168.54472,0.04512
3166.48454,0.04454
3164.42437,0.04406
3162.36420,0.04392
3160.30403,0.04371
3158.24386,0.04339
3156.18368,0.04337
3154.12351,0.04339
3152.06334,0.04329
3150.00317,0.04342
3147.94299,0.04360
3145.88282,0.04333
3143.82265,0.04271
3141.76248,0.04222
3139.70231,0.04207
3137.64213,0.04190
3135.58196,0.04146
3133.52179,0.04101
3131.46162,0.04069
3129.40145,0.04036
3127.34127,0.04034
3125.28110,0.04082
3123.22093,0.04100
3121.16076,0.04044
3119.10058,0.03983
3117.04041,0.03966
3114.98024,0.03955
3112.92007,0.03919
3110.85990,0.03872
3108.79972,0.03843
3106.73955,0.03855
3104.67938,0.03900
3102.61921,0.03927
3100.55904,0.03895
3098.49886,0.03821
3096.43869,0.03763
3094.37852,0.03746
3092.31835,0.03746
3090.25818,0.03714
3088.19800,0.03645
3086.13783,0.03616
3084.07766,0.03666
3082.01749,0.03709
3079.95731,0.03685
3077.89714,0.03653
3075.83697,0.03648
3073.77680,0.03622
3071.71663,0.03546
3069.65645,0.03493
3067.59628,0.03509
3065.53611,0.03529
3063.47594,0.03502
3061.41577,0.03434
3059.35559,0.03372
3057.29542,0.03358
3055.23525,0.03367
3053.17508,0.03352
3051.11491,0.03325
3049.05473,0.03289
3046.99456,0.03235
3044.93439,0.03209
3042.87422,0.03226
3040.81404,0.03227
3038.75387,0.03190
3036.69370,0.03147
3034.63353,0.03103
3032.57336,0.03052
3030.51318,0.03024
3028.45301,0.03026
3026.39284,0.03025
3024.33267,0.02992
3022.27250,0.02955
3020.21232,0.02944
3018.15215,0.02953
3016.09198,0.02975
3014.03181,0.02982
3011.97163,0.02959
3009.91146,0.02937
3007.85129,0.02916
3005.79112,0.02886
3003.73095,0.02859
3001.67077,0.02824
2999.61060,0.02799
2997.55043,0.02805
2995.49026,0.02809
2993.43009,0.02791
2991.36991,0.02783
2989.30974,0.02783
2987.24957,0.02783
2985.18940,0.02798
2983.12923,0.02834
2981.06905,0.02868
2979.00888,0.02887
2976.94871,0.02916
2974.88854,0.02969
2972.82836,0.03026
2970.76819,0.03080
2968.70802,0.03154
2966.64785,0.03255
2964.58768,0.03360
2962.52750,0.03465
2960.46733,0.03551
2958.40716,0.03617
2956.34699,0.03709
2954.28682,0.03848
2952.22664,0.03978
2950.16647,0.04075
2948.10630,0.04191
2946.04613,0.04331
2943.98596,0.04477
2941.92578,0.04674
2939.86561,0.04932
2937.80544,0.05155
2935.74527,0.05331
2933.68509,0.05556
2931.62492,0.05805
2929.56475,0.05989
2927.50458,0.06142
2925.44441,0.06332
2923.38423,0.06556
2921.32406,0.06786
2919.26389,0.06960
2917.20372,0.06974
2915.14355,0.06773
2913.08337,0.06416
2911.02320,0.06053
2908.96303,0.05767
2906.90286,0.05517
2904.84268,0.05286
2902.78251,0.05110
2900.72234,0.04991
2898.66217,0.04902
2896.60200,0.04801
2894.54182,0.04672
2892.48165,0.04534
2890.42148,0.04395
2888.36131,0.04286
2886.30114,0.04224
2884.24096,0.04168
2882.18079,0.04091
2880.12062,0.04026
2878.06045,0.03978
2876.00028,0.03952
2873.94010,0.03968
2871.87993,0.03996
2869.81976,0.04000
2867.75959,0.04023
2865.69941,0.04113
2863.63924,0.04258
2861.57907,0.04441
2859.51890,0.04638
2857.45873,0.04823
2855.39855,0.05018
2853.33838,0.05253
2851.27821,0.05501
2849.21804,0.05600
2847.15787,0.05362
2845.09769,0.04886
2843.03752,0.04420
2840.97735,0.04075
2838.91718,0.03839
2836.85700,0.03663
2834.79683,0.03526
2832.73666,0.03407
2830.67649,0.03278
2828.61632,0.03160
2826.55614,0.03095
2824.49597,0.03057
2822.43580,0.02990
2820.37563,0.02928
2818.31546,0.02895
2816.25528,0.02864
2814.19511,0.02846
2812.13494,0.02843
2810.07477,0.02829
2808.01460,0.02791
2805.95442,0.02744
2803.89425,0.02712
2801.83408,0.02685
2799.77391,0.02651
2797.71373,0.02611
2795.65356,0.02563
2793.59339,0.02527
2791.53322,0.02513
2789.47305,0.02506
2787.41287,0.02513
2785.35270,0.02529
2783.29253,0.02508
2781.23236,0.02455
2779.17219,0.02421
2777.11201,0.02397
2775.05184,0.02381
2772.99167,0.02399
2770.93150,0.02439
2768.87133,0.02444
2766.81115,0.02409
2764.75098,0.02389
2762.69081,0.02372
2760.63064,0.02349
2758.57046,0.02341
2756.51029,0.02349
2754.45012,0.02366
2752.38995,0.02368
2750.32978,0.02349
2748.26960,0.02330
2746.20943,0.02315
2744.14926,0.02320
2742.08909,0.02358
2740.02892,0.02382
2737.96874,0.02349
2735.90857,0.02294
2733.84840,0.02259
2731.78823,0.02253
2729.72805,0.02242
2727.66788,0.02207
2725.60771,0.02181
2723.54754,0.02178
2721.48737,0.02176
2719.42719,0.02154
2717.36702,0.02123
2715.30685,0.02105
2713.24668,0.02112
2711.18651,0.02131
2709.12633,0.02149
2707.06616,0.02174
2705.00599,0.02192
2702.94582,0.02188
2700.88565,0.02170
2698.82547,0.02142
2696.76530,0.02120
2694.70513,0.02111
2692.64496,0.02084
2690.58478,0.02048
2688.52461,0.02032
2686.46444,0.02024
2684.40427,0.02021
2682.34410,0.02038
2680.28392,0.02068
2678.22375,0.02092
2676.16358,0.02093
2674.10341,0.02075
2672.04324,0.02050
2669.98306,0.02027
2667.92289,0.02027
2665.86272,0.02045
2663.80255,0.02035
2661.74238,0.01989
2659.68220,0.01951
2657.62203,0.01947
2655.56186,0.01957
2653.50169,0.01960
2651.44151,0.01962
2649.38134,0.01946
2647.32117,0.01912
2645.26100,0.01895
2643.20083,0.01904
2641.14065,0.01921
2639.08048,0.01912
2637.02031,0.01881
2634.96014,0.01872
2632.89997,0.01892
2630.83979,0.01893
2628.77962,0.01856
2626.71945,0.01837
2624.65928,0.01856
2622.59910,0.01855
2620.53893,0.01831
2618.47876,0.01817
2616.41859,0.01796
2614.35842,0.01758
2612.29824,0.01736
2610.23807,0.01739
2608.17790,0.01734
2606.11773,0.01715
2604.05756,0.01701
2601.99738,0.01681
2599.93721,0.01653
2597.87704,0.01662
2595.81687,0.01695
2593.75670,0.01697
2591.69652,0.01661
2589.63635,0.01616
2587.57618,0.01583
2585.51601,0.01546
2583.45583,0.01500
2581.39566,0.01505
2579.33549,0.01547
2577.27532,0.01544
2575.21515,0.01536
2573.15497,0.01565
2571.09480,0.01600
2569.03463,0.01598
2566.97446,0.01535
2564.91429,0.01464
2562.85411,0.01438
2560.79394,0.01449
2558.73377,0.01477
2556.67360,0.01484
2554.61342,0.01475
2552.55325,0.01512
2550.49308,0.01569
2548.43291,0.01543
2546.37274,0.01460
2544.31256,0.01430
2542.25239,0.01433
2540.19222,0.01410
2538.13205,0.01406
2536.07188,0.01437
2534.01170,0.01480
2531.95153,0.01500
2529.89136,0.01460
2527.83119,0.01381
2525.77102,0.01313
2523.71084,0.01282
2521.65067,0.01284
2519.59050,0.01309
2517.53033,0.01363
2515.47015,0.01422
2513.40998,0.01444
2511.34981,0.01418
2509.28964,0.01386
2507.22947,0.01388
2505.16929,0.01376
2503.10912,0.01327
2501.04895,0.01273
2498.98878,0.01217
2496.92861,0.01181
2494.86843,0.01185
2492.80826,0.01212
2490.74809,0.01260
2488.68792,0.01296
2486.62775,0.01283
2484.56757,0.01289
2482.50740,0.01317
2480.44723,0.01304
2478.38706,0.01271
2476.32688,0.01226
2474.26671,0.01194
2472.20654,0.01217
2470.14637,0.01229
2468.08620,0.01183
2466.02602,0.01149
2463.96585,0.01187
2461.90568,0.01226
2459.84551,0.01212
2457.78534,0.01202
2455.72516,0.01208
2453.66499,0.01196
2451.60482,0.01176
2449.54465,0.01205
2447.48447,0.01260
2445.42430,0.01262
2443.36413,0.01225
2441.30396,0.01186
2439.24379,0.01163
2437.18361,0.01147
2435.12344,0.01110
2433.06327,0.01081
2431.00310,0.01101
2428.94293,0.01149
2426.88275,0.01165
2424.82258,0.01138
2422.76241,0.01109
2420.70224,0.01074
2418.64207,0.01045
2416.58189,0.01034
2414.52172,0.01011
2412.46155,0.01005
2410.40138,0.01017
2408.34120,0.01006
2406.28103,0.00985
2404.22086,0.00976
2402.16069,0.00975
2400.10052,0.00977
2398.04034,0.00991
2395.98017,0.01012
2393.92000,0.01041
2391.85983,0.01055
2389.79966,0.01032
2387.73948,0.01013
2385.67931,0.01044
2383.61914,0.01097
2381.55897,0.01124
2379.49880,0.01099
2377.43862,0.01027
2375.37845,0.00921
2373.31828,0.00828
2371.25811,0.00781
2369.19793,0.00796
2367.13776,0.00913
2365.07759,0.01081
2363.01742,0.01162
2360.95725,0.01171
2358.89707,0.01055
2356.83690,0.00954
2354.77673,0.00976
2352.71656,0.01091
2350.65639,0.01191
2348.59621,0.01128
2346.53604,0.00905
2344.47587,0.00851
2342.41570,0.00865
2340.35552,0.00962
2338.29535,0.01118
2336.23518,0.01186
2334.17501,0.01189
2332.11484,0.01234
2330.05466,0.01353
2327.99449,0.01388
2325.93432,0.01305
2323.87415,0.01141
2321.81398,0.01044
2319.75380,0.01038
2317.69363,0.01076
2315.63346,0.01065
2313.57329,0.01008
2311.51312,0.00950
2309.45294,0.00962
2307.39277,0.01042
2305.33260,0.01111
2303.27243,0.01137
2301.21225,0.01097
2299.15208,0.01019
2297.09191,0.00962
2295.03174,0.00982
2292.97157,0.01073
2290.91139,0.01142
2288.85122,0.01114
2286.79105,0.01037
2284.73088,0.00984
2282.67071,0.00963
2280.61053,0.00937
2278.55036,0.00875
2276.49019,0.00774
2274.43002,0.00721
2272.36984,0.00789
2270.30967,0.00898
2268.24950,0.00954
2266.18933,0.00977
2264.12916,0.00959
2262.06898,0.00887
2260.00881,0.00848
2257.94864,0.00849
2255.88847,0.00811
2253.82830,0.00768
2251.76812,0.00820
2249.70795,0.00908
2247.64778,0.00838
2245.58761,0.00662
2243.52744,0.00621
2241.46726,0.00691
2239.40709,0.00713
2237.34692,0.00693
2235.28675,0.00677
2233.22657,0.00627
2231.16640,0.00565
2229.10623,0.00592
2227.04606,0.00695
2224.98589,0.00748
2222.92571,0.00620
2220.86554,0.00383
2218.80537,0.00324
2216.74520,0.00519
2214.68503,0.00760
2212.62485,0.00828
2210.56468,0.00715
2208.50451,0.00554
2206.44434,0.00425
2204.38417,0.00468
2202.32399,0.00636
2200.26382,0.00627
2198.20365,0.00383
2196.14348,0.00200
2194.08330,0.00306
2192.02313,0.00484
2189.96296,0.00496
2187.90279,0.00447
2185.84262,0.00476
2183.78244,0.00546
2181.72227,0.00431
2179.66210,0.00185
2177.60193,0.00177
2175.54176,0.00357
2173.48158,0.00409
2171.42141,0.00387
2169.36124,0.00406
2167.30107,0.00384
2165.24089,0.00332
2163.18072,0.00232
2161.12055,0.00037
2159.06038,0.00000
2157.00021,0.00207
2154.94003,0.00290
2152.87986,0.00261
2150.81969,0.00335
2148.75952,0.00448
2146.69935,0.00576
2144.63917,0.00709
2142.57900,0.00715
2140.51883,0.00544
2138.45866,0.00389
2136.39849,0.00388
2134.33831,0.00444
2132.27814,0.00529
2130.21797,0.00600
2128.15780,0.00566
2126.09762,0.00504
2124.03745,0.00474
2121.97728,0.00454
2119.91711,0.00431
2117.85694,0.00403
2115.79676,0.00435
2113.73659,0.00557
2111.67642,0.00617
2109.61625,0.00529
2107.55608,0.00457
2105.49590,0.00530
2103.43573,0.00634
2101.37556,0.00615
2099.31539,0.00547
2097.25521,0.00567
2095.19504,0.00625
2093.13487,0.00648
2091.07470,0.00654
2089.01453,0.00646
2086.95435,0.00646
2084.89418,0.00688
2082.83401,0.00690
2080.77384,0.00588
2078.71367,0.00460
2076.65349,0.00416
2074.59332,0.00480
2072.53315,0.00578
2070.47298,0.00639
2068.41281,0.00584
2066.35263,0.00429
2064.29246,0.00334
2062.23229,0.00375
2060.17212,0.00495
2058.11194,0.00591
2056.05177,0.00606
2053.99160,0.00611
2051.93143,0.00658
2049.87126,0.00617
2047.81108,0.00486
2045.75091,0.00428
2043.69074,0.00411
2041.63057,0.00353
2039.57040,0.00286
2037.51022,0.00336
2035.45005,0.00472
2033.38988,0.00423
2031.32971,0.00299
2029.26954,0.00350
2027.20936,0.00354
2025.14919,0.00263
2023.08902,0.00328
2021.02885,0.00431
2018.96867,0.00365
2016.90850,0.00165
2014.84833,0.00011
2012.78816,0.00052
2010.72799,0.00203
2008.66781,0.00313
2006.60764,0.00310
2004.54747,0.00189
2002.48730,0.00128
2000.42713,0.00237
1998.36695,0.00293
1996.30678,0.00239
1994.24661,0.00301
1992.18644,0.00525
1990.12626,0.00728
1988.06609,0.00783
1986.00592,0.00721
1983.94575,0.00593
1981.88558,0.00467
1979.82540,0.00358
1977.76523,0.00338
1975.70506,0.00474
1973.64489,0.00490
1971.58472,0.00324
1969.52454,0.00196
1967.46437,0.00098
1965.40420,0.00006
1963.34403,0.00000
1961.28386,0.00063
1959.22368,0.00143
1957.16351,0.00206
1955.10334,0.00258
1953.04317,0.00318
1950.98299,0.00335
1948.92282,0.00273
1946.86265,0.00218
1944.80248,0.00214
1942.74231,0.00170
1940.68213,0.00112
1938.62196,0.00142
1936.56179,0.00203
1934.50162,0.00214
1932.44145,0.00204
1930.38127,0.00228
1928.32110,0.00280
1926.26093,0.00350
1924.20076,0.00427
1922.14059,0.00431
1920.08041,0.00343
1918.02024,0.00269
1915.96007,0.00233
1913.89990,0.00195
1911.83972,0.00183
1909.77955,0.00204
1907.71938,0.00266
1905.65921,0.00340
1903.59904,0.00329
1901.53886,0.00255
1899.47869,0.00226
1897.41852,0.00228
1895.35835,0.00200
1893.29818,0.00142
1891.23800,0.00095
1889.17783,0.00101
1887.11766,0.00145
1885.05749,0.00153
1882.99731,0.00123
1880.93714,0.00112
1878.87697,0.00118
1876.81680,0.00115
1874.75663,0.00127
1872.69645,0.00161
1870.63628,0.00165
1868.57611,0.00147
1866.51594,0.00160
1864.45577,0.00180
1862.39559,0.00181
1860.33542,0.00163
1858.27525,0.00136
1856.21508,0.00130
1854.15491,0.00143
1852.09473,0.00144
1850.03456,0.00134
1847.97439,0.00136
1845.91422,0.00145
1843.85404,0.00122
1841.79387,0.00084
1839.73370,0.00091
1837.67353,0.00145
1835.61336,0.00195
1833.55318,0.00198
1831.49301,0.00160
1829.43284,0.00103
1827.37267,0.00053
1825.31250,0.00019
1823.25232,0.00005
1821.19215,0.00013
1819.13198,0.00018
1817.07181,0.00017
1815.01163,0.00033
1812.95146,0.00057
1810.89129,0.00073
1808.83112,0.00088
1806.77095,0.00089
1804.71077,0.00074
1802.65060,0.00053
1800.59043,0.00029
1798.53026,0.00002
1796.47009,-0.00027
1794.40991,-0.00040
1792.34974,-0.00015
1790.28957,0.00029
1788.22940,0.00062
1786.16923,0.00083
1784.10905,0.00087
1782.04888,0.00075
1779.98871,0.00060
1777.92854,0.00042
1775.86836,0.00019
1773.80819,0.00000
1771.74802,-0.00003
1769.68785,0.00031
1767.62768,0.00079
1765.56750,0.00126
1763.50733,0.00181
1761.44716,0.00260
1759.38699,0.00342
1757.32682,0.00406
1755.26664,0.00475
1753.20647,0.00569
1751.14630,0.00705
1749.08613,0.00895
1747.02596,0.01124
1744.96578,0.01391
1742.90561,0.01716
1740.84544,0.02124
1738.78527,0.02574
1736.72509,0.02959
1734.66492,0.03288
1732.60475,0.03577
1730.54458,0.03748
1728.48441,0.03813
1726.42423,0.03817
1724.36406,0.03787
1722.30389,0.03729
1720.24372,0.03644
1718.18355,0.03563
1716.12337,0.03549
1714.06320,0.03574
1712.00303,0.03571
1709.94286,0.03524
1707.88268,0.03450
1705.82251,0.03367
1703.76234,0.03270
1701.70217,0.03150
1699.64200,0.03032
1697.58182,0.02949
1695.52165,0.02915
1693.46148,0.02921
1691.40131,0.02901
1689.34114,0.02825
1687.28096,0.02729
1685.22079,0.02663
1683.16062,0.02656
1681.10045,0.02668
1679.04028,0.02655
1676.98010,0.02637
1674.91993,0.02644
1672.85976,0.02676
1670.79959,0.02749
1668.73941,0.02884
1666.67924,0.03018
1664.61907,0.03114
1662.55890,0.03212
1660.49873,0.03321
1658.43855,0.03413
1656.37838,0.03474
1654.31821,0.03535
1652.25804,0.03637
1650.19787,0.03709
1648.13769,0.03712
1646.07752,0.03702
1644.01735,0.03729
1641.95718,0.03771
1639.89701,0.03807
1637.83683,0.03835
1635.77666,0.03880
1633.71649,0.03950
1631.65632,0.04009
1629.59614,0.04062
1627.53597,0.04132
1625.47580,0.04205
1623.41563,0.04276
1621.35546,0.04345
1619.29528,0.04402
1617.23511,0.04468
1615.17494,0.04563
1613.11477,0.04651
1611.05460,0.04704
1608.99442,0.04757
1606.93425,0.04834
1604.87408,0.04879
1602.81391,0.04839
1600.75373,0.04748
1598.69356,0.04658
1596.63339,0.04556
1594.57322,0.04405
1592.51305,0.04221
1590.45287,0.04048
1588.39270,0.03889
1586.33253,0.03733
1584.27236,0.03579
1582.21219,0.03414
1580.15201,0.03226
1578.09184,0.03020
1576.03167,0.02836
1573.97150,0.02711
1571.91133,0.02601
1569.85115,0.02487
1567.79098,0.02409
1565.73081,0.02369
1563.67064,0.02340
1561.61046,0.02307
1559.55029,0.02253
1557.49012,0.02196
1555.42995,0.02175
1553.36978,0.02170
1551.30960,0.02173
1549.24943,0.02186
1547.18926,0.02171
1545.12909,0.02096
1543.06892,0.02001
1541.00874,0.01978
1538.94857,0.02042
1536.88840,0.02093
1534.82823,0.02074
1532.76805,0.02015
1530.70788,0.01969
1528.64771,0.01923
1526.58754,0.01862
1524.52737,0.01814
1522.46719,0.01775
1520.40702,0.01737
1518.34685,0.01728
1516.28668,0.01768
1514.22651,0.01807
1512.16633,0.01777
1510.10616,0.01669
1508.04599,0.01516
1505.98582,0.01369
1503.92565,0.01273
1501.86547,0.01206
1499.80530,0.01119
1497.74513,0.00992
1495.68496,0.00865
1493.62478,0.00766
1491.56461,0.00651
1489.50444,0.00525
1487.44427,0.00454
1485.38410,0.00421
1483.32392,0.00383
1481.26375,0.00370
1479.20358,0.00421
1477.14341,0.00536
1475.08324,0.00710
1473.02306,0.00955
1470.96289,0.01248
1468.90272,0.01519
1466.84255,0.01764
1464.78238,0.01998
1462.72220,0.02162
1460.66203,0.02225
1458.60186,0.02277
1456.54169,0.02421
1454.48151,0.02597
1452.42134,0.02720
1450.36117,0.02818
1448.30100,0.02936
1446.24083,0.03068
1444.18065,0.03160
1442.12048,0.03166
1440.06031,0.03094
1438.00014,0.02971
1435.93997,0.02826
1433.87979,0.02693
1431.81962,0.02571
1429.75945,0.02450
1427.69928,0.02345
1425.63910,0.02272
1423.57893,0.02223
1421.51876,0.02196
1419.45859,0.02193
1417.39842,0.02202
1415.33824,0.02206
1413.27807,0.02195
1411.21790,0.02175
1409.15773,0.02155
1407.09756,0.02131
1405.03738,0.02099
1402.97721,0.02069
1400.91704,0.02060
1398.85687,0.02080
1396.79670,0.02113
1394.73652,0.02149
1392.67635,0.02206
1390.61618,0.02281
1388.55601,0.02358
1386.49583,0.02440
1384.43566,0.02524
1382.37549,0.02597
1380.31532,0.02667
1378.25515,0.02731
1376.19497,0.02792
1374.13480,0.02875
1372.07463,0.02976
1370.01446,0.03061
1367.95429,0.03121
1365.89411,0.03150
1363.83394,0.03168
1361.77377,0.03198
1359.71360,0.03234
1357.65343,0.03266
1355.59325,0.03291
1353.53308,0.03313
1351.47291,0.03347
1349.41274,0.03402
1347.35256,0.03459
1345.29239,0.03500
1343.23222,0.03518
1341.17205,0.03529
1339.11188,0.03566
1337.05170,0.03635
1334.99153,0.03707
1332.93136,0.03765
1330.87119,0.03809
1328.81102,0.03853
1326.75084,0.03920
1324.69067,0.04012
1322.63050,0.04100
1320.57033,0.04145
1318.51015,0.04149
1316.44998,0.04142
1314.38981,0.04125
1312.32964,0.04079
1310.26947,0.04001
1308.20929,0.03893
1306.14912,0.03758
1304.08895,0.03605
1302.02878,0.03435
1299.96861,0.03257
1297.90843,0.03077
1295.84826,0.02891
1293.78809,0.02714
1291.72792,0.02580
1289.66775,0.02509
1287.60757,0.02467
1285.54740,0.02412
1283.48723,0.02358
1281.42706,0.02339
1279.36688,0.02345
1277.30671,0.02354
1275.24654,0.02363
1273.18637,0.02375
1271.12620,0.02408
1269.06602,0.02462
1267.00585,0.02515
1264.94568,0.02582
1262.88551,0.02674
1260.82534,0.02746
1258.76516,0.02784
1256.70499,0.02819
1254.64482,0.02858
1252.58465,0.02911
1250.52447,0.02982
1248.46430,0.03049
1246.40413,0.03110
1244.34396,0.03172
1242.28379,0.03246
1240.22361,0.03338
1238.16344,0.03435
1236.10327,0.03518
1234.04310,0.03582
1231.98293,0.03629
1229.92275,0.03679
1227.86258,0.03759
1225.80241,0.03865
1223.74224,0.03964
1221.68207,0.04037
1219.62189,0.04094
1217.56172,0.04161
1215.50155,0.04244
1213.44138,0.04327
1211.38120,0.04422
1209.32103,0.04546
1207.26086,0.04668
1205.20069,0.04751
1203.14052,0.04801
1201.08034,0.04862
1199.02017,0.04942
1196.96000,0.05006
1194.89983,0.05026
1192.83966,0.04986
1190.77948,0.04925
1188.71931,0.04884
1186.65914,0.04819
1184.59897,0.04707
1182.53880,0.04594
1180.47862,0.04515
1178.41845,0.04468
1176.35828,0.04441
1174.29811,0.04417
1172.23793,0.04400
1170.17776,0.04414
1168.11759,0.04423
1166.05742,0.04390
1163.99725,0.04333
1161.93707,0.04263
1159.87690,0.04153
1157.81673,0.04021
1155.75656,0.03912
1153.69639,0.03822
1151.63621,0.03728
1149.57604,0.03648
1147.51587,0.03592
1145.45570,0.03503
1143.39552,0.03374
1141.33535,0.03269
1139.27518,0.03180
1137.21501,0.03069
1135.15484,0.02958
1133.09466,0.02890
1131.03449,0.02866
1128.97432,0.02863
1126.91415,0.02908
1124.85398,0.03023
1122.79380,0.03178
1120.73363,0.03367
1118.67346,0.03583
1116.61329,0.03795
1114.55312,0.04031
1112.49294,0.04307
1110.43277,0.04590
1108.37260,0.04876
1106.31243,0.05150
1104.25225,0.05368
1102.19208,0.05528
1100.13191,0.05680
1098.07174,0.05832
1096.01157,0.05961
1093.95139,0.06060
1091.89122,0.06138
1089.83105,0.06242
1087.77088,0.06397
1085.71071,0.06565
1083.65053,0.06727
1081.59036,0.06930
1079.53019,0.07167
1077.47002,0.07382
1075.40985,0.07546
1073.34967,0.07673
1071.28950,0.07785
1069.22933,0.07877
1067.16916,0.07964
1065.10898,0.08081
1063.04881,0.08207
1060.98864,0.08307
1058.92847,0.08392
1056.86830,0.08492
1054.80812,0.08641
1052.74795,0.08822
1050.68778,0.08972
1048.62761,0.09071
1046.56744,0.09176
1044.50726,0.09346
1042.44709,0.09534
1040.38692,0.09713
1038.32675,0.09908
1036.26657,0.10108
1034.20640,0.10301
1032.14623,0.10478
1030.08606,0.10617
1028.02589,0.10689
1025.96571,0.10710
1023.90554,0.10722
1021.84537,0.10752
1019.78520,0.10767
1017.72503,0.10729
1015.66485,0.10674
1013.60468,0.10603
1011.54451,0.10480
1009.48434,0.10308
1007.42417,0.10108
1005.36399,0.09873
1003.30382,0.09589
1001.24365,0.09284
999.18348,0.09003
997.12330,0.08737
995.06313,0.08467
993.00296,0.08206
990.94279,0.07960
988.88262,0.07701
986.82244,0.07414
984.76227,0.07107
982.70210,0.06796
980.64193,0.06495
978.58176,0.06209
976.52158,0.05958
974.46141,0.05744
972.40124,0.05538
970.34107,0.05325
968.28089,0.05130
966.22072,0.04983
964.16055,0.04854
962.10038,0.04696
960.04021,0.04495
957.98003,0.04267
955.91986,0.04043
953.85969,0.03832
951.79952,0.03617
949.73935,0.03414
947.67917,0.03224
945.61900,0.03019
943.55883,0.02812
941.49866,0.02627
939.43849,0.02477
937.37831,0.02383
935.31814,0.02331
933.25797,0.02262
931.19780,0.02152
929.13762,0.02053
927.07745,0.02006
925.01728,0.01959
922.95711,0.01871
920.89694,0.01785
918.83676,0.01691
916.77659,0.01544
914.71642,0.01401
912.65625,0.01292
910.59608,0.01176
908.53590,0.01046
906.47573,0.00934
904.41556,0.00867
902.35539,0.00844
900.29522,0.00852
898.23504,0.00841
896.17487,0.00818
894.11470,0.00828
892.05453,0.00822
889.99435,0.00776
887.93418,0.00734
885.87401,0.00701
883.81384,0.00683
881.75367,0.00691
879.69349,0.00689
877.63332,0.00669
875.57315,0.00722
873.51298,0.00850
871.45281,0.00886
869.39263,0.00807
867.33246,0.00723
865.27229,0.00639
863.21212,0.00525
861.15194,0.00407
859.09177,0.00309
857.03160,0.00190
854.97143,0.00062
852.91126,0.00000
850.85108,-0.00005
848.79091,-0.00017
846.73074,-0.00023
844.67057,0.00011
842.61040,0.00042
840.55022,0.00033
838.49005,0.00036
836.42988,0.00143
834.36971,0.00299
832.30954,0.00365
830.24936,0.00324
828.18919,0.00250
826.12902,0.00188
824.06885,0.00202
822.00867,0.00319
819.94850,0.00410
817.88833,0.00388
815.82816,0.00305
813.76799,0.00276
811.70781,0.00308
809.64764,0.00292
807.58747,0.00194
805.52730,0.00117
803.46713,0.00147
801.40695,0.00181
799.34678,0.00105
797.28661,0.00000
795.22644,-0.00007
793.16627,0.00109
791.10609,0.00173
789.04592,0.00120
786.98575,0.00045
784.92558,0.00066
782.86540,0.00143
780.80523,0.00181
778.74506,0.00191
776.68489,0.00200
774.62472,0.00225
772.56454,0.00289
770.50437,0.00377
768.44420,0.00490
766.38403,0.00619
764.32386,0.00793
762.26368,0.01006
760.20351,0.01204
758.14334,0.01398
756.08317,0.01490
754.02299,0.01397
751.96282,0.01220
749.90265,0.01056
747.84248,0.00925
745.78231,0.00814
743.72213,0.00727
741.66196,0.00660
739.60179,0.00603
737.54162,0.00581
735.48145,0.00564
733.42127,0.00508
731.36110,0.00491
729.30093,0.00515
727.24076,0.00544
725.18059,0.00589
723.12041,0.00595
721.06024,0.00569
719.00007,0.00562
716.93990,0.00520
714.87972,0.00431
712.81955,0.00354
710.75938,0.00362
708.69921,0.00438
706.63904,0.00453
704.57886,0.00379
702.51869,0.00309
700.45852,0.00247
698.39835,0.00134
696.33818,0.00053
694.27800,0.00106
692.21783,0.00215
690.15766,0.00299
688.09749,0.00317
686.03731,0.00200
683.97714,0.00065
681.91697,0.00068
679.85680,0.00083
677.79663,0.00039
675.73645,0.00074
673.67628,0.00218
671.61611,0.00297
669.55594,-0.00025
667.49577,-0.00343
665.43559,0.00006
663.37542,0.00236
661.31525,0.00494
659.25508,0.00618
657.19491,0.00425
655.13473,0.00090
653.07456,-0.00032
651.01439,0.00117
648.95422,0.00205
646.89404,0.00227
644.83387,0.00394
642.77370,0.00630
640.71353,0.00779
638.65336,0.00828
636.59318,0.00740
634.53301,0.00504
632.47284,0.00262
630.41267,0.00088
628.35250,-0.00081
626.29232,-0.00148
624.23215,0.00139
622.17198,0.00538
620.11181,0.00772
618.05164,0.00930
615.99146,0.01047
613.93129,0.01123
611.87112,0.01271
609.81095,0.01273
607.75077,0.01059
605.69060,0.01018
603.63043,0.00942
601.57026,0.00511
599.51009,0.00000
