3996.73391,0.00107
3994.67373,0.00070
3992.61356,0.00035
3990.55339,0.00023
3988.49322,0.00031
3986.43305,0.00049
3984.37287,0.00070
3982.31270,0.00072
3980.25253,0.00055
3978.19236,0.00054
3976.13219,0.00076
3974.07201,0.00092
3972.01184,0.00086
3969.95167,0.00053
3967.89150,0.00013
3965.83133,0.00000
3963.77115,0.00022
3961.71098,0.00058
3959.65081,0.00074
3957.59064,0.00065
3955.53046,0.00050
3953.47029,0.00039
3951.41012,0.00033
3949.34995,0.00023
3947.28978,0.00016
3945.22960,0.00038
3943.16943,0.00088
3941.10926,0.00125
3939.04909,0.00134
3936.98892,0.00138
3934.92874,0.00149
3932.86857,0.00149
3930.80840,0.00122
3928.74823,0.00085
3926.68805,0.00074
3924.62788,0.00093
3922.56771,0.00095
3920.50754,0.00061
3918.44737,0.00024
3916.38719,0.00014
3914.32702,0.00032
3912.26685,0.00055
3910.20668,0.00069
3908.14651,0.00069
3906.08633,0.00075
3904.02616,0.00087
3901.96599,0.00080
3899.90582,0.00075
3897.84565,0.00091
3895.78547,0.00098
3893.72530,0.00092
3891.66513,0.00085
3889.60496,0.00082
3887.54478,0.00072
3885.48461,0.00061
3883.42444,0.00056
3881.36427,0.00059
3879.30410,0.00069
3877.24392,0.00076
3875.18375,0.00072
3873.12358,0.00086
3871.06341,0.00151
3869.00324,0.00223
3866.94306,0.00217
3864.88289,0.00141
3862.82272,0.00069
3860.76255,0.00055
3858.70237,0.00091
3856.64220,0.00143
3854.58203,0.00189
3852.52186,0.00209
3850.46169,0.00193
3848.40151,0.00176
3846.34134,0.00161
3844.28117,0.00126
3842.22100,0.00093
3840.16083,0.00080
3838.10065,0.00079
3836.04048,0.00088
3833.98031,0.00094
3831.92014,0.00094
3829.85997,0.00106
3827.79979,0.00123
3825.73962,0.00131
3823.67945,0.00126
3821.61928,0.00111
3819.55910,0.00103
3817.49893,0.00102
3815.43876,0.00114
3813.37859,0.00135
3811.31842,0.00136
3809.25824,0.00117
3807.19807,0.00116
3805.13790,0.00160
3803.07773,0.00213
3801.01756,0.00227
3798.95738,0.00195
3796.89721,0.00152
3794.83704,0.00125
3792.77687,0.00114
3790.71670,0.00117
3788.65652,0.00123
3786.59635,0.00124
3784.53618,0.00120
3782.47601,0.00112
3780.41583,0.00101
3778.35566,0.00094
3776.29549,0.00097
3774.23532,0.00109
3772.17515,0.00127
3770.11497,0.00129
3768.05480,0.00120
3765.99463,0.00141
3763.93446,0.00179
3761.87429,0.00174
3759.81411,0.00145
3757.75394,0.00148
3755.69377,0.00170
3753.63360,0.00179
3751.57342,0.00184
3749.51325,0.00201
3747.45308,0.00227
3745.39291,0.00243
3743.33274,0.00207
3741.27256,0.00125
3739.21239,0.00048
3737.15222,0.00000
3735.09205,0.00013
3733.03188,0.00105
3730.97170,0.00187
3728.91153,0.00185
3726.85136,0.00156
3724.79119,0.00159
3722.73102,0.00192
3720.67084,0.00230
3718.61067,0.00227
3716.55050,0.00176
3714.49033,0.00098
3712.43015,0.00029
3710.36998,0.00031
3708.30981,0.00061
3706.24964,0.00072
3704.18947,0.00076
3702.12929,0.00102
3700.06912,0.00136
3698.00895,0.00132
3695.94878,0.00096
3693.88861,0.00069
3691.82843,0.00099
3689.76826,0.00167
3687.70809,0.00200
3685.64792,0.00167
3683.58775,0.00134
3681.52757,0.00141
3679.46740,0.00149
3677.40723,0.00126
3675.34706,0.00111
3673.28688,0.00126
3671.22671,0.00137
3669.16654,0.00136
3667.10637,0.00142
3665.04620,0.00166
3662.98602,0.00203
3660.92585,0.00231
3658.86568,0.00233
3656.80551,0.00225
3654.74534,0.00233
3652.68516,0.00248
3650.62499,0.00244
3648.56482,0.00220
3646.50465,0.00206
3644.44447,0.00209
3642.38430,0.00214
3640.32413,0.00209
3638.26396,0.00197
3636.20379,0.00189
3634.14361,0.00202
3632.08344,0.00229
3630.02327,0.00234
3627.96310,0.00232
3625.90293,0.00257
3623.84275,0.00277
3621.78258,0.00278
3619.72241,0.00311
3617.66224,0.00366
3615.60207,0.00369
3613.54189,0.00344
3611.48172,0.00338
3609.42155,0.00367
3607.36138,0.00411
3605.30120,0.00429
3603.24103,0.00412
3601.18086,0.00382
3599.12069,0.00379
3597.06052,0.00408
3595.00034,0.00439
3592.94017,0.00440
3590.88000,0.00445
3588.81983,0.00493
3586.75966,0.00546
3584.69948,0.00534
3582.63931,0.00486
3580.57914,0.00452
3578.51897,0.00437
3576.45879,0.00431
3574.39862,0.00429
3572.33845,0.00424
3570.27828,0.00432
3568.21811,0.00477
3566.15793,0.00537
3564.09776,0.00555
3562.03759,0.00541
3559.97742,0.00537
3557.91725,0.00544
3555.85707,0.00553
3553.79690,0.00572
3551.73673,0.00597
3549.67656,0.00603
3547.61639,0.00595
3545.55621,0.00615
3543.49604,0.00661
3541.43587,0.00675
3539.37570,0.00647
3537.31552,0.00629
3535.25535,0.00634
3533.19518,0.00637
3531.13501,0.00636
3529.07484,0.00639
3527.01466,0.00644
3524.95449,0.00638
3522.89432,0.00636
3520.83415,0.00668
3518.77398,0.00720
3516.71380,0.00746
3514.65363,0.00729
3512.59346,0.00697
3510.53329,0.00694
3508.47312,0.00710
3506.41294,0.00712
3504.35277,0.00717
3502.29260,0.00751
3500.23243,0.00792
3498.17225,0.00816
3496.11208,0.00827
3494.05191,0.00831
3491.99174,0.00827
3489.93157,0.00826
3487.87139,0.00829
3485.81122,0.00829
3483.75105,0.00828
3481.69088,0.00831
3479.63071,0.00842
3477.57053,0.00853
3475.51036,0.00860
3473.45019,0.00875
3471.39002,0.00890
3469.32984,0.00877
3467.26967,0.00861
3465.20950,0.00875
3463.14933,0.00902
3461.08916,0.00923
3459.02898,0.00926
3456.96881,0.00917
3454.90864,0.00915
3452.84847,0.00910
3450.78830,0.00888
3448.72812,0.00869
3446.66795,0.00893
3444.60778,0.00938
3442.54761,0.00959
3440.48744,0.00959
3438.42726,0.00965
3436.36709,0.00981
3434.30692,0.00989
3432.24675,0.00979
3430.18657,0.00958
3428.12640,0.00949
3426.06623,0.00963
3424.00606,0.00980
3421.94589,0.00994
3419.88571,0.01004
3417.82554,0.01014
3415.76537,0.01028
3413.70520,0.01042
3411.64503,0.01031
3409.58485,0.00990
3407.52468,0.00962
3405.46451,0.00972
3403.40434,0.00995
3401.34416,0.01010
3399.28399,0.01026
3397.22382,0.01053
3395.16365,0.01073
3393.10348,0.01081
3391.04330,0.01072
3388.98313,0.01037
3386.92296,0.01012
3384.86279,0.01031
3382.80262,0.01077
3380.74244,0.01098
3378.68227,0.01074
3376.62210,0.01039
3374.56193,0.01029
3372.50176,0.01054
3370.44158,0.01087
3368.38141,0.01091
3366.32124,0.01088
3364.26107,0.01111
3362.20089,0.01124
3360.14072,0.01098
3358.08055,0.01063
3356.02038,0.01057
3353.96021,0.01076
3351.90003,0.01096
3349.83986,0.01103
3347.77969,0.01093
3345.71952,0.01070
3343.65935,0.01041
3341.59917,0.01033
3339.53900,0.01061
3337.47883,0.01096
3335.41866,0.01112
3333.35849,0.01124
3331.29831,0.01143
3329.23814,0.01160
3327.17797,0.01162
3325.11780,0.01140
3323.05762,0.01115
3320.99745,0.01119
3318.93728,0.01142
3316.87711,0.01151
3314.81694,0.01144
3312.75676,0.01143
3310.69659,0.01154
3308.63642,0.01160
3306.57625,0.01152
3304.51608,0.01147
3302.45590,0.01169
3300.39573,0.01199
3298.33556,0.01202
3296.27539,0.01187
3294.21521,0.01170
3292.15504,0.01137
3290.09487,0.01094
3288.03470,0.01080
3285.97453,0.01090
3283.91435,0.01091
3281.85418,0.01096
3279.79401,0.01131
3277.73384,0.01179
3275.67367,0.01208
3273.61349,0.01196
3271.55332,0.01142
3269.49315,0.01106
3267.43298,0.01121
3265.37281,0.01157
3263.31263,0.01180
3261.25246,0.01175
3259.19229,0.01160
3257.13212,0.01167
3255.07194,0.01172
3253.01177,0.01147
3250.95160,0.01126
3248.89143,0.01143
3246.83126,0.01176
3244.77108,0.01186
3242.71091,0.01186
3240.65074,0.01202
3238.59057,0.01213
3236.53040,0.01200
3234.47022,0.01178
3232.41005,0.01157
3230.34988,0.01136
3228.28971,0.01128
3226.22954,0.01132
3224.16936,0.01137
3222.10919,0.01142
3220.04902,0.01143
3217.98885,0.01152
3215.92867,0.01173
3213.86850,0.01177
3211.80833,0.01157
3209.74816,0.01134
3207.68799,0.01130
3205.62781,0.01154
3203.56764,0.01174
3201.50747,0.01177
3199.44730,0.01179
3197.38713,0.01172
3195.32695,0.01156
3193.26678,0.01151
3191.20661,0.01177
3189.14644,0.01224
3187.08626,0.01250
3185.02609,0.01226
3182.96592,0.01174
3180.90575,0.01142
3178.84558,0.01144
3176.78540,0.01172
3174.72523,0.01193
3172.66506,0.01188
3170.60489,0.01167
3168.54472,0.01149
3166.48454,0.01136
3164.42437,0.01118
3162.36420,0.01113
3160.30403,0.01131
3158.24386,0.01137
3156.18368,0.01117
3154.12351,0.01100
3152.06334,0.01104
3150.00317,0.01111
3147.94299,0.01113
3145.88282,0.01132
3143.82265,0.01150
3141.76248,0.01137
3139.70231,0.01116
3137.64213,0.01089
3135.58196,0.01041
3133.52179,0.01020
3131.46162,0.01064
3129.40145,0.01116
3127.34127,0.01127
3125.28110,0.01124
3123.22093,0.01126
3121.16076,0.01117
3119.10058,0.01098
3117.04041,0.01099
3114.98024,0.01112
3112.92007,0.01106
3110.85990,0.01080
3108.79972,0.01060
3106.73955,0.01059
3104.67938,0.01070
3102.61921,0.01078
3100.55904,0.01073
3098.49886,0.01054
3096.43869,0.01036
3094.37852,0.01029
3092.31835,0.01034
3090.25818,0.01039
3088.19800,0.01047
3086.13783,0.01050
3084.07766,0.01030
3082.01749,0.01005
3079.95731,0.01002
3077.89714,0.01016
3075.83697,0.01020
3073.77680,0.01004
3071.71663,0.00991
3069.65645,0.01005
3067.59628,0.01022
3065.53611,0.01015
3063.47594,0.01006
3061.41577,0.01013
3059.35559,0.01003
3057.29542,0.00961
3055.23525,0.00922
3053.17508,0.00914
3051.11491,0.00933
3049.05473,0.00963
3046.99456,0.00977
3044.93439,0.00973
3042.87422,0.00958
3040.81404,0.00934
3038.75387,0.00916
3036.69370,0.00906
3034.63353,0.00889
3032.57336,0.00880
3030.51318,0.00890
3028.45301,0.00896
3026.39284,0.00889
3024.33267,0.00896
3022.27250,0.00915
3020.21232,0.00923
3018.15215,0.00913
3016.09198,0.00904
3014.03181,0.00911
3011.97163,0.00911
3009.91146,0.00891
3007.85129,0.00866
3005.79112,0.00846
3003.73095,0.00834
3001.67077,0.00840
2999.61060,0.00863
2997.55043,0.00879
2995.49026,0.00874
2993.43009,0.00864
2991.36991,0.00846
2989.30974,0.00825
2987.24957,0.00821
2985.18940,0.00823
2983.12923,0.00821
2981.06905,0.00821
2979.00888,0.00824
2976.94871,0.00828
2974.88854,0.00829
2972.82836,0.00820
2970.76819,0.00797
2968.70802,0.00779
2966.64785,0.00786
2964.58768,0.00791
2962.52750,0.00782
2960.46733,0.00779
2958.40716,0.00773
2956.34699,0.00758
2954.28682,0.00742
2952.22664,0.00742
2950.16647,0.00767
2948.10630,0.00777
2946.04613,0.00753
2943.98596,0.00738
2941.92578,0.00743
2939.86561,0.00756
2937.80544,0.00758
2935.74527,0.00738
2933.68509,0.00733
2931.62492,0.00747
2929.56475,0.00748
2927.50458,0.00737
2925.44441,0.00735
2923.38423,0.00735
2921.32406,0.00729
2919.26389,0.00726
2917.20372,0.00725
2915.14355,0.00715
2913.08337,0.00701
2911.02320,0.00701
2908.96303,0.00702
2906.90286,0.00685
2904.84268,0.00678
2902.78251,0.00702
2900.72234,0.00719
2898.66217,0.00708
2896.60200,0.00703
2894.54182,0.00711
2892.48165,0.00718
2890.42148,0.00716
2888.36131,0.00707
2886.30114,0.00698
2884.24096,0.00683
2882.18079,0.00687
2880.12062,0.00702
2878.06045,0.00692
2876.00028,0.00670
2873.94010,0.00670
2871.87993,0.00683
2869.81976,0.00668
2867.75959,0.00636
2865.69941,0.00619
2863.63924,0.00613
2861.57907,0.00621
2859.51890,0.00644
2857.45873,0.00657
2855.39855,0.00653
2853.33838,0.00655
2851.27821,0.00656
2849.21804,0.00648
2847.15787,0.00642
2845.09769,0.00633
2843.03752,0.00625
2840.97735,0.00630
2838.91718,0.00639
2836.85700,0.00644
2834.79683,0.00639
2832.73666,0.00621
2830.67649,0.00593
2828.61632,0.00572
2826.55614,0.00575
2824.49597,0.00592
2822.43580,0.00602
2820.37563,0.00598
2818.31546,0.00595
2816.25528,0.00600
2814.19511,0.00605
2812.13494,0.00597
2810.07477,0.00579
2808.01460,0.00563
2805.95442,0.00559
2803.89425,0.00565
2801.83408,0.00575
2799.77391,0.00587
2797.71373,0.00590
2795.65356,0.00579
2793.59339,0.00571
2791.53322,0.00579
2789.47305,0.00586
2787.41287,0.00578
2785.35270,0.00575
2783.29253,0.00583
2781.23236,0.00578
2779.17219,0.00564
2777.11201,0.00571
2775.05184,0.00574
2772.99167,0.00563
2770.93150,0.00553
2768.87133,0.00542
2766.81115,0.00533
2764.75098,0.00532
2762.69081,0.00530
2760.63064,0.00520
2758.57046,0.00509
2756.51029,0.00502
2754.45012,0.00496
2752.38995,0.00488
2750.32978,0.00485
2748.26960,0.00490
2746.20943,0.00494
2744.14926,0.00494
2742.08909,0.00500
2740.02892,0.00503
2737.96874,0.00488
2735.90857,0.00476
2733.84840,0.00489
2731.78823,0.00497
2729.72805,0.00481
2727.66788,0.00456
2725.60771,0.00455
2723.54754,0.00482
2721.48737,0.00497
2719.42719,0.00486
2717.36702,0.00479
2715.30685,0.00491
2713.24668,0.00506
2711.18651,0.00502
2709.12633,0.00481
2707.06616,0.00472
2705.00599,0.00483
2702.94582,0.00481
2700.88565,0.00452
2698.82547,0.00426
2696.76530,0.00428
2694.70513,0.00433
2692.64496,0.00429
2690.58478,0.00426
2688.52461,0.00430
2686.46444,0.00440
2684.40427,0.00447
2682.34410,0.00446
2680.28392,0.00445
2678.22375,0.00440
2676.16358,0.00431
2674.10341,0.00426
2672.04324,0.00420
2669.98306,0.00422
2667.92289,0.00432
2665.86272,0.00430
2663.80255,0.00425
2661.74238,0.00435
2659.68220,0.00451
2657.62203,0.00448
2655.56186,0.00419
2653.50169,0.00384
2651.44151,0.00379
2649.38134,0.00409
2647.32117,0.00436
2645.26100,0.00442
2643.20083,0.00428
2641.14065,0.00399
2639.08048,0.00386
2637.02031,0.00392
2634.96014,0.00387
2632.89997,0.00373
2630.83979,0.00371
2628.77962,0.00383
2626.71945,0.00400
2624.65928,0.00421
2622.59910,0.00441
2620.53893,0.00457
2618.47876,0.00460
2616.41859,0.00428
2614.35842,0.00389
2612.29824,0.00379
2610.23807,0.00364
2608.17790,0.00330
2606.11773,0.00325
2604.05756,0.00361
2601.99738,0.00398
2599.93721,0.00417
2597.87704,0.00415
2595.81687,0.00389
2593.75670,0.00353
2591.69652,0.00333
2589.63635,0.00330
2587.57618,0.00343
2585.51601,0.00366
2583.45583,0.00365
2581.39566,0.00346
2579.33549,0.00338
2577.27532,0.00326
2575.21515,0.00302
2573.15497,0.00300
2571.09480,0.00314
2569.03463,0.00317
2566.97446,0.00335
2564.91429,0.00369
2562.85411,0.00399
2560.79394,0.00416
2558.73377,0.00390
2556.67360,0.00328
2554.61342,0.00294
2552.55325,0.00313
2550.49308,0.00337
2548.43291,0.00341
2546.37274,0.00335
2544.31256,0.00325
2542.25239,0.00317
2540.19222,0.00323
2538.13205,0.00337
2536.07188,0.00332
2534.01170,0.00321
2531.95153,0.00330
2529.89136,0.00349
2527.83119,0.00348
2525.77102,0.00306
2523.71084,0.00274
2521.65067,0.00282
2519.59050,0.00296
2517.53033,0.00301
2515.47015,0.00297
2513.40998,0.00289
2511.34981,0.00290
2509.28964,0.00316
2507.22947,0.00353
2505.16929,0.00355
2503.10912,0.00332
2501.04895,0.00334
2498.98878,0.00321
2496.92861,0.00275
2494.86843,0.00270
2492.80826,0.00307
2490.74809,0.00356
2488.68792,0.00411
2486.62775,0.00443
2484.56757,0.00438
2482.50740,0.00398
2480.44723,0.00360
2478.38706,0.00350
2476.32688,0.00350
2474.26671,0.00362
2472.20654,0.00381
2470.14637,0.00384
2468.08620,0.00350
2466.02602,0.00298
2463.96585,0.00294
2461.90568,0.00339
2459.84551,0.00367
2457.78534,0.00363
2455.72516,0.00363
2453.66499,0.00386
2451.60482,0.00409
2449.54465,0.00415
2447.48447,0.00412
2445.42430,0.00396
2443.36413,0.00367
2441.30396,0.00351
2439.24379,0.00356
2437.18361,0.00371
2435.12344,0.00378
2433.06327,0.00374
2431.00310,0.00370
2428.94293,0.00378
2426.88275,0.00389
2424.82258,0.00397
2422.76241,0.00403
2420.70224,0.00397
2418.64207,0.00394
2416.58189,0.00391
2414.52172,0.00364
2412.46155,0.00317
2410.40138,0.00304
2408.34120,0.00338
2406.28103,0.00386
2404.22086,0.00413
2402.16069,0.00400
2400.10052,0.00382
2398.04034,0.00376
2395.98017,0.00362
2393.92000,0.00329
2391.85983,0.00315
2389.79966,0.00339
2387.73948,0.00365
2385.67931,0.00370
2383.61914,0.00365
2381.55897,0.00358
2379.49880,0.00352
2377.43862,0.00368
2375.37845,0.00371
2373.31828,0.00366
2371.25811,0.00369
2369.19793,0.00384
2367.13776,0.00405
2365.07759,0.00428
2363.01742,0.00398
2360.95725,0.00507
2358.89707,0.00496
2356.83690,0.00461
2354.77673,0.00427
2352.71656,0.00428
2350.65639,0.00644
2348.59621,0.00749
2346.53604,0.00323
2344.47587,0.00221
2342.41570,0.00283
2340.35552,0.00287
2338.29535,0.00263
2336.23518,0.00246
2334.17501,0.00292
2332.11484,0.00358
2330.05466,0.00443
2327.99449,0.00465
2325.93432,0.00539
2323.87415,0.00542
2321.81398,0.00541
2319.75380,0.00475
2317.69363,0.00496
2315.63346,0.00494
2313.57329,0.00485
2311.51312,0.00512
2309.45294,0.00520
2307.39277,0.00498
2305.33260,0.00468
2303.27243,0.00455
2301.21225,0.00440
2299.15208,0.00427
2297.09191,0.00408
2295.03174,0.00385
2292.97157,0.00386
2290.91139,0.00409
2288.85122,0.00422
2286.79105,0.00427
2284.73088,0.00437
2282.67071,0.00428
2280.61053,0.00392
2278.55036,0.00361
2276.49019,0.00352
2274.43002,0.00383
2272.36984,0.00450
2270.30967,0.00498
2268.24950,0.00493
2266.18933,0.00458
2264.12916,0.00413
2262.06898,0.00372
2260.00881,0.00364
2257.94864,0.00388
2255.88847,0.00407
2253.82830,0.00430
2251.76812,0.00462
2249.70795,0.00466
2247.64778,0.00400
2245.58761,0.00285
2243.52744,0.00248
2241.46726,0.00300
2239.40709,0.00327
2237.34692,0.00294
2235.28675,0.00302
2233.22657,0.00366
2231.16640,0.00373
2229.10623,0.00317
2227.04606,0.00306
2224.98589,0.00401
2222.92571,0.00490
2220.86554,0.00434
2218.80537,0.00303
2216.74520,0.00246
2214.68503,0.00269
2212.62485,0.00264
2210.56468,0.00225
2208.50451,0.00212
2206.44434,0.00239
2204.38417,0.00301
2202.32399,0.00368
2200.26382,0.00435
2198.20365,0.00473
2196.14348,0.00426
2194.08330,0.00360
2192.02313,0.00337
2189.96296,0.00310
2187.90279,0.00286
2185.84262,0.00262
2183.78244,0.00191
2181.72227,0.00194
2179.66210,0.00249
2177.60193,0.00275
2175.54176,0.00352
2173.48158,0.00378
2171.42141,0.00247
2169.36124,0.00158
2167.30107,0.00264
2165.24089,0.00313
2163.18072,0.00154
2161.12055,0.00000
2159.06038,0.00000
2157.00021,0.00164
2154.94003,0.00333
2152.87986,0.00379
2150.81969,0.00356
2148.75952,0.00271
2146.69935,0.00173
2144.63917,0.00151
2142.57900,0.00153
2140.51883,0.00153
2138.45866,0.00219
2136.39849,0.00277
2134.33831,0.00240
2132.27814,0.00230
2130.21797,0.00306
2128.15780,0.00354
2126.09762,0.00314
2124.03745,0.00256
2121.97728,0.00236
2119.91711,0.00239
2117.85694,0.00251
2115.79676,0.00265
2113.73659,0.00293
2111.67642,0.00350
2109.61625,0.00374
2107.55608,0.00301
2105.49590,0.00231
2103.43573,0.00227
2101.37556,0.00180
2099.31539,0.00106
2097.25521,0.00116
2095.19504,0.00175
2093.13487,0.00188
2091.07470,0.00193
2089.01453,0.00246
2086.95435,0.00310
2084.89418,0.00341
2082.83401,0.00325
2080.77384,0.00296
2078.71367,0.00329
2076.65349,0.00402
2074.59332,0.00393
2072.53315,0.00310
2070.47298,0.00285
2068.41281,0.00327
2066.35263,0.00401
2064.29246,0.00477
2062.23229,0.00447
2060.17212,0.00317
2058.11194,0.00232
2056.05177,0.00224
2053.99160,0.00215
2051.93143,0.00179
2049.87126,0.00096
2047.81108,0.00022
2045.75091,0.00085
2043.69074,0.00243
2041.63057,0.00343
2039.57040,0.00365
2037.51022,0.00411
2035.45005,0.00449
2033.38988,0.00359
2031.32971,0.00190
2029.26954,0.00096
2027.20936,0.00052
2025.14919,0.00000
2023.08902,0.00097
2021.02885,0.00353
2018.96867,0.00479
2016.90850,0.00319
2014.84833,0.00091
2012.78816,0.00048
2010.72799,0.00135
2008.66781,0.00205
2006.60764,0.00280
2004.54747,0.00372
2002.48730,0.00386
2000.42713,0.00268
1998.36695,0.00118
1996.30678,0.00071
1994.24661,0.00092
1992.18644,0.00126
1990.12626,0.00225
1988.06609,0.00326
1986.00592,0.00315
1983.94575,0.00224
1981.88558,0.00157
1979.82540,0.00153
1977.76523,0.00187
1975.70506,0.00232
1973.64489,0.00233
1971.58472,0.00171
1969.52454,0.00097
1967.46437,0.00073
1965.40420,0.00187
1963.34403,0.00333
1961.28386,0.00319
1959.22368,0.00224
1957.16351,0.00172
1955.10334,0.00144
1953.04317,0.00141
1950.98299,0.00149
1948.92282,0.00157
1946.86265,0.00191
1944.80248,0.00249
1942.74231,0.00286
1940.68213,0.00257
1938.62196,0.00201
1936.56179,0.00191
1934.50162,0.00203
1932.44145,0.00170
1930.38127,0.00125
1928.32110,0.00134
1926.26093,0.00167
1924.20076,0.00180
1922.14059,0.00150
1920.08041,0.00105
1918.02024,0.00116
1915.96007,0.00158
1913.89990,0.00158
1911.83972,0.00138
1909.77955,0.00146
1907.71938,0.00180
1905.65921,0.00202
1903.59904,0.00169
1901.53886,0.00113
1899.47869,0.00109
1897.41852,0.00169
1895.35835,0.00232
1893.29818,0.00249
1891.23800,0.00238
1889.17783,0.00241
1887.11766,0.00254
1885.05749,0.00250
1882.99731,0.00239
1880.93714,0.00242
1878.87697,0.00256
1876.81680,0.00263
1874.75663,0.00264
1872.69645,0.00253
1870.63628,0.00209
1868.57611,0.00144
1866.51594,0.00120
1864.45577,0.00139
1862.39559,0.00158
1860.33542,0.00182
1858.27525,0.00223
1856.21508,0.00249
1854.15491,0.00234
1852.09473,0.00215
1850.03456,0.00213
1847.97439,0.00195
1845.91422,0.00174
1843.85404,0.00200
1841.79387,0.00237
1839.73370,0.00237
1837.67353,0.00227
1835.61336,0.00237
1833.55318,0.00271
1831.49301,0.00309
1829.43284,0.00315
1827.37267,0.00278
1825.31250,0.00240
1823.25232,0.00238
1821.19215,0.00268
1819.13198,0.00292
1817.07181,0.00286
1815.01163,0.00262
1812.95146,0.00240
1810.89129,0.00230
1808.83112,0.00222
1806.77095,0.00209
1804.71077,0.00209
1802.65060,0.00235
1800.59043,0.00257
1798.53026,0.00249
1796.47009,0.00220
1794.40991,0.00208
1792.34974,0.00230
1790.28957,0.00254
1788.22940,0.00254
1786.16923,0.00245
1784.10905,0.00229
1782.04888,0.00212
1779.98871,0.00220
1777.92854,0.00249
1775.86836,0.00261
1773.80819,0.00243
1771.74802,0.00227
1769.68785,0.00239
1767.62768,0.00257
1765.56750,0.00259
1763.50733,0.00252
1761.44716,0.00251
1759.38699,0.00261
1757.32682,0.00273
1755.26664,0.00263
1753.20647,0.00240
1751.14630,0.00243
1749.08613,0.00280
1747.02596,0.00306
1744.96578,0.00301
1742.90561,0.00287
1740.84544,0.00276
1738.78527,0.00274
1736.72509,0.00281
1734.66492,0.00301
1732.60475,0.00328
1730.54458,0.00335
1728.48441,0.00324
1726.42423,0.00313
1724.36406,0.00309
1722.30389,0.00306
1720.24372,0.00308
1718.18355,0.00326
1716.12337,0.00354
1714.06320,0.00374
1712.00303,0.00371
1709.94286,0.00342
1707.88268,0.00313
1705.82251,0.00309
1703.76234,0.00325
1701.70217,0.00358
1699.64200,0.00403
1697.58182,0.00425
1695.52165,0.00420
1693.46148,0.00401
1691.40131,0.00380
1689.34114,0.00376
1687.28096,0.00399
1685.22079,0.00447
1683.16062,0.00491
1681.10045,0.00491
1679.04028,0.00483
1676.98010,0.00499
1674.91993,0.00518
1672.85976,0.00524
1670.79959,0.00539
1668.73941,0.00557
1666.67924,0.00543
1664.61907,0.00520
1662.55890,0.00524
1660.49873,0.00540
1658.43855,0.00536
1656.37838,0.00519
1654.31821,0.00517
1652.25804,0.00543
1650.19787,0.00558
1648.13769,0.00574
1646.07752,0.00593
1644.01735,0.00581
1641.95718,0.00557
1639.89701,0.00543
1637.83683,0.00534
1635.77666,0.00527
1633.71649,0.00520
1631.65632,0.00505
1629.59614,0.00490
1627.53597,0.00480
1625.47580,0.00473
1623.41563,0.00480
1621.35546,0.00490
1619.29528,0.00484
1617.23511,0.00470
1615.17494,0.00462
1613.11477,0.00458
1611.05460,0.00452
1608.99442,0.00441
1606.93425,0.00418
1604.87408,0.00392
1602.81391,0.00374
1600.75373,0.00366
1598.69356,0.00354
1596.63339,0.00339
1594.57322,0.00335
1592.51305,0.00337
1590.45287,0.00337
1588.39270,0.00349
1586.33253,0.00375
1584.27236,0.00386
1582.21219,0.00365
1580.15201,0.00333
1578.09184,0.00313
1576.03167,0.00323
1573.97150,0.00346
1571.91133,0.00350
1569.85115,0.00341
1567.79098,0.00329
1565.73081,0.00317
1563.67064,0.00310
1561.61046,0.00307
1559.55029,0.00310
1557.49012,0.00310
1555.42995,0.00291
1553.36978,0.00275
1551.30960,0.00273
1549.24943,0.00273
1547.18926,0.00265
1545.12909,0.00248
1543.06892,0.00242
1541.00874,0.00265
1538.94857,0.00286
1536.88840,0.00273
1534.82823,0.00256
1532.76805,0.00252
1530.70788,0.00255
1528.64771,0.00266
1526.58754,0.00289
1524.52737,0.00301
1522.46719,0.00291
1520.40702,0.00276
1518.34685,0.00271
1516.28668,0.00280
1514.22651,0.00284
1512.16633,0.00264
1510.10616,0.00242
1508.04599,0.00249
1505.98582,0.00269
1503.92565,0.00261
1501.86547,0.00235
1499.80530,0.00217
1497.74513,0.00213
1495.68496,0.00217
1493.62478,0.00232
1491.56461,0.00251
1489.50444,0.00255
1487.44427,0.00233
1485.38410,0.00211
1483.32392,0.00210
1481.26375,0.00216
1479.20358,0.00212
1477.14341,0.00203
1475.08324,0.00203
1473.02306,0.00216
1470.96289,0.00227
1468.90272,0.00229
1466.84255,0.00231
1464.78238,0.00230
1462.72220,0.00226
1460.66203,0.00231
1458.60186,0.00270
1456.54169,0.00324
1454.48151,0.00318
1452.42134,0.00269
1450.36117,0.00223
1448.30100,0.00190
1446.24083,0.00173
1444.18065,0.00171
1442.12048,0.00179
1440.06031,0.00189
1438.00014,0.00200
1435.93997,0.00211
1433.87979,0.00214
1431.81962,0.00205
1429.75945,0.00191
1427.69928,0.00187
1425.63910,0.00197
1423.57893,0.00213
1421.51876,0.00222
1419.45859,0.00228
1417.39842,0.00233
1415.33824,0.00226
1413.27807,0.00210
1411.21790,0.00205
1409.15773,0.00205
1407.09756,0.00195
1405.03738,0.00183
1402.97721,0.00187
1400.91704,0.00198
1398.85687,0.00202
1396.79670,0.00206
1394.73652,0.00216
1392.67635,0.00211
1390.61618,0.00194
1388.55601,0.00191
1386.49583,0.00203
1384.43566,0.00208
1382.37549,0.00201
1380.31532,0.00191
1378.25515,0.00190
1376.19497,0.00203
1374.13480,0.00211
1372.07463,0.00196
1370.01446,0.00172
1367.95429,0.00158
1365.89411,0.00158
1363.83394,0.00168
1361.77377,0.00176
1359.71360,0.00176
1357.65343,0.00178
1355.59325,0.00188
1353.53308,0.00195
1351.47291,0.00190
1349.41274,0.00180
1347.35256,0.00179
1345.29239,0.00180
1343.23222,0.00178
1341.17205,0.00183
1339.11188,0.00202
1337.05170,0.00217
1334.99153,0.00213
1332.93136,0.00199
1330.87119,0.00191
1328.81102,0.00193
1326.75084,0.00195
1324.69067,0.00181
1322.63050,0.00167
1320.57033,0.00172
1318.51015,0.00182
1316.44998,0.00184
1314.38981,0.00191
1312.32964,0.00204
1310.26947,0.00211
1308.20929,0.00215
1306.14912,0.00219
1304.08895,0.00219
1302.02878,0.00211
1299.96861,0.00201
1297.90843,0.00204
1295.84826,0.00221
1293.78809,0.00234
1291.72792,0.00231
1289.66775,0.00224
1287.60757,0.00228
1285.54740,0.00230
1283.48723,0.00222
1281.42706,0.00217
1279.36688,0.00221
1277.30671,0.00232
1275.24654,0.00249
1273.18637,0.00267
1271.12620,0.00264
1269.06602,0.00247
1267.00585,0.00237
1264.94568,0.00232
1262.88551,0.00224
1260.82534,0.00220
1258.76516,0.00225
1256.70499,0.00244
1254.64482,0.00266
1252.58465,0.00270
1250.52447,0.00256
1248.46430,0.00241
1246.40413,0.00244
1244.34396,0.00256
1242.28379,0.00252
1240.22361,0.00226
1238.16344,0.00200
1236.10327,0.00193
1234.04310,0.00197
1231.98293,0.00199
1229.92275,0.00204
1227.86258,0.00208
1225.80241,0.00197
1223.74224,0.00193
1221.68207,0.00208
1219.62189,0.00218
1217.56172,0.00217
1215.50155,0.00209
1213.44138,0.00198
1211.38120,0.00202
1209.32103,0.00211
1207.26086,0.00195
1205.20069,0.00166
1203.14052,0.00165
1201.08034,0.00186
1199.02017,0.00198
1196.96000,0.00195
1194.89983,0.00197
1192.83966,0.00214
1190.77948,0.00228
1188.71931,0.00226
1186.65914,0.00220
1184.59897,0.00223
1182.53880,0.00240
1180.47862,0.00273
1178.41845,0.00298
1176.35828,0.00304
1174.29811,0.00299
1172.23793,0.00285
1170.17776,0.00277
1168.11759,0.00300
1166.05742,0.00343
1163.99725,0.00363
1161.93707,0.00365
1159.87690,0.00375
1157.81673,0.00386
1155.75656,0.00391
1153.69639,0.00402
1151.63621,0.00424
1149.57604,0.00443
1147.51587,0.00461
1145.45570,0.00496
1143.39552,0.00528
1141.33535,0.00537
1139.27518,0.00553
1137.21501,0.00581
1135.15484,0.00594
1133.09466,0.00606
1131.03449,0.00639
1128.97432,0.00670
1126.91415,0.00693
1124.85398,0.00730
1122.79380,0.00778
1120.73363,0.00812
1118.67346,0.00835
1116.61329,0.00859
1114.55312,0.00884
1112.49294,0.00920
1110.43277,0.00966
1108.37260,0.01001
1106.31243,0.01018
1104.25225,0.01027
1102.19208,0.01037
1100.13191,0.01055
1098.07174,0.01081
1096.01157,0.01117
1093.95139,0.01152
1091.89122,0.01179
1089.83105,0.01205
1087.77088,0.01224
1085.71071,0.01222
1083.65053,0.01225
1081.59036,0.01252
1079.53019,0.01288
1077.47002,0.01314
1075.40985,0.01327
1073.34967,0.01330
1071.28950,0.01339
1069.22933,0.01356
1067.16916,0.01356
1065.10898,0.01331
1063.04881,0.01312
1060.98864,0.01317
1058.92847,0.01330
1056.86830,0.01340
1054.80812,0.01336
1052.74795,0.01315
1050.68778,0.01294
1048.62761,0.01267
1046.56744,0.01221
1044.50726,0.01174
1042.44709,0.01145
1040.38692,0.01125
1038.32675,0.01105
1036.26657,0.01075
1034.20640,0.01040
1032.14623,0.01025
1030.08606,0.01018
1028.02589,0.01002
1025.96571,0.00973
1023.90554,0.00936
1021.84537,0.00913
1019.78520,0.00907
1017.72503,0.00900
1015.66485,0.00883
1013.60468,0.00871
1011.54451,0.00868
1009.48434,0.00864
1007.42417,0.00870
1005.36399,0.00881
1003.30382,0.00888
1001.24365,0.00885
999.18348,0.00869
997.12330,0.00869
995.06313,0.00919
993.00296,0.00997
990.94279,0.01054
988.88262,0.01067
986.82244,0.01060
984.76227,0.01055
982.70210,0.01057
980.64193,0.01063
978.58176,0.01066
976.52158,0.01071
974.46141,0.01070
972.40124,0.01061
970.34107,0.01046
968.28089,0.01015
966.22072,0.00981
964.16055,0.00944
962.10038,0.00896
960.04021,0.00863
957.98003,0.00854
955.91986,0.00834
953.85969,0.00803
951.79952,0.00785
949.73935,0.00779
947.67917,0.00785
945.61900,0.00780
943.55883,0.00761
941.49866,0.00760
939.43849,0.00784
937.37831,0.00815
935.31814,0.00830
933.25797,0.00809
931.19780,0.00772
929.13762,0.00764
927.07745,0.00773
925.01728,0.00762
922.95711,0.00709
920.89694,0.00650
918.83676,0.00648
916.77659,0.00688
914.71642,0.00711
912.65625,0.00701
910.59608,0.00686
908.53590,0.00695
906.47573,0.00716
904.41556,0.00701
902.35539,0.00664
900.29522,0.00663
898.23504,0.00674
896.17487,0.00655
894.11470,0.00624
892.05453,0.00629
889.99435,0.00672
887.93418,0.00692
885.87401,0.00685
883.81384,0.00686
881.75367,0.00690
879.69349,0.00684
877.63332,0.00684
875.57315,0.00706
873.51298,0.00734
871.45281,0.00732
869.39263,0.00727
867.33246,0.00753
865.27229,0.00774
863.21212,0.00772
861.15194,0.00783
859.09177,0.00810
857.03160,0.00840
854.97143,0.00841
852.91126,0.00803
850.85108,0.00761
848.79091,0.00748
846.73074,0.00768
844.67057,0.00783
842.61040,0.00761
840.55022,0.00747
838.49005,0.00755
836.42988,0.00753
834.36971,0.00742
832.30954,0.00726
830.24936,0.00694
828.18919,0.00653
826.12902,0.00626
824.06885,0.00622
822.00867,0.00621
819.94850,0.00613
817.88833,0.00619
815.82816,0.00640
813.76799,0.00642
811.70781,0.00607
809.64764,0.00565
807.58747,0.00561
805.52730,0.00587
803.46713,0.00602
801.40695,0.00604
799.34678,0.00592
797.28661,0.00557
795.22644,0.00537
793.16627,0.00555
791.10609,0.00567
789.04592,0.00547
786.98575,0.00523
784.92558,0.00523
782.86540,0.00520
780.80523,0.00512
778.74506,0.00531
776.68489,0.00538
774.62472,0.00520
772.56454,0.00526
770.50437,0.00550
768.44420,0.00568
766.38403,0.00547
764.32386,0.00510
762.26368,0.00535
760.20351,0.00578
758.14334,0.00562
756.08317,0.00548
754.02299,0.00588
751.96282,0.00633
749.90265,0.00659
747.84248,0.00618
745.78231,0.00530
743.72213,0.00497
741.66196,0.00506
739.60179,0.00516
737.54162,0.00526
735.48145,0.00511
733.42127,0.00477
731.36110,0.00449
729.30093,0.00458
727.24076,0.00493
725.18059,0.00519
723.12041,0.00559
721.06024,0.00519
719.00007,0.00509
716.93990,0.00494
714.87972,0.00488
712.81955,0.00501
710.75938,0.00505
708.69921,0.00518
706.63904,0.00542
704.57886,0.00545
702.51869,0.00553
700.45852,0.00618
698.39835,0.00688
696.33818,0.00718
694.27800,0.00760
692.21783,0.00805
690.15766,0.00809
688.09749,0.00794
686.03731,0.00783
683.97714,0.00763
681.91697,0.00758
679.85680,0.00807
677.79663,0.00870
675.73645,0.00886
673.67628,0.00913
671.61611,0.01002
669.55594,0.00581
667.49577,0.00000
665.43559,0.00726
663.37542,0.00615
661.31525,0.00530
659.25508,0.00658
657.19491,0.00719
655.13473,0.00721
653.07456,0.00738
651.01439,0.00683
648.95422,0.00533
646.89404,0.00477
644.83387,0.00491
642.77370,0.00473
640.71353,0.00437
638.65336,0.00460
636.59318,0.00556
634.53301,0.00624
632.47284,0.00550
630.41267,0.00395
628.35250,0.00266
626.29232,0.00175
624.23215,0.00075
622.17198,0.00000
620.11181,0.00022
618.05164,0.00075
615.99146,0.00072
613.93129,0.00094
611.87112,0.00128
609.81095,0.00123
607.75077,0.00121
605.69060,0.00112
603.63043,0.00074
601.57026,0.00037
599.51009,0.00000
