3996.73391,0.00094
3994.67373,0.00050
3992.61356,0.00010
3990.55339,0.00000
3988.49322,0.00012
3986.43305,0.00044
3984.37287,0.00088
3982.31270,0.00113
3980.25253,0.00118
3978.19236,0.00123
3976.13219,0.00132
3974.07201,0.00129
3972.01184,0.00113
3969.95167,0.00112
3967.89150,0.00114
3965.83133,0.00090
3963.77115,0.00068
3961.71098,0.00070
3959.65081,0.00062
3957.59064,0.00034
3955.53046,0.00031
3953.47029,0.00067
3951.41012,0.00100
3949.34995,0.00117
3947.28978,0.00143
3945.22960,0.00158
3943.16943,0.00138
3941.10926,0.00122
3939.04909,0.00134
3936.98892,0.00140
3934.92874,0.00130
3932.86857,0.00131
3930.80840,0.00124
3928.74823,0.00095
3926.68805,0.00067
3924.62788,0.00055
3922.56771,0.00065
3920.50754,0.00086
3918.44737,0.00086
3916.38719,0.00048
3914.32702,0.00012
3912.26685,0.00011
3910.20668,0.00037
3908.14651,0.00072
3906.08633,0.00101
3904.02616,0.00106
3901.96599,0.00082
3899.90582,0.00046
3897.84565,0.00036
3895.78547,0.00054
3893.72530,0.00061
3891.66513,0.00035
3889.60496,0.00029
3887.54478,0.00084
3885.48461,0.00135
3883.42444,0.00135
3881.36427,0.00121
3879.30410,0.00134
3877.24392,0.00157
3875.18375,0.00146
3873.12358,0.00107
3871.06341,0.00071
3869.00324,0.00040
3866.94306,0.00036
3864.88289,0.00067
3862.82272,0.00092
3860.76255,0.00095
3858.70237,0.00110
3856.64220,0.00166
3854.58203,0.00214
3852.52186,0.00191
3850.46169,0.00145
3848.40151,0.00127
3846.34134,0.00115
3844.28117,0.00109
3842.22100,0.00123
3840.16083,0.00120
3838.10065,0.00086
3836.04048,0.00056
3833.98031,0.00043
3831.92014,0.00046
3829.85997,0.00076
3827.79979,0.00120
3825.73962,0.00139
3823.67945,0.00109
3821.61928,0.00043
3819.55910,0.00000
3817.49893,0.00014
3815.43876,0.00045
3813.37859,0.00081
3811.31842,0.00124
3809.25824,0.00150
3807.19807,0.00160
3805.13790,0.00180
3803.07773,0.00193
3801.01756,0.00176
3798.95738,0.00162
3796.89721,0.00153
3794.83704,0.00136
3792.77687,0.00128
3790.71670,0.00133
3788.65652,0.00135
3786.59635,0.00124
3784.53618,0.00109
3782.47601,0.00116
3780.41583,0.00110
3778.35566,0.00068
3776.29549,0.00038
3774.23532,0.00034
3772.17515,0.00039
3770.11497,0.00058
3768.05480,0.00088
3765.99463,0.00111
3763.93446,0.00124
3761.87429,0.00132
3759.81411,0.00140
3757.75394,0.00149
3755.69377,0.00159
3753.63360,0.00164
3751.57342,0.00145
3749.51325,0.00129
3747.45308,0.00144
3745.39291,0.00143
3743.33274,0.00103
3741.27256,0.00096
3739.21239,0.00145
3737.15222,0.00185
3735.09205,0.00132
3733.03188,0.00029
3730.97170,0.00012
3728.91153,0.00083
3726.85136,0.00126
3724.79119,0.00087
3722.73102,0.00049
3720.67084,0.00078
3718.61067,0.00140
3716.55050,0.00167
3714.49033,0.00157
3712.43015,0.00139
3710.36998,0.00123
3708.30981,0.00129
3706.24964,0.00157
3704.18947,0.00180
3702.12929,0.00176
3700.06912,0.00150
3698.00895,0.00128
3695.94878,0.00150
3693.88861,0.00217
3691.82843,0.00249
3689.76826,0.00215
3687.70809,0.00175
3685.64792,0.00161
3683.58775,0.00153
3681.52757,0.00159
3679.46740,0.00177
3677.40723,0.00160
3675.34706,0.00087
3673.28688,0.00073
3671.22671,0.00152
3669.16654,0.00223
3667.10637,0.00248
3665.04620,0.00258
3662.98602,0.00262
3660.92585,0.00275
3658.86568,0.00318
3656.80551,0.00391
3654.74534,0.00442
3652.68516,0.00433
3650.62499,0.00426
3648.56482,0.00514
3646.50465,0.00630
3644.44447,0.00705
3642.38430,0.00758
3640.32413,0.00816
3638.26396,0.00871
3636.20379,0.00905
3634.14361,0.00929
3632.08344,0.00954
3630.02327,0.00959
3627.96310,0.00958
3625.90293,0.01033
3623.84275,0.01157
3621.78258,0.01240
3619.72241,0.01243
3617.66224,0.01230
3615.60207,0.01301
3613.54189,0.01438
3611.48172,0.01578
3609.42155,0.01666
3607.36138,0.01673
3605.30120,0.01654
3603.24103,0.01682
3601.18086,0.01750
3599.12069,0.01803
3597.06052,0.01853
3595.00034,0.01941
3592.94017,0.02056
3590.88000,0.02139
3588.81983,0.02182
3586.75966,0.02214
3584.69948,0.02275
3582.63931,0.02356
3580.57914,0.02407
3578.51897,0.02422
3576.45879,0.02460
3574.39862,0.02545
3572.33845,0.02635
3570.27828,0.02719
3568.21811,0.02818
3566.15793,0.02887
3564.09776,0.02890
3562.03759,0.02900
3559.97742,0.02958
3557.91725,0.03031
3555.85707,0.03091
3553.79690,0.03149
3551.73673,0.03220
3549.67656,0.03285
3547.61639,0.03338
3545.55621,0.03398
3543.49604,0.03470
3541.43587,0.03542
3539.37570,0.03607
3537.31552,0.03656
3535.25535,0.03691
3533.19518,0.03737
3531.13501,0.03808
3529.07484,0.03892
3527.01466,0.03963
3524.95449,0.04009
3522.89432,0.04048
3520.83415,0.04096
3518.77398,0.04144
3516.71380,0.04184
3514.65363,0.04221
3512.59346,0.04272
3510.53329,0.04340
3508.47312,0.04404
3506.41294,0.04461
3504.35277,0.04534
3502.29260,0.04612
3500.23243,0.04663
3498.17225,0.04697
3496.11208,0.04726
3494.05191,0.04752
3491.99174,0.04801
3489.93157,0.04861
3487.87139,0.04906
3485.81122,0.04958
3483.75105,0.05038
3481.69088,0.05124
3479.63071,0.05179
3477.57053,0.05204
3475.51036,0.05224
3473.45019,0.05258
3471.39002,0.05300
3469.32984,0.05335
3467.26967,0.05375
3465.20950,0.05419
3463.14933,0.05454
3461.08916,0.05492
3459.02898,0.05566
3456.96881,0.05665
3454.90864,0.05736
3452.84847,0.05763
3450.78830,0.05766
3448.72812,0.05773
3446.66795,0.05811
3444.60778,0.05862
3442.54761,0.05903
3440.48744,0.05951
3438.42726,0.06010
3436.36709,0.06064
3434.30692,0.06110
3432.24675,0.06137
3430.18657,0.06150
3428.12640,0.06164
3426.06623,0.06192
3424.00606,0.06244
3421.94589,0.06306
3419.88571,0.06339
3417.82554,0.06333
3415.76537,0.06343
3413.70520,0.06399
3411.64503,0.06455
3409.58485,0.06494
3407.52468,0.06530
3405.46451,0.06565
3403.40434,0.06585
3401.34416,0.06605
3399.28399,0.06659
3397.22382,0.06698
3395.16365,0.06710
3393.10348,0.06715
3391.04330,0.06710
3388.98313,0.06705
3386.92296,0.06749
3384.86279,0.06819
3382.80262,0.06856
3380.74244,0.06872
3378.68227,0.06878
3376.62210,0.06884
3374.56193,0.06923
3372.50176,0.06979
3370.44158,0.07004
3368.38141,0.07011
3366.32124,0.07023
3364.26107,0.07035
3362.20089,0.07056
3360.14072,0.07089
3358.08055,0.07106
3356.02038,0.07114
3353.96021,0.07140
3351.90003,0.07168
3349.83986,0.07176
3347.77969,0.07163
3345.71952,0.07149
3343.65935,0.07162
3341.59917,0.07192
3339.53900,0.07192
3337.47883,0.07168
3335.41866,0.07162
3333.35849,0.07185
3331.29831,0.07232
3329.23814,0.07275
3327.17797,0.07286
3325.11780,0.07276
3323.05762,0.07259
3320.99745,0.07238
3318.93728,0.07219
3316.87711,0.07211
3314.81694,0.07219
3312.75676,0.07236
3310.69659,0.07252
3308.63642,0.07258
3306.57625,0.07270
3304.51608,0.07297
3302.45590,0.07321
3300.39573,0.07340
3298.33556,0.07354
3296.27539,0.07345
3294.21521,0.07340
3292.15504,0.07386
3290.09487,0.07445
3288.03470,0.07450
3285.97453,0.07424
3283.91435,0.07414
3281.85418,0.07396
3279.79401,0.07371
3277.73384,0.07381
3275.67367,0.07407
3273.61349,0.07409
3271.55332,0.07413
3269.49315,0.07444
3267.43298,0.07480
3265.37281,0.07505
3263.31263,0.07519
3261.25246,0.07516
3259.19229,0.07497
3257.13212,0.07484
3255.07194,0.07492
3253.01177,0.07508
3250.95160,0.07513
3248.89143,0.07498
3246.83126,0.07492
3244.77108,0.07518
3242.71091,0.07549
3240.65074,0.07554
3238.59057,0.07540
3236.53040,0.07528
3234.47022,0.07520
3232.41005,0.07517
3230.34988,0.07503
3228.28971,0.07470
3226.22954,0.07449
3224.16936,0.07448
3222.10919,0.07453
3220.04902,0.07472
3217.98885,0.07507
3215.92867,0.07532
3213.86850,0.07514
3211.80833,0.07460
3209.74816,0.07411
3207.68799,0.07395
3205.62781,0.07404
3203.56764,0.07406
3201.50747,0.07387
3199.44730,0.07371
3197.38713,0.07382
3195.32695,0.07399
3193.26678,0.07383
3191.20661,0.07329
3189.14644,0.07271
3187.08626,0.07235
3185.02609,0.07222
3182.96592,0.07252
3180.90575,0.07296
3178.84558,0.07291
3176.78540,0.07261
3174.72523,0.07245
3172.66506,0.07219
3170.60489,0.07182
3168.54472,0.07152
3166.48454,0.07124
3164.42437,0.07108
3162.36420,0.07084
3160.30403,0.07041
3158.24386,0.07025
3156.18368,0.07030
3154.12351,0.07015
3152.06334,0.06998
3150.00317,0.06992
3147.94299,0.06964
3145.88282,0.06906
3143.82265,0.06867
3141.76248,0.06862
3139.70231,0.06857
3137.64213,0.06842
3135.58196,0.06812
3133.52179,0.06776
3131.46162,0.06755
3129.40145,0.06731
3127.34127,0.06707
3125.28110,0.06694
3123.22093,0.06676
3121.16076,0.06642
3119.10058,0.06603
3117.04041,0.06587
3114.98024,0.06591
3112.92007,0.06568
3110.85990,0.06511
3108.79972,0.06468
3106.73955,0.06451
3104.67938,0.06422
3102.61921,0.06372
3100.55904,0.06322
3098.49886,0.06281
3096.43869,0.06262
3094.37852,0.06254
3092.31835,0.06233
3090.25818,0.06205
3088.19800,0.06181
3086.13783,0.06153
3084.07766,0.06115
3082.01749,0.06082
3079.95731,0.06053
3077.89714,0.06012
3075.83697,0.05971
3073.77680,0.05947
3071.71663,0.05927
3069.65645,0.05891
3067.59628,0.05852
3065.53611,0.05813
3063.47594,0.05784
3061.41577,0.05772
3059.35559,0.05746
3057.29542,0.05699
3055.23525,0.05659
3053.17508,0.05626
3051.11491,0.05576
3049.05473,0.05525
3046.99456,0.05490
3044.93439,0.05461
3042.87422,0.05436
3040.81404,0.05427
3038.75387,0.05422
3036.69370,0.05396
3034.63353,0.05341
3032.57336,0.05286
3030.51318,0.05259
3028.45301,0.05230
3026.39284,0.05192
3024.33267,0.05161
3022.27250,0.05129
3020.21232,0.05094
3018.15215,0.05058
3016.09198,0.05020
3014.03181,0.04997
3011.97163,0.04969
3009.91146,0.04924
3007.85129,0.04889
3005.79112,0.04861
3003.73095,0.04830
3001.67077,0.04815
2999.61060,0.04803
2997.55043,0.04765
2995.49026,0.04719
2993.43009,0.04691
2991.36991,0.04664
2989.30974,0.04626
2987.24957,0.04581
2985.18940,0.04538
2983.12923,0.04512
2981.06905,0.04494
2979.00888,0.04481
2976.94871,0.04477
2974.88854,0.04476
2972.82836,0.04470
2970.76819,0.04453
2968.70802,0.04436
2966.64785,0.04428
2964.58768,0.04425
2962.52750,0.04431
2960.46733,0.04448
2958.40716,0.04460
2956.34699,0.04463
2954.28682,0.04448
2952.22664,0.04406
2950.16647,0.04378
2948.10630,0.04385
2946.04613,0.04390
2943.98596,0.04389
2941.92578,0.04413
2939.86561,0.04435
2937.80544,0.04424
2935.74527,0.04411
2933.68509,0.04390
2931.62492,0.04352
2929.56475,0.04326
2927.50458,0.04321
2925.44441,0.04317
2923.38423,0.04308
2921.32406,0.04297
2919.26389,0.04278
2917.20372,0.04247
2915.14355,0.04207
2913.08337,0.04183
2911.02320,0.04179
2908.96303,0.04179
2906.90286,0.04173
2904.84268,0.04148
2902.78251,0.04107
2900.72234,0.04083
2898.66217,0.04082
2896.60200,0.04084
2894.54182,0.04073
2892.48165,0.04061
2890.42148,0.04058
2888.36131,0.04054
2886.30114,0.04026
2884.24096,0.03971
2882.18079,0.03936
2880.12062,0.03941
2878.06045,0.03949
2876.00028,0.03939
2873.94010,0.03916
2871.87993,0.03882
2869.81976,0.03861
2867.75959,0.03864
2865.69941,0.03857
2863.63924,0.03824
2861.57907,0.03788
2859.51890,0.03763
2857.45873,0.03738
2855.39855,0.03716
2853.33838,0.03698
2851.27821,0.03677
2849.21804,0.03650
2847.15787,0.03625
2845.09769,0.03608
2843.03752,0.03586
2840.97735,0.03549
2838.91718,0.03510
2836.85700,0.03497
2834.79683,0.03505
2832.73666,0.03503
2830.67649,0.03488
2828.61632,0.03471
2826.55614,0.03449
2824.49597,0.03421
2822.43580,0.03393
2820.37563,0.03349
2818.31546,0.03296
2816.25528,0.03261
2814.19511,0.03251
2812.13494,0.03249
2810.07477,0.03240
2808.01460,0.03221
2805.95442,0.03196
2803.89425,0.03178
2801.83408,0.03180
2799.77391,0.03188
2797.71373,0.03179
2795.65356,0.03144
2793.59339,0.03103
2791.53322,0.03079
2789.47305,0.03079
2787.41287,0.03079
2785.35270,0.03066
2783.29253,0.03044
2781.23236,0.03018
2779.17219,0.02998
2777.11201,0.02994
2775.05184,0.02982
2772.99167,0.02953
2770.93150,0.02928
2768.87133,0.02907
2766.81115,0.02891
2764.75098,0.02879
2762.69081,0.02855
2760.63064,0.02835
2758.57046,0.02830
2756.51029,0.02827
2754.45012,0.02825
2752.38995,0.02812
2750.32978,0.02775
2748.26960,0.02741
2746.20943,0.02746
2744.14926,0.02761
2742.08909,0.02752
2740.02892,0.02731
2737.96874,0.02714
2735.90857,0.02699
2733.84840,0.02688
2731.78823,0.02671
2729.72805,0.02646
2727.66788,0.02621
2725.60771,0.02602
2723.54754,0.02604
2721.48737,0.02606
2719.42719,0.02590
2717.36702,0.02577
2715.30685,0.02576
2713.24668,0.02569
2711.18651,0.02546
2709.12633,0.02506
2707.06616,0.02471
2705.00599,0.02458
2702.94582,0.02434
2700.88565,0.02390
2698.82547,0.02361
2696.76530,0.02357
2694.70513,0.02351
2692.64496,0.02344
2690.58478,0.02344
2688.52461,0.02336
2686.46444,0.02327
2684.40427,0.02323
2682.34410,0.02304
2680.28392,0.02257
2678.22375,0.02197
2676.16358,0.02167
2674.10341,0.02175
2672.04324,0.02184
2669.98306,0.02173
2667.92289,0.02148
2665.86272,0.02118
2663.80255,0.02096
2661.74238,0.02070
2659.68220,0.02025
2657.62203,0.01981
2655.56186,0.01963
2653.50169,0.01971
2651.44151,0.01978
2649.38134,0.01962
2647.32117,0.01933
2645.26100,0.01912
2643.20083,0.01910
2641.14065,0.01917
2639.08048,0.01905
2637.02031,0.01878
2634.96014,0.01863
2632.89997,0.01855
2630.83979,0.01836
2628.77962,0.01792
2626.71945,0.01742
2624.65928,0.01704
2622.59910,0.01677
2620.53893,0.01669
2618.47876,0.01664
2616.41859,0.01652
2614.35842,0.01649
2612.29824,0.01649
2610.23807,0.01644
2608.17790,0.01629
2606.11773,0.01589
2604.05756,0.01550
2601.99738,0.01568
2599.93721,0.01600
2597.87704,0.01590
2595.81687,0.01565
2593.75670,0.01548
2591.69652,0.01534
2589.63635,0.01518
2587.57618,0.01505
2585.51601,0.01493
2583.45583,0.01467
2581.39566,0.01440
2579.33549,0.01427
2577.27532,0.01433
2575.21515,0.01463
2573.15497,0.01488
2571.09480,0.01460
2569.03463,0.01406
2566.97446,0.01396
2564.91429,0.01404
2562.85411,0.01389
2560.79394,0.01383
2558.73377,0.01399
2556.67360,0.01408
2554.61342,0.01398
2552.55325,0.01393
2550.49308,0.01397
2548.43291,0.01401
2546.37274,0.01393
2544.31256,0.01371
2542.25239,0.01367
2540.19222,0.01375
2538.13205,0.01358
2536.07188,0.01324
2534.01170,0.01338
2531.95153,0.01400
2529.89136,0.01454
2527.83119,0.01488
2525.77102,0.01489
2523.71084,0.01448
2521.65067,0.01400
2519.59050,0.01392
2517.53033,0.01401
2515.47015,0.01396
2513.40998,0.01422
2511.34981,0.01469
2509.28964,0.01484
2507.22947,0.01470
2505.16929,0.01442
2503.10912,0.01425
2501.04895,0.01450
2498.98878,0.01485
2496.92861,0.01484
2494.86843,0.01471
2492.80826,0.01470
2490.74809,0.01463
2488.68792,0.01449
2486.62775,0.01459
2484.56757,0.01489
2482.50740,0.01511
2480.44723,0.01525
2478.38706,0.01535
2476.32688,0.01543
2474.26671,0.01540
2472.20654,0.01519
2470.14637,0.01506
2468.08620,0.01527
2466.02602,0.01537
2463.96585,0.01515
2461.90568,0.01517
2459.84551,0.01532
2457.78534,0.01527
2455.72516,0.01518
2453.66499,0.01508
2451.60482,0.01521
2449.54465,0.01562
2447.48447,0.01563
2445.42430,0.01526
2443.36413,0.01494
2441.30396,0.01470
2439.24379,0.01473
2437.18361,0.01514
2435.12344,0.01530
2433.06327,0.01515
2431.00310,0.01521
2428.94293,0.01520
2426.88275,0.01494
2424.82258,0.01486
2422.76241,0.01501
2420.70224,0.01533
2418.64207,0.01565
2416.58189,0.01569
2414.52172,0.01538
2412.46155,0.01496
2410.40138,0.01475
2408.34120,0.01481
2406.28103,0.01517
2404.22086,0.01549
2402.16069,0.01525
2400.10052,0.01482
2398.04034,0.01482
2395.98017,0.01500
2393.92000,0.01510
2391.85983,0.01504
2389.79966,0.01489
2387.73948,0.01485
2385.67931,0.01498
2383.61914,0.01519
2381.55897,0.01531
2379.49880,0.01540
2377.43862,0.01557
2375.37845,0.01609
2373.31828,0.01646
2371.25811,0.01598
2369.19793,0.01435
2367.13776,0.01077
2365.07759,0.00702
2363.01742,0.00734
2360.95725,0.00864
2358.89707,0.00956
2356.83690,0.01056
2354.77673,0.01202
2352.71656,0.01301
2350.65639,0.01130
2348.59621,0.01083
2346.53604,0.01467
2344.47587,0.01461
2342.41570,0.01237
2340.35552,0.01123
2338.29535,0.01112
2336.23518,0.01200
2334.17501,0.01295
2332.11484,0.01314
2330.05466,0.01204
2327.99449,0.01159
2325.93432,0.01187
2323.87415,0.01324
2321.81398,0.01447
2319.75380,0.01545
2317.69363,0.01538
2315.63346,0.01510
2313.57329,0.01481
2311.51312,0.01444
2309.45294,0.01419
2307.39277,0.01405
2305.33260,0.01390
2303.27243,0.01366
2301.21225,0.01338
2299.15208,0.01296
2297.09191,0.01297
2295.03174,0.01343
2292.97157,0.01372
2290.91139,0.01367
2288.85122,0.01346
2286.79105,0.01310
2284.73088,0.01264
2282.67071,0.01238
2280.61053,0.01230
2278.55036,0.01191
2276.49019,0.01124
2274.43002,0.01085
2272.36984,0.01086
2270.30967,0.01093
2268.24950,0.01095
2266.18933,0.01087
2264.12916,0.01054
2262.06898,0.01018
2260.00881,0.01021
2257.94864,0.01044
2255.88847,0.01039
2253.82830,0.01009
2251.76812,0.01009
2249.70795,0.01041
2247.64778,0.01040
2245.58761,0.00976
2243.52744,0.00891
2241.46726,0.00903
2239.40709,0.01000
2237.34692,0.01029
2235.28675,0.00992
2233.22657,0.00987
2231.16640,0.00975
2229.10623,0.00958
2227.04606,0.00981
2224.98589,0.00990
2222.92571,0.00959
2220.86554,0.00900
2218.80537,0.00870
2216.74520,0.00891
2214.68503,0.00907
2212.62485,0.00903
2210.56468,0.00858
2208.50451,0.00790
2206.44434,0.00726
2204.38417,0.00669
2202.32399,0.00696
2200.26382,0.00787
2198.20365,0.00811
2196.14348,0.00731
2194.08330,0.00580
2192.02313,0.00548
2189.96296,0.00680
2187.90279,0.00730
2185.84262,0.00679
2183.78244,0.00590
2181.72227,0.00513
2179.66210,0.00579
2177.60193,0.00699
2175.54176,0.00733
2173.48158,0.00694
2171.42141,0.00653
2169.36124,0.00640
2167.30107,0.00593
2165.24089,0.00475
2163.18072,0.00395
2161.12055,0.00429
2159.06038,0.00457
2157.00021,0.00381
2154.94003,0.00302
2152.87986,0.00424
2150.81969,0.00722
2148.75952,0.00866
2146.69935,0.00734
2144.63917,0.00567
2142.57900,0.00525
2140.51883,0.00550
2138.45866,0.00536
2136.39849,0.00462
2134.33831,0.00458
2132.27814,0.00555
2130.21797,0.00594
2128.15780,0.00556
2126.09762,0.00516
2124.03745,0.00503
2121.97728,0.00543
2119.91711,0.00596
2117.85694,0.00584
2115.79676,0.00547
2113.73659,0.00552
2111.67642,0.00535
2109.61625,0.00489
2107.55608,0.00490
2105.49590,0.00540
2103.43573,0.00596
2101.37556,0.00603
2099.31539,0.00550
2097.25521,0.00480
2095.19504,0.00436
2093.13487,0.00449
2091.07470,0.00427
2089.01453,0.00380
2086.95435,0.00426
2084.89418,0.00468
2082.83401,0.00396
2080.77384,0.00338
2078.71367,0.00400
2076.65349,0.00449
2074.59332,0.00381
2072.53315,0.00344
2070.47298,0.00429
2068.41281,0.00501
2066.35263,0.00451
2064.29246,0.00357
2062.23229,0.00346
2060.17212,0.00358
2058.11194,0.00268
2056.05177,0.00175
2053.99160,0.00245
2051.93143,0.00371
2049.87126,0.00381
2047.81108,0.00367
2045.75091,0.00454
2043.69074,0.00498
2041.63057,0.00419
2039.57040,0.00403
2037.51022,0.00502
2035.45005,0.00590
2033.38988,0.00563
2031.32971,0.00370
2029.26954,0.00160
2027.20936,0.00084
2025.14919,0.00112
2023.08902,0.00206
2021.02885,0.00288
2018.96867,0.00286
2016.90850,0.00232
2014.84833,0.00163
2012.78816,0.00142
2010.72799,0.00210
2008.66781,0.00296
2006.60764,0.00278
2004.54747,0.00177
2002.48730,0.00186
2000.42713,0.00293
1998.36695,0.00295
1996.30678,0.00225
1994.24661,0.00262
1992.18644,0.00327
1990.12626,0.00283
1988.06609,0.00192
1986.00592,0.00116
1983.94575,0.00144
1981.88558,0.00244
1979.82540,0.00173
1977.76523,0.00002
1975.70506,0.00027
1973.64489,0.00187
1971.58472,0.00268
1969.52454,0.00228
1967.46437,0.00132
1965.40420,0.00080
1963.34403,0.00119
1961.28386,0.00157
1959.22368,0.00118
1957.16351,0.00103
1955.10334,0.00168
1953.04317,0.00235
1950.98299,0.00253
1948.92282,0.00225
1946.86265,0.00198
1944.80248,0.00222
1942.74231,0.00266
1940.68213,0.00239
1938.62196,0.00178
1936.56179,0.00204
1934.50162,0.00266
1932.44145,0.00246
1930.38127,0.00190
1928.32110,0.00161
1926.26093,0.00150
1924.20076,0.00189
1922.14059,0.00283
1920.08041,0.00325
1918.02024,0.00279
1915.96007,0.00244
1913.89990,0.00243
1911.83972,0.00222
1909.77955,0.00174
1907.71938,0.00126
1905.65921,0.00112
1903.59904,0.00116
1901.53886,0.00095
1899.47869,0.00055
1897.41852,0.00035
1895.35835,0.00070
1893.29818,0.00143
1891.23800,0.00204
1889.17783,0.00254
1887.11766,0.00302
1885.05749,0.00311
1882.99731,0.00270
1880.93714,0.00221
1878.87697,0.00200
1876.81680,0.00204
1874.75663,0.00211
1872.69645,0.00200
1870.63628,0.00169
1868.57611,0.00151
1866.51594,0.00167
1864.45577,0.00199
1862.39559,0.00228
1860.33542,0.00245
1858.27525,0.00239
1856.21508,0.00211
1854.15491,0.00182
1852.09473,0.00163
1850.03456,0.00147
1847.97439,0.00134
1845.91422,0.00139
1843.85404,0.00164
1841.79387,0.00191
1839.73370,0.00212
1837.67353,0.00228
1835.61336,0.00234
1833.55318,0.00228
1831.49301,0.00223
1829.43284,0.00248
1827.37267,0.00304
1825.31250,0.00341
1823.25232,0.00342
1821.19215,0.00331
1819.13198,0.00312
1817.07181,0.00282
1815.01163,0.00274
1812.95146,0.00300
1810.89129,0.00319
1808.83112,0.00308
1806.77095,0.00297
1804.71077,0.00305
1802.65060,0.00311
1800.59043,0.00297
1798.53026,0.00273
1796.47009,0.00263
1794.40991,0.00273
1792.34974,0.00296
1790.28957,0.00327
1788.22940,0.00350
1786.16923,0.00354
1784.10905,0.00352
1782.04888,0.00355
1779.98871,0.00354
1777.92854,0.00346
1775.86836,0.00334
1773.80819,0.00309
1771.74802,0.00295
1769.68785,0.00325
1767.62768,0.00367
1765.56750,0.00393
1763.50733,0.00409
1761.44716,0.00430
1759.38699,0.00458
1757.32682,0.00484
1755.26664,0.00508
1753.20647,0.00532
1751.14630,0.00566
1749.08613,0.00608
1747.02596,0.00638
1744.96578,0.00646
1742.90561,0.00643
1740.84544,0.00642
1738.78527,0.00650
1736.72509,0.00660
1734.66492,0.00688
1732.60475,0.00744
1730.54458,0.00793
1728.48441,0.00814
1726.42423,0.00824
1724.36406,0.00844
1722.30389,0.00863
1720.24372,0.00851
1718.18355,0.00842
1716.12337,0.00910
1714.06320,0.01005
1712.00303,0.01061
1709.94286,0.01090
1707.88268,0.01109
1705.82251,0.01127
1703.76234,0.01154
1701.70217,0.01198
1699.64200,0.01264
1697.58182,0.01328
1695.52165,0.01380
1693.46148,0.01438
1691.40131,0.01498
1689.34114,0.01548
1687.28096,0.01568
1685.22079,0.01598
1683.16062,0.01703
1681.10045,0.01813
1679.04028,0.01862
1676.98010,0.01877
1674.91993,0.01908
1672.85976,0.01965
1670.79959,0.02026
1668.73941,0.02082
1666.67924,0.02119
1664.61907,0.02151
1662.55890,0.02213
1660.49873,0.02286
1658.43855,0.02318
1656.37838,0.02305
1654.31821,0.02291
1652.25804,0.02326
1650.19787,0.02353
1648.13769,0.02354
1646.07752,0.02381
1644.01735,0.02419
1641.95718,0.02408
1639.89701,0.02356
1637.83683,0.02308
1635.77666,0.02313
1633.71649,0.02348
1631.65632,0.02338
1629.59614,0.02288
1627.53597,0.02242
1625.47580,0.02205
1623.41563,0.02176
1621.35546,0.02171
1619.29528,0.02163
1617.23511,0.02147
1615.17494,0.02162
1613.11477,0.02183
1611.05460,0.02173
1608.99442,0.02134
1606.93425,0.02079
1604.87408,0.02019
1602.81391,0.01965
1600.75373,0.01919
1598.69356,0.01869
1596.63339,0.01807
1594.57322,0.01740
1592.51305,0.01679
1590.45287,0.01617
1588.39270,0.01543
1586.33253,0.01467
1584.27236,0.01399
1582.21219,0.01331
1580.15201,0.01261
1578.09184,0.01194
1576.03167,0.01148
1573.97150,0.01131
1571.91133,0.01098
1569.85115,0.01037
1567.79098,0.00991
1565.73081,0.00969
1563.67064,0.00942
1561.61046,0.00864
1559.55029,0.00748
1557.49012,0.00713
1555.42995,0.00750
1553.36978,0.00755
1551.30960,0.00728
1549.24943,0.00708
1547.18926,0.00679
1545.12909,0.00608
1543.06892,0.00503
1541.00874,0.00425
1538.94857,0.00436
1536.88840,0.00476
1534.82823,0.00475
1532.76805,0.00449
1530.70788,0.00430
1528.64771,0.00405
1526.58754,0.00374
1524.52737,0.00349
1522.46719,0.00327
1520.40702,0.00307
1518.34685,0.00299
1516.28668,0.00315
1514.22651,0.00339
1512.16633,0.00330
1510.10616,0.00267
1508.04599,0.00176
1505.98582,0.00145
1503.92565,0.00192
1501.86547,0.00229
1499.80530,0.00208
1497.74513,0.00163
1495.68496,0.00147
1493.62478,0.00152
1491.56461,0.00157
1489.50444,0.00164
1487.44427,0.00176
1485.38410,0.00186
1483.32392,0.00184
1481.26375,0.00175
1479.20358,0.00173
1477.14341,0.00180
1475.08324,0.00198
1473.02306,0.00235
1470.96289,0.00279
1468.90272,0.00306
1466.84255,0.00318
1464.78238,0.00341
1462.72220,0.00377
1460.66203,0.00401
1458.60186,0.00419
1456.54169,0.00454
1454.48151,0.00482
1452.42134,0.00491
1450.36117,0.00482
1448.30100,0.00468
1446.24083,0.00455
1444.18065,0.00435
1442.12048,0.00408
1440.06031,0.00383
1438.00014,0.00372
1435.93997,0.00382
1433.87979,0.00392
1431.81962,0.00394
1429.75945,0.00399
1427.69928,0.00403
1425.63910,0.00407
1423.57893,0.00423
1421.51876,0.00445
1419.45859,0.00486
1417.39842,0.00541
1415.33824,0.00564
1413.27807,0.00558
1411.21790,0.00545
1409.15773,0.00522
1407.09756,0.00482
1405.03738,0.00440
1402.97721,0.00413
1400.91704,0.00404
1398.85687,0.00411
1396.79670,0.00420
1394.73652,0.00417
1392.67635,0.00412
1390.61618,0.00426
1388.55601,0.00454
1386.49583,0.00474
1384.43566,0.00479
1382.37549,0.00488
1380.31532,0.00506
1378.25515,0.00525
1376.19497,0.00539
1374.13480,0.00548
1372.07463,0.00550
1370.01446,0.00541
1367.95429,0.00531
1365.89411,0.00527
1363.83394,0.00528
1361.77377,0.00526
1359.71360,0.00499
1357.65343,0.00455
1355.59325,0.00424
1353.53308,0.00414
1351.47291,0.00408
1349.41274,0.00399
1347.35256,0.00389
1345.29239,0.00391
1343.23222,0.00410
1341.17205,0.00439
1339.11188,0.00463
1337.05170,0.00461
1334.99153,0.00440
1332.93136,0.00417
1330.87119,0.00399
1328.81102,0.00381
1326.75084,0.00371
1324.69067,0.00360
1322.63050,0.00345
1320.57033,0.00341
1318.51015,0.00343
1316.44998,0.00333
1314.38981,0.00324
1312.32964,0.00333
1310.26947,0.00347
1308.20929,0.00349
1306.14912,0.00345
1304.08895,0.00342
1302.02878,0.00350
1299.96861,0.00361
1297.90843,0.00357
1295.84826,0.00351
1293.78809,0.00369
1291.72792,0.00397
1289.66775,0.00413
1287.60757,0.00417
1285.54740,0.00408
1283.48723,0.00390
1281.42706,0.00384
1279.36688,0.00407
1277.30671,0.00439
1275.24654,0.00448
1273.18637,0.00437
1271.12620,0.00430
1269.06602,0.00426
1267.00585,0.00421
1264.94568,0.00417
1262.88551,0.00419
1260.82534,0.00429
1258.76516,0.00434
1256.70499,0.00425
1254.64482,0.00405
1252.58465,0.00377
1250.52447,0.00361
1248.46430,0.00361
1246.40413,0.00355
1244.34396,0.00335
1242.28379,0.00315
1240.22361,0.00298
1238.16344,0.00283
1236.10327,0.00261
1234.04310,0.00232
1231.98293,0.00216
1229.92275,0.00211
1227.86258,0.00205
1225.80241,0.00197
1223.74224,0.00185
1221.68207,0.00167
1219.62189,0.00148
1217.56172,0.00128
1215.50155,0.00109
1213.44138,0.00093
1211.38120,0.00081
1209.32103,0.00057
1207.26086,0.00020
1205.20069,0.00002
1203.14052,0.00004
1201.08034,0.00003
1199.02017,0.00000
1196.96000,0.00015
1194.89983,0.00053
1192.83966,0.00096
1190.77948,0.00132
1188.71931,0.00180
1186.65914,0.00245
1184.59897,0.00303
1182.53880,0.00364
1180.47862,0.00460
1178.41845,0.00586
1176.35828,0.00727
1174.29811,0.00855
1172.23793,0.00958
1170.17776,0.01067
1168.11759,0.01199
1166.05742,0.01330
1163.99725,0.01449
1161.93707,0.01561
1159.87690,0.01659
1157.81673,0.01734
1155.75656,0.01809
1153.69639,0.01907
1151.63621,0.02010
1149.57604,0.02118
1147.51587,0.02248
1145.45570,0.02392
1143.39552,0.02538
1141.33535,0.02689
1139.27518,0.02842
1137.21501,0.02985
1135.15484,0.03118
1133.09466,0.03262
1131.03449,0.03405
1128.97432,0.03525
1126.91415,0.03651
1124.85398,0.03815
1122.79380,0.03984
1120.73363,0.04119
1118.67346,0.04248
1116.61329,0.04408
1114.55312,0.04583
1112.49294,0.04745
1110.43277,0.04905
1108.37260,0.05081
1106.31243,0.05280
1104.25225,0.05494
1102.19208,0.05704
1100.13191,0.05920
1098.07174,0.06149
1096.01157,0.06364
1093.95139,0.06559
1091.89122,0.06730
1089.83105,0.06896
1087.77088,0.07078
1085.71071,0.07263
1083.65053,0.07439
1081.59036,0.07616
1079.53019,0.07796
1077.47002,0.07974
1075.40985,0.08142
1073.34967,0.08281
1071.28950,0.08387
1069.22933,0.08467
1067.16916,0.08521
1065.10898,0.08556
1063.04881,0.08585
1060.98864,0.08616
1058.92847,0.08641
1056.86830,0.08645
1054.80812,0.08616
1052.74795,0.08573
1050.68778,0.08533
1048.62761,0.08477
1046.56744,0.08374
1044.50726,0.08232
1042.44709,0.08084
1040.38692,0.07937
1038.32675,0.07792
1036.26657,0.07643
1034.20640,0.07466
1032.14623,0.07277
1030.08606,0.07117
1028.02589,0.06966
1025.96571,0.06801
1023.90554,0.06655
1021.84537,0.06540
1019.78520,0.06415
1017.72503,0.06266
1015.66485,0.06119
1013.60468,0.05979
1011.54451,0.05856
1009.48434,0.05768
1007.42417,0.05699
1005.36399,0.05623
1003.30382,0.05542
1001.24365,0.05492
999.18348,0.05517
997.12330,0.05588
995.06313,0.05666
993.00296,0.05770
990.94279,0.05895
988.88262,0.06006
986.82244,0.06092
984.76227,0.06148
982.70210,0.06153
980.64193,0.06107
978.58176,0.06025
976.52158,0.05892
974.46141,0.05715
972.40124,0.05520
970.34107,0.05306
968.28089,0.05072
966.22072,0.04815
964.16055,0.04562
962.10038,0.04343
960.04021,0.04154
957.98003,0.03988
955.91986,0.03853
953.85969,0.03743
951.79952,0.03644
949.73935,0.03569
947.67917,0.03505
945.61900,0.03429
943.55883,0.03368
941.49866,0.03345
939.43849,0.03331
937.37831,0.03323
935.31814,0.03343
933.25797,0.03343
931.19780,0.03301
929.13762,0.03254
927.07745,0.03227
925.01728,0.03209
922.95711,0.03146
920.89694,0.03026
918.83676,0.02911
916.77659,0.02832
914.71642,0.02766
912.65625,0.02683
910.59608,0.02581
908.53590,0.02496
906.47573,0.02460
904.41556,0.02460
902.35539,0.02450
900.29522,0.02407
898.23504,0.02353
896.17487,0.02319
894.11470,0.02308
892.05453,0.02317
889.99435,0.02333
887.93418,0.02344
885.87401,0.02369
883.81384,0.02408
881.75367,0.02456
879.69349,0.02519
877.63332,0.02577
875.57315,0.02610
873.51298,0.02656
871.45281,0.02738
869.39263,0.02808
867.33246,0.02831
865.27229,0.02858
863.21212,0.02887
861.15194,0.02837
859.09177,0.02744
857.03160,0.02703
854.97143,0.02692
852.91126,0.02640
850.85108,0.02544
848.79091,0.02460
846.73074,0.02392
844.67057,0.02309
842.61040,0.02232
840.55022,0.02168
838.49005,0.02066
836.42988,0.01948
834.36971,0.01854
832.30954,0.01762
830.24936,0.01696
828.18919,0.01673
826.12902,0.01631
824.06885,0.01562
822.00867,0.01504
819.94850,0.01433
817.88833,0.01331
815.82816,0.01264
813.76799,0.01248
811.70781,0.01209
809.64764,0.01154
807.58747,0.01110
805.52730,0.01058
803.46713,0.01008
801.40695,0.00978
799.34678,0.00929
797.28661,0.00850
795.22644,0.00798
793.16627,0.00778
791.10609,0.00756
789.04592,0.00739
786.98575,0.00758
784.92558,0.00799
782.86540,0.00805
780.80523,0.00766
778.74506,0.00699
776.68489,0.00637
774.62472,0.00614
772.56454,0.00615
770.50437,0.00638
768.44420,0.00702
766.38403,0.00784
764.32386,0.00806
762.26368,0.00732
760.20351,0.00618
758.14334,0.00498
756.08317,0.00420
754.02299,0.00434
751.96282,0.00489
749.90265,0.00499
747.84248,0.00464
745.78231,0.00406
743.72213,0.00316
741.66196,0.00289
739.60179,0.00368
737.54162,0.00429
735.48145,0.00387
733.42127,0.00286
731.36110,0.00238
729.30093,0.00288
727.24076,0.00351
725.18059,0.00365
723.12041,0.00330
721.06024,0.00353
719.00007,0.00365
716.93990,0.00417
714.87972,0.00487
712.81955,0.00498
710.75938,0.00452
708.69921,0.00372
706.63904,0.00309
704.57886,0.00327
702.51869,0.00410
700.45852,0.00438
698.39835,0.00359
696.33818,0.00264
694.27800,0.00212
692.21783,0.00202
690.15766,0.00258
688.09749,0.00328
686.03731,0.00289
683.97714,0.00162
681.91697,0.00104
679.85680,0.00163
677.79663,0.00227
675.73645,0.00213
673.67628,0.00122
671.61611,0.00111
669.55594,0.00683
667.49577,0.01018
665.43559,0.00236
663.37542,0.00069
661.31525,0.00064
659.25508,0.00041
657.19491,0.00052
655.13473,0.00056
653.07456,0.00050
651.01439,0.00089
648.95422,0.00258
646.89404,0.00507
644.83387,0.00639
642.77370,0.00493
640.71353,0.00276
638.65336,0.00241
636.59318,0.00369
634.53301,0.00474
632.47284,0.00449
630.41267,0.00386
628.35250,0.00431
626.29232,0.00550
624.23215,0.00510
622.17198,0.00237
620.11181,0.00000
618.05164,0.00039
615.99146,0.00234
613.93129,0.00310
611.87112,0.00357
609.81095,0.00555
607.75077,0.00681
605.69060,0.00603
603.63043,0.00458
601.57026,0.00254
599.51009,0.00000
