3996.73391,0.00097
3994.67373,0.00083
3992.61356,0.00052
3990.55339,0.00019
3988.49322,0.00000
3986.43305,0.00013
3984.37287,0.00047
3982.31270,0.00070
3980.25253,0.00082
3978.19236,0.00091
3976.13219,0.00089
3974.07201,0.00073
3972.01184,0.00065
3969.95167,0.00082
3967.89150,0.00088
3965.83133,0.00076
3963.77115,0.00090
3961.71098,0.00129
3959.65081,0.00133
3957.59064,0.00098
3955.53046,0.00070
3953.47029,0.00049
3951.41012,0.00028
3949.34995,0.00034
3947.28978,0.00061
3945.22960,0.00076
3943.16943,0.00094
3941.10926,0.00135
3939.04909,0.00173
3936.98892,0.00171
3934.92874,0.00135
3932.86857,0.00122
3930.80840,0.00134
3928.74823,0.00115
3926.68805,0.00074
3924.62788,0.00063
3922.56771,0.00082
3920.50754,0.00096
3918.44737,0.00100
3916.38719,0.00092
3914.32702,0.00073
3912.26685,0.00065
3910.20668,0.00068
3908.14651,0.00063
3906.08633,0.00054
3904.02616,0.00066
3901.96599,0.00090
3899.90582,0.00100
3897.84565,0.00099
3895.78547,0.00079
3893.72530,0.00034
3891.66513,0.00003
3889.60496,0.00027
3887.54478,0.00108
3885.48461,0.00188
3883.42444,0.00199
3881.36427,0.00171
3879.30410,0.00169
3877.24392,0.00172
3875.18375,0.00141
3873.12358,0.00106
3871.06341,0.00107
3869.00324,0.00124
3866.94306,0.00101
3864.88289,0.00072
3862.82272,0.00098
3860.76255,0.00133
3858.70237,0.00128
3856.64220,0.00119
3854.58203,0.00154
3852.52186,0.00212
3850.46169,0.00207
3848.40151,0.00162
3846.34134,0.00118
3844.28117,0.00078
3842.22100,0.00067
3840.16083,0.00104
3838.10065,0.00158
3836.04048,0.00192
3833.98031,0.00179
3831.92014,0.00134
3829.85997,0.00105
3827.79979,0.00118
3825.73962,0.00143
3823.67945,0.00125
3821.61928,0.00073
3819.55910,0.00040
3817.49893,0.00038
3815.43876,0.00079
3813.37859,0.00139
3811.31842,0.00154
3809.25824,0.00119
3807.19807,0.00100
3805.13790,0.00124
3803.07773,0.00161
3801.01756,0.00197
3798.95738,0.00192
3796.89721,0.00136
3794.83704,0.00083
3792.77687,0.00062
3790.71670,0.00064
3788.65652,0.00085
3786.59635,0.00112
3784.53618,0.00140
3782.47601,0.00167
3780.41583,0.00166
3778.35566,0.00128
3776.29549,0.00087
3774.23532,0.00069
3772.17515,0.00071
3770.11497,0.00095
3768.05480,0.00125
3765.99463,0.00125
3763.93446,0.00080
3761.87429,0.00037
3759.81411,0.00060
3757.75394,0.00133
3755.69377,0.00160
3753.63360,0.00099
3751.57342,0.00025
3749.51325,0.00064
3747.45308,0.00198
3745.39291,0.00313
3743.33274,0.00308
3741.27256,0.00220
3739.21239,0.00181
3737.15222,0.00224
3735.09205,0.00256
3733.03188,0.00203
3730.97170,0.00157
3728.91153,0.00162
3726.85136,0.00184
3724.79119,0.00212
3722.73102,0.00237
3720.67084,0.00246
3718.61067,0.00236
3716.55050,0.00192
3714.49033,0.00130
3712.43015,0.00122
3710.36998,0.00198
3708.30981,0.00275
3706.24964,0.00297
3704.18947,0.00285
3702.12929,0.00278
3700.06912,0.00281
3698.00895,0.00272
3695.94878,0.00262
3693.88861,0.00254
3691.82843,0.00230
3689.76826,0.00232
3687.70809,0.00277
3685.64792,0.00280
3683.58775,0.00233
3681.52757,0.00199
3679.46740,0.00200
3677.40723,0.00209
3675.34706,0.00223
3673.28688,0.00278
3671.22671,0.00362
3669.16654,0.00445
3667.10637,0.00492
3665.04620,0.00507
3662.98602,0.00520
3660.92585,0.00541
3658.86568,0.00557
3656.80551,0.00576
3654.74534,0.00597
3652.68516,0.00603
3650.62499,0.00682
3648.56482,0.00881
3646.50465,0.01010
3644.44447,0.01018
3642.38430,0.01009
3640.32413,0.01062
3638.26396,0.01171
3636.20379,0.01264
3634.14361,0.01304
3632.08344,0.01307
3630.02327,0.01335
3627.96310,0.01463
3625.90293,0.01625
3623.84275,0.01710
3621.78258,0.01725
3619.72241,0.01746
3617.66224,0.01824
3615.60207,0.01941
3613.54189,0.02067
3611.48172,0.02190
3609.42155,0.02294
3607.36138,0.02366
3605.30120,0.02419
3603.24103,0.02483
3601.18086,0.02548
3599.12069,0.02598
3597.06052,0.02654
3595.00034,0.02754
3592.94017,0.02886
3590.88000,0.03005
3588.81983,0.03107
3586.75966,0.03199
3584.69948,0.03267
3582.63931,0.03335
3580.57914,0.03426
3578.51897,0.03528
3576.45879,0.03624
3574.39862,0.03694
3572.33845,0.03739
3570.27828,0.03800
3568.21811,0.03914
3566.15793,0.04045
3564.09776,0.04113
3562.03759,0.04152
3559.97742,0.04215
3557.91725,0.04293
3555.85707,0.04374
3553.79690,0.04461
3551.73673,0.04547
3549.67656,0.04627
3547.61639,0.04731
3545.55621,0.04864
3543.49604,0.04972
3541.43587,0.05034
3539.37570,0.05109
3537.31552,0.05219
3535.25535,0.05317
3533.19518,0.05371
3531.13501,0.05429
3529.07484,0.05543
3527.01466,0.05696
3524.95449,0.05823
3522.89432,0.05886
3520.83415,0.05905
3518.77398,0.05920
3516.71380,0.05954
3514.65363,0.06012
3512.59346,0.06099
3510.53329,0.06213
3508.47312,0.06308
3506.41294,0.06360
3504.35277,0.06421
3502.29260,0.06526
3500.23243,0.06635
3498.17225,0.06720
3496.11208,0.06802
3494.05191,0.06887
3491.99174,0.06965
3489.93157,0.07026
3487.87139,0.07064
3485.81122,0.07111
3483.75105,0.07192
3481.69088,0.07292
3479.63071,0.07382
3477.57053,0.07414
3475.51036,0.07398
3473.45019,0.07426
3471.39002,0.07527
3469.32984,0.07645
3467.26967,0.07747
3465.20950,0.07816
3463.14933,0.07869
3461.08916,0.07932
3459.02898,0.07984
3456.96881,0.08028
3454.90864,0.08090
3452.84847,0.08148
3450.78830,0.08181
3448.72812,0.08233
3446.66795,0.08315
3444.60778,0.08384
3442.54761,0.08452
3440.48744,0.08534
3438.42726,0.08604
3436.36709,0.08667
3434.30692,0.08729
3432.24675,0.08772
3430.18657,0.08796
3428.12640,0.08813
3426.06623,0.08847
3424.00606,0.08915
3421.94589,0.08989
3419.88571,0.09049
3417.82554,0.09087
3415.76537,0.09111
3413.70520,0.09137
3411.64503,0.09168
3409.58485,0.09228
3407.52468,0.09301
3405.46451,0.09343
3403.40434,0.09358
3401.34416,0.09377
3399.28399,0.09439
3397.22382,0.09506
3395.16365,0.09547
3393.10348,0.09585
3391.04330,0.09639
3388.98313,0.09684
3386.92296,0.09719
3384.86279,0.09734
3382.80262,0.09734
3380.74244,0.09747
3378.68227,0.09772
3376.62210,0.09811
3374.56193,0.09880
3372.50176,0.09953
3370.44158,0.09983
3368.38141,0.09993
3366.32124,0.10012
3364.26107,0.10023
3362.20089,0.10043
3360.14072,0.10103
3358.08055,0.10169
3356.02038,0.10192
3353.96021,0.10185
3351.90003,0.10178
3349.83986,0.10182
3347.77969,0.10187
3345.71952,0.10193
3343.65935,0.10209
3341.59917,0.10233
3339.53900,0.10239
3337.47883,0.10219
3335.41866,0.10213
3333.35849,0.10246
3331.29831,0.10282
3329.23814,0.10300
3327.17797,0.10318
3325.11780,0.10346
3323.05762,0.10377
3320.99745,0.10383
3318.93728,0.10360
3316.87711,0.10346
3314.81694,0.10354
3312.75676,0.10360
3310.69659,0.10365
3308.63642,0.10370
3306.57625,0.10368
3304.51608,0.10373
3302.45590,0.10403
3300.39573,0.10462
3298.33556,0.10510
3296.27539,0.10509
3294.21521,0.10490
3292.15504,0.10497
3290.09487,0.10507
3288.03470,0.10506
3285.97453,0.10516
3283.91435,0.10518
3281.85418,0.10508
3279.79401,0.10531
3277.73384,0.10574
3275.67367,0.10578
3273.61349,0.10544
3271.55332,0.10508
3269.49315,0.10487
3267.43298,0.10502
3265.37281,0.10547
3263.31263,0.10586
3261.25246,0.10601
3259.19229,0.10607
3257.13212,0.10619
3255.07194,0.10633
3253.01177,0.10644
3250.95160,0.10637
3248.89143,0.10596
3246.83126,0.10560
3244.77108,0.10589
3242.71091,0.10634
3240.65074,0.10618
3238.59057,0.10580
3236.53040,0.10581
3234.47022,0.10601
3232.41005,0.10594
3230.34988,0.10552
3228.28971,0.10518
3226.22954,0.10533
3224.16936,0.10578
3222.10919,0.10600
3220.04902,0.10580
3217.98885,0.10540
3215.92867,0.10517
3213.86850,0.10522
3211.80833,0.10510
3209.74816,0.10453
3207.68799,0.10409
3205.62781,0.10407
3203.56764,0.10404
3201.50747,0.10392
3199.44730,0.10367
3197.38713,0.10322
3195.32695,0.10303
3193.26678,0.10308
3191.20661,0.10296
3189.14644,0.10255
3187.08626,0.10200
3185.02609,0.10172
3182.96592,0.10181
3180.90575,0.10189
3178.84558,0.10177
3176.78540,0.10161
3174.72523,0.10153
3172.66506,0.10125
3170.60489,0.10061
3168.54472,0.09999
3166.48454,0.09958
3164.42437,0.09920
3162.36420,0.09878
3160.30403,0.09858
3158.24386,0.09866
3156.18368,0.09852
3154.12351,0.09802
3152.06334,0.09754
3150.00317,0.09713
3147.94299,0.09670
3145.88282,0.09642
3143.82265,0.09620
3141.76248,0.09576
3139.70231,0.09535
3137.64213,0.09513
3135.58196,0.09477
3133.52179,0.09428
3131.46162,0.09395
3129.40145,0.09367
3127.34127,0.09326
3125.28110,0.09278
3123.22093,0.09232
3121.16076,0.09201
3119.10058,0.09180
3117.04041,0.09156
3114.98024,0.09133
3112.92007,0.09089
3110.85990,0.09028
3108.79972,0.08988
3106.73955,0.08969
3104.67938,0.08940
3102.61921,0.08886
3100.55904,0.08827
3098.49886,0.08788
3096.43869,0.08754
3094.37852,0.08699
3092.31835,0.08646
3090.25818,0.08602
3088.19800,0.08556
3086.13783,0.08529
3084.07766,0.08511
3082.01749,0.08468
3079.95731,0.08400
3077.89714,0.08328
3075.83697,0.08286
3073.77680,0.08282
3071.71663,0.08263
3069.65645,0.08199
3067.59628,0.08129
3065.53611,0.08067
3063.47594,0.08022
3061.41577,0.08004
3059.35559,0.07984
3057.29542,0.07930
3055.23525,0.07850
3053.17508,0.07788
3051.11491,0.07759
3049.05473,0.07735
3046.99456,0.07681
3044.93439,0.07612
3042.87422,0.07574
3040.81404,0.07549
3038.75387,0.07499
3036.69370,0.07445
3034.63353,0.07387
3032.57336,0.07312
3030.51318,0.07257
3028.45301,0.07231
3026.39284,0.07198
3024.33267,0.07134
3022.27250,0.07055
3020.21232,0.06993
3018.15215,0.06953
3016.09198,0.06935
3014.03181,0.06922
3011.97163,0.06884
3009.91146,0.06828
3007.85129,0.06779
3005.79112,0.06734
3003.73095,0.06680
3001.67077,0.06636
2999.61060,0.06605
2997.55043,0.06567
2995.49026,0.06520
2993.43009,0.06492
2991.36991,0.06452
2989.30974,0.06373
2987.24957,0.06303
2985.18940,0.06265
2983.12923,0.06236
2981.06905,0.06217
2979.00888,0.06220
2976.94871,0.06235
2974.88854,0.06251
2972.82836,0.06256
2970.76819,0.06229
2968.70802,0.06204
2966.64785,0.06223
2964.58768,0.06243
2962.52750,0.06227
2960.46733,0.06211
2958.40716,0.06208
2956.34699,0.06197
2954.28682,0.06190
2952.22664,0.06197
2950.16647,0.06213
2948.10630,0.06229
2946.04613,0.06237
2943.98596,0.06232
2941.92578,0.06219
2939.86561,0.06219
2937.80544,0.06241
2935.74527,0.06255
2933.68509,0.06242
2931.62492,0.06207
2929.56475,0.06168
2927.50458,0.06149
2925.44441,0.06128
2923.38423,0.06083
2921.32406,0.06028
2919.26389,0.06003
2917.20372,0.06011
2915.14355,0.06008
2913.08337,0.05988
2911.02320,0.05974
2908.96303,0.05971
2906.90286,0.05959
2904.84268,0.05901
2902.78251,0.05839
2900.72234,0.05833
2898.66217,0.05841
2896.60200,0.05820
2894.54182,0.05785
2892.48165,0.05775
2890.42148,0.05788
2888.36131,0.05790
2886.30114,0.05784
2884.24096,0.05770
2882.18079,0.05732
2880.12062,0.05692
2878.06045,0.05663
2876.00028,0.05634
2873.94010,0.05605
2871.87993,0.05585
2869.81976,0.05577
2867.75959,0.05560
2865.69941,0.05518
2863.63924,0.05463
2861.57907,0.05418
2859.51890,0.05373
2857.45873,0.05318
2855.39855,0.05285
2853.33838,0.05278
2851.27821,0.05265
2849.21804,0.05229
2847.15787,0.05186
2845.09769,0.05157
2843.03752,0.05129
2840.97735,0.05079
2838.91718,0.05026
2836.85700,0.04996
2834.79683,0.04975
2832.73666,0.04949
2830.67649,0.04921
2828.61632,0.04900
2826.55614,0.04880
2824.49597,0.04848
2822.43580,0.04801
2820.37563,0.04756
2818.31546,0.04719
2816.25528,0.04690
2814.19511,0.04674
2812.13494,0.04656
2810.07477,0.04616
2808.01460,0.04583
2805.95442,0.04563
2803.89425,0.04545
2801.83408,0.04541
2799.77391,0.04537
2797.71373,0.04522
2795.65356,0.04506
2793.59339,0.04488
2791.53322,0.04461
2789.47305,0.04423
2787.41287,0.04391
2785.35270,0.04383
2783.29253,0.04376
2781.23236,0.04341
2779.17219,0.04296
2777.11201,0.04270
2775.05184,0.04255
2772.99167,0.04228
2770.93150,0.04195
2768.87133,0.04156
2766.81115,0.04124
2764.75098,0.04118
2762.69081,0.04116
2760.63064,0.04105
2758.57046,0.04108
2756.51029,0.04119
2754.45012,0.04107
2752.38995,0.04069
2750.32978,0.04014
2748.26960,0.03974
2746.20943,0.03967
2744.14926,0.03977
2742.08909,0.03984
2740.02892,0.03973
2737.96874,0.03944
2735.90857,0.03908
2733.84840,0.03873
2731.78823,0.03850
2729.72805,0.03844
2727.66788,0.03835
2725.60771,0.03817
2723.54754,0.03804
2721.48737,0.03788
2719.42719,0.03757
2717.36702,0.03723
2715.30685,0.03710
2713.24668,0.03704
2711.18651,0.03670
2709.12633,0.03615
2707.06616,0.03571
2705.00599,0.03549
2702.94582,0.03533
2700.88565,0.03511
2698.82547,0.03494
2696.76530,0.03484
2694.70513,0.03454
2692.64496,0.03416
2690.58478,0.03390
2688.52461,0.03370
2686.46444,0.03359
2684.40427,0.03362
2682.34410,0.03355
2680.28392,0.03314
2678.22375,0.03257
2676.16358,0.03220
2674.10341,0.03211
2672.04324,0.03204
2669.98306,0.03172
2667.92289,0.03125
2665.86272,0.03095
2663.80255,0.03076
2661.74238,0.03040
2659.68220,0.02991
2657.62203,0.02962
2655.56186,0.02947
2653.50169,0.02934
2651.44151,0.02917
2649.38134,0.02894
2647.32117,0.02861
2645.26100,0.02815
2643.20083,0.02776
2641.14065,0.02756
2639.08048,0.02735
2637.02031,0.02691
2634.96014,0.02645
2632.89997,0.02637
2630.83979,0.02628
2628.77962,0.02584
2626.71945,0.02552
2624.65928,0.02529
2622.59910,0.02481
2620.53893,0.02439
2618.47876,0.02425
2616.41859,0.02435
2614.35842,0.02437
2612.29824,0.02426
2610.23807,0.02433
2608.17790,0.02442
2606.11773,0.02406
2604.05756,0.02345
2601.99738,0.02328
2599.93721,0.02334
2597.87704,0.02316
2595.81687,0.02276
2593.75670,0.02231
2591.69652,0.02202
2589.63635,0.02202
2587.57618,0.02197
2585.51601,0.02173
2583.45583,0.02157
2581.39566,0.02145
2579.33549,0.02121
2577.27532,0.02124
2575.21515,0.02156
2573.15497,0.02161
2571.09480,0.02137
2569.03463,0.02096
2566.97446,0.02054
2564.91429,0.02024
2562.85411,0.02010
2560.79394,0.02034
2558.73377,0.02084
2556.67360,0.02114
2554.61342,0.02097
2552.55325,0.02069
2550.49308,0.02074
2548.43291,0.02082
2546.37274,0.02054
2544.31256,0.02021
2542.25239,0.02015
2540.19222,0.02030
2538.13205,0.02045
2536.07188,0.02041
2534.01170,0.02024
2531.95153,0.02038
2529.89136,0.02075
2527.83119,0.02069
2525.77102,0.02031
2523.71084,0.02017
2521.65067,0.02011
2519.59050,0.01999
2517.53033,0.02007
2515.47015,0.02045
2513.40998,0.02079
2511.34981,0.02075
2509.28964,0.02031
2507.22947,0.01977
2505.16929,0.01948
2503.10912,0.01975
2501.04895,0.02036
2498.98878,0.02070
2496.92861,0.02074
2494.86843,0.02082
2492.80826,0.02085
2490.74809,0.02064
2488.68792,0.02045
2486.62775,0.02055
2484.56757,0.02079
2482.50740,0.02100
2480.44723,0.02110
2478.38706,0.02092
2476.32688,0.02052
2474.26671,0.02018
2472.20654,0.02013
2470.14637,0.02026
2468.08620,0.02055
2466.02602,0.02083
2463.96585,0.02073
2461.90568,0.02061
2459.84551,0.02076
2457.78534,0.02072
2455.72516,0.02041
2453.66499,0.02029
2451.60482,0.02052
2449.54465,0.02081
2447.48447,0.02086
2445.42430,0.02079
2443.36413,0.02062
2441.30396,0.02017
2439.24379,0.02002
2437.18361,0.02047
2435.12344,0.02054
2433.06327,0.02026
2431.00310,0.02026
2428.94293,0.02026
2426.88275,0.02034
2424.82258,0.02071
2422.76241,0.02098
2420.70224,0.02103
2418.64207,0.02098
2416.58189,0.02082
2414.52172,0.02063
2412.46155,0.02044
2410.40138,0.02020
2408.34120,0.01996
2406.28103,0.01992
2404.22086,0.02003
2402.16069,0.01991
2400.10052,0.01963
2398.04034,0.01972
2395.98017,0.02002
2393.92000,0.02038
2391.85983,0.02043
2389.79966,0.02016
2387.73948,0.01993
2385.67931,0.02002
2383.61914,0.02032
2381.55897,0.02062
2379.49880,0.02106
2377.43862,0.02175
2375.37845,0.02235
2373.31828,0.02265
2371.25811,0.02248
2369.19793,0.02098
2367.13776,0.01790
2365.07759,0.01579
2363.01742,0.01653
2360.95725,0.01700
2358.89707,0.01579
2356.83690,0.01568
2354.77673,0.01757
2352.71656,0.01986
2350.65639,0.02101
2348.59621,0.02122
2346.53604,0.02116
2344.47587,0.02074
2342.41570,0.01983
2340.35552,0.01850
2338.29535,0.01726
2336.23518,0.01749
2334.17501,0.01942
2332.11484,0.02100
2330.05466,0.02039
2327.99449,0.01885
2325.93432,0.01860
2323.87415,0.01970
2321.81398,0.02066
2319.75380,0.02083
2317.69363,0.02082
2315.63346,0.02056
2313.57329,0.01988
2311.51312,0.01936
2309.45294,0.01948
2307.39277,0.01979
2305.33260,0.01974
2303.27243,0.01936
2301.21225,0.01867
2299.15208,0.01787
2297.09191,0.01748
2295.03174,0.01735
2292.97157,0.01714
2290.91139,0.01716
2288.85122,0.01751
2286.79105,0.01771
2284.73088,0.01758
2282.67071,0.01741
2280.61053,0.01724
2278.55036,0.01670
2276.49019,0.01575
2274.43002,0.01490
2272.36984,0.01457
2270.30967,0.01479
2268.24950,0.01517
2266.18933,0.01507
2264.12916,0.01440
2262.06898,0.01378
2260.00881,0.01353
2257.94864,0.01362
2255.88847,0.01390
2253.82830,0.01393
2251.76812,0.01371
2249.70795,0.01386
2247.64778,0.01402
2245.58761,0.01325
2243.52744,0.01202
2241.46726,0.01158
2239.40709,0.01189
2237.34692,0.01210
2235.28675,0.01216
2233.22657,0.01273
2231.16640,0.01317
2229.10623,0.01260
2227.04606,0.01191
2224.98589,0.01191
2222.92571,0.01217
2220.86554,0.01223
2218.80537,0.01203
2216.74520,0.01151
2214.68503,0.01092
2212.62485,0.01055
2210.56468,0.01006
2208.50451,0.00902
2206.44434,0.00777
2204.38417,0.00727
2202.32399,0.00781
2200.26382,0.00877
2198.20365,0.00971
2196.14348,0.01014
2194.08330,0.00968
2192.02313,0.00867
2189.96296,0.00781
2187.90279,0.00816
2185.84262,0.00942
2183.78244,0.00922
2181.72227,0.00789
2179.66210,0.00837
2177.60193,0.00924
2175.54176,0.00848
2173.48158,0.00811
2171.42141,0.00875
2169.36124,0.00917
2167.30107,0.00921
2165.24089,0.00907
2163.18072,0.00863
2161.12055,0.00784
2159.06038,0.00713
2157.00021,0.00676
2154.94003,0.00687
2152.87986,0.00717
2150.81969,0.00691
2148.75952,0.00580
2146.69935,0.00481
2144.63917,0.00503
2142.57900,0.00568
2140.51883,0.00594
2138.45866,0.00630
2136.39849,0.00631
2134.33831,0.00594
2132.27814,0.00614
2130.21797,0.00676
2128.15780,0.00730
2126.09762,0.00742
2124.03745,0.00709
2121.97728,0.00712
2119.91711,0.00748
2117.85694,0.00716
2115.79676,0.00683
2113.73659,0.00736
2111.67642,0.00766
2109.61625,0.00759
2107.55608,0.00802
2105.49590,0.00863
2103.43573,0.00894
2101.37556,0.00890
2099.31539,0.00835
2097.25521,0.00735
2095.19504,0.00644
2093.13487,0.00637
2091.07470,0.00650
2089.01453,0.00644
2086.95435,0.00691
2084.89418,0.00736
2082.83401,0.00675
2080.77384,0.00555
2078.71367,0.00493
2076.65349,0.00499
2074.59332,0.00506
2072.53315,0.00536
2070.47298,0.00587
2068.41281,0.00572
2066.35263,0.00500
2064.29246,0.00455
2062.23229,0.00454
2060.17212,0.00427
2058.11194,0.00387
2056.05177,0.00446
2053.99160,0.00580
2051.93143,0.00628
2049.87126,0.00524
2047.81108,0.00413
2045.75091,0.00422
2043.69074,0.00468
2041.63057,0.00454
2039.57040,0.00371
2037.51022,0.00257
2035.45005,0.00158
2033.38988,0.00075
2031.32971,0.00055
2029.26954,0.00192
2027.20936,0.00359
2025.14919,0.00354
2023.08902,0.00269
2021.02885,0.00272
2018.96867,0.00316
2016.90850,0.00305
2014.84833,0.00252
2012.78816,0.00156
2010.72799,0.00088
2008.66781,0.00175
2006.60764,0.00262
2004.54747,0.00207
2002.48730,0.00192
2000.42713,0.00330
1998.36695,0.00434
1996.30678,0.00406
1994.24661,0.00407
1992.18644,0.00443
1990.12626,0.00409
1988.06609,0.00352
1986.00592,0.00307
1983.94575,0.00317
1981.88558,0.00364
1979.82540,0.00278
1977.76523,0.00178
1975.70506,0.00301
1973.64489,0.00439
1971.58472,0.00398
1969.52454,0.00273
1967.46437,0.00120
1965.40420,0.00056
1963.34403,0.00156
1961.28386,0.00232
1959.22368,0.00205
1957.16351,0.00211
1955.10334,0.00257
1953.04317,0.00266
1950.98299,0.00246
1948.92282,0.00217
1946.86265,0.00181
1944.80248,0.00182
1942.74231,0.00239
1940.68213,0.00299
1938.62196,0.00343
1936.56179,0.00379
1934.50162,0.00392
1932.44145,0.00379
1930.38127,0.00340
1928.32110,0.00267
1926.26093,0.00214
1924.20076,0.00254
1922.14059,0.00364
1920.08041,0.00415
1918.02024,0.00351
1915.96007,0.00260
1913.89990,0.00218
1911.83972,0.00202
1909.77955,0.00199
1907.71938,0.00210
1905.65921,0.00229
1903.59904,0.00241
1901.53886,0.00211
1899.47869,0.00152
1897.41852,0.00136
1895.35835,0.00209
1893.29818,0.00333
1891.23800,0.00418
1889.17783,0.00423
1887.11766,0.00380
1885.05749,0.00328
1882.99731,0.00286
1880.93714,0.00266
1878.87697,0.00268
1876.81680,0.00274
1874.75663,0.00279
1872.69645,0.00275
1870.63628,0.00236
1868.57611,0.00194
1866.51594,0.00212
1864.45577,0.00265
1862.39559,0.00298
1860.33542,0.00299
1858.27525,0.00280
1856.21508,0.00259
1854.15491,0.00238
1852.09473,0.00213
1850.03456,0.00191
1847.97439,0.00182
1845.91422,0.00196
1843.85404,0.00230
1841.79387,0.00272
1839.73370,0.00302
1837.67353,0.00314
1835.61336,0.00310
1833.55318,0.00287
1831.49301,0.00257
1829.43284,0.00258
1827.37267,0.00295
1825.31250,0.00329
1823.25232,0.00337
1821.19215,0.00340
1819.13198,0.00358
1817.07181,0.00369
1815.01163,0.00357
1812.95146,0.00349
1810.89129,0.00352
1808.83112,0.00348
1806.77095,0.00343
1804.71077,0.00346
1802.65060,0.00349
1800.59043,0.00355
1798.53026,0.00353
1796.47009,0.00324
1794.40991,0.00293
1792.34974,0.00306
1790.28957,0.00356
1788.22940,0.00395
1786.16923,0.00406
1784.10905,0.00409
1782.04888,0.00411
1779.98871,0.00418
1777.92854,0.00432
1775.86836,0.00432
1773.80819,0.00396
1771.74802,0.00366
1769.68785,0.00392
1767.62768,0.00447
1765.56750,0.00492
1763.50733,0.00514
1761.44716,0.00528
1759.38699,0.00573
1757.32682,0.00652
1755.26664,0.00718
1753.20647,0.00744
1751.14630,0.00780
1749.08613,0.00855
1747.02596,0.00921
1744.96578,0.00955
1742.90561,0.00983
1740.84544,0.01017
1738.78527,0.01032
1736.72509,0.01027
1734.66492,0.01058
1732.60475,0.01145
1730.54458,0.01212
1728.48441,0.01240
1726.42423,0.01254
1724.36406,0.01279
1722.30389,0.01300
1720.24372,0.01294
1718.18355,0.01315
1716.12337,0.01417
1714.06320,0.01510
1712.00303,0.01544
1709.94286,0.01553
1707.88268,0.01581
1705.82251,0.01643
1703.76234,0.01713
1701.70217,0.01767
1699.64200,0.01821
1697.58182,0.01889
1695.52165,0.01990
1693.46148,0.02100
1691.40131,0.02172
1689.34114,0.02203
1687.28096,0.02217
1685.22079,0.02278
1683.16062,0.02429
1681.10045,0.02563
1679.04028,0.02625
1676.98010,0.02654
1674.91993,0.02708
1672.85976,0.02790
1670.79959,0.02877
1668.73941,0.02979
1666.67924,0.03061
1664.61907,0.03127
1662.55890,0.03221
1660.49873,0.03314
1658.43855,0.03354
1656.37838,0.03362
1654.31821,0.03407
1652.25804,0.03509
1650.19787,0.03544
1648.13769,0.03542
1646.07752,0.03598
1644.01735,0.03655
1641.95718,0.03645
1639.89701,0.03592
1637.83683,0.03542
1635.77666,0.03544
1633.71649,0.03576
1631.65632,0.03574
1629.59614,0.03546
1627.53597,0.03523
1625.47580,0.03500
1623.41563,0.03493
1621.35546,0.03519
1619.29528,0.03540
1617.23511,0.03542
1615.17494,0.03567
1613.11477,0.03594
1611.05460,0.03585
1608.99442,0.03544
1606.93425,0.03477
1604.87408,0.03388
1602.81391,0.03294
1600.75373,0.03213
1598.69356,0.03130
1596.63339,0.03033
1594.57322,0.02932
1592.51305,0.02818
1590.45287,0.02679
1588.39270,0.02532
1586.33253,0.02408
1584.27236,0.02301
1582.21219,0.02185
1580.15201,0.02054
1578.09184,0.01929
1576.03167,0.01844
1573.97150,0.01794
1571.91133,0.01720
1569.85115,0.01612
1567.79098,0.01528
1565.73081,0.01487
1563.67064,0.01445
1561.61046,0.01361
1559.55029,0.01250
1557.49012,0.01202
1555.42995,0.01196
1553.36978,0.01151
1551.30960,0.01080
1549.24943,0.01024
1547.18926,0.00983
1545.12909,0.00931
1543.06892,0.00847
1541.00874,0.00747
1538.94857,0.00703
1536.88840,0.00691
1534.82823,0.00659
1532.76805,0.00627
1530.70788,0.00611
1528.64771,0.00584
1526.58754,0.00534
1524.52737,0.00469
1522.46719,0.00421
1520.40702,0.00418
1518.34685,0.00429
1516.28668,0.00437
1514.22651,0.00441
1512.16633,0.00416
1510.10616,0.00354
1508.04599,0.00286
1505.98582,0.00272
1503.92565,0.00291
1501.86547,0.00283
1499.80530,0.00249
1497.74513,0.00224
1495.68496,0.00218
1493.62478,0.00212
1491.56461,0.00206
1489.50444,0.00218
1487.44427,0.00246
1485.38410,0.00263
1483.32392,0.00261
1481.26375,0.00267
1479.20358,0.00296
1477.14341,0.00341
1475.08324,0.00402
1473.02306,0.00485
1470.96289,0.00559
1468.90272,0.00597
1466.84255,0.00627
1464.78238,0.00672
1462.72220,0.00723
1460.66203,0.00768
1458.60186,0.00830
1456.54169,0.00915
1454.48151,0.00954
1452.42134,0.00949
1450.36117,0.00940
1448.30100,0.00937
1446.24083,0.00931
1444.18065,0.00918
1442.12048,0.00899
1440.06031,0.00870
1438.00014,0.00851
1435.93997,0.00872
1433.87979,0.00898
1431.81962,0.00902
1429.75945,0.00904
1427.69928,0.00922
1425.63910,0.00958
1423.57893,0.01010
1421.51876,0.01059
1419.45859,0.01106
1417.39842,0.01143
1415.33824,0.01149
1413.27807,0.01136
1411.21790,0.01114
1409.15773,0.01090
1407.09756,0.01068
1405.03738,0.01039
1402.97721,0.01007
1400.91704,0.00989
1398.85687,0.00990
1396.79670,0.00993
1394.73652,0.00989
1392.67635,0.00991
1390.61618,0.01010
1388.55601,0.01040
1386.49583,0.01066
1384.43566,0.01083
1382.37549,0.01100
1380.31532,0.01128
1378.25515,0.01167
1376.19497,0.01201
1374.13480,0.01224
1372.07463,0.01232
1370.01446,0.01224
1367.95429,0.01207
1365.89411,0.01188
1363.83394,0.01170
1361.77377,0.01141
1359.71360,0.01092
1357.65343,0.01042
1355.59325,0.01014
1353.53308,0.00998
1351.47291,0.00978
1349.41274,0.00955
1347.35256,0.00935
1345.29239,0.00923
1343.23222,0.00924
1341.17205,0.00942
1339.11188,0.00962
1337.05170,0.00957
1334.99153,0.00917
1332.93136,0.00866
1330.87119,0.00830
1328.81102,0.00806
1326.75084,0.00783
1324.69067,0.00749
1322.63050,0.00709
1320.57033,0.00686
1318.51015,0.00674
1316.44998,0.00659
1314.38981,0.00648
1312.32964,0.00638
1310.26947,0.00616
1308.20929,0.00592
1306.14912,0.00585
1304.08895,0.00586
1302.02878,0.00583
1299.96861,0.00576
1297.90843,0.00568
1295.84826,0.00579
1293.78809,0.00604
1291.72792,0.00606
1289.66775,0.00585
1287.60757,0.00579
1285.54740,0.00596
1283.48723,0.00615
1281.42706,0.00625
1279.36688,0.00634
1277.30671,0.00649
1275.24654,0.00662
1273.18637,0.00657
1271.12620,0.00639
1269.06602,0.00622
1267.00585,0.00618
1264.94568,0.00627
1262.88551,0.00647
1260.82534,0.00666
1258.76516,0.00668
1256.70499,0.00660
1254.64482,0.00649
1252.58465,0.00624
1250.52447,0.00584
1248.46430,0.00546
1246.40413,0.00529
1244.34396,0.00528
1242.28379,0.00527
1240.22361,0.00514
1238.16344,0.00488
1236.10327,0.00457
1234.04310,0.00434
1231.98293,0.00431
1229.92275,0.00439
1227.86258,0.00435
1225.80241,0.00423
1223.74224,0.00401
1221.68207,0.00366
1219.62189,0.00336
1217.56172,0.00318
1215.50155,0.00287
1213.44138,0.00242
1211.38120,0.00201
1209.32103,0.00168
1207.26086,0.00142
1205.20069,0.00120
1203.14052,0.00094
1201.08034,0.00078
1199.02017,0.00065
1196.96000,0.00054
1194.89983,0.00063
1192.83966,0.00102
1190.77948,0.00154
1188.71931,0.00220
1186.65914,0.00306
1184.59897,0.00399
1182.53880,0.00492
1180.47862,0.00619
1178.41845,0.00793
1176.35828,0.00978
1174.29811,0.01153
1172.23793,0.01322
1170.17776,0.01495
1168.11759,0.01673
1166.05742,0.01844
1163.99725,0.01997
1161.93707,0.02153
1159.87690,0.02311
1157.81673,0.02443
1155.75656,0.02570
1153.69639,0.02717
1151.63621,0.02878
1149.57604,0.03041
1147.51587,0.03214
1145.45570,0.03409
1143.39552,0.03621
1141.33535,0.03838
1139.27518,0.04048
1137.21501,0.04239
1135.15484,0.04416
1133.09466,0.04627
1131.03449,0.04857
1128.97432,0.05045
1126.91415,0.05212
1124.85398,0.05384
1122.79380,0.05550
1120.73363,0.05718
1118.67346,0.05898
1116.61329,0.06104
1114.55312,0.06336
1112.49294,0.06573
1110.43277,0.06810
1108.37260,0.07078
1106.31243,0.07392
1104.25225,0.07713
1102.19208,0.08024
1100.13191,0.08344
1098.07174,0.08659
1096.01157,0.08956
1093.95139,0.09253
1091.89122,0.09557
1089.83105,0.09869
1087.77088,0.10180
1085.71071,0.10472
1083.65053,0.10753
1081.59036,0.11036
1079.53019,0.11333
1077.47002,0.11646
1075.40985,0.11931
1073.34967,0.12140
1071.28950,0.12288
1069.22933,0.12412
1067.16916,0.12535
1065.10898,0.12670
1063.04881,0.12779
1060.98864,0.12821
1058.92847,0.12827
1056.86830,0.12853
1054.80812,0.12891
1052.74795,0.12908
1050.68778,0.12894
1048.62761,0.12836
1046.56744,0.12719
1044.50726,0.12564
1042.44709,0.12410
1040.38692,0.12238
1038.32675,0.12027
1036.26657,0.11807
1034.20640,0.11610
1032.14623,0.11419
1030.08606,0.11202
1028.02589,0.10971
1025.96571,0.10738
1023.90554,0.10502
1021.84537,0.10281
1019.78520,0.10061
1017.72503,0.09834
1015.66485,0.09616
1013.60468,0.09390
1011.54451,0.09151
1009.48434,0.08927
1007.42417,0.08727
1005.36399,0.08552
1003.30382,0.08405
1001.24365,0.08293
999.18348,0.08242
997.12330,0.08263
995.06313,0.08335
993.00296,0.08451
990.94279,0.08606
988.88262,0.08758
986.82244,0.08873
984.76227,0.08939
982.70210,0.08913
980.64193,0.08797
978.58176,0.08628
976.52158,0.08371
974.46141,0.08042
972.40124,0.07702
970.34107,0.07352
968.28089,0.06979
966.22072,0.06601
964.16055,0.06255
962.10038,0.05925
960.04021,0.05587
957.98003,0.05295
955.91986,0.05067
953.85969,0.04856
951.79952,0.04672
949.73935,0.04547
947.67917,0.04444
945.61900,0.04320
943.55883,0.04223
941.49866,0.04176
939.43849,0.04145
937.37831,0.04137
935.31814,0.04150
933.25797,0.04142
931.19780,0.04095
929.13762,0.04030
927.07745,0.03982
925.01728,0.03935
922.95711,0.03834
920.89694,0.03696
918.83676,0.03567
916.77659,0.03415
914.71642,0.03222
912.65625,0.03055
910.59608,0.02924
908.53590,0.02797
906.47573,0.02721
904.41556,0.02713
902.35539,0.02695
900.29522,0.02646
898.23504,0.02612
896.17487,0.02608
894.11470,0.02596
892.05453,0.02575
889.99435,0.02601
887.93418,0.02660
885.87401,0.02712
883.81384,0.02755
881.75367,0.02796
879.69349,0.02893
877.63332,0.03013
875.57315,0.03071
873.51298,0.03125
871.45281,0.03208
869.39263,0.03265
867.33246,0.03296
865.27229,0.03306
863.21212,0.03271
861.15194,0.03221
859.09177,0.03207
857.03160,0.03205
854.97143,0.03162
852.91126,0.03097
850.85108,0.03011
848.79091,0.02882
846.73074,0.02733
844.67057,0.02609
842.61040,0.02520
840.55022,0.02425
838.49005,0.02317
836.42988,0.02197
834.36971,0.02031
832.30954,0.01855
830.24936,0.01733
828.18919,0.01660
826.12902,0.01587
824.06885,0.01528
822.00867,0.01507
819.94850,0.01434
817.88833,0.01271
815.82816,0.01157
813.76799,0.01153
811.70781,0.01162
809.64764,0.01123
807.58747,0.01069
805.52730,0.01008
803.46713,0.00915
801.40695,0.00813
799.34678,0.00771
797.28661,0.00776
795.22644,0.00738
793.16627,0.00646
791.10609,0.00606
789.04592,0.00636
786.98575,0.00678
784.92558,0.00737
782.86540,0.00796
780.80523,0.00801
778.74506,0.00734
776.68489,0.00643
774.62472,0.00603
772.56454,0.00616
770.50437,0.00641
768.44420,0.00665
766.38403,0.00738
764.32386,0.00830
762.26368,0.00823
760.20351,0.00727
758.14334,0.00611
756.08317,0.00504
754.02299,0.00474
751.96282,0.00511
749.90265,0.00494
747.84248,0.00403
745.78231,0.00283
743.72213,0.00147
741.66196,0.00090
739.60179,0.00159
737.54162,0.00264
735.48145,0.00291
733.42127,0.00220
731.36110,0.00173
729.30093,0.00206
727.24076,0.00253
725.18059,0.00271
723.12041,0.00264
721.06024,0.00290
719.00007,0.00347
716.93990,0.00412
714.87972,0.00461
712.81955,0.00486
710.75938,0.00455
708.69921,0.00355
706.63904,0.00310
704.57886,0.00396
702.51869,0.00480
700.45852,0.00471
698.39835,0.00433
696.33818,0.00378
694.27800,0.00251
692.21783,0.00116
690.15766,0.00092
688.09749,0.00160
686.03731,0.00216
683.97714,0.00264
681.91697,0.00352
679.85680,0.00400
677.79663,0.00319
675.73645,0.00141
673.67628,0.00000
671.61611,0.00034
669.55594,0.00274
667.49577,0.00528
665.43559,0.00535
663.37542,0.00364
661.31525,0.00209
659.25508,0.00134
657.19491,0.00097
655.13473,0.00073
653.07456,0.00100
651.01439,0.00184
648.95422,0.00272
646.89404,0.00312
644.83387,0.00297
642.77370,0.00203
640.71353,0.00064
638.65336,0.00047
636.59318,0.00191
634.53301,0.00313
632.47284,0.00328
630.41267,0.00323
628.35250,0.00386
626.29232,0.00517
624.23215,0.00490
622.17198,0.00217
620.11181,0.00000
618.05164,0.00044
615.99146,0.00249
613.93129,0.00277
611.87112,0.00087
609.81095,0.00007
607.75077,0.00224
605.69060,0.00503
603.63043,0.00427
601.57026,0.00144
599.51009,0.00000
