3996.73391,0.00026
3994.67373,0.00020
3992.61356,0.00039
3990.55339,0.00068
3988.49322,0.00082
3986.43305,0.00075
3984.37287,0.00064
3982.31270,0.00067
3980.25253,0.00071
3978.19236,0.00046
3976.13219,0.00001
3974.07201,0.00000
3972.01184,0.00055
3969.95167,0.00097
3967.89150,0.00113
3965.83133,0.00134
3963.77115,0.00150
3961.71098,0.00142
3959.65081,0.00123
3957.59064,0.00104
3955.53046,0.00086
3953.47029,0.00078
3951.41012,0.00078
3949.34995,0.00079
3947.28978,0.00086
3945.22960,0.00091
3943.16943,0.00079
3941.10926,0.00059
3939.04909,0.00040
3936.98892,0.00039
3934.92874,0.00064
3932.86857,0.00082
3930.80840,0.00075
3928.74823,0.00072
3926.68805,0.00099
3924.62788,0.00126
3922.56771,0.00115
3920.50754,0.00086
3918.44737,0.00073
3916.38719,0.00068
3914.32702,0.00043
3912.26685,0.00008
3910.20668,0.00005
3908.14651,0.00048
3906.08633,0.00105
3904.02616,0.00148
3901.96599,0.00170
3899.90582,0.00161
3897.84565,0.00118
3895.78547,0.00083
3893.72530,0.00079
3891.66513,0.00070
3889.60496,0.00044
3887.54478,0.00022
3885.48461,0.00013
3883.42444,0.00034
3881.36427,0.00094
3879.30410,0.00160
3877.24392,0.00183
3875.18375,0.00132
3873.12358,0.00041
3871.06341,0.00000
3869.00324,0.00034
3866.94306,0.00076
3864.88289,0.00089
3862.82272,0.00088
3860.76255,0.00090
3858.70237,0.00096
3856.64220,0.00113
3854.58203,0.00151
3852.52186,0.00182
3850.46169,0.00155
3848.40151,0.00116
3846.34134,0.00111
3844.28117,0.00113
3842.22100,0.00085
3840.16083,0.00068
3838.10065,0.00106
3836.04048,0.00133
3833.98031,0.00102
3831.92014,0.00081
3829.85997,0.00096
3827.79979,0.00110
3825.73962,0.00128
3823.67945,0.00158
3821.61928,0.00165
3819.55910,0.00125
3817.49893,0.00056
3815.43876,0.00006
3813.37859,0.00012
3811.31842,0.00040
3809.25824,0.00051
3807.19807,0.00043
3805.13790,0.00023
3803.07773,0.00002
3801.01756,0.00006
3798.95738,0.00035
3796.89721,0.00049
3794.83704,0.00047
3792.77687,0.00061
3790.71670,0.00102
3788.65652,0.00142
3786.59635,0.00149
3784.53618,0.00143
3782.47601,0.00159
3780.41583,0.00177
3778.35566,0.00154
3776.29549,0.00108
3774.23532,0.00083
3772.17515,0.00077
3770.11497,0.00070
3768.05480,0.00067
3765.99463,0.00070
3763.93446,0.00072
3761.87429,0.00076
3759.81411,0.00074
3757.75394,0.00073
3755.69377,0.00092
3753.63360,0.00121
3751.57342,0.00131
3749.51325,0.00119
3747.45308,0.00096
3745.39291,0.00051
3743.33274,0.00002
3741.27256,0.00000
3739.21239,0.00048
3737.15222,0.00118
3735.09205,0.00166
3733.03188,0.00160
3730.97170,0.00141
3728.91153,0.00164
3726.85136,0.00216
3724.79119,0.00240
3722.73102,0.00221
3720.67084,0.00179
3718.61067,0.00132
3716.55050,0.00107
3714.49033,0.00113
3712.43015,0.00124
3710.36998,0.00136
3708.30981,0.00168
3706.24964,0.00198
3704.18947,0.00181
3702.12929,0.00131
3700.06912,0.00119
3698.00895,0.00155
3695.94878,0.00190
3693.88861,0.00179
3691.82843,0.00111
3689.76826,0.00058
3687.70809,0.00097
3685.64792,0.00169
3683.58775,0.00200
3681.52757,0.00215
3679.46740,0.00245
3677.40723,0.00256
3675.34706,0.00252
3673.28688,0.00272
3671.22671,0.00278
3669.16654,0.00278
3667.10637,0.00319
3665.04620,0.00362
3662.98602,0.00377
3660.92585,0.00390
3658.86568,0.00420
3656.80551,0.00439
3654.74534,0.00444
3652.68516,0.00481
3650.62499,0.00550
3648.56482,0.00603
3646.50465,0.00619
3644.44447,0.00634
3642.38430,0.00657
3640.32413,0.00672
3638.26396,0.00680
3636.20379,0.00701
3634.14361,0.00756
3632.08344,0.00832
3630.02327,0.00900
3627.96310,0.00963
3625.90293,0.01017
3623.84275,0.01058
3621.78258,0.01100
3619.72241,0.01149
3617.66224,0.01186
3615.60207,0.01194
3613.54189,0.01193
3611.48172,0.01216
3609.42155,0.01281
3607.36138,0.01402
3605.30120,0.01540
3603.24103,0.01640
3601.18086,0.01695
3599.12069,0.01717
3597.06052,0.01722
3595.00034,0.01732
3592.94017,0.01766
3590.88000,0.01820
3588.81983,0.01879
3586.75966,0.01900
3584.69948,0.01878
3582.63931,0.01882
3580.57914,0.01943
3578.51897,0.02026
3576.45879,0.02104
3574.39862,0.02169
3572.33845,0.02213
3570.27828,0.02245
3568.21811,0.02281
3566.15793,0.02332
3564.09776,0.02404
3562.03759,0.02479
3559.97742,0.02511
3557.91725,0.02508
3555.85707,0.02539
3553.79690,0.02612
3551.73673,0.02668
3549.67656,0.02716
3547.61639,0.02789
3545.55621,0.02857
3543.49604,0.02899
3541.43587,0.02943
3539.37570,0.02993
3537.31552,0.03029
3535.25535,0.03055
3533.19518,0.03096
3531.13501,0.03155
3529.07484,0.03219
3527.01466,0.03276
3524.95449,0.03311
3522.89432,0.03323
3520.83415,0.03334
3518.77398,0.03370
3516.71380,0.03436
3514.65363,0.03502
3512.59346,0.03542
3510.53329,0.03565
3508.47312,0.03592
3506.41294,0.03613
3504.35277,0.03626
3502.29260,0.03664
3500.23243,0.03719
3498.17225,0.03749
3496.11208,0.03772
3494.05191,0.03817
3491.99174,0.03876
3489.93157,0.03938
3487.87139,0.03992
3485.81122,0.04030
3483.75105,0.04062
3481.69088,0.04091
3479.63071,0.04109
3477.57053,0.04151
3475.51036,0.04227
3473.45019,0.04270
3471.39002,0.04260
3469.32984,0.04255
3467.26967,0.04290
3465.20950,0.04330
3463.14933,0.04368
3461.08916,0.04412
3459.02898,0.04463
3456.96881,0.04542
3454.90864,0.04621
3452.84847,0.04661
3450.78830,0.04685
3448.72812,0.04708
3446.66795,0.04710
3444.60778,0.04698
3442.54761,0.04717
3440.48744,0.04768
3438.42726,0.04811
3436.36709,0.04829
3434.30692,0.04842
3432.24675,0.04863
3430.18657,0.04883
3428.12640,0.04906
3426.06623,0.04953
3424.00606,0.04995
3421.94589,0.04992
3419.88571,0.04978
3417.82554,0.05006
3415.76537,0.05075
3413.70520,0.05124
3411.64503,0.05132
3409.58485,0.05127
3407.52468,0.05117
3405.46451,0.05124
3403.40434,0.05170
3401.34416,0.05223
3399.28399,0.05253
3397.22382,0.05264
3395.16365,0.05266
3393.10348,0.05274
3391.04330,0.05308
3388.98313,0.05348
3386.92296,0.05361
3384.86279,0.05373
3382.80262,0.05423
3380.74244,0.05480
3378.68227,0.05483
3376.62210,0.05435
3374.56193,0.05396
3372.50176,0.05403
3370.44158,0.05439
3368.38141,0.05477
3366.32124,0.05500
3364.26107,0.05501
3362.20089,0.05513
3360.14072,0.05552
3358.08055,0.05585
3356.02038,0.05606
3353.96021,0.05619
3351.90003,0.05604
3349.83986,0.05577
3347.77969,0.05575
3345.71952,0.05595
3343.65935,0.05608
3341.59917,0.05605
3339.53900,0.05600
3337.47883,0.05605
3335.41866,0.05632
3333.35849,0.05662
3331.29831,0.05655
3329.23814,0.05625
3327.17797,0.05616
3325.11780,0.05618
3323.05762,0.05609
3320.99745,0.05607
3318.93728,0.05624
3316.87711,0.05661
3314.81694,0.05696
3312.75676,0.05707
3310.69659,0.05695
3308.63642,0.05653
3306.57625,0.05616
3304.51608,0.05646
3302.45590,0.05716
3300.39573,0.05750
3298.33556,0.05734
3296.27539,0.05718
3294.21521,0.05746
3292.15504,0.05796
3290.09487,0.05819
3288.03470,0.05811
3285.97453,0.05786
3283.91435,0.05752
3281.85418,0.05747
3279.79401,0.05761
3277.73384,0.05751
3275.67367,0.05728
3273.61349,0.05718
3271.55332,0.05723
3269.49315,0.05726
3267.43298,0.05722
3265.37281,0.05723
3263.31263,0.05725
3261.25246,0.05729
3259.19229,0.05743
3257.13212,0.05754
3255.07194,0.05766
3253.01177,0.05774
3250.95160,0.05748
3248.89143,0.05721
3246.83126,0.05734
3244.77108,0.05758
3242.71091,0.05764
3240.65074,0.05741
3238.59057,0.05702
3236.53040,0.05690
3234.47022,0.05717
3232.41005,0.05756
3230.34988,0.05781
3228.28971,0.05780
3226.22954,0.05774
3224.16936,0.05773
3222.10919,0.05764
3220.04902,0.05747
3217.98885,0.05736
3215.92867,0.05742
3213.86850,0.05753
3211.80833,0.05749
3209.74816,0.05719
3207.68799,0.05673
3205.62781,0.05644
3203.56764,0.05633
3201.50747,0.05624
3199.44730,0.05613
3197.38713,0.05610
3195.32695,0.05613
3193.26678,0.05610
3191.20661,0.05602
3189.14644,0.05603
3187.08626,0.05595
3185.02609,0.05558
3182.96592,0.05529
3180.90575,0.05526
3178.84558,0.05520
3176.78540,0.05516
3174.72523,0.05516
3172.66506,0.05491
3170.60489,0.05460
3168.54472,0.05459
3166.48454,0.05459
3164.42437,0.05432
3162.36420,0.05405
3160.30403,0.05394
3158.24386,0.05388
3156.18368,0.05382
3154.12351,0.05369
3152.06334,0.05327
3150.00317,0.05276
3147.94299,0.05257
3145.88282,0.05257
3143.82265,0.05249
3141.76248,0.05245
3139.70231,0.05245
3137.64213,0.05226
3135.58196,0.05169
3133.52179,0.05105
3131.46162,0.05090
3129.40145,0.05113
3127.34127,0.05121
3125.28110,0.05094
3123.22093,0.05061
3121.16076,0.05063
3119.10058,0.05064
3117.04041,0.05022
3114.98024,0.04979
3112.92007,0.04957
3110.85990,0.04938
3108.79972,0.04919
3106.73955,0.04894
3104.67938,0.04876
3102.61921,0.04855
3100.55904,0.04811
3098.49886,0.04767
3096.43869,0.04742
3094.37852,0.04731
3092.31835,0.04723
3090.25818,0.04710
3088.19800,0.04690
3086.13783,0.04656
3084.07766,0.04605
3082.01749,0.04571
3079.95731,0.04565
3077.89714,0.04559
3075.83697,0.04550
3073.77680,0.04551
3071.71663,0.04528
3069.65645,0.04480
3067.59628,0.04439
3065.53611,0.04408
3063.47594,0.04368
3061.41577,0.04329
3059.35559,0.04303
3057.29542,0.04289
3055.23525,0.04288
3053.17508,0.04294
3051.11491,0.04292
3049.05473,0.04280
3046.99456,0.04261
3044.93439,0.04228
3042.87422,0.04185
3040.81404,0.04143
3038.75387,0.04110
3036.69370,0.04073
3034.63353,0.04020
3032.57336,0.03970
3030.51318,0.03941
3028.45301,0.03935
3026.39284,0.03942
3024.33267,0.03935
3022.27250,0.03908
3020.21232,0.03886
3018.15215,0.03871
3016.09198,0.03840
3014.03181,0.03795
3011.97163,0.03755
3009.91146,0.03745
3007.85129,0.03745
3005.79112,0.03726
3003.73095,0.03694
3001.67077,0.03661
2999.61060,0.03623
2997.55043,0.03585
2995.49026,0.03563
2993.43009,0.03559
2991.36991,0.03564
2989.30974,0.03555
2987.24957,0.03511
2985.18940,0.03463
2983.12923,0.03455
2981.06905,0.03475
2979.00888,0.03482
2976.94871,0.03466
2974.88854,0.03431
2972.82836,0.03396
2970.76819,0.03393
2968.70802,0.03411
2966.64785,0.03403
2964.58768,0.03380
2962.52750,0.03383
2960.46733,0.03406
2958.40716,0.03417
2956.34699,0.03407
2954.28682,0.03400
2952.22664,0.03409
2950.16647,0.03417
2948.10630,0.03413
2946.04613,0.03422
2943.98596,0.03436
2941.92578,0.03417
2939.86561,0.03392
2937.80544,0.03399
2935.74527,0.03403
2933.68509,0.03363
2931.62492,0.03318
2929.56475,0.03312
2927.50458,0.03322
2925.44441,0.03329
2923.38423,0.03333
2921.32406,0.03314
2919.26389,0.03270
2917.20372,0.03224
2915.14355,0.03192
2913.08337,0.03171
2911.02320,0.03156
2908.96303,0.03153
2906.90286,0.03162
2904.84268,0.03150
2902.78251,0.03109
2900.72234,0.03091
2898.66217,0.03121
2896.60200,0.03133
2894.54182,0.03094
2892.48165,0.03058
2890.42148,0.03050
2888.36131,0.03047
2886.30114,0.03037
2884.24096,0.03022
2882.18079,0.03006
2880.12062,0.02997
2878.06045,0.02985
2876.00028,0.02976
2873.94010,0.02987
2871.87993,0.02983
2869.81976,0.02957
2867.75959,0.02942
2865.69941,0.02935
2863.63924,0.02923
2861.57907,0.02902
2859.51890,0.02877
2857.45873,0.02851
2855.39855,0.02826
2853.33838,0.02815
2851.27821,0.02811
2849.21804,0.02798
2847.15787,0.02778
2845.09769,0.02751
2843.03752,0.02724
2840.97735,0.02703
2838.91718,0.02673
2836.85700,0.02649
2834.79683,0.02649
2832.73666,0.02649
2830.67649,0.02633
2828.61632,0.02600
2826.55614,0.02568
2824.49597,0.02569
2822.43580,0.02597
2820.37563,0.02606
2818.31546,0.02574
2816.25528,0.02528
2814.19511,0.02511
2812.13494,0.02523
2810.07477,0.02528
2808.01460,0.02502
2805.95442,0.02471
2803.89425,0.02453
2801.83408,0.02428
2799.77391,0.02404
2797.71373,0.02402
2795.65356,0.02416
2793.59339,0.02427
2791.53322,0.02420
2789.47305,0.02404
2787.41287,0.02389
2785.35270,0.02375
2783.29253,0.02364
2781.23236,0.02344
2779.17219,0.02326
2777.11201,0.02325
2775.05184,0.02302
2772.99167,0.02245
2770.93150,0.02203
2768.87133,0.02216
2766.81115,0.02250
2764.75098,0.02261
2762.69081,0.02274
2760.63064,0.02278
2758.57046,0.02251
2756.51029,0.02229
2754.45012,0.02216
2752.38995,0.02191
2750.32978,0.02170
2748.26960,0.02170
2746.20943,0.02170
2744.14926,0.02158
2742.08909,0.02141
2740.02892,0.02119
2737.96874,0.02097
2735.90857,0.02095
2733.84840,0.02109
2731.78823,0.02108
2729.72805,0.02088
2727.66788,0.02074
2725.60771,0.02070
2723.54754,0.02056
2721.48737,0.02022
2719.42719,0.01981
2717.36702,0.01947
2715.30685,0.01923
2713.24668,0.01923
2711.18651,0.01956
2709.12633,0.01984
2707.06616,0.01973
2705.00599,0.01942
2702.94582,0.01922
2700.88565,0.01909
2698.82547,0.01896
2696.76530,0.01892
2694.70513,0.01893
2692.64496,0.01880
2690.58478,0.01854
2688.52461,0.01838
2686.46444,0.01824
2684.40427,0.01798
2682.34410,0.01778
2680.28392,0.01772
2678.22375,0.01772
2676.16358,0.01756
2674.10341,0.01721
2672.04324,0.01690
2669.98306,0.01679
2667.92289,0.01674
2665.86272,0.01666
2663.80255,0.01660
2661.74238,0.01655
2659.68220,0.01644
2657.62203,0.01631
2655.56186,0.01629
2653.50169,0.01634
2651.44151,0.01624
2649.38134,0.01585
2647.32117,0.01541
2645.26100,0.01517
2643.20083,0.01510
2641.14065,0.01502
2639.08048,0.01490
2637.02031,0.01484
2634.96014,0.01488
2632.89997,0.01489
2630.83979,0.01477
2628.77962,0.01449
2626.71945,0.01425
2624.65928,0.01410
2622.59910,0.01383
2620.53893,0.01367
2618.47876,0.01384
2616.41859,0.01388
2614.35842,0.01362
2612.29824,0.01338
2610.23807,0.01325
2608.17790,0.01319
2606.11773,0.01309
2604.05756,0.01285
2601.99738,0.01269
2599.93721,0.01277
2597.87704,0.01286
2595.81687,0.01278
2593.75670,0.01279
2591.69652,0.01284
2589.63635,0.01268
2587.57618,0.01267
2585.51601,0.01290
2583.45583,0.01304
2581.39566,0.01307
2579.33549,0.01292
2577.27532,0.01249
2575.21515,0.01210
2573.15497,0.01193
2571.09480,0.01187
2569.03463,0.01194
2566.97446,0.01228
2564.91429,0.01252
2562.85411,0.01223
2560.79394,0.01197
2558.73377,0.01210
2556.67360,0.01212
2554.61342,0.01180
2552.55325,0.01148
2550.49308,0.01140
2548.43291,0.01152
2546.37274,0.01171
2544.31256,0.01174
2542.25239,0.01136
2540.19222,0.01090
2538.13205,0.01078
2536.07188,0.01081
2534.01170,0.01094
2531.95153,0.01137
2529.89136,0.01175
2527.83119,0.01174
2525.77102,0.01164
2523.71084,0.01176
2521.65067,0.01204
2519.59050,0.01229
2517.53033,0.01233
2515.47015,0.01221
2513.40998,0.01190
2511.34981,0.01142
2509.28964,0.01098
2507.22947,0.01092
2505.16929,0.01114
2503.10912,0.01098
2501.04895,0.01058
2498.98878,0.01072
2496.92861,0.01141
2494.86843,0.01212
2492.80826,0.01254
2490.74809,0.01282
2488.68792,0.01301
2486.62775,0.01284
2484.56757,0.01253
2482.50740,0.01230
2480.44723,0.01200
2478.38706,0.01177
2476.32688,0.01171
2474.26671,0.01174
2472.20654,0.01177
2470.14637,0.01185
2468.08620,0.01196
2466.02602,0.01223
2463.96585,0.01268
2461.90568,0.01282
2459.84551,0.01262
2457.78534,0.01252
2455.72516,0.01260
2453.66499,0.01280
2451.60482,0.01288
2449.54465,0.01267
2447.48447,0.01248
2445.42430,0.01241
2443.36413,0.01247
2441.30396,0.01285
2439.24379,0.01303
2437.18361,0.01283
2435.12344,0.01276
2433.06327,0.01254
2431.00310,0.01202
2428.94293,0.01204
2426.88275,0.01257
2424.82258,0.01274
2422.76241,0.01246
2420.70224,0.01232
2418.64207,0.01238
2416.58189,0.01211
2414.52172,0.01162
2412.46155,0.01169
2410.40138,0.01233
2408.34120,0.01279
2406.28103,0.01269
2404.22086,0.01217
2402.16069,0.01175
2400.10052,0.01175
2398.04034,0.01201
2395.98017,0.01234
2393.92000,0.01253
2391.85983,0.01257
2389.79966,0.01256
2387.73948,0.01247
2385.67931,0.01228
2383.61914,0.01224
2381.55897,0.01251
2379.49880,0.01267
2377.43862,0.01229
2375.37845,0.01135
2373.31828,0.01025
2371.25811,0.00986
2369.19793,0.01039
2367.13776,0.01035
2365.07759,0.00835
2363.01742,0.00542
2360.95725,0.00480
2358.89707,0.00716
2356.83690,0.00882
2354.77673,0.00838
2352.71656,0.00820
2350.65639,0.00898
2348.59621,0.00972
2346.53604,0.00968
2344.47587,0.00898
2342.41570,0.00867
2340.35552,0.00911
2338.29535,0.00999
2336.23518,0.01091
2334.17501,0.01098
2332.11484,0.01025
2330.05466,0.00980
2327.99449,0.00988
2325.93432,0.01021
2323.87415,0.01076
2321.81398,0.01142
2319.75380,0.01155
2317.69363,0.01097
2315.63346,0.01054
2313.57329,0.01083
2311.51312,0.01149
2309.45294,0.01183
2307.39277,0.01166
2305.33260,0.01152
2303.27243,0.01159
2301.21225,0.01132
2299.15208,0.01068
2297.09191,0.01052
2295.03174,0.01098
2292.97157,0.01148
2290.91139,0.01186
2288.85122,0.01207
2286.79105,0.01191
2284.73088,0.01135
2282.67071,0.01069
2280.61053,0.01023
2278.55036,0.00987
2276.49019,0.00940
2274.43002,0.00919
2272.36984,0.00943
2270.30967,0.00974
2268.24950,0.00985
2266.18933,0.00974
2264.12916,0.00952
2262.06898,0.00941
2260.00881,0.00943
2257.94864,0.00952
2255.88847,0.00971
2253.82830,0.01012
2251.76812,0.01016
2249.70795,0.00955
2247.64778,0.00918
2245.58761,0.00920
2243.52744,0.00906
2241.46726,0.00887
2239.40709,0.00856
2237.34692,0.00824
2235.28675,0.00826
2233.22657,0.00842
2231.16640,0.00824
2229.10623,0.00794
2227.04606,0.00776
2224.98589,0.00725
2222.92571,0.00718
2220.86554,0.00790
2218.80537,0.00814
2216.74520,0.00795
2214.68503,0.00804
2212.62485,0.00812
2210.56468,0.00798
2208.50451,0.00808
2206.44434,0.00853
2204.38417,0.00840
2202.32399,0.00713
2200.26382,0.00609
2198.20365,0.00589
2196.14348,0.00558
2194.08330,0.00496
2192.02313,0.00424
2189.96296,0.00446
2187.90279,0.00605
2185.84262,0.00712
2183.78244,0.00663
2181.72227,0.00540
2179.66210,0.00486
2177.60193,0.00574
2175.54176,0.00710
2173.48158,0.00699
2171.42141,0.00485
2169.36124,0.00316
2167.30107,0.00377
2165.24089,0.00538
2163.18072,0.00601
2161.12055,0.00474
2159.06038,0.00277
2157.00021,0.00219
2154.94003,0.00323
2152.87986,0.00419
2150.81969,0.00414
2148.75952,0.00409
2146.69935,0.00420
2144.63917,0.00434
2142.57900,0.00470
2140.51883,0.00466
2138.45866,0.00449
2136.39849,0.00460
2134.33831,0.00456
2132.27814,0.00461
2130.21797,0.00466
2128.15780,0.00449
2126.09762,0.00422
2124.03745,0.00378
2121.97728,0.00370
2119.91711,0.00445
2117.85694,0.00548
2115.79676,0.00577
2113.73659,0.00512
2111.67642,0.00489
2109.61625,0.00535
2107.55608,0.00518
2105.49590,0.00450
2103.43573,0.00427
2101.37556,0.00465
2099.31539,0.00505
2097.25521,0.00520
2095.19504,0.00553
2093.13487,0.00617
2091.07470,0.00637
2089.01453,0.00546
2086.95435,0.00450
2084.89418,0.00485
2082.83401,0.00586
2080.77384,0.00630
2078.71367,0.00607
2076.65349,0.00542
2074.59332,0.00455
2072.53315,0.00403
2070.47298,0.00412
2068.41281,0.00469
2066.35263,0.00523
2064.29246,0.00487
2062.23229,0.00407
2060.17212,0.00384
2058.11194,0.00406
2056.05177,0.00421
2053.99160,0.00473
2051.93143,0.00530
2049.87126,0.00431
2047.81108,0.00279
2045.75091,0.00293
2043.69074,0.00382
2041.63057,0.00406
2039.57040,0.00386
2037.51022,0.00379
2035.45005,0.00404
2033.38988,0.00403
2031.32971,0.00339
2029.26954,0.00293
2027.20936,0.00250
2025.14919,0.00132
2023.08902,0.00055
2021.02885,0.00081
2018.96867,0.00108
2016.90850,0.00165
2014.84833,0.00272
2012.78816,0.00259
2010.72799,0.00093
2008.66781,0.00000
2006.60764,0.00126
2004.54747,0.00308
2002.48730,0.00366
2000.42713,0.00350
1998.36695,0.00310
1996.30678,0.00226
1994.24661,0.00157
1992.18644,0.00174
1990.12626,0.00282
1988.06609,0.00408
1986.00592,0.00433
1983.94575,0.00376
1981.88558,0.00347
1979.82540,0.00325
1977.76523,0.00274
1975.70506,0.00204
1973.64489,0.00196
1971.58472,0.00274
1969.52454,0.00236
1967.46437,0.00087
1965.40420,0.00034
1963.34403,0.00080
1961.28386,0.00115
1959.22368,0.00067
1957.16351,0.00000
1955.10334,0.00056
1953.04317,0.00211
1950.98299,0.00282
1948.92282,0.00233
1946.86265,0.00190
1944.80248,0.00210
1942.74231,0.00232
1940.68213,0.00240
1938.62196,0.00244
1936.56179,0.00247
1934.50162,0.00285
1932.44145,0.00349
1930.38127,0.00386
1928.32110,0.00376
1926.26093,0.00314
1924.20076,0.00227
1922.14059,0.00195
1920.08041,0.00244
1918.02024,0.00286
1915.96007,0.00263
1913.89990,0.00214
1911.83972,0.00181
1909.77955,0.00195
1907.71938,0.00271
1905.65921,0.00339
1903.59904,0.00331
1901.53886,0.00278
1899.47869,0.00234
1897.41852,0.00224
1895.35835,0.00219
1893.29818,0.00191
1891.23800,0.00188
1889.17783,0.00243
1887.11766,0.00294
1885.05749,0.00299
1882.99731,0.00297
1880.93714,0.00289
1878.87697,0.00261
1876.81680,0.00252
1874.75663,0.00266
1872.69645,0.00256
1870.63628,0.00231
1868.57611,0.00246
1866.51594,0.00291
1864.45577,0.00316
1862.39559,0.00321
1860.33542,0.00317
1858.27525,0.00309
1856.21508,0.00296
1854.15491,0.00283
1852.09473,0.00282
1850.03456,0.00289
1847.97439,0.00278
1845.91422,0.00251
1843.85404,0.00243
1841.79387,0.00279
1839.73370,0.00333
1837.67353,0.00359
1835.61336,0.00330
1833.55318,0.00278
1831.49301,0.00257
1829.43284,0.00281
1827.37267,0.00314
1825.31250,0.00331
1823.25232,0.00325
1821.19215,0.00301
1819.13198,0.00289
1817.07181,0.00289
1815.01163,0.00269
1812.95146,0.00237
1810.89129,0.00243
1808.83112,0.00287
1806.77095,0.00316
1804.71077,0.00309
1802.65060,0.00295
1800.59043,0.00296
1798.53026,0.00306
1796.47009,0.00311
1794.40991,0.00304
1792.34974,0.00285
1790.28957,0.00270
1788.22940,0.00276
1786.16923,0.00306
1784.10905,0.00337
1782.04888,0.00347
1779.98871,0.00353
1777.92854,0.00368
1775.86836,0.00387
1773.80819,0.00401
1771.74802,0.00394
1769.68785,0.00376
1767.62768,0.00380
1765.56750,0.00395
1763.50733,0.00404
1761.44716,0.00417
1759.38699,0.00433
1757.32682,0.00449
1755.26664,0.00471
1753.20647,0.00503
1751.14630,0.00537
1749.08613,0.00558
1747.02596,0.00559
1744.96578,0.00564
1742.90561,0.00585
1740.84544,0.00626
1738.78527,0.00676
1736.72509,0.00708
1734.66492,0.00727
1732.60475,0.00760
1730.54458,0.00797
1728.48441,0.00819
1726.42423,0.00828
1724.36406,0.00832
1722.30389,0.00837
1720.24372,0.00861
1718.18355,0.00921
1716.12337,0.00991
1714.06320,0.01026
1712.00303,0.01039
1709.94286,0.01053
1707.88268,0.01079
1705.82251,0.01106
1703.76234,0.01127
1701.70217,0.01144
1699.64200,0.01167
1697.58182,0.01210
1695.52165,0.01277
1693.46148,0.01329
1691.40131,0.01346
1689.34114,0.01350
1687.28096,0.01353
1685.22079,0.01380
1683.16062,0.01440
1681.10045,0.01484
1679.04028,0.01498
1676.98010,0.01516
1674.91993,0.01551
1672.85976,0.01592
1670.79959,0.01630
1668.73941,0.01666
1666.67924,0.01691
1664.61907,0.01714
1662.55890,0.01753
1660.49873,0.01792
1658.43855,0.01805
1656.37838,0.01792
1654.31821,0.01779
1652.25804,0.01806
1650.19787,0.01837
1648.13769,0.01832
1646.07752,0.01821
1644.01735,0.01834
1641.95718,0.01840
1639.89701,0.01826
1637.83683,0.01820
1635.77666,0.01845
1633.71649,0.01865
1631.65632,0.01840
1629.59614,0.01799
1627.53597,0.01771
1625.47580,0.01757
1623.41563,0.01742
1621.35546,0.01715
1619.29528,0.01683
1617.23511,0.01661
1615.17494,0.01652
1613.11477,0.01639
1611.05460,0.01616
1608.99442,0.01592
1606.93425,0.01574
1604.87408,0.01552
1602.81391,0.01516
1600.75373,0.01472
1598.69356,0.01423
1596.63339,0.01374
1594.57322,0.01329
1592.51305,0.01279
1590.45287,0.01215
1588.39270,0.01149
1586.33253,0.01100
1584.27236,0.01060
1582.21219,0.01022
1580.15201,0.00985
1578.09184,0.00946
1576.03167,0.00896
1573.97150,0.00846
1571.91133,0.00800
1569.85115,0.00752
1567.79098,0.00718
1565.73081,0.00703
1563.67064,0.00692
1561.61046,0.00660
1559.55029,0.00600
1557.49012,0.00551
1555.42995,0.00535
1553.36978,0.00525
1551.30960,0.00506
1549.24943,0.00475
1547.18926,0.00447
1545.12909,0.00432
1543.06892,0.00433
1541.00874,0.00444
1538.94857,0.00437
1536.88840,0.00404
1534.82823,0.00366
1532.76805,0.00331
1530.70788,0.00303
1528.64771,0.00279
1526.58754,0.00251
1524.52737,0.00214
1522.46719,0.00189
1520.40702,0.00201
1518.34685,0.00229
1516.28668,0.00234
1514.22651,0.00214
1512.16633,0.00191
1510.10616,0.00168
1508.04599,0.00155
1505.98582,0.00179
1503.92565,0.00188
1501.86547,0.00162
1499.80530,0.00141
1497.74513,0.00139
1495.68496,0.00132
1493.62478,0.00110
1491.56461,0.00095
1489.50444,0.00105
1487.44427,0.00127
1485.38410,0.00136
1483.32392,0.00141
1481.26375,0.00150
1479.20358,0.00158
1477.14341,0.00157
1475.08324,0.00162
1473.02306,0.00190
1470.96289,0.00228
1468.90272,0.00252
1466.84255,0.00269
1464.78238,0.00282
1462.72220,0.00290
1460.66203,0.00302
1458.60186,0.00337
1456.54169,0.00392
1454.48151,0.00423
1452.42134,0.00420
1450.36117,0.00408
1448.30100,0.00398
1446.24083,0.00389
1444.18065,0.00371
1442.12048,0.00346
1440.06031,0.00325
1438.00014,0.00311
1435.93997,0.00299
1433.87979,0.00280
1431.81962,0.00260
1429.75945,0.00249
1427.69928,0.00246
1425.63910,0.00248
1423.57893,0.00265
1421.51876,0.00293
1419.45859,0.00322
1417.39842,0.00339
1415.33824,0.00334
1413.27807,0.00319
1411.21790,0.00307
1409.15773,0.00297
1407.09756,0.00289
1405.03738,0.00284
1402.97721,0.00281
1400.91704,0.00285
1398.85687,0.00292
1396.79670,0.00300
1394.73652,0.00306
1392.67635,0.00307
1390.61618,0.00308
1388.55601,0.00317
1386.49583,0.00330
1384.43566,0.00330
1382.37549,0.00332
1380.31532,0.00357
1378.25515,0.00391
1376.19497,0.00414
1374.13480,0.00437
1372.07463,0.00460
1370.01446,0.00472
1367.95429,0.00464
1365.89411,0.00436
1363.83394,0.00403
1361.77377,0.00387
1359.71360,0.00381
1357.65343,0.00376
1355.59325,0.00368
1353.53308,0.00358
1351.47291,0.00354
1349.41274,0.00357
1347.35256,0.00352
1345.29239,0.00335
1343.23222,0.00325
1341.17205,0.00332
1339.11188,0.00356
1337.05170,0.00370
1334.99153,0.00358
1332.93136,0.00337
1330.87119,0.00328
1328.81102,0.00321
1326.75084,0.00305
1324.69067,0.00283
1322.63050,0.00263
1320.57033,0.00252
1318.51015,0.00247
1316.44998,0.00235
1314.38981,0.00216
1312.32964,0.00205
1310.26947,0.00197
1308.20929,0.00185
1306.14912,0.00169
1304.08895,0.00154
1302.02878,0.00150
1299.96861,0.00162
1297.90843,0.00168
1295.84826,0.00169
1293.78809,0.00180
1291.72792,0.00196
1289.66775,0.00205
1287.60757,0.00208
1285.54740,0.00213
1283.48723,0.00219
1281.42706,0.00217
1279.36688,0.00201
1277.30671,0.00184
1275.24654,0.00177
1273.18637,0.00181
1271.12620,0.00197
1269.06602,0.00219
1267.00585,0.00228
1264.94568,0.00222
1262.88551,0.00225
1260.82534,0.00247
1258.76516,0.00259
1256.70499,0.00251
1254.64482,0.00232
1252.58465,0.00203
1250.52447,0.00177
1248.46430,0.00172
1246.40413,0.00176
1244.34396,0.00169
1242.28379,0.00161
1240.22361,0.00161
1238.16344,0.00167
1236.10327,0.00166
1234.04310,0.00160
1231.98293,0.00163
1229.92275,0.00170
1227.86258,0.00171
1225.80241,0.00166
1223.74224,0.00156
1221.68207,0.00135
1219.62189,0.00116
1217.56172,0.00119
1215.50155,0.00128
1213.44138,0.00122
1211.38120,0.00106
1209.32103,0.00088
1207.26086,0.00075
1205.20069,0.00072
1203.14052,0.00074
1201.08034,0.00083
1199.02017,0.00092
1196.96000,0.00084
1194.89983,0.00077
1192.83966,0.00103
1190.77948,0.00142
1188.71931,0.00173
1186.65914,0.00199
1184.59897,0.00227
1182.53880,0.00272
1180.47862,0.00345
1178.41845,0.00430
1176.35828,0.00506
1174.29811,0.00580
1172.23793,0.00687
1170.17776,0.00821
1168.11759,0.00923
1166.05742,0.00983
1163.99725,0.01035
1161.93707,0.01096
1159.87690,0.01162
1157.81673,0.01246
1155.75656,0.01336
1153.69639,0.01414
1151.63621,0.01494
1149.57604,0.01582
1147.51587,0.01671
1145.45570,0.01774
1143.39552,0.01886
1141.33535,0.01996
1139.27518,0.02104
1137.21501,0.02215
1135.15484,0.02316
1133.09466,0.02411
1131.03449,0.02517
1128.97432,0.02634
1126.91415,0.02754
1124.85398,0.02864
1122.79380,0.02966
1120.73363,0.03076
1118.67346,0.03194
1116.61329,0.03317
1114.55312,0.03440
1112.49294,0.03563
1110.43277,0.03700
1108.37260,0.03835
1106.31243,0.03956
1104.25225,0.04100
1102.19208,0.04265
1100.13191,0.04420
1098.07174,0.04565
1096.01157,0.04701
1093.95139,0.04821
1091.89122,0.04930
1089.83105,0.05025
1087.77088,0.05117
1085.71071,0.05222
1083.65053,0.05335
1081.59036,0.05441
1079.53019,0.05535
1077.47002,0.05629
1075.40985,0.05721
1073.34967,0.05805
1071.28950,0.05881
1069.22933,0.05932
1067.16916,0.05950
1065.10898,0.05953
1063.04881,0.05945
1060.98864,0.05910
1058.92847,0.05865
1056.86830,0.05838
1054.80812,0.05832
1052.74795,0.05819
1050.68778,0.05761
1048.62761,0.05684
1046.56744,0.05611
1044.50726,0.05511
1042.44709,0.05379
1040.38692,0.05248
1038.32675,0.05131
1036.26657,0.05013
1034.20640,0.04897
1032.14623,0.04801
1030.08606,0.04711
1028.02589,0.04592
1025.96571,0.04458
1023.90554,0.04342
1021.84537,0.04236
1019.78520,0.04125
1017.72503,0.04016
1015.66485,0.03917
1013.60468,0.03824
1011.54451,0.03729
1009.48434,0.03660
1007.42417,0.03635
1005.36399,0.03623
1003.30382,0.03588
1001.24365,0.03576
999.18348,0.03612
997.12330,0.03651
995.06313,0.03698
993.00296,0.03774
990.94279,0.03853
988.88262,0.03900
986.82244,0.03929
984.76227,0.03962
982.70210,0.03983
980.64193,0.03953
978.58176,0.03854
976.52158,0.03718
974.46141,0.03568
972.40124,0.03417
970.34107,0.03275
968.28089,0.03133
966.22072,0.02996
964.16055,0.02864
962.10038,0.02724
960.04021,0.02589
957.98003,0.02476
955.91986,0.02366
953.85969,0.02252
951.79952,0.02169
949.73935,0.02120
947.67917,0.02073
945.61900,0.02039
943.55883,0.02027
941.49866,0.02014
939.43849,0.01985
937.37831,0.01955
935.31814,0.01951
933.25797,0.01951
931.19780,0.01949
929.13762,0.01959
927.07745,0.01955
925.01728,0.01910
922.95711,0.01845
920.89694,0.01789
918.83676,0.01725
916.77659,0.01647
914.71642,0.01582
912.65625,0.01517
910.59608,0.01445
908.53590,0.01393
906.47573,0.01363
904.41556,0.01341
902.35539,0.01325
900.29522,0.01313
898.23504,0.01305
896.17487,0.01297
894.11470,0.01285
892.05453,0.01298
889.99435,0.01331
887.93418,0.01338
885.87401,0.01357
883.81384,0.01437
881.75367,0.01529
879.69349,0.01600
877.63332,0.01681
875.57315,0.01753
873.51298,0.01767
871.45281,0.01756
869.39263,0.01772
867.33246,0.01777
865.27229,0.01748
863.21212,0.01741
861.15194,0.01754
859.09177,0.01738
857.03160,0.01711
854.97143,0.01708
852.91126,0.01691
850.85108,0.01635
848.79091,0.01569
846.73074,0.01506
844.67057,0.01422
842.61040,0.01343
840.55022,0.01284
838.49005,0.01217
836.42988,0.01176
834.36971,0.01169
832.30954,0.01107
830.24936,0.00970
828.18919,0.00857
826.12902,0.00827
824.06885,0.00832
822.00867,0.00825
819.94850,0.00815
817.88833,0.00803
815.82816,0.00770
813.76799,0.00726
811.70781,0.00686
809.64764,0.00654
807.58747,0.00633
805.52730,0.00616
803.46713,0.00599
801.40695,0.00584
799.34678,0.00551
797.28661,0.00529
795.22644,0.00547
793.16627,0.00562
791.10609,0.00547
789.04592,0.00520
786.98575,0.00509
784.92558,0.00491
782.86540,0.00450
780.80523,0.00430
778.74506,0.00428
776.68489,0.00396
774.62472,0.00346
772.56454,0.00363
770.50437,0.00449
768.44420,0.00501
766.38403,0.00472
764.32386,0.00388
762.26368,0.00329
760.20351,0.00347
758.14334,0.00369
756.08317,0.00334
754.02299,0.00293
751.96282,0.00302
749.90265,0.00312
747.84248,0.00300
745.78231,0.00306
743.72213,0.00320
741.66196,0.00313
739.60179,0.00284
737.54162,0.00244
735.48145,0.00214
733.42127,0.00237
731.36110,0.00261
729.30093,0.00212
727.24076,0.00201
725.18059,0.00288
723.12041,0.00341
721.06024,0.00336
719.00007,0.00309
716.93990,0.00270
714.87972,0.00266
712.81955,0.00306
710.75938,0.00318
708.69921,0.00300
706.63904,0.00289
704.57886,0.00240
702.51869,0.00147
700.45852,0.00112
698.39835,0.00172
696.33818,0.00234
694.27800,0.00225
692.21783,0.00186
690.15766,0.00218
688.09749,0.00336
686.03731,0.00444
683.97714,0.00468
681.91697,0.00417
679.85680,0.00334
677.79663,0.00237
675.73645,0.00165
673.67628,0.00184
671.61611,0.00253
669.55594,0.00286
667.49577,0.00304
665.43559,0.00348
663.37542,0.00421
661.31525,0.00491
659.25508,0.00500
657.19491,0.00424
655.13473,0.00316
653.07456,0.00223
651.01439,0.00169
648.95422,0.00208
646.89404,0.00281
644.83387,0.00275
642.77370,0.00289
640.71353,0.00425
638.65336,0.00564
636.59318,0.00545
634.53301,0.00378
632.47284,0.00264
630.41267,0.00289
628.35250,0.00276
626.29232,0.00111
624.23215,0.00000
622.17198,0.00048
620.11181,0.00083
618.05164,0.00005
615.99146,-0.00014
613.93129,0.00046
611.87112,0.00175
609.81095,0.00354
607.75077,0.00364
605.69060,0.00099
603.63043,-0.00105
601.57026,-0.00063
599.51009,0.00000
