3996.73391,0.00000
3994.67373,0.00008
3992.61356,0.00018
3990.55339,0.00023
3988.49322,0.00032
3986.43305,0.00046
3984.37287,0.00076
3982.31270,0.00115
3980.25253,0.00115
3978.19236,0.00064
3976.13219,0.00018
3974.07201,0.00021
3972.01184,0.00051
3969.95167,0.00084
3967.89150,0.00121
3965.83133,0.00139
3963.77115,0.00121
3961.71098,0.00104
3959.65081,0.00112
3957.59064,0.00122
3955.53046,0.00127
3953.47029,0.00137
3951.41012,0.00145
3949.34995,0.00144
3947.28978,0.00148
3945.22960,0.00148
3943.16943,0.00145
3941.10926,0.00136
3939.04909,0.00111
3936.98892,0.00084
3934.92874,0.00076
3932.86857,0.00079
3930.80840,0.00074
3928.74823,0.00073
3926.68805,0.00108
3924.62788,0.00156
3922.56771,0.00151
3920.50754,0.00110
3918.44737,0.00109
3916.38719,0.00139
3914.32702,0.00124
3912.26685,0.00069
3910.20668,0.00033
3908.14651,0.00025
3906.08633,0.00054
3904.02616,0.00139
3901.96599,0.00212
3899.90582,0.00202
3897.84565,0.00147
3895.78547,0.00103
3893.72530,0.00091
3891.66513,0.00094
3889.60496,0.00065
3887.54478,0.00016
3885.48461,0.00003
3883.42444,0.00037
3881.36427,0.00098
3879.30410,0.00154
3877.24392,0.00153
3875.18375,0.00092
3873.12358,0.00026
3871.06341,0.00013
3869.00324,0.00046
3866.94306,0.00062
3864.88289,0.00053
3862.82272,0.00059
3860.76255,0.00086
3858.70237,0.00089
3856.64220,0.00067
3854.58203,0.00102
3852.52186,0.00221
3850.46169,0.00260
3848.40151,0.00188
3846.34134,0.00118
3844.28117,0.00090
3842.22100,0.00077
3840.16083,0.00068
3838.10065,0.00089
3836.04048,0.00126
3833.98031,0.00129
3831.92014,0.00112
3829.85997,0.00107
3827.79979,0.00117
3825.73962,0.00144
3823.67945,0.00171
3821.61928,0.00177
3819.55910,0.00143
3817.49893,0.00068
3815.43876,0.00015
3813.37859,0.00010
3811.31842,0.00014
3809.25824,0.00023
3807.19807,0.00036
3805.13790,0.00026
3803.07773,0.00010
3801.01756,0.00028
3798.95738,0.00033
3796.89721,0.00013
3794.83704,0.00035
3792.77687,0.00087
3790.71670,0.00109
3788.65652,0.00089
3786.59635,0.00052
3784.53618,0.00037
3782.47601,0.00057
3780.41583,0.00072
3778.35566,0.00055
3776.29549,0.00034
3774.23532,0.00039
3772.17515,0.00066
3770.11497,0.00081
3768.05480,0.00066
3765.99463,0.00046
3763.93446,0.00057
3761.87429,0.00095
3759.81411,0.00129
3757.75394,0.00148
3755.69377,0.00145
3753.63360,0.00109
3751.57342,0.00070
3749.51325,0.00074
3747.45308,0.00090
3745.39291,0.00101
3743.33274,0.00088
3741.27256,0.00031
3739.21239,0.00000
3737.15222,0.00056
3735.09205,0.00142
3733.03188,0.00134
3730.97170,0.00066
3728.91153,0.00053
3726.85136,0.00094
3724.79119,0.00141
3722.73102,0.00185
3720.67084,0.00206
3718.61067,0.00181
3716.55050,0.00116
3714.49033,0.00054
3712.43015,0.00035
3710.36998,0.00053
3708.30981,0.00086
3706.24964,0.00116
3704.18947,0.00120
3702.12929,0.00080
3700.06912,0.00049
3698.00895,0.00079
3695.94878,0.00130
3693.88861,0.00126
3691.82843,0.00062
3689.76826,0.00035
3687.70809,0.00116
3685.64792,0.00200
3683.58775,0.00197
3681.52757,0.00165
3679.46740,0.00178
3677.40723,0.00221
3675.34706,0.00247
3673.28688,0.00223
3671.22671,0.00176
3669.16654,0.00166
3667.10637,0.00199
3665.04620,0.00234
3662.98602,0.00256
3660.92585,0.00274
3658.86568,0.00284
3656.80551,0.00274
3654.74534,0.00255
3652.68516,0.00266
3650.62499,0.00348
3648.56482,0.00476
3646.50465,0.00531
3644.44447,0.00518
3642.38430,0.00544
3640.32413,0.00625
3638.26396,0.00677
3636.20379,0.00665
3634.14361,0.00654
3632.08344,0.00671
3630.02327,0.00688
3627.96310,0.00718
3625.90293,0.00759
3623.84275,0.00792
3621.78258,0.00855
3619.72241,0.00982
3617.66224,0.01126
3615.60207,0.01193
3613.54189,0.01167
3611.48172,0.01109
3609.42155,0.01086
3607.36138,0.01140
3605.30120,0.01242
3603.24103,0.01327
3601.18086,0.01363
3599.12069,0.01346
3597.06052,0.01339
3595.00034,0.01404
3592.94017,0.01498
3590.88000,0.01552
3588.81983,0.01587
3586.75966,0.01626
3584.69948,0.01631
3582.63931,0.01597
3580.57914,0.01595
3578.51897,0.01667
3576.45879,0.01776
3574.39862,0.01869
3572.33845,0.01921
3570.27828,0.01937
3568.21811,0.01945
3566.15793,0.01986
3564.09776,0.02055
3562.03759,0.02108
3559.97742,0.02122
3557.91725,0.02128
3555.85707,0.02166
3553.79690,0.02232
3551.73673,0.02280
3549.67656,0.02300
3547.61639,0.02331
3545.55621,0.02386
3543.49604,0.02431
3541.43587,0.02460
3539.37570,0.02497
3537.31552,0.02544
3535.25535,0.02576
3533.19518,0.02591
3531.13501,0.02629
3529.07484,0.02707
3527.01466,0.02780
3524.95449,0.02794
3522.89432,0.02780
3520.83415,0.02794
3518.77398,0.02839
3516.71380,0.02893
3514.65363,0.02951
3512.59346,0.03006
3510.53329,0.03031
3508.47312,0.03019
3506.41294,0.02990
3504.35277,0.02992
3502.29260,0.03046
3500.23243,0.03105
3498.17225,0.03147
3496.11208,0.03205
3494.05191,0.03256
3491.99174,0.03284
3489.93157,0.03343
3487.87139,0.03434
3485.81122,0.03481
3483.75105,0.03475
3481.69088,0.03473
3479.63071,0.03498
3477.57053,0.03539
3475.51036,0.03590
3473.45019,0.03631
3471.39002,0.03656
3469.32984,0.03665
3467.26967,0.03656
3465.20950,0.03657
3463.14933,0.03699
3461.08916,0.03747
3459.02898,0.03776
3456.96881,0.03821
3454.90864,0.03859
3452.84847,0.03856
3450.78830,0.03862
3448.72812,0.03890
3446.66795,0.03921
3444.60778,0.03956
3442.54761,0.03998
3440.48744,0.04041
3438.42726,0.04069
3436.36709,0.04075
3434.30692,0.04077
3432.24675,0.04104
3430.18657,0.04152
3428.12640,0.04197
3426.06623,0.04240
3424.00606,0.04267
3421.94589,0.04260
3419.88571,0.04248
3417.82554,0.04275
3415.76537,0.04328
3413.70520,0.04373
3411.64503,0.04413
3409.58485,0.04436
3407.52468,0.04426
3405.46451,0.04423
3403.40434,0.04458
3401.34416,0.04505
3399.28399,0.04533
3397.22382,0.04540
3395.16365,0.04539
3393.10348,0.04547
3391.04330,0.04563
3388.98313,0.04556
3386.92296,0.04535
3384.86279,0.04534
3382.80262,0.04575
3380.74244,0.04639
3378.68227,0.04679
3376.62210,0.04693
3374.56193,0.04697
3372.50176,0.04700
3370.44158,0.04712
3368.38141,0.04724
3366.32124,0.04710
3364.26107,0.04698
3362.20089,0.04719
3360.14072,0.04737
3358.08055,0.04733
3356.02038,0.04751
3353.96021,0.04787
3351.90003,0.04790
3349.83986,0.04776
3347.77969,0.04780
3345.71952,0.04792
3343.65935,0.04802
3341.59917,0.04817
3339.53900,0.04833
3337.47883,0.04843
3335.41866,0.04851
3333.35849,0.04867
3331.29831,0.04902
3329.23814,0.04949
3327.17797,0.04967
3325.11780,0.04936
3323.05762,0.04885
3320.99745,0.04847
3318.93728,0.04840
3316.87711,0.04866
3314.81694,0.04883
3312.75676,0.04883
3310.69659,0.04880
3308.63642,0.04856
3306.57625,0.04849
3304.51608,0.04899
3302.45590,0.04949
3300.39573,0.04954
3298.33556,0.04943
3296.27539,0.04950
3294.21521,0.04969
3292.15504,0.04974
3290.09487,0.04960
3288.03470,0.04959
3285.97453,0.04978
3283.91435,0.04972
3281.85418,0.04955
3279.79401,0.04963
3277.73384,0.04980
3275.67367,0.04996
3273.61349,0.05009
3271.55332,0.05017
3269.49315,0.05013
3267.43298,0.04990
3265.37281,0.04971
3263.31263,0.04954
3261.25246,0.04938
3259.19229,0.04957
3257.13212,0.05012
3255.07194,0.05062
3253.01177,0.05065
3250.95160,0.05025
3248.89143,0.05004
3246.83126,0.04997
3244.77108,0.04975
3242.71091,0.04979
3240.65074,0.05001
3238.59057,0.04985
3236.53040,0.04958
3234.47022,0.04968
3232.41005,0.05004
3230.34988,0.05031
3228.28971,0.05024
3226.22954,0.05009
3224.16936,0.05017
3222.10919,0.05022
3220.04902,0.05014
3217.98885,0.05013
3215.92867,0.05018
3213.86850,0.05005
3211.80833,0.04966
3209.74816,0.04926
3207.68799,0.04903
3205.62781,0.04903
3203.56764,0.04912
3201.50747,0.04918
3199.44730,0.04931
3197.38713,0.04955
3195.32695,0.04951
3193.26678,0.04916
3191.20661,0.04907
3189.14644,0.04922
3187.08626,0.04909
3185.02609,0.04881
3182.96592,0.04870
3180.90575,0.04872
3178.84558,0.04879
3176.78540,0.04891
3174.72523,0.04870
3172.66506,0.04804
3170.60489,0.04759
3168.54472,0.04751
3166.48454,0.04730
3164.42437,0.04698
3162.36420,0.04706
3160.30403,0.04737
3158.24386,0.04743
3156.18368,0.04724
3154.12351,0.04688
3152.06334,0.04632
3150.00317,0.04605
3147.94299,0.04627
3145.88282,0.04646
3143.82265,0.04636
3141.76248,0.04623
3139.70231,0.04612
3137.64213,0.04581
3135.58196,0.04547
3133.52179,0.04520
3131.46162,0.04487
3129.40145,0.04459
3127.34127,0.04447
3125.28110,0.04435
3123.22093,0.04408
3121.16076,0.04386
3119.10058,0.04385
3117.04041,0.04381
3114.98024,0.04355
3112.92007,0.04335
3110.85990,0.04339
3108.79972,0.04341
3106.73955,0.04317
3104.67938,0.04284
3102.61921,0.04257
3100.55904,0.04229
3098.49886,0.04204
3096.43869,0.04192
3094.37852,0.04195
3092.31835,0.04196
3090.25818,0.04169
3088.19800,0.04124
3086.13783,0.04087
3084.07766,0.04067
3082.01749,0.04056
3079.95731,0.04048
3077.89714,0.04035
3075.83697,0.04021
3073.77680,0.04013
3071.71663,0.03995
3069.65645,0.03959
3067.59628,0.03925
3065.53611,0.03906
3063.47594,0.03901
3061.41577,0.03892
3059.35559,0.03860
3057.29542,0.03825
3055.23525,0.03820
3053.17508,0.03827
3051.11491,0.03811
3049.05473,0.03780
3046.99456,0.03754
3044.93439,0.03736
3042.87422,0.03710
3040.81404,0.03667
3038.75387,0.03636
3036.69370,0.03631
3034.63353,0.03624
3032.57336,0.03586
3030.51318,0.03530
3028.45301,0.03494
3026.39284,0.03488
3024.33267,0.03481
3022.27250,0.03465
3020.21232,0.03469
3018.15215,0.03478
3016.09198,0.03450
3014.03181,0.03383
3011.97163,0.03323
3009.91146,0.03310
3007.85129,0.03319
3005.79112,0.03309
3003.73095,0.03291
3001.67077,0.03284
2999.61060,0.03277
2997.55043,0.03254
2995.49026,0.03216
2993.43009,0.03179
2991.36991,0.03168
2989.30974,0.03164
2987.24957,0.03129
2985.18940,0.03088
2983.12923,0.03077
2981.06905,0.03097
2979.00888,0.03112
2976.94871,0.03094
2974.88854,0.03060
2972.82836,0.03033
2970.76819,0.03008
2968.70802,0.03000
2966.64785,0.03018
2964.58768,0.03031
2962.52750,0.03020
2960.46733,0.03015
2958.40716,0.03018
2956.34699,0.03017
2954.28682,0.03019
2952.22664,0.03017
2950.16647,0.02997
2948.10630,0.02974
2946.04613,0.02975
2943.98596,0.02994
2941.92578,0.02993
2939.86561,0.02985
2937.80544,0.03002
2935.74527,0.03004
2933.68509,0.02974
2931.62492,0.02958
2929.56475,0.02955
2927.50458,0.02933
2925.44441,0.02910
2923.38423,0.02908
2921.32406,0.02897
2919.26389,0.02881
2917.20372,0.02886
2915.14355,0.02874
2913.08337,0.02837
2911.02320,0.02818
2908.96303,0.02820
2906.90286,0.02805
2904.84268,0.02768
2902.78251,0.02742
2900.72234,0.02739
2898.66217,0.02742
2896.60200,0.02735
2894.54182,0.02705
2892.48165,0.02683
2890.42148,0.02686
2888.36131,0.02696
2886.30114,0.02700
2884.24096,0.02702
2882.18079,0.02693
2880.12062,0.02665
2878.06045,0.02623
2876.00028,0.02598
2873.94010,0.02613
2871.87993,0.02629
2869.81976,0.02595
2867.75959,0.02555
2865.69941,0.02562
2863.63924,0.02575
2861.57907,0.02554
2859.51890,0.02515
2857.45873,0.02489
2855.39855,0.02489
2853.33838,0.02493
2851.27821,0.02488
2849.21804,0.02478
2847.15787,0.02469
2845.09769,0.02453
2843.03752,0.02438
2840.97735,0.02430
2838.91718,0.02402
2836.85700,0.02368
2834.79683,0.02375
2832.73666,0.02413
2830.67649,0.02436
2828.61632,0.02423
2826.55614,0.02384
2824.49597,0.02355
2822.43580,0.02345
2820.37563,0.02332
2818.31546,0.02300
2816.25528,0.02268
2814.19511,0.02256
2812.13494,0.02262
2810.07477,0.02275
2808.01460,0.02272
2805.95442,0.02258
2803.89425,0.02243
2801.83408,0.02217
2799.77391,0.02182
2797.71373,0.02166
2795.65356,0.02170
2793.59339,0.02175
2791.53322,0.02175
2789.47305,0.02177
2787.41287,0.02171
2785.35270,0.02152
2783.29253,0.02146
2781.23236,0.02141
2779.17219,0.02126
2777.11201,0.02123
2775.05184,0.02105
2772.99167,0.02058
2770.93150,0.02023
2768.87133,0.02021
2766.81115,0.02024
2764.75098,0.02019
2762.69081,0.02017
2760.63064,0.02023
2758.57046,0.02028
2756.51029,0.02020
2754.45012,0.01996
2752.38995,0.01972
2750.32978,0.01958
2748.26960,0.01956
2746.20943,0.01959
2744.14926,0.01949
2742.08909,0.01931
2740.02892,0.01907
2737.96874,0.01882
2735.90857,0.01871
2733.84840,0.01879
2731.78823,0.01886
2729.72805,0.01869
2727.66788,0.01851
2725.60771,0.01854
2723.54754,0.01852
2721.48737,0.01825
2719.42719,0.01788
2717.36702,0.01765
2715.30685,0.01758
2713.24668,0.01766
2711.18651,0.01784
2709.12633,0.01776
2707.06616,0.01739
2705.00599,0.01716
2702.94582,0.01721
2700.88565,0.01742
2698.82547,0.01758
2696.76530,0.01756
2694.70513,0.01736
2692.64496,0.01702
2690.58478,0.01668
2688.52461,0.01655
2686.46444,0.01659
2684.40427,0.01670
2682.34410,0.01671
2680.28392,0.01656
2678.22375,0.01635
2676.16358,0.01616
2674.10341,0.01599
2672.04324,0.01581
2669.98306,0.01562
2667.92289,0.01554
2665.86272,0.01548
2663.80255,0.01537
2661.74238,0.01536
2659.68220,0.01539
2657.62203,0.01534
2655.56186,0.01523
2653.50169,0.01514
2651.44151,0.01506
2649.38134,0.01493
2647.32117,0.01463
2645.26100,0.01428
2643.20083,0.01413
2641.14065,0.01415
2639.08048,0.01399
2637.02031,0.01372
2634.96014,0.01364
2632.89997,0.01377
2630.83979,0.01383
2628.77962,0.01360
2626.71945,0.01332
2624.65928,0.01320
2622.59910,0.01305
2620.53893,0.01286
2618.47876,0.01283
2616.41859,0.01289
2614.35842,0.01287
2612.29824,0.01271
2610.23807,0.01252
2608.17790,0.01236
2606.11773,0.01218
2604.05756,0.01210
2601.99738,0.01225
2599.93721,0.01238
2597.87704,0.01220
2595.81687,0.01182
2593.75670,0.01170
2591.69652,0.01188
2589.63635,0.01209
2587.57618,0.01239
2585.51601,0.01264
2583.45583,0.01248
2581.39566,0.01210
2579.33549,0.01188
2577.27532,0.01182
2575.21515,0.01175
2573.15497,0.01170
2571.09480,0.01197
2569.03463,0.01238
2566.97446,0.01236
2564.91429,0.01190
2562.85411,0.01151
2560.79394,0.01140
2558.73377,0.01124
2556.67360,0.01104
2554.61342,0.01108
2552.55325,0.01120
2550.49308,0.01116
2548.43291,0.01108
2546.37274,0.01116
2544.31256,0.01129
2542.25239,0.01121
2540.19222,0.01094
2538.13205,0.01081
2536.07188,0.01094
2534.01170,0.01116
2531.95153,0.01143
2529.89136,0.01161
2527.83119,0.01154
2525.77102,0.01142
2523.71084,0.01141
2521.65067,0.01126
2519.59050,0.01104
2517.53033,0.01108
2515.47015,0.01130
2513.40998,0.01135
2511.34981,0.01119
2509.28964,0.01092
2507.22947,0.01077
2505.16929,0.01095
2503.10912,0.01122
2501.04895,0.01137
2498.98878,0.01154
2496.92861,0.01178
2494.86843,0.01200
2492.80826,0.01218
2490.74809,0.01226
2488.68792,0.01224
2486.62775,0.01210
2484.56757,0.01190
2482.50740,0.01165
2480.44723,0.01135
2478.38706,0.01107
2476.32688,0.01088
2474.26671,0.01101
2472.20654,0.01148
2470.14637,0.01205
2468.08620,0.01236
2466.02602,0.01222
2463.96585,0.01190
2461.90568,0.01164
2459.84551,0.01183
2457.78534,0.01242
2455.72516,0.01281
2453.66499,0.01294
2451.60482,0.01293
2449.54465,0.01271
2447.48447,0.01231
2445.42430,0.01201
2443.36413,0.01205
2441.30396,0.01241
2439.24379,0.01277
2437.18361,0.01278
2435.12344,0.01252
2433.06327,0.01226
2431.00310,0.01229
2428.94293,0.01260
2426.88275,0.01272
2424.82258,0.01230
2422.76241,0.01183
2420.70224,0.01210
2418.64207,0.01262
2416.58189,0.01246
2414.52172,0.01200
2412.46155,0.01203
2410.40138,0.01220
2408.34120,0.01203
2406.28103,0.01178
2404.22086,0.01162
2402.16069,0.01149
2400.10052,0.01142
2398.04034,0.01175
2395.98017,0.01225
2393.92000,0.01250
2391.85983,0.01245
2389.79966,0.01233
2387.73948,0.01226
2385.67931,0.01226
2383.61914,0.01251
2381.55897,0.01296
2379.49880,0.01319
2377.43862,0.01292
2375.37845,0.01238
2373.31828,0.01183
2371.25811,0.01163
2369.19793,0.01231
2367.13776,0.01356
2365.07759,0.01475
2363.01742,0.01531
2360.95725,0.01353
2358.89707,0.01138
2356.83690,0.01094
2354.77673,0.01213
2352.71656,0.01338
2350.65639,0.01271
2348.59621,0.01214
2346.53604,0.01362
2344.47587,0.01413
2342.41570,0.01476
2340.35552,0.01568
2338.29535,0.01589
2336.23518,0.01605
2334.17501,0.01568
2332.11484,0.01478
2330.05466,0.01429
2327.99449,0.01462
2325.93432,0.01476
2323.87415,0.01456
2321.81398,0.01361
2319.75380,0.01237
2317.69363,0.01131
2315.63346,0.01135
2313.57329,0.01214
2311.51312,0.01261
2309.45294,0.01240
2307.39277,0.01198
2305.33260,0.01173
2303.27243,0.01179
2301.21225,0.01188
2299.15208,0.01152
2297.09191,0.01133
2295.03174,0.01164
2292.97157,0.01175
2290.91139,0.01168
2288.85122,0.01185
2286.79105,0.01199
2284.73088,0.01186
2282.67071,0.01158
2280.61053,0.01117
2278.55036,0.01070
2276.49019,0.01048
2274.43002,0.01054
2272.36984,0.01050
2270.30967,0.01014
2268.24950,0.00984
2266.18933,0.00980
2264.12916,0.00971
2262.06898,0.00941
2260.00881,0.00927
2257.94864,0.00955
2255.88847,0.00993
2253.82830,0.01025
2251.76812,0.01023
2249.70795,0.00969
2247.64778,0.00943
2245.58761,0.00994
2243.52744,0.01028
2241.46726,0.00992
2239.40709,0.00948
2237.34692,0.00961
2235.28675,0.01013
2233.22657,0.01022
2231.16640,0.00968
2229.10623,0.00922
2227.04606,0.00852
2224.98589,0.00750
2222.92571,0.00744
2220.86554,0.00832
2218.80537,0.00906
2216.74520,0.00942
2214.68503,0.00936
2212.62485,0.00871
2210.56468,0.00781
2208.50451,0.00727
2206.44434,0.00714
2204.38417,0.00679
2202.32399,0.00572
2200.26382,0.00514
2198.20365,0.00588
2196.14348,0.00644
2194.08330,0.00633
2192.02313,0.00658
2189.96296,0.00729
2187.90279,0.00761
2185.84262,0.00709
2183.78244,0.00635
2181.72227,0.00594
2179.66210,0.00577
2177.60193,0.00562
2175.54176,0.00591
2173.48158,0.00641
2171.42141,0.00576
2169.36124,0.00466
2167.30107,0.00462
2165.24089,0.00535
2163.18072,0.00619
2161.12055,0.00581
2159.06038,0.00402
2157.00021,0.00345
2154.94003,0.00455
2152.87986,0.00519
2150.81969,0.00486
2148.75952,0.00467
2146.69935,0.00483
2144.63917,0.00500
2142.57900,0.00522
2140.51883,0.00558
2138.45866,0.00592
2136.39849,0.00563
2134.33831,0.00489
2132.27814,0.00482
2130.21797,0.00551
2128.15780,0.00610
2126.09762,0.00642
2124.03745,0.00611
2121.97728,0.00517
2119.91711,0.00500
2117.85694,0.00623
2115.79676,0.00723
2113.73659,0.00678
2111.67642,0.00580
2109.61625,0.00522
2107.55608,0.00521
2105.49590,0.00543
2103.43573,0.00558
2101.37556,0.00581
2099.31539,0.00596
2097.25521,0.00594
2095.19504,0.00608
2093.13487,0.00616
2091.07470,0.00564
2089.01453,0.00510
2086.95435,0.00506
2084.89418,0.00525
2082.83401,0.00555
2080.77384,0.00573
2078.71367,0.00554
2076.65349,0.00506
2074.59332,0.00425
2072.53315,0.00366
2070.47298,0.00403
2068.41281,0.00481
2066.35263,0.00484
2064.29246,0.00432
2062.23229,0.00426
2060.17212,0.00460
2058.11194,0.00486
2056.05177,0.00511
2053.99160,0.00557
2051.93143,0.00570
2049.87126,0.00480
2047.81108,0.00343
2045.75091,0.00291
2043.69074,0.00349
2041.63057,0.00397
2039.57040,0.00362
2037.51022,0.00321
2035.45005,0.00361
2033.38988,0.00418
2031.32971,0.00376
2029.26954,0.00305
2027.20936,0.00305
2025.14919,0.00277
2023.08902,0.00204
2021.02885,0.00235
2018.96867,0.00342
2016.90850,0.00395
2014.84833,0.00366
2012.78816,0.00288
2010.72799,0.00244
2008.66781,0.00273
2006.60764,0.00292
2004.54747,0.00240
2002.48730,0.00177
2000.42713,0.00217
1998.36695,0.00339
1996.30678,0.00396
1994.24661,0.00373
1992.18644,0.00355
1990.12626,0.00378
1988.06609,0.00421
1986.00592,0.00417
1983.94575,0.00382
1981.88558,0.00384
1979.82540,0.00372
1977.76523,0.00350
1975.70506,0.00302
1973.64489,0.00254
1971.58472,0.00394
1969.52454,0.00556
1967.46437,0.00495
1965.40420,0.00368
1963.34403,0.00316
1961.28386,0.00249
1959.22368,0.00115
1957.16351,0.00000
1955.10334,0.00055
1953.04317,0.00261
1950.98299,0.00364
1948.92282,0.00309
1946.86265,0.00274
1944.80248,0.00292
1942.74231,0.00282
1940.68213,0.00273
1938.62196,0.00296
1936.56179,0.00350
1934.50162,0.00422
1932.44145,0.00448
1930.38127,0.00412
1928.32110,0.00349
1926.26093,0.00281
1924.20076,0.00279
1922.14059,0.00368
1920.08041,0.00435
1918.02024,0.00403
1915.96007,0.00331
1913.89990,0.00295
1911.83972,0.00295
1909.77955,0.00329
1907.71938,0.00403
1905.65921,0.00467
1903.59904,0.00464
1901.53886,0.00407
1899.47869,0.00373
1897.41852,0.00382
1895.35835,0.00355
1893.29818,0.00288
1891.23800,0.00269
1889.17783,0.00325
1887.11766,0.00392
1885.05749,0.00426
1882.99731,0.00429
1880.93714,0.00402
1878.87697,0.00359
1876.81680,0.00357
1874.75663,0.00410
1872.69645,0.00444
1870.63628,0.00412
1868.57611,0.00368
1866.51594,0.00381
1864.45577,0.00437
1862.39559,0.00480
1860.33542,0.00480
1858.27525,0.00446
1856.21508,0.00416
1854.15491,0.00417
1852.09473,0.00426
1850.03456,0.00402
1847.97439,0.00339
1845.91422,0.00285
1843.85404,0.00291
1841.79387,0.00351
1839.73370,0.00416
1837.67353,0.00463
1835.61336,0.00482
1833.55318,0.00462
1831.49301,0.00420
1829.43284,0.00398
1827.37267,0.00401
1825.31250,0.00406
1823.25232,0.00407
1821.19215,0.00410
1819.13198,0.00417
1817.07181,0.00415
1815.01163,0.00387
1812.95146,0.00356
1810.89129,0.00362
1808.83112,0.00401
1806.77095,0.00432
1804.71077,0.00426
1802.65060,0.00399
1800.59043,0.00389
1798.53026,0.00397
1796.47009,0.00396
1794.40991,0.00376
1792.34974,0.00364
1790.28957,0.00382
1788.22940,0.00401
1786.16923,0.00408
1784.10905,0.00426
1782.04888,0.00459
1779.98871,0.00482
1777.92854,0.00472
1775.86836,0.00443
1773.80819,0.00428
1771.74802,0.00451
1769.68785,0.00490
1767.62768,0.00508
1765.56750,0.00508
1763.50733,0.00507
1761.44716,0.00509
1759.38699,0.00513
1757.32682,0.00519
1755.26664,0.00533
1753.20647,0.00555
1751.14630,0.00574
1749.08613,0.00587
1747.02596,0.00597
1744.96578,0.00612
1742.90561,0.00644
1740.84544,0.00690
1738.78527,0.00729
1736.72509,0.00741
1734.66492,0.00736
1732.60475,0.00745
1730.54458,0.00775
1728.48441,0.00803
1726.42423,0.00818
1724.36406,0.00834
1722.30389,0.00850
1720.24372,0.00867
1718.18355,0.00902
1716.12337,0.00949
1714.06320,0.00974
1712.00303,0.00987
1709.94286,0.01010
1707.88268,0.01037
1705.82251,0.01046
1703.76234,0.01047
1701.70217,0.01084
1699.64200,0.01144
1697.58182,0.01171
1695.52165,0.01186
1693.46148,0.01212
1691.40131,0.01230
1689.34114,0.01233
1687.28096,0.01231
1685.22079,0.01251
1683.16062,0.01313
1681.10045,0.01371
1679.04028,0.01404
1676.98010,0.01435
1674.91993,0.01481
1672.85976,0.01529
1670.79959,0.01562
1668.73941,0.01580
1666.67924,0.01583
1664.61907,0.01581
1662.55890,0.01597
1660.49873,0.01637
1658.43855,0.01672
1656.37838,0.01682
1654.31821,0.01670
1652.25804,0.01668
1650.19787,0.01677
1648.13769,0.01675
1646.07752,0.01666
1644.01735,0.01656
1641.95718,0.01643
1639.89701,0.01639
1637.83683,0.01655
1635.77666,0.01671
1633.71649,0.01656
1631.65632,0.01618
1629.59614,0.01583
1627.53597,0.01557
1625.47580,0.01541
1623.41563,0.01532
1621.35546,0.01514
1619.29528,0.01487
1617.23511,0.01466
1615.17494,0.01453
1613.11477,0.01434
1611.05460,0.01411
1608.99442,0.01397
1606.93425,0.01393
1604.87408,0.01370
1602.81391,0.01321
1600.75373,0.01273
1598.69356,0.01239
1596.63339,0.01200
1594.57322,0.01156
1592.51305,0.01116
1590.45287,0.01073
1588.39270,0.01029
1586.33253,0.00993
1584.27236,0.00952
1582.21219,0.00911
1580.15201,0.00887
1578.09184,0.00868
1576.03167,0.00821
1573.97150,0.00764
1571.91133,0.00725
1569.85115,0.00697
1567.79098,0.00674
1565.73081,0.00664
1563.67064,0.00664
1561.61046,0.00656
1559.55029,0.00628
1557.49012,0.00583
1555.42995,0.00541
1553.36978,0.00516
1551.30960,0.00500
1549.24943,0.00480
1547.18926,0.00451
1545.12909,0.00421
1543.06892,0.00401
1541.00874,0.00403
1538.94857,0.00413
1536.88840,0.00405
1534.82823,0.00382
1532.76805,0.00348
1530.70788,0.00311
1528.64771,0.00281
1526.58754,0.00258
1524.52737,0.00249
1522.46719,0.00259
1520.40702,0.00278
1518.34685,0.00286
1516.28668,0.00271
1514.22651,0.00245
1512.16633,0.00225
1510.10616,0.00200
1508.04599,0.00171
1505.98582,0.00186
1503.92565,0.00213
1501.86547,0.00207
1499.80530,0.00187
1497.74513,0.00164
1495.68496,0.00142
1493.62478,0.00129
1491.56461,0.00125
1489.50444,0.00132
1487.44427,0.00142
1485.38410,0.00144
1483.32392,0.00153
1481.26375,0.00174
1479.20358,0.00187
1477.14341,0.00185
1475.08324,0.00194
1473.02306,0.00224
1470.96289,0.00243
1468.90272,0.00238
1466.84255,0.00236
1464.78238,0.00242
1462.72220,0.00244
1460.66203,0.00246
1458.60186,0.00278
1456.54169,0.00334
1454.48151,0.00358
1452.42134,0.00349
1450.36117,0.00334
1448.30100,0.00313
1446.24083,0.00290
1444.18065,0.00275
1442.12048,0.00271
1440.06031,0.00277
1438.00014,0.00277
1435.93997,0.00248
1433.87979,0.00207
1431.81962,0.00183
1429.75945,0.00180
1427.69928,0.00184
1425.63910,0.00192
1423.57893,0.00214
1421.51876,0.00242
1419.45859,0.00266
1417.39842,0.00277
1415.33824,0.00267
1413.27807,0.00243
1411.21790,0.00220
1409.15773,0.00215
1407.09756,0.00225
1405.03738,0.00227
1402.97721,0.00215
1400.91704,0.00208
1398.85687,0.00215
1396.79670,0.00222
1394.73652,0.00219
1392.67635,0.00210
1390.61618,0.00205
1388.55601,0.00208
1386.49583,0.00208
1384.43566,0.00207
1382.37549,0.00227
1380.31532,0.00263
1378.25515,0.00288
1376.19497,0.00300
1374.13480,0.00317
1372.07463,0.00334
1370.01446,0.00338
1367.95429,0.00329
1365.89411,0.00310
1363.83394,0.00286
1361.77377,0.00268
1359.71360,0.00258
1357.65343,0.00253
1355.59325,0.00248
1353.53308,0.00238
1351.47291,0.00237
1349.41274,0.00244
1347.35256,0.00236
1345.29239,0.00220
1343.23222,0.00220
1341.17205,0.00230
1339.11188,0.00241
1337.05170,0.00248
1334.99153,0.00243
1332.93136,0.00231
1330.87119,0.00225
1328.81102,0.00219
1326.75084,0.00204
1324.69067,0.00181
1322.63050,0.00161
1320.57033,0.00156
1318.51015,0.00164
1316.44998,0.00167
1314.38981,0.00150
1312.32964,0.00138
1310.26947,0.00144
1308.20929,0.00154
1306.14912,0.00153
1304.08895,0.00136
1302.02878,0.00121
1299.96861,0.00128
1297.90843,0.00137
1295.84826,0.00136
1293.78809,0.00144
1291.72792,0.00157
1289.66775,0.00168
1287.60757,0.00178
1285.54740,0.00183
1283.48723,0.00180
1281.42706,0.00171
1279.36688,0.00157
1277.30671,0.00148
1275.24654,0.00146
1273.18637,0.00147
1271.12620,0.00158
1269.06602,0.00179
1267.00585,0.00190
1264.94568,0.00180
1262.88551,0.00171
1260.82534,0.00186
1258.76516,0.00207
1256.70499,0.00204
1254.64482,0.00180
1252.58465,0.00144
1250.52447,0.00109
1248.46430,0.00091
1246.40413,0.00095
1244.34396,0.00109
1242.28379,0.00121
1240.22361,0.00128
1238.16344,0.00125
1236.10327,0.00108
1234.04310,0.00093
1231.98293,0.00084
1229.92275,0.00077
1227.86258,0.00075
1225.80241,0.00067
1223.74224,0.00058
1221.68207,0.00054
1219.62189,0.00038
1217.56172,0.00014
1215.50155,0.00000
1213.44138,-0.00003
1211.38120,0.00002
1209.32103,0.00006
1207.26086,0.00005
1205.20069,0.00011
1203.14052,0.00011
1201.08034,-0.00001
1199.02017,0.00000
1196.96000,0.00018
1194.89983,0.00041
1192.83966,0.00064
1190.77948,0.00090
1188.71931,0.00135
1186.65914,0.00180
1184.59897,0.00200
1182.53880,0.00235
1180.47862,0.00308
1178.41845,0.00389
1176.35828,0.00460
1174.29811,0.00537
1172.23793,0.00630
1170.17776,0.00719
1168.11759,0.00781
1166.05742,0.00821
1163.99725,0.00875
1161.93707,0.00954
1159.87690,0.01023
1157.81673,0.01090
1155.75656,0.01173
1153.69639,0.01253
1151.63621,0.01329
1149.57604,0.01420
1147.51587,0.01513
1145.45570,0.01588
1143.39552,0.01672
1141.33535,0.01786
1139.27518,0.01890
1137.21501,0.01966
1135.15484,0.02037
1133.09466,0.02125
1131.03449,0.02230
1128.97432,0.02334
1126.91415,0.02441
1124.85398,0.02562
1122.79380,0.02681
1120.73363,0.02782
1118.67346,0.02872
1116.61329,0.02971
1114.55312,0.03087
1112.49294,0.03209
1110.43277,0.03313
1108.37260,0.03408
1106.31243,0.03535
1104.25225,0.03692
1102.19208,0.03844
1100.13191,0.03974
1098.07174,0.04096
1096.01157,0.04206
1093.95139,0.04300
1091.89122,0.04391
1089.83105,0.04483
1087.77088,0.04588
1085.71071,0.04706
1083.65053,0.04805
1081.59036,0.04874
1079.53019,0.04947
1077.47002,0.05041
1075.40985,0.05137
1073.34967,0.05217
1071.28950,0.05265
1069.22933,0.05265
1067.16916,0.05247
1065.10898,0.05261
1063.04881,0.05292
1060.98864,0.05296
1058.92847,0.05262
1056.86830,0.05212
1054.80812,0.05169
1052.74795,0.05131
1050.68778,0.05085
1048.62761,0.05025
1046.56744,0.04943
1044.50726,0.04832
1042.44709,0.04700
1040.38692,0.04585
1038.32675,0.04502
1036.26657,0.04399
1034.20640,0.04257
1032.14623,0.04140
1030.08606,0.04059
1028.02589,0.03967
1025.96571,0.03862
1023.90554,0.03760
1021.84537,0.03665
1019.78520,0.03585
1017.72503,0.03514
1015.66485,0.03443
1013.60468,0.03369
1011.54451,0.03296
1009.48434,0.03240
1007.42417,0.03209
1005.36399,0.03196
1003.30382,0.03186
1001.24365,0.03185
999.18348,0.03202
997.12330,0.03246
995.06313,0.03320
993.00296,0.03415
990.94279,0.03496
988.88262,0.03539
986.82244,0.03568
984.76227,0.03607
982.70210,0.03641
980.64193,0.03630
978.58176,0.03556
976.52158,0.03454
974.46141,0.03350
972.40124,0.03229
970.34107,0.03095
968.28089,0.02965
966.22072,0.02833
964.16055,0.02683
962.10038,0.02550
960.04021,0.02453
957.98003,0.02357
955.91986,0.02237
953.85969,0.02128
951.79952,0.02055
949.73935,0.02004
947.67917,0.01951
945.61900,0.01900
943.55883,0.01871
941.49866,0.01876
939.43849,0.01891
937.37831,0.01891
935.31814,0.01891
933.25797,0.01889
931.19780,0.01869
929.13762,0.01841
927.07745,0.01812
925.01728,0.01787
922.95711,0.01753
920.89694,0.01700
918.83676,0.01640
916.77659,0.01583
914.71642,0.01531
912.65625,0.01478
910.59608,0.01427
908.53590,0.01409
906.47573,0.01403
904.41556,0.01366
902.35539,0.01331
900.29522,0.01305
898.23504,0.01279
896.17487,0.01276
894.11470,0.01271
892.05453,0.01272
889.99435,0.01292
887.93418,0.01312
885.87401,0.01347
883.81384,0.01409
881.75367,0.01478
879.69349,0.01537
877.63332,0.01583
875.57315,0.01615
873.51298,0.01627
871.45281,0.01632
869.39263,0.01657
867.33246,0.01697
865.27229,0.01719
863.21212,0.01704
861.15194,0.01686
859.09177,0.01680
857.03160,0.01662
854.97143,0.01656
852.91126,0.01681
850.85108,0.01691
848.79091,0.01652
846.73074,0.01548
844.67057,0.01400
842.61040,0.01303
840.55022,0.01267
838.49005,0.01207
836.42988,0.01145
834.36971,0.01104
832.30954,0.01039
830.24936,0.00965
828.18919,0.00912
826.12902,0.00859
824.06885,0.00816
822.00867,0.00796
819.94850,0.00755
817.88833,0.00693
815.82816,0.00664
813.76799,0.00642
811.70781,0.00594
809.64764,0.00568
807.58747,0.00577
805.52730,0.00555
803.46713,0.00513
801.40695,0.00493
799.34678,0.00456
797.28661,0.00419
795.22644,0.00432
793.16627,0.00441
791.10609,0.00402
789.04592,0.00374
786.98575,0.00415
784.92558,0.00473
782.86540,0.00451
780.80523,0.00389
778.74506,0.00392
776.68489,0.00422
774.62472,0.00414
772.56454,0.00398
770.50437,0.00381
768.44420,0.00360
766.38403,0.00349
764.32386,0.00330
762.26368,0.00313
760.20351,0.00341
758.14334,0.00398
756.08317,0.00399
754.02299,0.00318
751.96282,0.00253
749.90265,0.00275
747.84248,0.00317
745.78231,0.00311
743.72213,0.00281
741.66196,0.00262
739.60179,0.00229
737.54162,0.00175
735.48145,0.00129
733.42127,0.00118
731.36110,0.00133
729.30093,0.00138
727.24076,0.00184
725.18059,0.00300
723.12041,0.00304
721.06024,0.00203
719.00007,0.00087
716.93990,0.00071
714.87972,0.00136
712.81955,0.00194
710.75938,0.00207
708.69921,0.00196
706.63904,0.00202
704.57886,0.00224
702.51869,0.00243
700.45852,0.00252
698.39835,0.00228
696.33818,0.00178
694.27800,0.00148
692.21783,0.00178
690.15766,0.00262
688.09749,0.00312
686.03731,0.00272
683.97714,0.00198
681.91697,0.00143
679.85680,0.00154
677.79663,0.00246
675.73645,0.00299
673.67628,0.00247
671.61611,0.00244
669.55594,0.00528
667.49577,0.00617
665.43559,0.00211
663.37542,0.00212
661.31525,0.00285
659.25508,0.00215
657.19491,0.00074
655.13473,0.00000
653.07456,0.00029
651.01439,0.00033
648.95422,0.00000
646.89404,-0.00008
644.83387,-0.00011
642.77370,0.00003
640.71353,0.00161
638.65336,0.00435
636.59318,0.00598
634.53301,0.00513
632.47284,0.00338
630.41267,0.00250
628.35250,0.00185
626.29232,0.00044
624.23215,-0.00053
622.17198,-0.00061
620.11181,-0.00081
618.05164,-0.00068
615.99146,0.00044
613.93129,0.00073
611.87112,0.00034
609.81095,0.00202
607.75077,0.00410
605.69060,0.00273
603.63043,-0.00021
601.57026,-0.00120
599.51009,0.00000
