3996.73391,0.00040
3994.67373,0.00054
3992.61356,0.00047
3990.55339,0.00035
3988.49322,0.00029
3986.43305,0.00029
3984.37287,0.00045
3982.31270,0.00061
3980.25253,0.00049
3978.19236,0.00023
3976.13219,0.00024
3974.07201,0.00068
3972.01184,0.00106
3969.95167,0.00093
3967.89150,0.00041
3965.83133,0.00000
3963.77115,0.00000
3961.71098,0.00027
3959.65081,0.00063
3957.59064,0.00096
3955.53046,0.00110
3953.47029,0.00094
3951.41012,0.00061
3949.34995,0.00042
3947.28978,0.00052
3945.22960,0.00073
3943.16943,0.00084
3941.10926,0.00076
3939.04909,0.00063
3936.98892,0.00062
3934.92874,0.00057
3932.86857,0.00033
3930.80840,0.00016
3928.74823,0.00039
3926.68805,0.00079
3924.62788,0.00098
3922.56771,0.00105
3920.50754,0.00117
3918.44737,0.00118
3916.38719,0.00095
3914.32702,0.00081
3912.26685,0.00107
3910.20668,0.00140
3908.14651,0.00143
3906.08633,0.00120
3904.02616,0.00074
3901.96599,0.00035
3899.90582,0.00043
3897.84565,0.00084
3895.78547,0.00126
3893.72530,0.00144
3891.66513,0.00132
3889.60496,0.00118
3887.54478,0.00117
3885.48461,0.00096
3883.42444,0.00042
3881.36427,0.00000
3879.30410,0.00032
3877.24392,0.00125
3875.18375,0.00182
3873.12358,0.00160
3871.06341,0.00105
3869.00324,0.00073
3866.94306,0.00072
3864.88289,0.00076
3862.82272,0.00078
3860.76255,0.00082
3858.70237,0.00084
3856.64220,0.00091
3854.58203,0.00107
3852.52186,0.00117
3850.46169,0.00129
3848.40151,0.00162
3846.34134,0.00187
3844.28117,0.00169
3842.22100,0.00117
3840.16083,0.00063
3838.10065,0.00035
3836.04048,0.00049
3833.98031,0.00084
3831.92014,0.00112
3829.85997,0.00128
3827.79979,0.00129
3825.73962,0.00139
3823.67945,0.00186
3821.61928,0.00224
3819.55910,0.00188
3817.49893,0.00108
3815.43876,0.00065
3813.37859,0.00090
3811.31842,0.00129
3809.25824,0.00136
3807.19807,0.00126
3805.13790,0.00121
3803.07773,0.00102
3801.01756,0.00074
3798.95738,0.00075
3796.89721,0.00089
3794.83704,0.00088
3792.77687,0.00089
3790.71670,0.00110
3788.65652,0.00143
3786.59635,0.00164
3784.53618,0.00163
3782.47601,0.00156
3780.41583,0.00155
3778.35566,0.00161
3776.29549,0.00173
3774.23532,0.00180
3772.17515,0.00162
3770.11497,0.00135
3768.05480,0.00132
3765.99463,0.00137
3763.93446,0.00128
3761.87429,0.00122
3759.81411,0.00121
3757.75394,0.00106
3755.69377,0.00089
3753.63360,0.00093
3751.57342,0.00107
3749.51325,0.00115
3747.45308,0.00142
3745.39291,0.00164
3743.33274,0.00157
3741.27256,0.00162
3739.21239,0.00179
3737.15222,0.00157
3735.09205,0.00086
3733.03188,0.00026
3730.97170,0.00040
3728.91153,0.00100
3726.85136,0.00158
3724.79119,0.00193
3722.73102,0.00196
3720.67084,0.00177
3718.61067,0.00180
3716.55050,0.00213
3714.49033,0.00230
3712.43015,0.00175
3710.36998,0.00086
3708.30981,0.00073
3706.24964,0.00132
3704.18947,0.00184
3702.12929,0.00199
3700.06912,0.00198
3698.00895,0.00202
3695.94878,0.00215
3693.88861,0.00219
3691.82843,0.00200
3689.76826,0.00190
3687.70809,0.00209
3685.64792,0.00215
3683.58775,0.00197
3681.52757,0.00189
3679.46740,0.00221
3677.40723,0.00266
3675.34706,0.00289
3673.28688,0.00336
3671.22671,0.00399
3669.16654,0.00393
3667.10637,0.00334
3665.04620,0.00295
3662.98602,0.00294
3660.92585,0.00326
3658.86568,0.00376
3656.80551,0.00425
3654.74534,0.00456
3652.68516,0.00453
3650.62499,0.00407
3648.56482,0.00351
3646.50465,0.00355
3644.44447,0.00416
3642.38430,0.00493
3640.32413,0.00553
3638.26396,0.00613
3636.20379,0.00678
3634.14361,0.00694
3632.08344,0.00651
3630.02327,0.00633
3627.96310,0.00710
3625.90293,0.00824
3623.84275,0.00904
3621.78258,0.00922
3619.72241,0.00874
3617.66224,0.00821
3615.60207,0.00835
3613.54189,0.00897
3611.48172,0.00942
3609.42155,0.00962
3607.36138,0.01002
3605.30120,0.01046
3603.24103,0.01068
3601.18086,0.01098
3599.12069,0.01158
3597.06052,0.01209
3595.00034,0.01212
3592.94017,0.01194
3590.88000,0.01193
3588.81983,0.01201
3586.75966,0.01214
3584.69948,0.01256
3582.63931,0.01323
3580.57914,0.01377
3578.51897,0.01416
3576.45879,0.01466
3574.39862,0.01530
3572.33845,0.01586
3570.27828,0.01640
3568.21811,0.01720
3566.15793,0.01768
3564.09776,0.01723
3562.03759,0.01664
3559.97742,0.01675
3557.91725,0.01735
3555.85707,0.01777
3553.79690,0.01791
3551.73673,0.01811
3549.67656,0.01837
3547.61639,0.01853
3545.55621,0.01883
3543.49604,0.01946
3541.43587,0.02000
3539.37570,0.02021
3537.31552,0.02033
3535.25535,0.02069
3533.19518,0.02125
3531.13501,0.02162
3529.07484,0.02172
3527.01466,0.02183
3524.95449,0.02200
3522.89432,0.02218
3520.83415,0.02250
3518.77398,0.02290
3516.71380,0.02309
3514.65363,0.02307
3512.59346,0.02309
3510.53329,0.02327
3508.47312,0.02367
3506.41294,0.02424
3504.35277,0.02484
3502.29260,0.02526
3500.23243,0.02532
3498.17225,0.02520
3496.11208,0.02533
3494.05191,0.02572
3491.99174,0.02608
3489.93157,0.02640
3487.87139,0.02682
3485.81122,0.02714
3483.75105,0.02714
3481.69088,0.02715
3479.63071,0.02748
3477.57053,0.02791
3475.51036,0.02812
3473.45019,0.02819
3471.39002,0.02833
3469.32984,0.02856
3467.26967,0.02884
3465.20950,0.02913
3463.14933,0.02941
3461.08916,0.02954
3459.02898,0.02970
3456.96881,0.03011
3454.90864,0.03037
3452.84847,0.03030
3450.78830,0.03033
3448.72812,0.03054
3446.66795,0.03072
3444.60778,0.03077
3442.54761,0.03083
3440.48744,0.03103
3438.42726,0.03139
3436.36709,0.03192
3434.30692,0.03235
3432.24675,0.03255
3430.18657,0.03258
3428.12640,0.03246
3426.06623,0.03240
3424.00606,0.03257
3421.94589,0.03296
3419.88571,0.03326
3417.82554,0.03334
3415.76537,0.03338
3413.70520,0.03323
3411.64503,0.03317
3409.58485,0.03353
3407.52468,0.03394
3405.46451,0.03419
3403.40434,0.03434
3401.34416,0.03430
3399.28399,0.03419
3397.22382,0.03421
3395.16365,0.03445
3393.10348,0.03464
3391.04330,0.03468
3388.98313,0.03483
3386.92296,0.03508
3384.86279,0.03502
3382.80262,0.03467
3380.74244,0.03445
3378.68227,0.03457
3376.62210,0.03481
3374.56193,0.03493
3372.50176,0.03498
3370.44158,0.03514
3368.38141,0.03542
3366.32124,0.03557
3364.26107,0.03563
3362.20089,0.03583
3360.14072,0.03589
3358.08055,0.03556
3356.02038,0.03519
3353.96021,0.03498
3351.90003,0.03502
3349.83986,0.03532
3347.77969,0.03567
3345.71952,0.03587
3343.65935,0.03592
3341.59917,0.03589
3339.53900,0.03597
3337.47883,0.03621
3335.41866,0.03631
3333.35849,0.03600
3331.29831,0.03554
3329.23814,0.03554
3327.17797,0.03601
3325.11780,0.03635
3323.05762,0.03635
3320.99745,0.03621
3318.93728,0.03601
3316.87711,0.03603
3314.81694,0.03625
3312.75676,0.03615
3310.69659,0.03587
3308.63642,0.03575
3306.57625,0.03560
3304.51608,0.03551
3302.45590,0.03557
3300.39573,0.03572
3298.33556,0.03594
3296.27539,0.03595
3294.21521,0.03577
3292.15504,0.03572
3290.09487,0.03590
3288.03470,0.03615
3285.97453,0.03620
3283.91435,0.03606
3281.85418,0.03593
3279.79401,0.03598
3277.73384,0.03627
3275.67367,0.03642
3273.61349,0.03624
3271.55332,0.03612
3269.49315,0.03622
3267.43298,0.03627
3265.37281,0.03618
3263.31263,0.03616
3261.25246,0.03626
3259.19229,0.03627
3257.13212,0.03621
3255.07194,0.03622
3253.01177,0.03619
3250.95160,0.03602
3248.89143,0.03579
3246.83126,0.03570
3244.77108,0.03585
3242.71091,0.03594
3240.65074,0.03564
3238.59057,0.03520
3236.53040,0.03524
3234.47022,0.03563
3232.41005,0.03575
3230.34988,0.03561
3228.28971,0.03568
3226.22954,0.03596
3224.16936,0.03600
3222.10919,0.03579
3220.04902,0.03563
3217.98885,0.03560
3215.92867,0.03572
3213.86850,0.03573
3211.80833,0.03535
3209.74816,0.03491
3207.68799,0.03474
3205.62781,0.03471
3203.56764,0.03481
3201.50747,0.03496
3199.44730,0.03485
3197.38713,0.03458
3195.32695,0.03449
3193.26678,0.03454
3191.20661,0.03457
3189.14644,0.03444
3187.08626,0.03419
3185.02609,0.03407
3182.96592,0.03419
3180.90575,0.03431
3178.84558,0.03399
3176.78540,0.03351
3174.72523,0.03349
3172.66506,0.03376
3170.60489,0.03371
3168.54472,0.03327
3166.48454,0.03291
3164.42437,0.03284
3162.36420,0.03290
3160.30403,0.03290
3158.24386,0.03275
3156.18368,0.03259
3154.12351,0.03265
3152.06334,0.03276
3150.00317,0.03260
3147.94299,0.03228
3145.88282,0.03208
3143.82265,0.03192
3141.76248,0.03181
3139.70231,0.03187
3137.64213,0.03189
3135.58196,0.03177
3133.52179,0.03160
3131.46162,0.03130
3129.40145,0.03098
3127.34127,0.03080
3125.28110,0.03073
3123.22093,0.03083
3121.16076,0.03097
3119.10058,0.03086
3117.04041,0.03044
3114.98024,0.03014
3112.92007,0.03023
3110.85990,0.03031
3108.79972,0.03013
3106.73955,0.02977
3104.67938,0.02935
3102.61921,0.02906
3100.55904,0.02899
3098.49886,0.02897
3096.43869,0.02883
3094.37852,0.02853
3092.31835,0.02828
3090.25818,0.02825
3088.19800,0.02833
3086.13783,0.02821
3084.07766,0.02791
3082.01749,0.02767
3079.95731,0.02755
3077.89714,0.02749
3075.83697,0.02742
3073.77680,0.02733
3071.71663,0.02729
3069.65645,0.02738
3067.59628,0.02753
3065.53611,0.02755
3063.47594,0.02736
3061.41577,0.02690
3059.35559,0.02629
3057.29542,0.02589
3055.23525,0.02583
3053.17508,0.02581
3051.11491,0.02568
3049.05473,0.02548
3046.99456,0.02526
3044.93439,0.02508
3042.87422,0.02498
3040.81404,0.02490
3038.75387,0.02482
3036.69370,0.02483
3034.63353,0.02486
3032.57336,0.02469
3030.51318,0.02434
3028.45301,0.02405
3026.39284,0.02398
3024.33267,0.02405
3022.27250,0.02409
3020.21232,0.02392
3018.15215,0.02344
3016.09198,0.02296
3014.03181,0.02282
3011.97163,0.02290
3009.91146,0.02288
3007.85129,0.02267
3005.79112,0.02242
3003.73095,0.02235
3001.67077,0.02241
2999.61060,0.02236
2997.55043,0.02219
2995.49026,0.02205
2993.43009,0.02184
2991.36991,0.02155
2989.30974,0.02134
2987.24957,0.02123
2985.18940,0.02116
2983.12923,0.02106
2981.06905,0.02095
2979.00888,0.02084
2976.94871,0.02063
2974.88854,0.02040
2972.82836,0.02044
2970.76819,0.02061
2968.70802,0.02053
2966.64785,0.02039
2964.58768,0.02061
2962.52750,0.02082
2960.46733,0.02058
2958.40716,0.02033
2956.34699,0.02034
2954.28682,0.02039
2952.22664,0.02040
2950.16647,0.02044
2948.10630,0.02046
2946.04613,0.02044
2943.98596,0.02028
2941.92578,0.02003
2939.86561,0.02004
2937.80544,0.02031
2935.74527,0.02054
2933.68509,0.02045
2931.62492,0.02014
2929.56475,0.01977
2927.50458,0.01945
2925.44441,0.01947
2923.38423,0.01973
2921.32406,0.01973
2919.26389,0.01938
2917.20372,0.01906
2915.14355,0.01899
2913.08337,0.01898
2911.02320,0.01902
2908.96303,0.01905
2906.90286,0.01890
2904.84268,0.01878
2902.78251,0.01869
2900.72234,0.01848
2898.66217,0.01835
2896.60200,0.01836
2894.54182,0.01832
2892.48165,0.01809
2890.42148,0.01790
2888.36131,0.01793
2886.30114,0.01799
2884.24096,0.01790
2882.18079,0.01780
2880.12062,0.01771
2878.06045,0.01764
2876.00028,0.01770
2873.94010,0.01783
2871.87993,0.01773
2869.81976,0.01726
2867.75959,0.01680
2865.69941,0.01662
2863.63924,0.01654
2861.57907,0.01646
2859.51890,0.01646
2857.45873,0.01642
2855.39855,0.01622
2853.33838,0.01611
2851.27821,0.01623
2849.21804,0.01632
2847.15787,0.01616
2845.09769,0.01586
2843.03752,0.01570
2840.97735,0.01574
2838.91718,0.01579
2836.85700,0.01568
2834.79683,0.01540
2832.73666,0.01522
2830.67649,0.01515
2828.61632,0.01492
2826.55614,0.01473
2824.49597,0.01482
2822.43580,0.01490
2820.37563,0.01473
2818.31546,0.01456
2816.25528,0.01452
2814.19511,0.01439
2812.13494,0.01429
2810.07477,0.01422
2808.01460,0.01388
2805.95442,0.01366
2803.89425,0.01380
2801.83408,0.01389
2799.77391,0.01384
2797.71373,0.01384
2795.65356,0.01395
2793.59339,0.01399
2791.53322,0.01383
2789.47305,0.01364
2787.41287,0.01351
2785.35270,0.01346
2783.29253,0.01351
2781.23236,0.01355
2779.17219,0.01349
2777.11201,0.01336
2775.05184,0.01330
2772.99167,0.01336
2770.93150,0.01335
2768.87133,0.01309
2766.81115,0.01288
2764.75098,0.01299
2762.69081,0.01307
2760.63064,0.01286
2758.57046,0.01269
2756.51029,0.01266
2754.45012,0.01261
2752.38995,0.01247
2750.32978,0.01237
2748.26960,0.01237
2746.20943,0.01233
2744.14926,0.01222
2742.08909,0.01221
2740.02892,0.01222
2737.96874,0.01219
2735.90857,0.01223
2733.84840,0.01224
2731.78823,0.01203
2729.72805,0.01176
2727.66788,0.01170
2725.60771,0.01168
2723.54754,0.01151
2721.48737,0.01129
2719.42719,0.01122
2717.36702,0.01127
2715.30685,0.01127
2713.24668,0.01125
2711.18651,0.01127
2709.12633,0.01125
2707.06616,0.01117
2705.00599,0.01103
2702.94582,0.01088
2700.88565,0.01071
2698.82547,0.01044
2696.76530,0.01025
2694.70513,0.01024
2692.64496,0.01033
2690.58478,0.01043
2688.52461,0.01043
2686.46444,0.01031
2684.40427,0.01021
2682.34410,0.01012
2680.28392,0.01004
2678.22375,0.01016
2676.16358,0.01036
2674.10341,0.01029
2672.04324,0.00998
2669.98306,0.00979
2667.92289,0.00980
2665.86272,0.00982
2663.80255,0.00973
2661.74238,0.00944
2659.68220,0.00921
2657.62203,0.00929
2655.56186,0.00950
2653.50169,0.00953
2651.44151,0.00947
2649.38134,0.00945
2647.32117,0.00940
2645.26100,0.00927
2643.20083,0.00905
2641.14065,0.00876
2639.08048,0.00854
2637.02031,0.00841
2634.96014,0.00840
2632.89997,0.00854
2630.83979,0.00868
2628.77962,0.00863
2626.71945,0.00846
2624.65928,0.00834
2622.59910,0.00815
2620.53893,0.00804
2618.47876,0.00817
2616.41859,0.00818
2614.35842,0.00809
2612.29824,0.00809
2610.23807,0.00797
2608.17790,0.00772
2606.11773,0.00754
2604.05756,0.00742
2601.99738,0.00737
2599.93721,0.00761
2597.87704,0.00794
2595.81687,0.00783
2593.75670,0.00740
2591.69652,0.00718
2589.63635,0.00725
2587.57618,0.00738
2585.51601,0.00739
2583.45583,0.00727
2581.39566,0.00719
2579.33549,0.00707
2577.27532,0.00705
2575.21515,0.00723
2573.15497,0.00734
2571.09480,0.00732
2569.03463,0.00729
2566.97446,0.00733
2564.91429,0.00740
2562.85411,0.00709
2560.79394,0.00661
2558.73377,0.00653
2556.67360,0.00659
2554.61342,0.00646
2552.55325,0.00650
2550.49308,0.00670
2548.43291,0.00672
2546.37274,0.00673
2544.31256,0.00691
2542.25239,0.00701
2540.19222,0.00691
2538.13205,0.00682
2536.07188,0.00666
2534.01170,0.00648
2531.95153,0.00646
2529.89136,0.00633
2527.83119,0.00611
2525.77102,0.00611
2523.71084,0.00636
2521.65067,0.00660
2519.59050,0.00670
2517.53033,0.00668
2515.47015,0.00654
2513.40998,0.00642
2511.34981,0.00641
2509.28964,0.00651
2507.22947,0.00695
2505.16929,0.00769
2503.10912,0.00781
2501.04895,0.00700
2498.98878,0.00642
2496.92861,0.00671
2494.86843,0.00716
2492.80826,0.00721
2490.74809,0.00687
2488.68792,0.00646
2486.62775,0.00652
2484.56757,0.00684
2482.50740,0.00684
2480.44723,0.00680
2478.38706,0.00694
2476.32688,0.00685
2474.26671,0.00671
2472.20654,0.00685
2470.14637,0.00693
2468.08620,0.00689
2466.02602,0.00706
2463.96585,0.00719
2461.90568,0.00718
2459.84551,0.00738
2457.78534,0.00748
2455.72516,0.00722
2453.66499,0.00703
2451.60482,0.00717
2449.54465,0.00736
2447.48447,0.00729
2445.42430,0.00724
2443.36413,0.00722
2441.30396,0.00690
2439.24379,0.00675
2437.18361,0.00676
2435.12344,0.00638
2433.06327,0.00616
2431.00310,0.00652
2428.94293,0.00686
2426.88275,0.00703
2424.82258,0.00722
2422.76241,0.00734
2420.70224,0.00726
2418.64207,0.00717
2416.58189,0.00714
2414.52172,0.00693
2412.46155,0.00668
2410.40138,0.00672
2408.34120,0.00690
2406.28103,0.00693
2404.22086,0.00691
2402.16069,0.00681
2400.10052,0.00665
2398.04034,0.00676
2395.98017,0.00696
2393.92000,0.00689
2391.85983,0.00658
2389.79966,0.00646
2387.73948,0.00658
2385.67931,0.00662
2383.61914,0.00647
2381.55897,0.00630
2379.49880,0.00633
2377.43862,0.00673
2375.37845,0.00765
2373.31828,0.00892
2371.25811,0.00961
2369.19793,0.00911
2367.13776,0.00810
2365.07759,0.00752
2363.01742,0.00755
2360.95725,0.00790
2358.89707,0.00845
2356.83690,0.00912
2354.77673,0.00901
2352.71656,0.00795
2350.65639,0.00723
2348.59621,0.00734
2346.53604,0.00761
2344.47587,0.00751
2342.41570,0.00709
2340.35552,0.00680
2338.29535,0.00707
2336.23518,0.00747
2334.17501,0.00771
2332.11484,0.00820
2330.05466,0.00872
2327.99449,0.00871
2325.93432,0.00814
2323.87415,0.00725
2321.81398,0.00679
2319.75380,0.00725
2317.69363,0.00781
2315.63346,0.00777
2313.57329,0.00744
2311.51312,0.00746
2309.45294,0.00781
2307.39277,0.00784
2305.33260,0.00742
2303.27243,0.00710
2301.21225,0.00718
2299.15208,0.00748
2297.09191,0.00758
2295.03174,0.00734
2292.97157,0.00712
2290.91139,0.00723
2288.85122,0.00740
2286.79105,0.00718
2284.73088,0.00667
2282.67071,0.00633
2280.61053,0.00641
2278.55036,0.00692
2276.49019,0.00760
2274.43002,0.00766
2272.36984,0.00674
2270.30967,0.00575
2268.24950,0.00534
2266.18933,0.00513
2264.12916,0.00504
2262.06898,0.00543
2260.00881,0.00600
2257.94864,0.00629
2255.88847,0.00647
2253.82830,0.00666
2251.76812,0.00633
2249.70795,0.00538
2247.64778,0.00467
2245.58761,0.00500
2243.52744,0.00579
2241.46726,0.00616
2239.40709,0.00630
2237.34692,0.00603
2235.28675,0.00544
2233.22657,0.00534
2231.16640,0.00538
2229.10623,0.00504
2227.04606,0.00473
2224.98589,0.00485
2222.92571,0.00510
2220.86554,0.00486
2218.80537,0.00417
2216.74520,0.00391
2214.68503,0.00439
2212.62485,0.00493
2210.56468,0.00514
2208.50451,0.00521
2206.44434,0.00531
2204.38417,0.00567
2202.32399,0.00568
2200.26382,0.00486
2198.20365,0.00429
2196.14348,0.00401
2194.08330,0.00375
2192.02313,0.00423
2189.96296,0.00516
2187.90279,0.00570
2185.84262,0.00522
2183.78244,0.00388
2181.72227,0.00305
2179.66210,0.00341
2177.60193,0.00391
2175.54176,0.00402
2173.48158,0.00436
2171.42141,0.00515
2169.36124,0.00578
2167.30107,0.00604
2165.24089,0.00612
2163.18072,0.00532
2161.12055,0.00338
2159.06038,0.00128
2157.00021,0.00033
2154.94003,0.00126
2152.87986,0.00259
2150.81969,0.00261
2148.75952,0.00223
2146.69935,0.00287
2144.63917,0.00370
2142.57900,0.00323
2140.51883,0.00194
2138.45866,0.00117
2136.39849,0.00101
2134.33831,0.00114
2132.27814,0.00177
2130.21797,0.00276
2128.15780,0.00358
2126.09762,0.00398
2124.03745,0.00419
2121.97728,0.00457
2119.91711,0.00469
2117.85694,0.00444
2115.79676,0.00470
2113.73659,0.00497
2111.67642,0.00452
2109.61625,0.00420
2107.55608,0.00432
2105.49590,0.00437
2103.43573,0.00431
2101.37556,0.00439
2099.31539,0.00474
2097.25521,0.00472
2095.19504,0.00415
2093.13487,0.00388
2091.07470,0.00380
2089.01453,0.00360
2086.95435,0.00379
2084.89418,0.00408
2082.83401,0.00398
2080.77384,0.00389
2078.71367,0.00428
2076.65349,0.00496
2074.59332,0.00516
2072.53315,0.00494
2070.47298,0.00510
2068.41281,0.00537
2066.35263,0.00516
2064.29246,0.00485
2062.23229,0.00465
2060.17212,0.00402
2058.11194,0.00323
2056.05177,0.00341
2053.99160,0.00443
2051.93143,0.00508
2049.87126,0.00497
2047.81108,0.00444
2045.75091,0.00392
2043.69074,0.00414
2041.63057,0.00506
2039.57040,0.00548
2037.51022,0.00472
2035.45005,0.00313
2033.38988,0.00160
2031.32971,0.00123
2029.26954,0.00219
2027.20936,0.00287
2025.14919,0.00230
2023.08902,0.00212
2021.02885,0.00315
2018.96867,0.00409
2016.90850,0.00390
2014.84833,0.00316
2012.78816,0.00277
2010.72799,0.00275
2008.66781,0.00283
2006.60764,0.00251
2004.54747,0.00179
2002.48730,0.00112
2000.42713,0.00099
1998.36695,0.00183
1996.30678,0.00316
1994.24661,0.00375
1992.18644,0.00351
1990.12626,0.00372
1988.06609,0.00401
1986.00592,0.00378
1983.94575,0.00386
1981.88558,0.00450
1979.82540,0.00462
1977.76523,0.00330
1975.70506,0.00132
1973.64489,0.00000
1971.58472,0.00016
1969.52454,0.00137
1967.46437,0.00178
1965.40420,0.00126
1963.34403,0.00104
1961.28386,0.00104
1959.22368,0.00134
1957.16351,0.00210
1955.10334,0.00246
1953.04317,0.00232
1950.98299,0.00211
1948.92282,0.00178
1946.86265,0.00162
1944.80248,0.00160
1942.74231,0.00152
1940.68213,0.00170
1938.62196,0.00171
1936.56179,0.00117
1934.50162,0.00093
1932.44145,0.00114
1930.38127,0.00127
1928.32110,0.00148
1926.26093,0.00181
1924.20076,0.00194
1922.14059,0.00176
1920.08041,0.00146
1918.02024,0.00134
1915.96007,0.00152
1913.89990,0.00183
1911.83972,0.00201
1909.77955,0.00204
1907.71938,0.00211
1905.65921,0.00243
1903.59904,0.00272
1901.53886,0.00242
1899.47869,0.00182
1897.41852,0.00171
1895.35835,0.00197
1893.29818,0.00198
1891.23800,0.00179
1889.17783,0.00164
1887.11766,0.00166
1885.05749,0.00203
1882.99731,0.00249
1880.93714,0.00271
1878.87697,0.00262
1876.81680,0.00225
1874.75663,0.00181
1872.69645,0.00163
1870.63628,0.00181
1868.57611,0.00214
1866.51594,0.00230
1864.45577,0.00225
1862.39559,0.00219
1860.33542,0.00219
1858.27525,0.00215
1856.21508,0.00205
1854.15491,0.00195
1852.09473,0.00182
1850.03456,0.00156
1847.97439,0.00112
1845.91422,0.00078
1843.85404,0.00104
1841.79387,0.00185
1839.73370,0.00244
1837.67353,0.00251
1835.61336,0.00235
1833.55318,0.00223
1831.49301,0.00219
1829.43284,0.00213
1827.37267,0.00199
1825.31250,0.00185
1823.25232,0.00185
1821.19215,0.00193
1819.13198,0.00197
1817.07181,0.00204
1815.01163,0.00223
1812.95146,0.00232
1810.89129,0.00222
1808.83112,0.00213
1806.77095,0.00217
1804.71077,0.00227
1802.65060,0.00226
1800.59043,0.00217
1798.53026,0.00222
1796.47009,0.00224
1794.40991,0.00199
1792.34974,0.00174
1790.28957,0.00178
1788.22940,0.00188
1786.16923,0.00185
1784.10905,0.00185
1782.04888,0.00201
1779.98871,0.00222
1777.92854,0.00231
1775.86836,0.00214
1773.80819,0.00178
1771.74802,0.00158
1769.68785,0.00182
1767.62768,0.00232
1765.56750,0.00271
1763.50733,0.00280
1761.44716,0.00266
1759.38699,0.00255
1757.32682,0.00269
1755.26664,0.00304
1753.20647,0.00326
1751.14630,0.00320
1749.08613,0.00305
1747.02596,0.00312
1744.96578,0.00340
1742.90561,0.00371
1740.84544,0.00390
1738.78527,0.00398
1736.72509,0.00394
1734.66492,0.00390
1732.60475,0.00403
1730.54458,0.00425
1728.48441,0.00449
1726.42423,0.00479
1724.36406,0.00520
1722.30389,0.00551
1720.24372,0.00543
1718.18355,0.00508
1716.12337,0.00515
1714.06320,0.00569
1712.00303,0.00607
1709.94286,0.00612
1707.88268,0.00615
1705.82251,0.00635
1703.76234,0.00654
1701.70217,0.00655
1699.64200,0.00648
1697.58182,0.00655
1695.52165,0.00707
1693.46148,0.00790
1691.40131,0.00854
1689.34114,0.00891
1687.28096,0.00907
1685.22079,0.00924
1683.16062,0.00972
1681.10045,0.01024
1679.04028,0.01057
1676.98010,0.01089
1674.91993,0.01121
1672.85976,0.01145
1670.79959,0.01185
1668.73941,0.01253
1666.67924,0.01302
1664.61907,0.01324
1662.55890,0.01352
1660.49873,0.01374
1658.43855,0.01366
1656.37838,0.01351
1654.31821,0.01371
1652.25804,0.01429
1650.19787,0.01459
1648.13769,0.01456
1646.07752,0.01455
1644.01735,0.01457
1641.95718,0.01454
1639.89701,0.01443
1637.83683,0.01420
1635.77666,0.01423
1633.71649,0.01452
1631.65632,0.01450
1629.59614,0.01414
1627.53597,0.01379
1625.47580,0.01364
1623.41563,0.01362
1621.35546,0.01357
1619.29528,0.01340
1617.23511,0.01326
1615.17494,0.01325
1613.11477,0.01302
1611.05460,0.01255
1608.99442,0.01214
1606.93425,0.01195
1604.87408,0.01184
1602.81391,0.01171
1600.75373,0.01144
1598.69356,0.01101
1596.63339,0.01051
1594.57322,0.01000
1592.51305,0.00951
1590.45287,0.00909
1588.39270,0.00869
1586.33253,0.00835
1584.27236,0.00806
1582.21219,0.00777
1580.15201,0.00742
1578.09184,0.00708
1576.03167,0.00684
1573.97150,0.00658
1571.91133,0.00608
1569.85115,0.00560
1567.79098,0.00554
1565.73081,0.00567
1563.67064,0.00556
1561.61046,0.00506
1559.55029,0.00435
1557.49012,0.00407
1555.42995,0.00429
1553.36978,0.00444
1551.30960,0.00424
1549.24943,0.00388
1547.18926,0.00364
1545.12909,0.00342
1543.06892,0.00299
1541.00874,0.00268
1538.94857,0.00275
1536.88840,0.00275
1534.82823,0.00260
1532.76805,0.00254
1530.70788,0.00260
1528.64771,0.00253
1526.58754,0.00224
1524.52737,0.00191
1522.46719,0.00173
1520.40702,0.00180
1518.34685,0.00204
1516.28668,0.00223
1514.22651,0.00220
1512.16633,0.00193
1510.10616,0.00142
1508.04599,0.00084
1505.98582,0.00076
1503.92565,0.00103
1501.86547,0.00107
1499.80530,0.00095
1497.74513,0.00096
1495.68496,0.00120
1493.62478,0.00142
1491.56461,0.00135
1489.50444,0.00109
1487.44427,0.00100
1485.38410,0.00118
1483.32392,0.00144
1481.26375,0.00170
1479.20358,0.00188
1477.14341,0.00190
1475.08324,0.00184
1473.02306,0.00191
1470.96289,0.00216
1468.90272,0.00236
1466.84255,0.00243
1464.78238,0.00250
1462.72220,0.00256
1460.66203,0.00241
1458.60186,0.00217
1456.54169,0.00229
1454.48151,0.00275
1452.42134,0.00307
1450.36117,0.00316
1448.30100,0.00314
1446.24083,0.00317
1444.18065,0.00321
1442.12048,0.00312
1440.06031,0.00285
1438.00014,0.00256
1435.93997,0.00254
1433.87979,0.00275
1431.81962,0.00291
1429.75945,0.00296
1427.69928,0.00303
1425.63910,0.00315
1423.57893,0.00326
1421.51876,0.00328
1419.45859,0.00329
1417.39842,0.00344
1415.33824,0.00361
1413.27807,0.00365
1411.21790,0.00362
1409.15773,0.00355
1407.09756,0.00343
1405.03738,0.00336
1402.97721,0.00341
1400.91704,0.00336
1398.85687,0.00311
1396.79670,0.00293
1394.73652,0.00296
1392.67635,0.00305
1390.61618,0.00304
1388.55601,0.00293
1386.49583,0.00289
1384.43566,0.00304
1382.37549,0.00320
1380.31532,0.00325
1378.25515,0.00324
1376.19497,0.00320
1374.13480,0.00317
1372.07463,0.00320
1370.01446,0.00328
1367.95429,0.00332
1365.89411,0.00325
1363.83394,0.00310
1361.77377,0.00294
1359.71360,0.00278
1357.65343,0.00261
1355.59325,0.00252
1353.53308,0.00251
1351.47291,0.00253
1349.41274,0.00251
1347.35256,0.00247
1345.29239,0.00247
1343.23222,0.00248
1341.17205,0.00239
1339.11188,0.00220
1337.05170,0.00201
1334.99153,0.00188
1332.93136,0.00186
1330.87119,0.00191
1328.81102,0.00187
1326.75084,0.00168
1324.69067,0.00148
1322.63050,0.00139
1320.57033,0.00145
1318.51015,0.00158
1316.44998,0.00160
1314.38981,0.00147
1312.32964,0.00132
1310.26947,0.00125
1308.20929,0.00128
1306.14912,0.00139
1304.08895,0.00141
1302.02878,0.00132
1299.96861,0.00132
1297.90843,0.00139
1295.84826,0.00150
1293.78809,0.00164
1291.72792,0.00169
1289.66775,0.00169
1287.60757,0.00175
1285.54740,0.00183
1283.48723,0.00179
1281.42706,0.00165
1279.36688,0.00155
1277.30671,0.00160
1275.24654,0.00175
1273.18637,0.00188
1271.12620,0.00192
1269.06602,0.00189
1267.00585,0.00181
1264.94568,0.00180
1262.88551,0.00192
1260.82534,0.00199
1258.76516,0.00195
1256.70499,0.00199
1254.64482,0.00201
1252.58465,0.00192
1250.52447,0.00188
1248.46430,0.00188
1246.40413,0.00175
1244.34396,0.00159
1242.28379,0.00157
1240.22361,0.00160
1238.16344,0.00157
1236.10327,0.00157
1234.04310,0.00152
1231.98293,0.00138
1229.92275,0.00131
1227.86258,0.00127
1225.80241,0.00118
1223.74224,0.00111
1221.68207,0.00095
1219.62189,0.00072
1217.56172,0.00064
1215.50155,0.00066
1213.44138,0.00061
1211.38120,0.00048
1209.32103,0.00033
1207.26086,0.00022
1205.20069,0.00023
1203.14052,0.00028
1201.08034,0.00016
1199.02017,0.00000
1196.96000,0.00005
1194.89983,0.00017
1192.83966,0.00025
1190.77948,0.00041
1188.71931,0.00071
1186.65914,0.00109
1184.59897,0.00145
1182.53880,0.00166
1180.47862,0.00194
1178.41845,0.00242
1176.35828,0.00289
1174.29811,0.00340
1172.23793,0.00408
1170.17776,0.00467
1168.11759,0.00512
1166.05742,0.00560
1163.99725,0.00606
1161.93707,0.00644
1159.87690,0.00688
1157.81673,0.00733
1155.75656,0.00767
1153.69639,0.00798
1151.63621,0.00840
1149.57604,0.00888
1147.51587,0.00928
1145.45570,0.00971
1143.39552,0.01041
1141.33535,0.01120
1139.27518,0.01166
1137.21501,0.01189
1135.15484,0.01236
1133.09466,0.01305
1131.03449,0.01368
1128.97432,0.01415
1126.91415,0.01451
1124.85398,0.01487
1122.79380,0.01540
1120.73363,0.01613
1118.67346,0.01680
1116.61329,0.01732
1114.55312,0.01805
1112.49294,0.01906
1110.43277,0.02009
1108.37260,0.02106
1106.31243,0.02203
1104.25225,0.02291
1102.19208,0.02383
1100.13191,0.02487
1098.07174,0.02581
1096.01157,0.02659
1093.95139,0.02740
1091.89122,0.02828
1089.83105,0.02915
1087.77088,0.02987
1085.71071,0.03045
1083.65053,0.03111
1081.59036,0.03194
1079.53019,0.03281
1077.47002,0.03362
1075.40985,0.03419
1073.34967,0.03445
1071.28950,0.03461
1069.22933,0.03482
1067.16916,0.03519
1065.10898,0.03570
1063.04881,0.03610
1060.98864,0.03630
1058.92847,0.03642
1056.86830,0.03635
1054.80812,0.03582
1052.74795,0.03513
1050.68778,0.03483
1048.62761,0.03486
1046.56744,0.03472
1044.50726,0.03418
1042.44709,0.03360
1040.38692,0.03319
1038.32675,0.03268
1036.26657,0.03198
1034.20640,0.03118
1032.14623,0.03037
1030.08606,0.02965
1028.02589,0.02897
1025.96571,0.02817
1023.90554,0.02724
1021.84537,0.02646
1019.78520,0.02595
1017.72503,0.02539
1015.66485,0.02469
1013.60468,0.02403
1011.54451,0.02341
1009.48434,0.02285
1007.42417,0.02236
1005.36399,0.02193
1003.30382,0.02168
1001.24365,0.02163
999.18348,0.02169
997.12330,0.02179
995.06313,0.02199
993.00296,0.02232
990.94279,0.02270
988.88262,0.02306
986.82244,0.02324
984.76227,0.02325
982.70210,0.02307
980.64193,0.02260
978.58176,0.02199
976.52158,0.02119
974.46141,0.02024
972.40124,0.01933
970.34107,0.01827
968.28089,0.01717
966.22072,0.01620
964.16055,0.01524
962.10038,0.01435
960.04021,0.01360
957.98003,0.01275
955.91986,0.01189
953.85969,0.01128
951.79952,0.01077
949.73935,0.01032
947.67917,0.01001
945.61900,0.00985
943.55883,0.00974
941.49866,0.00957
939.43849,0.00953
937.37831,0.00969
935.31814,0.00970
933.25797,0.00949
931.19780,0.00941
929.13762,0.00950
927.07745,0.00940
925.01728,0.00899
922.95711,0.00875
920.89694,0.00868
918.83676,0.00827
916.77659,0.00760
914.71642,0.00708
912.65625,0.00668
910.59608,0.00643
908.53590,0.00631
906.47573,0.00591
904.41556,0.00551
902.35539,0.00545
900.29522,0.00538
898.23504,0.00520
896.17487,0.00525
894.11470,0.00549
892.05453,0.00580
889.99435,0.00622
887.93418,0.00642
885.87401,0.00638
883.81384,0.00652
881.75367,0.00689
879.69349,0.00729
877.63332,0.00761
875.57315,0.00774
873.51298,0.00788
871.45281,0.00827
869.39263,0.00848
867.33246,0.00831
865.27229,0.00828
863.21212,0.00854
861.15194,0.00855
859.09177,0.00827
857.03160,0.00815
854.97143,0.00803
852.91126,0.00766
850.85108,0.00730
848.79091,0.00724
846.73074,0.00723
844.67057,0.00692
842.61040,0.00642
840.55022,0.00594
838.49005,0.00558
836.42988,0.00552
834.36971,0.00552
832.30954,0.00518
830.24936,0.00473
828.18919,0.00440
826.12902,0.00405
824.06885,0.00363
822.00867,0.00322
819.94850,0.00286
817.88833,0.00270
815.82816,0.00278
813.76799,0.00280
811.70781,0.00290
809.64764,0.00312
807.58747,0.00328
805.52730,0.00325
803.46713,0.00284
801.40695,0.00252
799.34678,0.00285
797.28661,0.00327
795.22644,0.00281
793.16627,0.00206
791.10609,0.00210
789.04592,0.00233
786.98575,0.00234
784.92558,0.00263
782.86540,0.00289
780.80523,0.00279
778.74506,0.00261
776.68489,0.00262
774.62472,0.00281
772.56454,0.00282
770.50437,0.00238
768.44420,0.00202
766.38403,0.00224
764.32386,0.00256
762.26368,0.00270
760.20351,0.00299
758.14334,0.00295
756.08317,0.00221
754.02299,0.00131
751.96282,0.00083
749.90265,0.00127
747.84248,0.00211
745.78231,0.00239
743.72213,0.00221
741.66196,0.00211
739.60179,0.00195
737.54162,0.00148
735.48145,0.00104
733.42127,0.00093
731.36110,0.00102
729.30093,0.00110
727.24076,0.00122
725.18059,0.00134
723.12041,0.00123
721.06024,0.00110
719.00007,0.00133
716.93990,0.00191
714.87972,0.00240
712.81955,0.00265
710.75938,0.00284
708.69921,0.00324
706.63904,0.00386
704.57886,0.00445
702.51869,0.00465
700.45852,0.00416
698.39835,0.00337
696.33818,0.00293
694.27800,0.00278
692.21783,0.00250
690.15766,0.00196
688.09749,0.00146
686.03731,0.00173
683.97714,0.00297
681.91697,0.00429
679.85680,0.00478
677.79663,0.00428
675.73645,0.00367
673.67628,0.00372
671.61611,0.00373
669.55594,0.00268
667.49577,0.00132
665.43559,0.00129
663.37542,0.00218
661.31525,0.00320
659.25508,0.00339
657.19491,0.00237
655.13473,0.00134
653.07456,0.00137
651.01439,0.00213
648.95422,0.00298
646.89404,0.00354
644.83387,0.00346
642.77370,0.00314
640.71353,0.00339
638.65336,0.00392
636.59318,0.00425
634.53301,0.00462
632.47284,0.00482
630.41267,0.00404
628.35250,0.00204
626.29232,0.00015
624.23215,0.00000
622.17198,0.00135
620.11181,0.00343
618.05164,0.00421
615.99146,0.00348
613.93129,0.00286
611.87112,0.00278
609.81095,0.00214
607.75077,0.00052
605.69060,-0.00003
603.63043,0.00003
601.57026,-0.00096
599.51009,0.00000
