3996.73391,0.00012
3994.67373,0.00025
3992.61356,0.00035
3990.55339,0.00048
3988.49322,0.00067
3986.43305,0.00071
3984.37287,0.00055
3982.31270,0.00045
3980.25253,0.00043
3978.19236,0.00027
3976.13219,0.00011
3974.07201,0.00011
3972.01184,0.00016
3969.95167,0.00012
3967.89150,0.00000
3965.83133,0.00002
3963.77115,0.00037
3961.71098,0.00066
3959.65081,0.00060
3957.59064,0.00055
3955.53046,0.00066
3953.47029,0.00065
3951.41012,0.00048
3949.34995,0.00032
3947.28978,0.00029
3945.22960,0.00024
3943.16943,0.00029
3941.10926,0.00079
3939.04909,0.00141
3936.98892,0.00152
3934.92874,0.00120
3932.86857,0.00088
3930.80840,0.00058
3928.74823,0.00020
3926.68805,0.00000
3924.62788,0.00018
3922.56771,0.00056
3920.50754,0.00079
3918.44737,0.00078
3916.38719,0.00082
3914.32702,0.00095
3912.26685,0.00095
3910.20668,0.00088
3908.14651,0.00089
3906.08633,0.00081
3904.02616,0.00050
3901.96599,0.00029
3899.90582,0.00048
3897.84565,0.00079
3895.78547,0.00089
3893.72530,0.00082
3891.66513,0.00076
3889.60496,0.00072
3887.54478,0.00060
3885.48461,0.00041
3883.42444,0.00037
3881.36427,0.00058
3879.30410,0.00067
3877.24392,0.00050
3875.18375,0.00031
3873.12358,0.00028
3871.06341,0.00034
3869.00324,0.00036
3866.94306,0.00036
3864.88289,0.00044
3862.82272,0.00056
3860.76255,0.00061
3858.70237,0.00059
3856.64220,0.00054
3854.58203,0.00044
3852.52186,0.00062
3850.46169,0.00099
3848.40151,0.00092
3846.34134,0.00048
3844.28117,0.00020
3842.22100,0.00015
3840.16083,0.00007
3838.10065,0.00002
3836.04048,0.00013
3833.98031,0.00025
3831.92014,0.00037
3829.85997,0.00051
3827.79979,0.00060
3825.73962,0.00054
3823.67945,0.00041
3821.61928,0.00041
3819.55910,0.00056
3817.49893,0.00076
3815.43876,0.00092
3813.37859,0.00087
3811.31842,0.00062
3809.25824,0.00052
3807.19807,0.00071
3805.13790,0.00106
3803.07773,0.00144
3801.01756,0.00147
3798.95738,0.00113
3796.89721,0.00087
3794.83704,0.00086
3792.77687,0.00105
3790.71670,0.00126
3788.65652,0.00135
3786.59635,0.00137
3784.53618,0.00154
3782.47601,0.00175
3780.41583,0.00172
3778.35566,0.00150
3776.29549,0.00139
3774.23532,0.00148
3772.17515,0.00166
3770.11497,0.00160
3768.05480,0.00125
3765.99463,0.00091
3763.93446,0.00080
3761.87429,0.00084
3759.81411,0.00099
3757.75394,0.00110
3755.69377,0.00112
3753.63360,0.00126
3751.57342,0.00151
3749.51325,0.00158
3747.45308,0.00167
3745.39291,0.00192
3743.33274,0.00191
3741.27256,0.00170
3739.21239,0.00176
3737.15222,0.00175
3735.09205,0.00117
3733.03188,0.00071
3730.97170,0.00078
3728.91153,0.00073
3726.85136,0.00052
3724.79119,0.00064
3722.73102,0.00103
3720.67084,0.00122
3718.61067,0.00116
3716.55050,0.00122
3714.49033,0.00165
3712.43015,0.00233
3710.36998,0.00264
3708.30981,0.00213
3706.24964,0.00128
3704.18947,0.00080
3702.12929,0.00085
3700.06912,0.00124
3698.00895,0.00182
3695.94878,0.00252
3693.88861,0.00297
3691.82843,0.00282
3689.76826,0.00235
3687.70809,0.00215
3685.64792,0.00218
3683.58775,0.00223
3681.52757,0.00232
3679.46740,0.00233
3677.40723,0.00196
3675.34706,0.00140
3673.28688,0.00129
3671.22671,0.00168
3669.16654,0.00238
3667.10637,0.00307
3665.04620,0.00338
3662.98602,0.00339
3660.92585,0.00347
3658.86568,0.00373
3656.80551,0.00396
3654.74534,0.00413
3652.68516,0.00439
3650.62499,0.00509
3648.56482,0.00605
3646.50465,0.00637
3644.44447,0.00611
3642.38430,0.00604
3640.32413,0.00628
3638.26396,0.00660
3636.20379,0.00703
3634.14361,0.00740
3632.08344,0.00739
3630.02327,0.00713
3627.96310,0.00717
3625.90293,0.00771
3623.84275,0.00819
3621.78258,0.00815
3619.72241,0.00795
3617.66224,0.00811
3615.60207,0.00854
3613.54189,0.00914
3611.48172,0.00994
3609.42155,0.01061
3607.36138,0.01096
3605.30120,0.01111
3603.24103,0.01123
3601.18086,0.01152
3599.12069,0.01196
3597.06052,0.01242
3595.00034,0.01301
3592.94017,0.01354
3590.88000,0.01375
3588.81983,0.01386
3586.75966,0.01413
3584.69948,0.01454
3582.63931,0.01503
3580.57914,0.01542
3578.51897,0.01547
3576.45879,0.01536
3574.39862,0.01550
3572.33845,0.01587
3570.27828,0.01626
3568.21811,0.01661
3566.15793,0.01695
3564.09776,0.01727
3562.03759,0.01758
3559.97742,0.01777
3557.91725,0.01792
3555.85707,0.01834
3553.79690,0.01887
3551.73673,0.01916
3549.67656,0.01927
3547.61639,0.01943
3545.55621,0.01964
3543.49604,0.01989
3541.43587,0.02018
3539.37570,0.02054
3537.31552,0.02110
3535.25535,0.02169
3533.19518,0.02195
3531.13501,0.02195
3529.07484,0.02207
3527.01466,0.02256
3524.95449,0.02326
3522.89432,0.02376
3520.83415,0.02407
3518.77398,0.02428
3516.71380,0.02428
3514.65363,0.02434
3512.59346,0.02483
3510.53329,0.02553
3508.47312,0.02601
3506.41294,0.02618
3504.35277,0.02619
3502.29260,0.02610
3500.23243,0.02612
3498.17225,0.02664
3496.11208,0.02736
3494.05191,0.02763
3491.99174,0.02751
3489.93157,0.02758
3487.87139,0.02781
3485.81122,0.02783
3483.75105,0.02794
3481.69088,0.02841
3479.63071,0.02896
3477.57053,0.02919
3475.51036,0.02908
3473.45019,0.02902
3471.39002,0.02927
3469.32984,0.02983
3467.26967,0.03052
3465.20950,0.03094
3463.14933,0.03099
3461.08916,0.03096
3459.02898,0.03111
3456.96881,0.03146
3454.90864,0.03172
3452.84847,0.03168
3450.78830,0.03166
3448.72812,0.03193
3446.66795,0.03230
3444.60778,0.03259
3442.54761,0.03301
3440.48744,0.03349
3438.42726,0.03370
3436.36709,0.03367
3434.30692,0.03363
3432.24675,0.03375
3430.18657,0.03397
3428.12640,0.03416
3426.06623,0.03427
3424.00606,0.03440
3421.94589,0.03454
3419.88571,0.03452
3417.82554,0.03455
3415.76537,0.03491
3413.70520,0.03529
3411.64503,0.03551
3409.58485,0.03579
3407.52468,0.03598
3405.46451,0.03591
3403.40434,0.03572
3401.34416,0.03564
3399.28399,0.03584
3397.22382,0.03617
3395.16365,0.03643
3393.10348,0.03649
3391.04330,0.03621
3388.98313,0.03590
3386.92296,0.03597
3384.86279,0.03629
3382.80262,0.03647
3380.74244,0.03641
3378.68227,0.03620
3376.62210,0.03615
3374.56193,0.03632
3372.50176,0.03644
3370.44158,0.03634
3368.38141,0.03624
3366.32124,0.03652
3364.26107,0.03700
3362.20089,0.03711
3360.14072,0.03690
3358.08055,0.03687
3356.02038,0.03700
3353.96021,0.03706
3351.90003,0.03698
3349.83986,0.03689
3347.77969,0.03687
3345.71952,0.03698
3343.65935,0.03703
3341.59917,0.03680
3339.53900,0.03646
3337.47883,0.03623
3335.41866,0.03627
3333.35849,0.03658
3331.29831,0.03679
3329.23814,0.03675
3327.17797,0.03668
3325.11780,0.03669
3323.05762,0.03686
3320.99745,0.03712
3318.93728,0.03721
3316.87711,0.03724
3314.81694,0.03736
3312.75676,0.03733
3310.69659,0.03708
3308.63642,0.03673
3306.57625,0.03643
3304.51608,0.03639
3302.45590,0.03646
3300.39573,0.03642
3298.33556,0.03641
3296.27539,0.03668
3294.21521,0.03699
3292.15504,0.03692
3290.09487,0.03670
3288.03470,0.03672
3285.97453,0.03686
3283.91435,0.03695
3281.85418,0.03686
3279.79401,0.03668
3277.73384,0.03678
3275.67367,0.03716
3273.61349,0.03735
3271.55332,0.03726
3269.49315,0.03716
3267.43298,0.03698
3265.37281,0.03673
3263.31263,0.03662
3261.25246,0.03670
3259.19229,0.03693
3257.13212,0.03705
3255.07194,0.03689
3253.01177,0.03670
3250.95160,0.03664
3248.89143,0.03648
3246.83126,0.03620
3244.77108,0.03606
3242.71091,0.03598
3240.65074,0.03599
3238.59057,0.03629
3236.53040,0.03656
3234.47022,0.03640
3232.41005,0.03594
3230.34988,0.03567
3228.28971,0.03572
3226.22954,0.03588
3224.16936,0.03591
3222.10919,0.03585
3220.04902,0.03581
3217.98885,0.03563
3215.92867,0.03522
3213.86850,0.03477
3211.80833,0.03459
3209.74816,0.03469
3207.68799,0.03480
3205.62781,0.03483
3203.56764,0.03482
3201.50747,0.03469
3199.44730,0.03456
3197.38713,0.03454
3195.32695,0.03442
3193.26678,0.03433
3191.20661,0.03452
3189.14644,0.03467
3187.08626,0.03452
3185.02609,0.03409
3182.96592,0.03366
3180.90575,0.03354
3178.84558,0.03365
3176.78540,0.03358
3174.72523,0.03329
3172.66506,0.03321
3170.60489,0.03342
3168.54472,0.03361
3166.48454,0.03362
3164.42437,0.03348
3162.36420,0.03335
3160.30403,0.03321
3158.24386,0.03286
3156.18368,0.03252
3154.12351,0.03237
3152.06334,0.03223
3150.00317,0.03192
3147.94299,0.03149
3145.88282,0.03119
3143.82265,0.03108
3141.76248,0.03113
3139.70231,0.03124
3137.64213,0.03117
3135.58196,0.03094
3133.52179,0.03078
3131.46162,0.03056
3129.40145,0.03027
3127.34127,0.03018
3125.28110,0.03022
3123.22093,0.03004
3121.16076,0.02963
3119.10058,0.02940
3117.04041,0.02949
3114.98024,0.02954
3112.92007,0.02953
3110.85990,0.02960
3108.79972,0.02943
3106.73955,0.02895
3104.67938,0.02857
3102.61921,0.02845
3100.55904,0.02837
3098.49886,0.02824
3096.43869,0.02813
3094.37852,0.02797
3092.31835,0.02779
3090.25818,0.02768
3088.19800,0.02756
3086.13783,0.02737
3084.07766,0.02721
3082.01749,0.02712
3079.95731,0.02706
3077.89714,0.02694
3075.83697,0.02677
3073.77680,0.02663
3071.71663,0.02647
3069.65645,0.02613
3067.59628,0.02576
3065.53611,0.02562
3063.47594,0.02570
3061.41577,0.02573
3059.35559,0.02569
3057.29542,0.02565
3055.23525,0.02556
3053.17508,0.02530
3051.11491,0.02499
3049.05473,0.02482
3046.99456,0.02461
3044.93439,0.02425
3042.87422,0.02399
3040.81404,0.02394
3038.75387,0.02403
3036.69370,0.02402
3034.63353,0.02367
3032.57336,0.02324
3030.51318,0.02303
3028.45301,0.02286
3026.39284,0.02272
3024.33267,0.02273
3022.27250,0.02276
3020.21232,0.02276
3018.15215,0.02272
3016.09198,0.02249
3014.03181,0.02218
3011.97163,0.02191
3009.91146,0.02167
3007.85129,0.02155
3005.79112,0.02153
3003.73095,0.02142
3001.67077,0.02130
2999.61060,0.02137
2997.55043,0.02145
2995.49026,0.02120
2993.43009,0.02082
2991.36991,0.02058
2989.30974,0.02041
2987.24957,0.02028
2985.18940,0.02012
2983.12923,0.01993
2981.06905,0.01998
2979.00888,0.02014
2976.94871,0.02001
2974.88854,0.01980
2972.82836,0.01969
2970.76819,0.01963
2968.70802,0.01960
2966.64785,0.01951
2964.58768,0.01943
2962.52750,0.01950
2960.46733,0.01953
2958.40716,0.01945
2956.34699,0.01935
2954.28682,0.01927
2952.22664,0.01926
2950.16647,0.01937
2948.10630,0.01944
2946.04613,0.01939
2943.98596,0.01940
2941.92578,0.01927
2939.86561,0.01899
2937.80544,0.01890
2935.74527,0.01905
2933.68509,0.01922
2931.62492,0.01928
2929.56475,0.01924
2927.50458,0.01904
2925.44441,0.01878
2923.38423,0.01864
2921.32406,0.01870
2919.26389,0.01875
2917.20372,0.01857
2915.14355,0.01829
2913.08337,0.01817
2911.02320,0.01820
2908.96303,0.01807
2906.90286,0.01773
2904.84268,0.01749
2902.78251,0.01747
2900.72234,0.01741
2898.66217,0.01728
2896.60200,0.01722
2894.54182,0.01720
2892.48165,0.01721
2890.42148,0.01720
2888.36131,0.01708
2886.30114,0.01701
2884.24096,0.01714
2882.18079,0.01732
2880.12062,0.01722
2878.06045,0.01694
2876.00028,0.01679
2873.94010,0.01676
2871.87993,0.01660
2869.81976,0.01630
2867.75959,0.01601
2865.69941,0.01577
2863.63924,0.01566
2861.57907,0.01562
2859.51890,0.01548
2857.45873,0.01536
2855.39855,0.01536
2853.33838,0.01543
2851.27821,0.01537
2849.21804,0.01511
2847.15787,0.01495
2845.09769,0.01492
2843.03752,0.01477
2840.97735,0.01459
2838.91718,0.01463
2836.85700,0.01477
2834.79683,0.01468
2832.73666,0.01438
2830.67649,0.01418
2828.61632,0.01416
2826.55614,0.01407
2824.49597,0.01393
2822.43580,0.01396
2820.37563,0.01397
2818.31546,0.01397
2816.25528,0.01410
2814.19511,0.01407
2812.13494,0.01380
2810.07477,0.01355
2808.01460,0.01326
2805.95442,0.01300
2803.89425,0.01297
2801.83408,0.01306
2799.77391,0.01314
2797.71373,0.01313
2795.65356,0.01292
2793.59339,0.01260
2791.53322,0.01245
2789.47305,0.01256
2787.41287,0.01259
2785.35270,0.01241
2783.29253,0.01217
2781.23236,0.01207
2779.17219,0.01214
2777.11201,0.01216
2775.05184,0.01200
2772.99167,0.01179
2770.93150,0.01163
2768.87133,0.01156
2766.81115,0.01168
2764.75098,0.01181
2762.69081,0.01169
2760.63064,0.01145
2758.57046,0.01140
2756.51029,0.01151
2754.45012,0.01146
2752.38995,0.01130
2750.32978,0.01122
2748.26960,0.01110
2746.20943,0.01099
2744.14926,0.01106
2742.08909,0.01117
2740.02892,0.01113
2737.96874,0.01105
2735.90857,0.01098
2733.84840,0.01092
2731.78823,0.01090
2729.72805,0.01077
2727.66788,0.01055
2725.60771,0.01040
2723.54754,0.01036
2721.48737,0.01038
2719.42719,0.01040
2717.36702,0.01048
2715.30685,0.01054
2713.24668,0.01037
2711.18651,0.01006
2709.12633,0.00989
2707.06616,0.00996
2705.00599,0.01011
2702.94582,0.01014
2700.88565,0.00996
2698.82547,0.00977
2696.76530,0.00978
2694.70513,0.00984
2692.64496,0.00975
2690.58478,0.00954
2688.52461,0.00934
2686.46444,0.00923
2684.40427,0.00926
2682.34410,0.00938
2680.28392,0.00935
2678.22375,0.00916
2676.16358,0.00907
2674.10341,0.00903
2672.04324,0.00892
2669.98306,0.00880
2667.92289,0.00877
2665.86272,0.00884
2663.80255,0.00894
2661.74238,0.00889
2659.68220,0.00867
2657.62203,0.00849
2655.56186,0.00845
2653.50169,0.00853
2651.44151,0.00862
2649.38134,0.00851
2647.32117,0.00822
2645.26100,0.00799
2643.20083,0.00785
2641.14065,0.00793
2639.08048,0.00822
2637.02031,0.00834
2634.96014,0.00828
2632.89997,0.00815
2630.83979,0.00795
2628.77962,0.00767
2626.71945,0.00741
2624.65928,0.00747
2622.59910,0.00768
2620.53893,0.00758
2618.47876,0.00729
2616.41859,0.00710
2614.35842,0.00704
2612.29824,0.00707
2610.23807,0.00703
2608.17790,0.00686
2606.11773,0.00661
2604.05756,0.00651
2601.99738,0.00667
2599.93721,0.00672
2597.87704,0.00648
2595.81687,0.00621
2593.75670,0.00609
2591.69652,0.00606
2589.63635,0.00610
2587.57618,0.00625
2585.51601,0.00638
2583.45583,0.00644
2581.39566,0.00633
2579.33549,0.00594
2577.27532,0.00572
2575.21515,0.00572
2573.15497,0.00545
2571.09480,0.00516
2569.03463,0.00535
2566.97446,0.00594
2564.91429,0.00656
2562.85411,0.00688
2560.79394,0.00672
2558.73377,0.00640
2556.67360,0.00615
2554.61342,0.00588
2552.55325,0.00566
2550.49308,0.00568
2548.43291,0.00582
2546.37274,0.00598
2544.31256,0.00591
2542.25239,0.00549
2540.19222,0.00525
2538.13205,0.00519
2536.07188,0.00507
2534.01170,0.00499
2531.95153,0.00498
2529.89136,0.00518
2527.83119,0.00552
2525.77102,0.00582
2523.71084,0.00609
2521.65067,0.00620
2519.59050,0.00617
2517.53033,0.00605
2515.47015,0.00589
2513.40998,0.00583
2511.34981,0.00579
2509.28964,0.00578
2507.22947,0.00576
2505.16929,0.00563
2503.10912,0.00558
2501.04895,0.00571
2498.98878,0.00574
2496.92861,0.00548
2494.86843,0.00526
2492.80826,0.00551
2490.74809,0.00581
2488.68792,0.00575
2486.62775,0.00582
2484.56757,0.00624
2482.50740,0.00636
2480.44723,0.00603
2478.38706,0.00573
2476.32688,0.00565
2474.26671,0.00591
2472.20654,0.00642
2470.14637,0.00656
2468.08620,0.00627
2466.02602,0.00609
2463.96585,0.00613
2461.90568,0.00620
2459.84551,0.00632
2457.78534,0.00657
2455.72516,0.00686
2453.66499,0.00698
2451.60482,0.00696
2449.54465,0.00685
2447.48447,0.00663
2445.42430,0.00645
2443.36413,0.00635
2441.30396,0.00612
2439.24379,0.00571
2437.18361,0.00556
2435.12344,0.00568
2433.06327,0.00567
2431.00310,0.00575
2428.94293,0.00601
2426.88275,0.00605
2424.82258,0.00613
2422.76241,0.00647
2420.70224,0.00677
2418.64207,0.00683
2416.58189,0.00672
2414.52172,0.00647
2412.46155,0.00619
2410.40138,0.00604
2408.34120,0.00595
2406.28103,0.00574
2404.22086,0.00545
2402.16069,0.00544
2400.10052,0.00576
2398.04034,0.00588
2395.98017,0.00583
2393.92000,0.00581
2391.85983,0.00590
2389.79966,0.00606
2387.73948,0.00620
2385.67931,0.00619
2383.61914,0.00604
2381.55897,0.00596
2379.49880,0.00583
2377.43862,0.00534
2375.37845,0.00462
2373.31828,0.00428
2371.25811,0.00477
2369.19793,0.00565
2367.13776,0.00639
2365.07759,0.00754
2363.01742,0.00926
2360.95725,0.01017
2358.89707,0.00880
2356.83690,0.00603
2354.77673,0.00449
2352.71656,0.00492
2350.65639,0.00586
2348.59621,0.00623
2346.53604,0.00591
2344.47587,0.00531
2342.41570,0.00544
2340.35552,0.00629
2338.29535,0.00663
2336.23518,0.00628
2334.17501,0.00568
2332.11484,0.00528
2330.05466,0.00602
2327.99449,0.00782
2325.93432,0.00911
2323.87415,0.00895
2321.81398,0.00771
2319.75380,0.00632
2317.69363,0.00544
2315.63346,0.00483
2313.57329,0.00418
2311.51312,0.00387
2309.45294,0.00421
2307.39277,0.00494
2305.33260,0.00542
2303.27243,0.00550
2301.21225,0.00559
2299.15208,0.00576
2297.09191,0.00560
2295.03174,0.00531
2292.97157,0.00549
2290.91139,0.00590
2288.85122,0.00608
2286.79105,0.00598
2284.73088,0.00569
2282.67071,0.00531
2280.61053,0.00504
2278.55036,0.00495
2276.49019,0.00493
2274.43002,0.00485
2272.36984,0.00473
2270.30967,0.00469
2268.24950,0.00462
2266.18933,0.00458
2264.12916,0.00481
2262.06898,0.00516
2260.00881,0.00535
2257.94864,0.00532
2255.88847,0.00513
2253.82830,0.00503
2251.76812,0.00532
2249.70795,0.00585
2247.64778,0.00610
2245.58761,0.00567
2243.52744,0.00491
2241.46726,0.00448
2239.40709,0.00441
2237.34692,0.00444
2235.28675,0.00433
2233.22657,0.00400
2231.16640,0.00358
2229.10623,0.00332
2227.04606,0.00362
2224.98589,0.00428
2222.92571,0.00433
2220.86554,0.00367
2218.80537,0.00313
2216.74520,0.00318
2214.68503,0.00387
2212.62485,0.00460
2210.56468,0.00480
2208.50451,0.00463
2206.44434,0.00447
2204.38417,0.00458
2202.32399,0.00452
2200.26382,0.00434
2198.20365,0.00468
2196.14348,0.00456
2194.08330,0.00340
2192.02313,0.00254
2189.96296,0.00299
2187.90279,0.00401
2185.84262,0.00383
2183.78244,0.00299
2181.72227,0.00304
2179.66210,0.00284
2177.60193,0.00141
2175.54176,0.00053
2173.48158,0.00136
2171.42141,0.00287
2169.36124,0.00399
2167.30107,0.00453
2165.24089,0.00445
2163.18072,0.00371
2161.12055,0.00247
2159.06038,0.00154
2157.00021,0.00146
2154.94003,0.00172
2152.87986,0.00254
2150.81969,0.00412
2148.75952,0.00431
2146.69935,0.00266
2144.63917,0.00175
2142.57900,0.00182
2140.51883,0.00137
2138.45866,0.00038
2136.39849,0.00000
2134.33831,0.00066
2132.27814,0.00156
2130.21797,0.00197
2128.15780,0.00193
2126.09762,0.00207
2124.03745,0.00296
2121.97728,0.00416
2119.91711,0.00455
2117.85694,0.00404
2115.79676,0.00390
2113.73659,0.00426
2111.67642,0.00410
2109.61625,0.00361
2107.55608,0.00353
2105.49590,0.00354
2103.43573,0.00320
2101.37556,0.00267
2099.31539,0.00222
2097.25521,0.00202
2095.19504,0.00220
2093.13487,0.00275
2091.07470,0.00340
2089.01453,0.00379
2086.95435,0.00370
2084.89418,0.00332
2082.83401,0.00286
2080.77384,0.00244
2078.71367,0.00260
2076.65349,0.00307
2074.59332,0.00303
2072.53315,0.00289
2070.47298,0.00286
2068.41281,0.00267
2066.35263,0.00258
2064.29246,0.00253
2062.23229,0.00216
2060.17212,0.00147
2058.11194,0.00125
2056.05177,0.00208
2053.99160,0.00316
2051.93143,0.00353
2049.87126,0.00329
2047.81108,0.00288
2045.75091,0.00222
2043.69074,0.00164
2041.63057,0.00163
2039.57040,0.00217
2037.51022,0.00295
2035.45005,0.00353
2033.38988,0.00311
2031.32971,0.00143
2029.26954,0.00025
2027.20936,0.00107
2025.14919,0.00264
2023.08902,0.00280
2021.02885,0.00149
2018.96867,0.00042
2016.90850,0.00041
2014.84833,0.00105
2012.78816,0.00150
2010.72799,0.00092
2008.66781,0.00000
2006.60764,0.00005
2004.54747,0.00078
2002.48730,0.00146
2000.42713,0.00173
1998.36695,0.00142
1996.30678,0.00134
1994.24661,0.00170
1992.18644,0.00149
1990.12626,0.00077
1988.06609,0.00052
1986.00592,0.00096
1983.94575,0.00194
1981.88558,0.00327
1979.82540,0.00405
1977.76523,0.00336
1975.70506,0.00218
1973.64489,0.00200
1971.58472,0.00280
1969.52454,0.00332
1967.46437,0.00288
1965.40420,0.00152
1963.34403,0.00015
1961.28386,0.00000
1959.22368,0.00071
1957.16351,0.00121
1955.10334,0.00106
1953.04317,0.00048
1950.98299,0.00008
1948.92282,0.00026
1946.86265,0.00082
1944.80248,0.00098
1942.74231,0.00059
1940.68213,0.00056
1938.62196,0.00097
1936.56179,0.00121
1934.50162,0.00119
1932.44145,0.00131
1930.38127,0.00154
1928.32110,0.00130
1926.26093,0.00073
1924.20076,0.00055
1922.14059,0.00085
1920.08041,0.00123
1918.02024,0.00137
1915.96007,0.00103
1913.89990,0.00046
1911.83972,0.00027
1909.77955,0.00054
1907.71938,0.00096
1905.65921,0.00129
1903.59904,0.00125
1901.53886,0.00083
1899.47869,0.00065
1897.41852,0.00088
1895.35835,0.00115
1893.29818,0.00134
1891.23800,0.00138
1889.17783,0.00113
1887.11766,0.00082
1885.05749,0.00086
1882.99731,0.00116
1880.93714,0.00129
1878.87697,0.00118
1876.81680,0.00112
1874.75663,0.00121
1872.69645,0.00138
1870.63628,0.00135
1868.57611,0.00096
1866.51594,0.00061
1864.45577,0.00073
1862.39559,0.00125
1860.33542,0.00170
1858.27525,0.00171
1856.21508,0.00134
1854.15491,0.00099
1852.09473,0.00087
1850.03456,0.00090
1847.97439,0.00095
1845.91422,0.00097
1843.85404,0.00107
1841.79387,0.00128
1839.73370,0.00145
1837.67353,0.00149
1835.61336,0.00142
1833.55318,0.00133
1831.49301,0.00115
1829.43284,0.00087
1827.37267,0.00084
1825.31250,0.00106
1823.25232,0.00118
1821.19215,0.00103
1819.13198,0.00070
1817.07181,0.00046
1815.01163,0.00051
1812.95146,0.00075
1810.89129,0.00094
1808.83112,0.00099
1806.77095,0.00104
1804.71077,0.00118
1802.65060,0.00135
1800.59043,0.00147
1798.53026,0.00142
1796.47009,0.00120
1794.40991,0.00103
1792.34974,0.00111
1790.28957,0.00133
1788.22940,0.00144
1786.16923,0.00141
1784.10905,0.00134
1782.04888,0.00130
1779.98871,0.00129
1777.92854,0.00128
1775.86836,0.00126
1773.80819,0.00131
1771.74802,0.00141
1769.68785,0.00146
1767.62768,0.00157
1765.56750,0.00189
1763.50733,0.00230
1761.44716,0.00255
1759.38699,0.00252
1757.32682,0.00242
1755.26664,0.00249
1753.20647,0.00261
1751.14630,0.00260
1749.08613,0.00272
1747.02596,0.00309
1744.96578,0.00351
1742.90561,0.00393
1740.84544,0.00410
1738.78527,0.00383
1736.72509,0.00343
1734.66492,0.00347
1732.60475,0.00394
1730.54458,0.00423
1728.48441,0.00441
1726.42423,0.00474
1724.36406,0.00502
1722.30389,0.00509
1720.24372,0.00505
1718.18355,0.00498
1716.12337,0.00512
1714.06320,0.00554
1712.00303,0.00592
1709.94286,0.00605
1707.88268,0.00617
1705.82251,0.00649
1703.76234,0.00672
1701.70217,0.00666
1699.64200,0.00680
1697.58182,0.00737
1695.52165,0.00798
1693.46148,0.00839
1691.40131,0.00868
1689.34114,0.00897
1687.28096,0.00925
1685.22079,0.00959
1683.16062,0.01012
1681.10045,0.01070
1679.04028,0.01109
1676.98010,0.01135
1674.91993,0.01173
1672.85976,0.01232
1670.79959,0.01293
1668.73941,0.01352
1666.67924,0.01410
1664.61907,0.01465
1662.55890,0.01524
1660.49873,0.01578
1658.43855,0.01604
1656.37838,0.01606
1654.31821,0.01625
1652.25804,0.01683
1650.19787,0.01717
1648.13769,0.01716
1646.07752,0.01707
1644.01735,0.01699
1641.95718,0.01696
1639.89701,0.01697
1637.83683,0.01685
1635.77666,0.01661
1633.71649,0.01645
1631.65632,0.01638
1629.59614,0.01626
1627.53597,0.01611
1625.47580,0.01610
1623.41563,0.01614
1621.35546,0.01600
1619.29528,0.01567
1617.23511,0.01521
1615.17494,0.01474
1613.11477,0.01443
1611.05460,0.01425
1608.99442,0.01405
1606.93425,0.01384
1604.87408,0.01365
1602.81391,0.01340
1600.75373,0.01305
1598.69356,0.01262
1596.63339,0.01206
1594.57322,0.01137
1592.51305,0.01077
1590.45287,0.01037
1588.39270,0.01002
1586.33253,0.00964
1584.27236,0.00925
1582.21219,0.00883
1580.15201,0.00834
1578.09184,0.00777
1576.03167,0.00722
1573.97150,0.00689
1571.91133,0.00665
1569.85115,0.00646
1567.79098,0.00639
1565.73081,0.00632
1563.67064,0.00617
1561.61046,0.00590
1559.55029,0.00539
1557.49012,0.00486
1555.42995,0.00465
1553.36978,0.00461
1551.30960,0.00454
1549.24943,0.00441
1547.18926,0.00432
1545.12909,0.00414
1543.06892,0.00364
1541.00874,0.00291
1538.94857,0.00265
1536.88840,0.00278
1534.82823,0.00271
1532.76805,0.00250
1530.70788,0.00244
1528.64771,0.00246
1526.58754,0.00241
1524.52737,0.00229
1522.46719,0.00205
1520.40702,0.00167
1518.34685,0.00133
1516.28668,0.00125
1514.22651,0.00140
1512.16633,0.00148
1510.10616,0.00137
1508.04599,0.00118
1505.98582,0.00107
1503.92565,0.00111
1501.86547,0.00125
1499.80530,0.00136
1497.74513,0.00135
1495.68496,0.00118
1493.62478,0.00099
1491.56461,0.00084
1489.50444,0.00073
1487.44427,0.00083
1485.38410,0.00109
1483.32392,0.00124
1481.26375,0.00125
1479.20358,0.00134
1477.14341,0.00157
1475.08324,0.00190
1473.02306,0.00232
1470.96289,0.00258
1468.90272,0.00263
1466.84255,0.00262
1464.78238,0.00266
1462.72220,0.00274
1460.66203,0.00270
1458.60186,0.00243
1456.54169,0.00228
1454.48151,0.00261
1452.42134,0.00310
1450.36117,0.00350
1448.30100,0.00370
1446.24083,0.00362
1444.18065,0.00344
1442.12048,0.00338
1440.06031,0.00336
1438.00014,0.00322
1435.93997,0.00305
1433.87979,0.00312
1431.81962,0.00340
1429.75945,0.00368
1427.69928,0.00388
1425.63910,0.00402
1423.57893,0.00410
1421.51876,0.00417
1419.45859,0.00437
1417.39842,0.00468
1415.33824,0.00483
1413.27807,0.00479
1411.21790,0.00466
1409.15773,0.00455
1407.09756,0.00444
1405.03738,0.00426
1402.97721,0.00406
1400.91704,0.00393
1398.85687,0.00390
1396.79670,0.00386
1394.73652,0.00376
1392.67635,0.00362
1390.61618,0.00353
1388.55601,0.00352
1386.49583,0.00353
1384.43566,0.00356
1382.37549,0.00362
1380.31532,0.00370
1378.25515,0.00384
1376.19497,0.00392
1374.13480,0.00382
1372.07463,0.00366
1370.01446,0.00358
1367.95429,0.00354
1365.89411,0.00347
1363.83394,0.00334
1361.77377,0.00317
1359.71360,0.00303
1357.65343,0.00302
1355.59325,0.00304
1353.53308,0.00292
1351.47291,0.00268
1349.41274,0.00253
1347.35256,0.00246
1345.29239,0.00238
1343.23222,0.00227
1341.17205,0.00215
1339.11188,0.00217
1337.05170,0.00231
1334.99153,0.00241
1332.93136,0.00234
1330.87119,0.00225
1328.81102,0.00225
1326.75084,0.00227
1324.69067,0.00225
1322.63050,0.00216
1320.57033,0.00201
1318.51015,0.00184
1316.44998,0.00172
1314.38981,0.00160
1312.32964,0.00155
1310.26947,0.00168
1308.20929,0.00185
1306.14912,0.00187
1304.08895,0.00176
1302.02878,0.00165
1299.96861,0.00164
1297.90843,0.00168
1295.84826,0.00173
1293.78809,0.00176
1291.72792,0.00182
1289.66775,0.00194
1287.60757,0.00206
1285.54740,0.00204
1283.48723,0.00189
1281.42706,0.00171
1279.36688,0.00161
1277.30671,0.00170
1275.24654,0.00190
1273.18637,0.00199
1271.12620,0.00195
1269.06602,0.00200
1267.00585,0.00221
1264.94568,0.00232
1262.88551,0.00229
1260.82534,0.00231
1258.76516,0.00238
1256.70499,0.00242
1254.64482,0.00239
1252.58465,0.00229
1250.52447,0.00221
1248.46430,0.00213
1246.40413,0.00194
1244.34396,0.00181
1242.28379,0.00184
1240.22361,0.00181
1238.16344,0.00167
1236.10327,0.00159
1234.04310,0.00160
1231.98293,0.00161
1229.92275,0.00160
1227.86258,0.00158
1225.80241,0.00144
1223.74224,0.00118
1221.68207,0.00100
1219.62189,0.00096
1217.56172,0.00093
1215.50155,0.00090
1213.44138,0.00079
1211.38120,0.00053
1209.32103,0.00030
1207.26086,0.00019
1205.20069,0.00017
1203.14052,0.00010
1201.08034,0.00000
1199.02017,0.00002
1196.96000,0.00023
1194.89983,0.00042
1192.83966,0.00048
1190.77948,0.00054
1188.71931,0.00061
1186.65914,0.00064
1184.59897,0.00088
1182.53880,0.00139
1180.47862,0.00195
1178.41845,0.00238
1176.35828,0.00289
1174.29811,0.00358
1172.23793,0.00414
1170.17776,0.00450
1168.11759,0.00504
1166.05742,0.00578
1163.99725,0.00645
1161.93707,0.00703
1159.87690,0.00753
1157.81673,0.00781
1155.75656,0.00804
1153.69639,0.00849
1151.63621,0.00910
1149.57604,0.00971
1147.51587,0.01020
1145.45570,0.01069
1143.39552,0.01133
1141.33535,0.01196
1139.27518,0.01259
1137.21501,0.01329
1135.15484,0.01384
1133.09466,0.01426
1131.03449,0.01479
1128.97432,0.01541
1126.91415,0.01599
1124.85398,0.01659
1122.79380,0.01721
1120.73363,0.01788
1118.67346,0.01861
1116.61329,0.01934
1114.55312,0.02019
1112.49294,0.02121
1110.43277,0.02229
1108.37260,0.02343
1106.31243,0.02460
1104.25225,0.02571
1102.19208,0.02681
1100.13191,0.02800
1098.07174,0.02916
1096.01157,0.03015
1093.95139,0.03109
1091.89122,0.03196
1089.83105,0.03277
1087.77088,0.03370
1085.71071,0.03470
1083.65053,0.03550
1081.59036,0.03619
1079.53019,0.03710
1077.47002,0.03812
1075.40985,0.03886
1073.34967,0.03934
1071.28950,0.03986
1069.22933,0.04040
1067.16916,0.04072
1065.10898,0.04077
1063.04881,0.04070
1060.98864,0.04053
1058.92847,0.04024
1056.86830,0.04003
1054.80812,0.03998
1052.74795,0.03977
1050.68778,0.03939
1048.62761,0.03917
1046.56744,0.03895
1044.50726,0.03830
1042.44709,0.03742
1040.38692,0.03668
1038.32675,0.03596
1036.26657,0.03520
1034.20640,0.03438
1032.14623,0.03351
1030.08606,0.03270
1028.02589,0.03187
1025.96571,0.03095
1023.90554,0.03017
1021.84537,0.02963
1019.78520,0.02910
1017.72503,0.02843
1015.66485,0.02752
1013.60468,0.02648
1011.54451,0.02568
1009.48434,0.02504
1007.42417,0.02426
1005.36399,0.02352
1003.30382,0.02316
1001.24365,0.02313
999.18348,0.02310
997.12330,0.02313
995.06313,0.02352
993.00296,0.02422
990.94279,0.02495
988.88262,0.02548
986.82244,0.02580
984.76227,0.02598
982.70210,0.02582
980.64193,0.02513
978.58176,0.02385
976.52158,0.02232
974.46141,0.02112
972.40124,0.02009
970.34107,0.01876
968.28089,0.01732
966.22072,0.01601
964.16055,0.01478
962.10038,0.01378
960.04021,0.01305
957.98003,0.01218
955.91986,0.01115
953.85969,0.01028
951.79952,0.00977
949.73935,0.00944
947.67917,0.00913
945.61900,0.00887
943.55883,0.00869
941.49866,0.00860
939.43849,0.00847
937.37831,0.00835
935.31814,0.00834
933.25797,0.00840
931.19780,0.00847
929.13762,0.00830
927.07745,0.00792
925.01728,0.00753
922.95711,0.00690
920.89694,0.00617
918.83676,0.00594
916.77659,0.00577
914.71642,0.00497
912.65625,0.00413
910.59608,0.00377
908.53590,0.00364
906.47573,0.00367
904.41556,0.00367
902.35539,0.00346
900.29522,0.00325
898.23504,0.00311
896.17487,0.00305
894.11470,0.00318
892.05453,0.00339
889.99435,0.00341
887.93418,0.00344
885.87401,0.00373
883.81384,0.00400
881.75367,0.00408
879.69349,0.00425
877.63332,0.00476
875.57315,0.00542
873.51298,0.00607
871.45281,0.00664
869.39263,0.00685
867.33246,0.00681
865.27229,0.00688
863.21212,0.00690
861.15194,0.00673
859.09177,0.00674
857.03160,0.00709
854.97143,0.00727
852.91126,0.00694
850.85108,0.00641
848.79091,0.00603
846.73074,0.00582
844.67057,0.00549
842.61040,0.00508
840.55022,0.00492
838.49005,0.00481
836.42988,0.00447
834.36971,0.00430
832.30954,0.00444
830.24936,0.00426
828.18919,0.00361
826.12902,0.00287
824.06885,0.00237
822.00867,0.00223
819.94850,0.00205
817.88833,0.00175
815.82816,0.00174
813.76799,0.00190
811.70781,0.00194
809.64764,0.00202
807.58747,0.00217
805.52730,0.00203
803.46713,0.00181
801.40695,0.00190
799.34678,0.00203
797.28661,0.00190
795.22644,0.00176
793.16627,0.00174
791.10609,0.00154
789.04592,0.00112
786.98575,0.00098
784.92558,0.00106
782.86540,0.00105
780.80523,0.00115
778.74506,0.00148
776.68489,0.00161
774.62472,0.00145
772.56454,0.00165
770.50437,0.00246
768.44420,0.00302
766.38403,0.00291
764.32386,0.00250
762.26368,0.00182
760.20351,0.00115
758.14334,0.00085
756.08317,0.00079
754.02299,0.00102
751.96282,0.00132
749.90265,0.00125
747.84248,0.00112
745.78231,0.00132
743.72213,0.00153
741.66196,0.00124
739.60179,0.00081
737.54162,0.00061
735.48145,0.00026
733.42127,0.00000
731.36110,0.00040
729.30093,0.00130
727.24076,0.00185
725.18059,0.00188
723.12041,0.00203
721.06024,0.00228
719.00007,0.00235
716.93990,0.00205
714.87972,0.00168
712.81955,0.00143
710.75938,0.00123
708.69921,0.00121
706.63904,0.00166
704.57886,0.00258
702.51869,0.00320
700.45852,0.00265
698.39835,0.00158
696.33818,0.00115
694.27800,0.00128
692.21783,0.00150
690.15766,0.00184
688.09749,0.00225
686.03731,0.00272
683.97714,0.00307
681.91697,0.00284
679.85680,0.00262
677.79663,0.00290
675.73645,0.00293
673.67628,0.00219
671.61611,0.00116
669.55594,0.00093
667.49577,0.00199
665.43559,0.00275
663.37542,0.00232
661.31525,0.00121
659.25508,0.00036
657.19491,0.00058
655.13473,0.00168
653.07456,0.00276
651.01439,0.00342
648.95422,0.00343
646.89404,0.00304
644.83387,0.00330
642.77370,0.00393
640.71353,0.00345
638.65336,0.00197
636.59318,0.00123
634.53301,0.00174
632.47284,0.00212
630.41267,0.00167
628.35250,0.00115
626.29232,0.00081
624.23215,0.00078
622.17198,0.00279
620.11181,0.00465
618.05164,0.00362
615.99146,0.00137
613.93129,0.00000
611.87112,-0.00001
609.81095,0.00046
607.75077,0.00025
605.69060,-0.00024
603.63043,-0.00028
601.57026,-0.00006
599.51009,0.00000
