3996.73391,0.00012
3994.67373,0.00013
3992.61356,0.00020
3990.55339,0.00041
3988.49322,0.00076
3986.43305,0.00095
3984.37287,0.00082
3982.31270,0.00068
3980.25253,0.00069
3978.19236,0.00066
3976.13219,0.00054
3974.07201,0.00044
3972.01184,0.00037
3969.95167,0.00028
3967.89150,0.00013
3965.83133,0.00000
3963.77115,0.00009
3961.71098,0.00028
3959.65081,0.00029
3957.59064,0.00029
3955.53046,0.00055
3953.47029,0.00076
3951.41012,0.00074
3949.34995,0.00080
3947.28978,0.00100
3945.22960,0.00100
3943.16943,0.00076
3941.10926,0.00063
3939.04909,0.00068
3936.98892,0.00062
3934.92874,0.00042
3932.86857,0.00036
3930.80840,0.00052
3928.74823,0.00054
3926.68805,0.00044
3924.62788,0.00058
3922.56771,0.00092
3920.50754,0.00116
3918.44737,0.00118
3916.38719,0.00115
3914.32702,0.00116
3912.26685,0.00095
3910.20668,0.00048
3908.14651,0.00022
3906.08633,0.00045
3904.02616,0.00070
3901.96599,0.00054
3899.90582,0.00042
3897.84565,0.00057
3895.78547,0.00055
3893.72530,0.00035
3891.66513,0.00040
3889.60496,0.00059
3887.54478,0.00058
3885.48461,0.00048
3883.42444,0.00043
3881.36427,0.00043
3879.30410,0.00049
3877.24392,0.00060
3875.18375,0.00054
3873.12358,0.00027
3871.06341,0.00006
3869.00324,-0.00000
3866.94306,0.00000
3864.88289,0.00014
3862.82272,0.00029
3860.76255,0.00029
3858.70237,0.00026
3856.64220,0.00022
3854.58203,0.00025
3852.52186,0.00059
3850.46169,0.00093
3848.40151,0.00092
3846.34134,0.00070
3844.28117,0.00053
3842.22100,0.00049
3840.16083,0.00044
3838.10065,0.00034
3836.04048,0.00034
3833.98031,0.00046
3831.92014,0.00056
3829.85997,0.00068
3827.79979,0.00091
3825.73962,0.00101
3823.67945,0.00088
3821.61928,0.00060
3819.55910,0.00029
3817.49893,0.00038
3815.43876,0.00079
3813.37859,0.00074
3811.31842,0.00034
3809.25824,0.00035
3807.19807,0.00080
3805.13790,0.00102
3803.07773,0.00079
3801.01756,0.00052
3798.95738,0.00071
3796.89721,0.00108
3794.83704,0.00121
3792.77687,0.00122
3790.71670,0.00122
3788.65652,0.00115
3786.59635,0.00104
3784.53618,0.00104
3782.47601,0.00108
3780.41583,0.00109
3778.35566,0.00118
3776.29549,0.00133
3774.23532,0.00141
3772.17515,0.00136
3770.11497,0.00114
3768.05480,0.00083
3765.99463,0.00070
3763.93446,0.00081
3761.87429,0.00104
3759.81411,0.00131
3757.75394,0.00157
3755.69377,0.00185
3753.63360,0.00202
3751.57342,0.00173
3749.51325,0.00113
3747.45308,0.00078
3745.39291,0.00056
3743.33274,0.00020
3741.27256,0.00014
3739.21239,0.00062
3737.15222,0.00098
3735.09205,0.00055
3733.03188,0.00000
3730.97170,0.00019
3728.91153,0.00063
3726.85136,0.00096
3724.79119,0.00140
3722.73102,0.00183
3720.67084,0.00186
3718.61067,0.00154
3716.55050,0.00137
3714.49033,0.00153
3712.43015,0.00168
3710.36998,0.00151
3708.30981,0.00108
3706.24964,0.00072
3704.18947,0.00051
3702.12929,0.00057
3700.06912,0.00091
3698.00895,0.00140
3695.94878,0.00203
3693.88861,0.00258
3691.82843,0.00290
3689.76826,0.00272
3687.70809,0.00195
3685.64792,0.00132
3683.58775,0.00138
3681.52757,0.00188
3679.46740,0.00246
3677.40723,0.00285
3675.34706,0.00271
3673.28688,0.00217
3671.22671,0.00202
3669.16654,0.00247
3667.10637,0.00303
3665.04620,0.00331
3662.98602,0.00340
3660.92585,0.00364
3658.86568,0.00401
3656.80551,0.00424
3654.74534,0.00439
3652.68516,0.00480
3650.62499,0.00559
3648.56482,0.00620
3646.50465,0.00595
3644.44447,0.00537
3642.38430,0.00518
3640.32413,0.00536
3638.26396,0.00586
3636.20379,0.00664
3634.14361,0.00718
3632.08344,0.00709
3630.02327,0.00673
3627.96310,0.00682
3625.90293,0.00720
3623.84275,0.00751
3621.78258,0.00768
3619.72241,0.00775
3617.66224,0.00779
3615.60207,0.00797
3613.54189,0.00851
3611.48172,0.00929
3609.42155,0.01002
3607.36138,0.01055
3605.30120,0.01080
3603.24103,0.01085
3601.18086,0.01102
3599.12069,0.01155
3597.06052,0.01226
3595.00034,0.01296
3592.94017,0.01342
3590.88000,0.01353
3588.81983,0.01336
3586.75966,0.01327
3584.69948,0.01346
3582.63931,0.01400
3580.57914,0.01468
3578.51897,0.01510
3576.45879,0.01533
3574.39862,0.01572
3572.33845,0.01616
3570.27828,0.01641
3568.21811,0.01637
3566.15793,0.01622
3564.09776,0.01644
3562.03759,0.01715
3559.97742,0.01793
3557.91725,0.01841
3555.85707,0.01858
3553.79690,0.01857
3551.73673,0.01860
3549.67656,0.01893
3547.61639,0.01943
3545.55621,0.01977
3543.49604,0.01995
3541.43587,0.02013
3539.37570,0.02046
3537.31552,0.02110
3535.25535,0.02171
3533.19518,0.02190
3531.13501,0.02189
3529.07484,0.02206
3527.01466,0.02246
3524.95449,0.02293
3522.89432,0.02322
3520.83415,0.02324
3518.77398,0.02313
3516.71380,0.02318
3514.65363,0.02364
3512.59346,0.02451
3510.53329,0.02531
3508.47312,0.02560
3506.41294,0.02558
3504.35277,0.02556
3502.29260,0.02547
3500.23243,0.02546
3498.17225,0.02594
3496.11208,0.02670
3494.05191,0.02714
3491.99174,0.02734
3489.93157,0.02771
3487.87139,0.02802
3485.81122,0.02800
3483.75105,0.02804
3481.69088,0.02835
3479.63071,0.02853
3477.57053,0.02833
3475.51036,0.02818
3473.45019,0.02843
3471.39002,0.02886
3469.32984,0.02932
3467.26967,0.02998
3465.20950,0.03061
3463.14933,0.03069
3461.08916,0.03052
3459.02898,0.03065
3456.96881,0.03091
3454.90864,0.03101
3452.84847,0.03108
3450.78830,0.03113
3448.72812,0.03102
3446.66795,0.03103
3444.60778,0.03144
3442.54761,0.03209
3440.48744,0.03268
3438.42726,0.03309
3436.36709,0.03348
3434.30692,0.03372
3432.24675,0.03361
3430.18657,0.03331
3428.12640,0.03314
3426.06623,0.03327
3424.00606,0.03365
3421.94589,0.03399
3419.88571,0.03385
3417.82554,0.03364
3415.76537,0.03403
3413.70520,0.03466
3411.64503,0.03482
3409.58485,0.03452
3407.52468,0.03449
3405.46451,0.03501
3403.40434,0.03536
3401.34416,0.03539
3399.28399,0.03530
3397.22382,0.03508
3395.16365,0.03510
3393.10348,0.03556
3391.04330,0.03596
3388.98313,0.03592
3386.92296,0.03577
3384.86279,0.03577
3382.80262,0.03590
3380.74244,0.03615
3378.68227,0.03633
3376.62210,0.03646
3374.56193,0.03661
3372.50176,0.03651
3370.44158,0.03601
3368.38141,0.03564
3366.32124,0.03591
3364.26107,0.03643
3362.20089,0.03654
3360.14072,0.03646
3358.08055,0.03670
3356.02038,0.03709
3353.96021,0.03717
3351.90003,0.03702
3349.83986,0.03698
3347.77969,0.03708
3345.71952,0.03706
3343.65935,0.03687
3341.59917,0.03670
3339.53900,0.03670
3337.47883,0.03674
3335.41866,0.03666
3333.35849,0.03652
3331.29831,0.03645
3329.23814,0.03645
3327.17797,0.03647
3325.11780,0.03641
3323.05762,0.03641
3320.99745,0.03668
3318.93728,0.03687
3316.87711,0.03676
3314.81694,0.03670
3312.75676,0.03684
3310.69659,0.03689
3308.63642,0.03668
3306.57625,0.03651
3304.51608,0.03651
3302.45590,0.03653
3300.39573,0.03645
3298.33556,0.03641
3296.27539,0.03665
3294.21521,0.03694
3292.15504,0.03682
3290.09487,0.03641
3288.03470,0.03625
3285.97453,0.03648
3283.91435,0.03682
3281.85418,0.03699
3279.79401,0.03679
3277.73384,0.03630
3275.67367,0.03598
3273.61349,0.03599
3271.55332,0.03633
3269.49315,0.03697
3267.43298,0.03734
3265.37281,0.03723
3263.31263,0.03702
3261.25246,0.03688
3259.19229,0.03686
3257.13212,0.03679
3255.07194,0.03654
3253.01177,0.03629
3250.95160,0.03614
3248.89143,0.03607
3246.83126,0.03616
3244.77108,0.03628
3242.71091,0.03620
3240.65074,0.03622
3238.59057,0.03644
3236.53040,0.03641
3234.47022,0.03625
3232.41005,0.03617
3230.34988,0.03605
3228.28971,0.03613
3226.22954,0.03648
3224.16936,0.03652
3222.10919,0.03604
3220.04902,0.03547
3217.98885,0.03519
3215.92867,0.03509
3213.86850,0.03494
3211.80833,0.03495
3209.74816,0.03516
3207.68799,0.03525
3205.62781,0.03512
3203.56764,0.03491
3201.50747,0.03476
3199.44730,0.03461
3197.38713,0.03446
3195.32695,0.03434
3193.26678,0.03427
3191.20661,0.03433
3189.14644,0.03443
3187.08626,0.03423
3185.02609,0.03391
3182.96592,0.03385
3180.90575,0.03397
3178.84558,0.03393
3176.78540,0.03362
3174.72523,0.03334
3172.66506,0.03335
3170.60489,0.03339
3168.54472,0.03319
3166.48454,0.03294
3164.42437,0.03288
3162.36420,0.03294
3160.30403,0.03292
3158.24386,0.03276
3156.18368,0.03261
3154.12351,0.03255
3152.06334,0.03240
3150.00317,0.03202
3147.94299,0.03169
3145.88282,0.03161
3143.82265,0.03156
3141.76248,0.03144
3139.70231,0.03129
3137.64213,0.03113
3135.58196,0.03101
3133.52179,0.03090
3131.46162,0.03087
3129.40145,0.03076
3127.34127,0.03054
3125.28110,0.03039
3123.22093,0.03033
3121.16076,0.03018
3119.10058,0.02995
3117.04041,0.02974
3114.98024,0.02945
3112.92007,0.02927
3110.85990,0.02935
3108.79972,0.02930
3106.73955,0.02909
3104.67938,0.02892
3102.61921,0.02871
3100.55904,0.02838
3098.49886,0.02801
3096.43869,0.02778
3094.37852,0.02778
3092.31835,0.02791
3090.25818,0.02802
3088.19800,0.02805
3086.13783,0.02791
3084.07766,0.02759
3082.01749,0.02724
3079.95731,0.02703
3077.89714,0.02693
3075.83697,0.02678
3073.77680,0.02660
3071.71663,0.02649
3069.65645,0.02634
3067.59628,0.02597
3065.53611,0.02559
3063.47594,0.02551
3061.41577,0.02565
3059.35559,0.02568
3057.29542,0.02549
3055.23525,0.02527
3053.17508,0.02521
3051.11491,0.02526
3049.05473,0.02516
3046.99456,0.02482
3044.93439,0.02454
3042.87422,0.02436
3040.81404,0.02406
3038.75387,0.02399
3036.69370,0.02429
3034.63353,0.02433
3032.57336,0.02387
3030.51318,0.02337
3028.45301,0.02306
3026.39284,0.02298
3024.33267,0.02309
3022.27250,0.02312
3020.21232,0.02299
3018.15215,0.02277
3016.09198,0.02251
3014.03181,0.02229
3011.97163,0.02216
3009.91146,0.02205
3007.85129,0.02195
3005.79112,0.02184
3003.73095,0.02169
3001.67077,0.02152
2999.61060,0.02136
2997.55043,0.02113
2995.49026,0.02091
2993.43009,0.02095
2991.36991,0.02101
2989.30974,0.02072
2987.24957,0.02034
2985.18940,0.02010
2983.12923,0.02004
2981.06905,0.02027
2979.00888,0.02042
2976.94871,0.02015
2974.88854,0.01985
2972.82836,0.01983
2970.76819,0.01998
2968.70802,0.02006
2966.64785,0.01996
2964.58768,0.01991
2962.52750,0.01990
2960.46733,0.01983
2958.40716,0.01980
2956.34699,0.01974
2954.28682,0.01953
2952.22664,0.01946
2950.16647,0.01968
2948.10630,0.01985
2946.04613,0.01997
2943.98596,0.02017
2941.92578,0.02018
2939.86561,0.01998
2937.80544,0.01982
2935.74527,0.01974
2933.68509,0.01965
2931.62492,0.01956
2929.56475,0.01950
2927.50458,0.01933
2925.44441,0.01904
2923.38423,0.01886
2921.32406,0.01878
2919.26389,0.01866
2917.20372,0.01860
2915.14355,0.01870
2913.08337,0.01883
2911.02320,0.01882
2908.96303,0.01858
2906.90286,0.01827
2904.84268,0.01812
2902.78251,0.01805
2900.72234,0.01796
2898.66217,0.01787
2896.60200,0.01778
2894.54182,0.01771
2892.48165,0.01771
2890.42148,0.01767
2888.36131,0.01749
2886.30114,0.01730
2884.24096,0.01738
2882.18079,0.01765
2880.12062,0.01760
2878.06045,0.01722
2876.00028,0.01699
2873.94010,0.01704
2871.87993,0.01708
2869.81976,0.01677
2867.75959,0.01634
2865.69941,0.01618
2863.63924,0.01614
2861.57907,0.01599
2859.51890,0.01588
2857.45873,0.01586
2855.39855,0.01590
2853.33838,0.01598
2851.27821,0.01593
2849.21804,0.01579
2847.15787,0.01565
2845.09769,0.01542
2843.03752,0.01505
2840.97735,0.01472
2838.91718,0.01470
2836.85700,0.01490
2834.79683,0.01492
2832.73666,0.01471
2830.67649,0.01459
2828.61632,0.01461
2826.55614,0.01453
2824.49597,0.01442
2822.43580,0.01437
2820.37563,0.01444
2818.31546,0.01471
2816.25528,0.01493
2814.19511,0.01480
2812.13494,0.01444
2810.07477,0.01411
2808.01460,0.01388
2805.95442,0.01379
2803.89425,0.01383
2801.83408,0.01386
2799.77391,0.01385
2797.71373,0.01369
2795.65356,0.01336
2793.59339,0.01311
2791.53322,0.01307
2789.47305,0.01313
2787.41287,0.01311
2785.35270,0.01295
2783.29253,0.01266
2781.23236,0.01248
2779.17219,0.01261
2777.11201,0.01269
2775.05184,0.01262
2772.99167,0.01264
2770.93150,0.01262
2768.87133,0.01255
2766.81115,0.01255
2764.75098,0.01256
2762.69081,0.01247
2760.63064,0.01222
2758.57046,0.01203
2756.51029,0.01207
2754.45012,0.01217
2752.38995,0.01217
2750.32978,0.01213
2748.26960,0.01208
2746.20943,0.01198
2744.14926,0.01184
2742.08909,0.01183
2740.02892,0.01192
2737.96874,0.01191
2735.90857,0.01174
2733.84840,0.01159
2731.78823,0.01147
2729.72805,0.01124
2727.66788,0.01113
2725.60771,0.01117
2723.54754,0.01111
2721.48737,0.01108
2719.42719,0.01116
2717.36702,0.01118
2715.30685,0.01107
2713.24668,0.01090
2711.18651,0.01078
2709.12633,0.01061
2707.06616,0.01046
2705.00599,0.01058
2702.94582,0.01077
2700.88565,0.01077
2698.82547,0.01071
2696.76530,0.01063
2694.70513,0.01050
2692.64496,0.01038
2690.58478,0.01027
2688.52461,0.01019
2686.46444,0.01013
2684.40427,0.01004
2682.34410,0.01003
2680.28392,0.01006
2678.22375,0.00998
2676.16358,0.00979
2674.10341,0.00954
2672.04324,0.00930
2669.98306,0.00920
2667.92289,0.00928
2665.86272,0.00940
2663.80255,0.00940
2661.74238,0.00936
2659.68220,0.00936
2657.62203,0.00927
2655.56186,0.00911
2653.50169,0.00904
2651.44151,0.00905
2649.38134,0.00910
2647.32117,0.00905
2645.26100,0.00881
2643.20083,0.00852
2641.14065,0.00837
2639.08048,0.00847
2637.02031,0.00864
2634.96014,0.00871
2632.89997,0.00860
2630.83979,0.00833
2628.77962,0.00814
2626.71945,0.00803
2624.65928,0.00787
2622.59910,0.00771
2620.53893,0.00750
2618.47876,0.00738
2616.41859,0.00744
2614.35842,0.00745
2612.29824,0.00738
2610.23807,0.00735
2608.17790,0.00727
2606.11773,0.00710
2604.05756,0.00701
2601.99738,0.00690
2599.93721,0.00681
2597.87704,0.00690
2595.81687,0.00685
2593.75670,0.00668
2591.69652,0.00658
2589.63635,0.00649
2587.57618,0.00640
2585.51601,0.00643
2583.45583,0.00663
2581.39566,0.00676
2579.33549,0.00648
2577.27532,0.00622
2575.21515,0.00608
2573.15497,0.00566
2571.09480,0.00528
2569.03463,0.00543
2566.97446,0.00596
2564.91429,0.00660
2562.85411,0.00715
2560.79394,0.00724
2558.73377,0.00695
2556.67360,0.00656
2554.61342,0.00610
2552.55325,0.00588
2550.49308,0.00626
2548.43291,0.00677
2546.37274,0.00690
2544.31256,0.00668
2542.25239,0.00616
2540.19222,0.00580
2538.13205,0.00588
2536.07188,0.00614
2534.01170,0.00646
2531.95153,0.00654
2529.89136,0.00623
2527.83119,0.00591
2525.77102,0.00605
2523.71084,0.00654
2521.65067,0.00677
2519.59050,0.00669
2517.53033,0.00655
2515.47015,0.00643
2513.40998,0.00633
2511.34981,0.00630
2509.28964,0.00637
2507.22947,0.00643
2505.16929,0.00626
2503.10912,0.00601
2501.04895,0.00598
2498.98878,0.00614
2496.92861,0.00626
2494.86843,0.00632
2492.80826,0.00636
2490.74809,0.00627
2488.68792,0.00618
2486.62775,0.00636
2484.56757,0.00659
2482.50740,0.00664
2480.44723,0.00654
2478.38706,0.00623
2476.32688,0.00593
2474.26671,0.00615
2472.20654,0.00677
2470.14637,0.00708
2468.08620,0.00699
2466.02602,0.00688
2463.96585,0.00674
2461.90568,0.00658
2459.84551,0.00660
2457.78534,0.00672
2455.72516,0.00683
2453.66499,0.00693
2451.60482,0.00712
2449.54465,0.00720
2447.48447,0.00697
2445.42430,0.00664
2443.36413,0.00639
2441.30396,0.00628
2439.24379,0.00633
2437.18361,0.00644
2435.12344,0.00653
2433.06327,0.00665
2431.00310,0.00677
2428.94293,0.00677
2426.88275,0.00671
2424.82258,0.00680
2422.76241,0.00704
2420.70224,0.00709
2418.64207,0.00681
2416.58189,0.00636
2414.52172,0.00600
2412.46155,0.00610
2410.40138,0.00642
2408.34120,0.00630
2406.28103,0.00586
2404.22086,0.00572
2402.16069,0.00597
2400.10052,0.00614
2398.04034,0.00609
2395.98017,0.00598
2393.92000,0.00592
2391.85983,0.00599
2389.79966,0.00623
2387.73948,0.00656
2385.67931,0.00688
2383.61914,0.00716
2381.55897,0.00712
2379.49880,0.00653
2377.43862,0.00583
2375.37845,0.00537
2373.31828,0.00560
2371.25811,0.00686
2369.19793,0.00850
2367.13776,0.00992
2365.07759,0.01091
2363.01742,0.01093
2360.95725,0.01146
2358.89707,0.00992
2356.83690,0.00691
2354.77673,0.00497
2352.71656,0.00522
2350.65639,0.00829
2348.59621,0.01014
2346.53604,0.00703
2344.47587,0.00554
2342.41570,0.00564
2340.35552,0.00628
2338.29535,0.00663
2336.23518,0.00641
2334.17501,0.00654
2332.11484,0.00635
2330.05466,0.00652
2327.99449,0.00736
2325.93432,0.00881
2323.87415,0.00914
2321.81398,0.00862
2319.75380,0.00727
2317.69363,0.00662
2315.63346,0.00619
2313.57329,0.00571
2311.51312,0.00554
2309.45294,0.00583
2307.39277,0.00632
2305.33260,0.00674
2303.27243,0.00701
2301.21225,0.00694
2299.15208,0.00687
2297.09191,0.00666
2295.03174,0.00632
2292.97157,0.00635
2290.91139,0.00664
2288.85122,0.00669
2286.79105,0.00638
2284.73088,0.00605
2282.67071,0.00610
2280.61053,0.00641
2278.55036,0.00649
2276.49019,0.00602
2274.43002,0.00523
2272.36984,0.00462
2270.30967,0.00457
2268.24950,0.00489
2266.18933,0.00520
2264.12916,0.00528
2262.06898,0.00510
2260.00881,0.00489
2257.94864,0.00498
2255.88847,0.00519
2253.82830,0.00539
2251.76812,0.00568
2249.70795,0.00599
2247.64778,0.00592
2245.58761,0.00519
2243.52744,0.00460
2241.46726,0.00468
2239.40709,0.00493
2237.34692,0.00498
2235.28675,0.00467
2233.22657,0.00404
2231.16640,0.00361
2229.10623,0.00362
2227.04606,0.00397
2224.98589,0.00430
2222.92571,0.00418
2220.86554,0.00402
2218.80537,0.00436
2216.74520,0.00486
2214.68503,0.00503
2212.62485,0.00463
2210.56468,0.00411
2208.50451,0.00398
2206.44434,0.00410
2204.38417,0.00446
2202.32399,0.00481
2200.26382,0.00477
2198.20365,0.00494
2196.14348,0.00499
2194.08330,0.00442
2192.02313,0.00389
2189.96296,0.00379
2187.90279,0.00398
2185.84262,0.00372
2183.78244,0.00292
2181.72227,0.00251
2179.66210,0.00233
2177.60193,0.00197
2175.54176,0.00186
2173.48158,0.00209
2171.42141,0.00277
2169.36124,0.00393
2167.30107,0.00481
2165.24089,0.00463
2163.18072,0.00328
2161.12055,0.00184
2159.06038,0.00112
2157.00021,0.00027
2154.94003,0.00000
2152.87986,0.00096
2150.81969,0.00144
2148.75952,0.00071
2146.69935,0.00045
2144.63917,0.00175
2142.57900,0.00299
2140.51883,0.00262
2138.45866,0.00140
2136.39849,0.00104
2134.33831,0.00190
2132.27814,0.00259
2130.21797,0.00245
2128.15780,0.00202
2126.09762,0.00185
2124.03745,0.00221
2121.97728,0.00291
2119.91711,0.00353
2117.85694,0.00385
2115.79676,0.00403
2113.73659,0.00400
2111.67642,0.00374
2109.61625,0.00374
2107.55608,0.00381
2105.49590,0.00346
2103.43573,0.00290
2101.37556,0.00238
2099.31539,0.00204
2097.25521,0.00219
2095.19504,0.00262
2093.13487,0.00278
2091.07470,0.00290
2089.01453,0.00314
2086.95435,0.00326
2084.89418,0.00334
2082.83401,0.00325
2080.77384,0.00283
2078.71367,0.00244
2076.65349,0.00216
2074.59332,0.00174
2072.53315,0.00151
2070.47298,0.00191
2068.41281,0.00248
2066.35263,0.00278
2064.29246,0.00270
2062.23229,0.00250
2060.17212,0.00264
2058.11194,0.00272
2056.05177,0.00228
2053.99160,0.00198
2051.93143,0.00217
2049.87126,0.00248
2047.81108,0.00289
2045.75091,0.00349
2043.69074,0.00399
2041.63057,0.00351
2039.57040,0.00253
2037.51022,0.00259
2035.45005,0.00317
2033.38988,0.00343
2031.32971,0.00333
2029.26954,0.00246
2027.20936,0.00137
2025.14919,0.00095
2023.08902,0.00107
2021.02885,0.00087
2018.96867,0.00016
2016.90850,0.00000
2014.84833,0.00093
2012.78816,0.00201
2010.72799,0.00173
2008.66781,0.00054
2006.60764,0.00054
2004.54747,0.00143
2002.48730,0.00196
2000.42713,0.00213
1998.36695,0.00177
1996.30678,0.00167
1994.24661,0.00220
1992.18644,0.00217
1990.12626,0.00181
1988.06609,0.00208
1986.00592,0.00261
1983.94575,0.00315
1981.88558,0.00329
1979.82540,0.00273
1977.76523,0.00232
1975.70506,0.00244
1973.64489,0.00257
1971.58472,0.00304
1969.52454,0.00389
1967.46437,0.00381
1965.40420,0.00217
1963.34403,0.00046
1961.28386,0.00000
1959.22368,0.00048
1957.16351,0.00119
1955.10334,0.00166
1953.04317,0.00201
1950.98299,0.00210
1948.92282,0.00187
1946.86265,0.00195
1944.80248,0.00194
1942.74231,0.00125
1940.68213,0.00068
1938.62196,0.00065
1936.56179,0.00065
1934.50162,0.00043
1932.44145,0.00042
1930.38127,0.00078
1928.32110,0.00069
1926.26093,0.00035
1924.20076,0.00080
1922.14059,0.00145
1920.08041,0.00143
1918.02024,0.00135
1915.96007,0.00142
1913.89990,0.00109
1911.83972,0.00051
1909.77955,0.00039
1907.71938,0.00096
1905.65921,0.00155
1903.59904,0.00150
1901.53886,0.00111
1899.47869,0.00100
1897.41852,0.00102
1895.35835,0.00085
1893.29818,0.00066
1891.23800,0.00057
1889.17783,0.00053
1887.11766,0.00068
1885.05749,0.00110
1882.99731,0.00156
1880.93714,0.00172
1878.87697,0.00161
1876.81680,0.00140
1874.75663,0.00123
1872.69645,0.00109
1870.63628,0.00095
1868.57611,0.00096
1866.51594,0.00119
1864.45577,0.00142
1862.39559,0.00153
1860.33542,0.00153
1858.27525,0.00151
1856.21508,0.00146
1854.15491,0.00137
1852.09473,0.00135
1850.03456,0.00147
1847.97439,0.00158
1845.91422,0.00146
1843.85404,0.00122
1841.79387,0.00116
1839.73370,0.00121
1837.67353,0.00127
1835.61336,0.00129
1833.55318,0.00114
1831.49301,0.00076
1829.43284,0.00049
1827.37267,0.00068
1825.31250,0.00106
1823.25232,0.00120
1821.19215,0.00095
1819.13198,0.00067
1817.07181,0.00076
1815.01163,0.00113
1812.95146,0.00142
1810.89129,0.00149
1808.83112,0.00151
1806.77095,0.00165
1804.71077,0.00189
1802.65060,0.00208
1800.59043,0.00206
1798.53026,0.00183
1796.47009,0.00164
1794.40991,0.00155
1792.34974,0.00142
1790.28957,0.00142
1788.22940,0.00175
1786.16923,0.00212
1784.10905,0.00222
1782.04888,0.00207
1779.98871,0.00187
1777.92854,0.00169
1775.86836,0.00155
1773.80819,0.00158
1771.74802,0.00181
1769.68785,0.00192
1767.62768,0.00193
1765.56750,0.00218
1763.50733,0.00258
1761.44716,0.00284
1759.38699,0.00293
1757.32682,0.00306
1755.26664,0.00328
1753.20647,0.00332
1751.14630,0.00322
1749.08613,0.00339
1747.02596,0.00373
1744.96578,0.00386
1742.90561,0.00391
1740.84544,0.00404
1738.78527,0.00412
1736.72509,0.00407
1734.66492,0.00403
1732.60475,0.00412
1730.54458,0.00428
1728.48441,0.00449
1726.42423,0.00479
1724.36406,0.00513
1722.30389,0.00539
1720.24372,0.00551
1718.18355,0.00551
1716.12337,0.00545
1714.06320,0.00557
1712.00303,0.00587
1709.94286,0.00616
1707.88268,0.00644
1705.82251,0.00668
1703.76234,0.00667
1701.70217,0.00648
1699.64200,0.00666
1697.58182,0.00736
1695.52165,0.00810
1693.46148,0.00862
1691.40131,0.00907
1689.34114,0.00941
1687.28096,0.00950
1685.22079,0.00955
1683.16062,0.00995
1681.10045,0.01054
1679.04028,0.01106
1676.98010,0.01150
1674.91993,0.01193
1672.85976,0.01236
1670.79959,0.01273
1668.73941,0.01313
1666.67924,0.01354
1664.61907,0.01389
1662.55890,0.01427
1660.49873,0.01469
1658.43855,0.01498
1656.37838,0.01516
1654.31821,0.01554
1652.25804,0.01607
1650.19787,0.01623
1648.13769,0.01612
1646.07752,0.01601
1644.01735,0.01599
1641.95718,0.01607
1639.89701,0.01615
1637.83683,0.01613
1635.77666,0.01606
1633.71649,0.01603
1631.65632,0.01589
1629.59614,0.01565
1627.53597,0.01554
1625.47580,0.01562
1623.41563,0.01555
1621.35546,0.01522
1619.29528,0.01490
1617.23511,0.01464
1615.17494,0.01432
1613.11477,0.01400
1611.05460,0.01374
1608.99442,0.01360
1606.93425,0.01356
1604.87408,0.01348
1602.81391,0.01322
1600.75373,0.01288
1598.69356,0.01249
1596.63339,0.01205
1594.57322,0.01164
1592.51305,0.01127
1590.45287,0.01089
1588.39270,0.01046
1586.33253,0.01002
1584.27236,0.00957
1582.21219,0.00908
1580.15201,0.00858
1578.09184,0.00804
1576.03167,0.00750
1573.97150,0.00719
1571.91133,0.00701
1569.85115,0.00674
1567.79098,0.00645
1565.73081,0.00623
1563.67064,0.00608
1561.61046,0.00584
1559.55029,0.00537
1557.49012,0.00489
1555.42995,0.00469
1553.36978,0.00456
1551.30960,0.00440
1549.24943,0.00432
1547.18926,0.00434
1545.12909,0.00431
1543.06892,0.00402
1541.00874,0.00343
1538.94857,0.00308
1536.88840,0.00305
1534.82823,0.00286
1532.76805,0.00258
1530.70788,0.00256
1528.64771,0.00271
1526.58754,0.00271
1524.52737,0.00249
1522.46719,0.00226
1520.40702,0.00206
1518.34685,0.00178
1516.28668,0.00158
1514.22651,0.00155
1512.16633,0.00154
1510.10616,0.00148
1508.04599,0.00138
1505.98582,0.00129
1503.92565,0.00135
1501.86547,0.00145
1499.80530,0.00142
1497.74513,0.00127
1495.68496,0.00118
1493.62478,0.00122
1491.56461,0.00130
1489.50444,0.00136
1487.44427,0.00141
1485.38410,0.00153
1483.32392,0.00161
1481.26375,0.00164
1479.20358,0.00165
1477.14341,0.00170
1475.08324,0.00190
1473.02306,0.00232
1470.96289,0.00273
1468.90272,0.00295
1466.84255,0.00307
1464.78238,0.00311
1462.72220,0.00307
1460.66203,0.00297
1458.60186,0.00287
1456.54169,0.00296
1454.48151,0.00331
1452.42134,0.00365
1450.36117,0.00387
1448.30100,0.00393
1446.24083,0.00381
1444.18065,0.00367
1442.12048,0.00366
1440.06031,0.00370
1438.00014,0.00364
1435.93997,0.00357
1433.87979,0.00361
1431.81962,0.00373
1429.75945,0.00392
1427.69928,0.00416
1425.63910,0.00442
1423.57893,0.00466
1421.51876,0.00488
1419.45859,0.00509
1417.39842,0.00525
1415.33824,0.00526
1413.27807,0.00518
1411.21790,0.00511
1409.15773,0.00502
1407.09756,0.00482
1405.03738,0.00457
1402.97721,0.00440
1400.91704,0.00434
1398.85687,0.00434
1396.79670,0.00436
1394.73652,0.00430
1392.67635,0.00415
1390.61618,0.00403
1388.55601,0.00405
1386.49583,0.00413
1384.43566,0.00417
1382.37549,0.00416
1380.31532,0.00417
1378.25515,0.00421
1376.19497,0.00420
1374.13480,0.00413
1372.07463,0.00410
1370.01446,0.00411
1367.95429,0.00403
1365.89411,0.00382
1363.83394,0.00360
1361.77377,0.00344
1359.71360,0.00341
1357.65343,0.00348
1355.59325,0.00348
1353.53308,0.00322
1351.47291,0.00283
1349.41274,0.00266
1347.35256,0.00271
1345.29239,0.00278
1343.23222,0.00281
1341.17205,0.00277
1339.11188,0.00266
1337.05170,0.00256
1334.99153,0.00249
1332.93136,0.00245
1330.87119,0.00251
1328.81102,0.00258
1326.75084,0.00251
1324.69067,0.00237
1322.63050,0.00231
1320.57033,0.00234
1318.51015,0.00232
1316.44998,0.00220
1314.38981,0.00205
1312.32964,0.00196
1310.26947,0.00198
1308.20929,0.00203
1306.14912,0.00200
1304.08895,0.00196
1302.02878,0.00196
1299.96861,0.00202
1297.90843,0.00210
1295.84826,0.00214
1293.78809,0.00214
1291.72792,0.00219
1289.66775,0.00229
1287.60757,0.00230
1285.54740,0.00226
1283.48723,0.00227
1281.42706,0.00227
1279.36688,0.00223
1277.30671,0.00226
1275.24654,0.00238
1273.18637,0.00254
1271.12620,0.00271
1269.06602,0.00281
1267.00585,0.00276
1264.94568,0.00262
1262.88551,0.00251
1260.82534,0.00253
1258.76516,0.00259
1256.70499,0.00260
1254.64482,0.00256
1252.58465,0.00245
1250.52447,0.00225
1248.46430,0.00208
1246.40413,0.00204
1244.34396,0.00214
1242.28379,0.00225
1240.22361,0.00220
1238.16344,0.00202
1236.10327,0.00191
1234.04310,0.00188
1231.98293,0.00179
1229.92275,0.00171
1227.86258,0.00171
1225.80241,0.00162
1223.74224,0.00134
1221.68207,0.00103
1219.62189,0.00085
1217.56172,0.00072
1215.50155,0.00062
1213.44138,0.00059
1211.38120,0.00047
1209.32103,0.00025
1207.26086,0.00004
1205.20069,0.00000
1203.14052,0.00010
1201.08034,0.00021
1199.02017,0.00013
1196.96000,0.00004
1194.89983,0.00017
1192.83966,0.00027
1190.77948,0.00024
1188.71931,0.00034
1186.65914,0.00060
1184.59897,0.00095
1182.53880,0.00144
1180.47862,0.00207
1178.41845,0.00266
1176.35828,0.00325
1174.29811,0.00398
1172.23793,0.00473
1170.17776,0.00530
1168.11759,0.00576
1166.05742,0.00631
1163.99725,0.00697
1161.93707,0.00760
1159.87690,0.00804
1157.81673,0.00833
1155.75656,0.00870
1153.69639,0.00922
1151.63621,0.00981
1149.57604,0.01035
1147.51587,0.01080
1145.45570,0.01137
1143.39552,0.01216
1141.33535,0.01288
1139.27518,0.01339
1137.21501,0.01404
1135.15484,0.01479
1133.09466,0.01532
1131.03449,0.01579
1128.97432,0.01638
1126.91415,0.01699
1124.85398,0.01752
1122.79380,0.01806
1120.73363,0.01878
1118.67346,0.01963
1116.61329,0.02053
1114.55312,0.02158
1112.49294,0.02266
1110.43277,0.02357
1108.37260,0.02441
1106.31243,0.02541
1104.25225,0.02652
1102.19208,0.02760
1100.13191,0.02870
1098.07174,0.02983
1096.01157,0.03096
1093.95139,0.03208
1091.89122,0.03306
1089.83105,0.03389
1087.77088,0.03478
1085.71071,0.03571
1083.65053,0.03656
1081.59036,0.03738
1079.53019,0.03826
1077.47002,0.03915
1075.40985,0.03973
1073.34967,0.04002
1071.28950,0.04044
1069.22933,0.04099
1067.16916,0.04134
1065.10898,0.04142
1063.04881,0.04133
1060.98864,0.04115
1058.92847,0.04094
1056.86830,0.04079
1054.80812,0.04076
1052.74795,0.04067
1050.68778,0.04045
1048.62761,0.04018
1046.56744,0.03976
1044.50726,0.03905
1042.44709,0.03838
1040.38692,0.03783
1038.32675,0.03719
1036.26657,0.03650
1034.20640,0.03571
1032.14623,0.03475
1030.08606,0.03375
1028.02589,0.03287
1025.96571,0.03212
1023.90554,0.03143
1021.84537,0.03085
1019.78520,0.03029
1017.72503,0.02963
1015.66485,0.02873
1013.60468,0.02762
1011.54451,0.02659
1009.48434,0.02571
1007.42417,0.02495
1005.36399,0.02432
1003.30382,0.02382
1001.24365,0.02349
999.18348,0.02349
997.12330,0.02392
995.06313,0.02452
993.00296,0.02503
990.94279,0.02551
988.88262,0.02592
986.82244,0.02614
984.76227,0.02612
982.70210,0.02581
980.64193,0.02525
978.58176,0.02435
976.52158,0.02322
974.46141,0.02209
972.40124,0.02089
970.34107,0.01968
968.28089,0.01848
966.22072,0.01722
964.16055,0.01583
962.10038,0.01449
960.04021,0.01361
957.98003,0.01296
955.91986,0.01215
953.85969,0.01128
951.79952,0.01060
949.73935,0.01021
947.67917,0.01000
945.61900,0.00988
943.55883,0.00975
941.49866,0.00964
939.43849,0.00956
937.37831,0.00936
935.31814,0.00911
933.25797,0.00906
931.19780,0.00904
929.13762,0.00883
927.07745,0.00855
925.01728,0.00827
922.95711,0.00783
920.89694,0.00732
918.83676,0.00699
916.77659,0.00679
914.71642,0.00634
912.65625,0.00564
910.59608,0.00508
908.53590,0.00486
906.47573,0.00499
904.41556,0.00498
902.35539,0.00460
900.29522,0.00446
898.23504,0.00475
896.17487,0.00490
894.11470,0.00470
892.05453,0.00435
889.99435,0.00409
887.93418,0.00423
885.87401,0.00475
883.81384,0.00522
881.75367,0.00557
879.69349,0.00575
877.63332,0.00578
875.57315,0.00615
873.51298,0.00688
871.45281,0.00725
869.39263,0.00728
867.33246,0.00747
865.27229,0.00786
863.21212,0.00807
861.15194,0.00779
859.09177,0.00735
857.03160,0.00738
854.97143,0.00763
852.91126,0.00763
850.85108,0.00739
848.79091,0.00714
846.73074,0.00691
844.67057,0.00653
842.61040,0.00612
840.55022,0.00572
838.49005,0.00523
836.42988,0.00499
834.36971,0.00495
832.30954,0.00462
830.24936,0.00425
828.18919,0.00412
826.12902,0.00377
824.06885,0.00331
822.00867,0.00330
819.94850,0.00344
817.88833,0.00322
815.82816,0.00290
813.76799,0.00291
811.70781,0.00306
809.64764,0.00302
807.58747,0.00267
805.52730,0.00216
803.46713,0.00195
801.40695,0.00213
799.34678,0.00223
797.28661,0.00215
795.22644,0.00185
793.16627,0.00145
791.10609,0.00126
789.04592,0.00125
786.98575,0.00113
784.92558,0.00105
782.86540,0.00131
780.80523,0.00182
778.74506,0.00224
776.68489,0.00220
774.62472,0.00173
772.56454,0.00146
770.50437,0.00191
768.44420,0.00260
766.38403,0.00300
764.32386,0.00286
762.26368,0.00223
760.20351,0.00180
758.14334,0.00170
756.08317,0.00157
754.02299,0.00152
751.96282,0.00169
749.90265,0.00200
747.84248,0.00220
745.78231,0.00212
743.72213,0.00195
741.66196,0.00168
739.60179,0.00145
737.54162,0.00155
735.48145,0.00156
733.42127,0.00128
731.36110,0.00131
729.30093,0.00178
727.24076,0.00230
725.18059,0.00267
723.12041,0.00318
721.06024,0.00294
719.00007,0.00248
716.93990,0.00190
714.87972,0.00181
712.81955,0.00225
710.75938,0.00246
708.69921,0.00235
706.63904,0.00235
704.57886,0.00276
702.51869,0.00346
700.45852,0.00390
698.39835,0.00381
696.33818,0.00352
694.27800,0.00329
692.21783,0.00287
690.15766,0.00260
688.09749,0.00331
686.03731,0.00461
683.97714,0.00512
681.91697,0.00453
679.85680,0.00375
677.79663,0.00345
675.73645,0.00387
673.67628,0.00525
671.61611,0.00675
669.55594,0.00334
667.49577,0.00000
665.43559,0.00573
663.37542,0.00466
661.31525,0.00191
659.25508,0.00057
657.19491,0.00077
655.13473,0.00193
653.07456,0.00308
651.01439,0.00372
648.95422,0.00388
646.89404,0.00417
644.83387,0.00427
642.77370,0.00362
640.71353,0.00183
638.65336,0.00000
636.59318,-0.00013
634.53301,0.00158
632.47284,0.00302
630.41267,0.00256
628.35250,0.00126
626.29232,0.00079
624.23215,-0.00021
622.17198,-0.00132
620.11181,-0.00108
618.05164,-0.00058
615.99146,-0.00038
613.93129,-0.00101
611.87112,-0.00263
609.81095,-0.00358
607.75077,-0.00325
605.69060,-0.00213
603.63043,-0.00068
601.57026,0.00021
599.51009,0.00000
