3996.73391,-0.00039
3994.67373,-0.00030
3992.61356,-0.00029
3990.55339,-0.00002
3988.49322,0.00041
3986.43305,0.00050
3984.37287,0.00019
3982.31270,-0.00006
3980.25253,-0.00009
3978.19236,-0.00008
3976.13219,-0.00007
3974.07201,0.00012
3972.01184,0.00035
3969.95167,0.00030
3967.89150,0.00008
3965.83133,0.00000
3963.77115,0.00005
3961.71098,0.00009
3959.65081,0.00018
3957.59064,0.00036
3955.53046,0.00041
3953.47029,0.00035
3951.41012,0.00038
3949.34995,0.00054
3947.28978,0.00057
3945.22960,0.00031
3943.16943,0.00000
3941.10926,0.00003
3939.04909,0.00032
3936.98892,0.00041
3934.92874,0.00027
3932.86857,0.00022
3930.80840,0.00029
3928.74823,0.00035
3926.68805,0.00051
3924.62788,0.00091
3922.56771,0.00130
3920.50754,0.00135
3918.44737,0.00125
3916.38719,0.00127
3914.32702,0.00128
3912.26685,0.00115
3910.20668,0.00104
3908.14651,0.00120
3906.08633,0.00148
3904.02616,0.00139
3901.96599,0.00088
3899.90582,0.00061
3897.84565,0.00088
3895.78547,0.00115
3893.72530,0.00115
3891.66513,0.00108
3889.60496,0.00105
3887.54478,0.00107
3885.48461,0.00108
3883.42444,0.00095
3881.36427,0.00065
3879.30410,0.00032
3877.24392,0.00025
3875.18375,0.00035
3873.12358,0.00053
3871.06341,0.00089
3869.00324,0.00109
3866.94306,0.00078
3864.88289,0.00038
3862.82272,0.00030
3860.76255,0.00056
3858.70237,0.00099
3856.64220,0.00124
3854.58203,0.00100
3852.52186,0.00063
3850.46169,0.00067
3848.40151,0.00092
3846.34134,0.00107
3844.28117,0.00092
3842.22100,0.00057
3840.16083,0.00045
3838.10065,0.00059
3836.04048,0.00059
3833.98031,0.00049
3831.92014,0.00047
3829.85997,0.00076
3827.79979,0.00129
3825.73962,0.00160
3823.67945,0.00153
3821.61928,0.00128
3819.55910,0.00098
3817.49893,0.00092
3815.43876,0.00124
3813.37859,0.00135
3811.31842,0.00105
3809.25824,0.00081
3807.19807,0.00086
3805.13790,0.00100
3803.07773,0.00110
3801.01756,0.00118
3798.95738,0.00129
3796.89721,0.00138
3794.83704,0.00132
3792.77687,0.00127
3790.71670,0.00141
3788.65652,0.00156
3786.59635,0.00145
3784.53618,0.00130
3782.47601,0.00147
3780.41583,0.00171
3778.35566,0.00162
3776.29549,0.00143
3774.23532,0.00150
3772.17515,0.00172
3770.11497,0.00161
3768.05480,0.00105
3765.99463,0.00056
3763.93446,0.00058
3761.87429,0.00105
3759.81411,0.00152
3757.75394,0.00158
3755.69377,0.00137
3753.63360,0.00128
3751.57342,0.00128
3749.51325,0.00109
3747.45308,0.00076
3745.39291,0.00061
3743.33274,0.00089
3741.27256,0.00144
3739.21239,0.00189
3737.15222,0.00193
3735.09205,0.00135
3733.03188,0.00076
3730.97170,0.00078
3728.91153,0.00093
3726.85136,0.00086
3724.79119,0.00104
3722.73102,0.00167
3720.67084,0.00199
3718.61067,0.00170
3716.55050,0.00142
3714.49033,0.00163
3712.43015,0.00213
3710.36998,0.00223
3708.30981,0.00170
3706.24964,0.00109
3704.18947,0.00091
3702.12929,0.00101
3700.06912,0.00096
3698.00895,0.00083
3695.94878,0.00092
3693.88861,0.00114
3691.82843,0.00107
3689.76826,0.00078
3687.70809,0.00079
3685.64792,0.00116
3683.58775,0.00154
3681.52757,0.00176
3679.46740,0.00190
3677.40723,0.00184
3675.34706,0.00133
3673.28688,0.00086
3671.22671,0.00086
3669.16654,0.00120
3667.10637,0.00157
3665.04620,0.00190
3662.98602,0.00228
3660.92585,0.00253
3658.86568,0.00258
3656.80551,0.00263
3654.74534,0.00290
3652.68516,0.00338
3650.62499,0.00406
3648.56482,0.00466
3646.50465,0.00450
3644.44447,0.00395
3642.38430,0.00371
3640.32413,0.00390
3638.26396,0.00444
3636.20379,0.00506
3634.14361,0.00541
3632.08344,0.00546
3630.02327,0.00544
3627.96310,0.00553
3625.90293,0.00585
3623.84275,0.00605
3621.78258,0.00588
3619.72241,0.00565
3617.66224,0.00584
3615.60207,0.00624
3613.54189,0.00644
3611.48172,0.00667
3609.42155,0.00714
3607.36138,0.00763
3605.30120,0.00794
3603.24103,0.00819
3601.18086,0.00853
3599.12069,0.00886
3597.06052,0.00923
3595.00034,0.00958
3592.94017,0.00978
3590.88000,0.00989
3588.81983,0.00998
3586.75966,0.01000
3584.69948,0.01008
3582.63931,0.01050
3580.57914,0.01118
3578.51897,0.01157
3576.45879,0.01149
3574.39862,0.01142
3572.33845,0.01150
3570.27828,0.01168
3568.21811,0.01201
3566.15793,0.01231
3564.09776,0.01245
3562.03759,0.01266
3559.97742,0.01312
3557.91725,0.01377
3555.85707,0.01443
3553.79690,0.01469
3551.73673,0.01457
3549.67656,0.01448
3547.61639,0.01447
3545.55621,0.01446
3543.49604,0.01450
3541.43587,0.01471
3539.37570,0.01519
3537.31552,0.01583
3535.25535,0.01623
3533.19518,0.01636
3531.13501,0.01652
3529.07484,0.01665
3527.01466,0.01680
3524.95449,0.01724
3522.89432,0.01773
3520.83415,0.01789
3518.77398,0.01777
3516.71380,0.01765
3514.65363,0.01784
3512.59346,0.01838
3510.53329,0.01899
3508.47312,0.01945
3506.41294,0.01970
3504.35277,0.01971
3502.29260,0.01946
3500.23243,0.01929
3498.17225,0.01966
3496.11208,0.02049
3494.05191,0.02119
3491.99174,0.02153
3489.93157,0.02169
3487.87139,0.02158
3485.81122,0.02126
3483.75105,0.02121
3481.69088,0.02153
3479.63071,0.02182
3477.57053,0.02182
3475.51036,0.02163
3473.45019,0.02160
3471.39002,0.02192
3469.32984,0.02247
3467.26967,0.02297
3465.20950,0.02323
3463.14933,0.02328
3461.08916,0.02342
3459.02898,0.02368
3456.96881,0.02387
3454.90864,0.02409
3452.84847,0.02435
3450.78830,0.02446
3448.72812,0.02441
3446.66795,0.02433
3444.60778,0.02449
3442.54761,0.02497
3440.48744,0.02528
3438.42726,0.02533
3436.36709,0.02549
3434.30692,0.02570
3432.24675,0.02581
3430.18657,0.02572
3428.12640,0.02551
3426.06623,0.02553
3424.00606,0.02575
3421.94589,0.02589
3419.88571,0.02595
3417.82554,0.02604
3415.76537,0.02631
3413.70520,0.02673
3411.64503,0.02695
3409.58485,0.02693
3407.52468,0.02697
3405.46451,0.02720
3403.40434,0.02735
3401.34416,0.02733
3399.28399,0.02726
3397.22382,0.02719
3395.16365,0.02731
3393.10348,0.02759
3391.04330,0.02768
3388.98313,0.02760
3386.92296,0.02758
3384.86279,0.02769
3382.80262,0.02797
3380.74244,0.02833
3378.68227,0.02841
3376.62210,0.02822
3374.56193,0.02826
3372.50176,0.02847
3370.44158,0.02829
3368.38141,0.02788
3366.32124,0.02789
3364.26107,0.02835
3362.20089,0.02860
3360.14072,0.02852
3358.08055,0.02861
3356.02038,0.02883
3353.96021,0.02892
3351.90003,0.02892
3349.83986,0.02903
3347.77969,0.02918
3345.71952,0.02915
3343.65935,0.02900
3341.59917,0.02884
3339.53900,0.02864
3337.47883,0.02855
3335.41866,0.02877
3333.35849,0.02898
3331.29831,0.02885
3329.23814,0.02882
3327.17797,0.02898
3325.11780,0.02880
3323.05762,0.02862
3320.99745,0.02900
3318.93728,0.02943
3316.87711,0.02945
3314.81694,0.02937
3312.75676,0.02939
3310.69659,0.02940
3308.63642,0.02929
3306.57625,0.02922
3304.51608,0.02926
3302.45590,0.02924
3300.39573,0.02917
3298.33556,0.02925
3296.27539,0.02947
3294.21521,0.02963
3292.15504,0.02960
3290.09487,0.02933
3288.03470,0.02896
3285.97453,0.02884
3283.91435,0.02909
3281.85418,0.02938
3279.79401,0.02950
3277.73384,0.02958
3275.67367,0.02962
3273.61349,0.02956
3271.55332,0.02947
3269.49315,0.02944
3267.43298,0.02938
3265.37281,0.02935
3263.31263,0.02944
3261.25246,0.02959
3259.19229,0.02980
3257.13212,0.02987
3255.07194,0.02967
3253.01177,0.02953
3250.95160,0.02960
3248.89143,0.02974
3246.83126,0.02985
3244.77108,0.02983
3242.71091,0.02955
3240.65074,0.02915
3238.59057,0.02902
3236.53040,0.02917
3234.47022,0.02916
3232.41005,0.02891
3230.34988,0.02872
3228.28971,0.02879
3226.22954,0.02894
3224.16936,0.02877
3222.10919,0.02839
3220.04902,0.02831
3217.98885,0.02862
3215.92867,0.02875
3213.86850,0.02843
3211.80833,0.02820
3209.74816,0.02827
3207.68799,0.02840
3205.62781,0.02844
3203.56764,0.02845
3201.50747,0.02835
3199.44730,0.02823
3197.38713,0.02833
3195.32695,0.02839
3193.26678,0.02814
3191.20661,0.02791
3189.14644,0.02805
3187.08626,0.02830
3185.02609,0.02819
3182.96592,0.02785
3180.90575,0.02772
3178.84558,0.02779
3176.78540,0.02762
3174.72523,0.02730
3172.66506,0.02737
3170.60489,0.02762
3168.54472,0.02751
3166.48454,0.02717
3164.42437,0.02700
3162.36420,0.02706
3160.30403,0.02698
3158.24386,0.02668
3156.18368,0.02658
3154.12351,0.02677
3152.06334,0.02693
3150.00317,0.02677
3147.94299,0.02635
3145.88282,0.02603
3143.82265,0.02582
3141.76248,0.02567
3139.70231,0.02566
3137.64213,0.02569
3135.58196,0.02552
3133.52179,0.02523
3131.46162,0.02517
3129.40145,0.02527
3127.34127,0.02531
3125.28110,0.02520
3123.22093,0.02498
3121.16076,0.02481
3119.10058,0.02474
3117.04041,0.02481
3114.98024,0.02490
3112.92007,0.02486
3110.85990,0.02465
3108.79972,0.02432
3106.73955,0.02415
3104.67938,0.02424
3102.61921,0.02438
3100.55904,0.02432
3098.49886,0.02403
3096.43869,0.02367
3094.37852,0.02349
3092.31835,0.02349
3090.25818,0.02352
3088.19800,0.02344
3086.13783,0.02324
3084.07766,0.02309
3082.01749,0.02319
3079.95731,0.02331
3077.89714,0.02312
3075.83697,0.02277
3073.77680,0.02251
3071.71663,0.02230
3069.65645,0.02208
3067.59628,0.02190
3065.53611,0.02180
3063.47594,0.02173
3061.41577,0.02165
3059.35559,0.02150
3057.29542,0.02130
3055.23525,0.02113
3053.17508,0.02108
3051.11491,0.02112
3049.05473,0.02130
3046.99456,0.02139
3044.93439,0.02117
3042.87422,0.02086
3040.81404,0.02062
3038.75387,0.02047
3036.69370,0.02033
3034.63353,0.02004
3032.57336,0.01974
3030.51318,0.01968
3028.45301,0.01967
3026.39284,0.01953
3024.33267,0.01941
3022.27250,0.01939
3020.21232,0.01949
3018.15215,0.01957
3016.09198,0.01939
3014.03181,0.01905
3011.97163,0.01884
3009.91146,0.01877
3007.85129,0.01875
3005.79112,0.01873
3003.73095,0.01858
3001.67077,0.01843
2999.61060,0.01838
2997.55043,0.01831
2995.49026,0.01818
2993.43009,0.01814
2991.36991,0.01822
2989.30974,0.01824
2987.24957,0.01807
2985.18940,0.01769
2983.12923,0.01737
2981.06905,0.01731
2979.00888,0.01734
2976.94871,0.01727
2974.88854,0.01722
2972.82836,0.01722
2970.76819,0.01722
2968.70802,0.01735
2966.64785,0.01745
2964.58768,0.01739
2962.52750,0.01726
2960.46733,0.01715
2958.40716,0.01729
2956.34699,0.01749
2954.28682,0.01740
2952.22664,0.01727
2950.16647,0.01728
2948.10630,0.01731
2946.04613,0.01748
2943.98596,0.01780
2941.92578,0.01793
2939.86561,0.01769
2937.80544,0.01736
2935.74527,0.01733
2933.68509,0.01755
2931.62492,0.01758
2929.56475,0.01735
2927.50458,0.01721
2925.44441,0.01718
2923.38423,0.01713
2921.32406,0.01710
2919.26389,0.01697
2917.20372,0.01676
2915.14355,0.01671
2913.08337,0.01682
2911.02320,0.01681
2908.96303,0.01657
2906.90286,0.01631
2904.84268,0.01632
2902.78251,0.01643
2900.72234,0.01635
2898.66217,0.01619
2896.60200,0.01623
2894.54182,0.01634
2892.48165,0.01623
2890.42148,0.01607
2888.36131,0.01603
2886.30114,0.01605
2884.24096,0.01608
2882.18079,0.01611
2880.12062,0.01598
2878.06045,0.01571
2876.00028,0.01553
2873.94010,0.01558
2871.87993,0.01570
2869.81976,0.01562
2867.75959,0.01541
2865.69941,0.01527
2863.63924,0.01521
2861.57907,0.01526
2859.51890,0.01528
2857.45873,0.01513
2855.39855,0.01493
2853.33838,0.01480
2851.27821,0.01476
2849.21804,0.01474
2847.15787,0.01463
2845.09769,0.01437
2843.03752,0.01411
2840.97735,0.01404
2838.91718,0.01407
2836.85700,0.01402
2834.79683,0.01395
2832.73666,0.01398
2830.67649,0.01404
2828.61632,0.01394
2826.55614,0.01368
2824.49597,0.01350
2822.43580,0.01359
2820.37563,0.01378
2818.31546,0.01386
2816.25528,0.01387
2814.19511,0.01380
2812.13494,0.01364
2810.07477,0.01346
2808.01460,0.01324
2805.95442,0.01309
2803.89425,0.01318
2801.83408,0.01331
2799.77391,0.01336
2797.71373,0.01332
2795.65356,0.01304
2793.59339,0.01259
2791.53322,0.01243
2789.47305,0.01260
2787.41287,0.01270
2785.35270,0.01257
2783.29253,0.01236
2781.23236,0.01232
2779.17219,0.01245
2777.11201,0.01256
2775.05184,0.01261
2772.99167,0.01251
2770.93150,0.01225
2768.87133,0.01211
2766.81115,0.01227
2764.75098,0.01239
2762.69081,0.01219
2760.63064,0.01192
2758.57046,0.01189
2756.51029,0.01195
2754.45012,0.01194
2752.38995,0.01181
2750.32978,0.01162
2748.26960,0.01156
2746.20943,0.01161
2744.14926,0.01165
2742.08909,0.01179
2740.02892,0.01188
2737.96874,0.01174
2735.90857,0.01156
2733.84840,0.01151
2731.78823,0.01142
2729.72805,0.01122
2727.66788,0.01123
2725.60771,0.01135
2723.54754,0.01125
2721.48737,0.01119
2719.42719,0.01128
2717.36702,0.01131
2715.30685,0.01122
2713.24668,0.01108
2711.18651,0.01100
2709.12633,0.01098
2707.06616,0.01091
2705.00599,0.01083
2702.94582,0.01071
2700.88565,0.01057
2698.82547,0.01051
2696.76530,0.01049
2694.70513,0.01039
2692.64496,0.01028
2690.58478,0.01025
2688.52461,0.01021
2686.46444,0.01020
2684.40427,0.01014
2682.34410,0.01002
2680.28392,0.00992
2678.22375,0.00988
2676.16358,0.00988
2674.10341,0.00984
2672.04324,0.00977
2669.98306,0.00976
2667.92289,0.00982
2665.86272,0.00987
2663.80255,0.00986
2661.74238,0.00983
2659.68220,0.00981
2657.62203,0.00975
2655.56186,0.00969
2653.50169,0.00966
2651.44151,0.00961
2649.38134,0.00949
2647.32117,0.00926
2645.26100,0.00901
2643.20083,0.00885
2641.14065,0.00877
2639.08048,0.00884
2637.02031,0.00903
2634.96014,0.00911
2632.89997,0.00903
2630.83979,0.00886
2628.77962,0.00867
2626.71945,0.00857
2624.65928,0.00850
2622.59910,0.00832
2620.53893,0.00818
2618.47876,0.00823
2616.41859,0.00831
2614.35842,0.00829
2612.29824,0.00814
2610.23807,0.00789
2608.17790,0.00775
2606.11773,0.00761
2604.05756,0.00738
2601.99738,0.00725
2599.93721,0.00738
2597.87704,0.00759
2595.81687,0.00764
2593.75670,0.00764
2591.69652,0.00757
2589.63635,0.00732
2587.57618,0.00711
2585.51601,0.00715
2583.45583,0.00743
2581.39566,0.00751
2579.33549,0.00722
2577.27532,0.00711
2575.21515,0.00710
2573.15497,0.00672
2571.09480,0.00639
2569.03463,0.00662
2566.97446,0.00706
2564.91429,0.00731
2562.85411,0.00734
2560.79394,0.00727
2558.73377,0.00707
2556.67360,0.00681
2554.61342,0.00680
2552.55325,0.00707
2550.49308,0.00736
2548.43291,0.00738
2546.37274,0.00713
2544.31256,0.00684
2542.25239,0.00667
2540.19222,0.00666
2538.13205,0.00670
2536.07188,0.00663
2534.01170,0.00650
2531.95153,0.00643
2529.89136,0.00636
2527.83119,0.00620
2525.77102,0.00631
2523.71084,0.00687
2521.65067,0.00734
2519.59050,0.00736
2517.53033,0.00715
2515.47015,0.00717
2513.40998,0.00732
2511.34981,0.00739
2509.28964,0.00749
2507.22947,0.00751
2505.16929,0.00731
2503.10912,0.00700
2501.04895,0.00677
2498.98878,0.00664
2496.92861,0.00663
2494.86843,0.00668
2492.80826,0.00673
2490.74809,0.00663
2488.68792,0.00650
2486.62775,0.00674
2484.56757,0.00722
2482.50740,0.00743
2480.44723,0.00723
2478.38706,0.00686
2476.32688,0.00656
2474.26671,0.00658
2472.20654,0.00689
2470.14637,0.00704
2468.08620,0.00680
2466.02602,0.00668
2463.96585,0.00691
2461.90568,0.00711
2459.84551,0.00716
2457.78534,0.00732
2455.72516,0.00735
2453.66499,0.00721
2451.60482,0.00727
2449.54465,0.00736
2447.48447,0.00714
2445.42430,0.00671
2443.36413,0.00659
2441.30396,0.00684
2439.24379,0.00705
2437.18361,0.00702
2435.12344,0.00682
2433.06327,0.00665
2431.00310,0.00671
2428.94293,0.00697
2426.88275,0.00707
2424.82258,0.00694
2422.76241,0.00691
2420.70224,0.00708
2418.64207,0.00722
2416.58189,0.00724
2414.52172,0.00713
2412.46155,0.00690
2410.40138,0.00659
2408.34120,0.00635
2406.28103,0.00630
2404.22086,0.00638
2402.16069,0.00651
2400.10052,0.00665
2398.04034,0.00654
2395.98017,0.00649
2393.92000,0.00657
2391.85983,0.00660
2389.79966,0.00651
2387.73948,0.00655
2385.67931,0.00668
2383.61914,0.00664
2381.55897,0.00649
2379.49880,0.00646
2377.43862,0.00644
2375.37845,0.00637
2373.31828,0.00639
2371.25811,0.00716
2369.19793,0.00876
2367.13776,0.01033
2365.07759,0.01178
2363.01742,0.01295
2360.95725,0.01175
2358.89707,0.00925
2356.83690,0.00686
2354.77673,0.00606
2352.71656,0.00681
2350.65639,0.00674
2348.59621,0.00644
2346.53604,0.00769
2344.47587,0.00759
2342.41570,0.00713
2340.35552,0.00672
2338.29535,0.00609
2336.23518,0.00621
2334.17501,0.00681
2332.11484,0.00729
2330.05466,0.00793
2327.99449,0.00902
2325.93432,0.00937
2323.87415,0.00921
2321.81398,0.00858
2319.75380,0.00788
2317.69363,0.00682
2315.63346,0.00608
2313.57329,0.00572
2311.51312,0.00567
2309.45294,0.00615
2307.39277,0.00678
2305.33260,0.00699
2303.27243,0.00695
2301.21225,0.00702
2299.15208,0.00700
2297.09191,0.00692
2295.03174,0.00709
2292.97157,0.00737
2290.91139,0.00735
2288.85122,0.00707
2286.79105,0.00669
2284.73088,0.00611
2282.67071,0.00577
2280.61053,0.00612
2278.55036,0.00655
2276.49019,0.00628
2274.43002,0.00557
2272.36984,0.00526
2270.30967,0.00555
2268.24950,0.00594
2266.18933,0.00591
2264.12916,0.00562
2262.06898,0.00569
2260.00881,0.00625
2257.94864,0.00673
2255.88847,0.00681
2253.82830,0.00671
2251.76812,0.00650
2249.70795,0.00622
2247.64778,0.00624
2245.58761,0.00633
2243.52744,0.00615
2241.46726,0.00563
2239.40709,0.00517
2237.34692,0.00521
2235.28675,0.00529
2233.22657,0.00475
2231.16640,0.00357
2229.10623,0.00285
2227.04606,0.00349
2224.98589,0.00461
2222.92571,0.00480
2220.86554,0.00465
2218.80537,0.00512
2216.74520,0.00515
2214.68503,0.00453
2212.62485,0.00426
2210.56468,0.00383
2208.50451,0.00335
2206.44434,0.00385
2204.38417,0.00456
2202.32399,0.00459
2200.26382,0.00497
2198.20365,0.00611
2196.14348,0.00613
2194.08330,0.00484
2192.02313,0.00415
2189.96296,0.00421
2187.90279,0.00427
2185.84262,0.00405
2183.78244,0.00376
2181.72227,0.00402
2179.66210,0.00418
2177.60193,0.00357
2175.54176,0.00297
2173.48158,0.00330
2171.42141,0.00478
2169.36124,0.00641
2167.30107,0.00658
2165.24089,0.00499
2163.18072,0.00300
2161.12055,0.00169
2159.06038,0.00118
2157.00021,0.00157
2154.94003,0.00230
2152.87986,0.00244
2150.81969,0.00233
2148.75952,0.00246
2146.69935,0.00281
2144.63917,0.00326
2142.57900,0.00287
2140.51883,0.00173
2138.45866,0.00064
2136.39849,0.00009
2134.33831,0.00048
2132.27814,0.00147
2130.21797,0.00273
2128.15780,0.00369
2126.09762,0.00362
2124.03745,0.00344
2121.97728,0.00386
2119.91711,0.00367
2117.85694,0.00300
2115.79676,0.00338
2113.73659,0.00416
2111.67642,0.00393
2109.61625,0.00354
2107.55608,0.00379
2105.49590,0.00375
2103.43573,0.00338
2101.37556,0.00317
2099.31539,0.00279
2097.25521,0.00263
2095.19504,0.00305
2093.13487,0.00359
2091.07470,0.00409
2089.01453,0.00461
2086.95435,0.00470
2084.89418,0.00438
2082.83401,0.00389
2080.77384,0.00336
2078.71367,0.00337
2076.65349,0.00373
2074.59332,0.00380
2072.53315,0.00382
2070.47298,0.00383
2068.41281,0.00346
2066.35263,0.00325
2064.29246,0.00365
2062.23229,0.00399
2060.17212,0.00356
2058.11194,0.00261
2056.05177,0.00257
2053.99160,0.00409
2051.93143,0.00540
2049.87126,0.00528
2047.81108,0.00472
2045.75091,0.00463
2043.69074,0.00456
2041.63057,0.00371
2039.57040,0.00230
2037.51022,0.00166
2035.45005,0.00245
2033.38988,0.00325
2031.32971,0.00287
2029.26954,0.00198
2027.20936,0.00117
2025.14919,0.00049
2023.08902,0.00041
2021.02885,0.00078
2018.96867,0.00077
2016.90850,0.00051
2014.84833,0.00071
2012.78816,0.00090
2010.72799,0.00050
2008.66781,0.00000
2006.60764,-0.00002
2004.54747,0.00033
2002.48730,0.00096
2000.42713,0.00155
1998.36695,0.00183
1996.30678,0.00249
1994.24661,0.00348
1992.18644,0.00390
1990.12626,0.00383
1988.06609,0.00353
1986.00592,0.00292
1983.94575,0.00274
1981.88558,0.00314
1979.82540,0.00270
1977.76523,0.00168
1975.70506,0.00121
1973.64489,0.00070
1971.58472,0.00043
1969.52454,0.00099
1967.46437,0.00154
1965.40420,0.00138
1963.34403,0.00071
1961.28386,0.00033
1959.22368,0.00045
1957.16351,0.00059
1955.10334,0.00061
1953.04317,0.00071
1950.98299,0.00070
1948.92282,0.00061
1946.86265,0.00100
1944.80248,0.00135
1942.74231,0.00104
1940.68213,0.00100
1938.62196,0.00144
1936.56179,0.00156
1934.50162,0.00157
1932.44145,0.00198
1930.38127,0.00232
1928.32110,0.00192
1926.26093,0.00118
1924.20076,0.00102
1922.14059,0.00122
1920.08041,0.00124
1918.02024,0.00143
1915.96007,0.00167
1913.89990,0.00153
1911.83972,0.00144
1909.77955,0.00181
1907.71938,0.00247
1905.65921,0.00310
1903.59904,0.00332
1901.53886,0.00292
1899.47869,0.00239
1897.41852,0.00222
1895.35835,0.00217
1893.29818,0.00190
1891.23800,0.00150
1889.17783,0.00122
1887.11766,0.00119
1885.05749,0.00130
1882.99731,0.00132
1880.93714,0.00115
1878.87697,0.00123
1876.81680,0.00178
1874.75663,0.00228
1872.69645,0.00229
1870.63628,0.00197
1868.57611,0.00174
1866.51594,0.00178
1864.45577,0.00193
1862.39559,0.00206
1860.33542,0.00215
1858.27525,0.00213
1856.21508,0.00188
1854.15491,0.00158
1852.09473,0.00143
1850.03456,0.00143
1847.97439,0.00154
1845.91422,0.00161
1843.85404,0.00170
1841.79387,0.00192
1839.73370,0.00209
1837.67353,0.00195
1835.61336,0.00160
1833.55318,0.00139
1831.49301,0.00147
1829.43284,0.00166
1827.37267,0.00171
1825.31250,0.00172
1823.25232,0.00179
1821.19215,0.00162
1819.13198,0.00123
1817.07181,0.00112
1815.01163,0.00145
1812.95146,0.00189
1810.89129,0.00205
1808.83112,0.00188
1806.77095,0.00173
1804.71077,0.00186
1802.65060,0.00211
1800.59043,0.00217
1798.53026,0.00205
1796.47009,0.00196
1794.40991,0.00199
1792.34974,0.00217
1790.28957,0.00235
1788.22940,0.00244
1786.16923,0.00246
1784.10905,0.00231
1782.04888,0.00192
1779.98871,0.00161
1777.92854,0.00172
1775.86836,0.00205
1773.80819,0.00229
1771.74802,0.00230
1769.68785,0.00212
1767.62768,0.00204
1765.56750,0.00228
1763.50733,0.00269
1761.44716,0.00294
1759.38699,0.00294
1757.32682,0.00292
1755.26664,0.00306
1753.20647,0.00324
1751.14630,0.00337
1749.08613,0.00360
1747.02596,0.00386
1744.96578,0.00393
1742.90561,0.00402
1740.84544,0.00421
1738.78527,0.00427
1736.72509,0.00416
1734.66492,0.00417
1732.60475,0.00442
1730.54458,0.00468
1728.48441,0.00479
1726.42423,0.00472
1724.36406,0.00459
1722.30389,0.00462
1720.24372,0.00489
1718.18355,0.00513
1716.12337,0.00516
1714.06320,0.00526
1712.00303,0.00545
1709.94286,0.00557
1707.88268,0.00570
1705.82251,0.00591
1703.76234,0.00603
1701.70217,0.00614
1699.64200,0.00648
1697.58182,0.00688
1695.52165,0.00715
1693.46148,0.00731
1691.40131,0.00743
1689.34114,0.00767
1687.28096,0.00793
1685.22079,0.00805
1683.16062,0.00818
1681.10045,0.00853
1679.04028,0.00890
1676.98010,0.00919
1674.91993,0.00945
1672.85976,0.00968
1670.79959,0.00987
1668.73941,0.01009
1666.67924,0.01033
1664.61907,0.01061
1662.55890,0.01095
1660.49873,0.01124
1658.43855,0.01137
1656.37838,0.01144
1654.31821,0.01171
1652.25804,0.01224
1650.19787,0.01253
1648.13769,0.01253
1646.07752,0.01246
1644.01735,0.01231
1641.95718,0.01218
1639.89701,0.01215
1637.83683,0.01220
1635.77666,0.01233
1633.71649,0.01240
1631.65632,0.01225
1629.59614,0.01203
1627.53597,0.01196
1625.47580,0.01211
1623.41563,0.01223
1621.35546,0.01211
1619.29528,0.01196
1617.23511,0.01196
1615.17494,0.01186
1613.11477,0.01159
1611.05460,0.01134
1608.99442,0.01118
1606.93425,0.01108
1604.87408,0.01101
1602.81391,0.01094
1600.75373,0.01076
1598.69356,0.01047
1596.63339,0.01016
1594.57322,0.00981
1592.51305,0.00943
1590.45287,0.00910
1588.39270,0.00874
1586.33253,0.00827
1584.27236,0.00778
1582.21219,0.00735
1580.15201,0.00703
1578.09184,0.00673
1576.03167,0.00641
1573.97150,0.00614
1571.91133,0.00592
1569.85115,0.00573
1567.79098,0.00557
1565.73081,0.00545
1563.67064,0.00539
1561.61046,0.00535
1559.55029,0.00515
1557.49012,0.00482
1555.42995,0.00448
1553.36978,0.00417
1551.30960,0.00396
1549.24943,0.00387
1547.18926,0.00383
1545.12909,0.00378
1543.06892,0.00357
1541.00874,0.00316
1538.94857,0.00286
1536.88840,0.00276
1534.82823,0.00260
1532.76805,0.00244
1530.70788,0.00244
1528.64771,0.00248
1526.58754,0.00246
1524.52737,0.00244
1522.46719,0.00242
1520.40702,0.00228
1518.34685,0.00209
1516.28668,0.00211
1514.22651,0.00224
1512.16633,0.00219
1510.10616,0.00198
1508.04599,0.00176
1505.98582,0.00162
1503.92565,0.00156
1501.86547,0.00160
1499.80530,0.00170
1497.74513,0.00177
1495.68496,0.00164
1493.62478,0.00137
1491.56461,0.00121
1489.50444,0.00134
1487.44427,0.00153
1485.38410,0.00155
1483.32392,0.00154
1481.26375,0.00162
1479.20358,0.00170
1477.14341,0.00173
1475.08324,0.00190
1473.02306,0.00226
1470.96289,0.00255
1468.90272,0.00271
1466.84255,0.00284
1464.78238,0.00292
1462.72220,0.00287
1460.66203,0.00274
1458.60186,0.00260
1456.54169,0.00262
1454.48151,0.00291
1452.42134,0.00324
1450.36117,0.00352
1448.30100,0.00369
1446.24083,0.00369
1444.18065,0.00356
1442.12048,0.00343
1440.06031,0.00339
1438.00014,0.00340
1435.93997,0.00345
1433.87979,0.00358
1431.81962,0.00375
1429.75945,0.00391
1427.69928,0.00402
1425.63910,0.00416
1423.57893,0.00432
1421.51876,0.00447
1419.45859,0.00462
1417.39842,0.00471
1415.33824,0.00462
1413.27807,0.00445
1411.21790,0.00437
1409.15773,0.00437
1407.09756,0.00431
1405.03738,0.00413
1402.97721,0.00396
1400.91704,0.00398
1398.85687,0.00409
1396.79670,0.00405
1394.73652,0.00384
1392.67635,0.00364
1390.61618,0.00356
1388.55601,0.00358
1386.49583,0.00368
1384.43566,0.00374
1382.37549,0.00371
1380.31532,0.00370
1378.25515,0.00384
1376.19497,0.00403
1374.13480,0.00409
1372.07463,0.00397
1370.01446,0.00378
1367.95429,0.00361
1365.89411,0.00349
1363.83394,0.00340
1361.77377,0.00330
1359.71360,0.00323
1357.65343,0.00327
1355.59325,0.00335
1353.53308,0.00323
1351.47291,0.00289
1349.41274,0.00260
1347.35256,0.00251
1345.29239,0.00254
1343.23222,0.00258
1341.17205,0.00260
1339.11188,0.00263
1337.05170,0.00262
1334.99153,0.00256
1332.93136,0.00251
1330.87119,0.00251
1328.81102,0.00246
1326.75084,0.00234
1324.69067,0.00227
1322.63050,0.00231
1320.57033,0.00237
1318.51015,0.00231
1316.44998,0.00213
1314.38981,0.00200
1312.32964,0.00200
1310.26947,0.00205
1308.20929,0.00206
1306.14912,0.00200
1304.08895,0.00195
1302.02878,0.00196
1299.96861,0.00202
1297.90843,0.00205
1295.84826,0.00203
1293.78809,0.00207
1291.72792,0.00213
1289.66775,0.00217
1287.60757,0.00226
1285.54740,0.00238
1283.48723,0.00243
1281.42706,0.00238
1279.36688,0.00228
1277.30671,0.00224
1275.24654,0.00225
1273.18637,0.00225
1271.12620,0.00232
1269.06602,0.00242
1267.00585,0.00244
1264.94568,0.00238
1262.88551,0.00234
1260.82534,0.00237
1258.76516,0.00240
1256.70499,0.00233
1254.64482,0.00218
1252.58465,0.00211
1250.52447,0.00210
1248.46430,0.00205
1246.40413,0.00203
1244.34396,0.00208
1242.28379,0.00208
1240.22361,0.00194
1238.16344,0.00166
1236.10327,0.00140
1234.04310,0.00134
1231.98293,0.00138
1229.92275,0.00137
1227.86258,0.00139
1225.80241,0.00143
1223.74224,0.00125
1221.68207,0.00096
1219.62189,0.00079
1217.56172,0.00061
1215.50155,0.00042
1213.44138,0.00021
1211.38120,0.00003
1209.32103,0.00000
1207.26086,-0.00001
1205.20069,-0.00005
1203.14052,-0.00001
1201.08034,0.00007
1199.02017,0.00011
1196.96000,0.00019
1194.89983,0.00032
1192.83966,0.00035
1190.77948,0.00042
1188.71931,0.00060
1186.65914,0.00078
1184.59897,0.00105
1182.53880,0.00165
1180.47862,0.00232
1178.41845,0.00272
1176.35828,0.00317
1174.29811,0.00387
1172.23793,0.00448
1170.17776,0.00487
1168.11759,0.00537
1166.05742,0.00609
1163.99725,0.00675
1161.93707,0.00718
1159.87690,0.00756
1157.81673,0.00797
1155.75656,0.00834
1153.69639,0.00868
1151.63621,0.00905
1149.57604,0.00955
1147.51587,0.01012
1145.45570,0.01077
1143.39552,0.01152
1141.33535,0.01209
1139.27518,0.01253
1137.21501,0.01324
1135.15484,0.01404
1133.09466,0.01456
1131.03449,0.01498
1128.97432,0.01545
1126.91415,0.01593
1124.85398,0.01644
1122.79380,0.01694
1120.73363,0.01753
1118.67346,0.01826
1116.61329,0.01890
1114.55312,0.01961
1112.49294,0.02042
1110.43277,0.02106
1108.37260,0.02174
1106.31243,0.02272
1104.25225,0.02376
1102.19208,0.02462
1100.13191,0.02539
1098.07174,0.02624
1096.01157,0.02715
1093.95139,0.02798
1091.89122,0.02874
1089.83105,0.02948
1087.77088,0.03022
1085.71071,0.03092
1083.65053,0.03156
1081.59036,0.03222
1079.53019,0.03305
1077.47002,0.03394
1075.40985,0.03450
1073.34967,0.03473
1071.28950,0.03509
1069.22933,0.03554
1067.16916,0.03585
1065.10898,0.03604
1063.04881,0.03611
1060.98864,0.03607
1058.92847,0.03600
1056.86830,0.03595
1054.80812,0.03591
1052.74795,0.03595
1050.68778,0.03606
1048.62761,0.03604
1046.56744,0.03561
1044.50726,0.03489
1042.44709,0.03431
1040.38692,0.03390
1038.32675,0.03347
1036.26657,0.03288
1034.20640,0.03208
1032.14623,0.03134
1030.08606,0.03075
1028.02589,0.03020
1025.96571,0.02968
1023.90554,0.02917
1021.84537,0.02865
1019.78520,0.02801
1017.72503,0.02719
1015.66485,0.02640
1013.60468,0.02567
1011.54451,0.02496
1009.48434,0.02430
1007.42417,0.02371
1005.36399,0.02321
1003.30382,0.02288
1001.24365,0.02275
999.18348,0.02267
997.12330,0.02264
995.06313,0.02290
993.00296,0.02326
990.94279,0.02364
988.88262,0.02404
986.82244,0.02425
984.76227,0.02431
982.70210,0.02424
980.64193,0.02397
978.58176,0.02338
976.52158,0.02262
974.46141,0.02203
972.40124,0.02129
970.34107,0.02016
968.28089,0.01911
966.22072,0.01831
964.16055,0.01748
962.10038,0.01665
960.04021,0.01606
957.98003,0.01539
955.91986,0.01452
953.85969,0.01382
951.79952,0.01330
949.73935,0.01286
947.67917,0.01259
945.61900,0.01238
943.55883,0.01207
941.49866,0.01182
939.43849,0.01179
937.37831,0.01185
935.31814,0.01191
933.25797,0.01193
931.19780,0.01186
929.13762,0.01164
927.07745,0.01145
925.01728,0.01137
922.95711,0.01098
920.89694,0.01032
918.83676,0.01008
916.77659,0.01009
914.71642,0.00969
912.65625,0.00912
910.59608,0.00878
908.53590,0.00864
906.47573,0.00873
904.41556,0.00871
902.35539,0.00835
900.29522,0.00826
898.23504,0.00847
896.17487,0.00846
894.11470,0.00826
892.05453,0.00805
889.99435,0.00803
887.93418,0.00828
885.87401,0.00861
883.81384,0.00883
881.75367,0.00888
879.69349,0.00891
877.63332,0.00911
875.57315,0.00965
873.51298,0.01049
871.45281,0.01102
869.39263,0.01083
867.33246,0.01029
865.27229,0.01014
863.21212,0.01041
861.15194,0.01069
859.09177,0.01083
857.03160,0.01085
854.97143,0.01058
852.91126,0.01013
850.85108,0.00973
848.79091,0.00937
846.73074,0.00902
844.67057,0.00875
842.61040,0.00861
840.55022,0.00857
838.49005,0.00838
836.42988,0.00790
834.36971,0.00757
832.30954,0.00778
830.24936,0.00789
828.18919,0.00729
826.12902,0.00652
824.06885,0.00630
822.00867,0.00639
819.94850,0.00630
817.88833,0.00605
815.82816,0.00575
813.76799,0.00554
811.70781,0.00551
809.64764,0.00542
807.58747,0.00540
805.52730,0.00552
803.46713,0.00541
801.40695,0.00513
799.34678,0.00483
797.28661,0.00443
795.22644,0.00418
793.16627,0.00426
791.10609,0.00450
789.04592,0.00485
786.98575,0.00510
784.92558,0.00488
782.86540,0.00451
780.80523,0.00466
778.74506,0.00500
776.68489,0.00507
774.62472,0.00502
772.56454,0.00498
770.50437,0.00517
768.44420,0.00531
766.38403,0.00503
764.32386,0.00468
762.26368,0.00419
760.20351,0.00348
758.14334,0.00319
756.08317,0.00348
754.02299,0.00390
751.96282,0.00412
749.90265,0.00410
747.84248,0.00404
745.78231,0.00389
743.72213,0.00353
741.66196,0.00305
739.60179,0.00279
737.54162,0.00306
735.48145,0.00331
733.42127,0.00312
731.36110,0.00294
729.30093,0.00316
727.24076,0.00355
725.18059,0.00387
723.12041,0.00406
721.06024,0.00433
719.00007,0.00436
716.93990,0.00443
714.87972,0.00451
712.81955,0.00410
710.75938,0.00349
708.69921,0.00336
706.63904,0.00373
704.57886,0.00420
702.51869,0.00450
700.45852,0.00458
698.39835,0.00443
696.33818,0.00397
694.27800,0.00337
692.21783,0.00302
690.15766,0.00313
688.09749,0.00374
686.03731,0.00449
683.97714,0.00478
681.91697,0.00463
679.85680,0.00443
677.79663,0.00433
675.73645,0.00417
673.67628,0.00329
671.61611,0.00205
669.55594,0.00393
667.49577,0.00677
665.43559,0.00447
663.37542,0.00469
661.31525,0.00492
659.25508,0.00431
657.19491,0.00374
655.13473,0.00337
653.07456,0.00308
651.01439,0.00347
648.95422,0.00440
646.89404,0.00508
644.83387,0.00591
642.77370,0.00664
640.71353,0.00649
638.65336,0.00567
636.59318,0.00512
634.53301,0.00501
632.47284,0.00532
630.41267,0.00573
628.35250,0.00560
626.29232,0.00505
624.23215,0.00443
622.17198,0.00372
620.11181,0.00310
618.05164,0.00343
615.99146,0.00521
613.93129,0.00535
611.87112,0.00314
609.81095,0.00076
607.75077,0.00000
605.69060,-0.00007
603.63043,0.00133
601.57026,0.00210
599.51009,0.00000
