3996.73391,0.00052
3994.67373,0.00048
3992.61356,0.00037
3990.55339,0.00059
3988.49322,0.00097
3986.43305,0.00102
3984.37287,0.00069
3982.31270,0.00041
3980.25253,0.00025
3978.19236,0.00009
3976.13219,0.00000
3974.07201,0.00016
3972.01184,0.00040
3969.95167,0.00039
3967.89150,0.00022
3965.83133,0.00025
3963.77115,0.00052
3961.71098,0.00074
3959.65081,0.00075
3957.59064,0.00069
3955.53046,0.00072
3953.47029,0.00078
3951.41012,0.00076
3949.34995,0.00070
3947.28978,0.00060
3945.22960,0.00036
3943.16943,0.00002
3941.10926,0.00000
3939.04909,0.00046
3936.98892,0.00093
3934.92874,0.00100
3932.86857,0.00077
3930.80840,0.00051
3928.74823,0.00028
3926.68805,0.00007
3924.62788,0.00016
3922.56771,0.00058
3920.50754,0.00091
3918.44737,0.00107
3916.38719,0.00131
3914.32702,0.00154
3912.26685,0.00138
3910.20668,0.00086
3908.14651,0.00056
3906.08633,0.00063
3904.02616,0.00057
3901.96599,0.00024
3899.90582,0.00026
3897.84565,0.00069
3895.78547,0.00097
3893.72530,0.00095
3891.66513,0.00090
3889.60496,0.00082
3887.54478,0.00055
3885.48461,0.00033
3883.42444,0.00048
3881.36427,0.00073
3879.30410,0.00072
3877.24392,0.00062
3875.18375,0.00058
3873.12358,0.00056
3871.06341,0.00056
3869.00324,0.00050
3866.94306,0.00037
3864.88289,0.00026
3862.82272,0.00016
3860.76255,0.00014
3858.70237,0.00039
3856.64220,0.00077
3854.58203,0.00087
3852.52186,0.00069
3850.46169,0.00071
3848.40151,0.00087
3846.34134,0.00083
3844.28117,0.00068
3842.22100,0.00072
3840.16083,0.00080
3838.10065,0.00051
3836.04048,0.00014
3833.98031,0.00020
3831.92014,0.00049
3829.85997,0.00074
3827.79979,0.00098
3825.73962,0.00108
3823.67945,0.00076
3821.61928,0.00020
3819.55910,0.00015
3817.49893,0.00075
3815.43876,0.00136
3813.37859,0.00137
3811.31842,0.00098
3809.25824,0.00066
3807.19807,0.00059
3805.13790,0.00076
3803.07773,0.00096
3801.01756,0.00098
3798.95738,0.00093
3796.89721,0.00100
3794.83704,0.00113
3792.77687,0.00118
3790.71670,0.00108
3788.65652,0.00104
3786.59635,0.00121
3784.53618,0.00140
3782.47601,0.00141
3780.41583,0.00122
3778.35566,0.00103
3776.29549,0.00102
3774.23532,0.00128
3772.17515,0.00172
3770.11497,0.00183
3768.05480,0.00132
3765.99463,0.00071
3763.93446,0.00057
3761.87429,0.00081
3759.81411,0.00098
3757.75394,0.00084
3755.69377,0.00060
3753.63360,0.00055
3751.57342,0.00078
3749.51325,0.00108
3747.45308,0.00136
3745.39291,0.00146
3743.33274,0.00110
3741.27256,0.00073
3739.21239,0.00067
3737.15222,0.00042
3735.09205,0.00019
3733.03188,0.00066
3730.97170,0.00122
3728.91153,0.00121
3726.85136,0.00105
3724.79119,0.00119
3722.73102,0.00157
3720.67084,0.00179
3718.61067,0.00150
3716.55050,0.00101
3714.49033,0.00082
3712.43015,0.00096
3710.36998,0.00121
3708.30981,0.00133
3706.24964,0.00119
3704.18947,0.00108
3702.12929,0.00120
3700.06912,0.00128
3698.00895,0.00127
3695.94878,0.00147
3693.88861,0.00173
3691.82843,0.00164
3689.76826,0.00147
3687.70809,0.00168
3685.64792,0.00187
3683.58775,0.00188
3681.52757,0.00212
3679.46740,0.00259
3677.40723,0.00269
3675.34706,0.00204
3673.28688,0.00129
3671.22671,0.00125
3669.16654,0.00184
3667.10637,0.00234
3665.04620,0.00258
3662.98602,0.00280
3660.92585,0.00305
3658.86568,0.00322
3656.80551,0.00332
3654.74534,0.00354
3652.68516,0.00388
3650.62499,0.00425
3648.56482,0.00460
3646.50465,0.00466
3644.44447,0.00447
3642.38430,0.00443
3640.32413,0.00470
3638.26396,0.00530
3636.20379,0.00603
3634.14361,0.00642
3632.08344,0.00639
3630.02327,0.00626
3627.96310,0.00632
3625.90293,0.00669
3623.84275,0.00699
3621.78258,0.00696
3619.72241,0.00676
3617.66224,0.00686
3615.60207,0.00736
3613.54189,0.00794
3611.48172,0.00848
3609.42155,0.00892
3607.36138,0.00925
3605.30120,0.00951
3603.24103,0.00976
3601.18086,0.01012
3599.12069,0.01058
3597.06052,0.01100
3595.00034,0.01140
3592.94017,0.01171
3590.88000,0.01165
3588.81983,0.01142
3586.75966,0.01168
3584.69948,0.01245
3582.63931,0.01305
3580.57914,0.01332
3578.51897,0.01347
3576.45879,0.01367
3574.39862,0.01391
3572.33845,0.01405
3570.27828,0.01409
3568.21811,0.01423
3566.15793,0.01463
3564.09776,0.01520
3562.03759,0.01567
3559.97742,0.01600
3557.91725,0.01630
3555.85707,0.01657
3553.79690,0.01669
3551.73673,0.01679
3549.67656,0.01707
3547.61639,0.01735
3545.55621,0.01745
3543.49604,0.01762
3541.43587,0.01800
3539.37570,0.01842
3537.31552,0.01881
3535.25535,0.01903
3533.19518,0.01905
3531.13501,0.01928
3529.07484,0.01988
3527.01466,0.02049
3524.95449,0.02082
3522.89432,0.02099
3520.83415,0.02127
3518.77398,0.02148
3516.71380,0.02154
3514.65363,0.02184
3512.59346,0.02237
3510.53329,0.02280
3508.47312,0.02306
3506.41294,0.02322
3504.35277,0.02328
3502.29260,0.02318
3500.23243,0.02311
3498.17225,0.02345
3496.11208,0.02403
3494.05191,0.02434
3491.99174,0.02443
3489.93157,0.02468
3487.87139,0.02498
3485.81122,0.02521
3483.75105,0.02552
3481.69088,0.02579
3479.63071,0.02591
3477.57053,0.02585
3475.51036,0.02573
3473.45019,0.02579
3471.39002,0.02605
3469.32984,0.02637
3467.26967,0.02670
3465.20950,0.02689
3463.14933,0.02704
3461.08916,0.02741
3459.02898,0.02798
3456.96881,0.02841
3454.90864,0.02853
3452.84847,0.02863
3450.78830,0.02871
3448.72812,0.02861
3446.66795,0.02864
3444.60778,0.02900
3442.54761,0.02952
3440.48744,0.03001
3438.42726,0.03033
3436.36709,0.03044
3434.30692,0.03039
3432.24675,0.03023
3430.18657,0.03004
3428.12640,0.03005
3426.06623,0.03043
3424.00606,0.03084
3421.94589,0.03099
3419.88571,0.03090
3417.82554,0.03085
3415.76537,0.03118
3413.70520,0.03155
3411.64503,0.03146
3409.58485,0.03118
3407.52468,0.03124
3405.46451,0.03158
3403.40434,0.03172
3401.34416,0.03161
3399.28399,0.03174
3397.22382,0.03204
3395.16365,0.03235
3393.10348,0.03267
3391.04330,0.03289
3388.98313,0.03284
3386.92296,0.03273
3384.86279,0.03290
3382.80262,0.03316
3380.74244,0.03326
3378.68227,0.03322
3376.62210,0.03315
3374.56193,0.03328
3372.50176,0.03347
3370.44158,0.03329
3368.38141,0.03305
3366.32124,0.03315
3364.26107,0.03327
3362.20089,0.03308
3360.14072,0.03295
3358.08055,0.03323
3356.02038,0.03364
3353.96021,0.03383
3351.90003,0.03373
3349.83986,0.03356
3347.77969,0.03351
3345.71952,0.03350
3343.65935,0.03333
3341.59917,0.03314
3339.53900,0.03320
3337.47883,0.03331
3335.41866,0.03329
3333.35849,0.03330
3331.29831,0.03338
3329.23814,0.03344
3327.17797,0.03341
3325.11780,0.03339
3323.05762,0.03358
3320.99745,0.03396
3318.93728,0.03403
3316.87711,0.03374
3314.81694,0.03365
3312.75676,0.03387
3310.69659,0.03399
3308.63642,0.03381
3306.57625,0.03356
3304.51608,0.03345
3302.45590,0.03350
3300.39573,0.03366
3298.33556,0.03372
3296.27539,0.03371
3294.21521,0.03378
3292.15504,0.03385
3290.09487,0.03388
3288.03470,0.03376
3285.97453,0.03362
3283.91435,0.03385
3281.85418,0.03411
3279.79401,0.03397
3277.73384,0.03379
3275.67367,0.03378
3273.61349,0.03378
3271.55332,0.03383
3269.49315,0.03394
3267.43298,0.03386
3265.37281,0.03368
3263.31263,0.03363
3261.25246,0.03371
3259.19229,0.03396
3257.13212,0.03426
3255.07194,0.03425
3253.01177,0.03388
3250.95160,0.03350
3248.89143,0.03334
3246.83126,0.03336
3244.77108,0.03344
3242.71091,0.03345
3240.65074,0.03350
3238.59057,0.03377
3236.53040,0.03395
3234.47022,0.03368
3232.41005,0.03318
3230.34988,0.03297
3228.28971,0.03317
3226.22954,0.03334
3224.16936,0.03319
3222.10919,0.03298
3220.04902,0.03287
3217.98885,0.03289
3215.92867,0.03284
3213.86850,0.03253
3211.80833,0.03233
3209.74816,0.03251
3207.68799,0.03272
3205.62781,0.03272
3203.56764,0.03257
3201.50747,0.03229
3199.44730,0.03199
3197.38713,0.03188
3195.32695,0.03195
3193.26678,0.03212
3191.20661,0.03223
3189.14644,0.03220
3187.08626,0.03210
3185.02609,0.03192
3182.96592,0.03177
3180.90575,0.03166
3178.84558,0.03145
3176.78540,0.03119
3174.72523,0.03095
3172.66506,0.03095
3170.60489,0.03123
3168.54472,0.03138
3166.48454,0.03116
3164.42437,0.03081
3162.36420,0.03074
3160.30403,0.03075
3158.24386,0.03052
3156.18368,0.03034
3154.12351,0.03032
3152.06334,0.03018
3150.00317,0.02987
3147.94299,0.02960
3145.88282,0.02954
3143.82265,0.02957
3141.76248,0.02960
3139.70231,0.02964
3137.64213,0.02963
3135.58196,0.02949
3133.52179,0.02926
3131.46162,0.02908
3129.40145,0.02894
3127.34127,0.02873
3125.28110,0.02843
3123.22093,0.02828
3121.16076,0.02838
3119.10058,0.02848
3117.04041,0.02844
3114.98024,0.02830
3112.92007,0.02815
3110.85990,0.02803
3108.79972,0.02777
3106.73955,0.02753
3104.67938,0.02754
3102.61921,0.02755
3100.55904,0.02733
3098.49886,0.02710
3096.43869,0.02694
3094.37852,0.02672
3092.31835,0.02654
3090.25818,0.02663
3088.19800,0.02671
3086.13783,0.02649
3084.07766,0.02619
3082.01749,0.02606
3079.95731,0.02603
3077.89714,0.02583
3075.83697,0.02548
3073.77680,0.02520
3071.71663,0.02499
3069.65645,0.02487
3067.59628,0.02478
3065.53611,0.02464
3063.47594,0.02465
3061.41577,0.02470
3059.35559,0.02460
3057.29542,0.02447
3055.23525,0.02435
3053.17508,0.02413
3051.11491,0.02400
3049.05473,0.02410
3046.99456,0.02418
3044.93439,0.02397
3042.87422,0.02352
3040.81404,0.02307
3038.75387,0.02287
3036.69370,0.02288
3034.63353,0.02280
3032.57336,0.02261
3030.51318,0.02241
3028.45301,0.02215
3026.39284,0.02199
3024.33267,0.02206
3022.27250,0.02214
3020.21232,0.02216
3018.15215,0.02219
3016.09198,0.02205
3014.03181,0.02170
3011.97163,0.02137
3009.91146,0.02118
3007.85129,0.02112
3005.79112,0.02108
3003.73095,0.02094
3001.67077,0.02078
2999.61060,0.02072
2997.55043,0.02062
2995.49026,0.02037
2993.43009,0.02023
2991.36991,0.02030
2989.30974,0.02036
2987.24957,0.02027
2985.18940,0.01999
2983.12923,0.01970
2981.06905,0.01973
2979.00888,0.01995
2976.94871,0.01992
2974.88854,0.01970
2972.82836,0.01955
2970.76819,0.01938
2968.70802,0.01916
2966.64785,0.01908
2964.58768,0.01927
2962.52750,0.01936
2960.46733,0.01917
2958.40716,0.01903
2956.34699,0.01896
2954.28682,0.01886
2952.22664,0.01889
2950.16647,0.01912
2948.10630,0.01942
2946.04613,0.01968
2943.98596,0.01987
2941.92578,0.01989
2939.86561,0.01966
2937.80544,0.01931
2935.74527,0.01924
2933.68509,0.01938
2931.62492,0.01925
2929.56475,0.01896
2927.50458,0.01887
2925.44441,0.01904
2923.38423,0.01929
2921.32406,0.01941
2919.26389,0.01924
2917.20372,0.01885
2915.14355,0.01863
2913.08337,0.01868
2911.02320,0.01873
2908.96303,0.01861
2906.90286,0.01833
2904.84268,0.01817
2902.78251,0.01823
2900.72234,0.01813
2898.66217,0.01780
2896.60200,0.01765
2894.54182,0.01769
2892.48165,0.01774
2890.42148,0.01776
2888.36131,0.01772
2886.30114,0.01769
2884.24096,0.01778
2882.18079,0.01798
2880.12062,0.01800
2878.06045,0.01772
2876.00028,0.01747
2873.94010,0.01739
2871.87993,0.01723
2869.81976,0.01687
2867.75959,0.01648
2865.69941,0.01635
2863.63924,0.01648
2861.57907,0.01658
2859.51890,0.01662
2857.45873,0.01666
2855.39855,0.01663
2853.33838,0.01652
2851.27821,0.01631
2849.21804,0.01613
2847.15787,0.01598
2845.09769,0.01583
2843.03752,0.01573
2840.97735,0.01556
2838.91718,0.01546
2836.85700,0.01556
2834.79683,0.01558
2832.73666,0.01544
2830.67649,0.01532
2828.61632,0.01531
2826.55614,0.01531
2824.49597,0.01524
2822.43580,0.01522
2820.37563,0.01524
2818.31546,0.01515
2816.25528,0.01509
2814.19511,0.01514
2812.13494,0.01515
2810.07477,0.01484
2808.01460,0.01431
2805.95442,0.01407
2803.89425,0.01426
2801.83408,0.01449
2799.77391,0.01453
2797.71373,0.01434
2795.65356,0.01399
2793.59339,0.01374
2791.53322,0.01377
2789.47305,0.01396
2787.41287,0.01398
2785.35270,0.01369
2783.29253,0.01343
2781.23236,0.01346
2779.17219,0.01359
2777.11201,0.01358
2775.05184,0.01348
2772.99167,0.01339
2770.93150,0.01325
2768.87133,0.01311
2766.81115,0.01320
2764.75098,0.01338
2762.69081,0.01324
2760.63064,0.01291
2758.57046,0.01269
2756.51029,0.01271
2754.45012,0.01289
2752.38995,0.01298
2750.32978,0.01287
2748.26960,0.01280
2746.20943,0.01291
2744.14926,0.01301
2742.08909,0.01298
2740.02892,0.01283
2737.96874,0.01259
2735.90857,0.01243
2733.84840,0.01241
2731.78823,0.01238
2729.72805,0.01227
2727.66788,0.01225
2725.60771,0.01224
2723.54754,0.01207
2721.48737,0.01194
2719.42719,0.01196
2717.36702,0.01210
2715.30685,0.01212
2713.24668,0.01180
2711.18651,0.01153
2709.12633,0.01154
2707.06616,0.01165
2705.00599,0.01168
2702.94582,0.01158
2700.88565,0.01148
2698.82547,0.01145
2696.76530,0.01139
2694.70513,0.01126
2692.64496,0.01118
2690.58478,0.01126
2688.52461,0.01134
2686.46444,0.01124
2684.40427,0.01103
2682.34410,0.01089
2680.28392,0.01079
2678.22375,0.01063
2676.16358,0.01048
2674.10341,0.01031
2672.04324,0.01017
2669.98306,0.01018
2667.92289,0.01030
2665.86272,0.01042
2663.80255,0.01046
2661.74238,0.01052
2659.68220,0.01062
2657.62203,0.01064
2655.56186,0.01055
2653.50169,0.01027
2651.44151,0.00997
2649.38134,0.00987
2647.32117,0.00978
2645.26100,0.00950
2643.20083,0.00928
2641.14065,0.00943
2639.08048,0.00970
2637.02031,0.00962
2634.96014,0.00934
2632.89997,0.00920
2630.83979,0.00918
2628.77962,0.00921
2626.71945,0.00915
2624.65928,0.00912
2622.59910,0.00923
2620.53893,0.00912
2618.47876,0.00888
2616.41859,0.00884
2614.35842,0.00888
2612.29824,0.00880
2610.23807,0.00869
2608.17790,0.00866
2606.11773,0.00861
2604.05756,0.00834
2601.99738,0.00793
2599.93721,0.00772
2597.87704,0.00783
2595.81687,0.00806
2593.75670,0.00827
2591.69652,0.00819
2589.63635,0.00792
2587.57618,0.00781
2585.51601,0.00782
2583.45583,0.00775
2581.39566,0.00765
2579.33549,0.00755
2577.27532,0.00742
2575.21515,0.00718
2573.15497,0.00686
2571.09480,0.00667
2569.03463,0.00684
2566.97446,0.00743
2564.91429,0.00818
2562.85411,0.00856
2560.79394,0.00831
2558.73377,0.00778
2556.67360,0.00736
2554.61342,0.00713
2552.55325,0.00705
2550.49308,0.00726
2548.43291,0.00762
2546.37274,0.00759
2544.31256,0.00716
2542.25239,0.00684
2540.19222,0.00694
2538.13205,0.00712
2536.07188,0.00716
2534.01170,0.00732
2531.95153,0.00742
2529.89136,0.00714
2527.83119,0.00682
2525.77102,0.00704
2523.71084,0.00771
2521.65067,0.00820
2519.59050,0.00821
2517.53033,0.00790
2515.47015,0.00761
2513.40998,0.00748
2511.34981,0.00731
2509.28964,0.00724
2507.22947,0.00738
2505.16929,0.00737
2503.10912,0.00730
2501.04895,0.00738
2498.98878,0.00746
2496.92861,0.00745
2494.86843,0.00733
2492.80826,0.00731
2490.74809,0.00743
2488.68792,0.00756
2486.62775,0.00769
2484.56757,0.00774
2482.50740,0.00763
2480.44723,0.00749
2478.38706,0.00744
2476.32688,0.00745
2474.26671,0.00770
2472.20654,0.00814
2470.14637,0.00821
2468.08620,0.00778
2466.02602,0.00741
2463.96585,0.00748
2461.90568,0.00771
2459.84551,0.00800
2457.78534,0.00834
2455.72516,0.00839
2453.66499,0.00813
2451.60482,0.00789
2449.54465,0.00781
2447.48447,0.00793
2445.42430,0.00813
2443.36413,0.00814
2441.30396,0.00781
2439.24379,0.00741
2437.18361,0.00732
2435.12344,0.00751
2433.06327,0.00753
2431.00310,0.00736
2428.94293,0.00740
2426.88275,0.00764
2424.82258,0.00790
2422.76241,0.00821
2420.70224,0.00834
2418.64207,0.00819
2416.58189,0.00800
2414.52172,0.00794
2412.46155,0.00806
2410.40138,0.00809
2408.34120,0.00778
2406.28103,0.00744
2404.22086,0.00736
2402.16069,0.00743
2400.10052,0.00747
2398.04034,0.00734
2395.98017,0.00725
2393.92000,0.00720
2391.85983,0.00710
2389.79966,0.00710
2387.73948,0.00744
2385.67931,0.00797
2383.61914,0.00831
2381.55897,0.00831
2379.49880,0.00797
2377.43862,0.00741
2375.37845,0.00700
2373.31828,0.00697
2371.25811,0.00704
2369.19793,0.00693
2367.13776,0.00720
2365.07759,0.00834
2363.01742,0.00987
2360.95725,0.01107
2358.89707,0.01176
2356.83690,0.01156
2354.77673,0.01033
2352.71656,0.00919
2350.65639,0.00892
2348.59621,0.00910
2346.53604,0.00912
2344.47587,0.00866
2342.41570,0.00815
2340.35552,0.00828
2338.29535,0.00882
2336.23518,0.00905
2334.17501,0.00867
2332.11484,0.00822
2330.05466,0.00872
2327.99449,0.00995
2325.93432,0.01064
2323.87415,0.01046
2321.81398,0.00993
2319.75380,0.00917
2317.69363,0.00809
2315.63346,0.00704
2313.57329,0.00645
2311.51312,0.00647
2309.45294,0.00704
2307.39277,0.00769
2305.33260,0.00797
2303.27243,0.00802
2301.21225,0.00799
2299.15208,0.00777
2297.09191,0.00731
2295.03174,0.00701
2292.97157,0.00737
2290.91139,0.00811
2288.85122,0.00848
2286.79105,0.00813
2284.73088,0.00749
2282.67071,0.00718
2280.61053,0.00728
2278.55036,0.00730
2276.49019,0.00697
2274.43002,0.00659
2272.36984,0.00646
2270.30967,0.00651
2268.24950,0.00655
2266.18933,0.00667
2264.12916,0.00684
2262.06898,0.00685
2260.00881,0.00683
2257.94864,0.00690
2255.88847,0.00682
2253.82830,0.00665
2251.76812,0.00662
2249.70795,0.00665
2247.64778,0.00650
2245.58761,0.00617
2243.52744,0.00562
2241.46726,0.00496
2239.40709,0.00505
2237.34692,0.00565
2235.28675,0.00559
2233.22657,0.00492
2231.16640,0.00434
2229.10623,0.00448
2227.04606,0.00533
2224.98589,0.00602
2222.92571,0.00590
2220.86554,0.00577
2218.80537,0.00653
2216.74520,0.00677
2214.68503,0.00603
2212.62485,0.00555
2210.56468,0.00545
2208.50451,0.00558
2206.44434,0.00556
2204.38417,0.00547
2202.32399,0.00577
2200.26382,0.00612
2198.20365,0.00650
2196.14348,0.00622
2194.08330,0.00483
2192.02313,0.00406
2189.96296,0.00475
2187.90279,0.00571
2185.84262,0.00577
2183.78244,0.00501
2181.72227,0.00442
2179.66210,0.00445
2177.60193,0.00426
2175.54176,0.00342
2173.48158,0.00357
2171.42141,0.00511
2169.36124,0.00649
2167.30107,0.00697
2165.24089,0.00653
2163.18072,0.00553
2161.12055,0.00408
2159.06038,0.00304
2157.00021,0.00318
2154.94003,0.00371
2152.87986,0.00411
2150.81969,0.00410
2148.75952,0.00348
2146.69935,0.00313
2144.63917,0.00370
2142.57900,0.00437
2140.51883,0.00436
2138.45866,0.00301
2136.39849,0.00137
2134.33831,0.00150
2132.27814,0.00269
2130.21797,0.00346
2128.15780,0.00373
2126.09762,0.00378
2124.03745,0.00407
2121.97728,0.00477
2119.91711,0.00512
2117.85694,0.00478
2115.79676,0.00451
2113.73659,0.00476
2111.67642,0.00491
2109.61625,0.00480
2107.55608,0.00483
2105.49590,0.00466
2103.43573,0.00442
2101.37556,0.00448
2099.31539,0.00432
2097.25521,0.00403
2095.19504,0.00403
2093.13487,0.00433
2091.07470,0.00469
2089.01453,0.00480
2086.95435,0.00482
2084.89418,0.00501
2082.83401,0.00474
2080.77384,0.00399
2078.71367,0.00380
2076.65349,0.00406
2074.59332,0.00405
2072.53315,0.00406
2070.47298,0.00414
2068.41281,0.00397
2066.35263,0.00380
2064.29246,0.00350
2062.23229,0.00319
2060.17212,0.00357
2058.11194,0.00433
2056.05177,0.00503
2053.99160,0.00555
2051.93143,0.00553
2049.87126,0.00522
2047.81108,0.00489
2045.75091,0.00435
2043.69074,0.00408
2041.63057,0.00446
2039.57040,0.00502
2037.51022,0.00527
2035.45005,0.00513
2033.38988,0.00441
2031.32971,0.00337
2029.26954,0.00333
2027.20936,0.00405
2025.14919,0.00356
2023.08902,0.00225
2021.02885,0.00173
2018.96867,0.00139
2016.90850,0.00045
2014.84833,0.00000
2012.78816,0.00065
2010.72799,0.00143
2008.66781,0.00129
2006.60764,0.00082
2004.54747,0.00119
2002.48730,0.00194
2000.42713,0.00258
1998.36695,0.00332
1996.30678,0.00378
1994.24661,0.00338
1992.18644,0.00286
1990.12626,0.00322
1988.06609,0.00360
1986.00592,0.00319
1983.94575,0.00269
1981.88558,0.00257
1979.82540,0.00266
1977.76523,0.00294
1975.70506,0.00337
1973.64489,0.00382
1971.58472,0.00417
1969.52454,0.00437
1967.46437,0.00407
1965.40420,0.00250
1963.34403,0.00080
1961.28386,0.00076
1959.22368,0.00189
1957.16351,0.00290
1955.10334,0.00338
1953.04317,0.00334
1950.98299,0.00299
1948.92282,0.00277
1946.86265,0.00297
1944.80248,0.00275
1942.74231,0.00171
1940.68213,0.00128
1938.62196,0.00173
1936.56179,0.00171
1934.50162,0.00136
1932.44145,0.00150
1930.38127,0.00177
1928.32110,0.00154
1926.26093,0.00116
1924.20076,0.00134
1922.14059,0.00191
1920.08041,0.00223
1918.02024,0.00215
1915.96007,0.00181
1913.89990,0.00138
1911.83972,0.00116
1909.77955,0.00147
1907.71938,0.00213
1905.65921,0.00258
1903.59904,0.00258
1901.53886,0.00217
1899.47869,0.00169
1897.41852,0.00167
1895.35835,0.00209
1893.29818,0.00233
1891.23800,0.00204
1889.17783,0.00154
1887.11766,0.00136
1885.05749,0.00173
1882.99731,0.00227
1880.93714,0.00241
1878.87697,0.00231
1876.81680,0.00239
1874.75663,0.00245
1872.69645,0.00217
1870.63628,0.00168
1868.57611,0.00149
1866.51594,0.00183
1864.45577,0.00227
1862.39559,0.00241
1860.33542,0.00224
1858.27525,0.00197
1856.21508,0.00191
1854.15491,0.00210
1852.09473,0.00232
1850.03456,0.00244
1847.97439,0.00251
1845.91422,0.00243
1843.85404,0.00212
1841.79387,0.00188
1839.73370,0.00195
1837.67353,0.00212
1835.61336,0.00216
1833.55318,0.00207
1831.49301,0.00188
1829.43284,0.00171
1827.37267,0.00169
1825.31250,0.00185
1823.25232,0.00210
1821.19215,0.00213
1819.13198,0.00187
1817.07181,0.00162
1815.01163,0.00161
1812.95146,0.00183
1810.89129,0.00209
1808.83112,0.00217
1806.77095,0.00218
1804.71077,0.00232
1802.65060,0.00250
1800.59043,0.00254
1798.53026,0.00232
1796.47009,0.00205
1794.40991,0.00196
1792.34974,0.00209
1790.28957,0.00238
1788.22940,0.00270
1786.16923,0.00285
1784.10905,0.00272
1782.04888,0.00244
1779.98871,0.00224
1777.92854,0.00228
1775.86836,0.00246
1773.80819,0.00251
1771.74802,0.00233
1769.68785,0.00223
1767.62768,0.00240
1765.56750,0.00275
1763.50733,0.00314
1761.44716,0.00341
1759.38699,0.00352
1757.32682,0.00363
1755.26664,0.00385
1753.20647,0.00391
1751.14630,0.00370
1749.08613,0.00359
1747.02596,0.00379
1744.96578,0.00415
1742.90561,0.00452
1740.84544,0.00469
1738.78527,0.00450
1736.72509,0.00413
1734.66492,0.00396
1732.60475,0.00422
1730.54458,0.00468
1728.48441,0.00507
1726.42423,0.00527
1724.36406,0.00529
1722.30389,0.00537
1720.24372,0.00554
1718.18355,0.00565
1716.12337,0.00574
1714.06320,0.00599
1712.00303,0.00623
1709.94286,0.00635
1707.88268,0.00641
1705.82251,0.00645
1703.76234,0.00648
1701.70217,0.00657
1699.64200,0.00687
1697.58182,0.00735
1695.52165,0.00784
1693.46148,0.00823
1691.40131,0.00849
1689.34114,0.00873
1687.28096,0.00890
1685.22079,0.00894
1683.16062,0.00916
1681.10045,0.00967
1679.04028,0.01014
1676.98010,0.01045
1674.91993,0.01079
1672.85976,0.01119
1670.79959,0.01158
1668.73941,0.01199
1666.67924,0.01239
1664.61907,0.01271
1662.55890,0.01308
1660.49873,0.01353
1658.43855,0.01384
1656.37838,0.01397
1654.31821,0.01406
1652.25804,0.01421
1650.19787,0.01420
1648.13769,0.01406
1646.07752,0.01406
1644.01735,0.01426
1641.95718,0.01443
1639.89701,0.01436
1637.83683,0.01404
1635.77666,0.01386
1633.71649,0.01408
1631.65632,0.01420
1629.59614,0.01407
1627.53597,0.01407
1625.47580,0.01430
1623.41563,0.01441
1621.35546,0.01417
1619.29528,0.01373
1617.23511,0.01334
1615.17494,0.01321
1613.11477,0.01326
1611.05460,0.01328
1608.99442,0.01320
1606.93425,0.01310
1604.87408,0.01298
1602.81391,0.01276
1600.75373,0.01244
1598.69356,0.01201
1596.63339,0.01147
1594.57322,0.01100
1592.51305,0.01068
1590.45287,0.01037
1588.39270,0.00996
1586.33253,0.00954
1584.27236,0.00921
1582.21219,0.00888
1580.15201,0.00841
1578.09184,0.00776
1576.03167,0.00718
1573.97150,0.00694
1571.91133,0.00680
1569.85115,0.00656
1567.79098,0.00638
1565.73081,0.00631
1563.67064,0.00622
1561.61046,0.00588
1559.55029,0.00520
1557.49012,0.00471
1555.42995,0.00469
1553.36978,0.00469
1551.30960,0.00451
1549.24943,0.00433
1547.18926,0.00427
1545.12909,0.00410
1543.06892,0.00353
1541.00874,0.00292
1538.94857,0.00303
1536.88840,0.00334
1534.82823,0.00320
1532.76805,0.00289
1530.70788,0.00283
1528.64771,0.00290
1526.58754,0.00284
1524.52737,0.00256
1522.46719,0.00215
1520.40702,0.00181
1518.34685,0.00164
1516.28668,0.00175
1514.22651,0.00195
1512.16633,0.00182
1510.10616,0.00133
1508.04599,0.00088
1505.98582,0.00096
1503.92565,0.00146
1501.86547,0.00181
1499.80530,0.00187
1497.74513,0.00178
1495.68496,0.00176
1493.62478,0.00180
1491.56461,0.00171
1489.50444,0.00155
1487.44427,0.00158
1485.38410,0.00178
1483.32392,0.00188
1481.26375,0.00184
1479.20358,0.00172
1477.14341,0.00165
1475.08324,0.00180
1473.02306,0.00219
1470.96289,0.00265
1468.90272,0.00297
1466.84255,0.00307
1464.78238,0.00303
1462.72220,0.00300
1460.66203,0.00299
1458.60186,0.00294
1456.54169,0.00306
1454.48151,0.00340
1452.42134,0.00369
1450.36117,0.00386
1448.30100,0.00393
1446.24083,0.00387
1444.18065,0.00380
1442.12048,0.00380
1440.06031,0.00385
1438.00014,0.00391
1435.93997,0.00400
1433.87979,0.00410
1431.81962,0.00419
1429.75945,0.00435
1427.69928,0.00454
1425.63910,0.00471
1423.57893,0.00487
1421.51876,0.00496
1419.45859,0.00495
1417.39842,0.00498
1415.33824,0.00508
1413.27807,0.00515
1411.21790,0.00516
1409.15773,0.00512
1407.09756,0.00499
1405.03738,0.00478
1402.97721,0.00461
1400.91704,0.00456
1398.85687,0.00453
1396.79670,0.00444
1394.73652,0.00426
1392.67635,0.00411
1390.61618,0.00404
1388.55601,0.00406
1386.49583,0.00410
1384.43566,0.00413
1382.37549,0.00414
1380.31532,0.00418
1378.25515,0.00431
1376.19497,0.00440
1374.13480,0.00434
1372.07463,0.00425
1370.01446,0.00422
1367.95429,0.00419
1365.89411,0.00413
1363.83394,0.00400
1361.77377,0.00382
1359.71360,0.00369
1357.65343,0.00368
1355.59325,0.00370
1353.53308,0.00356
1351.47291,0.00328
1349.41274,0.00310
1347.35256,0.00308
1345.29239,0.00311
1343.23222,0.00317
1341.17205,0.00315
1339.11188,0.00300
1337.05170,0.00288
1334.99153,0.00282
1332.93136,0.00274
1330.87119,0.00268
1328.81102,0.00273
1326.75084,0.00278
1324.69067,0.00272
1322.63050,0.00268
1320.57033,0.00275
1318.51015,0.00274
1316.44998,0.00250
1314.38981,0.00226
1312.32964,0.00227
1310.26947,0.00248
1308.20929,0.00260
1306.14912,0.00250
1304.08895,0.00239
1302.02878,0.00234
1299.96861,0.00231
1297.90843,0.00231
1295.84826,0.00236
1293.78809,0.00243
1291.72792,0.00253
1289.66775,0.00264
1287.60757,0.00266
1285.54740,0.00256
1283.48723,0.00253
1281.42706,0.00263
1279.36688,0.00271
1277.30671,0.00266
1275.24654,0.00260
1273.18637,0.00263
1271.12620,0.00276
1269.06602,0.00294
1267.00585,0.00302
1264.94568,0.00294
1262.88551,0.00284
1260.82534,0.00280
1258.76516,0.00276
1256.70499,0.00277
1254.64482,0.00284
1252.58465,0.00283
1250.52447,0.00271
1248.46430,0.00256
1246.40413,0.00240
1244.34396,0.00233
1242.28379,0.00237
1240.22361,0.00225
1238.16344,0.00195
1236.10327,0.00179
1234.04310,0.00182
1231.98293,0.00175
1229.92275,0.00167
1227.86258,0.00176
1225.80241,0.00182
1223.74224,0.00163
1221.68207,0.00135
1219.62189,0.00107
1217.56172,0.00077
1215.50155,0.00066
1213.44138,0.00070
1211.38120,0.00065
1209.32103,0.00051
1207.26086,0.00032
1205.20069,0.00011
1203.14052,0.00000
1201.08034,0.00003
1199.02017,0.00008
1196.96000,0.00015
1194.89983,0.00028
1192.83966,0.00037
1190.77948,0.00047
1188.71931,0.00065
1186.65914,0.00085
1184.59897,0.00116
1182.53880,0.00165
1180.47862,0.00222
1178.41845,0.00280
1176.35828,0.00339
1174.29811,0.00400
1172.23793,0.00457
1170.17776,0.00511
1168.11759,0.00571
1166.05742,0.00626
1163.99725,0.00670
1161.93707,0.00722
1159.87690,0.00774
1157.81673,0.00815
1155.75656,0.00863
1153.69639,0.00924
1151.63621,0.00988
1149.57604,0.01038
1147.51587,0.01079
1145.45570,0.01138
1143.39552,0.01219
1141.33535,0.01294
1139.27518,0.01348
1137.21501,0.01394
1135.15484,0.01451
1133.09466,0.01517
1131.03449,0.01576
1128.97432,0.01624
1126.91415,0.01671
1124.85398,0.01724
1122.79380,0.01789
1120.73363,0.01876
1118.67346,0.01963
1116.61329,0.02037
1114.55312,0.02125
1112.49294,0.02226
1110.43277,0.02309
1108.37260,0.02379
1106.31243,0.02466
1104.25225,0.02578
1102.19208,0.02696
1100.13191,0.02808
1098.07174,0.02914
1096.01157,0.03004
1093.95139,0.03081
1091.89122,0.03151
1089.83105,0.03222
1087.77088,0.03311
1085.71071,0.03406
1083.65053,0.03468
1081.59036,0.03528
1079.53019,0.03622
1077.47002,0.03718
1075.40985,0.03779
1073.34967,0.03828
1071.28950,0.03896
1069.22933,0.03943
1067.16916,0.03950
1065.10898,0.03957
1063.04881,0.03973
1060.98864,0.03975
1058.92847,0.03965
1056.86830,0.03966
1054.80812,0.03964
1052.74795,0.03938
1050.68778,0.03909
1048.62761,0.03896
1046.56744,0.03863
1044.50726,0.03792
1042.44709,0.03718
1040.38692,0.03657
1038.32675,0.03595
1036.26657,0.03532
1034.20640,0.03464
1032.14623,0.03398
1030.08606,0.03332
1028.02589,0.03247
1025.96571,0.03167
1023.90554,0.03113
1021.84537,0.03069
1019.78520,0.03003
1017.72503,0.02917
1015.66485,0.02819
1013.60468,0.02702
1011.54451,0.02600
1009.48434,0.02531
1007.42417,0.02469
1005.36399,0.02410
1003.30382,0.02378
1001.24365,0.02374
999.18348,0.02378
997.12330,0.02399
995.06313,0.02434
993.00296,0.02467
990.94279,0.02512
988.88262,0.02553
986.82244,0.02561
984.76227,0.02549
982.70210,0.02534
980.64193,0.02510
978.58176,0.02450
976.52158,0.02352
974.46141,0.02250
972.40124,0.02149
970.34107,0.02039
968.28089,0.01940
966.22072,0.01858
964.16055,0.01751
962.10038,0.01636
960.04021,0.01550
957.98003,0.01459
955.91986,0.01362
953.85969,0.01296
951.79952,0.01256
949.73935,0.01225
947.67917,0.01206
945.61900,0.01182
943.55883,0.01132
941.49866,0.01092
939.43849,0.01088
937.37831,0.01098
935.31814,0.01098
933.25797,0.01093
931.19780,0.01083
929.13762,0.01050
927.07745,0.01013
925.01728,0.01002
922.95711,0.00993
920.89694,0.00953
918.83676,0.00900
916.77659,0.00854
914.71642,0.00800
912.65625,0.00740
910.59608,0.00704
908.53590,0.00698
906.47573,0.00698
904.41556,0.00669
902.35539,0.00633
900.29522,0.00641
898.23504,0.00660
896.17487,0.00651
894.11470,0.00630
892.05453,0.00623
889.99435,0.00643
887.93418,0.00672
885.87401,0.00689
883.81384,0.00702
881.75367,0.00727
879.69349,0.00755
877.63332,0.00781
875.57315,0.00826
873.51298,0.00879
871.45281,0.00922
869.39263,0.00951
867.33246,0.00953
865.27229,0.00939
863.21212,0.00926
861.15194,0.00905
859.09177,0.00897
857.03160,0.00916
854.97143,0.00929
852.91126,0.00910
850.85108,0.00878
848.79091,0.00859
846.73074,0.00843
844.67057,0.00797
842.61040,0.00720
840.55022,0.00663
838.49005,0.00642
836.42988,0.00634
834.36971,0.00656
832.30954,0.00701
830.24936,0.00712
828.18919,0.00643
826.12902,0.00529
824.06885,0.00477
822.00867,0.00509
819.94850,0.00539
817.88833,0.00517
815.82816,0.00479
813.76799,0.00456
811.70781,0.00431
809.64764,0.00401
807.58747,0.00388
805.52730,0.00379
803.46713,0.00365
801.40695,0.00354
799.34678,0.00338
797.28661,0.00314
795.22644,0.00297
793.16627,0.00283
791.10609,0.00276
789.04592,0.00291
786.98575,0.00320
784.92558,0.00342
782.86540,0.00348
780.80523,0.00336
778.74506,0.00319
776.68489,0.00324
774.62472,0.00334
772.56454,0.00334
770.50437,0.00355
768.44420,0.00378
766.38403,0.00378
764.32386,0.00370
762.26368,0.00333
760.20351,0.00277
758.14334,0.00252
756.08317,0.00272
754.02299,0.00301
751.96282,0.00296
749.90265,0.00259
747.84248,0.00218
745.78231,0.00221
743.72213,0.00281
741.66196,0.00303
739.60179,0.00253
737.54162,0.00224
735.48145,0.00219
733.42127,0.00184
731.36110,0.00163
729.30093,0.00205
727.24076,0.00250
725.18059,0.00279
723.12041,0.00310
721.06024,0.00312
719.00007,0.00295
716.93990,0.00292
714.87972,0.00305
712.81955,0.00309
710.75938,0.00312
708.69921,0.00341
706.63904,0.00366
704.57886,0.00378
702.51869,0.00399
700.45852,0.00383
698.39835,0.00313
696.33818,0.00268
694.27800,0.00286
692.21783,0.00326
690.15766,0.00355
688.09749,0.00356
686.03731,0.00343
683.97714,0.00336
681.91697,0.00355
679.85680,0.00378
677.79663,0.00350
675.73645,0.00297
673.67628,0.00265
671.61611,0.00250
669.55594,0.00264
667.49577,0.00305
665.43559,0.00316
663.37542,0.00306
661.31525,0.00286
659.25508,0.00261
657.19491,0.00276
655.13473,0.00338
653.07456,0.00389
651.01439,0.00452
648.95422,0.00563
646.89404,0.00661
644.83387,0.00700
642.77370,0.00640
640.71353,0.00454
638.65336,0.00232
636.59318,0.00148
634.53301,0.00294
632.47284,0.00549
630.41267,0.00698
628.35250,0.00681
626.29232,0.00609
624.23215,0.00555
622.17198,0.00480
620.11181,0.00383
618.05164,0.00389
615.99146,0.00497
613.93129,0.00430
611.87112,0.00179
609.81095,0.00000
607.75077,-0.00038
605.69060,0.00060
603.63043,0.00122
601.57026,0.00102
599.51009,0.00000
