Created as New Dataset,Sample 354 By Analyst Date Tuesday, February 04 2025
cm-1,%T
4000.00,100.61
3999.00,100.61
3998.00,100.61
3997.00,100.61
3996.00,100.61
3995.00,100.61
3994.00,100.61
3993.00,100.61
3992.00,100.60
3991.00,100.60
3990.00,100.60
3989.00,100.60
3988.00,100.60
3987.00,100.60
3986.00,100.60
3985.00,100.60
3984.00,100.60
3983.00,100.60
3982.00,100.60
3981.00,100.60
3980.00,100.60
3979.00,100.60
3978.00,100.60
3977.00,100.60
3976.00,100.60
3975.00,100.60
3974.00,100.60
3973.00,100.60
3972.00,100.60
3971.00,100.60
3970.00,100.60
3969.00,100.60
3968.00,100.61
3967.00,100.60
3966.00,100.60
3965.00,100.60
3964.00,100.60
3963.00,100.60
3962.00,100.60
3961.00,100.60
3960.00,100.59
3959.00,100.59
3958.00,100.59
3957.00,100.59
3956.00,100.59
3955.00,100.59
3954.00,100.59
3953.00,100.59
3952.00,100.59
3951.00,100.58
3950.00,100.58
3949.00,100.57
3948.00,100.57
3947.00,100.56
3946.00,100.56
3945.00,100.56
3944.00,100.56
3943.00,100.57
3942.00,100.57
3941.00,100.57
3940.00,100.57
3939.00,100.57
3938.00,100.58
3937.00,100.58
3936.00,100.58
3935.00,100.57
3934.00,100.56
3933.00,100.56
3932.00,100.56
3931.00,100.56
3930.00,100.56
3929.00,100.56
3928.00,100.56
3927.00,100.57
3926.00,100.57
3925.00,100.57
3924.00,100.57
3923.00,100.56
3922.00,100.55
3921.00,100.54
3920.00,100.53
3919.00,100.53
3918.00,100.53
3917.00,100.54
3916.00,100.55
3915.00,100.56
3914.00,100.56
3913.00,100.57
3912.00,100.58
3911.00,100.58
3910.00,100.59
3909.00,100.58
3908.00,100.58
3907.00,100.56
3906.00,100.55
3905.00,100.53
3904.00,100.50
3903.00,100.48
3902.00,100.46
3901.00,100.45
3900.00,100.46
3899.00,100.47
3898.00,100.49
3897.00,100.51
3896.00,100.52
3895.00,100.53
3894.00,100.54
3893.00,100.55
3892.00,100.55
3891.00,100.55
3890.00,100.54
3889.00,100.53
3888.00,100.50
3887.00,100.49
3886.00,100.49
3885.00,100.51
3884.00,100.51
3883.00,100.50
3882.00,100.49
3881.00,100.50
3880.00,100.51
3879.00,100.52
3878.00,100.52
3877.00,100.51
3876.00,100.51
3875.00,100.52
3874.00,100.53
3873.00,100.53
3872.00,100.51
3871.00,100.48
3870.00,100.48
3869.00,100.49
3868.00,100.49
3867.00,100.48
3866.00,100.47
3865.00,100.48
3864.00,100.50
3863.00,100.50
3862.00,100.50
3861.00,100.50
3860.00,100.50
3859.00,100.52
3858.00,100.54
3857.00,100.57
3856.00,100.58
3855.00,100.57
3854.00,100.55
3853.00,100.52
3852.00,100.51
3851.00,100.50
3850.00,100.49
3849.00,100.50
3848.00,100.51
3847.00,100.51
3846.00,100.52
3845.00,100.52
3844.00,100.52
3843.00,100.52
3842.00,100.51
3841.00,100.50
3840.00,100.49
3839.00,100.49
3838.00,100.48
3837.00,100.48
3836.00,100.48
3835.00,100.49
3834.00,100.49
3833.00,100.49
3832.00,100.50
3831.00,100.51
3830.00,100.52
3829.00,100.52
3828.00,100.52
3827.00,100.52
3826.00,100.53
3825.00,100.53
3824.00,100.51
3823.00,100.49
3822.00,100.48
3821.00,100.49
3820.00,100.50
3819.00,100.50
3818.00,100.48
3817.00,100.48
3816.00,100.50
3815.00,100.53
3814.00,100.54
3813.00,100.54
3812.00,100.54
3811.00,100.55
3810.00,100.56
3809.00,100.55
3808.00,100.54
3807.00,100.54
3806.00,100.54
3805.00,100.53
3804.00,100.51
3803.00,100.50
3802.00,100.50
3801.00,100.52
3800.00,100.52
3799.00,100.51
3798.00,100.49
3797.00,100.50
3796.00,100.51
3795.00,100.53
3794.00,100.54
3793.00,100.54
3792.00,100.55
3791.00,100.56
3790.00,100.57
3789.00,100.57
3788.00,100.57
3787.00,100.57
3786.00,100.56
3785.00,100.56
3784.00,100.56
3783.00,100.56
3782.00,100.55
3781.00,100.54
3780.00,100.54
3779.00,100.54
3778.00,100.55
3777.00,100.55
3776.00,100.55
3775.00,100.56
3774.00,100.56
3773.00,100.56
3772.00,100.55
3771.00,100.54
3770.00,100.53
3769.00,100.53
3768.00,100.52
3767.00,100.50
3766.00,100.51
3765.00,100.52
3764.00,100.52
3763.00,100.52
3762.00,100.51
3761.00,100.50
3760.00,100.51
3759.00,100.51
3758.00,100.51
3757.00,100.50
3756.00,100.49
3755.00,100.49
3754.00,100.48
3753.00,100.47
3752.00,100.47
3751.00,100.45
3750.00,100.43
3749.00,100.42
3748.00,100.43
3747.00,100.42
3746.00,100.41
3745.00,100.41
3744.00,100.43
3743.00,100.44
3742.00,100.43
3741.00,100.41
3740.00,100.40
3739.00,100.39
3738.00,100.38
3737.00,100.38
3736.00,100.39
3735.00,100.41
3734.00,100.41
3733.00,100.42
3732.00,100.43
3731.00,100.45
3730.00,100.46
3729.00,100.46
3728.00,100.46
3727.00,100.47
3726.00,100.48
3725.00,100.49
3724.00,100.48
3723.00,100.48
3722.00,100.48
3721.00,100.49
3720.00,100.50
3719.00,100.51
3718.00,100.51
3717.00,100.51
3716.00,100.51
3715.00,100.50
3714.00,100.49
3713.00,100.48
3712.00,100.47
3711.00,100.46
3710.00,100.46
3709.00,100.47
3708.00,100.48
3707.00,100.50
3706.00,100.51
3705.00,100.52
3704.00,100.53
3703.00,100.54
3702.00,100.54
3701.00,100.55
3700.00,100.55
3699.00,100.54
3698.00,100.54
3697.00,100.54
3696.00,100.54
3695.00,100.54
3694.00,100.53
3693.00,100.53
3692.00,100.52
3691.00,100.52
3690.00,100.51
3689.00,100.50
3688.00,100.50
3687.00,100.50
3686.00,100.50
3685.00,100.51
3684.00,100.51
3683.00,100.51
3682.00,100.51
3681.00,100.51
3680.00,100.51
3679.00,100.51
3678.00,100.48
3677.00,100.45
3676.00,100.44
3675.00,100.45
3674.00,100.45
3673.00,100.43
3672.00,100.41
3671.00,100.41
3670.00,100.44
3669.00,100.47
3668.00,100.48
3667.00,100.49
3666.00,100.50
3665.00,100.51
3664.00,100.53
3663.00,100.54
3662.00,100.55
3661.00,100.55
3660.00,100.55
3659.00,100.54
3658.00,100.53
3657.00,100.52
3656.00,100.52
3655.00,100.51
3654.00,100.49
3653.00,100.46
3652.00,100.43
3651.00,100.42
3650.00,100.41
3649.00,100.39
3648.00,100.39
3647.00,100.40
3646.00,100.42
3645.00,100.44
3644.00,100.47
3643.00,100.49
3642.00,100.52
3641.00,100.53
3640.00,100.54
3639.00,100.54
3638.00,100.54
3637.00,100.54
3636.00,100.53
3635.00,100.52
3634.00,100.52
3633.00,100.51
3632.00,100.49
3631.00,100.47
3630.00,100.45
3629.00,100.45
3628.00,100.45
3627.00,100.46
3626.00,100.46
3625.00,100.47
3624.00,100.48
3623.00,100.51
3622.00,100.52
3621.00,100.53
3620.00,100.53
3619.00,100.52
3618.00,100.50
3617.00,100.47
3616.00,100.45
3615.00,100.44
3614.00,100.44
3613.00,100.44
3612.00,100.44
3611.00,100.43
3610.00,100.43
3609.00,100.43
3608.00,100.45
3607.00,100.47
3606.00,100.49
3605.00,100.50
3604.00,100.51
3603.00,100.52
3602.00,100.53
3601.00,100.53
3600.00,100.53
3599.00,100.53
3598.00,100.52
3597.00,100.51
3596.00,100.51
3595.00,100.51
3594.00,100.51
3593.00,100.51
3592.00,100.50
3591.00,100.49
3590.00,100.47
3589.00,100.47
3588.00,100.47
3587.00,100.48
3586.00,100.48
3585.00,100.49
3584.00,100.49
3583.00,100.51
3582.00,100.52
3581.00,100.54
3580.00,100.55
3579.00,100.56
3578.00,100.56
3577.00,100.56
3576.00,100.56
3575.00,100.56
3574.00,100.55
3573.00,100.55
3572.00,100.54
3571.00,100.52
3570.00,100.49
3569.00,100.47
3568.00,100.47
3567.00,100.47
3566.00,100.47
3565.00,100.48
3564.00,100.48
3563.00,100.49
3562.00,100.51
3561.00,100.53
3560.00,100.54
3559.00,100.55
3558.00,100.56
3557.00,100.56
3556.00,100.56
3555.00,100.56
3554.00,100.56
3553.00,100.56
3552.00,100.56
3551.00,100.55
3550.00,100.54
3549.00,100.53
3548.00,100.52
3547.00,100.52
3546.00,100.53
3545.00,100.53
3544.00,100.53
3543.00,100.54
3542.00,100.54
3541.00,100.55
3540.00,100.56
3539.00,100.57
3538.00,100.57
3537.00,100.57
3536.00,100.57
3535.00,100.57
3534.00,100.57
3533.00,100.57
3532.00,100.57
3531.00,100.57
3530.00,100.56
3529.00,100.56
3528.00,100.55
3527.00,100.55
3526.00,100.54
3525.00,100.54
3524.00,100.55
3523.00,100.55
3522.00,100.56
3521.00,100.56
3520.00,100.56
3519.00,100.57
3518.00,100.57
3517.00,100.58
3516.00,100.58
3515.00,100.58
3514.00,100.58
3513.00,100.58
3512.00,100.58
3511.00,100.58
3510.00,100.58
3509.00,100.58
3508.00,100.58
3507.00,100.57
3506.00,100.57
3505.00,100.57
3504.00,100.57
3503.00,100.57
3502.00,100.57
3501.00,100.57
3500.00,100.57
3499.00,100.58
3498.00,100.58
3497.00,100.59
3496.00,100.59
3495.00,100.59
3494.00,100.60
3493.00,100.60
3492.00,100.60
3491.00,100.60
3490.00,100.60
3489.00,100.60
3488.00,100.60
3487.00,100.60
3486.00,100.60
3485.00,100.60
3484.00,100.60
3483.00,100.60
3482.00,100.60
3481.00,100.60
3480.00,100.60
3479.00,100.60
3478.00,100.60
3477.00,100.61
3476.00,100.61
3475.00,100.61
3474.00,100.61
3473.00,100.61
3472.00,100.61
3471.00,100.61
3470.00,100.60
3469.00,100.60
3468.00,100.60
3467.00,100.60
3466.00,100.60
3465.00,100.60
3464.00,100.60
3463.00,100.60
3462.00,100.61
3461.00,100.61
3460.00,100.60
3459.00,100.60
3458.00,100.60
3457.00,100.60
3456.00,100.61
3455.00,100.61
3454.00,100.61
3453.00,100.61
3452.00,100.61
3451.00,100.61
3450.00,100.60
3449.00,100.60
3448.00,100.60
3447.00,100.60
3446.00,100.60
3445.00,100.60
3444.00,100.60
3443.00,100.60
3442.00,100.61
3441.00,100.61
3440.00,100.61
3439.00,100.61
3438.00,100.61
3437.00,100.61
3436.00,100.61
3435.00,100.61
3434.00,100.61
3433.00,100.61
3432.00,100.61
3431.00,100.61
3430.00,100.61
3429.00,100.60
3428.00,100.60
3427.00,100.61
3426.00,100.61
3425.00,100.61
3424.00,100.61
3423.00,100.61
3422.00,100.60
3421.00,100.60
3420.00,100.60
3419.00,100.60
3418.00,100.60
3417.00,100.60
3416.00,100.60
3415.00,100.60
3414.00,100.61
3413.00,100.61
3412.00,100.61
3411.00,100.61
3410.00,100.61
3409.00,100.61
3408.00,100.61
3407.00,100.61
3406.00,100.61
3405.00,100.61
3404.00,100.61
3403.00,100.61
3402.00,100.60
3401.00,100.60
3400.00,100.61
3399.00,100.61
3398.00,100.61
3397.00,100.61
3396.00,100.61
3395.00,100.61
3394.00,100.61
3393.00,100.61
3392.00,100.61
3391.00,100.61
3390.00,100.61
3389.00,100.61
3388.00,100.61
3387.00,100.61
3386.00,100.61
3385.00,100.61
3384.00,100.61
3383.00,100.61
3382.00,100.61
3381.00,100.61
3380.00,100.61
3379.00,100.61
3378.00,100.61
3377.00,100.61
3376.00,100.61
3375.00,100.61
3374.00,100.61
3373.00,100.61
3372.00,100.61
3371.00,100.61
3370.00,100.60
3369.00,100.60
3368.00,100.60
3367.00,100.60
3366.00,100.60
3365.00,100.60
3364.00,100.60
3363.00,100.60
3362.00,100.60
3361.00,100.60
3360.00,100.60
3359.00,100.60
3358.00,100.60
3357.00,100.61
3356.00,100.61
3355.00,100.61
3354.00,100.60
3353.00,100.60
3352.00,100.60
3351.00,100.60
3350.00,100.60
3349.00,100.60
3348.00,100.60
3347.00,100.61
3346.00,100.61
3345.00,100.61
3344.00,100.61
3343.00,100.61
3342.00,100.60
3341.00,100.60
3340.00,100.60
3339.00,100.60
3338.00,100.60
3337.00,100.60
3336.00,100.60
3335.00,100.60
3334.00,100.60
3333.00,100.60
3332.00,100.60
3331.00,100.60
3330.00,100.60
3329.00,100.61
3328.00,100.61
3327.00,100.61
3326.00,100.61
3325.00,100.61
3324.00,100.61
3323.00,100.61
3322.00,100.61
3321.00,100.61
3320.00,100.61
3319.00,100.61
3318.00,100.61
3317.00,100.61
3316.00,100.60
3315.00,100.60
3314.00,100.60
3313.00,100.60
3312.00,100.61
3311.00,100.60
3310.00,100.60
3309.00,100.60
3308.00,100.60
3307.00,100.60
3306.00,100.60
3305.00,100.60
3304.00,100.60
3303.00,100.60
3302.00,100.60
3301.00,100.60
3300.00,100.60
3299.00,100.60
3298.00,100.60
3297.00,100.60
3296.00,100.60
3295.00,100.60
3294.00,100.60
3293.00,100.60
3292.00,100.60
3291.00,100.60
3290.00,100.60
3289.00,100.60
3288.00,100.60
3287.00,100.60
3286.00,100.60
3285.00,100.60
3284.00,100.60
3283.00,100.60
3282.00,100.60
3281.00,100.60
3280.00,100.60
3279.00,100.60
3278.00,100.60
3277.00,100.60
3276.00,100.60
3275.00,100.60
3274.00,100.60
3273.00,100.60
3272.00,100.60
3271.00,100.60
3270.00,100.60
3269.00,100.60
3268.00,100.60
3267.00,100.60
3266.00,100.60
3265.00,100.60
3264.00,100.60
3263.00,100.60
3262.00,100.60
3261.00,100.60
3260.00,100.60
3259.00,100.60
3258.00,100.60
3257.00,100.60
3256.00,100.60
3255.00,100.60
3254.00,100.60
3253.00,100.60
3252.00,100.60
3251.00,100.60
3250.00,100.60
3249.00,100.60
3248.00,100.60
3247.00,100.60
3246.00,100.60
3245.00,100.60
3244.00,100.60
3243.00,100.60
3242.00,100.60
3241.00,100.60
3240.00,100.60
3239.00,100.60
3238.00,100.60
3237.00,100.60
3236.00,100.60
3235.00,100.60
3234.00,100.60
3233.00,100.60
3232.00,100.60
3231.00,100.60
3230.00,100.60
3229.00,100.59
3228.00,100.59
3227.00,100.59
3226.00,100.59
3225.00,100.59
3224.00,100.60
3223.00,100.60
3222.00,100.60
3221.00,100.60
3220.00,100.60
3219.00,100.59
3218.00,100.59
3217.00,100.60
3216.00,100.60
3215.00,100.60
3214.00,100.60
3213.00,100.60
3212.00,100.60
3211.00,100.60
3210.00,100.59
3209.00,100.59
3208.00,100.59
3207.00,100.59
3206.00,100.60
3205.00,100.60
3204.00,100.60
3203.00,100.60
3202.00,100.60
3201.00,100.59
3200.00,100.59
3199.00,100.59
3198.00,100.59
3197.00,100.59
3196.00,100.59
3195.00,100.59
3194.00,100.59
3193.00,100.60
3192.00,100.60
3191.00,100.60
3190.00,100.60
3189.00,100.59
3188.00,100.59
3187.00,100.59
3186.00,100.59
3185.00,100.59
3184.00,100.59
3183.00,100.59
3182.00,100.59
3181.00,100.59
3180.00,100.59
3179.00,100.58
3178.00,100.58
3177.00,100.58
3176.00,100.58
3175.00,100.58
3174.00,100.59
3173.00,100.59
3172.00,100.59
3171.00,100.59
3170.00,100.59
3169.00,100.59
3168.00,100.59
3167.00,100.59
3166.00,100.59
3165.00,100.59
3164.00,100.59
3163.00,100.59
3162.00,100.59
3161.00,100.59
3160.00,100.59
3159.00,100.58
3158.00,100.58
3157.00,100.58
3156.00,100.58
3155.00,100.58
3154.00,100.59
3153.00,100.59
3152.00,100.59
3151.00,100.59
3150.00,100.58
3149.00,100.58
3148.00,100.58
3147.00,100.58
3146.00,100.58
3145.00,100.59
3144.00,100.59
3143.00,100.58
3142.00,100.58
3141.00,100.58
3140.00,100.58
3139.00,100.58
3138.00,100.58
3137.00,100.58
3136.00,100.58
3135.00,100.58
3134.00,100.58
3133.00,100.58
3132.00,100.58
3131.00,100.58
3130.00,100.58
3129.00,100.58
3128.00,100.58
3127.00,100.58
3126.00,100.58
3125.00,100.58
3124.00,100.58
3123.00,100.57
3122.00,100.57
3121.00,100.57
3120.00,100.58
3119.00,100.58
3118.00,100.57
3117.00,100.57
3116.00,100.57
3115.00,100.57
3114.00,100.57
3113.00,100.57
3112.00,100.57
3111.00,100.57
3110.00,100.57
3109.00,100.58
3108.00,100.58
3107.00,100.58
3106.00,100.58
3105.00,100.58
3104.00,100.58
3103.00,100.58
3102.00,100.57
3101.00,100.57
3100.00,100.57
3099.00,100.57
3098.00,100.57
3097.00,100.57
3096.00,100.57
3095.00,100.57
3094.00,100.57
3093.00,100.57
3092.00,100.57
3091.00,100.57
3090.00,100.57
3089.00,100.57
3088.00,100.57
3087.00,100.57
3086.00,100.57
3085.00,100.57
3084.00,100.57
3083.00,100.57
3082.00,100.57
3081.00,100.57
3080.00,100.56
3079.00,100.56
3078.00,100.57
3077.00,100.57
3076.00,100.57
3075.00,100.57
3074.00,100.57
3073.00,100.57
3072.00,100.57
3071.00,100.57
3070.00,100.57
3069.00,100.57
3068.00,100.57
3067.00,100.57
3066.00,100.57
3065.00,100.57
3064.00,100.57
3063.00,100.57
3062.00,100.57
3061.00,100.57
3060.00,100.57
3059.00,100.57
3058.00,100.57
3057.00,100.57
3056.00,100.57
3055.00,100.56
3054.00,100.56
3053.00,100.56
3052.00,100.56
3051.00,100.56
3050.00,100.56
3049.00,100.56
3048.00,100.56
3047.00,100.56
3046.00,100.56
3045.00,100.56
3044.00,100.56
3043.00,100.56
3042.00,100.56
3041.00,100.56
3040.00,100.56
3039.00,100.56
3038.00,100.56
3037.00,100.56
3036.00,100.56
3035.00,100.55
3034.00,100.55
3033.00,100.55
3032.00,100.55
3031.00,100.56
3030.00,100.56
3029.00,100.56
3028.00,100.56
3027.00,100.56
3026.00,100.55
3025.00,100.55
3024.00,100.55
3023.00,100.55
3022.00,100.56
3021.00,100.56
3020.00,100.56
3019.00,100.56
3018.00,100.56
3017.00,100.56
3016.00,100.56
3015.00,100.56
3014.00,100.55
3013.00,100.55
3012.00,100.55
3011.00,100.55
3010.00,100.56
3009.00,100.56
3008.00,100.56
3007.00,100.56
3006.00,100.56
3005.00,100.56
3004.00,100.56
3003.00,100.56
3002.00,100.56
3001.00,100.56
3000.00,100.56
2999.00,100.56
2998.00,100.56
2997.00,100.56
2996.00,100.56
2995.00,100.55
2994.00,100.55
2993.00,100.55
2992.00,100.55
2991.00,100.55
2990.00,100.55
2989.00,100.55
2988.00,100.55
2987.00,100.55
2986.00,100.55
2985.00,100.55
2984.00,100.55
2983.00,100.55
2982.00,100.55
2981.00,100.55
2980.00,100.55
2979.00,100.55
2978.00,100.55
2977.00,100.55
2976.00,100.55
2975.00,100.55
2974.00,100.55
2973.00,100.55
2972.00,100.55
2971.00,100.55
2970.00,100.55
2969.00,100.56
2968.00,100.56
2967.00,100.56
2966.00,100.56
2965.00,100.56
2964.00,100.56
2963.00,100.56
2962.00,100.56
2961.00,100.56
2960.00,100.56
2959.00,100.56
2958.00,100.56
2957.00,100.56
2956.00,100.56
2955.00,100.56
2954.00,100.56
2953.00,100.56
2952.00,100.56
2951.00,100.55
2950.00,100.55
2949.00,100.55
2948.00,100.55
2947.00,100.55
2946.00,100.54
2945.00,100.54
2944.00,100.54
2943.00,100.54
2942.00,100.54
2941.00,100.54
2940.00,100.54
2939.00,100.54
2938.00,100.54
2937.00,100.54
2936.00,100.54
2935.00,100.54
2934.00,100.54
2933.00,100.54
2932.00,100.54
2931.00,100.54
2930.00,100.55
2929.00,100.55
2928.00,100.55
2927.00,100.56
2926.00,100.56
2925.00,100.57
2924.00,100.57
2923.00,100.57
2922.00,100.58
2921.00,100.58
2920.00,100.58
2919.00,100.58
2918.00,100.58
2917.00,100.58
2916.00,100.58
2915.00,100.58
2914.00,100.57
2913.00,100.57
2912.00,100.56
2911.00,100.56
2910.00,100.56
2909.00,100.56
2908.00,100.56
2907.00,100.55
2906.00,100.55
2905.00,100.55
2904.00,100.55
2903.00,100.55
2902.00,100.55
2901.00,100.55
2900.00,100.55
2899.00,100.55
2898.00,100.55
2897.00,100.55
2896.00,100.55
2895.00,100.55
2894.00,100.55
2893.00,100.55
2892.00,100.55
2891.00,100.55
2890.00,100.55
2889.00,100.55
2888.00,100.55
2887.00,100.54
2886.00,100.54
2885.00,100.54
2884.00,100.54
2883.00,100.54
2882.00,100.54
2881.00,100.54
2880.00,100.54
2879.00,100.54
2878.00,100.54
2877.00,100.54
2876.00,100.54
2875.00,100.54
2874.00,100.54
2873.00,100.54
2872.00,100.54
2871.00,100.54
2870.00,100.54
2869.00,100.54
2868.00,100.54
2867.00,100.54
2866.00,100.54
2865.00,100.54
2864.00,100.54
2863.00,100.54
2862.00,100.54
2861.00,100.54
2860.00,100.55
2859.00,100.55
2858.00,100.55
2857.00,100.56
2856.00,100.56
2855.00,100.57
2854.00,100.57
2853.00,100.57
2852.00,100.58
2851.00,100.58
2850.00,100.58
2849.00,100.58
2848.00,100.57
2847.00,100.57
2846.00,100.57
2845.00,100.57
2844.00,100.56
2843.00,100.56
2842.00,100.56
2841.00,100.55
2840.00,100.55
2839.00,100.55
2838.00,100.54
2837.00,100.54
2836.00,100.54
2835.00,100.54
2834.00,100.54
2833.00,100.54
2832.00,100.54
2831.00,100.54
2830.00,100.54
2829.00,100.54
2828.00,100.54
2827.00,100.54
2826.00,100.54
2825.00,100.54
2824.00,100.54
2823.00,100.54
2822.00,100.54
2821.00,100.53
2820.00,100.53
2819.00,100.53
2818.00,100.53
2817.00,100.53
2816.00,100.53
2815.00,100.53
2814.00,100.53
2813.00,100.53
2812.00,100.53
2811.00,100.53
2810.00,100.53
2809.00,100.53
2808.00,100.54
2807.00,100.54
2806.00,100.53
2805.00,100.53
2804.00,100.53
2803.00,100.53
2802.00,100.53
2801.00,100.53
2800.00,100.53
2799.00,100.53
2798.00,100.53
2797.00,100.54
2796.00,100.54
2795.00,100.54
2794.00,100.54
2793.00,100.53
2792.00,100.53
2791.00,100.53
2790.00,100.53
2789.00,100.53
2788.00,100.53
2787.00,100.53
2786.00,100.54
2785.00,100.54
2784.00,100.54
2783.00,100.54
2782.00,100.54
2781.00,100.54
2780.00,100.54
2779.00,100.53
2778.00,100.53
2777.00,100.53
2776.00,100.53
2775.00,100.53
2774.00,100.53
2773.00,100.53
2772.00,100.53
2771.00,100.53
2770.00,100.53
2769.00,100.53
2768.00,100.53
2767.00,100.53
2766.00,100.53
2765.00,100.53
2764.00,100.53
2763.00,100.53
2762.00,100.53
2761.00,100.53
2760.00,100.53
2759.00,100.53
2758.00,100.53
2757.00,100.53
2756.00,100.53
2755.00,100.53
2754.00,100.53
2753.00,100.53
2752.00,100.53
2751.00,100.53
2750.00,100.53
2749.00,100.53
2748.00,100.53
2747.00,100.53
2746.00,100.53
2745.00,100.53
2744.00,100.53
2743.00,100.53
2742.00,100.53
2741.00,100.53
2740.00,100.53
2739.00,100.53
2738.00,100.53
2737.00,100.53
2736.00,100.53
2735.00,100.53
2734.00,100.53
2733.00,100.53
2732.00,100.53
2731.00,100.53
2730.00,100.53
2729.00,100.53
2728.00,100.53
2727.00,100.53
2726.00,100.53
2725.00,100.53
2724.00,100.53
2723.00,100.53
2722.00,100.53
2721.00,100.53
2720.00,100.53
2719.00,100.53
2718.00,100.53
2717.00,100.53
2716.00,100.53
2715.00,100.53
2714.00,100.53
2713.00,100.53
2712.00,100.53
2711.00,100.53
2710.00,100.53
2709.00,100.53
2708.00,100.53
2707.00,100.53
2706.00,100.53
2705.00,100.53
2704.00,100.53
2703.00,100.53
2702.00,100.53
2701.00,100.53
2700.00,100.53
2699.00,100.53
2698.00,100.53
2697.00,100.53
2696.00,100.53
2695.00,100.53
2694.00,100.53
2693.00,100.53
2692.00,100.53
2691.00,100.53
2690.00,100.53
2689.00,100.53
2688.00,100.53
2687.00,100.53
2686.00,100.53
2685.00,100.53
2684.00,100.53
2683.00,100.53
2682.00,100.53
2681.00,100.53
2680.00,100.53
2679.00,100.53
2678.00,100.53
2677.00,100.53
2676.00,100.53
2675.00,100.53
2674.00,100.53
2673.00,100.53
2672.00,100.53
2671.00,100.53
2670.00,100.53
2669.00,100.53
2668.00,100.53
2667.00,100.53
2666.00,100.53
2665.00,100.53
2664.00,100.53
2663.00,100.53
2662.00,100.53
2661.00,100.53
2660.00,100.53
2659.00,100.53
2658.00,100.53
2657.00,100.53
2656.00,100.53
2655.00,100.53
2654.00,100.53
2653.00,100.53
2652.00,100.53
2651.00,100.53
2650.00,100.53
2649.00,100.53
2648.00,100.53
2647.00,100.53
2646.00,100.53
2645.00,100.53
2644.00,100.53
2643.00,100.53
2642.00,100.53
2641.00,100.53
2640.00,100.53
2639.00,100.53
2638.00,100.53
2637.00,100.53
2636.00,100.53
2635.00,100.53
2634.00,100.53
2633.00,100.52
2632.00,100.53
2631.00,100.53
2630.00,100.53
2629.00,100.53
2628.00,100.53
2627.00,100.53
2626.00,100.53
2625.00,100.53
2624.00,100.53
2623.00,100.53
2622.00,100.53
2621.00,100.53
2620.00,100.53
2619.00,100.53
2618.00,100.53
2617.00,100.52
2616.00,100.52
2615.00,100.52
2614.00,100.52
2613.00,100.52
2612.00,100.52
2611.00,100.52
2610.00,100.52
2609.00,100.52
2608.00,100.53
2607.00,100.53
2606.00,100.53
2605.00,100.53
2604.00,100.52
2603.00,100.52
2602.00,100.52
2601.00,100.52
2600.00,100.52
2599.00,100.52
2598.00,100.52
2597.00,100.52
2596.00,100.52
2595.00,100.53
2594.00,100.52
2593.00,100.52
2592.00,100.53
2591.00,100.53
2590.00,100.53
2589.00,100.53
2588.00,100.53
2587.00,100.53
2586.00,100.53
2585.00,100.53
2584.00,100.53
2583.00,100.53
2582.00,100.53
2581.00,100.53
2580.00,100.53
2579.00,100.53
2578.00,100.53
2577.00,100.53
2576.00,100.53
2575.00,100.53
2574.00,100.53
2573.00,100.52
2572.00,100.52
2571.00,100.53
2570.00,100.53
2569.00,100.53
2568.00,100.53
2567.00,100.53
2566.00,100.53
2565.00,100.53
2564.00,100.53
2563.00,100.53
2562.00,100.53
2561.00,100.53
2560.00,100.53
2559.00,100.53
2558.00,100.52
2557.00,100.52
2556.00,100.52
2555.00,100.52
2554.00,100.53
2553.00,100.53
2552.00,100.53
2551.00,100.53
2550.00,100.53
2549.00,100.53
2548.00,100.53
2547.00,100.52
2546.00,100.52
2545.00,100.52
2544.00,100.53
2543.00,100.53
2542.00,100.53
2541.00,100.52
2540.00,100.52
2539.00,100.52
2538.00,100.52
2537.00,100.52
2536.00,100.52
2535.00,100.52
2534.00,100.52
2533.00,100.53
2532.00,100.53
2531.00,100.53
2530.00,100.53
2529.00,100.53
2528.00,100.53
2527.00,100.53
2526.00,100.53
2525.00,100.52
2524.00,100.52
2523.00,100.52
2522.00,100.52
2521.00,100.52
2520.00,100.52
2519.00,100.52
2518.00,100.52
2517.00,100.53
2516.00,100.53
2515.00,100.52
2514.00,100.52
2513.00,100.52
2512.00,100.52
2511.00,100.52
2510.00,100.52
2509.00,100.52
2508.00,100.52
2507.00,100.53
2506.00,100.53
2505.00,100.53
2504.00,100.53
2503.00,100.53
2502.00,100.52
2501.00,100.52
2500.00,100.52
2499.00,100.52
2498.00,100.52
2497.00,100.52
2496.00,100.52
2495.00,100.52
2494.00,100.52
2493.00,100.52
2492.00,100.52
2491.00,100.52
2490.00,100.53
2489.00,100.53
2488.00,100.53
2487.00,100.53
2486.00,100.52
2485.00,100.52
2484.00,100.52
2483.00,100.52
2482.00,100.53
2481.00,100.53
2480.00,100.53
2479.00,100.53
2478.00,100.53
2477.00,100.53
2476.00,100.53
2475.00,100.52
2474.00,100.52
2473.00,100.52
2472.00,100.52
2471.00,100.52
2470.00,100.52
2469.00,100.53
2468.00,100.53
2467.00,100.53
2466.00,100.53
2465.00,100.52
2464.00,100.52
2463.00,100.52
2462.00,100.52
2461.00,100.52
2460.00,100.52
2459.00,100.52
2458.00,100.52
2457.00,100.52
2456.00,100.52
2455.00,100.52
2454.00,100.52
2453.00,100.52
2452.00,100.52
2451.00,100.52
2450.00,100.52
2449.00,100.52
2448.00,100.52
2447.00,100.52
2446.00,100.52
2445.00,100.52
2444.00,100.52
2443.00,100.52
2442.00,100.52
2441.00,100.52
2440.00,100.52
2439.00,100.52
2438.00,100.52
2437.00,100.52
2436.00,100.52
2435.00,100.52
2434.00,100.52
2433.00,100.52
2432.00,100.52
2431.00,100.52
2430.00,100.52
2429.00,100.52
2428.00,100.53
2427.00,100.53
2426.00,100.53
2425.00,100.53
2424.00,100.52
2423.00,100.52
2422.00,100.52
2421.00,100.52
2420.00,100.53
2419.00,100.53
2418.00,100.53
2417.00,100.53
2416.00,100.53
2415.00,100.53
2414.00,100.52
2413.00,100.52
2412.00,100.52
2411.00,100.52
2410.00,100.53
2409.00,100.53
2408.00,100.52
2407.00,100.52
2406.00,100.52
2405.00,100.52
2404.00,100.52
2403.00,100.52
2402.00,100.52
2401.00,100.52
2400.00,100.52
2399.00,100.52
2398.00,100.52
2397.00,100.52
2396.00,100.52
2395.00,100.52
2394.00,100.52
2393.00,100.52
2392.00,100.52
2391.00,100.52
2390.00,100.52
2389.00,100.51
2388.00,100.51
2387.00,100.51
2386.00,100.51
2385.00,100.50
2384.00,100.50
2383.00,100.50
2382.00,100.50
2381.00,100.50
2380.00,100.51
2379.00,100.52
2378.00,100.52
2377.00,100.52
2376.00,100.52
2375.00,100.52
2374.00,100.51
2373.00,100.50
2372.00,100.50
2371.00,100.49
2370.00,100.49
2369.00,100.50
2368.00,100.50
2367.00,100.50
2366.00,100.49
2365.00,100.49
2364.00,100.48
2363.00,100.49
2362.00,100.49
2361.00,100.48
2360.00,100.48
2359.00,100.48
2358.00,100.48
2357.00,100.47
2356.00,100.46
2355.00,100.46
2354.00,100.47
2353.00,100.48
2352.00,100.50
2351.00,100.51
2350.00,100.49
2349.00,100.46
2348.00,100.43
2347.00,100.42
2346.00,100.44
2345.00,100.46
2344.00,100.47
2343.00,100.46
2342.00,100.45
2341.00,100.45
2340.00,100.45
2339.00,100.45
2338.00,100.46
2337.00,100.46
2336.00,100.46
2335.00,100.45
2334.00,100.44
2333.00,100.45
2332.00,100.45
2331.00,100.46
2330.00,100.46
2329.00,100.46
2328.00,100.45
2327.00,100.44
2326.00,100.44
2325.00,100.43
2324.00,100.44
2323.00,100.45
2322.00,100.45
2321.00,100.46
2320.00,100.46
2319.00,100.45
2318.00,100.45
2317.00,100.45
2316.00,100.45
2315.00,100.45
2314.00,100.46
2313.00,100.47
2312.00,100.47
2311.00,100.47
2310.00,100.47
2309.00,100.47
2308.00,100.47
2307.00,100.47
2306.00,100.47
2305.00,100.47
2304.00,100.47
2303.00,100.48
2302.00,100.48
2301.00,100.48
2300.00,100.49
2299.00,100.49
2298.00,100.49
2297.00,100.49
2296.00,100.50
2295.00,100.50
2294.00,100.50
2293.00,100.50
2292.00,100.51
2291.00,100.51
2290.00,100.51
2289.00,100.51
2288.00,100.51
2287.00,100.51
2286.00,100.51
2285.00,100.51
2284.00,100.51
2283.00,100.51
2282.00,100.51
2281.00,100.51
2280.00,100.51
2279.00,100.52
2278.00,100.52
2277.00,100.52
2276.00,100.52
2275.00,100.52
2274.00,100.52
2273.00,100.52
2272.00,100.52
2271.00,100.52
2270.00,100.52
2269.00,100.52
2268.00,100.52
2267.00,100.52
2266.00,100.52
2265.00,100.52
2264.00,100.52
2263.00,100.52
2262.00,100.52
2261.00,100.52
2260.00,100.52
2259.00,100.52
2258.00,100.52
2257.00,100.52
2256.00,100.52
2255.00,100.52
2254.00,100.52
2253.00,100.52
2252.00,100.52
2251.00,100.52
2250.00,100.52
2249.00,100.52
2248.00,100.52
2247.00,100.52
2246.00,100.52
2245.00,100.51
2244.00,100.51
2243.00,100.51
2242.00,100.51
2241.00,100.51
2240.00,100.51
2239.00,100.51
2238.00,100.51
2237.00,100.52
2236.00,100.52
2235.00,100.51
2234.00,100.52
2233.00,100.52
2232.00,100.52
2231.00,100.52
2230.00,100.51
2229.00,100.52
2228.00,100.52
2227.00,100.52
2226.00,100.52
2225.00,100.52
2224.00,100.52
2223.00,100.52
2222.00,100.52
2221.00,100.52
2220.00,100.52
2219.00,100.52
2218.00,100.51
2217.00,100.51
2216.00,100.51
2215.00,100.52
2214.00,100.52
2213.00,100.52
2212.00,100.52
2211.00,100.52
2210.00,100.52
2209.00,100.52
2208.00,100.52
2207.00,100.52
2206.00,100.52
2205.00,100.52
2204.00,100.52
2203.00,100.52
2202.00,100.52
2201.00,100.52
2200.00,100.52
2199.00,100.52
2198.00,100.52
2197.00,100.52
2196.00,100.52
2195.00,100.52
2194.00,100.52
2193.00,100.52
2192.00,100.52
2191.00,100.51
2190.00,100.51
2189.00,100.51
2188.00,100.51
2187.00,100.52
2186.00,100.52
2185.00,100.52
2184.00,100.52
2183.00,100.52
2182.00,100.52
2181.00,100.52
2180.00,100.51
2179.00,100.51
2178.00,100.51
2177.00,100.51
2176.00,100.51
2175.00,100.51
2174.00,100.52
2173.00,100.52
2172.00,100.52
2171.00,100.52
2170.00,100.52
2169.00,100.52
2168.00,100.52
2167.00,100.52
2166.00,100.51
2165.00,100.52
2164.00,100.52
2163.00,100.52
2162.00,100.52
2161.00,100.52
2160.00,100.52
2159.00,100.52
2158.00,100.52
2157.00,100.52
2156.00,100.52
2155.00,100.52
2154.00,100.51
2153.00,100.52
2152.00,100.52
2151.00,100.52
2150.00,100.52
2149.00,100.52
2148.00,100.52
2147.00,100.52
2146.00,100.52
2145.00,100.52
2144.00,100.52
2143.00,100.52
2142.00,100.52
2141.00,100.52
2140.00,100.52
2139.00,100.51
2138.00,100.51
2137.00,100.51
2136.00,100.52
2135.00,100.52
2134.00,100.52
2133.00,100.52
2132.00,100.52
2131.00,100.52
2130.00,100.52
2129.00,100.52
2128.00,100.52
2127.00,100.52
2126.00,100.52
2125.00,100.52
2124.00,100.52
2123.00,100.52
2122.00,100.52
2121.00,100.52
2120.00,100.52
2119.00,100.52
2118.00,100.52
2117.00,100.52
2116.00,100.52
2115.00,100.52
2114.00,100.52
2113.00,100.52
2112.00,100.51
2111.00,100.51
2110.00,100.52
2109.00,100.52
2108.00,100.52
2107.00,100.52
2106.00,100.52
2105.00,100.52
2104.00,100.52
2103.00,100.52
2102.00,100.52
2101.00,100.52
2100.00,100.52
2099.00,100.51
2098.00,100.51
2097.00,100.51
2096.00,100.52
2095.00,100.51
2094.00,100.51
2093.00,100.51
2092.00,100.51
2091.00,100.51
2090.00,100.51
2089.00,100.51
2088.00,100.51
2087.00,100.51
2086.00,100.51
2085.00,100.51
2084.00,100.51
2083.00,100.51
2082.00,100.51
2081.00,100.51
2080.00,100.51
2079.00,100.51
2078.00,100.51
2077.00,100.51
2076.00,100.51
2075.00,100.51
2074.00,100.51
2073.00,100.51
2072.00,100.51
2071.00,100.51
2070.00,100.51
2069.00,100.51
2068.00,100.51
2067.00,100.51
2066.00,100.52
2065.00,100.52
2064.00,100.52
2063.00,100.51
2062.00,100.51
2061.00,100.51
2060.00,100.52
2059.00,100.52
2058.00,100.51
2057.00,100.51
2056.00,100.51
2055.00,100.51
2054.00,100.51
2053.00,100.52
2052.00,100.52
2051.00,100.51
2050.00,100.51
2049.00,100.51
2048.00,100.51
2047.00,100.51
2046.00,100.51
2045.00,100.51
2044.00,100.51
2043.00,100.52
2042.00,100.52
2041.00,100.52
2040.00,100.52
2039.00,100.52
2038.00,100.51
2037.00,100.51
2036.00,100.51
2035.00,100.51
2034.00,100.51
2033.00,100.51
2032.00,100.51
2031.00,100.51
2030.00,100.51
2029.00,100.51
2028.00,100.51
2027.00,100.51
2026.00,100.51
2025.00,100.51
2024.00,100.51
2023.00,100.51
2022.00,100.51
2021.00,100.51
2020.00,100.51
2019.00,100.51
2018.00,100.52
2017.00,100.52
2016.00,100.51
2015.00,100.51
2014.00,100.51
2013.00,100.51
2012.00,100.51
2011.00,100.51
2010.00,100.51
2009.00,100.51
2008.00,100.51
2007.00,100.51
2006.00,100.51
2005.00,100.51
2004.00,100.51
2003.00,100.51
2002.00,100.51
2001.00,100.51
2000.00,100.51
1999.00,100.51
1998.00,100.51
1997.00,100.51
1996.00,100.51
1995.00,100.51
1994.00,100.51
1993.00,100.52
1992.00,100.52
1991.00,100.51
1990.00,100.51
1989.00,100.51
1988.00,100.51
1987.00,100.52
1986.00,100.52
1985.00,100.52
1984.00,100.52
1983.00,100.52
1982.00,100.51
1981.00,100.51
1980.00,100.51
1979.00,100.51
1978.00,100.51
1977.00,100.51
1976.00,100.51
1975.00,100.51
1974.00,100.51
1973.00,100.51
1972.00,100.51
1971.00,100.51
1970.00,100.51
1969.00,100.51
1968.00,100.52
1967.00,100.52
1966.00,100.52
1965.00,100.51
1964.00,100.51
1963.00,100.51
1962.00,100.52
1961.00,100.52
1960.00,100.52
1959.00,100.52
1958.00,100.52
1957.00,100.52
1956.00,100.51
1955.00,100.51
1954.00,100.51
1953.00,100.51
1952.00,100.51
1951.00,100.51
1950.00,100.51
1949.00,100.51
1948.00,100.51
1947.00,100.51
1946.00,100.51
1945.00,100.51
1944.00,100.51
1943.00,100.52
1942.00,100.52
1941.00,100.51
1940.00,100.51
1939.00,100.51
1938.00,100.51
1937.00,100.51
1936.00,100.51
1935.00,100.51
1934.00,100.51
1933.00,100.51
1932.00,100.51
1931.00,100.51
1930.00,100.51
1929.00,100.51
1928.00,100.51
1927.00,100.51
1926.00,100.51
1925.00,100.52
1924.00,100.52
1923.00,100.52
1922.00,100.51
1921.00,100.50
1920.00,100.50
1919.00,100.50
1918.00,100.50
1917.00,100.50
1916.00,100.50
1915.00,100.50
1914.00,100.50
1913.00,100.51
1912.00,100.51
1911.00,100.51
1910.00,100.51
1909.00,100.52
1908.00,100.52
1907.00,100.51
1906.00,100.51
1905.00,100.51
1904.00,100.51
1903.00,100.51
1902.00,100.51
1901.00,100.51
1900.00,100.51
1899.00,100.51
1898.00,100.51
1897.00,100.51
1896.00,100.51
1895.00,100.51
1894.00,100.51
1893.00,100.51
1892.00,100.51
1891.00,100.51
1890.00,100.51
1889.00,100.52
1888.00,100.52
1887.00,100.51
1886.00,100.51
1885.00,100.51
1884.00,100.51
1883.00,100.51
1882.00,100.51
1881.00,100.51
1880.00,100.51
1879.00,100.51
1878.00,100.51
1877.00,100.51
1876.00,100.51
1875.00,100.51
1874.00,100.50
1873.00,100.50
1872.00,100.50
1871.00,100.50
1870.00,100.50
1869.00,100.51
1868.00,100.51
1867.00,100.50
1866.00,100.50
1865.00,100.50
1864.00,100.50
1863.00,100.50
1862.00,100.51
1861.00,100.51
1860.00,100.51
1859.00,100.51
1858.00,100.51
1857.00,100.51
1856.00,100.51
1855.00,100.51
1854.00,100.51
1853.00,100.51
1852.00,100.51
1851.00,100.51
1850.00,100.51
1849.00,100.51
1848.00,100.51
1847.00,100.51
1846.00,100.51
1845.00,100.51
1844.00,100.51
1843.00,100.50
1842.00,100.50
1841.00,100.50
1840.00,100.50
1839.00,100.50
1838.00,100.51
1837.00,100.51
1836.00,100.51
1835.00,100.50
1834.00,100.50
1833.00,100.50
1832.00,100.50
1831.00,100.51
1830.00,100.51
1829.00,100.51
1828.00,100.50
1827.00,100.50
1826.00,100.50
1825.00,100.50
1824.00,100.50
1823.00,100.50
1822.00,100.50
1821.00,100.50
1820.00,100.50
1819.00,100.51
1818.00,100.51
1817.00,100.51
1816.00,100.51
1815.00,100.51
1814.00,100.50
1813.00,100.51
1812.00,100.51
1811.00,100.51
1810.00,100.50
1809.00,100.50
1808.00,100.50
1807.00,100.50
1806.00,100.50
1805.00,100.50
1804.00,100.51
1803.00,100.51
1802.00,100.50
1801.00,100.50
1800.00,100.50
1799.00,100.49
1798.00,100.49
1797.00,100.50
1796.00,100.50
1795.00,100.50
1794.00,100.49
1793.00,100.49
1792.00,100.49
1791.00,100.50
1790.00,100.49
1789.00,100.49
1788.00,100.48
1787.00,100.48
1786.00,100.48
1785.00,100.49
1784.00,100.49
1783.00,100.49
1782.00,100.50
1781.00,100.50
1780.00,100.50
1779.00,100.50
1778.00,100.49
1777.00,100.49
1776.00,100.50
1775.00,100.50
1774.00,100.49
1773.00,100.49
1772.00,100.48
1771.00,100.48
1770.00,100.47
1769.00,100.47
1768.00,100.47
1767.00,100.48
1766.00,100.49
1765.00,100.49
1764.00,100.49
1763.00,100.50
1762.00,100.50
1761.00,100.50
1760.00,100.50
1759.00,100.50
1758.00,100.49
1757.00,100.49
1756.00,100.48
1755.00,100.47
1754.00,100.46
1753.00,100.43
1752.00,100.42
1751.00,100.42
1750.00,100.44
1749.00,100.46
1748.00,100.47
1747.00,100.47
1746.00,100.48
1745.00,100.48
1744.00,100.49
1743.00,100.50
1742.00,100.50
1741.00,100.50
1740.00,100.50
1739.00,100.50
1738.00,100.50
1737.00,100.49
1736.00,100.47
1735.00,100.45
1734.00,100.44
1733.00,100.45
1732.00,100.46
1731.00,100.47
1730.00,100.48
1729.00,100.49
1728.00,100.50
1727.00,100.50
1726.00,100.50
1725.00,100.50
1724.00,100.50
1723.00,100.50
1722.00,100.50
1721.00,100.49
1720.00,100.49
1719.00,100.48
1718.00,100.47
1717.00,100.47
1716.00,100.47
1715.00,100.48
1714.00,100.48
1713.00,100.48
1712.00,100.49
1711.00,100.49
1710.00,100.49
1709.00,100.50
1708.00,100.50
1707.00,100.50
1706.00,100.50
1705.00,100.51
1704.00,100.51
1703.00,100.51
1702.00,100.49
1701.00,100.48
1700.00,100.49
1699.00,100.48
1698.00,100.46
1697.00,100.45
1696.00,100.46
1695.00,100.48
1694.00,100.48
1693.00,100.48
1692.00,100.48
1691.00,100.48
1690.00,100.49
1689.00,100.49
1688.00,100.49
1687.00,100.48
1686.00,100.47
1685.00,100.46
1684.00,100.47
1683.00,100.48
1682.00,100.49
1681.00,100.49
1680.00,100.48
1679.00,100.49
1678.00,100.49
1677.00,100.49
1676.00,100.49
1675.00,100.49
1674.00,100.49
1673.00,100.49
1672.00,100.48
1671.00,100.48
1670.00,100.49
1669.00,100.50
1668.00,100.50
1667.00,100.50
1666.00,100.50
1665.00,100.50
1664.00,100.50
1663.00,100.50
1662.00,100.51
1661.00,100.50
1660.00,100.49
1659.00,100.49
1658.00,100.49
1657.00,100.51
1656.00,100.51
1655.00,100.51
1654.00,100.51
1653.00,100.52
1652.00,100.52
1651.00,100.51
1650.00,100.50
1649.00,100.49
1648.00,100.48
1647.00,100.48
1646.00,100.48
1645.00,100.48
1644.00,100.49
1643.00,100.49
1642.00,100.49
1641.00,100.49
1640.00,100.50
1639.00,100.50
1638.00,100.50
1637.00,100.50
1636.00,100.50
1635.00,100.50
1634.00,100.50
1633.00,100.50
1632.00,100.50
1631.00,100.50
1630.00,100.50
1629.00,100.51
1628.00,100.51
1627.00,100.51
1626.00,100.51
1625.00,100.51
1624.00,100.52
1623.00,100.52
1622.00,100.52
1621.00,100.52
1620.00,100.52
1619.00,100.52
1618.00,100.52
1617.00,100.52
1616.00,100.52
1615.00,100.52
1614.00,100.52
1613.00,100.52
1612.00,100.52
1611.00,100.51
1610.00,100.52
1609.00,100.52
1608.00,100.52
1607.00,100.52
1606.00,100.52
1605.00,100.52
1604.00,100.52
1603.00,100.51
1602.00,100.51
1601.00,100.52
1600.00,100.51
1599.00,100.51
1598.00,100.51
1597.00,100.52
1596.00,100.52
1595.00,100.52
1594.00,100.52
1593.00,100.52
1592.00,100.52
1591.00,100.51
1590.00,100.52
1589.00,100.52
1588.00,100.52
1587.00,100.51
1586.00,100.52
1585.00,100.52
1584.00,100.52
1583.00,100.51
1582.00,100.51
1581.00,100.52
1580.00,100.52
1579.00,100.53
1578.00,100.53
1577.00,100.52
1576.00,100.52
1575.00,100.51
1574.00,100.51
1573.00,100.51
1572.00,100.51
1571.00,100.51
1570.00,100.51
1569.00,100.51
1568.00,100.50
1567.00,100.49
1566.00,100.49
1565.00,100.49
1564.00,100.50
1563.00,100.51
1562.00,100.51
1561.00,100.51
1560.00,100.50
1559.00,100.47
1558.00,100.47
1557.00,100.47
1556.00,100.46
1555.00,100.46
1554.00,100.46
1553.00,100.47
1552.00,100.47
1551.00,100.47
1550.00,100.47
1549.00,100.47
1548.00,100.47
1547.00,100.46
1546.00,100.46
1545.00,100.47
1544.00,100.48
1543.00,100.48
1542.00,100.47
1541.00,100.47
1540.00,100.47
1539.00,100.48
1538.00,100.48
1537.00,100.48
1536.00,100.47
1535.00,100.47
1534.00,100.47
1533.00,100.47
1532.00,100.48
1531.00,100.48
1530.00,100.47
1529.00,100.47
1528.00,100.48
1527.00,100.48
1526.00,100.47
1525.00,100.46
1524.00,100.46
1523.00,100.46
1522.00,100.47
1521.00,100.47
1520.00,100.47
1519.00,100.47
1518.00,100.47
1517.00,100.47
1516.00,100.47
1515.00,100.46
1514.00,100.45
1513.00,100.45
1512.00,100.46
1511.00,100.47
1510.00,100.47
1509.00,100.47
1508.00,100.47
1507.00,100.47
1506.00,100.46
1505.00,100.46
1504.00,100.47
1503.00,100.48
1502.00,100.48
1501.00,100.49
1500.00,100.49
1499.00,100.50
1498.00,100.50
1497.00,100.50
1496.00,100.50
1495.00,100.50
1494.00,100.50
1493.00,100.49
1492.00,100.49
1491.00,100.49
1490.00,100.49
1489.00,100.48
1488.00,100.49
1487.00,100.49
1486.00,100.49
1485.00,100.49
1484.00,100.49
1483.00,100.50
1482.00,100.50
1481.00,100.50
1480.00,100.50
1479.00,100.50
1478.00,100.49
1477.00,100.49
1476.00,100.49
1475.00,100.48
1474.00,100.46
1473.00,100.46
1472.00,100.47
1471.00,100.48
1470.00,100.49
1469.00,100.50
1468.00,100.50
1467.00,100.51
1466.00,100.51
1465.00,100.50
1464.00,100.50
1463.00,100.50
1462.00,100.49
1461.00,100.49
1460.00,100.50
1459.00,100.50
1458.00,100.50
1457.00,100.49
1456.00,100.48
1455.00,100.48
1454.00,100.48
1453.00,100.49
1452.00,100.50
1451.00,100.50
1450.00,100.50
1449.00,100.50
1448.00,100.50
1447.00,100.51
1446.00,100.51
1445.00,100.51
1444.00,100.51
1443.00,100.51
1442.00,100.51
1441.00,100.51
1440.00,100.51
1439.00,100.51
1438.00,100.51
1437.00,100.50
1436.00,100.49
1435.00,100.49
1434.00,100.49
1433.00,100.49
1432.00,100.50
1431.00,100.50
1430.00,100.51
1429.00,100.50
1428.00,100.50
1427.00,100.50
1426.00,100.50
1425.00,100.50
1424.00,100.49
1423.00,100.49
1422.00,100.50
1421.00,100.50
1420.00,100.49
1419.00,100.49
1418.00,100.49
1417.00,100.48
1416.00,100.48
1415.00,100.49
1414.00,100.50
1413.00,100.51
1412.00,100.51
1411.00,100.51
1410.00,100.52
1409.00,100.52
1408.00,100.52
1407.00,100.51
1406.00,100.51
1405.00,100.51
1404.00,100.51
1403.00,100.51
1402.00,100.51
1401.00,100.50
1400.00,100.50
1399.00,100.50
1398.00,100.50
1397.00,100.49
1396.00,100.49
1395.00,100.50
1394.00,100.50
1393.00,100.50
1392.00,100.50
1391.00,100.50
1390.00,100.51
1389.00,100.52
1388.00,100.52
1387.00,100.52
1386.00,100.53
1385.00,100.53
1384.00,100.53
1383.00,100.52
1382.00,100.52
1381.00,100.52
1380.00,100.51
1379.00,100.51
1378.00,100.51
1377.00,100.51
1376.00,100.51
1375.00,100.51
1374.00,100.52
1373.00,100.52
1372.00,100.51
1371.00,100.51
1370.00,100.51
1369.00,100.51
1368.00,100.51
1367.00,100.51
1366.00,100.51
1365.00,100.51
1364.00,100.52
1363.00,100.52
1362.00,100.53
1361.00,100.52
1360.00,100.51
1359.00,100.51
1358.00,100.51
1357.00,100.51
1356.00,100.52
1355.00,100.52
1354.00,100.52
1353.00,100.52
1352.00,100.52
1351.00,100.52
1350.00,100.52
1349.00,100.52
1348.00,100.52
1347.00,100.52
1346.00,100.52
1345.00,100.52
1344.00,100.52
1343.00,100.52
1342.00,100.52
1341.00,100.52
1340.00,100.52
1339.00,100.52
1338.00,100.52
1337.00,100.52
1336.00,100.52
1335.00,100.52
1334.00,100.52
1333.00,100.52
1332.00,100.52
1331.00,100.52
1330.00,100.52
1329.00,100.52
1328.00,100.52
1327.00,100.52
1326.00,100.52
1325.00,100.52
1324.00,100.52
1323.00,100.52
1322.00,100.52
1321.00,100.52
1320.00,100.52
1319.00,100.52
1318.00,100.52
1317.00,100.52
1316.00,100.52
1315.00,100.52
1314.00,100.52
1313.00,100.52
1312.00,100.52
1311.00,100.52
1310.00,100.52
1309.00,100.52
1308.00,100.52
1307.00,100.53
1306.00,100.52
1305.00,100.52
1304.00,100.52
1303.00,100.52
1302.00,100.52
1301.00,100.52
1300.00,100.52
1299.00,100.52
1298.00,100.52
1297.00,100.52
1296.00,100.52
1295.00,100.52
1294.00,100.52
1293.00,100.52
1292.00,100.52
1291.00,100.52
1290.00,100.53
1289.00,100.53
1288.00,100.53
1287.00,100.53
1286.00,100.52
1285.00,100.52
1284.00,100.52
1283.00,100.52
1282.00,100.52
1281.00,100.52
1280.00,100.52
1279.00,100.52
1278.00,100.52
1277.00,100.52
1276.00,100.52
1275.00,100.52
1274.00,100.52
1273.00,100.52
1272.00,100.52
1271.00,100.52
1270.00,100.52
1269.00,100.53
1268.00,100.53
1267.00,100.53
1266.00,100.53
1265.00,100.53
1264.00,100.54
1263.00,100.54
1262.00,100.54
1261.00,100.55
1260.00,100.55
1259.00,100.55
1258.00,100.55
1257.00,100.55
1256.00,100.55
1255.00,100.56
1254.00,100.56
1253.00,100.56
1252.00,100.56
1251.00,100.56
1250.00,100.56
1249.00,100.56
1248.00,100.57
1247.00,100.57
1246.00,100.56
1245.00,100.56
1244.00,100.56
1243.00,100.55
1242.00,100.55
1241.00,100.55
1240.00,100.54
1239.00,100.54
1238.00,100.54
1237.00,100.54
1236.00,100.53
1235.00,100.53
1234.00,100.53
1233.00,100.53
1232.00,100.53
1231.00,100.53
1230.00,100.53
1229.00,100.52
1228.00,100.52
1227.00,100.53
1226.00,100.53
1225.00,100.53
1224.00,100.53
1223.00,100.52
1222.00,100.53
1221.00,100.53
1220.00,100.53
1219.00,100.53
1218.00,100.53
1217.00,100.53
1216.00,100.53
1215.00,100.53
1214.00,100.53
1213.00,100.53
1212.00,100.53
1211.00,100.54
1210.00,100.54
1209.00,100.54
1208.00,100.54
1207.00,100.54
1206.00,100.54
1205.00,100.54
1204.00,100.54
1203.00,100.54
1202.00,100.54
1201.00,100.54
1200.00,100.54
1199.00,100.54
1198.00,100.54
1197.00,100.54
1196.00,100.54
1195.00,100.54
1194.00,100.54
1193.00,100.54
1192.00,100.54
1191.00,100.54
1190.00,100.54
1189.00,100.54
1188.00,100.54
1187.00,100.54
1186.00,100.54
1185.00,100.54
1184.00,100.55
1183.00,100.55
1182.00,100.55
1181.00,100.54
1180.00,100.54
1179.00,100.54
1178.00,100.55
1177.00,100.55
1176.00,100.54
1175.00,100.54
1174.00,100.54
1173.00,100.55
1172.00,100.55
1171.00,100.54
1170.00,100.55
1169.00,100.55
1168.00,100.55
1167.00,100.55
1166.00,100.55
1165.00,100.54
1164.00,100.54
1163.00,100.54
1162.00,100.55
1161.00,100.55
1160.00,100.55
1159.00,100.54
1158.00,100.54
1157.00,100.55
1156.00,100.55
1155.00,100.55
1154.00,100.55
1153.00,100.55
1152.00,100.55
1151.00,100.55
1150.00,100.55
1149.00,100.55
1148.00,100.55
1147.00,100.55
1146.00,100.55
1145.00,100.55
1144.00,100.54
1143.00,100.54
1142.00,100.55
1141.00,100.55
1140.00,100.55
1139.00,100.55
1138.00,100.55
1137.00,100.55
1136.00,100.55
1135.00,100.55
1134.00,100.55
1133.00,100.55
1132.00,100.56
1131.00,100.56
1130.00,100.56
1129.00,100.56
1128.00,100.56
1127.00,100.55
1126.00,100.55
1125.00,100.55
1124.00,100.56
1123.00,100.56
1122.00,100.56
1121.00,100.57
1120.00,100.57
1119.00,100.58
1118.00,100.58
1117.00,100.57
1116.00,100.57
1115.00,100.57
1114.00,100.57
1113.00,100.57
1112.00,100.57
1111.00,100.56
1110.00,100.56
1109.00,100.56
1108.00,100.56
1107.00,100.56
1106.00,100.56
1105.00,100.56
1104.00,100.56
1103.00,100.56
1102.00,100.56
1101.00,100.56
1100.00,100.55
1099.00,100.55
1098.00,100.55
1097.00,100.55
1096.00,100.55
1095.00,100.55
1094.00,100.55
1093.00,100.55
1092.00,100.55
1091.00,100.55
1090.00,100.55
1089.00,100.55
1088.00,100.56
1087.00,100.56
1086.00,100.56
1085.00,100.56
1084.00,100.56
1083.00,100.56
1082.00,100.56
1081.00,100.57
1080.00,100.57
1079.00,100.57
1078.00,100.57
1077.00,100.56
1076.00,100.56
1075.00,100.56
1074.00,100.56
1073.00,100.55
1072.00,100.55
1071.00,100.55
1070.00,100.55
1069.00,100.55
1068.00,100.55
1067.00,100.55
1066.00,100.54
1065.00,100.54
1064.00,100.54
1063.00,100.54
1062.00,100.54
1061.00,100.54
1060.00,100.54
1059.00,100.54
1058.00,100.54
1057.00,100.54
1056.00,100.55
1055.00,100.55
1054.00,100.55
1053.00,100.55
1052.00,100.55
1051.00,100.55
1050.00,100.54
1049.00,100.54
1048.00,100.54
1047.00,100.53
1046.00,100.53
1045.00,100.53
1044.00,100.53
1043.00,100.53
1042.00,100.53
1041.00,100.53
1040.00,100.53
1039.00,100.52
1038.00,100.52
1037.00,100.53
1036.00,100.53
1035.00,100.53
1034.00,100.53
1033.00,100.53
1032.00,100.53
1031.00,100.53
1030.00,100.53
1029.00,100.53
1028.00,100.52
1027.00,100.52
1026.00,100.52
1025.00,100.52
1024.00,100.52
1023.00,100.52
1022.00,100.52
1021.00,100.52
1020.00,100.52
1019.00,100.52
1018.00,100.52
1017.00,100.51
1016.00,100.51
1015.00,100.50
1014.00,100.50
1013.00,100.50
1012.00,100.50
1011.00,100.50
1010.00,100.50
1009.00,100.50
1008.00,100.50
1007.00,100.50
1006.00,100.50
1005.00,100.50
1004.00,100.49
1003.00,100.49
1002.00,100.50
1001.00,100.50
1000.00,100.50
999.00,100.50
998.00,100.50
997.00,100.50
996.00,100.50
995.00,100.50
994.00,100.50
993.00,100.50
992.00,100.50
991.00,100.51
990.00,100.51
989.00,100.51
988.00,100.50
987.00,100.50
986.00,100.50
985.00,100.50
984.00,100.50
983.00,100.50
982.00,100.50
981.00,100.50
980.00,100.50
979.00,100.50
978.00,100.50
977.00,100.50
976.00,100.50
975.00,100.50
974.00,100.50
973.00,100.51
972.00,100.51
971.00,100.51
970.00,100.51
969.00,100.51
968.00,100.51
967.00,100.51
966.00,100.51
965.00,100.51
964.00,100.51
963.00,100.51
962.00,100.52
961.00,100.52
960.00,100.52
959.00,100.52
958.00,100.52
957.00,100.52
956.00,100.52
955.00,100.52
954.00,100.52
953.00,100.52
952.00,100.52
951.00,100.52
950.00,100.52
949.00,100.52
948.00,100.52
947.00,100.52
946.00,100.53
945.00,100.53
944.00,100.53
943.00,100.53
942.00,100.53
941.00,100.53
940.00,100.53
939.00,100.52
938.00,100.52
937.00,100.53
936.00,100.53
935.00,100.53
934.00,100.53
933.00,100.53
932.00,100.53
931.00,100.53
930.00,100.53
929.00,100.53
928.00,100.53
927.00,100.53
926.00,100.53
925.00,100.53
924.00,100.53
923.00,100.54
922.00,100.54
921.00,100.54
920.00,100.54
919.00,100.54
918.00,100.54
917.00,100.53
916.00,100.54
915.00,100.54
914.00,100.54
913.00,100.55
912.00,100.55
911.00,100.55
910.00,100.55
909.00,100.55
908.00,100.54
907.00,100.54
906.00,100.54
905.00,100.54
904.00,100.53
903.00,100.53
902.00,100.53
901.00,100.52
900.00,100.53
899.00,100.53
898.00,100.53
897.00,100.53
896.00,100.53
895.00,100.53
894.00,100.54
893.00,100.54
892.00,100.53
891.00,100.53
890.00,100.53
889.00,100.53
888.00,100.53
887.00,100.53
886.00,100.53
885.00,100.53
884.00,100.52
883.00,100.52
882.00,100.52
881.00,100.52
880.00,100.52
879.00,100.52
878.00,100.52
877.00,100.52
876.00,100.52
875.00,100.52
874.00,100.52
873.00,100.52
872.00,100.52
871.00,100.52
870.00,100.52
869.00,100.52
868.00,100.51
867.00,100.51
866.00,100.52
865.00,100.51
864.00,100.51
863.00,100.51
862.00,100.51
861.00,100.51
860.00,100.51
859.00,100.51
858.00,100.51
857.00,100.51
856.00,100.51
855.00,100.51
854.00,100.51
853.00,100.51
852.00,100.51
851.00,100.51
850.00,100.51
849.00,100.51
848.00,100.51
847.00,100.51
846.00,100.51
845.00,100.51
844.00,100.51
843.00,100.51
842.00,100.51
841.00,100.51
840.00,100.50
839.00,100.50
838.00,100.50
837.00,100.51
836.00,100.51
835.00,100.51
834.00,100.51
833.00,100.52
832.00,100.52
831.00,100.52
830.00,100.52
829.00,100.52
828.00,100.52
827.00,100.52
826.00,100.52
825.00,100.52
824.00,100.52
823.00,100.52
822.00,100.52
821.00,100.51
820.00,100.51
819.00,100.51
818.00,100.51
817.00,100.51
816.00,100.51
815.00,100.52
814.00,100.52
813.00,100.53
812.00,100.52
811.00,100.52
810.00,100.52
809.00,100.51
808.00,100.51
807.00,100.51
806.00,100.52
805.00,100.52
804.00,100.52
803.00,100.52
802.00,100.52
801.00,100.52
800.00,100.52
799.00,100.52
798.00,100.52
797.00,100.52
796.00,100.52
795.00,100.52
794.00,100.52
793.00,100.52
792.00,100.52
791.00,100.52
790.00,100.52
789.00,100.52
788.00,100.51
787.00,100.51
786.00,100.50
785.00,100.50
784.00,100.50
783.00,100.50
782.00,100.50
781.00,100.49
780.00,100.50
779.00,100.50
778.00,100.50
777.00,100.50
776.00,100.50
775.00,100.51
774.00,100.51
773.00,100.51
772.00,100.51
771.00,100.51
770.00,100.51
769.00,100.51
768.00,100.51
767.00,100.51
766.00,100.52
765.00,100.52
764.00,100.52
763.00,100.52
762.00,100.52
761.00,100.52
760.00,100.52
759.00,100.52
758.00,100.52
757.00,100.52
756.00,100.51
755.00,100.51
754.00,100.51
753.00,100.51
752.00,100.51
751.00,100.52
750.00,100.52
749.00,100.51
748.00,100.51
747.00,100.51
746.00,100.51
745.00,100.51
744.00,100.51
743.00,100.51
742.00,100.51
741.00,100.51
740.00,100.50
739.00,100.49
738.00,100.49
737.00,100.49
736.00,100.49
735.00,100.50
734.00,100.50
733.00,100.50
732.00,100.50
731.00,100.50
730.00,100.50
729.00,100.50
728.00,100.50
727.00,100.50
726.00,100.51
725.00,100.51
724.00,100.51
723.00,100.51
722.00,100.50
721.00,100.50
720.00,100.50
719.00,100.50
718.00,100.50
717.00,100.50
716.00,100.51
715.00,100.51
714.00,100.51
713.00,100.52
712.00,100.52
711.00,100.52
710.00,100.52
709.00,100.52
708.00,100.52
707.00,100.52
706.00,100.52
705.00,100.52
704.00,100.52
703.00,100.52
702.00,100.52
701.00,100.52
700.00,100.52
699.00,100.52
698.00,100.53
697.00,100.53
696.00,100.53
695.00,100.53
694.00,100.53
693.00,100.53
692.00,100.54
691.00,100.54
690.00,100.54
689.00,100.55
688.00,100.55
687.00,100.56
686.00,100.56
685.00,100.57
684.00,100.59
683.00,100.59
682.00,100.59
681.00,100.59
680.00,100.59
679.00,100.59
678.00,100.58
677.00,100.57
676.00,100.56
675.00,100.55
674.00,100.55
673.00,100.57
672.00,100.59
671.00,100.63
670.00,100.69
669.00,100.78
668.00,100.85
667.00,100.82
666.00,100.74
665.00,100.67
664.00,100.61
663.00,100.57
662.00,100.56
661.00,100.56
660.00,100.56
659.00,100.56
658.00,100.57
657.00,100.58
656.00,100.57
655.00,100.58
654.00,100.59
653.00,100.59
652.00,100.59
651.00,100.58
650.00,100.58
649.00,100.58
648.00,100.57
647.00,100.56
646.00,100.57
645.00,100.58
644.00,100.57
643.00,100.56
642.00,100.56
641.00,100.56
640.00,100.55
639.00,100.55
638.00,100.56
637.00,100.56
636.00,100.56
635.00,100.56
634.00,100.57
633.00,100.57
632.00,100.56
631.00,100.55
630.00,100.55
629.00,100.56
628.00,100.55
627.00,100.54
626.00,100.53
625.00,100.53
624.00,100.54
623.00,100.55
622.00,100.57
621.00,100.57
620.00,100.57
619.00,100.56
618.00,100.56
617.00,100.55
616.00,100.55
615.00,100.56
614.00,100.57
613.00,100.57
612.00,100.56
611.00,100.55
610.00,100.56
609.00,100.57
608.00,100.57
607.00,100.58
606.00,100.59
605.00,100.59
604.00,100.59
603.00,100.59
602.00,100.59
601.00,100.58
600.00,100.58
599.00,100.60
598.00,100.61
597.00,100.62
596.00,100.61
595.00,100.61
594.00,100.62
593.00,100.62
592.00,100.61
591.00,100.60
590.00,100.61
589.00,100.61
588.00,100.60
587.00,100.58
586.00,100.56
585.00,100.56
584.00,100.57
583.00,100.59
582.00,100.61
581.00,100.61
580.00,100.60
579.00,100.59
578.00,100.59
577.00,100.60
576.00,100.59
575.00,100.59
574.00,100.60
573.00,100.61
572.00,100.61
571.00,100.60
570.00,100.59
569.00,100.59
568.00,100.59
567.00,100.58
566.00,100.59
565.00,100.60
564.00,100.60
563.00,100.61
562.00,100.62
561.00,100.63
560.00,100.61
559.00,100.60
558.00,100.60
557.00,100.61
556.00,100.61
555.00,100.61
554.00,100.61
553.00,100.61
552.00,100.59
551.00,100.57
550.00,100.56
549.00,100.57
548.00,100.59
547.00,100.61
546.00,100.63
545.00,100.62
544.00,100.59
543.00,100.57
542.00,100.57
541.00,100.58
540.00,100.58
539.00,100.59
538.00,100.59
537.00,100.59
536.00,100.58
535.00,100.58
534.00,100.59
533.00,100.59
532.00,100.60
531.00,100.60
530.00,100.60
529.00,100.59
528.00,100.58
527.00,100.57
526.00,100.58
525.00,100.59
524.00,100.60
523.00,100.60
522.00,100.60
521.00,100.61
520.00,100.60
519.00,100.61
518.00,100.61
517.00,100.61
516.00,100.60
515.00,100.59
514.00,100.59
513.00,100.59
512.00,100.60
511.00,100.60
510.00,100.62
509.00,100.63
508.00,100.63
507.00,100.62
506.00,100.61
505.00,100.59
504.00,100.58
503.00,100.58
502.00,100.59
501.00,100.61
500.00,100.62
