Created as New Dataset,Sample 348 By Analyst Date Tuesday, February 04 2025
cm-1,%T
4000.00,100.14
3999.00,100.14
3998.00,100.14
3997.00,100.14
3996.00,100.14
3995.00,100.14
3994.00,100.14
3993.00,100.14
3992.00,100.13
3991.00,100.13
3990.00,100.14
3989.00,100.14
3988.00,100.14
3987.00,100.13
3986.00,100.13
3985.00,100.13
3984.00,100.13
3983.00,100.13
3982.00,100.13
3981.00,100.14
3980.00,100.14
3979.00,100.14
3978.00,100.14
3977.00,100.13
3976.00,100.14
3975.00,100.14
3974.00,100.14
3973.00,100.14
3972.00,100.13
3971.00,100.13
3970.00,100.13
3969.00,100.13
3968.00,100.13
3967.00,100.13
3966.00,100.13
3965.00,100.13
3964.00,100.13
3963.00,100.13
3962.00,100.13
3961.00,100.13
3960.00,100.13
3959.00,100.13
3958.00,100.13
3957.00,100.13
3956.00,100.13
3955.00,100.13
3954.00,100.13
3953.00,100.13
3952.00,100.12
3951.00,100.12
3950.00,100.12
3949.00,100.11
3948.00,100.11
3947.00,100.11
3946.00,100.11
3945.00,100.11
3944.00,100.11
3943.00,100.11
3942.00,100.11
3941.00,100.11
3940.00,100.11
3939.00,100.12
3938.00,100.12
3937.00,100.12
3936.00,100.12
3935.00,100.12
3934.00,100.11
3933.00,100.10
3932.00,100.10
3931.00,100.11
3930.00,100.11
3929.00,100.11
3928.00,100.11
3927.00,100.11
3926.00,100.11
3925.00,100.12
3924.00,100.12
3923.00,100.11
3922.00,100.10
3921.00,100.10
3920.00,100.09
3919.00,100.09
3918.00,100.10
3917.00,100.10
3916.00,100.11
3915.00,100.11
3914.00,100.11
3913.00,100.12
3912.00,100.12
3911.00,100.13
3910.00,100.13
3909.00,100.12
3908.00,100.12
3907.00,100.11
3906.00,100.10
3905.00,100.09
3904.00,100.07
3903.00,100.06
3902.00,100.04
3901.00,100.04
3900.00,100.04
3899.00,100.06
3898.00,100.07
3897.00,100.08
3896.00,100.09
3895.00,100.09
3894.00,100.10
3893.00,100.10
3892.00,100.10
3891.00,100.11
3890.00,100.10
3889.00,100.09
3888.00,100.08
3887.00,100.07
3886.00,100.07
3885.00,100.08
3884.00,100.08
3883.00,100.07
3882.00,100.06
3881.00,100.06
3880.00,100.08
3879.00,100.08
3878.00,100.08
3877.00,100.08
3876.00,100.08
3875.00,100.08
3874.00,100.09
3873.00,100.09
3872.00,100.08
3871.00,100.06
3870.00,100.06
3869.00,100.06
3868.00,100.07
3867.00,100.06
3866.00,100.05
3865.00,100.06
3864.00,100.07
3863.00,100.07
3862.00,100.07
3861.00,100.07
3860.00,100.07
3859.00,100.08
3858.00,100.10
3857.00,100.12
3856.00,100.13
3855.00,100.12
3854.00,100.10
3853.00,100.08
3852.00,100.07
3851.00,100.06
3850.00,100.06
3849.00,100.06
3848.00,100.07
3847.00,100.08
3846.00,100.08
3845.00,100.08
3844.00,100.08
3843.00,100.08
3842.00,100.08
3841.00,100.07
3840.00,100.07
3839.00,100.06
3838.00,100.06
3837.00,100.06
3836.00,100.05
3835.00,100.06
3834.00,100.06
3833.00,100.06
3832.00,100.07
3831.00,100.08
3830.00,100.08
3829.00,100.08
3828.00,100.08
3827.00,100.08
3826.00,100.09
3825.00,100.09
3824.00,100.08
3823.00,100.06
3822.00,100.06
3821.00,100.06
3820.00,100.07
3819.00,100.06
3818.00,100.05
3817.00,100.05
3816.00,100.06
3815.00,100.08
3814.00,100.09
3813.00,100.09
3812.00,100.10
3811.00,100.10
3810.00,100.11
3809.00,100.10
3808.00,100.10
3807.00,100.09
3806.00,100.09
3805.00,100.09
3804.00,100.08
3803.00,100.07
3802.00,100.07
3801.00,100.08
3800.00,100.09
3799.00,100.08
3798.00,100.07
3797.00,100.07
3796.00,100.08
3795.00,100.09
3794.00,100.10
3793.00,100.10
3792.00,100.10
3791.00,100.11
3790.00,100.12
3789.00,100.12
3788.00,100.12
3787.00,100.12
3786.00,100.11
3785.00,100.11
3784.00,100.11
3783.00,100.11
3782.00,100.10
3781.00,100.10
3780.00,100.10
3779.00,100.10
3778.00,100.11
3777.00,100.11
3776.00,100.10
3775.00,100.11
3774.00,100.11
3773.00,100.11
3772.00,100.10
3771.00,100.10
3770.00,100.10
3769.00,100.09
3768.00,100.09
3767.00,100.08
3766.00,100.08
3765.00,100.08
3764.00,100.09
3763.00,100.08
3762.00,100.08
3761.00,100.07
3760.00,100.08
3759.00,100.08
3758.00,100.08
3757.00,100.07
3756.00,100.07
3755.00,100.06
3754.00,100.06
3753.00,100.05
3752.00,100.04
3751.00,100.03
3750.00,100.02
3749.00,100.02
3748.00,100.02
3747.00,100.01
3746.00,100.01
3745.00,100.01
3744.00,100.02
3743.00,100.03
3742.00,100.03
3741.00,100.01
3740.00,100.01
3739.00,100.00
3738.00,100.00
3737.00,100.00
3736.00,100.00
3735.00,100.01
3734.00,100.01
3733.00,100.01
3732.00,100.02
3731.00,100.03
3730.00,100.04
3729.00,100.04
3728.00,100.04
3727.00,100.05
3726.00,100.06
3725.00,100.06
3724.00,100.06
3723.00,100.06
3722.00,100.06
3721.00,100.07
3720.00,100.07
3719.00,100.08
3718.00,100.08
3717.00,100.08
3716.00,100.08
3715.00,100.07
3714.00,100.06
3713.00,100.06
3712.00,100.05
3711.00,100.05
3710.00,100.05
3709.00,100.05
3708.00,100.06
3707.00,100.07
3706.00,100.08
3705.00,100.08
3704.00,100.08
3703.00,100.09
3702.00,100.09
3701.00,100.10
3700.00,100.10
3699.00,100.10
3698.00,100.09
3697.00,100.10
3696.00,100.10
3695.00,100.10
3694.00,100.09
3693.00,100.09
3692.00,100.08
3691.00,100.08
3690.00,100.08
3689.00,100.07
3688.00,100.07
3687.00,100.07
3686.00,100.07
3685.00,100.07
3684.00,100.08
3683.00,100.08
3682.00,100.08
3681.00,100.08
3680.00,100.08
3679.00,100.08
3678.00,100.06
3677.00,100.04
3676.00,100.03
3675.00,100.04
3674.00,100.04
3673.00,100.03
3672.00,100.02
3671.00,100.02
3670.00,100.03
3669.00,100.05
3668.00,100.06
3667.00,100.06
3666.00,100.07
3665.00,100.08
3664.00,100.09
3663.00,100.10
3662.00,100.10
3661.00,100.10
3660.00,100.10
3659.00,100.10
3658.00,100.09
3657.00,100.08
3656.00,100.08
3655.00,100.08
3654.00,100.07
3653.00,100.05
3652.00,100.03
3651.00,100.02
3650.00,100.01
3649.00,100.00
3648.00,100.00
3647.00,100.00
3646.00,100.02
3645.00,100.03
3644.00,100.04
3643.00,100.06
3642.00,100.08
3641.00,100.09
3640.00,100.10
3639.00,100.10
3638.00,100.09
3637.00,100.09
3636.00,100.09
3635.00,100.08
3634.00,100.08
3633.00,100.08
3632.00,100.07
3631.00,100.05
3630.00,100.03
3629.00,100.03
3628.00,100.03
3627.00,100.04
3626.00,100.04
3625.00,100.04
3624.00,100.05
3623.00,100.07
3622.00,100.08
3621.00,100.08
3620.00,100.08
3619.00,100.07
3618.00,100.06
3617.00,100.05
3616.00,100.04
3615.00,100.03
3614.00,100.03
3613.00,100.03
3612.00,100.03
3611.00,100.03
3610.00,100.02
3609.00,100.03
3608.00,100.04
3607.00,100.05
3606.00,100.06
3605.00,100.07
3604.00,100.07
3603.00,100.07
3602.00,100.08
3601.00,100.08
3600.00,100.08
3599.00,100.08
3598.00,100.07
3597.00,100.07
3596.00,100.07
3595.00,100.07
3594.00,100.07
3593.00,100.07
3592.00,100.07
3591.00,100.06
3590.00,100.05
3589.00,100.05
3588.00,100.05
3587.00,100.05
3586.00,100.05
3585.00,100.06
3584.00,100.06
3583.00,100.07
3582.00,100.08
3581.00,100.09
3580.00,100.10
3579.00,100.10
3578.00,100.10
3577.00,100.10
3576.00,100.10
3575.00,100.09
3574.00,100.09
3573.00,100.09
3572.00,100.08
3571.00,100.07
3570.00,100.06
3569.00,100.04
3568.00,100.04
3567.00,100.04
3566.00,100.04
3565.00,100.05
3564.00,100.05
3563.00,100.05
3562.00,100.06
3561.00,100.07
3560.00,100.08
3559.00,100.09
3558.00,100.09
3557.00,100.09
3556.00,100.09
3555.00,100.10
3554.00,100.10
3553.00,100.10
3552.00,100.10
3551.00,100.09
3550.00,100.09
3549.00,100.08
3548.00,100.07
3547.00,100.07
3546.00,100.07
3545.00,100.08
3544.00,100.08
3543.00,100.08
3542.00,100.08
3541.00,100.09
3540.00,100.09
3539.00,100.10
3538.00,100.10
3537.00,100.10
3536.00,100.10
3535.00,100.10
3534.00,100.10
3533.00,100.10
3532.00,100.09
3531.00,100.09
3530.00,100.09
3529.00,100.09
3528.00,100.09
3527.00,100.08
3526.00,100.08
3525.00,100.08
3524.00,100.08
3523.00,100.08
3522.00,100.08
3521.00,100.09
3520.00,100.09
3519.00,100.09
3518.00,100.10
3517.00,100.10
3516.00,100.10
3515.00,100.10
3514.00,100.10
3513.00,100.10
3512.00,100.10
3511.00,100.10
3510.00,100.10
3509.00,100.10
3508.00,100.10
3507.00,100.09
3506.00,100.09
3505.00,100.09
3504.00,100.09
3503.00,100.09
3502.00,100.09
3501.00,100.09
3500.00,100.09
3499.00,100.10
3498.00,100.10
3497.00,100.10
3496.00,100.10
3495.00,100.10
3494.00,100.11
3493.00,100.11
3492.00,100.10
3491.00,100.10
3490.00,100.10
3489.00,100.10
3488.00,100.10
3487.00,100.10
3486.00,100.11
3485.00,100.11
3484.00,100.11
3483.00,100.11
3482.00,100.11
3481.00,100.11
3480.00,100.11
3479.00,100.10
3478.00,100.10
3477.00,100.11
3476.00,100.11
3475.00,100.11
3474.00,100.11
3473.00,100.11
3472.00,100.11
3471.00,100.11
3470.00,100.11
3469.00,100.10
3468.00,100.10
3467.00,100.10
3466.00,100.10
3465.00,100.11
3464.00,100.11
3463.00,100.11
3462.00,100.11
3461.00,100.11
3460.00,100.11
3459.00,100.10
3458.00,100.11
3457.00,100.11
3456.00,100.11
3455.00,100.11
3454.00,100.11
3453.00,100.11
3452.00,100.11
3451.00,100.11
3450.00,100.11
3449.00,100.10
3448.00,100.10
3447.00,100.10
3446.00,100.10
3445.00,100.10
3444.00,100.10
3443.00,100.10
3442.00,100.10
3441.00,100.11
3440.00,100.11
3439.00,100.11
3438.00,100.10
3437.00,100.10
3436.00,100.11
3435.00,100.11
3434.00,100.11
3433.00,100.11
3432.00,100.11
3431.00,100.11
3430.00,100.10
3429.00,100.10
3428.00,100.11
3427.00,100.11
3426.00,100.11
3425.00,100.11
3424.00,100.11
3423.00,100.11
3422.00,100.11
3421.00,100.10
3420.00,100.10
3419.00,100.10
3418.00,100.10
3417.00,100.10
3416.00,100.11
3415.00,100.11
3414.00,100.11
3413.00,100.11
3412.00,100.11
3411.00,100.11
3410.00,100.11
3409.00,100.11
3408.00,100.11
3407.00,100.11
3406.00,100.11
3405.00,100.11
3404.00,100.11
3403.00,100.11
3402.00,100.11
3401.00,100.11
3400.00,100.11
3399.00,100.11
3398.00,100.11
3397.00,100.11
3396.00,100.11
3395.00,100.11
3394.00,100.11
3393.00,100.11
3392.00,100.11
3391.00,100.11
3390.00,100.11
3389.00,100.11
3388.00,100.11
3387.00,100.12
3386.00,100.12
3385.00,100.12
3384.00,100.12
3383.00,100.11
3382.00,100.11
3381.00,100.11
3380.00,100.11
3379.00,100.11
3378.00,100.11
3377.00,100.11
3376.00,100.11
3375.00,100.11
3374.00,100.11
3373.00,100.11
3372.00,100.11
3371.00,100.11
3370.00,100.11
3369.00,100.11
3368.00,100.11
3367.00,100.11
3366.00,100.11
3365.00,100.11
3364.00,100.11
3363.00,100.11
3362.00,100.11
3361.00,100.11
3360.00,100.11
3359.00,100.11
3358.00,100.11
3357.00,100.11
3356.00,100.11
3355.00,100.11
3354.00,100.11
3353.00,100.11
3352.00,100.11
3351.00,100.11
3350.00,100.11
3349.00,100.11
3348.00,100.11
3347.00,100.11
3346.00,100.11
3345.00,100.11
3344.00,100.11
3343.00,100.11
3342.00,100.11
3341.00,100.11
3340.00,100.11
3339.00,100.11
3338.00,100.11
3337.00,100.11
3336.00,100.11
3335.00,100.11
3334.00,100.11
3333.00,100.11
3332.00,100.11
3331.00,100.11
3330.00,100.11
3329.00,100.11
3328.00,100.11
3327.00,100.11
3326.00,100.11
3325.00,100.11
3324.00,100.11
3323.00,100.12
3322.00,100.12
3321.00,100.12
3320.00,100.12
3319.00,100.12
3318.00,100.11
3317.00,100.11
3316.00,100.11
3315.00,100.11
3314.00,100.12
3313.00,100.12
3312.00,100.12
3311.00,100.12
3310.00,100.12
3309.00,100.11
3308.00,100.11
3307.00,100.11
3306.00,100.11
3305.00,100.11
3304.00,100.11
3303.00,100.11
3302.00,100.11
3301.00,100.11
3300.00,100.11
3299.00,100.11
3298.00,100.12
3297.00,100.12
3296.00,100.11
3295.00,100.11
3294.00,100.11
3293.00,100.11
3292.00,100.11
3291.00,100.11
3290.00,100.12
3289.00,100.12
3288.00,100.12
3287.00,100.12
3286.00,100.12
3285.00,100.12
3284.00,100.12
3283.00,100.12
3282.00,100.12
3281.00,100.12
3280.00,100.12
3279.00,100.12
3278.00,100.12
3277.00,100.11
3276.00,100.11
3275.00,100.11
3274.00,100.11
3273.00,100.12
3272.00,100.12
3271.00,100.12
3270.00,100.12
3269.00,100.12
3268.00,100.12
3267.00,100.12
3266.00,100.12
3265.00,100.12
3264.00,100.12
3263.00,100.11
3262.00,100.11
3261.00,100.11
3260.00,100.11
3259.00,100.11
3258.00,100.11
3257.00,100.11
3256.00,100.11
3255.00,100.11
3254.00,100.11
3253.00,100.11
3252.00,100.11
3251.00,100.12
3250.00,100.12
3249.00,100.12
3248.00,100.12
3247.00,100.11
3246.00,100.12
3245.00,100.12
3244.00,100.12
3243.00,100.12
3242.00,100.12
3241.00,100.12
3240.00,100.12
3239.00,100.12
3238.00,100.12
3237.00,100.12
3236.00,100.11
3235.00,100.11
3234.00,100.11
3233.00,100.12
3232.00,100.12
3231.00,100.12
3230.00,100.11
3229.00,100.11
3228.00,100.11
3227.00,100.11
3226.00,100.11
3225.00,100.11
3224.00,100.11
3223.00,100.12
3222.00,100.12
3221.00,100.12
3220.00,100.12
3219.00,100.11
3218.00,100.11
3217.00,100.11
3216.00,100.11
3215.00,100.12
3214.00,100.12
3213.00,100.12
3212.00,100.12
3211.00,100.12
3210.00,100.12
3209.00,100.12
3208.00,100.12
3207.00,100.12
3206.00,100.12
3205.00,100.12
3204.00,100.12
3203.00,100.12
3202.00,100.12
3201.00,100.12
3200.00,100.12
3199.00,100.12
3198.00,100.11
3197.00,100.12
3196.00,100.12
3195.00,100.12
3194.00,100.12
3193.00,100.12
3192.00,100.12
3191.00,100.12
3190.00,100.12
3189.00,100.12
3188.00,100.12
3187.00,100.12
3186.00,100.12
3185.00,100.12
3184.00,100.12
3183.00,100.12
3182.00,100.12
3181.00,100.12
3180.00,100.12
3179.00,100.11
3178.00,100.11
3177.00,100.11
3176.00,100.11
3175.00,100.11
3174.00,100.12
3173.00,100.12
3172.00,100.12
3171.00,100.12
3170.00,100.12
3169.00,100.12
3168.00,100.12
3167.00,100.12
3166.00,100.12
3165.00,100.12
3164.00,100.12
3163.00,100.12
3162.00,100.12
3161.00,100.12
3160.00,100.12
3159.00,100.11
3158.00,100.11
3157.00,100.11
3156.00,100.11
3155.00,100.11
3154.00,100.11
3153.00,100.11
3152.00,100.11
3151.00,100.12
3150.00,100.11
3149.00,100.11
3148.00,100.11
3147.00,100.11
3146.00,100.12
3145.00,100.12
3144.00,100.12
3143.00,100.12
3142.00,100.12
3141.00,100.12
3140.00,100.12
3139.00,100.12
3138.00,100.12
3137.00,100.12
3136.00,100.12
3135.00,100.12
3134.00,100.12
3133.00,100.12
3132.00,100.12
3131.00,100.12
3130.00,100.12
3129.00,100.12
3128.00,100.12
3127.00,100.11
3126.00,100.11
3125.00,100.11
3124.00,100.11
3123.00,100.11
3122.00,100.11
3121.00,100.11
3120.00,100.11
3119.00,100.11
3118.00,100.11
3117.00,100.11
3116.00,100.11
3115.00,100.11
3114.00,100.11
3113.00,100.11
3112.00,100.11
3111.00,100.11
3110.00,100.11
3109.00,100.12
3108.00,100.12
3107.00,100.12
3106.00,100.12
3105.00,100.12
3104.00,100.12
3103.00,100.12
3102.00,100.11
3101.00,100.11
3100.00,100.11
3099.00,100.11
3098.00,100.11
3097.00,100.11
3096.00,100.11
3095.00,100.11
3094.00,100.11
3093.00,100.11
3092.00,100.11
3091.00,100.11
3090.00,100.11
3089.00,100.11
3088.00,100.11
3087.00,100.11
3086.00,100.11
3085.00,100.11
3084.00,100.11
3083.00,100.11
3082.00,100.11
3081.00,100.11
3080.00,100.11
3079.00,100.11
3078.00,100.11
3077.00,100.11
3076.00,100.11
3075.00,100.11
3074.00,100.11
3073.00,100.11
3072.00,100.11
3071.00,100.11
3070.00,100.11
3069.00,100.11
3068.00,100.11
3067.00,100.11
3066.00,100.11
3065.00,100.11
3064.00,100.11
3063.00,100.12
3062.00,100.12
3061.00,100.12
3060.00,100.11
3059.00,100.11
3058.00,100.11
3057.00,100.11
3056.00,100.11
3055.00,100.11
3054.00,100.11
3053.00,100.11
3052.00,100.11
3051.00,100.11
3050.00,100.11
3049.00,100.11
3048.00,100.11
3047.00,100.11
3046.00,100.11
3045.00,100.11
3044.00,100.11
3043.00,100.11
3042.00,100.11
3041.00,100.11
3040.00,100.11
3039.00,100.11
3038.00,100.11
3037.00,100.11
3036.00,100.10
3035.00,100.10
3034.00,100.10
3033.00,100.10
3032.00,100.10
3031.00,100.10
3030.00,100.11
3029.00,100.11
3028.00,100.11
3027.00,100.10
3026.00,100.10
3025.00,100.10
3024.00,100.10
3023.00,100.10
3022.00,100.11
3021.00,100.11
3020.00,100.11
3019.00,100.11
3018.00,100.11
3017.00,100.11
3016.00,100.10
3015.00,100.10
3014.00,100.10
3013.00,100.10
3012.00,100.11
3011.00,100.11
3010.00,100.11
3009.00,100.11
3008.00,100.11
3007.00,100.11
3006.00,100.11
3005.00,100.11
3004.00,100.11
3003.00,100.11
3002.00,100.11
3001.00,100.11
3000.00,100.11
2999.00,100.11
2998.00,100.11
2997.00,100.10
2996.00,100.10
2995.00,100.10
2994.00,100.10
2993.00,100.10
2992.00,100.10
2991.00,100.10
2990.00,100.10
2989.00,100.10
2988.00,100.10
2987.00,100.10
2986.00,100.10
2985.00,100.10
2984.00,100.10
2983.00,100.10
2982.00,100.10
2981.00,100.10
2980.00,100.10
2979.00,100.10
2978.00,100.10
2977.00,100.10
2976.00,100.10
2975.00,100.10
2974.00,100.10
2973.00,100.10
2972.00,100.10
2971.00,100.10
2970.00,100.10
2969.00,100.10
2968.00,100.10
2967.00,100.10
2966.00,100.10
2965.00,100.10
2964.00,100.10
2963.00,100.10
2962.00,100.10
2961.00,100.11
2960.00,100.11
2959.00,100.11
2958.00,100.11
2957.00,100.11
2956.00,100.11
2955.00,100.11
2954.00,100.11
2953.00,100.11
2952.00,100.11
2951.00,100.11
2950.00,100.11
2949.00,100.10
2948.00,100.10
2947.00,100.10
2946.00,100.10
2945.00,100.10
2944.00,100.10
2943.00,100.10
2942.00,100.10
2941.00,100.10
2940.00,100.10
2939.00,100.10
2938.00,100.10
2937.00,100.10
2936.00,100.10
2935.00,100.10
2934.00,100.10
2933.00,100.10
2932.00,100.10
2931.00,100.10
2930.00,100.10
2929.00,100.10
2928.00,100.11
2927.00,100.11
2926.00,100.11
2925.00,100.11
2924.00,100.11
2923.00,100.11
2922.00,100.11
2921.00,100.12
2920.00,100.12
2919.00,100.11
2918.00,100.11
2917.00,100.11
2916.00,100.11
2915.00,100.11
2914.00,100.11
2913.00,100.11
2912.00,100.11
2911.00,100.11
2910.00,100.10
2909.00,100.10
2908.00,100.10
2907.00,100.10
2906.00,100.10
2905.00,100.10
2904.00,100.10
2903.00,100.10
2902.00,100.10
2901.00,100.10
2900.00,100.10
2899.00,100.10
2898.00,100.10
2897.00,100.10
2896.00,100.10
2895.00,100.10
2894.00,100.10
2893.00,100.10
2892.00,100.10
2891.00,100.10
2890.00,100.11
2889.00,100.10
2888.00,100.10
2887.00,100.10
2886.00,100.10
2885.00,100.10
2884.00,100.10
2883.00,100.10
2882.00,100.10
2881.00,100.10
2880.00,100.10
2879.00,100.10
2878.00,100.10
2877.00,100.10
2876.00,100.10
2875.00,100.10
2874.00,100.10
2873.00,100.10
2872.00,100.10
2871.00,100.10
2870.00,100.10
2869.00,100.10
2868.00,100.10
2867.00,100.10
2866.00,100.10
2865.00,100.10
2864.00,100.10
2863.00,100.10
2862.00,100.10
2861.00,100.10
2860.00,100.10
2859.00,100.11
2858.00,100.11
2857.00,100.11
2856.00,100.11
2855.00,100.11
2854.00,100.11
2853.00,100.11
2852.00,100.11
2851.00,100.11
2850.00,100.12
2849.00,100.12
2848.00,100.12
2847.00,100.11
2846.00,100.11
2845.00,100.11
2844.00,100.11
2843.00,100.11
2842.00,100.11
2841.00,100.10
2840.00,100.10
2839.00,100.10
2838.00,100.10
2837.00,100.10
2836.00,100.10
2835.00,100.10
2834.00,100.10
2833.00,100.10
2832.00,100.10
2831.00,100.10
2830.00,100.10
2829.00,100.10
2828.00,100.10
2827.00,100.10
2826.00,100.10
2825.00,100.10
2824.00,100.10
2823.00,100.10
2822.00,100.10
2821.00,100.10
2820.00,100.10
2819.00,100.10
2818.00,100.10
2817.00,100.10
2816.00,100.10
2815.00,100.10
2814.00,100.10
2813.00,100.10
2812.00,100.10
2811.00,100.10
2810.00,100.10
2809.00,100.10
2808.00,100.10
2807.00,100.10
2806.00,100.10
2805.00,100.10
2804.00,100.10
2803.00,100.10
2802.00,100.10
2801.00,100.10
2800.00,100.10
2799.00,100.10
2798.00,100.10
2797.00,100.10
2796.00,100.10
2795.00,100.10
2794.00,100.10
2793.00,100.10
2792.00,100.10
2791.00,100.10
2790.00,100.10
2789.00,100.10
2788.00,100.10
2787.00,100.10
2786.00,100.10
2785.00,100.10
2784.00,100.10
2783.00,100.10
2782.00,100.10
2781.00,100.10
2780.00,100.10
2779.00,100.10
2778.00,100.10
2777.00,100.10
2776.00,100.10
2775.00,100.10
2774.00,100.10
2773.00,100.10
2772.00,100.10
2771.00,100.10
2770.00,100.10
2769.00,100.10
2768.00,100.10
2767.00,100.10
2766.00,100.10
2765.00,100.10
2764.00,100.10
2763.00,100.10
2762.00,100.10
2761.00,100.10
2760.00,100.10
2759.00,100.10
2758.00,100.10
2757.00,100.10
2756.00,100.10
2755.00,100.10
2754.00,100.10
2753.00,100.10
2752.00,100.10
2751.00,100.10
2750.00,100.10
2749.00,100.10
2748.00,100.09
2747.00,100.09
2746.00,100.10
2745.00,100.10
2744.00,100.10
2743.00,100.10
2742.00,100.10
2741.00,100.10
2740.00,100.10
2739.00,100.10
2738.00,100.10
2737.00,100.10
2736.00,100.10
2735.00,100.10
2734.00,100.10
2733.00,100.09
2732.00,100.09
2731.00,100.09
2730.00,100.10
2729.00,100.10
2728.00,100.10
2727.00,100.10
2726.00,100.10
2725.00,100.10
2724.00,100.10
2723.00,100.10
2722.00,100.10
2721.00,100.10
2720.00,100.10
2719.00,100.10
2718.00,100.10
2717.00,100.10
2716.00,100.10
2715.00,100.10
2714.00,100.10
2713.00,100.10
2712.00,100.10
2711.00,100.10
2710.00,100.10
2709.00,100.10
2708.00,100.10
2707.00,100.10
2706.00,100.10
2705.00,100.10
2704.00,100.10
2703.00,100.10
2702.00,100.10
2701.00,100.10
2700.00,100.10
2699.00,100.10
2698.00,100.10
2697.00,100.10
2696.00,100.10
2695.00,100.10
2694.00,100.10
2693.00,100.10
2692.00,100.10
2691.00,100.10
2690.00,100.10
2689.00,100.10
2688.00,100.10
2687.00,100.10
2686.00,100.10
2685.00,100.10
2684.00,100.10
2683.00,100.10
2682.00,100.10
2681.00,100.10
2680.00,100.10
2679.00,100.10
2678.00,100.10
2677.00,100.10
2676.00,100.10
2675.00,100.10
2674.00,100.09
2673.00,100.09
2672.00,100.09
2671.00,100.09
2670.00,100.09
2669.00,100.09
2668.00,100.09
2667.00,100.10
2666.00,100.10
2665.00,100.10
2664.00,100.10
2663.00,100.10
2662.00,100.10
2661.00,100.10
2660.00,100.10
2659.00,100.10
2658.00,100.10
2657.00,100.10
2656.00,100.10
2655.00,100.10
2654.00,100.10
2653.00,100.10
2652.00,100.10
2651.00,100.10
2650.00,100.10
2649.00,100.10
2648.00,100.10
2647.00,100.10
2646.00,100.10
2645.00,100.10
2644.00,100.10
2643.00,100.10
2642.00,100.10
2641.00,100.10
2640.00,100.10
2639.00,100.10
2638.00,100.09
2637.00,100.09
2636.00,100.09
2635.00,100.09
2634.00,100.09
2633.00,100.09
2632.00,100.09
2631.00,100.10
2630.00,100.10
2629.00,100.10
2628.00,100.10
2627.00,100.09
2626.00,100.09
2625.00,100.09
2624.00,100.09
2623.00,100.09
2622.00,100.09
2621.00,100.09
2620.00,100.09
2619.00,100.09
2618.00,100.09
2617.00,100.09
2616.00,100.09
2615.00,100.09
2614.00,100.09
2613.00,100.09
2612.00,100.09
2611.00,100.09
2610.00,100.09
2609.00,100.09
2608.00,100.09
2607.00,100.10
2606.00,100.10
2605.00,100.10
2604.00,100.09
2603.00,100.09
2602.00,100.09
2601.00,100.09
2600.00,100.09
2599.00,100.09
2598.00,100.09
2597.00,100.09
2596.00,100.09
2595.00,100.09
2594.00,100.09
2593.00,100.09
2592.00,100.09
2591.00,100.10
2590.00,100.10
2589.00,100.10
2588.00,100.10
2587.00,100.10
2586.00,100.10
2585.00,100.10
2584.00,100.10
2583.00,100.09
2582.00,100.09
2581.00,100.09
2580.00,100.09
2579.00,100.09
2578.00,100.09
2577.00,100.09
2576.00,100.09
2575.00,100.09
2574.00,100.09
2573.00,100.09
2572.00,100.09
2571.00,100.09
2570.00,100.10
2569.00,100.10
2568.00,100.09
2567.00,100.09
2566.00,100.09
2565.00,100.09
2564.00,100.09
2563.00,100.09
2562.00,100.10
2561.00,100.10
2560.00,100.10
2559.00,100.09
2558.00,100.09
2557.00,100.09
2556.00,100.09
2555.00,100.09
2554.00,100.09
2553.00,100.09
2552.00,100.09
2551.00,100.09
2550.00,100.09
2549.00,100.09
2548.00,100.09
2547.00,100.09
2546.00,100.09
2545.00,100.09
2544.00,100.09
2543.00,100.09
2542.00,100.09
2541.00,100.09
2540.00,100.09
2539.00,100.09
2538.00,100.09
2537.00,100.09
2536.00,100.09
2535.00,100.09
2534.00,100.09
2533.00,100.09
2532.00,100.09
2531.00,100.09
2530.00,100.09
2529.00,100.10
2528.00,100.10
2527.00,100.10
2526.00,100.09
2525.00,100.09
2524.00,100.09
2523.00,100.09
2522.00,100.09
2521.00,100.09
2520.00,100.09
2519.00,100.09
2518.00,100.09
2517.00,100.09
2516.00,100.09
2515.00,100.09
2514.00,100.09
2513.00,100.09
2512.00,100.09
2511.00,100.09
2510.00,100.09
2509.00,100.09
2508.00,100.09
2507.00,100.10
2506.00,100.10
2505.00,100.10
2504.00,100.10
2503.00,100.09
2502.00,100.09
2501.00,100.09
2500.00,100.09
2499.00,100.09
2498.00,100.09
2497.00,100.09
2496.00,100.09
2495.00,100.09
2494.00,100.09
2493.00,100.09
2492.00,100.09
2491.00,100.09
2490.00,100.09
2489.00,100.09
2488.00,100.09
2487.00,100.09
2486.00,100.09
2485.00,100.09
2484.00,100.09
2483.00,100.09
2482.00,100.09
2481.00,100.09
2480.00,100.09
2479.00,100.10
2478.00,100.10
2477.00,100.09
2476.00,100.09
2475.00,100.09
2474.00,100.09
2473.00,100.09
2472.00,100.09
2471.00,100.09
2470.00,100.09
2469.00,100.09
2468.00,100.09
2467.00,100.09
2466.00,100.09
2465.00,100.09
2464.00,100.09
2463.00,100.09
2462.00,100.09
2461.00,100.09
2460.00,100.09
2459.00,100.09
2458.00,100.09
2457.00,100.09
2456.00,100.09
2455.00,100.09
2454.00,100.09
2453.00,100.09
2452.00,100.09
2451.00,100.09
2450.00,100.09
2449.00,100.09
2448.00,100.09
2447.00,100.09
2446.00,100.09
2445.00,100.09
2444.00,100.09
2443.00,100.09
2442.00,100.09
2441.00,100.09
2440.00,100.09
2439.00,100.09
2438.00,100.09
2437.00,100.09
2436.00,100.09
2435.00,100.09
2434.00,100.09
2433.00,100.09
2432.00,100.09
2431.00,100.09
2430.00,100.09
2429.00,100.09
2428.00,100.09
2427.00,100.09
2426.00,100.09
2425.00,100.09
2424.00,100.09
2423.00,100.09
2422.00,100.09
2421.00,100.09
2420.00,100.09
2419.00,100.09
2418.00,100.09
2417.00,100.09
2416.00,100.09
2415.00,100.09
2414.00,100.09
2413.00,100.09
2412.00,100.09
2411.00,100.09
2410.00,100.09
2409.00,100.09
2408.00,100.09
2407.00,100.09
2406.00,100.09
2405.00,100.09
2404.00,100.09
2403.00,100.09
2402.00,100.09
2401.00,100.09
2400.00,100.09
2399.00,100.09
2398.00,100.09
2397.00,100.09
2396.00,100.09
2395.00,100.09
2394.00,100.09
2393.00,100.09
2392.00,100.09
2391.00,100.09
2390.00,100.09
2389.00,100.09
2388.00,100.09
2387.00,100.09
2386.00,100.09
2385.00,100.08
2384.00,100.08
2383.00,100.08
2382.00,100.08
2381.00,100.08
2380.00,100.08
2379.00,100.09
2378.00,100.09
2377.00,100.09
2376.00,100.09
2375.00,100.09
2374.00,100.09
2373.00,100.08
2372.00,100.08
2371.00,100.08
2370.00,100.08
2369.00,100.08
2368.00,100.08
2367.00,100.08
2366.00,100.08
2365.00,100.08
2364.00,100.07
2363.00,100.07
2362.00,100.07
2361.00,100.07
2360.00,100.07
2359.00,100.07
2358.00,100.07
2357.00,100.07
2356.00,100.06
2355.00,100.06
2354.00,100.06
2353.00,100.07
2352.00,100.08
2351.00,100.08
2350.00,100.08
2349.00,100.06
2348.00,100.04
2347.00,100.04
2346.00,100.04
2345.00,100.05
2344.00,100.06
2343.00,100.06
2342.00,100.06
2341.00,100.06
2340.00,100.06
2339.00,100.06
2338.00,100.06
2337.00,100.06
2336.00,100.06
2335.00,100.06
2334.00,100.06
2333.00,100.06
2332.00,100.06
2331.00,100.06
2330.00,100.06
2329.00,100.06
2328.00,100.06
2327.00,100.06
2326.00,100.05
2325.00,100.05
2324.00,100.06
2323.00,100.06
2322.00,100.06
2321.00,100.06
2320.00,100.06
2319.00,100.06
2318.00,100.06
2317.00,100.06
2316.00,100.06
2315.00,100.06
2314.00,100.06
2313.00,100.06
2312.00,100.06
2311.00,100.07
2310.00,100.07
2309.00,100.07
2308.00,100.07
2307.00,100.07
2306.00,100.07
2305.00,100.07
2304.00,100.07
2303.00,100.07
2302.00,100.07
2301.00,100.07
2300.00,100.08
2299.00,100.08
2298.00,100.08
2297.00,100.08
2296.00,100.08
2295.00,100.08
2294.00,100.08
2293.00,100.08
2292.00,100.08
2291.00,100.08
2290.00,100.08
2289.00,100.09
2288.00,100.09
2287.00,100.09
2286.00,100.09
2285.00,100.08
2284.00,100.08
2283.00,100.08
2282.00,100.08
2281.00,100.08
2280.00,100.08
2279.00,100.09
2278.00,100.09
2277.00,100.09
2276.00,100.09
2275.00,100.09
2274.00,100.09
2273.00,100.09
2272.00,100.09
2271.00,100.09
2270.00,100.09
2269.00,100.08
2268.00,100.08
2267.00,100.08
2266.00,100.09
2265.00,100.09
2264.00,100.09
2263.00,100.09
2262.00,100.09
2261.00,100.09
2260.00,100.09
2259.00,100.09
2258.00,100.08
2257.00,100.08
2256.00,100.09
2255.00,100.09
2254.00,100.09
2253.00,100.09
2252.00,100.09
2251.00,100.09
2250.00,100.09
2249.00,100.09
2248.00,100.09
2247.00,100.09
2246.00,100.09
2245.00,100.09
2244.00,100.09
2243.00,100.09
2242.00,100.08
2241.00,100.08
2240.00,100.08
2239.00,100.08
2238.00,100.09
2237.00,100.09
2236.00,100.09
2235.00,100.09
2234.00,100.09
2233.00,100.09
2232.00,100.09
2231.00,100.09
2230.00,100.09
2229.00,100.09
2228.00,100.09
2227.00,100.09
2226.00,100.09
2225.00,100.09
2224.00,100.09
2223.00,100.09
2222.00,100.09
2221.00,100.09
2220.00,100.09
2219.00,100.09
2218.00,100.09
2217.00,100.08
2216.00,100.08
2215.00,100.08
2214.00,100.08
2213.00,100.08
2212.00,100.08
2211.00,100.08
2210.00,100.08
2209.00,100.09
2208.00,100.09
2207.00,100.09
2206.00,100.09
2205.00,100.08
2204.00,100.08
2203.00,100.08
2202.00,100.08
2201.00,100.09
2200.00,100.09
2199.00,100.09
2198.00,100.09
2197.00,100.08
2196.00,100.08
2195.00,100.08
2194.00,100.09
2193.00,100.09
2192.00,100.09
2191.00,100.08
2190.00,100.08
2189.00,100.08
2188.00,100.08
2187.00,100.08
2186.00,100.08
2185.00,100.08
2184.00,100.08
2183.00,100.08
2182.00,100.08
2181.00,100.08
2180.00,100.08
2179.00,100.08
2178.00,100.08
2177.00,100.08
2176.00,100.08
2175.00,100.08
2174.00,100.08
2173.00,100.08
2172.00,100.09
2171.00,100.09
2170.00,100.08
2169.00,100.08
2168.00,100.08
2167.00,100.08
2166.00,100.08
2165.00,100.08
2164.00,100.09
2163.00,100.09
2162.00,100.09
2161.00,100.08
2160.00,100.08
2159.00,100.08
2158.00,100.08
2157.00,100.08
2156.00,100.08
2155.00,100.08
2154.00,100.08
2153.00,100.08
2152.00,100.08
2151.00,100.08
2150.00,100.08
2149.00,100.08
2148.00,100.09
2147.00,100.09
2146.00,100.09
2145.00,100.08
2144.00,100.08
2143.00,100.08
2142.00,100.08
2141.00,100.08
2140.00,100.08
2139.00,100.08
2138.00,100.08
2137.00,100.08
2136.00,100.08
2135.00,100.08
2134.00,100.08
2133.00,100.08
2132.00,100.08
2131.00,100.08
2130.00,100.08
2129.00,100.08
2128.00,100.08
2127.00,100.08
2126.00,100.08
2125.00,100.08
2124.00,100.08
2123.00,100.08
2122.00,100.08
2121.00,100.08
2120.00,100.08
2119.00,100.08
2118.00,100.08
2117.00,100.08
2116.00,100.08
2115.00,100.08
2114.00,100.08
2113.00,100.08
2112.00,100.08
2111.00,100.08
2110.00,100.08
2109.00,100.09
2108.00,100.09
2107.00,100.08
2106.00,100.08
2105.00,100.08
2104.00,100.09
2103.00,100.09
2102.00,100.09
2101.00,100.08
2100.00,100.08
2099.00,100.08
2098.00,100.08
2097.00,100.08
2096.00,100.08
2095.00,100.08
2094.00,100.08
2093.00,100.08
2092.00,100.08
2091.00,100.08
2090.00,100.08
2089.00,100.08
2088.00,100.08
2087.00,100.08
2086.00,100.08
2085.00,100.08
2084.00,100.08
2083.00,100.08
2082.00,100.08
2081.00,100.08
2080.00,100.08
2079.00,100.08
2078.00,100.08
2077.00,100.08
2076.00,100.08
2075.00,100.08
2074.00,100.08
2073.00,100.08
2072.00,100.08
2071.00,100.08
2070.00,100.08
2069.00,100.08
2068.00,100.09
2067.00,100.09
2066.00,100.09
2065.00,100.09
2064.00,100.09
2063.00,100.09
2062.00,100.08
2061.00,100.08
2060.00,100.08
2059.00,100.08
2058.00,100.08
2057.00,100.08
2056.00,100.08
2055.00,100.08
2054.00,100.08
2053.00,100.08
2052.00,100.08
2051.00,100.08
2050.00,100.08
2049.00,100.08
2048.00,100.08
2047.00,100.08
2046.00,100.08
2045.00,100.08
2044.00,100.08
2043.00,100.08
2042.00,100.08
2041.00,100.08
2040.00,100.08
2039.00,100.08
2038.00,100.08
2037.00,100.08
2036.00,100.08
2035.00,100.08
2034.00,100.08
2033.00,100.08
2032.00,100.08
2031.00,100.08
2030.00,100.08
2029.00,100.08
2028.00,100.08
2027.00,100.08
2026.00,100.08
2025.00,100.08
2024.00,100.08
2023.00,100.08
2022.00,100.08
2021.00,100.08
2020.00,100.08
2019.00,100.08
2018.00,100.08
2017.00,100.08
2016.00,100.08
2015.00,100.08
2014.00,100.08
2013.00,100.08
2012.00,100.08
2011.00,100.08
2010.00,100.08
2009.00,100.08
2008.00,100.08
2007.00,100.08
2006.00,100.08
2005.00,100.08
2004.00,100.08
2003.00,100.08
2002.00,100.08
2001.00,100.08
2000.00,100.08
1999.00,100.08
1998.00,100.08
1997.00,100.08
1996.00,100.08
1995.00,100.08
1994.00,100.08
1993.00,100.09
1992.00,100.08
1991.00,100.08
1990.00,100.08
1989.00,100.08
1988.00,100.08
1987.00,100.08
1986.00,100.08
1985.00,100.08
1984.00,100.08
1983.00,100.08
1982.00,100.08
1981.00,100.08
1980.00,100.08
1979.00,100.08
1978.00,100.08
1977.00,100.08
1976.00,100.08
1975.00,100.08
1974.00,100.08
1973.00,100.08
1972.00,100.08
1971.00,100.08
1970.00,100.08
1969.00,100.08
1968.00,100.08
1967.00,100.08
1966.00,100.08
1965.00,100.08
1964.00,100.08
1963.00,100.08
1962.00,100.08
1961.00,100.08
1960.00,100.08
1959.00,100.08
1958.00,100.08
1957.00,100.08
1956.00,100.08
1955.00,100.08
1954.00,100.08
1953.00,100.08
1952.00,100.08
1951.00,100.08
1950.00,100.08
1949.00,100.08
1948.00,100.08
1947.00,100.08
1946.00,100.08
1945.00,100.08
1944.00,100.08
1943.00,100.08
1942.00,100.08
1941.00,100.08
1940.00,100.08
1939.00,100.08
1938.00,100.08
1937.00,100.08
1936.00,100.08
1935.00,100.08
1934.00,100.08
1933.00,100.08
1932.00,100.08
1931.00,100.08
1930.00,100.08
1929.00,100.08
1928.00,100.08
1927.00,100.08
1926.00,100.08
1925.00,100.08
1924.00,100.09
1923.00,100.08
1922.00,100.08
1921.00,100.08
1920.00,100.07
1919.00,100.07
1918.00,100.07
1917.00,100.08
1916.00,100.08
1915.00,100.07
1914.00,100.07
1913.00,100.08
1912.00,100.08
1911.00,100.08
1910.00,100.08
1909.00,100.08
1908.00,100.08
1907.00,100.08
1906.00,100.08
1905.00,100.08
1904.00,100.08
1903.00,100.08
1902.00,100.08
1901.00,100.08
1900.00,100.08
1899.00,100.08
1898.00,100.08
1897.00,100.08
1896.00,100.08
1895.00,100.08
1894.00,100.08
1893.00,100.08
1892.00,100.08
1891.00,100.08
1890.00,100.08
1889.00,100.08
1888.00,100.08
1887.00,100.08
1886.00,100.07
1885.00,100.07
1884.00,100.07
1883.00,100.08
1882.00,100.08
1881.00,100.08
1880.00,100.08
1879.00,100.08
1878.00,100.08
1877.00,100.08
1876.00,100.08
1875.00,100.08
1874.00,100.07
1873.00,100.07
1872.00,100.07
1871.00,100.08
1870.00,100.07
1869.00,100.07
1868.00,100.07
1867.00,100.07
1866.00,100.07
1865.00,100.07
1864.00,100.07
1863.00,100.07
1862.00,100.08
1861.00,100.08
1860.00,100.08
1859.00,100.08
1858.00,100.08
1857.00,100.08
1856.00,100.08
1855.00,100.08
1854.00,100.08
1853.00,100.08
1852.00,100.08
1851.00,100.08
1850.00,100.08
1849.00,100.08
1848.00,100.08
1847.00,100.08
1846.00,100.08
1845.00,100.08
1844.00,100.08
1843.00,100.08
1842.00,100.07
1841.00,100.07
1840.00,100.07
1839.00,100.08
1838.00,100.08
1837.00,100.08
1836.00,100.08
1835.00,100.08
1834.00,100.08
1833.00,100.07
1832.00,100.08
1831.00,100.08
1830.00,100.08
1829.00,100.08
1828.00,100.08
1827.00,100.07
1826.00,100.07
1825.00,100.07
1824.00,100.07
1823.00,100.07
1822.00,100.07
1821.00,100.07
1820.00,100.08
1819.00,100.08
1818.00,100.08
1817.00,100.08
1816.00,100.08
1815.00,100.08
1814.00,100.08
1813.00,100.08
1812.00,100.08
1811.00,100.08
1810.00,100.08
1809.00,100.07
1808.00,100.07
1807.00,100.07
1806.00,100.07
1805.00,100.07
1804.00,100.07
1803.00,100.08
1802.00,100.07
1801.00,100.07
1800.00,100.07
1799.00,100.07
1798.00,100.07
1797.00,100.07
1796.00,100.08
1795.00,100.08
1794.00,100.07
1793.00,100.07
1792.00,100.07
1791.00,100.07
1790.00,100.07
1789.00,100.06
1788.00,100.06
1787.00,100.06
1786.00,100.06
1785.00,100.06
1784.00,100.07
1783.00,100.07
1782.00,100.07
1781.00,100.07
1780.00,100.07
1779.00,100.07
1778.00,100.07
1777.00,100.07
1776.00,100.07
1775.00,100.07
1774.00,100.07
1773.00,100.06
1772.00,100.06
1771.00,100.07
1770.00,100.06
1769.00,100.05
1768.00,100.05
1767.00,100.06
1766.00,100.06
1765.00,100.06
1764.00,100.06
1763.00,100.07
1762.00,100.07
1761.00,100.07
1760.00,100.07
1759.00,100.07
1758.00,100.07
1757.00,100.07
1756.00,100.06
1755.00,100.06
1754.00,100.05
1753.00,100.04
1752.00,100.03
1751.00,100.03
1750.00,100.04
1749.00,100.05
1748.00,100.05
1747.00,100.06
1746.00,100.06
1745.00,100.06
1744.00,100.06
1743.00,100.07
1742.00,100.07
1741.00,100.07
1740.00,100.07
1739.00,100.07
1738.00,100.07
1737.00,100.07
1736.00,100.06
1735.00,100.05
1734.00,100.04
1733.00,100.04
1732.00,100.05
1731.00,100.05
1730.00,100.06
1729.00,100.06
1728.00,100.07
1727.00,100.07
1726.00,100.07
1725.00,100.07
1724.00,100.07
1723.00,100.07
1722.00,100.07
1721.00,100.06
1720.00,100.06
1719.00,100.06
1718.00,100.05
1717.00,100.05
1716.00,100.05
1715.00,100.06
1714.00,100.06
1713.00,100.06
1712.00,100.06
1711.00,100.06
1710.00,100.06
1709.00,100.06
1708.00,100.07
1707.00,100.07
1706.00,100.07
1705.00,100.07
1704.00,100.08
1703.00,100.07
1702.00,100.07
1701.00,100.06
1700.00,100.07
1699.00,100.06
1698.00,100.05
1697.00,100.04
1696.00,100.05
1695.00,100.06
1694.00,100.06
1693.00,100.06
1692.00,100.06
1691.00,100.06
1690.00,100.06
1689.00,100.06
1688.00,100.06
1687.00,100.06
1686.00,100.05
1685.00,100.05
1684.00,100.05
1683.00,100.06
1682.00,100.06
1681.00,100.06
1680.00,100.06
1679.00,100.06
1678.00,100.06
1677.00,100.06
1676.00,100.06
1675.00,100.06
1674.00,100.06
1673.00,100.06
1672.00,100.05
1671.00,100.05
1670.00,100.06
1669.00,100.07
1668.00,100.07
1667.00,100.06
1666.00,100.06
1665.00,100.07
1664.00,100.07
1663.00,100.07
1662.00,100.07
1661.00,100.06
1660.00,100.06
1659.00,100.06
1658.00,100.06
1657.00,100.07
1656.00,100.08
1655.00,100.08
1654.00,100.08
1653.00,100.09
1652.00,100.08
1651.00,100.08
1650.00,100.07
1649.00,100.06
1648.00,100.05
1647.00,100.05
1646.00,100.05
1645.00,100.05
1644.00,100.05
1643.00,100.06
1642.00,100.05
1641.00,100.06
1640.00,100.06
1639.00,100.06
1638.00,100.06
1637.00,100.06
1636.00,100.06
1635.00,100.06
1634.00,100.06
1633.00,100.06
1632.00,100.06
1631.00,100.06
1630.00,100.06
1629.00,100.06
1628.00,100.07
1627.00,100.07
1626.00,100.07
1625.00,100.07
1624.00,100.07
1623.00,100.07
1622.00,100.07
1621.00,100.07
1620.00,100.07
1619.00,100.07
1618.00,100.07
1617.00,100.08
1616.00,100.08
1615.00,100.07
1614.00,100.07
1613.00,100.07
1612.00,100.07
1611.00,100.07
1610.00,100.07
1609.00,100.07
1608.00,100.07
1607.00,100.07
1606.00,100.07
1605.00,100.07
1604.00,100.07
1603.00,100.07
1602.00,100.07
1601.00,100.07
1600.00,100.07
1599.00,100.07
1598.00,100.07
1597.00,100.08
1596.00,100.08
1595.00,100.07
1594.00,100.08
1593.00,100.08
1592.00,100.08
1591.00,100.07
1590.00,100.08
1589.00,100.08
1588.00,100.08
1587.00,100.07
1586.00,100.07
1585.00,100.08
1584.00,100.08
1583.00,100.07
1582.00,100.07
1581.00,100.08
1580.00,100.08
1579.00,100.08
1578.00,100.09
1577.00,100.09
1576.00,100.08
1575.00,100.08
1574.00,100.07
1573.00,100.07
1572.00,100.07
1571.00,100.07
1570.00,100.07
1569.00,100.07
1568.00,100.07
1567.00,100.06
1566.00,100.05
1565.00,100.06
1564.00,100.06
1563.00,100.07
1562.00,100.08
1561.00,100.08
1560.00,100.07
1559.00,100.06
1558.00,100.05
1557.00,100.05
1556.00,100.05
1555.00,100.04
1554.00,100.04
1553.00,100.04
1552.00,100.04
1551.00,100.04
1550.00,100.04
1549.00,100.04
1548.00,100.04
1547.00,100.04
1546.00,100.04
1545.00,100.05
1544.00,100.05
1543.00,100.06
1542.00,100.05
1541.00,100.05
1540.00,100.05
1539.00,100.05
1538.00,100.05
1537.00,100.05
1536.00,100.05
1535.00,100.05
1534.00,100.05
1533.00,100.06
1532.00,100.06
1531.00,100.05
1530.00,100.05
1529.00,100.05
1528.00,100.05
1527.00,100.05
1526.00,100.05
1525.00,100.05
1524.00,100.05
1523.00,100.05
1522.00,100.05
1521.00,100.05
1520.00,100.05
1519.00,100.05
1518.00,100.05
1517.00,100.05
1516.00,100.05
1515.00,100.04
1514.00,100.04
1513.00,100.04
1512.00,100.04
1511.00,100.05
1510.00,100.05
1509.00,100.05
1508.00,100.05
1507.00,100.05
1506.00,100.05
1505.00,100.05
1504.00,100.05
1503.00,100.05
1502.00,100.05
1501.00,100.06
1500.00,100.06
1499.00,100.07
1498.00,100.07
1497.00,100.06
1496.00,100.06
1495.00,100.06
1494.00,100.06
1493.00,100.06
1492.00,100.06
1491.00,100.06
1490.00,100.06
1489.00,100.06
1488.00,100.06
1487.00,100.06
1486.00,100.06
1485.00,100.06
1484.00,100.07
1483.00,100.07
1482.00,100.07
1481.00,100.07
1480.00,100.07
1479.00,100.07
1478.00,100.06
1477.00,100.06
1476.00,100.06
1475.00,100.06
1474.00,100.05
1473.00,100.04
1472.00,100.04
1471.00,100.05
1470.00,100.06
1469.00,100.06
1468.00,100.07
1467.00,100.07
1466.00,100.07
1465.00,100.07
1464.00,100.07
1463.00,100.06
1462.00,100.06
1461.00,100.06
1460.00,100.07
1459.00,100.07
1458.00,100.07
1457.00,100.06
1456.00,100.06
1455.00,100.06
1454.00,100.06
1453.00,100.06
1452.00,100.06
1451.00,100.07
1450.00,100.07
1449.00,100.07
1448.00,100.07
1447.00,100.07
1446.00,100.07
1445.00,100.07
1444.00,100.07
1443.00,100.08
1442.00,100.08
1441.00,100.07
1440.00,100.07
1439.00,100.07
1438.00,100.07
1437.00,100.07
1436.00,100.07
1435.00,100.07
1434.00,100.07
1433.00,100.06
1432.00,100.07
1431.00,100.07
1430.00,100.07
1429.00,100.07
1428.00,100.07
1427.00,100.07
1426.00,100.07
1425.00,100.06
1424.00,100.06
1423.00,100.06
1422.00,100.07
1421.00,100.07
1420.00,100.07
1419.00,100.07
1418.00,100.07
1417.00,100.06
1416.00,100.06
1415.00,100.06
1414.00,100.07
1413.00,100.07
1412.00,100.07
1411.00,100.08
1410.00,100.08
1409.00,100.08
1408.00,100.08
1407.00,100.07
1406.00,100.07
1405.00,100.07
1404.00,100.07
1403.00,100.07
1402.00,100.07
1401.00,100.07
1400.00,100.06
1399.00,100.06
1398.00,100.07
1397.00,100.07
1396.00,100.07
1395.00,100.07
1394.00,100.07
1393.00,100.07
1392.00,100.07
1391.00,100.07
1390.00,100.07
1389.00,100.08
1388.00,100.08
1387.00,100.08
1386.00,100.08
1385.00,100.08
1384.00,100.08
1383.00,100.08
1382.00,100.08
1381.00,100.08
1380.00,100.07
1379.00,100.07
1378.00,100.07
1377.00,100.07
1376.00,100.07
1375.00,100.07
1374.00,100.08
1373.00,100.08
1372.00,100.08
1371.00,100.07
1370.00,100.07
1369.00,100.07
1368.00,100.07
1367.00,100.07
1366.00,100.07
1365.00,100.08
1364.00,100.08
1363.00,100.08
1362.00,100.08
1361.00,100.08
1360.00,100.08
1359.00,100.07
1358.00,100.07
1357.00,100.08
1356.00,100.08
1355.00,100.08
1354.00,100.08
1353.00,100.08
1352.00,100.08
1351.00,100.08
1350.00,100.08
1349.00,100.08
1348.00,100.08
1347.00,100.08
1346.00,100.08
1345.00,100.08
1344.00,100.08
1343.00,100.08
1342.00,100.08
1341.00,100.08
1340.00,100.08
1339.00,100.08
1338.00,100.08
1337.00,100.08
1336.00,100.08
1335.00,100.08
1334.00,100.08
1333.00,100.08
1332.00,100.08
1331.00,100.08
1330.00,100.08
1329.00,100.08
1328.00,100.08
1327.00,100.08
1326.00,100.08
1325.00,100.08
1324.00,100.08
1323.00,100.08
1322.00,100.08
1321.00,100.08
1320.00,100.08
1319.00,100.08
1318.00,100.08
1317.00,100.08
1316.00,100.08
1315.00,100.08
1314.00,100.08
1313.00,100.08
1312.00,100.08
1311.00,100.08
1310.00,100.08
1309.00,100.08
1308.00,100.08
1307.00,100.08
1306.00,100.08
1305.00,100.08
1304.00,100.08
1303.00,100.08
1302.00,100.08
1301.00,100.08
1300.00,100.08
1299.00,100.08
1298.00,100.08
1297.00,100.08
1296.00,100.08
1295.00,100.08
1294.00,100.08
1293.00,100.08
1292.00,100.08
1291.00,100.08
1290.00,100.09
1289.00,100.09
1288.00,100.08
1287.00,100.08
1286.00,100.08
1285.00,100.08
1284.00,100.08
1283.00,100.08
1282.00,100.08
1281.00,100.08
1280.00,100.08
1279.00,100.08
1278.00,100.08
1277.00,100.08
1276.00,100.08
1275.00,100.08
1274.00,100.08
1273.00,100.08
1272.00,100.08
1271.00,100.08
1270.00,100.08
1269.00,100.09
1268.00,100.09
1267.00,100.08
1266.00,100.08
1265.00,100.08
1264.00,100.08
1263.00,100.08
1262.00,100.08
1261.00,100.09
1260.00,100.09
1259.00,100.09
1258.00,100.09
1257.00,100.09
1256.00,100.09
1255.00,100.09
1254.00,100.09
1253.00,100.09
1252.00,100.09
1251.00,100.09
1250.00,100.09
1249.00,100.10
1248.00,100.10
1247.00,100.10
1246.00,100.10
1245.00,100.09
1244.00,100.09
1243.00,100.09
1242.00,100.09
1241.00,100.09
1240.00,100.09
1239.00,100.09
1238.00,100.09
1237.00,100.09
1236.00,100.08
1235.00,100.08
1234.00,100.08
1233.00,100.08
1232.00,100.09
1231.00,100.08
1230.00,100.08
1229.00,100.08
1228.00,100.08
1227.00,100.08
1226.00,100.08
1225.00,100.08
1224.00,100.08
1223.00,100.08
1222.00,100.08
1221.00,100.08
1220.00,100.08
1219.00,100.08
1218.00,100.08
1217.00,100.08
1216.00,100.09
1215.00,100.09
1214.00,100.09
1213.00,100.09
1212.00,100.09
1211.00,100.09
1210.00,100.09
1209.00,100.09
1208.00,100.08
1207.00,100.09
1206.00,100.09
1205.00,100.09
1204.00,100.09
1203.00,100.08
1202.00,100.08
1201.00,100.08
1200.00,100.09
1199.00,100.09
1198.00,100.09
1197.00,100.09
1196.00,100.08
1195.00,100.08
1194.00,100.08
1193.00,100.09
1192.00,100.09
1191.00,100.09
1190.00,100.09
1189.00,100.09
1188.00,100.09
1187.00,100.09
1186.00,100.09
1185.00,100.09
1184.00,100.09
1183.00,100.09
1182.00,100.09
1181.00,100.09
1180.00,100.09
1179.00,100.09
1178.00,100.09
1177.00,100.09
1176.00,100.09
1175.00,100.09
1174.00,100.09
1173.00,100.09
1172.00,100.09
1171.00,100.09
1170.00,100.09
1169.00,100.09
1168.00,100.09
1167.00,100.09
1166.00,100.09
1165.00,100.09
1164.00,100.09
1163.00,100.09
1162.00,100.09
1161.00,100.09
1160.00,100.09
1159.00,100.09
1158.00,100.09
1157.00,100.09
1156.00,100.09
1155.00,100.09
1154.00,100.09
1153.00,100.10
1152.00,100.09
1151.00,100.09
1150.00,100.09
1149.00,100.09
1148.00,100.09
1147.00,100.09
1146.00,100.09
1145.00,100.09
1144.00,100.09
1143.00,100.09
1142.00,100.10
1141.00,100.10
1140.00,100.10
1139.00,100.09
1138.00,100.09
1137.00,100.09
1136.00,100.09
1135.00,100.09
1134.00,100.09
1133.00,100.09
1132.00,100.09
1131.00,100.09
1130.00,100.10
1129.00,100.09
1128.00,100.09
1127.00,100.09
1126.00,100.09
1125.00,100.09
1124.00,100.09
1123.00,100.09
1122.00,100.09
1121.00,100.09
1120.00,100.10
1119.00,100.10
1118.00,100.11
1117.00,100.10
1116.00,100.10
1115.00,100.10
1114.00,100.10
1113.00,100.10
1112.00,100.10
1111.00,100.10
1110.00,100.09
1109.00,100.09
1108.00,100.09
1107.00,100.09
1106.00,100.10
1105.00,100.10
1104.00,100.10
1103.00,100.10
1102.00,100.09
1101.00,100.09
1100.00,100.09
1099.00,100.09
1098.00,100.09
1097.00,100.09
1096.00,100.09
1095.00,100.09
1094.00,100.09
1093.00,100.09
1092.00,100.09
1091.00,100.09
1090.00,100.09
1089.00,100.10
1088.00,100.10
1087.00,100.10
1086.00,100.10
1085.00,100.09
1084.00,100.09
1083.00,100.09
1082.00,100.10
1081.00,100.10
1080.00,100.10
1079.00,100.10
1078.00,100.10
1077.00,100.09
1076.00,100.09
1075.00,100.09
1074.00,100.09
1073.00,100.09
1072.00,100.09
1071.00,100.09
1070.00,100.09
1069.00,100.09
1068.00,100.09
1067.00,100.08
1066.00,100.08
1065.00,100.08
1064.00,100.08
1063.00,100.08
1062.00,100.08
1061.00,100.08
1060.00,100.08
1059.00,100.08
1058.00,100.08
1057.00,100.08
1056.00,100.08
1055.00,100.08
1054.00,100.09
1053.00,100.09
1052.00,100.09
1051.00,100.09
1050.00,100.09
1049.00,100.08
1048.00,100.08
1047.00,100.08
1046.00,100.08
1045.00,100.08
1044.00,100.08
1043.00,100.08
1042.00,100.08
1041.00,100.08
1040.00,100.08
1039.00,100.08
1038.00,100.08
1037.00,100.08
1036.00,100.08
1035.00,100.08
1034.00,100.08
1033.00,100.09
1032.00,100.08
1031.00,100.08
1030.00,100.08
1029.00,100.08
1028.00,100.08
1027.00,100.08
1026.00,100.08
1025.00,100.08
1024.00,100.08
1023.00,100.08
1022.00,100.08
1021.00,100.08
1020.00,100.08
1019.00,100.08
1018.00,100.08
1017.00,100.08
1016.00,100.08
1015.00,100.07
1014.00,100.07
1013.00,100.07
1012.00,100.07
1011.00,100.07
1010.00,100.07
1009.00,100.07
1008.00,100.07
1007.00,100.07
1006.00,100.07
1005.00,100.07
1004.00,100.07
1003.00,100.07
1002.00,100.07
1001.00,100.07
1000.00,100.07
999.00,100.07
998.00,100.07
997.00,100.07
996.00,100.07
995.00,100.08
994.00,100.08
993.00,100.07
992.00,100.07
991.00,100.08
990.00,100.08
989.00,100.08
988.00,100.08
987.00,100.08
986.00,100.08
985.00,100.08
984.00,100.08
983.00,100.08
982.00,100.07
981.00,100.07
980.00,100.07
979.00,100.07
978.00,100.07
977.00,100.08
976.00,100.07
975.00,100.07
974.00,100.07
973.00,100.07
972.00,100.08
971.00,100.08
970.00,100.08
969.00,100.08
968.00,100.08
967.00,100.07
966.00,100.07
965.00,100.08
964.00,100.08
963.00,100.08
962.00,100.08
961.00,100.08
960.00,100.08
959.00,100.08
958.00,100.08
957.00,100.08
956.00,100.08
955.00,100.08
954.00,100.08
953.00,100.08
952.00,100.08
951.00,100.08
950.00,100.08
949.00,100.08
948.00,100.08
947.00,100.09
946.00,100.09
945.00,100.09
944.00,100.09
943.00,100.09
942.00,100.08
941.00,100.08
940.00,100.08
939.00,100.08
938.00,100.08
937.00,100.08
936.00,100.08
935.00,100.09
934.00,100.09
933.00,100.09
932.00,100.09
931.00,100.09
930.00,100.09
929.00,100.09
928.00,100.08
927.00,100.08
926.00,100.08
925.00,100.09
924.00,100.09
923.00,100.09
922.00,100.10
921.00,100.10
920.00,100.09
919.00,100.09
918.00,100.09
917.00,100.09
916.00,100.09
915.00,100.09
914.00,100.09
913.00,100.09
912.00,100.09
911.00,100.09
910.00,100.09
909.00,100.09
908.00,100.09
907.00,100.09
906.00,100.09
905.00,100.09
904.00,100.09
903.00,100.08
902.00,100.08
901.00,100.08
900.00,100.08
899.00,100.08
898.00,100.08
897.00,100.08
896.00,100.08
895.00,100.08
894.00,100.09
893.00,100.09
892.00,100.09
891.00,100.09
890.00,100.09
889.00,100.09
888.00,100.09
887.00,100.09
886.00,100.09
885.00,100.09
884.00,100.08
883.00,100.08
882.00,100.08
881.00,100.08
880.00,100.08
879.00,100.08
878.00,100.08
877.00,100.08
876.00,100.08
875.00,100.08
874.00,100.08
873.00,100.09
872.00,100.09
871.00,100.09
870.00,100.09
869.00,100.09
868.00,100.08
867.00,100.08
866.00,100.08
865.00,100.08
864.00,100.08
863.00,100.07
862.00,100.08
861.00,100.08
860.00,100.08
859.00,100.08
858.00,100.08
857.00,100.08
856.00,100.08
855.00,100.08
854.00,100.08
853.00,100.08
852.00,100.08
851.00,100.08
850.00,100.08
849.00,100.08
848.00,100.08
847.00,100.08
846.00,100.08
845.00,100.08
844.00,100.08
843.00,100.08
842.00,100.08
841.00,100.08
840.00,100.08
839.00,100.07
838.00,100.07
837.00,100.08
836.00,100.08
835.00,100.08
834.00,100.08
833.00,100.08
832.00,100.08
831.00,100.08
830.00,100.08
829.00,100.08
828.00,100.08
827.00,100.08
826.00,100.08
825.00,100.08
824.00,100.08
823.00,100.08
822.00,100.08
821.00,100.08
820.00,100.08
819.00,100.08
818.00,100.08
817.00,100.08
816.00,100.08
815.00,100.09
814.00,100.09
813.00,100.09
812.00,100.09
811.00,100.09
810.00,100.08
809.00,100.08
808.00,100.08
807.00,100.09
806.00,100.09
805.00,100.09
804.00,100.09
803.00,100.08
802.00,100.08
801.00,100.08
800.00,100.08
799.00,100.08
798.00,100.08
797.00,100.08
796.00,100.08
795.00,100.08
794.00,100.08
793.00,100.08
792.00,100.09
791.00,100.09
790.00,100.10
789.00,100.09
788.00,100.09
787.00,100.08
786.00,100.08
785.00,100.08
784.00,100.08
783.00,100.08
782.00,100.08
781.00,100.08
780.00,100.08
779.00,100.08
778.00,100.07
777.00,100.08
776.00,100.08
775.00,100.08
774.00,100.08
773.00,100.08
772.00,100.08
771.00,100.08
770.00,100.08
769.00,100.08
768.00,100.08
767.00,100.08
766.00,100.09
765.00,100.09
764.00,100.08
763.00,100.08
762.00,100.08
761.00,100.08
760.00,100.08
759.00,100.08
758.00,100.08
757.00,100.08
756.00,100.08
755.00,100.08
754.00,100.08
753.00,100.08
752.00,100.08
751.00,100.08
750.00,100.08
749.00,100.08
748.00,100.08
747.00,100.09
746.00,100.09
745.00,100.09
744.00,100.09
743.00,100.09
742.00,100.08
741.00,100.08
740.00,100.07
739.00,100.07
738.00,100.07
737.00,100.08
736.00,100.08
735.00,100.08
734.00,100.08
733.00,100.07
732.00,100.07
731.00,100.07
730.00,100.08
729.00,100.08
728.00,100.08
727.00,100.08
726.00,100.08
725.00,100.08
724.00,100.08
723.00,100.08
722.00,100.07
721.00,100.07
720.00,100.07
719.00,100.07
718.00,100.08
717.00,100.08
716.00,100.08
715.00,100.08
714.00,100.08
713.00,100.08
712.00,100.09
711.00,100.09
710.00,100.09
709.00,100.09
708.00,100.09
707.00,100.09
706.00,100.09
705.00,100.09
704.00,100.09
703.00,100.09
702.00,100.09
701.00,100.09
700.00,100.08
699.00,100.08
698.00,100.08
697.00,100.08
696.00,100.08
695.00,100.08
694.00,100.08
693.00,100.09
692.00,100.09
691.00,100.09
690.00,100.09
689.00,100.09
688.00,100.09
687.00,100.09
686.00,100.10
685.00,100.10
684.00,100.11
683.00,100.12
682.00,100.12
681.00,100.12
680.00,100.12
679.00,100.11
678.00,100.11
677.00,100.11
676.00,100.10
675.00,100.10
674.00,100.10
673.00,100.11
672.00,100.12
671.00,100.14
670.00,100.17
669.00,100.21
668.00,100.25
667.00,100.24
666.00,100.20
665.00,100.17
664.00,100.13
663.00,100.12
662.00,100.11
661.00,100.10
660.00,100.09
659.00,100.09
658.00,100.09
657.00,100.10
656.00,100.11
655.00,100.11
654.00,100.11
653.00,100.11
652.00,100.11
651.00,100.11
650.00,100.11
649.00,100.11
648.00,100.10
647.00,100.10
646.00,100.11
645.00,100.12
644.00,100.12
643.00,100.12
642.00,100.11
641.00,100.11
640.00,100.11
639.00,100.10
638.00,100.11
637.00,100.11
636.00,100.11
635.00,100.11
634.00,100.11
633.00,100.11
632.00,100.10
631.00,100.10
630.00,100.10
629.00,100.10
628.00,100.09
627.00,100.09
626.00,100.08
625.00,100.08
624.00,100.09
623.00,100.10
622.00,100.11
621.00,100.11
620.00,100.11
619.00,100.12
618.00,100.12
617.00,100.12
616.00,100.11
615.00,100.11
614.00,100.11
613.00,100.11
612.00,100.10
611.00,100.10
610.00,100.10
609.00,100.11
608.00,100.11
607.00,100.11
606.00,100.11
605.00,100.12
604.00,100.13
603.00,100.13
602.00,100.12
601.00,100.10
600.00,100.09
599.00,100.07
598.00,100.06
597.00,100.07
596.00,100.10
595.00,100.13
594.00,100.16
593.00,100.16
592.00,100.14
591.00,100.12
590.00,100.11
589.00,100.11
588.00,100.11
587.00,100.11
586.00,100.11
585.00,100.10
584.00,100.10
583.00,100.11
582.00,100.13
581.00,100.13
580.00,100.12
579.00,100.11
578.00,100.10
577.00,100.10
576.00,100.10
575.00,100.11
574.00,100.12
573.00,100.13
572.00,100.13
571.00,100.13
570.00,100.13
569.00,100.12
568.00,100.11
567.00,100.11
566.00,100.12
565.00,100.14
564.00,100.15
563.00,100.15
562.00,100.15
561.00,100.15
560.00,100.13
559.00,100.13
558.00,100.13
557.00,100.14
556.00,100.14
555.00,100.13
554.00,100.13
553.00,100.13
552.00,100.13
551.00,100.13
550.00,100.13
549.00,100.12
548.00,100.12
547.00,100.13
546.00,100.12
545.00,100.11
544.00,100.09
543.00,100.09
542.00,100.09
541.00,100.11
540.00,100.13
539.00,100.14
538.00,100.14
537.00,100.12
536.00,100.11
535.00,100.10
534.00,100.10
533.00,100.11
532.00,100.12
531.00,100.13
530.00,100.14
529.00,100.14
528.00,100.14
527.00,100.13
526.00,100.13
525.00,100.13
524.00,100.12
523.00,100.13
522.00,100.14
521.00,100.14
520.00,100.14
519.00,100.14
518.00,100.15
517.00,100.15
516.00,100.15
515.00,100.14
514.00,100.14
513.00,100.13
512.00,100.13
511.00,100.13
510.00,100.14
509.00,100.15
508.00,100.15
507.00,100.15
506.00,100.13
505.00,100.13
504.00,100.13
503.00,100.13
502.00,100.15
501.00,100.16
500.00,100.18
