Created as New Dataset,Sample 349 By Analyst Date Tuesday, February 04 2025
cm-1,%T
4000.00,100.24
3999.00,100.24
3998.00,100.24
3997.00,100.24
3996.00,100.24
3995.00,100.24
3994.00,100.24
3993.00,100.24
3992.00,100.24
3991.00,100.23
3990.00,100.24
3989.00,100.24
3988.00,100.24
3987.00,100.23
3986.00,100.23
3985.00,100.23
3984.00,100.23
3983.00,100.23
3982.00,100.23
3981.00,100.23
3980.00,100.23
3979.00,100.23
3978.00,100.23
3977.00,100.23
3976.00,100.23
3975.00,100.23
3974.00,100.24
3973.00,100.24
3972.00,100.23
3971.00,100.23
3970.00,100.24
3969.00,100.24
3968.00,100.24
3967.00,100.24
3966.00,100.23
3965.00,100.23
3964.00,100.23
3963.00,100.23
3962.00,100.23
3961.00,100.23
3960.00,100.23
3959.00,100.23
3958.00,100.23
3957.00,100.23
3956.00,100.23
3955.00,100.23
3954.00,100.23
3953.00,100.23
3952.00,100.23
3951.00,100.22
3950.00,100.22
3949.00,100.21
3948.00,100.21
3947.00,100.20
3946.00,100.20
3945.00,100.20
3944.00,100.20
3943.00,100.21
3942.00,100.21
3941.00,100.22
3940.00,100.21
3939.00,100.21
3938.00,100.22
3937.00,100.22
3936.00,100.22
3935.00,100.21
3934.00,100.20
3933.00,100.20
3932.00,100.20
3931.00,100.21
3930.00,100.21
3929.00,100.21
3928.00,100.21
3927.00,100.21
3926.00,100.21
3925.00,100.21
3924.00,100.21
3923.00,100.21
3922.00,100.20
3921.00,100.19
3920.00,100.19
3919.00,100.19
3918.00,100.19
3917.00,100.19
3916.00,100.20
3915.00,100.21
3914.00,100.21
3913.00,100.22
3912.00,100.22
3911.00,100.23
3910.00,100.23
3909.00,100.22
3908.00,100.22
3907.00,100.21
3906.00,100.20
3905.00,100.19
3904.00,100.17
3903.00,100.15
3902.00,100.13
3901.00,100.12
3900.00,100.13
3899.00,100.14
3898.00,100.16
3897.00,100.17
3896.00,100.17
3895.00,100.18
3894.00,100.19
3893.00,100.20
3892.00,100.20
3891.00,100.20
3890.00,100.20
3889.00,100.19
3888.00,100.17
3887.00,100.15
3886.00,100.16
3885.00,100.17
3884.00,100.17
3883.00,100.16
3882.00,100.15
3881.00,100.15
3880.00,100.17
3879.00,100.18
3878.00,100.18
3877.00,100.17
3876.00,100.16
3875.00,100.17
3874.00,100.18
3873.00,100.18
3872.00,100.17
3871.00,100.14
3870.00,100.14
3869.00,100.15
3868.00,100.15
3867.00,100.14
3866.00,100.13
3865.00,100.14
3864.00,100.15
3863.00,100.16
3862.00,100.16
3861.00,100.15
3860.00,100.16
3859.00,100.17
3858.00,100.20
3857.00,100.23
3856.00,100.24
3855.00,100.23
3854.00,100.20
3853.00,100.18
3852.00,100.16
3851.00,100.15
3850.00,100.14
3849.00,100.15
3848.00,100.15
3847.00,100.16
3846.00,100.17
3845.00,100.17
3844.00,100.17
3843.00,100.17
3842.00,100.17
3841.00,100.16
3840.00,100.15
3839.00,100.15
3838.00,100.15
3837.00,100.14
3836.00,100.15
3835.00,100.15
3834.00,100.15
3833.00,100.15
3832.00,100.15
3831.00,100.16
3830.00,100.17
3829.00,100.17
3828.00,100.17
3827.00,100.17
3826.00,100.18
3825.00,100.18
3824.00,100.17
3823.00,100.15
3822.00,100.14
3821.00,100.15
3820.00,100.16
3819.00,100.16
3818.00,100.14
3817.00,100.13
3816.00,100.15
3815.00,100.17
3814.00,100.19
3813.00,100.19
3812.00,100.19
3811.00,100.20
3810.00,100.20
3809.00,100.20
3808.00,100.19
3807.00,100.19
3806.00,100.19
3805.00,100.19
3804.00,100.17
3803.00,100.15
3802.00,100.16
3801.00,100.17
3800.00,100.17
3799.00,100.16
3798.00,100.15
3797.00,100.15
3796.00,100.17
3795.00,100.18
3794.00,100.19
3793.00,100.19
3792.00,100.20
3791.00,100.21
3790.00,100.22
3789.00,100.22
3788.00,100.22
3787.00,100.22
3786.00,100.21
3785.00,100.21
3784.00,100.21
3783.00,100.21
3782.00,100.20
3781.00,100.19
3780.00,100.19
3779.00,100.20
3778.00,100.20
3777.00,100.20
3776.00,100.20
3775.00,100.20
3774.00,100.21
3773.00,100.21
3772.00,100.20
3771.00,100.19
3770.00,100.19
3769.00,100.19
3768.00,100.18
3767.00,100.17
3766.00,100.17
3765.00,100.17
3764.00,100.18
3763.00,100.18
3762.00,100.17
3761.00,100.16
3760.00,100.17
3759.00,100.17
3758.00,100.17
3757.00,100.16
3756.00,100.16
3755.00,100.15
3754.00,100.14
3753.00,100.13
3752.00,100.13
3751.00,100.12
3750.00,100.10
3749.00,100.10
3748.00,100.10
3747.00,100.10
3746.00,100.09
3745.00,100.09
3744.00,100.10
3743.00,100.11
3742.00,100.10
3741.00,100.09
3740.00,100.07
3739.00,100.07
3738.00,100.06
3737.00,100.06
3736.00,100.07
3735.00,100.09
3734.00,100.09
3733.00,100.09
3732.00,100.10
3731.00,100.11
3730.00,100.12
3729.00,100.12
3728.00,100.12
3727.00,100.13
3726.00,100.15
3725.00,100.15
3724.00,100.15
3723.00,100.15
3722.00,100.15
3721.00,100.16
3720.00,100.16
3719.00,100.17
3718.00,100.17
3717.00,100.17
3716.00,100.17
3715.00,100.17
3714.00,100.16
3713.00,100.15
3712.00,100.14
3711.00,100.14
3710.00,100.14
3709.00,100.14
3708.00,100.14
3707.00,100.16
3706.00,100.17
3705.00,100.18
3704.00,100.18
3703.00,100.19
3702.00,100.19
3701.00,100.20
3700.00,100.20
3699.00,100.19
3698.00,100.19
3697.00,100.19
3696.00,100.20
3695.00,100.20
3694.00,100.19
3693.00,100.18
3692.00,100.18
3691.00,100.18
3690.00,100.17
3689.00,100.16
3688.00,100.16
3687.00,100.16
3686.00,100.16
3685.00,100.16
3684.00,100.16
3683.00,100.17
3682.00,100.17
3681.00,100.17
3680.00,100.17
3679.00,100.17
3678.00,100.15
3677.00,100.13
3676.00,100.12
3675.00,100.12
3674.00,100.13
3673.00,100.11
3672.00,100.09
3671.00,100.09
3670.00,100.11
3669.00,100.14
3668.00,100.15
3667.00,100.15
3666.00,100.16
3665.00,100.17
3664.00,100.18
3663.00,100.19
3662.00,100.19
3661.00,100.20
3660.00,100.20
3659.00,100.19
3658.00,100.19
3657.00,100.18
3656.00,100.17
3655.00,100.17
3654.00,100.15
3653.00,100.13
3652.00,100.11
3651.00,100.09
3650.00,100.08
3649.00,100.07
3648.00,100.07
3647.00,100.08
3646.00,100.10
3645.00,100.11
3644.00,100.13
3643.00,100.15
3642.00,100.17
3641.00,100.19
3640.00,100.19
3639.00,100.19
3638.00,100.19
3637.00,100.19
3636.00,100.18
3635.00,100.17
3634.00,100.17
3633.00,100.17
3632.00,100.16
3631.00,100.14
3630.00,100.12
3629.00,100.12
3628.00,100.12
3627.00,100.12
3626.00,100.12
3625.00,100.12
3624.00,100.14
3623.00,100.15
3622.00,100.16
3621.00,100.17
3620.00,100.17
3619.00,100.16
3618.00,100.15
3617.00,100.13
3616.00,100.11
3615.00,100.11
3614.00,100.11
3613.00,100.11
3612.00,100.11
3611.00,100.11
3610.00,100.10
3609.00,100.10
3608.00,100.12
3607.00,100.14
3606.00,100.15
3605.00,100.15
3604.00,100.16
3603.00,100.16
3602.00,100.17
3601.00,100.17
3600.00,100.17
3599.00,100.17
3598.00,100.16
3597.00,100.16
3596.00,100.16
3595.00,100.16
3594.00,100.16
3593.00,100.16
3592.00,100.15
3591.00,100.14
3590.00,100.13
3589.00,100.12
3588.00,100.13
3587.00,100.14
3586.00,100.14
3585.00,100.14
3584.00,100.15
3583.00,100.16
3582.00,100.17
3581.00,100.18
3580.00,100.19
3579.00,100.19
3578.00,100.19
3577.00,100.19
3576.00,100.19
3575.00,100.19
3574.00,100.19
3573.00,100.18
3572.00,100.18
3571.00,100.16
3570.00,100.14
3569.00,100.12
3568.00,100.12
3567.00,100.12
3566.00,100.13
3565.00,100.13
3564.00,100.13
3563.00,100.14
3562.00,100.15
3561.00,100.17
3560.00,100.18
3559.00,100.19
3558.00,100.19
3557.00,100.19
3556.00,100.19
3555.00,100.19
3554.00,100.19
3553.00,100.19
3552.00,100.19
3551.00,100.18
3550.00,100.17
3549.00,100.16
3548.00,100.16
3547.00,100.16
3546.00,100.16
3545.00,100.17
3544.00,100.17
3543.00,100.17
3542.00,100.18
3541.00,100.18
3540.00,100.19
3539.00,100.19
3538.00,100.19
3537.00,100.20
3536.00,100.20
3535.00,100.20
3534.00,100.20
3533.00,100.19
3532.00,100.19
3531.00,100.19
3530.00,100.19
3529.00,100.18
3528.00,100.18
3527.00,100.17
3526.00,100.17
3525.00,100.17
3524.00,100.17
3523.00,100.18
3522.00,100.18
3521.00,100.19
3520.00,100.19
3519.00,100.19
3518.00,100.19
3517.00,100.20
3516.00,100.20
3515.00,100.20
3514.00,100.20
3513.00,100.20
3512.00,100.19
3511.00,100.19
3510.00,100.19
3509.00,100.20
3508.00,100.19
3507.00,100.19
3506.00,100.19
3505.00,100.18
3504.00,100.18
3503.00,100.19
3502.00,100.19
3501.00,100.19
3500.00,100.19
3499.00,100.19
3498.00,100.19
3497.00,100.20
3496.00,100.20
3495.00,100.20
3494.00,100.21
3493.00,100.21
3492.00,100.21
3491.00,100.20
3490.00,100.20
3489.00,100.20
3488.00,100.20
3487.00,100.20
3486.00,100.20
3485.00,100.20
3484.00,100.20
3483.00,100.20
3482.00,100.21
3481.00,100.20
3480.00,100.20
3479.00,100.20
3478.00,100.20
3477.00,100.20
3476.00,100.21
3475.00,100.21
3474.00,100.21
3473.00,100.21
3472.00,100.21
3471.00,100.21
3470.00,100.20
3469.00,100.20
3468.00,100.20
3467.00,100.20
3466.00,100.20
3465.00,100.20
3464.00,100.20
3463.00,100.20
3462.00,100.21
3461.00,100.21
3460.00,100.20
3459.00,100.20
3458.00,100.20
3457.00,100.21
3456.00,100.21
3455.00,100.21
3454.00,100.21
3453.00,100.21
3452.00,100.21
3451.00,100.21
3450.00,100.20
3449.00,100.20
3448.00,100.20
3447.00,100.20
3446.00,100.20
3445.00,100.20
3444.00,100.20
3443.00,100.20
3442.00,100.20
3441.00,100.21
3440.00,100.21
3439.00,100.21
3438.00,100.21
3437.00,100.21
3436.00,100.21
3435.00,100.21
3434.00,100.21
3433.00,100.21
3432.00,100.21
3431.00,100.21
3430.00,100.20
3429.00,100.20
3428.00,100.21
3427.00,100.21
3426.00,100.21
3425.00,100.21
3424.00,100.21
3423.00,100.21
3422.00,100.21
3421.00,100.21
3420.00,100.20
3419.00,100.20
3418.00,100.20
3417.00,100.20
3416.00,100.20
3415.00,100.20
3414.00,100.21
3413.00,100.21
3412.00,100.21
3411.00,100.21
3410.00,100.21
3409.00,100.21
3408.00,100.21
3407.00,100.21
3406.00,100.21
3405.00,100.21
3404.00,100.21
3403.00,100.21
3402.00,100.20
3401.00,100.20
3400.00,100.20
3399.00,100.21
3398.00,100.21
3397.00,100.21
3396.00,100.21
3395.00,100.21
3394.00,100.21
3393.00,100.21
3392.00,100.21
3391.00,100.21
3390.00,100.21
3389.00,100.21
3388.00,100.21
3387.00,100.21
3386.00,100.22
3385.00,100.22
3384.00,100.22
3383.00,100.21
3382.00,100.21
3381.00,100.21
3380.00,100.21
3379.00,100.21
3378.00,100.21
3377.00,100.21
3376.00,100.21
3375.00,100.21
3374.00,100.21
3373.00,100.21
3372.00,100.21
3371.00,100.21
3370.00,100.21
3369.00,100.21
3368.00,100.21
3367.00,100.21
3366.00,100.21
3365.00,100.21
3364.00,100.21
3363.00,100.21
3362.00,100.21
3361.00,100.21
3360.00,100.21
3359.00,100.21
3358.00,100.21
3357.00,100.21
3356.00,100.21
3355.00,100.21
3354.00,100.21
3353.00,100.21
3352.00,100.21
3351.00,100.21
3350.00,100.21
3349.00,100.21
3348.00,100.21
3347.00,100.22
3346.00,100.22
3345.00,100.22
3344.00,100.22
3343.00,100.21
3342.00,100.21
3341.00,100.21
3340.00,100.21
3339.00,100.21
3338.00,100.21
3337.00,100.21
3336.00,100.21
3335.00,100.21
3334.00,100.21
3333.00,100.21
3332.00,100.21
3331.00,100.21
3330.00,100.21
3329.00,100.21
3328.00,100.22
3327.00,100.22
3326.00,100.22
3325.00,100.22
3324.00,100.22
3323.00,100.22
3322.00,100.22
3321.00,100.22
3320.00,100.22
3319.00,100.22
3318.00,100.22
3317.00,100.22
3316.00,100.22
3315.00,100.22
3314.00,100.22
3313.00,100.22
3312.00,100.22
3311.00,100.22
3310.00,100.22
3309.00,100.22
3308.00,100.21
3307.00,100.22
3306.00,100.22
3305.00,100.22
3304.00,100.22
3303.00,100.22
3302.00,100.22
3301.00,100.22
3300.00,100.22
3299.00,100.22
3298.00,100.22
3297.00,100.22
3296.00,100.22
3295.00,100.22
3294.00,100.21
3293.00,100.21
3292.00,100.22
3291.00,100.22
3290.00,100.22
3289.00,100.22
3288.00,100.22
3287.00,100.22
3286.00,100.22
3285.00,100.22
3284.00,100.22
3283.00,100.22
3282.00,100.22
3281.00,100.22
3280.00,100.22
3279.00,100.22
3278.00,100.22
3277.00,100.22
3276.00,100.22
3275.00,100.22
3274.00,100.22
3273.00,100.22
3272.00,100.22
3271.00,100.22
3270.00,100.22
3269.00,100.22
3268.00,100.23
3267.00,100.23
3266.00,100.22
3265.00,100.22
3264.00,100.22
3263.00,100.22
3262.00,100.21
3261.00,100.21
3260.00,100.21
3259.00,100.21
3258.00,100.22
3257.00,100.22
3256.00,100.22
3255.00,100.22
3254.00,100.22
3253.00,100.22
3252.00,100.22
3251.00,100.22
3250.00,100.22
3249.00,100.22
3248.00,100.22
3247.00,100.22
3246.00,100.22
3245.00,100.22
3244.00,100.22
3243.00,100.22
3242.00,100.22
3241.00,100.22
3240.00,100.22
3239.00,100.22
3238.00,100.22
3237.00,100.22
3236.00,100.22
3235.00,100.22
3234.00,100.22
3233.00,100.22
3232.00,100.22
3231.00,100.22
3230.00,100.22
3229.00,100.22
3228.00,100.22
3227.00,100.22
3226.00,100.22
3225.00,100.22
3224.00,100.22
3223.00,100.22
3222.00,100.22
3221.00,100.22
3220.00,100.22
3219.00,100.22
3218.00,100.22
3217.00,100.22
3216.00,100.22
3215.00,100.22
3214.00,100.22
3213.00,100.22
3212.00,100.22
3211.00,100.22
3210.00,100.22
3209.00,100.22
3208.00,100.22
3207.00,100.22
3206.00,100.22
3205.00,100.22
3204.00,100.22
3203.00,100.22
3202.00,100.22
3201.00,100.22
3200.00,100.22
3199.00,100.22
3198.00,100.22
3197.00,100.22
3196.00,100.22
3195.00,100.22
3194.00,100.22
3193.00,100.23
3192.00,100.23
3191.00,100.23
3190.00,100.23
3189.00,100.23
3188.00,100.22
3187.00,100.22
3186.00,100.22
3185.00,100.22
3184.00,100.22
3183.00,100.22
3182.00,100.22
3181.00,100.22
3180.00,100.22
3179.00,100.22
3178.00,100.22
3177.00,100.22
3176.00,100.22
3175.00,100.22
3174.00,100.22
3173.00,100.22
3172.00,100.22
3171.00,100.22
3170.00,100.22
3169.00,100.22
3168.00,100.22
3167.00,100.22
3166.00,100.22
3165.00,100.22
3164.00,100.22
3163.00,100.22
3162.00,100.22
3161.00,100.22
3160.00,100.22
3159.00,100.22
3158.00,100.22
3157.00,100.22
3156.00,100.22
3155.00,100.22
3154.00,100.22
3153.00,100.22
3152.00,100.22
3151.00,100.22
3150.00,100.22
3149.00,100.22
3148.00,100.22
3147.00,100.22
3146.00,100.22
3145.00,100.22
3144.00,100.23
3143.00,100.23
3142.00,100.22
3141.00,100.22
3140.00,100.22
3139.00,100.22
3138.00,100.22
3137.00,100.22
3136.00,100.22
3135.00,100.22
3134.00,100.22
3133.00,100.22
3132.00,100.22
3131.00,100.22
3130.00,100.22
3129.00,100.22
3128.00,100.22
3127.00,100.22
3126.00,100.22
3125.00,100.22
3124.00,100.22
3123.00,100.22
3122.00,100.22
3121.00,100.22
3120.00,100.22
3119.00,100.22
3118.00,100.22
3117.00,100.21
3116.00,100.21
3115.00,100.21
3114.00,100.22
3113.00,100.22
3112.00,100.22
3111.00,100.22
3110.00,100.22
3109.00,100.22
3108.00,100.22
3107.00,100.22
3106.00,100.23
3105.00,100.23
3104.00,100.23
3103.00,100.23
3102.00,100.22
3101.00,100.22
3100.00,100.22
3099.00,100.22
3098.00,100.22
3097.00,100.22
3096.00,100.22
3095.00,100.22
3094.00,100.21
3093.00,100.21
3092.00,100.22
3091.00,100.22
3090.00,100.22
3089.00,100.22
3088.00,100.22
3087.00,100.22
3086.00,100.22
3085.00,100.22
3084.00,100.22
3083.00,100.22
3082.00,100.22
3081.00,100.22
3080.00,100.21
3079.00,100.21
3078.00,100.21
3077.00,100.22
3076.00,100.22
3075.00,100.22
3074.00,100.22
3073.00,100.22
3072.00,100.22
3071.00,100.22
3070.00,100.22
3069.00,100.22
3068.00,100.21
3067.00,100.21
3066.00,100.22
3065.00,100.22
3064.00,100.22
3063.00,100.22
3062.00,100.22
3061.00,100.22
3060.00,100.22
3059.00,100.22
3058.00,100.22
3057.00,100.22
3056.00,100.22
3055.00,100.22
3054.00,100.22
3053.00,100.21
3052.00,100.21
3051.00,100.21
3050.00,100.22
3049.00,100.22
3048.00,100.22
3047.00,100.22
3046.00,100.21
3045.00,100.21
3044.00,100.21
3043.00,100.21
3042.00,100.21
3041.00,100.21
3040.00,100.22
3039.00,100.22
3038.00,100.21
3037.00,100.21
3036.00,100.21
3035.00,100.21
3034.00,100.21
3033.00,100.21
3032.00,100.21
3031.00,100.21
3030.00,100.21
3029.00,100.21
3028.00,100.21
3027.00,100.21
3026.00,100.21
3025.00,100.21
3024.00,100.21
3023.00,100.21
3022.00,100.21
3021.00,100.21
3020.00,100.22
3019.00,100.22
3018.00,100.21
3017.00,100.21
3016.00,100.21
3015.00,100.21
3014.00,100.21
3013.00,100.21
3012.00,100.21
3011.00,100.21
3010.00,100.21
3009.00,100.21
3008.00,100.22
3007.00,100.22
3006.00,100.21
3005.00,100.21
3004.00,100.21
3003.00,100.21
3002.00,100.21
3001.00,100.21
3000.00,100.21
2999.00,100.21
2998.00,100.21
2997.00,100.21
2996.00,100.21
2995.00,100.21
2994.00,100.21
2993.00,100.21
2992.00,100.21
2991.00,100.21
2990.00,100.21
2989.00,100.21
2988.00,100.21
2987.00,100.21
2986.00,100.21
2985.00,100.21
2984.00,100.21
2983.00,100.21
2982.00,100.21
2981.00,100.20
2980.00,100.21
2979.00,100.21
2978.00,100.21
2977.00,100.21
2976.00,100.21
2975.00,100.21
2974.00,100.21
2973.00,100.21
2972.00,100.21
2971.00,100.21
2970.00,100.21
2969.00,100.21
2968.00,100.21
2967.00,100.21
2966.00,100.21
2965.00,100.21
2964.00,100.21
2963.00,100.21
2962.00,100.21
2961.00,100.21
2960.00,100.21
2959.00,100.21
2958.00,100.22
2957.00,100.22
2956.00,100.21
2955.00,100.21
2954.00,100.21
2953.00,100.21
2952.00,100.21
2951.00,100.21
2950.00,100.21
2949.00,100.21
2948.00,100.21
2947.00,100.21
2946.00,100.20
2945.00,100.20
2944.00,100.20
2943.00,100.20
2942.00,100.20
2941.00,100.20
2940.00,100.20
2939.00,100.20
2938.00,100.20
2937.00,100.20
2936.00,100.20
2935.00,100.20
2934.00,100.20
2933.00,100.20
2932.00,100.20
2931.00,100.20
2930.00,100.21
2929.00,100.21
2928.00,100.21
2927.00,100.21
2926.00,100.22
2925.00,100.22
2924.00,100.22
2923.00,100.22
2922.00,100.22
2921.00,100.22
2920.00,100.22
2919.00,100.22
2918.00,100.22
2917.00,100.22
2916.00,100.22
2915.00,100.22
2914.00,100.22
2913.00,100.22
2912.00,100.22
2911.00,100.21
2910.00,100.21
2909.00,100.21
2908.00,100.21
2907.00,100.21
2906.00,100.21
2905.00,100.21
2904.00,100.21
2903.00,100.21
2902.00,100.21
2901.00,100.21
2900.00,100.21
2899.00,100.21
2898.00,100.21
2897.00,100.21
2896.00,100.21
2895.00,100.21
2894.00,100.21
2893.00,100.21
2892.00,100.21
2891.00,100.21
2890.00,100.21
2889.00,100.21
2888.00,100.21
2887.00,100.20
2886.00,100.20
2885.00,100.20
2884.00,100.21
2883.00,100.21
2882.00,100.21
2881.00,100.21
2880.00,100.21
2879.00,100.20
2878.00,100.20
2877.00,100.20
2876.00,100.20
2875.00,100.20
2874.00,100.20
2873.00,100.20
2872.00,100.21
2871.00,100.21
2870.00,100.21
2869.00,100.20
2868.00,100.20
2867.00,100.20
2866.00,100.21
2865.00,100.21
2864.00,100.21
2863.00,100.21
2862.00,100.21
2861.00,100.21
2860.00,100.21
2859.00,100.21
2858.00,100.21
2857.00,100.22
2856.00,100.22
2855.00,100.22
2854.00,100.22
2853.00,100.22
2852.00,100.22
2851.00,100.22
2850.00,100.23
2849.00,100.23
2848.00,100.23
2847.00,100.22
2846.00,100.22
2845.00,100.22
2844.00,100.22
2843.00,100.22
2842.00,100.22
2841.00,100.21
2840.00,100.21
2839.00,100.21
2838.00,100.21
2837.00,100.21
2836.00,100.20
2835.00,100.21
2834.00,100.21
2833.00,100.21
2832.00,100.21
2831.00,100.21
2830.00,100.21
2829.00,100.21
2828.00,100.21
2827.00,100.21
2826.00,100.21
2825.00,100.21
2824.00,100.21
2823.00,100.21
2822.00,100.21
2821.00,100.21
2820.00,100.21
2819.00,100.21
2818.00,100.21
2817.00,100.21
2816.00,100.21
2815.00,100.21
2814.00,100.21
2813.00,100.21
2812.00,100.21
2811.00,100.21
2810.00,100.21
2809.00,100.21
2808.00,100.21
2807.00,100.21
2806.00,100.21
2805.00,100.20
2804.00,100.20
2803.00,100.20
2802.00,100.20
2801.00,100.20
2800.00,100.20
2799.00,100.20
2798.00,100.20
2797.00,100.21
2796.00,100.21
2795.00,100.21
2794.00,100.21
2793.00,100.21
2792.00,100.21
2791.00,100.21
2790.00,100.20
2789.00,100.20
2788.00,100.20
2787.00,100.21
2786.00,100.21
2785.00,100.21
2784.00,100.21
2783.00,100.21
2782.00,100.21
2781.00,100.21
2780.00,100.21
2779.00,100.21
2778.00,100.21
2777.00,100.21
2776.00,100.21
2775.00,100.20
2774.00,100.20
2773.00,100.20
2772.00,100.20
2771.00,100.20
2770.00,100.20
2769.00,100.20
2768.00,100.20
2767.00,100.20
2766.00,100.20
2765.00,100.20
2764.00,100.20
2763.00,100.20
2762.00,100.20
2761.00,100.20
2760.00,100.20
2759.00,100.21
2758.00,100.21
2757.00,100.21
2756.00,100.20
2755.00,100.20
2754.00,100.20
2753.00,100.20
2752.00,100.20
2751.00,100.20
2750.00,100.20
2749.00,100.20
2748.00,100.20
2747.00,100.20
2746.00,100.20
2745.00,100.20
2744.00,100.20
2743.00,100.20
2742.00,100.20
2741.00,100.20
2740.00,100.20
2739.00,100.20
2738.00,100.20
2737.00,100.20
2736.00,100.21
2735.00,100.20
2734.00,100.20
2733.00,100.20
2732.00,100.20
2731.00,100.20
2730.00,100.20
2729.00,100.20
2728.00,100.20
2727.00,100.20
2726.00,100.20
2725.00,100.20
2724.00,100.20
2723.00,100.20
2722.00,100.20
2721.00,100.20
2720.00,100.20
2719.00,100.20
2718.00,100.20
2717.00,100.20
2716.00,100.20
2715.00,100.20
2714.00,100.20
2713.00,100.20
2712.00,100.20
2711.00,100.21
2710.00,100.21
2709.00,100.21
2708.00,100.20
2707.00,100.20
2706.00,100.20
2705.00,100.20
2704.00,100.20
2703.00,100.20
2702.00,100.20
2701.00,100.20
2700.00,100.20
2699.00,100.20
2698.00,100.20
2697.00,100.20
2696.00,100.20
2695.00,100.20
2694.00,100.20
2693.00,100.20
2692.00,100.20
2691.00,100.20
2690.00,100.20
2689.00,100.21
2688.00,100.20
2687.00,100.20
2686.00,100.20
2685.00,100.20
2684.00,100.20
2683.00,100.20
2682.00,100.20
2681.00,100.20
2680.00,100.20
2679.00,100.20
2678.00,100.20
2677.00,100.20
2676.00,100.20
2675.00,100.20
2674.00,100.20
2673.00,100.20
2672.00,100.20
2671.00,100.20
2670.00,100.20
2669.00,100.20
2668.00,100.20
2667.00,100.20
2666.00,100.20
2665.00,100.20
2664.00,100.21
2663.00,100.20
2662.00,100.20
2661.00,100.20
2660.00,100.20
2659.00,100.20
2658.00,100.21
2657.00,100.21
2656.00,100.21
2655.00,100.21
2654.00,100.20
2653.00,100.20
2652.00,100.20
2651.00,100.20
2650.00,100.20
2649.00,100.20
2648.00,100.20
2647.00,100.20
2646.00,100.20
2645.00,100.20
2644.00,100.20
2643.00,100.20
2642.00,100.20
2641.00,100.20
2640.00,100.20
2639.00,100.20
2638.00,100.20
2637.00,100.20
2636.00,100.20
2635.00,100.20
2634.00,100.20
2633.00,100.20
2632.00,100.20
2631.00,100.20
2630.00,100.20
2629.00,100.20
2628.00,100.20
2627.00,100.20
2626.00,100.20
2625.00,100.20
2624.00,100.20
2623.00,100.20
2622.00,100.20
2621.00,100.20
2620.00,100.20
2619.00,100.20
2618.00,100.20
2617.00,100.20
2616.00,100.20
2615.00,100.20
2614.00,100.20
2613.00,100.20
2612.00,100.20
2611.00,100.20
2610.00,100.20
2609.00,100.20
2608.00,100.20
2607.00,100.20
2606.00,100.20
2605.00,100.20
2604.00,100.20
2603.00,100.20
2602.00,100.20
2601.00,100.20
2600.00,100.20
2599.00,100.20
2598.00,100.20
2597.00,100.20
2596.00,100.20
2595.00,100.20
2594.00,100.20
2593.00,100.20
2592.00,100.20
2591.00,100.20
2590.00,100.20
2589.00,100.20
2588.00,100.20
2587.00,100.20
2586.00,100.20
2585.00,100.20
2584.00,100.20
2583.00,100.20
2582.00,100.20
2581.00,100.20
2580.00,100.20
2579.00,100.20
2578.00,100.20
2577.00,100.20
2576.00,100.20
2575.00,100.20
2574.00,100.20
2573.00,100.20
2572.00,100.20
2571.00,100.20
2570.00,100.20
2569.00,100.20
2568.00,100.20
2567.00,100.20
2566.00,100.20
2565.00,100.20
2564.00,100.20
2563.00,100.20
2562.00,100.20
2561.00,100.20
2560.00,100.20
2559.00,100.20
2558.00,100.20
2557.00,100.20
2556.00,100.20
2555.00,100.20
2554.00,100.20
2553.00,100.20
2552.00,100.20
2551.00,100.20
2550.00,100.20
2549.00,100.20
2548.00,100.20
2547.00,100.20
2546.00,100.20
2545.00,100.20
2544.00,100.20
2543.00,100.20
2542.00,100.20
2541.00,100.20
2540.00,100.20
2539.00,100.20
2538.00,100.20
2537.00,100.20
2536.00,100.20
2535.00,100.20
2534.00,100.20
2533.00,100.20
2532.00,100.20
2531.00,100.20
2530.00,100.20
2529.00,100.20
2528.00,100.20
2527.00,100.20
2526.00,100.20
2525.00,100.20
2524.00,100.20
2523.00,100.20
2522.00,100.20
2521.00,100.20
2520.00,100.20
2519.00,100.20
2518.00,100.20
2517.00,100.20
2516.00,100.20
2515.00,100.20
2514.00,100.20
2513.00,100.20
2512.00,100.20
2511.00,100.20
2510.00,100.20
2509.00,100.20
2508.00,100.20
2507.00,100.20
2506.00,100.20
2505.00,100.20
2504.00,100.20
2503.00,100.20
2502.00,100.20
2501.00,100.20
2500.00,100.20
2499.00,100.20
2498.00,100.20
2497.00,100.20
2496.00,100.20
2495.00,100.20
2494.00,100.20
2493.00,100.20
2492.00,100.20
2491.00,100.20
2490.00,100.20
2489.00,100.20
2488.00,100.20
2487.00,100.20
2486.00,100.20
2485.00,100.20
2484.00,100.20
2483.00,100.20
2482.00,100.20
2481.00,100.20
2480.00,100.20
2479.00,100.20
2478.00,100.20
2477.00,100.20
2476.00,100.20
2475.00,100.20
2474.00,100.20
2473.00,100.20
2472.00,100.20
2471.00,100.20
2470.00,100.20
2469.00,100.20
2468.00,100.20
2467.00,100.20
2466.00,100.20
2465.00,100.20
2464.00,100.20
2463.00,100.20
2462.00,100.20
2461.00,100.20
2460.00,100.20
2459.00,100.20
2458.00,100.20
2457.00,100.20
2456.00,100.20
2455.00,100.20
2454.00,100.20
2453.00,100.20
2452.00,100.20
2451.00,100.20
2450.00,100.20
2449.00,100.20
2448.00,100.20
2447.00,100.20
2446.00,100.20
2445.00,100.20
2444.00,100.20
2443.00,100.20
2442.00,100.20
2441.00,100.20
2440.00,100.20
2439.00,100.20
2438.00,100.20
2437.00,100.20
2436.00,100.20
2435.00,100.20
2434.00,100.20
2433.00,100.20
2432.00,100.20
2431.00,100.20
2430.00,100.20
2429.00,100.20
2428.00,100.20
2427.00,100.20
2426.00,100.20
2425.00,100.20
2424.00,100.20
2423.00,100.20
2422.00,100.20
2421.00,100.20
2420.00,100.20
2419.00,100.20
2418.00,100.20
2417.00,100.20
2416.00,100.20
2415.00,100.20
2414.00,100.20
2413.00,100.20
2412.00,100.20
2411.00,100.20
2410.00,100.20
2409.00,100.20
2408.00,100.20
2407.00,100.20
2406.00,100.20
2405.00,100.20
2404.00,100.20
2403.00,100.20
2402.00,100.20
2401.00,100.20
2400.00,100.20
2399.00,100.20
2398.00,100.20
2397.00,100.20
2396.00,100.20
2395.00,100.20
2394.00,100.20
2393.00,100.20
2392.00,100.20
2391.00,100.20
2390.00,100.20
2389.00,100.20
2388.00,100.20
2387.00,100.19
2386.00,100.19
2385.00,100.19
2384.00,100.19
2383.00,100.19
2382.00,100.19
2381.00,100.19
2380.00,100.19
2379.00,100.20
2378.00,100.20
2377.00,100.20
2376.00,100.20
2375.00,100.20
2374.00,100.19
2373.00,100.19
2372.00,100.18
2371.00,100.18
2370.00,100.18
2369.00,100.19
2368.00,100.19
2367.00,100.19
2366.00,100.18
2365.00,100.18
2364.00,100.18
2363.00,100.18
2362.00,100.18
2361.00,100.18
2360.00,100.18
2359.00,100.18
2358.00,100.18
2357.00,100.17
2356.00,100.17
2355.00,100.16
2354.00,100.17
2353.00,100.17
2352.00,100.18
2351.00,100.19
2350.00,100.18
2349.00,100.16
2348.00,100.15
2347.00,100.14
2346.00,100.15
2345.00,100.16
2344.00,100.17
2343.00,100.17
2342.00,100.16
2341.00,100.16
2340.00,100.16
2339.00,100.16
2338.00,100.16
2337.00,100.16
2336.00,100.16
2335.00,100.16
2334.00,100.16
2333.00,100.16
2332.00,100.16
2331.00,100.16
2330.00,100.16
2329.00,100.16
2328.00,100.16
2327.00,100.16
2326.00,100.15
2325.00,100.15
2324.00,100.15
2323.00,100.16
2322.00,100.16
2321.00,100.16
2320.00,100.16
2319.00,100.16
2318.00,100.16
2317.00,100.16
2316.00,100.16
2315.00,100.16
2314.00,100.16
2313.00,100.17
2312.00,100.17
2311.00,100.17
2310.00,100.17
2309.00,100.17
2308.00,100.17
2307.00,100.17
2306.00,100.17
2305.00,100.17
2304.00,100.17
2303.00,100.18
2302.00,100.18
2301.00,100.18
2300.00,100.18
2299.00,100.18
2298.00,100.19
2297.00,100.19
2296.00,100.19
2295.00,100.19
2294.00,100.19
2293.00,100.19
2292.00,100.19
2291.00,100.19
2290.00,100.19
2289.00,100.19
2288.00,100.19
2287.00,100.19
2286.00,100.19
2285.00,100.19
2284.00,100.19
2283.00,100.19
2282.00,100.19
2281.00,100.19
2280.00,100.19
2279.00,100.19
2278.00,100.19
2277.00,100.20
2276.00,100.20
2275.00,100.20
2274.00,100.20
2273.00,100.20
2272.00,100.20
2271.00,100.20
2270.00,100.20
2269.00,100.20
2268.00,100.20
2267.00,100.20
2266.00,100.20
2265.00,100.20
2264.00,100.20
2263.00,100.20
2262.00,100.20
2261.00,100.20
2260.00,100.20
2259.00,100.20
2258.00,100.20
2257.00,100.20
2256.00,100.20
2255.00,100.20
2254.00,100.20
2253.00,100.20
2252.00,100.20
2251.00,100.20
2250.00,100.20
2249.00,100.20
2248.00,100.20
2247.00,100.20
2246.00,100.20
2245.00,100.20
2244.00,100.20
2243.00,100.20
2242.00,100.20
2241.00,100.19
2240.00,100.20
2239.00,100.20
2238.00,100.20
2237.00,100.20
2236.00,100.20
2235.00,100.20
2234.00,100.20
2233.00,100.20
2232.00,100.20
2231.00,100.20
2230.00,100.20
2229.00,100.20
2228.00,100.20
2227.00,100.20
2226.00,100.20
2225.00,100.20
2224.00,100.20
2223.00,100.20
2222.00,100.20
2221.00,100.20
2220.00,100.20
2219.00,100.20
2218.00,100.19
2217.00,100.19
2216.00,100.19
2215.00,100.19
2214.00,100.19
2213.00,100.20
2212.00,100.20
2211.00,100.20
2210.00,100.20
2209.00,100.20
2208.00,100.20
2207.00,100.20
2206.00,100.20
2205.00,100.20
2204.00,100.20
2203.00,100.20
2202.00,100.20
2201.00,100.20
2200.00,100.20
2199.00,100.20
2198.00,100.20
2197.00,100.20
2196.00,100.20
2195.00,100.20
2194.00,100.20
2193.00,100.20
2192.00,100.20
2191.00,100.19
2190.00,100.19
2189.00,100.19
2188.00,100.19
2187.00,100.19
2186.00,100.19
2185.00,100.19
2184.00,100.19
2183.00,100.19
2182.00,100.19
2181.00,100.19
2180.00,100.19
2179.00,100.19
2178.00,100.19
2177.00,100.19
2176.00,100.19
2175.00,100.19
2174.00,100.19
2173.00,100.20
2172.00,100.20
2171.00,100.20
2170.00,100.20
2169.00,100.20
2168.00,100.19
2167.00,100.19
2166.00,100.19
2165.00,100.20
2164.00,100.20
2163.00,100.20
2162.00,100.20
2161.00,100.20
2160.00,100.20
2159.00,100.19
2158.00,100.19
2157.00,100.19
2156.00,100.19
2155.00,100.19
2154.00,100.19
2153.00,100.19
2152.00,100.19
2151.00,100.19
2150.00,100.19
2149.00,100.20
2148.00,100.20
2147.00,100.19
2146.00,100.19
2145.00,100.19
2144.00,100.19
2143.00,100.20
2142.00,100.20
2141.00,100.20
2140.00,100.20
2139.00,100.20
2138.00,100.20
2137.00,100.20
2136.00,100.20
2135.00,100.20
2134.00,100.19
2133.00,100.19
2132.00,100.20
2131.00,100.20
2130.00,100.20
2129.00,100.20
2128.00,100.19
2127.00,100.19
2126.00,100.19
2125.00,100.20
2124.00,100.20
2123.00,100.20
2122.00,100.19
2121.00,100.19
2120.00,100.20
2119.00,100.19
2118.00,100.19
2117.00,100.19
2116.00,100.20
2115.00,100.20
2114.00,100.19
2113.00,100.19
2112.00,100.19
2111.00,100.19
2110.00,100.20
2109.00,100.20
2108.00,100.20
2107.00,100.20
2106.00,100.20
2105.00,100.20
2104.00,100.20
2103.00,100.20
2102.00,100.20
2101.00,100.20
2100.00,100.19
2099.00,100.19
2098.00,100.20
2097.00,100.20
2096.00,100.20
2095.00,100.19
2094.00,100.19
2093.00,100.19
2092.00,100.19
2091.00,100.19
2090.00,100.19
2089.00,100.20
2088.00,100.20
2087.00,100.20
2086.00,100.20
2085.00,100.19
2084.00,100.19
2083.00,100.19
2082.00,100.19
2081.00,100.20
2080.00,100.20
2079.00,100.19
2078.00,100.19
2077.00,100.19
2076.00,100.19
2075.00,100.20
2074.00,100.20
2073.00,100.20
2072.00,100.20
2071.00,100.20
2070.00,100.20
2069.00,100.20
2068.00,100.20
2067.00,100.20
2066.00,100.20
2065.00,100.20
2064.00,100.20
2063.00,100.20
2062.00,100.20
2061.00,100.19
2060.00,100.19
2059.00,100.19
2058.00,100.19
2057.00,100.19
2056.00,100.19
2055.00,100.19
2054.00,100.20
2053.00,100.20
2052.00,100.20
2051.00,100.20
2050.00,100.20
2049.00,100.20
2048.00,100.20
2047.00,100.19
2046.00,100.19
2045.00,100.20
2044.00,100.20
2043.00,100.20
2042.00,100.20
2041.00,100.20
2040.00,100.20
2039.00,100.20
2038.00,100.20
2037.00,100.20
2036.00,100.20
2035.00,100.20
2034.00,100.20
2033.00,100.20
2032.00,100.20
2031.00,100.19
2030.00,100.19
2029.00,100.19
2028.00,100.19
2027.00,100.20
2026.00,100.20
2025.00,100.19
2024.00,100.19
2023.00,100.19
2022.00,100.19
2021.00,100.19
2020.00,100.19
2019.00,100.19
2018.00,100.20
2017.00,100.20
2016.00,100.19
2015.00,100.19
2014.00,100.19
2013.00,100.19
2012.00,100.19
2011.00,100.19
2010.00,100.20
2009.00,100.20
2008.00,100.20
2007.00,100.20
2006.00,100.20
2005.00,100.19
2004.00,100.19
2003.00,100.19
2002.00,100.19
2001.00,100.19
2000.00,100.19
1999.00,100.19
1998.00,100.19
1997.00,100.19
1996.00,100.19
1995.00,100.19
1994.00,100.20
1993.00,100.20
1992.00,100.20
1991.00,100.19
1990.00,100.19
1989.00,100.19
1988.00,100.19
1987.00,100.19
1986.00,100.19
1985.00,100.20
1984.00,100.20
1983.00,100.20
1982.00,100.20
1981.00,100.19
1980.00,100.19
1979.00,100.19
1978.00,100.19
1977.00,100.19
1976.00,100.19
1975.00,100.19
1974.00,100.19
1973.00,100.19
1972.00,100.19
1971.00,100.19
1970.00,100.19
1969.00,100.19
1968.00,100.20
1967.00,100.20
1966.00,100.20
1965.00,100.19
1964.00,100.19
1963.00,100.19
1962.00,100.19
1961.00,100.19
1960.00,100.19
1959.00,100.19
1958.00,100.19
1957.00,100.20
1956.00,100.20
1955.00,100.20
1954.00,100.20
1953.00,100.20
1952.00,100.20
1951.00,100.20
1950.00,100.19
1949.00,100.19
1948.00,100.19
1947.00,100.19
1946.00,100.19
1945.00,100.19
1944.00,100.19
1943.00,100.20
1942.00,100.20
1941.00,100.19
1940.00,100.19
1939.00,100.19
1938.00,100.19
1937.00,100.19
1936.00,100.19
1935.00,100.19
1934.00,100.20
1933.00,100.20
1932.00,100.20
1931.00,100.19
1930.00,100.19
1929.00,100.19
1928.00,100.19
1927.00,100.19
1926.00,100.19
1925.00,100.20
1924.00,100.20
1923.00,100.20
1922.00,100.19
1921.00,100.19
1920.00,100.19
1919.00,100.19
1918.00,100.19
1917.00,100.19
1916.00,100.19
1915.00,100.18
1914.00,100.18
1913.00,100.19
1912.00,100.19
1911.00,100.19
1910.00,100.19
1909.00,100.20
1908.00,100.20
1907.00,100.19
1906.00,100.19
1905.00,100.19
1904.00,100.19
1903.00,100.19
1902.00,100.19
1901.00,100.19
1900.00,100.19
1899.00,100.19
1898.00,100.19
1897.00,100.19
1896.00,100.20
1895.00,100.19
1894.00,100.19
1893.00,100.19
1892.00,100.19
1891.00,100.19
1890.00,100.19
1889.00,100.19
1888.00,100.19
1887.00,100.19
1886.00,100.19
1885.00,100.19
1884.00,100.19
1883.00,100.19
1882.00,100.19
1881.00,100.19
1880.00,100.19
1879.00,100.19
1878.00,100.19
1877.00,100.19
1876.00,100.19
1875.00,100.19
1874.00,100.19
1873.00,100.19
1872.00,100.19
1871.00,100.19
1870.00,100.19
1869.00,100.19
1868.00,100.19
1867.00,100.19
1866.00,100.18
1865.00,100.18
1864.00,100.18
1863.00,100.18
1862.00,100.19
1861.00,100.19
1860.00,100.20
1859.00,100.20
1858.00,100.19
1857.00,100.19
1856.00,100.19
1855.00,100.20
1854.00,100.19
1853.00,100.19
1852.00,100.19
1851.00,100.19
1850.00,100.19
1849.00,100.19
1848.00,100.19
1847.00,100.19
1846.00,100.19
1845.00,100.19
1844.00,100.19
1843.00,100.19
1842.00,100.18
1841.00,100.18
1840.00,100.18
1839.00,100.19
1838.00,100.19
1837.00,100.19
1836.00,100.19
1835.00,100.19
1834.00,100.19
1833.00,100.19
1832.00,100.19
1831.00,100.19
1830.00,100.20
1829.00,100.20
1828.00,100.19
1827.00,100.18
1826.00,100.18
1825.00,100.18
1824.00,100.19
1823.00,100.18
1822.00,100.18
1821.00,100.18
1820.00,100.19
1819.00,100.19
1818.00,100.19
1817.00,100.19
1816.00,100.19
1815.00,100.19
1814.00,100.19
1813.00,100.19
1812.00,100.19
1811.00,100.19
1810.00,100.19
1809.00,100.18
1808.00,100.19
1807.00,100.19
1806.00,100.18
1805.00,100.18
1804.00,100.19
1803.00,100.19
1802.00,100.18
1801.00,100.18
1800.00,100.18
1799.00,100.18
1798.00,100.18
1797.00,100.18
1796.00,100.19
1795.00,100.19
1794.00,100.18
1793.00,100.18
1792.00,100.18
1791.00,100.18
1790.00,100.18
1789.00,100.17
1788.00,100.17
1787.00,100.17
1786.00,100.17
1785.00,100.17
1784.00,100.17
1783.00,100.18
1782.00,100.18
1781.00,100.18
1780.00,100.18
1779.00,100.18
1778.00,100.18
1777.00,100.18
1776.00,100.18
1775.00,100.18
1774.00,100.18
1773.00,100.17
1772.00,100.18
1771.00,100.18
1770.00,100.17
1769.00,100.16
1768.00,100.16
1767.00,100.17
1766.00,100.17
1765.00,100.17
1764.00,100.18
1763.00,100.18
1762.00,100.19
1761.00,100.19
1760.00,100.18
1759.00,100.18
1758.00,100.18
1757.00,100.17
1756.00,100.17
1755.00,100.16
1754.00,100.15
1753.00,100.13
1752.00,100.12
1751.00,100.13
1750.00,100.14
1749.00,100.15
1748.00,100.16
1747.00,100.16
1746.00,100.17
1745.00,100.17
1744.00,100.17
1743.00,100.18
1742.00,100.18
1741.00,100.18
1740.00,100.18
1739.00,100.18
1738.00,100.18
1737.00,100.17
1736.00,100.16
1735.00,100.14
1734.00,100.14
1733.00,100.14
1732.00,100.15
1731.00,100.15
1730.00,100.16
1729.00,100.17
1728.00,100.18
1727.00,100.18
1726.00,100.18
1725.00,100.18
1724.00,100.18
1723.00,100.18
1722.00,100.18
1721.00,100.18
1720.00,100.17
1719.00,100.17
1718.00,100.16
1717.00,100.15
1716.00,100.16
1715.00,100.16
1714.00,100.16
1713.00,100.16
1712.00,100.17
1711.00,100.17
1710.00,100.17
1709.00,100.18
1708.00,100.18
1707.00,100.18
1706.00,100.18
1705.00,100.19
1704.00,100.19
1703.00,100.18
1702.00,100.17
1701.00,100.17
1700.00,100.18
1699.00,100.17
1698.00,100.15
1697.00,100.14
1696.00,100.14
1695.00,100.16
1694.00,100.17
1693.00,100.16
1692.00,100.16
1691.00,100.16
1690.00,100.17
1689.00,100.17
1688.00,100.17
1687.00,100.16
1686.00,100.15
1685.00,100.15
1684.00,100.16
1683.00,100.17
1682.00,100.17
1681.00,100.17
1680.00,100.16
1679.00,100.17
1678.00,100.17
1677.00,100.17
1676.00,100.17
1675.00,100.17
1674.00,100.17
1673.00,100.17
1672.00,100.16
1671.00,100.16
1670.00,100.17
1669.00,100.18
1668.00,100.18
1667.00,100.18
1666.00,100.18
1665.00,100.18
1664.00,100.18
1663.00,100.18
1662.00,100.18
1661.00,100.17
1660.00,100.16
1659.00,100.16
1658.00,100.17
1657.00,100.18
1656.00,100.19
1655.00,100.19
1654.00,100.20
1653.00,100.20
1652.00,100.19
1651.00,100.19
1650.00,100.17
1649.00,100.16
1648.00,100.16
1647.00,100.16
1646.00,100.16
1645.00,100.16
1644.00,100.16
1643.00,100.16
1642.00,100.16
1641.00,100.16
1640.00,100.17
1639.00,100.17
1638.00,100.17
1637.00,100.17
1636.00,100.17
1635.00,100.17
1634.00,100.17
1633.00,100.17
1632.00,100.17
1631.00,100.17
1630.00,100.17
1629.00,100.17
1628.00,100.18
1627.00,100.18
1626.00,100.18
1625.00,100.18
1624.00,100.18
1623.00,100.18
1622.00,100.18
1621.00,100.18
1620.00,100.18
1619.00,100.18
1618.00,100.19
1617.00,100.19
1616.00,100.19
1615.00,100.19
1614.00,100.18
1613.00,100.18
1612.00,100.18
1611.00,100.18
1610.00,100.18
1609.00,100.19
1608.00,100.18
1607.00,100.18
1606.00,100.19
1605.00,100.19
1604.00,100.19
1603.00,100.18
1602.00,100.19
1601.00,100.19
1600.00,100.19
1599.00,100.19
1598.00,100.19
1597.00,100.19
1596.00,100.19
1595.00,100.19
1594.00,100.19
1593.00,100.19
1592.00,100.19
1591.00,100.19
1590.00,100.19
1589.00,100.19
1588.00,100.19
1587.00,100.19
1586.00,100.19
1585.00,100.19
1584.00,100.19
1583.00,100.19
1582.00,100.19
1581.00,100.19
1580.00,100.20
1579.00,100.20
1578.00,100.20
1577.00,100.20
1576.00,100.19
1575.00,100.19
1574.00,100.19
1573.00,100.19
1572.00,100.18
1571.00,100.18
1570.00,100.19
1569.00,100.19
1568.00,100.18
1567.00,100.17
1566.00,100.16
1565.00,100.17
1564.00,100.17
1563.00,100.18
1562.00,100.19
1561.00,100.19
1560.00,100.18
1559.00,100.16
1558.00,100.16
1557.00,100.16
1556.00,100.15
1555.00,100.14
1554.00,100.14
1553.00,100.15
1552.00,100.15
1551.00,100.15
1550.00,100.15
1549.00,100.15
1548.00,100.15
1547.00,100.14
1546.00,100.15
1545.00,100.15
1544.00,100.16
1543.00,100.16
1542.00,100.15
1541.00,100.15
1540.00,100.15
1539.00,100.15
1538.00,100.16
1537.00,100.16
1536.00,100.16
1535.00,100.16
1534.00,100.16
1533.00,100.16
1532.00,100.16
1531.00,100.16
1530.00,100.16
1529.00,100.16
1528.00,100.16
1527.00,100.16
1526.00,100.15
1525.00,100.15
1524.00,100.15
1523.00,100.15
1522.00,100.15
1521.00,100.15
1520.00,100.16
1519.00,100.16
1518.00,100.15
1517.00,100.15
1516.00,100.15
1515.00,100.15
1514.00,100.14
1513.00,100.14
1512.00,100.14
1511.00,100.15
1510.00,100.16
1509.00,100.16
1508.00,100.16
1507.00,100.16
1506.00,100.15
1505.00,100.15
1504.00,100.16
1503.00,100.16
1502.00,100.16
1501.00,100.16
1500.00,100.17
1499.00,100.18
1498.00,100.18
1497.00,100.17
1496.00,100.17
1495.00,100.18
1494.00,100.18
1493.00,100.17
1492.00,100.17
1491.00,100.17
1490.00,100.17
1489.00,100.17
1488.00,100.17
1487.00,100.17
1486.00,100.17
1485.00,100.18
1484.00,100.18
1483.00,100.18
1482.00,100.18
1481.00,100.18
1480.00,100.18
1479.00,100.18
1478.00,100.18
1477.00,100.17
1476.00,100.17
1475.00,100.17
1474.00,100.15
1473.00,100.14
1472.00,100.15
1471.00,100.16
1470.00,100.16
1469.00,100.17
1468.00,100.18
1467.00,100.18
1466.00,100.19
1465.00,100.18
1464.00,100.18
1463.00,100.18
1462.00,100.17
1461.00,100.17
1460.00,100.18
1459.00,100.18
1458.00,100.18
1457.00,100.17
1456.00,100.16
1455.00,100.16
1454.00,100.16
1453.00,100.17
1452.00,100.17
1451.00,100.18
1450.00,100.18
1449.00,100.18
1448.00,100.18
1447.00,100.19
1446.00,100.19
1445.00,100.19
1444.00,100.19
1443.00,100.19
1442.00,100.19
1441.00,100.19
1440.00,100.19
1439.00,100.19
1438.00,100.19
1437.00,100.18
1436.00,100.18
1435.00,100.18
1434.00,100.18
1433.00,100.18
1432.00,100.18
1431.00,100.18
1430.00,100.19
1429.00,100.19
1428.00,100.18
1427.00,100.18
1426.00,100.18
1425.00,100.18
1424.00,100.18
1423.00,100.18
1422.00,100.18
1421.00,100.18
1420.00,100.18
1419.00,100.18
1418.00,100.18
1417.00,100.17
1416.00,100.17
1415.00,100.17
1414.00,100.19
1413.00,100.19
1412.00,100.19
1411.00,100.19
1410.00,100.19
1409.00,100.19
1408.00,100.19
1407.00,100.19
1406.00,100.19
1405.00,100.19
1404.00,100.18
1403.00,100.18
1402.00,100.18
1401.00,100.18
1400.00,100.18
1399.00,100.17
1398.00,100.18
1397.00,100.18
1396.00,100.18
1395.00,100.18
1394.00,100.18
1393.00,100.18
1392.00,100.18
1391.00,100.18
1390.00,100.19
1389.00,100.19
1388.00,100.19
1387.00,100.19
1386.00,100.20
1385.00,100.20
1384.00,100.20
1383.00,100.19
1382.00,100.19
1381.00,100.19
1380.00,100.19
1379.00,100.19
1378.00,100.19
1377.00,100.18
1376.00,100.19
1375.00,100.19
1374.00,100.19
1373.00,100.19
1372.00,100.19
1371.00,100.19
1370.00,100.19
1369.00,100.19
1368.00,100.19
1367.00,100.19
1366.00,100.19
1365.00,100.19
1364.00,100.20
1363.00,100.20
1362.00,100.20
1361.00,100.19
1360.00,100.19
1359.00,100.19
1358.00,100.19
1357.00,100.19
1356.00,100.19
1355.00,100.19
1354.00,100.20
1353.00,100.20
1352.00,100.20
1351.00,100.20
1350.00,100.20
1349.00,100.20
1348.00,100.20
1347.00,100.20
1346.00,100.20
1345.00,100.20
1344.00,100.20
1343.00,100.20
1342.00,100.20
1341.00,100.20
1340.00,100.20
1339.00,100.20
1338.00,100.20
1337.00,100.20
1336.00,100.20
1335.00,100.19
1334.00,100.20
1333.00,100.20
1332.00,100.20
1331.00,100.20
1330.00,100.20
1329.00,100.20
1328.00,100.20
1327.00,100.20
1326.00,100.20
1325.00,100.20
1324.00,100.20
1323.00,100.20
1322.00,100.20
1321.00,100.20
1320.00,100.19
1319.00,100.19
1318.00,100.19
1317.00,100.19
1316.00,100.19
1315.00,100.19
1314.00,100.20
1313.00,100.20
1312.00,100.20
1311.00,100.20
1310.00,100.20
1309.00,100.20
1308.00,100.20
1307.00,100.20
1306.00,100.20
1305.00,100.20
1304.00,100.20
1303.00,100.20
1302.00,100.20
1301.00,100.20
1300.00,100.20
1299.00,100.20
1298.00,100.20
1297.00,100.20
1296.00,100.20
1295.00,100.20
1294.00,100.20
1293.00,100.20
1292.00,100.20
1291.00,100.20
1290.00,100.20
1289.00,100.21
1288.00,100.20
1287.00,100.20
1286.00,100.20
1285.00,100.20
1284.00,100.20
1283.00,100.20
1282.00,100.20
1281.00,100.20
1280.00,100.20
1279.00,100.20
1278.00,100.20
1277.00,100.20
1276.00,100.20
1275.00,100.20
1274.00,100.20
1273.00,100.20
1272.00,100.20
1271.00,100.20
1270.00,100.20
1269.00,100.21
1268.00,100.21
1267.00,100.20
1266.00,100.20
1265.00,100.20
1264.00,100.21
1263.00,100.21
1262.00,100.21
1261.00,100.21
1260.00,100.21
1259.00,100.21
1258.00,100.21
1257.00,100.21
1256.00,100.21
1255.00,100.22
1254.00,100.22
1253.00,100.22
1252.00,100.22
1251.00,100.22
1250.00,100.22
1249.00,100.22
1248.00,100.22
1247.00,100.22
1246.00,100.22
1245.00,100.22
1244.00,100.21
1243.00,100.21
1242.00,100.21
1241.00,100.21
1240.00,100.21
1239.00,100.21
1238.00,100.21
1237.00,100.21
1236.00,100.21
1235.00,100.21
1234.00,100.21
1233.00,100.21
1232.00,100.21
1231.00,100.21
1230.00,100.20
1229.00,100.20
1228.00,100.20
1227.00,100.20
1226.00,100.20
1225.00,100.20
1224.00,100.20
1223.00,100.20
1222.00,100.20
1221.00,100.20
1220.00,100.20
1219.00,100.20
1218.00,100.20
1217.00,100.21
1216.00,100.21
1215.00,100.21
1214.00,100.21
1213.00,100.21
1212.00,100.21
1211.00,100.21
1210.00,100.21
1209.00,100.21
1208.00,100.21
1207.00,100.21
1206.00,100.21
1205.00,100.21
1204.00,100.21
1203.00,100.21
1202.00,100.21
1201.00,100.21
1200.00,100.21
1199.00,100.21
1198.00,100.21
1197.00,100.21
1196.00,100.21
1195.00,100.21
1194.00,100.21
1193.00,100.21
1192.00,100.21
1191.00,100.21
1190.00,100.21
1189.00,100.21
1188.00,100.21
1187.00,100.21
1186.00,100.21
1185.00,100.21
1184.00,100.22
1183.00,100.22
1182.00,100.22
1181.00,100.21
1180.00,100.21
1179.00,100.22
1178.00,100.22
1177.00,100.22
1176.00,100.22
1175.00,100.22
1174.00,100.22
1173.00,100.22
1172.00,100.22
1171.00,100.21
1170.00,100.21
1169.00,100.21
1168.00,100.21
1167.00,100.21
1166.00,100.21
1165.00,100.21
1164.00,100.21
1163.00,100.21
1162.00,100.21
1161.00,100.21
1160.00,100.21
1159.00,100.21
1158.00,100.21
1157.00,100.21
1156.00,100.21
1155.00,100.22
1154.00,100.22
1153.00,100.22
1152.00,100.22
1151.00,100.22
1150.00,100.22
1149.00,100.22
1148.00,100.22
1147.00,100.22
1146.00,100.22
1145.00,100.22
1144.00,100.22
1143.00,100.22
1142.00,100.22
1141.00,100.22
1140.00,100.22
1139.00,100.22
1138.00,100.22
1137.00,100.22
1136.00,100.22
1135.00,100.22
1134.00,100.22
1133.00,100.22
1132.00,100.22
1131.00,100.22
1130.00,100.22
1129.00,100.22
1128.00,100.22
1127.00,100.22
1126.00,100.22
1125.00,100.22
1124.00,100.22
1123.00,100.22
1122.00,100.22
1121.00,100.22
1120.00,100.23
1119.00,100.23
1118.00,100.23
1117.00,100.23
1116.00,100.23
1115.00,100.22
1114.00,100.23
1113.00,100.23
1112.00,100.23
1111.00,100.23
1110.00,100.22
1109.00,100.22
1108.00,100.22
1107.00,100.22
1106.00,100.22
1105.00,100.22
1104.00,100.23
1103.00,100.23
1102.00,100.22
1101.00,100.22
1100.00,100.22
1099.00,100.22
1098.00,100.22
1097.00,100.22
1096.00,100.22
1095.00,100.22
1094.00,100.22
1093.00,100.22
1092.00,100.22
1091.00,100.22
1090.00,100.22
1089.00,100.22
1088.00,100.22
1087.00,100.22
1086.00,100.22
1085.00,100.22
1084.00,100.22
1083.00,100.22
1082.00,100.22
1081.00,100.22
1080.00,100.22
1079.00,100.22
1078.00,100.22
1077.00,100.22
1076.00,100.22
1075.00,100.21
1074.00,100.21
1073.00,100.21
1072.00,100.21
1071.00,100.21
1070.00,100.21
1069.00,100.21
1068.00,100.21
1067.00,100.21
1066.00,100.21
1065.00,100.21
1064.00,100.21
1063.00,100.20
1062.00,100.20
1061.00,100.20
1060.00,100.20
1059.00,100.20
1058.00,100.20
1057.00,100.20
1056.00,100.20
1055.00,100.21
1054.00,100.21
1053.00,100.21
1052.00,100.21
1051.00,100.21
1050.00,100.21
1049.00,100.21
1048.00,100.21
1047.00,100.20
1046.00,100.20
1045.00,100.20
1044.00,100.20
1043.00,100.20
1042.00,100.20
1041.00,100.21
1040.00,100.21
1039.00,100.21
1038.00,100.21
1037.00,100.20
1036.00,100.20
1035.00,100.21
1034.00,100.21
1033.00,100.21
1032.00,100.21
1031.00,100.21
1030.00,100.20
1029.00,100.20
1028.00,100.20
1027.00,100.20
1026.00,100.20
1025.00,100.20
1024.00,100.20
1023.00,100.20
1022.00,100.20
1021.00,100.20
1020.00,100.20
1019.00,100.20
1018.00,100.20
1017.00,100.20
1016.00,100.19
1015.00,100.19
1014.00,100.19
1013.00,100.19
1012.00,100.19
1011.00,100.19
1010.00,100.19
1009.00,100.19
1008.00,100.19
1007.00,100.19
1006.00,100.19
1005.00,100.19
1004.00,100.19
1003.00,100.19
1002.00,100.19
1001.00,100.19
1000.00,100.19
999.00,100.19
998.00,100.19
997.00,100.19
996.00,100.19
995.00,100.19
994.00,100.19
993.00,100.20
992.00,100.20
991.00,100.20
990.00,100.20
989.00,100.20
988.00,100.19
987.00,100.19
986.00,100.20
985.00,100.20
984.00,100.20
983.00,100.20
982.00,100.19
981.00,100.19
980.00,100.19
979.00,100.20
978.00,100.20
977.00,100.20
976.00,100.20
975.00,100.20
974.00,100.20
973.00,100.20
972.00,100.20
971.00,100.20
970.00,100.20
969.00,100.20
968.00,100.19
967.00,100.19
966.00,100.19
965.00,100.19
964.00,100.19
963.00,100.20
962.00,100.20
961.00,100.20
960.00,100.20
959.00,100.20
958.00,100.20
957.00,100.20
956.00,100.20
955.00,100.20
954.00,100.21
953.00,100.20
952.00,100.20
951.00,100.20
950.00,100.20
949.00,100.20
948.00,100.21
947.00,100.21
946.00,100.21
945.00,100.21
944.00,100.21
943.00,100.21
942.00,100.21
941.00,100.21
940.00,100.21
939.00,100.21
938.00,100.21
937.00,100.21
936.00,100.21
935.00,100.21
934.00,100.21
933.00,100.21
932.00,100.21
931.00,100.21
930.00,100.21
929.00,100.21
928.00,100.21
927.00,100.21
926.00,100.21
925.00,100.21
924.00,100.21
923.00,100.21
922.00,100.22
921.00,100.22
920.00,100.22
919.00,100.21
918.00,100.21
917.00,100.21
916.00,100.22
915.00,100.22
914.00,100.22
913.00,100.22
912.00,100.22
911.00,100.22
910.00,100.22
909.00,100.22
908.00,100.22
907.00,100.22
906.00,100.22
905.00,100.21
904.00,100.21
903.00,100.21
902.00,100.20
901.00,100.20
900.00,100.20
899.00,100.21
898.00,100.21
897.00,100.21
896.00,100.21
895.00,100.21
894.00,100.21
893.00,100.21
892.00,100.21
891.00,100.21
890.00,100.21
889.00,100.22
888.00,100.22
887.00,100.22
886.00,100.21
885.00,100.21
884.00,100.21
883.00,100.21
882.00,100.21
881.00,100.21
880.00,100.20
879.00,100.20
878.00,100.20
877.00,100.20
876.00,100.20
875.00,100.20
874.00,100.20
873.00,100.20
872.00,100.20
871.00,100.21
870.00,100.21
869.00,100.21
868.00,100.20
867.00,100.20
866.00,100.20
865.00,100.20
864.00,100.20
863.00,100.20
862.00,100.20
861.00,100.20
860.00,100.20
859.00,100.20
858.00,100.20
857.00,100.20
856.00,100.20
855.00,100.20
854.00,100.20
853.00,100.20
852.00,100.20
851.00,100.21
850.00,100.21
849.00,100.21
848.00,100.20
847.00,100.20
846.00,100.20
845.00,100.20
844.00,100.20
843.00,100.20
842.00,100.21
841.00,100.20
840.00,100.20
839.00,100.20
838.00,100.20
837.00,100.20
836.00,100.20
835.00,100.20
834.00,100.20
833.00,100.20
832.00,100.20
831.00,100.20
830.00,100.20
829.00,100.20
828.00,100.20
827.00,100.20
826.00,100.20
825.00,100.20
824.00,100.20
823.00,100.20
822.00,100.20
821.00,100.20
820.00,100.20
819.00,100.20
818.00,100.20
817.00,100.20
816.00,100.20
815.00,100.20
814.00,100.20
813.00,100.20
812.00,100.20
811.00,100.20
810.00,100.20
809.00,100.20
808.00,100.20
807.00,100.20
806.00,100.20
805.00,100.20
804.00,100.21
803.00,100.21
802.00,100.21
801.00,100.20
800.00,100.20
799.00,100.20
798.00,100.20
797.00,100.20
796.00,100.20
795.00,100.20
794.00,100.20
793.00,100.20
792.00,100.21
791.00,100.21
790.00,100.21
789.00,100.21
788.00,100.20
787.00,100.19
786.00,100.19
785.00,100.20
784.00,100.20
783.00,100.20
782.00,100.19
781.00,100.19
780.00,100.19
779.00,100.19
778.00,100.19
777.00,100.19
776.00,100.19
775.00,100.20
774.00,100.20
773.00,100.20
772.00,100.20
771.00,100.19
770.00,100.19
769.00,100.20
768.00,100.20
767.00,100.20
766.00,100.20
765.00,100.20
764.00,100.20
763.00,100.20
762.00,100.20
761.00,100.20
760.00,100.20
759.00,100.20
758.00,100.21
757.00,100.20
756.00,100.20
755.00,100.19
754.00,100.19
753.00,100.19
752.00,100.20
751.00,100.20
750.00,100.20
749.00,100.19
748.00,100.20
747.00,100.20
746.00,100.20
745.00,100.20
744.00,100.20
743.00,100.20
742.00,100.20
741.00,100.19
740.00,100.19
739.00,100.18
738.00,100.19
737.00,100.19
736.00,100.19
735.00,100.19
734.00,100.19
733.00,100.19
732.00,100.19
731.00,100.19
730.00,100.19
729.00,100.19
728.00,100.18
727.00,100.18
726.00,100.19
725.00,100.19
724.00,100.19
723.00,100.19
722.00,100.19
721.00,100.19
720.00,100.19
719.00,100.19
718.00,100.19
717.00,100.19
716.00,100.19
715.00,100.19
714.00,100.19
713.00,100.19
712.00,100.20
711.00,100.20
710.00,100.21
709.00,100.21
708.00,100.20
707.00,100.20
706.00,100.20
705.00,100.20
704.00,100.21
703.00,100.21
702.00,100.21
701.00,100.20
700.00,100.20
699.00,100.20
698.00,100.20
697.00,100.20
696.00,100.20
695.00,100.20
694.00,100.21
693.00,100.21
692.00,100.21
691.00,100.21
690.00,100.20
689.00,100.20
688.00,100.21
687.00,100.21
686.00,100.22
685.00,100.22
684.00,100.22
683.00,100.23
682.00,100.23
681.00,100.24
680.00,100.24
679.00,100.23
678.00,100.23
677.00,100.22
676.00,100.22
675.00,100.22
674.00,100.22
673.00,100.23
672.00,100.24
671.00,100.26
670.00,100.29
669.00,100.34
668.00,100.38
667.00,100.36
666.00,100.32
665.00,100.28
664.00,100.25
663.00,100.23
662.00,100.23
661.00,100.22
660.00,100.21
659.00,100.21
658.00,100.22
657.00,100.23
656.00,100.24
655.00,100.24
654.00,100.24
653.00,100.24
652.00,100.23
651.00,100.23
650.00,100.23
649.00,100.22
648.00,100.21
647.00,100.21
646.00,100.22
645.00,100.23
644.00,100.23
643.00,100.22
642.00,100.22
641.00,100.22
640.00,100.22
639.00,100.22
638.00,100.23
637.00,100.23
636.00,100.22
635.00,100.22
634.00,100.22
633.00,100.23
632.00,100.22
631.00,100.22
630.00,100.23
629.00,100.23
628.00,100.22
627.00,100.21
626.00,100.21
625.00,100.21
624.00,100.21
623.00,100.21
622.00,100.22
621.00,100.22
620.00,100.22
619.00,100.22
618.00,100.22
617.00,100.22
616.00,100.22
615.00,100.22
614.00,100.23
613.00,100.23
612.00,100.22
611.00,100.21
610.00,100.21
609.00,100.22
608.00,100.23
607.00,100.24
606.00,100.25
605.00,100.25
604.00,100.25
603.00,100.24
602.00,100.23
601.00,100.22
600.00,100.21
599.00,100.22
598.00,100.23
597.00,100.25
596.00,100.26
595.00,100.27
594.00,100.27
593.00,100.27
592.00,100.26
591.00,100.25
590.00,100.24
589.00,100.24
588.00,100.24
587.00,100.23
586.00,100.22
585.00,100.21
584.00,100.22
583.00,100.23
582.00,100.25
581.00,100.26
580.00,100.25
579.00,100.24
578.00,100.23
577.00,100.23
576.00,100.22
575.00,100.22
574.00,100.23
573.00,100.24
572.00,100.25
571.00,100.24
570.00,100.24
569.00,100.23
568.00,100.22
567.00,100.22
566.00,100.23
565.00,100.23
564.00,100.23
563.00,100.23
562.00,100.23
561.00,100.23
560.00,100.23
559.00,100.23
558.00,100.23
557.00,100.23
556.00,100.23
555.00,100.23
554.00,100.22
553.00,100.22
552.00,100.21
551.00,100.20
550.00,100.19
549.00,100.19
548.00,100.20
547.00,100.22
546.00,100.23
545.00,100.23
544.00,100.23
543.00,100.22
542.00,100.22
541.00,100.23
540.00,100.24
539.00,100.25
538.00,100.25
537.00,100.25
536.00,100.23
535.00,100.23
534.00,100.24
533.00,100.24
532.00,100.25
531.00,100.25
530.00,100.24
529.00,100.23
528.00,100.21
527.00,100.20
526.00,100.21
525.00,100.22
524.00,100.24
523.00,100.25
522.00,100.26
521.00,100.25
520.00,100.24
519.00,100.23
518.00,100.24
517.00,100.24
516.00,100.24
515.00,100.23
514.00,100.23
513.00,100.23
512.00,100.23
511.00,100.24
510.00,100.25
509.00,100.25
508.00,100.25
507.00,100.25
506.00,100.24
505.00,100.23
504.00,100.23
503.00,100.22
502.00,100.23
501.00,100.23
500.00,100.25
