Created as New Dataset,Sample 352 By Analyst Date Tuesday, February 04 2025
cm-1,%T
4000.00,100.42
3999.00,100.42
3998.00,100.42
3997.00,100.42
3996.00,100.42
3995.00,100.42
3994.00,100.42
3993.00,100.41
3992.00,100.41
3991.00,100.41
3990.00,100.41
3989.00,100.41
3988.00,100.41
3987.00,100.41
3986.00,100.41
3985.00,100.41
3984.00,100.41
3983.00,100.41
3982.00,100.41
3981.00,100.41
3980.00,100.41
3979.00,100.41
3978.00,100.41
3977.00,100.41
3976.00,100.41
3975.00,100.41
3974.00,100.41
3973.00,100.41
3972.00,100.41
3971.00,100.41
3970.00,100.41
3969.00,100.41
3968.00,100.41
3967.00,100.41
3966.00,100.41
3965.00,100.41
3964.00,100.40
3963.00,100.40
3962.00,100.40
3961.00,100.40
3960.00,100.40
3959.00,100.40
3958.00,100.40
3957.00,100.40
3956.00,100.41
3955.00,100.41
3954.00,100.40
3953.00,100.40
3952.00,100.40
3951.00,100.39
3950.00,100.38
3949.00,100.37
3948.00,100.37
3947.00,100.36
3946.00,100.36
3945.00,100.36
3944.00,100.36
3943.00,100.37
3942.00,100.38
3941.00,100.38
3940.00,100.38
3939.00,100.38
3938.00,100.38
3937.00,100.39
3936.00,100.38
3935.00,100.37
3934.00,100.36
3933.00,100.35
3932.00,100.36
3931.00,100.36
3930.00,100.36
3929.00,100.36
3928.00,100.36
3927.00,100.37
3926.00,100.37
3925.00,100.38
3924.00,100.38
3923.00,100.37
3922.00,100.35
3921.00,100.34
3920.00,100.33
3919.00,100.33
3918.00,100.33
3917.00,100.34
3916.00,100.35
3915.00,100.36
3914.00,100.37
3913.00,100.38
3912.00,100.39
3911.00,100.40
3910.00,100.40
3909.00,100.40
3908.00,100.39
3907.00,100.37
3906.00,100.35
3905.00,100.33
3904.00,100.30
3903.00,100.26
3902.00,100.23
3901.00,100.22
3900.00,100.23
3899.00,100.26
3898.00,100.28
3897.00,100.30
3896.00,100.31
3895.00,100.33
3894.00,100.34
3893.00,100.35
3892.00,100.35
3891.00,100.36
3890.00,100.35
3889.00,100.33
3888.00,100.30
3887.00,100.27
3886.00,100.28
3885.00,100.30
3884.00,100.30
3883.00,100.29
3882.00,100.27
3881.00,100.28
3880.00,100.30
3879.00,100.32
3878.00,100.32
3877.00,100.30
3876.00,100.29
3875.00,100.31
3874.00,100.33
3873.00,100.33
3872.00,100.30
3871.00,100.27
3870.00,100.26
3869.00,100.28
3868.00,100.28
3867.00,100.26
3866.00,100.24
3865.00,100.26
3864.00,100.28
3863.00,100.29
3862.00,100.28
3861.00,100.28
3860.00,100.29
3859.00,100.31
3858.00,100.36
3857.00,100.40
3856.00,100.42
3855.00,100.40
3854.00,100.36
3853.00,100.32
3852.00,100.30
3851.00,100.28
3850.00,100.27
3849.00,100.27
3848.00,100.29
3847.00,100.30
3846.00,100.31
3845.00,100.31
3844.00,100.31
3843.00,100.31
3842.00,100.30
3841.00,100.29
3840.00,100.28
3839.00,100.27
3838.00,100.26
3837.00,100.26
3836.00,100.26
3835.00,100.26
3834.00,100.27
3833.00,100.27
3832.00,100.28
3831.00,100.30
3830.00,100.31
3829.00,100.31
3828.00,100.31
3827.00,100.31
3826.00,100.33
3825.00,100.33
3824.00,100.31
3823.00,100.28
3822.00,100.27
3821.00,100.28
3820.00,100.30
3819.00,100.29
3818.00,100.26
3817.00,100.25
3816.00,100.28
3815.00,100.32
3814.00,100.34
3813.00,100.34
3812.00,100.34
3811.00,100.35
3810.00,100.37
3809.00,100.36
3808.00,100.35
3807.00,100.34
3806.00,100.35
3805.00,100.33
3804.00,100.30
3803.00,100.28
3802.00,100.28
3801.00,100.31
3800.00,100.32
3799.00,100.30
3798.00,100.28
3797.00,100.28
3796.00,100.31
3795.00,100.33
3794.00,100.35
3793.00,100.35
3792.00,100.36
3791.00,100.37
3790.00,100.38
3789.00,100.39
3788.00,100.39
3787.00,100.38
3786.00,100.38
3785.00,100.38
3784.00,100.38
3783.00,100.37
3782.00,100.36
3781.00,100.34
3780.00,100.34
3779.00,100.35
3778.00,100.36
3777.00,100.36
3776.00,100.36
3775.00,100.36
3774.00,100.37
3773.00,100.37
3772.00,100.36
3771.00,100.35
3770.00,100.34
3769.00,100.33
3768.00,100.32
3767.00,100.30
3766.00,100.30
3765.00,100.31
3764.00,100.33
3763.00,100.32
3762.00,100.30
3761.00,100.30
3760.00,100.30
3759.00,100.31
3758.00,100.30
3757.00,100.30
3756.00,100.29
3755.00,100.28
3754.00,100.27
3753.00,100.26
3752.00,100.25
3751.00,100.23
3750.00,100.21
3749.00,100.20
3748.00,100.20
3747.00,100.19
3746.00,100.17
3745.00,100.18
3744.00,100.21
3743.00,100.22
3742.00,100.21
3741.00,100.18
3740.00,100.16
3739.00,100.15
3738.00,100.14
3737.00,100.14
3736.00,100.16
3735.00,100.18
3734.00,100.18
3733.00,100.18
3732.00,100.20
3731.00,100.22
3730.00,100.24
3729.00,100.24
3728.00,100.24
3727.00,100.25
3726.00,100.27
3725.00,100.27
3724.00,100.27
3723.00,100.27
3722.00,100.28
3721.00,100.29
3720.00,100.30
3719.00,100.30
3718.00,100.31
3717.00,100.31
3716.00,100.31
3715.00,100.30
3714.00,100.29
3713.00,100.27
3712.00,100.26
3711.00,100.26
3710.00,100.26
3709.00,100.26
3708.00,100.27
3707.00,100.29
3706.00,100.31
3705.00,100.32
3704.00,100.33
3703.00,100.34
3702.00,100.35
3701.00,100.36
3700.00,100.36
3699.00,100.35
3698.00,100.34
3697.00,100.35
3696.00,100.36
3695.00,100.36
3694.00,100.35
3693.00,100.34
3692.00,100.33
3691.00,100.33
3690.00,100.31
3689.00,100.30
3688.00,100.29
3687.00,100.29
3686.00,100.30
3685.00,100.30
3684.00,100.31
3683.00,100.32
3682.00,100.32
3681.00,100.32
3680.00,100.32
3679.00,100.32
3678.00,100.29
3677.00,100.24
3676.00,100.22
3675.00,100.23
3674.00,100.24
3673.00,100.21
3672.00,100.18
3671.00,100.18
3670.00,100.22
3669.00,100.26
3668.00,100.28
3667.00,100.28
3666.00,100.29
3665.00,100.31
3664.00,100.33
3663.00,100.35
3662.00,100.36
3661.00,100.37
3660.00,100.37
3659.00,100.36
3658.00,100.34
3657.00,100.33
3656.00,100.32
3655.00,100.32
3654.00,100.30
3653.00,100.26
3652.00,100.22
3651.00,100.19
3650.00,100.18
3649.00,100.16
3648.00,100.15
3647.00,100.16
3646.00,100.19
3645.00,100.22
3644.00,100.25
3643.00,100.28
3642.00,100.32
3641.00,100.34
3640.00,100.35
3639.00,100.35
3638.00,100.35
3637.00,100.35
3636.00,100.34
3635.00,100.33
3634.00,100.33
3633.00,100.33
3632.00,100.31
3631.00,100.27
3630.00,100.24
3629.00,100.24
3628.00,100.24
3627.00,100.24
3626.00,100.24
3625.00,100.25
3624.00,100.27
3623.00,100.30
3622.00,100.31
3621.00,100.32
3620.00,100.32
3619.00,100.30
3618.00,100.28
3617.00,100.25
3616.00,100.23
3615.00,100.21
3614.00,100.22
3613.00,100.22
3612.00,100.23
3611.00,100.22
3610.00,100.21
3609.00,100.22
3608.00,100.24
3607.00,100.27
3606.00,100.28
3605.00,100.30
3604.00,100.31
3603.00,100.32
3602.00,100.33
3601.00,100.33
3600.00,100.33
3599.00,100.32
3598.00,100.31
3597.00,100.31
3596.00,100.30
3595.00,100.30
3594.00,100.31
3593.00,100.30
3592.00,100.29
3591.00,100.28
3590.00,100.26
3589.00,100.25
3588.00,100.26
3587.00,100.27
3586.00,100.27
3585.00,100.28
3584.00,100.28
3583.00,100.30
3582.00,100.32
3581.00,100.34
3580.00,100.36
3579.00,100.36
3578.00,100.37
3577.00,100.37
3576.00,100.37
3575.00,100.37
3574.00,100.36
3573.00,100.36
3572.00,100.34
3571.00,100.32
3570.00,100.29
3569.00,100.26
3568.00,100.24
3567.00,100.25
3566.00,100.25
3565.00,100.26
3564.00,100.26
3563.00,100.28
3562.00,100.30
3561.00,100.33
3560.00,100.35
3559.00,100.36
3558.00,100.36
3557.00,100.36
3556.00,100.36
3555.00,100.36
3554.00,100.36
3553.00,100.36
3552.00,100.36
3551.00,100.36
3550.00,100.34
3549.00,100.33
3548.00,100.31
3547.00,100.31
3546.00,100.32
3545.00,100.32
3544.00,100.33
3543.00,100.33
3542.00,100.34
3541.00,100.35
3540.00,100.36
3539.00,100.37
3538.00,100.38
3537.00,100.38
3536.00,100.38
3535.00,100.38
3534.00,100.38
3533.00,100.37
3532.00,100.37
3531.00,100.37
3530.00,100.36
3529.00,100.35
3528.00,100.35
3527.00,100.34
3526.00,100.33
3525.00,100.33
3524.00,100.34
3523.00,100.35
3522.00,100.36
3521.00,100.36
3520.00,100.37
3519.00,100.37
3518.00,100.38
3517.00,100.39
3516.00,100.39
3515.00,100.39
3514.00,100.39
3513.00,100.39
3512.00,100.38
3511.00,100.38
3510.00,100.38
3509.00,100.38
3508.00,100.38
3507.00,100.37
3506.00,100.36
3505.00,100.36
3504.00,100.36
3503.00,100.37
3502.00,100.37
3501.00,100.37
3500.00,100.37
3499.00,100.38
3498.00,100.38
3497.00,100.39
3496.00,100.39
3495.00,100.40
3494.00,100.40
3493.00,100.40
3492.00,100.40
3491.00,100.40
3490.00,100.40
3489.00,100.39
3488.00,100.39
3487.00,100.40
3486.00,100.40
3485.00,100.40
3484.00,100.40
3483.00,100.40
3482.00,100.40
3481.00,100.40
3480.00,100.40
3479.00,100.40
3478.00,100.40
3477.00,100.40
3476.00,100.41
3475.00,100.41
3474.00,100.41
3473.00,100.41
3472.00,100.41
3471.00,100.41
3470.00,100.40
3469.00,100.40
3468.00,100.40
3467.00,100.40
3466.00,100.40
3465.00,100.40
3464.00,100.40
3463.00,100.40
3462.00,100.40
3461.00,100.40
3460.00,100.40
3459.00,100.40
3458.00,100.40
3457.00,100.41
3456.00,100.41
3455.00,100.41
3454.00,100.41
3453.00,100.41
3452.00,100.41
3451.00,100.41
3450.00,100.40
3449.00,100.40
3448.00,100.40
3447.00,100.40
3446.00,100.40
3445.00,100.39
3444.00,100.39
3443.00,100.40
3442.00,100.40
3441.00,100.41
3440.00,100.41
3439.00,100.41
3438.00,100.41
3437.00,100.41
3436.00,100.41
3435.00,100.41
3434.00,100.41
3433.00,100.41
3432.00,100.41
3431.00,100.41
3430.00,100.41
3429.00,100.41
3428.00,100.41
3427.00,100.41
3426.00,100.41
3425.00,100.41
3424.00,100.41
3423.00,100.41
3422.00,100.40
3421.00,100.40
3420.00,100.40
3419.00,100.40
3418.00,100.40
3417.00,100.40
3416.00,100.40
3415.00,100.41
3414.00,100.41
3413.00,100.41
3412.00,100.41
3411.00,100.41
3410.00,100.41
3409.00,100.41
3408.00,100.41
3407.00,100.41
3406.00,100.41
3405.00,100.41
3404.00,100.41
3403.00,100.41
3402.00,100.41
3401.00,100.41
3400.00,100.41
3399.00,100.41
3398.00,100.41
3397.00,100.41
3396.00,100.41
3395.00,100.41
3394.00,100.41
3393.00,100.41
3392.00,100.41
3391.00,100.41
3390.00,100.41
3389.00,100.41
3388.00,100.42
3387.00,100.42
3386.00,100.42
3385.00,100.42
3384.00,100.42
3383.00,100.42
3382.00,100.41
3381.00,100.41
3380.00,100.41
3379.00,100.41
3378.00,100.41
3377.00,100.41
3376.00,100.41
3375.00,100.41
3374.00,100.41
3373.00,100.41
3372.00,100.41
3371.00,100.41
3370.00,100.41
3369.00,100.41
3368.00,100.41
3367.00,100.41
3366.00,100.41
3365.00,100.41
3364.00,100.41
3363.00,100.41
3362.00,100.40
3361.00,100.41
3360.00,100.41
3359.00,100.41
3358.00,100.41
3357.00,100.41
3356.00,100.41
3355.00,100.41
3354.00,100.41
3353.00,100.41
3352.00,100.41
3351.00,100.41
3350.00,100.41
3349.00,100.41
3348.00,100.41
3347.00,100.42
3346.00,100.42
3345.00,100.42
3344.00,100.42
3343.00,100.42
3342.00,100.42
3341.00,100.42
3340.00,100.41
3339.00,100.41
3338.00,100.41
3337.00,100.41
3336.00,100.41
3335.00,100.41
3334.00,100.41
3333.00,100.41
3332.00,100.41
3331.00,100.41
3330.00,100.42
3329.00,100.42
3328.00,100.42
3327.00,100.42
3326.00,100.42
3325.00,100.42
3324.00,100.42
3323.00,100.42
3322.00,100.42
3321.00,100.42
3320.00,100.42
3319.00,100.42
3318.00,100.42
3317.00,100.42
3316.00,100.42
3315.00,100.42
3314.00,100.42
3313.00,100.42
3312.00,100.42
3311.00,100.42
3310.00,100.41
3309.00,100.41
3308.00,100.41
3307.00,100.41
3306.00,100.42
3305.00,100.42
3304.00,100.42
3303.00,100.42
3302.00,100.42
3301.00,100.42
3300.00,100.42
3299.00,100.41
3298.00,100.41
3297.00,100.41
3296.00,100.41
3295.00,100.41
3294.00,100.41
3293.00,100.41
3292.00,100.42
3291.00,100.42
3290.00,100.42
3289.00,100.42
3288.00,100.42
3287.00,100.42
3286.00,100.42
3285.00,100.42
3284.00,100.42
3283.00,100.42
3282.00,100.42
3281.00,100.42
3280.00,100.42
3279.00,100.42
3278.00,100.42
3277.00,100.41
3276.00,100.41
3275.00,100.41
3274.00,100.41
3273.00,100.41
3272.00,100.41
3271.00,100.41
3270.00,100.42
3269.00,100.42
3268.00,100.42
3267.00,100.42
3266.00,100.42
3265.00,100.42
3264.00,100.42
3263.00,100.42
3262.00,100.42
3261.00,100.41
3260.00,100.41
3259.00,100.41
3258.00,100.41
3257.00,100.41
3256.00,100.41
3255.00,100.41
3254.00,100.41
3253.00,100.41
3252.00,100.41
3251.00,100.41
3250.00,100.42
3249.00,100.42
3248.00,100.42
3247.00,100.41
3246.00,100.41
3245.00,100.41
3244.00,100.41
3243.00,100.41
3242.00,100.41
3241.00,100.41
3240.00,100.41
3239.00,100.42
3238.00,100.42
3237.00,100.42
3236.00,100.41
3235.00,100.41
3234.00,100.41
3233.00,100.41
3232.00,100.41
3231.00,100.41
3230.00,100.41
3229.00,100.41
3228.00,100.41
3227.00,100.41
3226.00,100.41
3225.00,100.41
3224.00,100.42
3223.00,100.42
3222.00,100.42
3221.00,100.42
3220.00,100.41
3219.00,100.41
3218.00,100.41
3217.00,100.41
3216.00,100.42
3215.00,100.42
3214.00,100.42
3213.00,100.42
3212.00,100.41
3211.00,100.41
3210.00,100.41
3209.00,100.42
3208.00,100.42
3207.00,100.42
3206.00,100.42
3205.00,100.42
3204.00,100.42
3203.00,100.42
3202.00,100.42
3201.00,100.42
3200.00,100.42
3199.00,100.41
3198.00,100.41
3197.00,100.41
3196.00,100.41
3195.00,100.41
3194.00,100.42
3193.00,100.42
3192.00,100.42
3191.00,100.42
3190.00,100.42
3189.00,100.42
3188.00,100.42
3187.00,100.42
3186.00,100.41
3185.00,100.41
3184.00,100.42
3183.00,100.42
3182.00,100.42
3181.00,100.42
3180.00,100.41
3179.00,100.41
3178.00,100.41
3177.00,100.41
3176.00,100.41
3175.00,100.41
3174.00,100.41
3173.00,100.42
3172.00,100.42
3171.00,100.42
3170.00,100.42
3169.00,100.41
3168.00,100.41
3167.00,100.41
3166.00,100.41
3165.00,100.41
3164.00,100.41
3163.00,100.42
3162.00,100.42
3161.00,100.42
3160.00,100.42
3159.00,100.41
3158.00,100.41
3157.00,100.41
3156.00,100.41
3155.00,100.41
3154.00,100.41
3153.00,100.41
3152.00,100.41
3151.00,100.41
3150.00,100.41
3149.00,100.41
3148.00,100.41
3147.00,100.41
3146.00,100.41
3145.00,100.41
3144.00,100.41
3143.00,100.41
3142.00,100.41
3141.00,100.41
3140.00,100.41
3139.00,100.41
3138.00,100.41
3137.00,100.41
3136.00,100.41
3135.00,100.41
3134.00,100.41
3133.00,100.41
3132.00,100.41
3131.00,100.41
3130.00,100.41
3129.00,100.41
3128.00,100.41
3127.00,100.41
3126.00,100.41
3125.00,100.40
3124.00,100.40
3123.00,100.40
3122.00,100.40
3121.00,100.40
3120.00,100.40
3119.00,100.40
3118.00,100.40
3117.00,100.40
3116.00,100.40
3115.00,100.40
3114.00,100.40
3113.00,100.40
3112.00,100.40
3111.00,100.40
3110.00,100.40
3109.00,100.41
3108.00,100.41
3107.00,100.41
3106.00,100.41
3105.00,100.41
3104.00,100.41
3103.00,100.41
3102.00,100.40
3101.00,100.40
3100.00,100.40
3099.00,100.40
3098.00,100.40
3097.00,100.40
3096.00,100.40
3095.00,100.40
3094.00,100.40
3093.00,100.40
3092.00,100.40
3091.00,100.40
3090.00,100.40
3089.00,100.40
3088.00,100.40
3087.00,100.40
3086.00,100.40
3085.00,100.40
3084.00,100.40
3083.00,100.40
3082.00,100.40
3081.00,100.40
3080.00,100.39
3079.00,100.39
3078.00,100.40
3077.00,100.40
3076.00,100.40
3075.00,100.40
3074.00,100.40
3073.00,100.40
3072.00,100.40
3071.00,100.40
3070.00,100.40
3069.00,100.40
3068.00,100.40
3067.00,100.40
3066.00,100.40
3065.00,100.40
3064.00,100.40
3063.00,100.40
3062.00,100.40
3061.00,100.40
3060.00,100.40
3059.00,100.40
3058.00,100.40
3057.00,100.40
3056.00,100.40
3055.00,100.40
3054.00,100.40
3053.00,100.39
3052.00,100.40
3051.00,100.40
3050.00,100.40
3049.00,100.40
3048.00,100.40
3047.00,100.40
3046.00,100.40
3045.00,100.40
3044.00,100.40
3043.00,100.39
3042.00,100.39
3041.00,100.39
3040.00,100.40
3039.00,100.40
3038.00,100.39
3037.00,100.39
3036.00,100.39
3035.00,100.39
3034.00,100.39
3033.00,100.39
3032.00,100.39
3031.00,100.39
3030.00,100.39
3029.00,100.39
3028.00,100.39
3027.00,100.39
3026.00,100.39
3025.00,100.39
3024.00,100.39
3023.00,100.39
3022.00,100.39
3021.00,100.39
3020.00,100.39
3019.00,100.39
3018.00,100.39
3017.00,100.39
3016.00,100.39
3015.00,100.39
3014.00,100.39
3013.00,100.39
3012.00,100.39
3011.00,100.39
3010.00,100.39
3009.00,100.39
3008.00,100.39
3007.00,100.39
3006.00,100.39
3005.00,100.39
3004.00,100.39
3003.00,100.39
3002.00,100.39
3001.00,100.39
3000.00,100.39
2999.00,100.39
2998.00,100.39
2997.00,100.39
2996.00,100.39
2995.00,100.39
2994.00,100.39
2993.00,100.39
2992.00,100.38
2991.00,100.38
2990.00,100.38
2989.00,100.38
2988.00,100.38
2987.00,100.38
2986.00,100.39
2985.00,100.39
2984.00,100.39
2983.00,100.38
2982.00,100.38
2981.00,100.38
2980.00,100.38
2979.00,100.38
2978.00,100.38
2977.00,100.38
2976.00,100.38
2975.00,100.38
2974.00,100.39
2973.00,100.39
2972.00,100.39
2971.00,100.39
2970.00,100.39
2969.00,100.39
2968.00,100.39
2967.00,100.39
2966.00,100.39
2965.00,100.39
2964.00,100.39
2963.00,100.39
2962.00,100.39
2961.00,100.39
2960.00,100.40
2959.00,100.40
2958.00,100.40
2957.00,100.40
2956.00,100.40
2955.00,100.40
2954.00,100.39
2953.00,100.39
2952.00,100.39
2951.00,100.39
2950.00,100.39
2949.00,100.39
2948.00,100.39
2947.00,100.38
2946.00,100.38
2945.00,100.38
2944.00,100.38
2943.00,100.38
2942.00,100.38
2941.00,100.38
2940.00,100.38
2939.00,100.38
2938.00,100.38
2937.00,100.38
2936.00,100.38
2935.00,100.38
2934.00,100.38
2933.00,100.38
2932.00,100.38
2931.00,100.38
2930.00,100.38
2929.00,100.38
2928.00,100.39
2927.00,100.39
2926.00,100.40
2925.00,100.41
2924.00,100.41
2923.00,100.41
2922.00,100.41
2921.00,100.41
2920.00,100.41
2919.00,100.41
2918.00,100.41
2917.00,100.41
2916.00,100.41
2915.00,100.41
2914.00,100.40
2913.00,100.40
2912.00,100.40
2911.00,100.40
2910.00,100.39
2909.00,100.39
2908.00,100.39
2907.00,100.39
2906.00,100.39
2905.00,100.39
2904.00,100.38
2903.00,100.38
2902.00,100.38
2901.00,100.39
2900.00,100.39
2899.00,100.39
2898.00,100.39
2897.00,100.39
2896.00,100.38
2895.00,100.39
2894.00,100.39
2893.00,100.39
2892.00,100.39
2891.00,100.39
2890.00,100.39
2889.00,100.39
2888.00,100.39
2887.00,100.38
2886.00,100.38
2885.00,100.38
2884.00,100.38
2883.00,100.38
2882.00,100.38
2881.00,100.38
2880.00,100.38
2879.00,100.38
2878.00,100.38
2877.00,100.38
2876.00,100.38
2875.00,100.38
2874.00,100.38
2873.00,100.38
2872.00,100.38
2871.00,100.38
2870.00,100.38
2869.00,100.38
2868.00,100.38
2867.00,100.38
2866.00,100.38
2865.00,100.38
2864.00,100.38
2863.00,100.38
2862.00,100.38
2861.00,100.39
2860.00,100.39
2859.00,100.39
2858.00,100.39
2857.00,100.40
2856.00,100.40
2855.00,100.41
2854.00,100.41
2853.00,100.41
2852.00,100.41
2851.00,100.41
2850.00,100.41
2849.00,100.41
2848.00,100.41
2847.00,100.41
2846.00,100.41
2845.00,100.40
2844.00,100.40
2843.00,100.40
2842.00,100.39
2841.00,100.39
2840.00,100.39
2839.00,100.38
2838.00,100.38
2837.00,100.38
2836.00,100.38
2835.00,100.38
2834.00,100.38
2833.00,100.38
2832.00,100.38
2831.00,100.38
2830.00,100.38
2829.00,100.38
2828.00,100.38
2827.00,100.38
2826.00,100.38
2825.00,100.38
2824.00,100.38
2823.00,100.38
2822.00,100.38
2821.00,100.38
2820.00,100.38
2819.00,100.38
2818.00,100.38
2817.00,100.38
2816.00,100.38
2815.00,100.38
2814.00,100.38
2813.00,100.38
2812.00,100.38
2811.00,100.38
2810.00,100.38
2809.00,100.38
2808.00,100.38
2807.00,100.38
2806.00,100.38
2805.00,100.38
2804.00,100.38
2803.00,100.37
2802.00,100.37
2801.00,100.37
2800.00,100.37
2799.00,100.37
2798.00,100.37
2797.00,100.38
2796.00,100.38
2795.00,100.38
2794.00,100.38
2793.00,100.38
2792.00,100.38
2791.00,100.38
2790.00,100.38
2789.00,100.38
2788.00,100.38
2787.00,100.38
2786.00,100.38
2785.00,100.38
2784.00,100.38
2783.00,100.38
2782.00,100.38
2781.00,100.38
2780.00,100.38
2779.00,100.38
2778.00,100.38
2777.00,100.38
2776.00,100.38
2775.00,100.38
2774.00,100.38
2773.00,100.38
2772.00,100.38
2771.00,100.38
2770.00,100.38
2769.00,100.38
2768.00,100.37
2767.00,100.38
2766.00,100.38
2765.00,100.38
2764.00,100.37
2763.00,100.37
2762.00,100.37
2761.00,100.37
2760.00,100.38
2759.00,100.38
2758.00,100.38
2757.00,100.38
2756.00,100.38
2755.00,100.37
2754.00,100.38
2753.00,100.38
2752.00,100.38
2751.00,100.38
2750.00,100.38
2749.00,100.38
2748.00,100.37
2747.00,100.37
2746.00,100.37
2745.00,100.37
2744.00,100.37
2743.00,100.37
2742.00,100.37
2741.00,100.38
2740.00,100.38
2739.00,100.38
2738.00,100.38
2737.00,100.38
2736.00,100.38
2735.00,100.37
2734.00,100.37
2733.00,100.37
2732.00,100.37
2731.00,100.37
2730.00,100.37
2729.00,100.37
2728.00,100.37
2727.00,100.37
2726.00,100.37
2725.00,100.37
2724.00,100.37
2723.00,100.37
2722.00,100.37
2721.00,100.37
2720.00,100.37
2719.00,100.37
2718.00,100.37
2717.00,100.37
2716.00,100.37
2715.00,100.37
2714.00,100.37
2713.00,100.37
2712.00,100.37
2711.00,100.38
2710.00,100.38
2709.00,100.38
2708.00,100.38
2707.00,100.38
2706.00,100.37
2705.00,100.37
2704.00,100.38
2703.00,100.38
2702.00,100.38
2701.00,100.38
2700.00,100.38
2699.00,100.38
2698.00,100.37
2697.00,100.37
2696.00,100.37
2695.00,100.37
2694.00,100.37
2693.00,100.37
2692.00,100.37
2691.00,100.37
2690.00,100.38
2689.00,100.38
2688.00,100.38
2687.00,100.37
2686.00,100.37
2685.00,100.37
2684.00,100.37
2683.00,100.37
2682.00,100.37
2681.00,100.37
2680.00,100.37
2679.00,100.37
2678.00,100.37
2677.00,100.37
2676.00,100.37
2675.00,100.37
2674.00,100.37
2673.00,100.37
2672.00,100.37
2671.00,100.37
2670.00,100.37
2669.00,100.37
2668.00,100.37
2667.00,100.37
2666.00,100.37
2665.00,100.38
2664.00,100.38
2663.00,100.37
2662.00,100.37
2661.00,100.37
2660.00,100.37
2659.00,100.38
2658.00,100.38
2657.00,100.38
2656.00,100.38
2655.00,100.38
2654.00,100.37
2653.00,100.37
2652.00,100.37
2651.00,100.37
2650.00,100.37
2649.00,100.37
2648.00,100.37
2647.00,100.38
2646.00,100.38
2645.00,100.37
2644.00,100.37
2643.00,100.37
2642.00,100.37
2641.00,100.37
2640.00,100.37
2639.00,100.37
2638.00,100.37
2637.00,100.37
2636.00,100.37
2635.00,100.37
2634.00,100.37
2633.00,100.37
2632.00,100.37
2631.00,100.37
2630.00,100.37
2629.00,100.37
2628.00,100.37
2627.00,100.37
2626.00,100.37
2625.00,100.37
2624.00,100.37
2623.00,100.37
2622.00,100.37
2621.00,100.37
2620.00,100.37
2619.00,100.37
2618.00,100.37
2617.00,100.37
2616.00,100.37
2615.00,100.37
2614.00,100.37
2613.00,100.37
2612.00,100.37
2611.00,100.37
2610.00,100.37
2609.00,100.37
2608.00,100.37
2607.00,100.37
2606.00,100.37
2605.00,100.37
2604.00,100.37
2603.00,100.37
2602.00,100.37
2601.00,100.37
2600.00,100.37
2599.00,100.37
2598.00,100.37
2597.00,100.37
2596.00,100.37
2595.00,100.37
2594.00,100.37
2593.00,100.37
2592.00,100.37
2591.00,100.37
2590.00,100.37
2589.00,100.37
2588.00,100.37
2587.00,100.37
2586.00,100.37
2585.00,100.37
2584.00,100.37
2583.00,100.37
2582.00,100.37
2581.00,100.37
2580.00,100.37
2579.00,100.37
2578.00,100.37
2577.00,100.37
2576.00,100.37
2575.00,100.37
2574.00,100.37
2573.00,100.37
2572.00,100.37
2571.00,100.37
2570.00,100.37
2569.00,100.37
2568.00,100.37
2567.00,100.37
2566.00,100.37
2565.00,100.37
2564.00,100.37
2563.00,100.37
2562.00,100.37
2561.00,100.37
2560.00,100.37
2559.00,100.37
2558.00,100.37
2557.00,100.37
2556.00,100.37
2555.00,100.37
2554.00,100.37
2553.00,100.37
2552.00,100.37
2551.00,100.37
2550.00,100.37
2549.00,100.37
2548.00,100.37
2547.00,100.37
2546.00,100.37
2545.00,100.37
2544.00,100.37
2543.00,100.37
2542.00,100.37
2541.00,100.37
2540.00,100.37
2539.00,100.37
2538.00,100.37
2537.00,100.37
2536.00,100.37
2535.00,100.37
2534.00,100.37
2533.00,100.37
2532.00,100.37
2531.00,100.37
2530.00,100.37
2529.00,100.38
2528.00,100.38
2527.00,100.37
2526.00,100.37
2525.00,100.37
2524.00,100.37
2523.00,100.37
2522.00,100.37
2521.00,100.37
2520.00,100.37
2519.00,100.37
2518.00,100.37
2517.00,100.37
2516.00,100.37
2515.00,100.37
2514.00,100.37
2513.00,100.37
2512.00,100.37
2511.00,100.37
2510.00,100.37
2509.00,100.37
2508.00,100.37
2507.00,100.37
2506.00,100.37
2505.00,100.37
2504.00,100.37
2503.00,100.37
2502.00,100.37
2501.00,100.37
2500.00,100.37
2499.00,100.37
2498.00,100.37
2497.00,100.37
2496.00,100.37
2495.00,100.37
2494.00,100.37
2493.00,100.37
2492.00,100.37
2491.00,100.37
2490.00,100.37
2489.00,100.37
2488.00,100.37
2487.00,100.37
2486.00,100.37
2485.00,100.37
2484.00,100.37
2483.00,100.37
2482.00,100.37
2481.00,100.37
2480.00,100.37
2479.00,100.38
2478.00,100.38
2477.00,100.37
2476.00,100.37
2475.00,100.37
2474.00,100.37
2473.00,100.37
2472.00,100.37
2471.00,100.37
2470.00,100.37
2469.00,100.37
2468.00,100.37
2467.00,100.37
2466.00,100.37
2465.00,100.37
2464.00,100.37
2463.00,100.37
2462.00,100.37
2461.00,100.37
2460.00,100.37
2459.00,100.37
2458.00,100.37
2457.00,100.37
2456.00,100.37
2455.00,100.37
2454.00,100.37
2453.00,100.37
2452.00,100.37
2451.00,100.37
2450.00,100.37
2449.00,100.37
2448.00,100.37
2447.00,100.37
2446.00,100.37
2445.00,100.37
2444.00,100.37
2443.00,100.37
2442.00,100.37
2441.00,100.37
2440.00,100.37
2439.00,100.37
2438.00,100.37
2437.00,100.37
2436.00,100.37
2435.00,100.37
2434.00,100.37
2433.00,100.37
2432.00,100.37
2431.00,100.37
2430.00,100.37
2429.00,100.37
2428.00,100.37
2427.00,100.37
2426.00,100.37
2425.00,100.37
2424.00,100.37
2423.00,100.37
2422.00,100.37
2421.00,100.37
2420.00,100.37
2419.00,100.37
2418.00,100.37
2417.00,100.37
2416.00,100.37
2415.00,100.37
2414.00,100.37
2413.00,100.37
2412.00,100.37
2411.00,100.37
2410.00,100.37
2409.00,100.37
2408.00,100.37
2407.00,100.37
2406.00,100.37
2405.00,100.37
2404.00,100.37
2403.00,100.37
2402.00,100.37
2401.00,100.37
2400.00,100.37
2399.00,100.37
2398.00,100.37
2397.00,100.37
2396.00,100.37
2395.00,100.37
2394.00,100.37
2393.00,100.37
2392.00,100.37
2391.00,100.37
2390.00,100.37
2389.00,100.36
2388.00,100.36
2387.00,100.36
2386.00,100.36
2385.00,100.35
2384.00,100.35
2383.00,100.35
2382.00,100.35
2381.00,100.36
2380.00,100.36
2379.00,100.37
2378.00,100.38
2377.00,100.38
2376.00,100.38
2375.00,100.38
2374.00,100.37
2373.00,100.36
2372.00,100.36
2371.00,100.35
2370.00,100.35
2369.00,100.36
2368.00,100.36
2367.00,100.36
2366.00,100.36
2365.00,100.35
2364.00,100.35
2363.00,100.35
2362.00,100.35
2361.00,100.35
2360.00,100.35
2359.00,100.35
2358.00,100.35
2357.00,100.34
2356.00,100.34
2355.00,100.34
2354.00,100.34
2353.00,100.35
2352.00,100.37
2351.00,100.37
2350.00,100.36
2349.00,100.33
2348.00,100.30
2347.00,100.29
2346.00,100.31
2345.00,100.34
2344.00,100.34
2343.00,100.33
2342.00,100.33
2341.00,100.33
2340.00,100.33
2339.00,100.33
2338.00,100.33
2337.00,100.33
2336.00,100.33
2335.00,100.32
2334.00,100.32
2333.00,100.32
2332.00,100.32
2331.00,100.33
2330.00,100.33
2329.00,100.33
2328.00,100.32
2327.00,100.31
2326.00,100.31
2325.00,100.31
2324.00,100.31
2323.00,100.32
2322.00,100.32
2321.00,100.32
2320.00,100.32
2319.00,100.32
2318.00,100.32
2317.00,100.32
2316.00,100.32
2315.00,100.32
2314.00,100.32
2313.00,100.33
2312.00,100.33
2311.00,100.33
2310.00,100.33
2309.00,100.33
2308.00,100.33
2307.00,100.33
2306.00,100.33
2305.00,100.33
2304.00,100.34
2303.00,100.34
2302.00,100.34
2301.00,100.34
2300.00,100.34
2299.00,100.34
2298.00,100.35
2297.00,100.35
2296.00,100.35
2295.00,100.35
2294.00,100.35
2293.00,100.36
2292.00,100.36
2291.00,100.36
2290.00,100.36
2289.00,100.36
2288.00,100.36
2287.00,100.36
2286.00,100.36
2285.00,100.36
2284.00,100.36
2283.00,100.36
2282.00,100.36
2281.00,100.36
2280.00,100.36
2279.00,100.37
2278.00,100.37
2277.00,100.37
2276.00,100.37
2275.00,100.37
2274.00,100.37
2273.00,100.37
2272.00,100.37
2271.00,100.37
2270.00,100.37
2269.00,100.37
2268.00,100.37
2267.00,100.37
2266.00,100.37
2265.00,100.37
2264.00,100.37
2263.00,100.37
2262.00,100.37
2261.00,100.37
2260.00,100.37
2259.00,100.37
2258.00,100.37
2257.00,100.36
2256.00,100.36
2255.00,100.37
2254.00,100.36
2253.00,100.36
2252.00,100.36
2251.00,100.37
2250.00,100.37
2249.00,100.37
2248.00,100.37
2247.00,100.36
2246.00,100.36
2245.00,100.36
2244.00,100.36
2243.00,100.36
2242.00,100.36
2241.00,100.36
2240.00,100.36
2239.00,100.36
2238.00,100.37
2237.00,100.37
2236.00,100.37
2235.00,100.37
2234.00,100.37
2233.00,100.37
2232.00,100.37
2231.00,100.36
2230.00,100.36
2229.00,100.36
2228.00,100.36
2227.00,100.36
2226.00,100.36
2225.00,100.36
2224.00,100.37
2223.00,100.37
2222.00,100.37
2221.00,100.37
2220.00,100.37
2219.00,100.37
2218.00,100.36
2217.00,100.36
2216.00,100.36
2215.00,100.36
2214.00,100.37
2213.00,100.37
2212.00,100.37
2211.00,100.37
2210.00,100.37
2209.00,100.37
2208.00,100.37
2207.00,100.37
2206.00,100.37
2205.00,100.36
2204.00,100.36
2203.00,100.36
2202.00,100.36
2201.00,100.37
2200.00,100.37
2199.00,100.37
2198.00,100.37
2197.00,100.37
2196.00,100.36
2195.00,100.36
2194.00,100.37
2193.00,100.37
2192.00,100.37
2191.00,100.37
2190.00,100.36
2189.00,100.36
2188.00,100.36
2187.00,100.36
2186.00,100.36
2185.00,100.36
2184.00,100.36
2183.00,100.36
2182.00,100.36
2181.00,100.36
2180.00,100.36
2179.00,100.36
2178.00,100.36
2177.00,100.36
2176.00,100.36
2175.00,100.36
2174.00,100.37
2173.00,100.37
2172.00,100.37
2171.00,100.37
2170.00,100.37
2169.00,100.37
2168.00,100.37
2167.00,100.37
2166.00,100.36
2165.00,100.37
2164.00,100.37
2163.00,100.37
2162.00,100.37
2161.00,100.37
2160.00,100.37
2159.00,100.37
2158.00,100.37
2157.00,100.37
2156.00,100.36
2155.00,100.36
2154.00,100.36
2153.00,100.36
2152.00,100.36
2151.00,100.36
2150.00,100.36
2149.00,100.36
2148.00,100.36
2147.00,100.36
2146.00,100.37
2145.00,100.37
2144.00,100.37
2143.00,100.37
2142.00,100.37
2141.00,100.37
2140.00,100.37
2139.00,100.36
2138.00,100.36
2137.00,100.36
2136.00,100.37
2135.00,100.37
2134.00,100.36
2133.00,100.36
2132.00,100.36
2131.00,100.37
2130.00,100.37
2129.00,100.36
2128.00,100.36
2127.00,100.36
2126.00,100.37
2125.00,100.37
2124.00,100.37
2123.00,100.37
2122.00,100.36
2121.00,100.36
2120.00,100.37
2119.00,100.36
2118.00,100.36
2117.00,100.36
2116.00,100.37
2115.00,100.37
2114.00,100.36
2113.00,100.36
2112.00,100.36
2111.00,100.36
2110.00,100.37
2109.00,100.37
2108.00,100.37
2107.00,100.37
2106.00,100.37
2105.00,100.37
2104.00,100.37
2103.00,100.37
2102.00,100.37
2101.00,100.37
2100.00,100.37
2099.00,100.37
2098.00,100.37
2097.00,100.37
2096.00,100.37
2095.00,100.37
2094.00,100.36
2093.00,100.36
2092.00,100.36
2091.00,100.36
2090.00,100.36
2089.00,100.37
2088.00,100.37
2087.00,100.36
2086.00,100.36
2085.00,100.36
2084.00,100.36
2083.00,100.36
2082.00,100.36
2081.00,100.36
2080.00,100.36
2079.00,100.36
2078.00,100.36
2077.00,100.36
2076.00,100.36
2075.00,100.37
2074.00,100.37
2073.00,100.37
2072.00,100.36
2071.00,100.36
2070.00,100.36
2069.00,100.37
2068.00,100.37
2067.00,100.37
2066.00,100.36
2065.00,100.36
2064.00,100.36
2063.00,100.36
2062.00,100.36
2061.00,100.36
2060.00,100.36
2059.00,100.36
2058.00,100.36
2057.00,100.36
2056.00,100.36
2055.00,100.36
2054.00,100.36
2053.00,100.36
2052.00,100.36
2051.00,100.36
2050.00,100.36
2049.00,100.36
2048.00,100.36
2047.00,100.36
2046.00,100.36
2045.00,100.36
2044.00,100.36
2043.00,100.36
2042.00,100.37
2041.00,100.37
2040.00,100.37
2039.00,100.36
2038.00,100.36
2037.00,100.36
2036.00,100.36
2035.00,100.36
2034.00,100.36
2033.00,100.36
2032.00,100.36
2031.00,100.36
2030.00,100.36
2029.00,100.36
2028.00,100.36
2027.00,100.36
2026.00,100.36
2025.00,100.36
2024.00,100.36
2023.00,100.36
2022.00,100.36
2021.00,100.36
2020.00,100.36
2019.00,100.36
2018.00,100.36
2017.00,100.37
2016.00,100.37
2015.00,100.36
2014.00,100.36
2013.00,100.36
2012.00,100.36
2011.00,100.36
2010.00,100.36
2009.00,100.36
2008.00,100.36
2007.00,100.36
2006.00,100.36
2005.00,100.36
2004.00,100.36
2003.00,100.36
2002.00,100.36
2001.00,100.36
2000.00,100.36
1999.00,100.36
1998.00,100.36
1997.00,100.36
1996.00,100.36
1995.00,100.36
1994.00,100.36
1993.00,100.37
1992.00,100.37
1991.00,100.36
1990.00,100.36
1989.00,100.36
1988.00,100.36
1987.00,100.36
1986.00,100.36
1985.00,100.36
1984.00,100.36
1983.00,100.36
1982.00,100.36
1981.00,100.36
1980.00,100.36
1979.00,100.36
1978.00,100.36
1977.00,100.36
1976.00,100.36
1975.00,100.36
1974.00,100.36
1973.00,100.36
1972.00,100.36
1971.00,100.36
1970.00,100.36
1969.00,100.36
1968.00,100.37
1967.00,100.37
1966.00,100.37
1965.00,100.36
1964.00,100.36
1963.00,100.36
1962.00,100.36
1961.00,100.37
1960.00,100.37
1959.00,100.36
1958.00,100.36
1957.00,100.36
1956.00,100.36
1955.00,100.36
1954.00,100.36
1953.00,100.36
1952.00,100.36
1951.00,100.36
1950.00,100.36
1949.00,100.36
1948.00,100.36
1947.00,100.36
1946.00,100.36
1945.00,100.36
1944.00,100.36
1943.00,100.37
1942.00,100.37
1941.00,100.36
1940.00,100.36
1939.00,100.35
1938.00,100.35
1937.00,100.36
1936.00,100.36
1935.00,100.36
1934.00,100.36
1933.00,100.36
1932.00,100.36
1931.00,100.36
1930.00,100.36
1929.00,100.36
1928.00,100.36
1927.00,100.36
1926.00,100.36
1925.00,100.36
1924.00,100.37
1923.00,100.37
1922.00,100.36
1921.00,100.35
1920.00,100.35
1919.00,100.34
1918.00,100.35
1917.00,100.35
1916.00,100.35
1915.00,100.35
1914.00,100.35
1913.00,100.35
1912.00,100.36
1911.00,100.36
1910.00,100.36
1909.00,100.37
1908.00,100.37
1907.00,100.36
1906.00,100.36
1905.00,100.36
1904.00,100.36
1903.00,100.36
1902.00,100.36
1901.00,100.36
1900.00,100.36
1899.00,100.36
1898.00,100.36
1897.00,100.36
1896.00,100.37
1895.00,100.37
1894.00,100.36
1893.00,100.36
1892.00,100.36
1891.00,100.36
1890.00,100.36
1889.00,100.37
1888.00,100.36
1887.00,100.36
1886.00,100.35
1885.00,100.35
1884.00,100.36
1883.00,100.36
1882.00,100.35
1881.00,100.36
1880.00,100.36
1879.00,100.36
1878.00,100.36
1877.00,100.36
1876.00,100.36
1875.00,100.36
1874.00,100.35
1873.00,100.35
1872.00,100.35
1871.00,100.35
1870.00,100.35
1869.00,100.36
1868.00,100.36
1867.00,100.36
1866.00,100.35
1865.00,100.35
1864.00,100.35
1863.00,100.35
1862.00,100.35
1861.00,100.36
1860.00,100.36
1859.00,100.36
1858.00,100.36
1857.00,100.36
1856.00,100.36
1855.00,100.36
1854.00,100.36
1853.00,100.36
1852.00,100.36
1851.00,100.35
1850.00,100.35
1849.00,100.36
1848.00,100.36
1847.00,100.36
1846.00,100.35
1845.00,100.35
1844.00,100.35
1843.00,100.35
1842.00,100.34
1841.00,100.34
1840.00,100.34
1839.00,100.35
1838.00,100.35
1837.00,100.36
1836.00,100.36
1835.00,100.35
1834.00,100.35
1833.00,100.35
1832.00,100.36
1831.00,100.36
1830.00,100.37
1829.00,100.36
1828.00,100.35
1827.00,100.34
1826.00,100.34
1825.00,100.35
1824.00,100.35
1823.00,100.35
1822.00,100.35
1821.00,100.35
1820.00,100.35
1819.00,100.36
1818.00,100.36
1817.00,100.35
1816.00,100.35
1815.00,100.35
1814.00,100.35
1813.00,100.35
1812.00,100.36
1811.00,100.36
1810.00,100.35
1809.00,100.35
1808.00,100.35
1807.00,100.35
1806.00,100.35
1805.00,100.35
1804.00,100.35
1803.00,100.35
1802.00,100.35
1801.00,100.34
1800.00,100.34
1799.00,100.34
1798.00,100.34
1797.00,100.34
1796.00,100.34
1795.00,100.34
1794.00,100.33
1793.00,100.33
1792.00,100.33
1791.00,100.34
1790.00,100.33
1789.00,100.32
1788.00,100.32
1787.00,100.33
1786.00,100.32
1785.00,100.33
1784.00,100.33
1783.00,100.34
1782.00,100.34
1781.00,100.34
1780.00,100.34
1779.00,100.34
1778.00,100.34
1777.00,100.33
1776.00,100.34
1775.00,100.34
1774.00,100.34
1773.00,100.33
1772.00,100.33
1771.00,100.32
1770.00,100.31
1769.00,100.30
1768.00,100.30
1767.00,100.32
1766.00,100.33
1765.00,100.33
1764.00,100.33
1763.00,100.34
1762.00,100.35
1761.00,100.35
1760.00,100.34
1759.00,100.34
1758.00,100.33
1757.00,100.33
1756.00,100.32
1755.00,100.31
1754.00,100.29
1753.00,100.27
1752.00,100.24
1751.00,100.25
1750.00,100.27
1749.00,100.29
1748.00,100.30
1747.00,100.31
1746.00,100.32
1745.00,100.32
1744.00,100.33
1743.00,100.34
1742.00,100.34
1741.00,100.34
1740.00,100.34
1739.00,100.34
1738.00,100.34
1737.00,100.33
1736.00,100.31
1735.00,100.29
1734.00,100.28
1733.00,100.28
1732.00,100.29
1731.00,100.30
1730.00,100.32
1729.00,100.33
1728.00,100.34
1727.00,100.34
1726.00,100.34
1725.00,100.34
1724.00,100.34
1723.00,100.34
1722.00,100.34
1721.00,100.33
1720.00,100.33
1719.00,100.32
1718.00,100.30
1717.00,100.30
1716.00,100.30
1715.00,100.31
1714.00,100.31
1713.00,100.31
1712.00,100.32
1711.00,100.33
1710.00,100.33
1709.00,100.33
1708.00,100.34
1707.00,100.34
1706.00,100.34
1705.00,100.35
1704.00,100.36
1703.00,100.35
1702.00,100.33
1701.00,100.32
1700.00,100.33
1699.00,100.32
1698.00,100.30
1697.00,100.28
1696.00,100.29
1695.00,100.31
1694.00,100.32
1693.00,100.32
1692.00,100.31
1691.00,100.31
1690.00,100.32
1689.00,100.32
1688.00,100.32
1687.00,100.31
1686.00,100.30
1685.00,100.30
1684.00,100.31
1683.00,100.32
1682.00,100.32
1681.00,100.32
1680.00,100.32
1679.00,100.32
1678.00,100.33
1677.00,100.32
1676.00,100.32
1675.00,100.32
1674.00,100.32
1673.00,100.32
1672.00,100.31
1671.00,100.31
1670.00,100.32
1669.00,100.34
1668.00,100.34
1667.00,100.33
1666.00,100.33
1665.00,100.34
1664.00,100.34
1663.00,100.34
1662.00,100.34
1661.00,100.34
1660.00,100.33
1659.00,100.32
1658.00,100.33
1657.00,100.35
1656.00,100.36
1655.00,100.36
1654.00,100.36
1653.00,100.37
1652.00,100.36
1651.00,100.35
1650.00,100.33
1649.00,100.32
1648.00,100.31
1647.00,100.31
1646.00,100.31
1645.00,100.31
1644.00,100.32
1643.00,100.32
1642.00,100.32
1641.00,100.32
1640.00,100.33
1639.00,100.33
1638.00,100.33
1637.00,100.33
1636.00,100.33
1635.00,100.33
1634.00,100.33
1633.00,100.33
1632.00,100.33
1631.00,100.33
1630.00,100.33
1629.00,100.34
1628.00,100.35
1627.00,100.35
1626.00,100.35
1625.00,100.35
1624.00,100.35
1623.00,100.35
1622.00,100.35
1621.00,100.36
1620.00,100.36
1619.00,100.36
1618.00,100.36
1617.00,100.37
1616.00,100.37
1615.00,100.36
1614.00,100.36
1613.00,100.36
1612.00,100.35
1611.00,100.35
1610.00,100.35
1609.00,100.36
1608.00,100.36
1607.00,100.36
1606.00,100.36
1605.00,100.36
1604.00,100.36
1603.00,100.36
1602.00,100.36
1601.00,100.36
1600.00,100.36
1599.00,100.35
1598.00,100.36
1597.00,100.36
1596.00,100.36
1595.00,100.36
1594.00,100.36
1593.00,100.36
1592.00,100.36
1591.00,100.36
1590.00,100.36
1589.00,100.37
1588.00,100.36
1587.00,100.36
1586.00,100.36
1585.00,100.36
1584.00,100.36
1583.00,100.35
1582.00,100.36
1581.00,100.36
1580.00,100.37
1579.00,100.37
1578.00,100.38
1577.00,100.38
1576.00,100.37
1575.00,100.36
1574.00,100.35
1573.00,100.35
1572.00,100.35
1571.00,100.35
1570.00,100.35
1569.00,100.35
1568.00,100.34
1567.00,100.32
1566.00,100.32
1565.00,100.33
1564.00,100.34
1563.00,100.35
1562.00,100.36
1561.00,100.36
1560.00,100.34
1559.00,100.31
1558.00,100.30
1557.00,100.30
1556.00,100.29
1555.00,100.29
1554.00,100.29
1553.00,100.29
1552.00,100.29
1551.00,100.30
1550.00,100.30
1549.00,100.30
1548.00,100.29
1547.00,100.29
1546.00,100.29
1545.00,100.30
1544.00,100.32
1543.00,100.32
1542.00,100.31
1541.00,100.30
1540.00,100.30
1539.00,100.30
1538.00,100.31
1537.00,100.31
1536.00,100.30
1535.00,100.30
1534.00,100.30
1533.00,100.31
1532.00,100.31
1531.00,100.31
1530.00,100.30
1529.00,100.30
1528.00,100.31
1527.00,100.31
1526.00,100.30
1525.00,100.29
1524.00,100.29
1523.00,100.29
1522.00,100.29
1521.00,100.30
1520.00,100.30
1519.00,100.30
1518.00,100.29
1517.00,100.29
1516.00,100.29
1515.00,100.29
1514.00,100.28
1513.00,100.27
1512.00,100.28
1511.00,100.29
1510.00,100.30
1509.00,100.29
1508.00,100.29
1507.00,100.29
1506.00,100.29
1505.00,100.29
1504.00,100.30
1503.00,100.31
1502.00,100.31
1501.00,100.32
1500.00,100.33
1499.00,100.34
1498.00,100.33
1497.00,100.33
1496.00,100.33
1495.00,100.33
1494.00,100.33
1493.00,100.32
1492.00,100.32
1491.00,100.32
1490.00,100.32
1489.00,100.32
1488.00,100.32
1487.00,100.33
1486.00,100.33
1485.00,100.34
1484.00,100.34
1483.00,100.35
1482.00,100.35
1481.00,100.35
1480.00,100.35
1479.00,100.34
1478.00,100.33
1477.00,100.33
1476.00,100.33
1475.00,100.31
1474.00,100.29
1473.00,100.28
1472.00,100.29
1471.00,100.31
1470.00,100.32
1469.00,100.33
1468.00,100.34
1467.00,100.35
1466.00,100.35
1465.00,100.34
1464.00,100.34
1463.00,100.33
1462.00,100.33
1461.00,100.33
1460.00,100.33
1459.00,100.34
1458.00,100.34
1457.00,100.32
1456.00,100.31
1455.00,100.31
1454.00,100.32
1453.00,100.32
1452.00,100.33
1451.00,100.34
1450.00,100.34
1449.00,100.34
1448.00,100.34
1447.00,100.35
1446.00,100.35
1445.00,100.35
1444.00,100.35
1443.00,100.36
1442.00,100.36
1441.00,100.36
1440.00,100.35
1439.00,100.35
1438.00,100.35
1437.00,100.34
1436.00,100.33
1435.00,100.33
1434.00,100.34
1433.00,100.34
1432.00,100.34
1431.00,100.35
1430.00,100.35
1429.00,100.35
1428.00,100.35
1427.00,100.35
1426.00,100.35
1425.00,100.34
1424.00,100.33
1423.00,100.34
1422.00,100.34
1421.00,100.34
1420.00,100.34
1419.00,100.34
1418.00,100.33
1417.00,100.32
1416.00,100.32
1415.00,100.33
1414.00,100.35
1413.00,100.36
1412.00,100.36
1411.00,100.36
1410.00,100.37
1409.00,100.37
1408.00,100.36
1407.00,100.36
1406.00,100.36
1405.00,100.35
1404.00,100.35
1403.00,100.35
1402.00,100.35
1401.00,100.34
1400.00,100.34
1399.00,100.33
1398.00,100.33
1397.00,100.33
1396.00,100.33
1395.00,100.34
1394.00,100.35
1393.00,100.34
1392.00,100.34
1391.00,100.34
1390.00,100.35
1389.00,100.36
1388.00,100.36
1387.00,100.36
1386.00,100.37
1385.00,100.37
1384.00,100.37
1383.00,100.37
1382.00,100.37
1381.00,100.36
1380.00,100.36
1379.00,100.35
1378.00,100.35
1377.00,100.35
1376.00,100.35
1375.00,100.36
1374.00,100.36
1373.00,100.36
1372.00,100.36
1371.00,100.36
1370.00,100.36
1369.00,100.36
1368.00,100.36
1367.00,100.36
1366.00,100.36
1365.00,100.36
1364.00,100.37
1363.00,100.37
1362.00,100.37
1361.00,100.37
1360.00,100.36
1359.00,100.36
1358.00,100.36
1357.00,100.36
1356.00,100.36
1355.00,100.36
1354.00,100.36
1353.00,100.37
1352.00,100.37
1351.00,100.37
1350.00,100.37
1349.00,100.37
1348.00,100.37
1347.00,100.37
1346.00,100.37
1345.00,100.37
1344.00,100.36
1343.00,100.36
1342.00,100.37
1341.00,100.37
1340.00,100.37
1339.00,100.37
1338.00,100.37
1337.00,100.37
1336.00,100.36
1335.00,100.36
1334.00,100.36
1333.00,100.37
1332.00,100.37
1331.00,100.37
1330.00,100.37
1329.00,100.37
1328.00,100.37
1327.00,100.37
1326.00,100.37
1325.00,100.37
1324.00,100.37
1323.00,100.37
1322.00,100.37
1321.00,100.37
1320.00,100.37
1319.00,100.37
1318.00,100.37
1317.00,100.37
1316.00,100.37
1315.00,100.37
1314.00,100.37
1313.00,100.37
1312.00,100.37
1311.00,100.37
1310.00,100.37
1309.00,100.37
1308.00,100.37
1307.00,100.37
1306.00,100.37
1305.00,100.37
1304.00,100.37
1303.00,100.37
1302.00,100.37
1301.00,100.37
1300.00,100.37
1299.00,100.37
1298.00,100.37
1297.00,100.37
1296.00,100.37
1295.00,100.37
1294.00,100.37
1293.00,100.37
1292.00,100.37
1291.00,100.37
1290.00,100.38
1289.00,100.38
1288.00,100.37
1287.00,100.37
1286.00,100.37
1285.00,100.37
1284.00,100.37
1283.00,100.37
1282.00,100.37
1281.00,100.37
1280.00,100.37
1279.00,100.37
1278.00,100.37
1277.00,100.37
1276.00,100.37
1275.00,100.37
1274.00,100.37
1273.00,100.37
1272.00,100.37
1271.00,100.37
1270.00,100.37
1269.00,100.38
1268.00,100.38
1267.00,100.38
1266.00,100.38
1265.00,100.38
1264.00,100.38
1263.00,100.38
1262.00,100.39
1261.00,100.39
1260.00,100.39
1259.00,100.39
1258.00,100.39
1257.00,100.40
1256.00,100.40
1255.00,100.40
1254.00,100.40
1253.00,100.40
1252.00,100.40
1251.00,100.40
1250.00,100.41
1249.00,100.41
1248.00,100.41
1247.00,100.41
1246.00,100.40
1245.00,100.40
1244.00,100.40
1243.00,100.40
1242.00,100.39
1241.00,100.39
1240.00,100.39
1239.00,100.39
1238.00,100.39
1237.00,100.38
1236.00,100.38
1235.00,100.37
1234.00,100.38
1233.00,100.38
1232.00,100.38
1231.00,100.38
1230.00,100.38
1229.00,100.38
1228.00,100.37
1227.00,100.37
1226.00,100.37
1225.00,100.37
1224.00,100.37
1223.00,100.37
1222.00,100.37
1221.00,100.37
1220.00,100.37
1219.00,100.37
1218.00,100.38
1217.00,100.38
1216.00,100.38
1215.00,100.38
1214.00,100.38
1213.00,100.38
1212.00,100.38
1211.00,100.38
1210.00,100.38
1209.00,100.38
1208.00,100.38
1207.00,100.38
1206.00,100.39
1205.00,100.39
1204.00,100.38
1203.00,100.38
1202.00,100.38
1201.00,100.38
1200.00,100.38
1199.00,100.38
1198.00,100.39
1197.00,100.39
1196.00,100.39
1195.00,100.39
1194.00,100.39
1193.00,100.39
1192.00,100.39
1191.00,100.39
1190.00,100.39
1189.00,100.39
1188.00,100.39
1187.00,100.39
1186.00,100.39
1185.00,100.39
1184.00,100.39
1183.00,100.39
1182.00,100.39
1181.00,100.39
1180.00,100.39
1179.00,100.39
1178.00,100.39
1177.00,100.39
1176.00,100.39
1175.00,100.39
1174.00,100.39
1173.00,100.39
1172.00,100.39
1171.00,100.39
1170.00,100.39
1169.00,100.39
1168.00,100.39
1167.00,100.39
1166.00,100.39
1165.00,100.39
1164.00,100.39
1163.00,100.39
1162.00,100.39
1161.00,100.39
1160.00,100.39
1159.00,100.39
1158.00,100.39
1157.00,100.39
1156.00,100.39
1155.00,100.39
1154.00,100.40
1153.00,100.40
1152.00,100.40
1151.00,100.39
1150.00,100.39
1149.00,100.39
1148.00,100.39
1147.00,100.39
1146.00,100.39
1145.00,100.39
1144.00,100.39
1143.00,100.40
1142.00,100.40
1141.00,100.40
1140.00,100.40
1139.00,100.40
1138.00,100.40
1137.00,100.39
1136.00,100.39
1135.00,100.40
1134.00,100.40
1133.00,100.40
1132.00,100.40
1131.00,100.40
1130.00,100.40
1129.00,100.40
1128.00,100.40
1127.00,100.40
1126.00,100.40
1125.00,100.40
1124.00,100.40
1123.00,100.40
1122.00,100.40
1121.00,100.41
1120.00,100.41
1119.00,100.42
1118.00,100.42
1117.00,100.42
1116.00,100.41
1115.00,100.41
1114.00,100.41
1113.00,100.41
1112.00,100.41
1111.00,100.40
1110.00,100.40
1109.00,100.40
1108.00,100.40
1107.00,100.40
1106.00,100.40
1105.00,100.41
1104.00,100.41
1103.00,100.41
1102.00,100.40
1101.00,100.40
1100.00,100.40
1099.00,100.40
1098.00,100.40
1097.00,100.40
1096.00,100.40
1095.00,100.40
1094.00,100.40
1093.00,100.40
1092.00,100.40
1091.00,100.40
1090.00,100.40
1089.00,100.40
1088.00,100.40
1087.00,100.40
1086.00,100.40
1085.00,100.40
1084.00,100.40
1083.00,100.40
1082.00,100.40
1081.00,100.40
1080.00,100.40
1079.00,100.40
1078.00,100.40
1077.00,100.40
1076.00,100.40
1075.00,100.40
1074.00,100.40
1073.00,100.39
1072.00,100.39
1071.00,100.39
1070.00,100.39
1069.00,100.39
1068.00,100.39
1067.00,100.39
1066.00,100.39
1065.00,100.39
1064.00,100.38
1063.00,100.38
1062.00,100.38
1061.00,100.38
1060.00,100.38
1059.00,100.38
1058.00,100.38
1057.00,100.38
1056.00,100.39
1055.00,100.39
1054.00,100.39
1053.00,100.39
1052.00,100.39
1051.00,100.39
1050.00,100.39
1049.00,100.38
1048.00,100.38
1047.00,100.37
1046.00,100.37
1045.00,100.37
1044.00,100.37
1043.00,100.37
1042.00,100.37
1041.00,100.38
1040.00,100.37
1039.00,100.37
1038.00,100.37
1037.00,100.37
1036.00,100.37
1035.00,100.37
1034.00,100.37
1033.00,100.37
1032.00,100.37
1031.00,100.37
1030.00,100.37
1029.00,100.37
1028.00,100.37
1027.00,100.37
1026.00,100.37
1025.00,100.37
1024.00,100.37
1023.00,100.37
1022.00,100.37
1021.00,100.37
1020.00,100.37
1019.00,100.37
1018.00,100.37
1017.00,100.36
1016.00,100.36
1015.00,100.36
1014.00,100.35
1013.00,100.35
1012.00,100.35
1011.00,100.35
1010.00,100.35
1009.00,100.35
1008.00,100.35
1007.00,100.35
1006.00,100.35
1005.00,100.35
1004.00,100.35
1003.00,100.35
1002.00,100.35
1001.00,100.35
1000.00,100.35
999.00,100.35
998.00,100.35
997.00,100.35
996.00,100.35
995.00,100.35
994.00,100.35
993.00,100.35
992.00,100.35
991.00,100.36
990.00,100.36
989.00,100.36
988.00,100.36
987.00,100.35
986.00,100.35
985.00,100.36
984.00,100.36
983.00,100.36
982.00,100.36
981.00,100.35
980.00,100.35
979.00,100.35
978.00,100.35
977.00,100.35
976.00,100.35
975.00,100.35
974.00,100.35
973.00,100.35
972.00,100.35
971.00,100.36
970.00,100.36
969.00,100.36
968.00,100.36
967.00,100.36
966.00,100.36
965.00,100.36
964.00,100.36
963.00,100.36
962.00,100.37
961.00,100.37
960.00,100.37
959.00,100.37
958.00,100.37
957.00,100.37
956.00,100.37
955.00,100.37
954.00,100.37
953.00,100.37
952.00,100.37
951.00,100.37
950.00,100.37
949.00,100.37
948.00,100.37
947.00,100.37
946.00,100.37
945.00,100.38
944.00,100.38
943.00,100.38
942.00,100.38
941.00,100.38
940.00,100.37
939.00,100.37
938.00,100.37
937.00,100.37
936.00,100.38
935.00,100.38
934.00,100.38
933.00,100.38
932.00,100.38
931.00,100.38
930.00,100.38
929.00,100.37
928.00,100.37
927.00,100.37
926.00,100.37
925.00,100.37
924.00,100.38
923.00,100.38
922.00,100.39
921.00,100.39
920.00,100.38
919.00,100.38
918.00,100.38
917.00,100.37
916.00,100.37
915.00,100.38
914.00,100.38
913.00,100.39
912.00,100.39
911.00,100.39
910.00,100.39
909.00,100.39
908.00,100.39
907.00,100.38
906.00,100.38
905.00,100.38
904.00,100.38
903.00,100.38
902.00,100.38
901.00,100.37
900.00,100.38
899.00,100.38
898.00,100.38
897.00,100.38
896.00,100.38
895.00,100.38
894.00,100.38
893.00,100.39
892.00,100.38
891.00,100.38
890.00,100.38
889.00,100.38
888.00,100.38
887.00,100.38
886.00,100.38
885.00,100.38
884.00,100.37
883.00,100.37
882.00,100.37
881.00,100.37
880.00,100.37
879.00,100.37
878.00,100.37
877.00,100.37
876.00,100.37
875.00,100.37
874.00,100.37
873.00,100.37
872.00,100.37
871.00,100.37
870.00,100.37
869.00,100.37
868.00,100.36
867.00,100.36
866.00,100.36
865.00,100.36
864.00,100.36
863.00,100.36
862.00,100.36
861.00,100.36
860.00,100.36
859.00,100.36
858.00,100.36
857.00,100.36
856.00,100.36
855.00,100.36
854.00,100.36
853.00,100.36
852.00,100.36
851.00,100.36
850.00,100.36
849.00,100.36
848.00,100.35
847.00,100.35
846.00,100.35
845.00,100.35
844.00,100.35
843.00,100.35
842.00,100.35
841.00,100.35
840.00,100.35
839.00,100.35
838.00,100.35
837.00,100.35
836.00,100.35
835.00,100.36
834.00,100.36
833.00,100.36
832.00,100.36
831.00,100.36
830.00,100.36
829.00,100.37
828.00,100.36
827.00,100.36
826.00,100.36
825.00,100.36
824.00,100.36
823.00,100.36
822.00,100.36
821.00,100.36
820.00,100.36
819.00,100.36
818.00,100.36
817.00,100.36
816.00,100.36
815.00,100.36
814.00,100.36
813.00,100.37
812.00,100.36
811.00,100.36
810.00,100.36
809.00,100.36
808.00,100.36
807.00,100.36
806.00,100.37
805.00,100.37
804.00,100.37
803.00,100.37
802.00,100.36
801.00,100.36
800.00,100.36
799.00,100.36
798.00,100.36
797.00,100.36
796.00,100.35
795.00,100.35
794.00,100.35
793.00,100.35
792.00,100.36
791.00,100.36
790.00,100.36
789.00,100.36
788.00,100.35
787.00,100.35
786.00,100.35
785.00,100.35
784.00,100.35
783.00,100.35
782.00,100.34
781.00,100.35
780.00,100.35
779.00,100.35
778.00,100.35
777.00,100.35
776.00,100.36
775.00,100.36
774.00,100.36
773.00,100.36
772.00,100.36
771.00,100.35
770.00,100.35
769.00,100.35
768.00,100.35
767.00,100.35
766.00,100.35
765.00,100.36
764.00,100.36
763.00,100.35
762.00,100.35
761.00,100.35
760.00,100.35
759.00,100.35
758.00,100.35
757.00,100.35
756.00,100.35
755.00,100.34
754.00,100.34
753.00,100.34
752.00,100.35
751.00,100.35
750.00,100.35
749.00,100.35
748.00,100.35
747.00,100.36
746.00,100.36
745.00,100.36
744.00,100.36
743.00,100.36
742.00,100.35
741.00,100.34
740.00,100.34
739.00,100.33
738.00,100.33
737.00,100.34
736.00,100.35
735.00,100.35
734.00,100.35
733.00,100.34
732.00,100.34
731.00,100.34
730.00,100.34
729.00,100.34
728.00,100.34
727.00,100.34
726.00,100.35
725.00,100.35
724.00,100.35
723.00,100.35
722.00,100.34
721.00,100.34
720.00,100.34
719.00,100.34
718.00,100.35
717.00,100.35
716.00,100.35
715.00,100.35
714.00,100.35
713.00,100.35
712.00,100.35
711.00,100.35
710.00,100.35
709.00,100.35
708.00,100.35
707.00,100.35
706.00,100.35
705.00,100.36
704.00,100.36
703.00,100.37
702.00,100.36
701.00,100.36
700.00,100.36
699.00,100.36
698.00,100.36
697.00,100.36
696.00,100.36
695.00,100.36
694.00,100.36
693.00,100.37
692.00,100.37
691.00,100.37
690.00,100.37
689.00,100.37
688.00,100.37
687.00,100.38
686.00,100.39
685.00,100.40
684.00,100.41
683.00,100.42
682.00,100.41
681.00,100.41
680.00,100.41
679.00,100.40
678.00,100.40
677.00,100.40
676.00,100.39
675.00,100.38
674.00,100.38
673.00,100.40
672.00,100.42
671.00,100.45
670.00,100.51
669.00,100.59
668.00,100.66
667.00,100.63
666.00,100.56
665.00,100.49
664.00,100.44
663.00,100.41
662.00,100.40
661.00,100.40
660.00,100.39
659.00,100.38
658.00,100.39
657.00,100.40
656.00,100.41
655.00,100.41
654.00,100.41
653.00,100.41
652.00,100.40
651.00,100.41
650.00,100.41
649.00,100.41
648.00,100.40
647.00,100.40
646.00,100.40
645.00,100.41
644.00,100.40
643.00,100.39
642.00,100.39
641.00,100.39
640.00,100.38
639.00,100.38
638.00,100.38
637.00,100.38
636.00,100.39
635.00,100.39
634.00,100.40
633.00,100.40
632.00,100.39
631.00,100.39
630.00,100.39
629.00,100.40
628.00,100.39
627.00,100.38
626.00,100.37
625.00,100.38
624.00,100.38
623.00,100.39
622.00,100.40
621.00,100.40
620.00,100.40
619.00,100.40
618.00,100.41
617.00,100.41
616.00,100.40
615.00,100.40
614.00,100.41
613.00,100.41
612.00,100.40
611.00,100.39
610.00,100.39
609.00,100.40
608.00,100.40
607.00,100.40
606.00,100.40
605.00,100.41
604.00,100.41
603.00,100.41
602.00,100.41
601.00,100.40
600.00,100.39
599.00,100.39
598.00,100.39
597.00,100.40
596.00,100.41
595.00,100.43
594.00,100.44
593.00,100.44
592.00,100.41
591.00,100.40
590.00,100.40
589.00,100.40
588.00,100.40
587.00,100.40
586.00,100.39
585.00,100.39
584.00,100.39
583.00,100.41
582.00,100.43
581.00,100.43
580.00,100.41
579.00,100.40
578.00,100.39
577.00,100.39
576.00,100.39
575.00,100.40
574.00,100.42
573.00,100.43
572.00,100.43
571.00,100.41
570.00,100.39
569.00,100.38
568.00,100.37
567.00,100.36
566.00,100.38
565.00,100.40
564.00,100.41
563.00,100.43
562.00,100.44
561.00,100.44
560.00,100.43
559.00,100.41
558.00,100.41
557.00,100.41
556.00,100.40
555.00,100.39
554.00,100.39
553.00,100.39
552.00,100.39
551.00,100.38
550.00,100.38
549.00,100.38
548.00,100.38
547.00,100.38
546.00,100.39
545.00,100.38
544.00,100.37
543.00,100.36
542.00,100.38
541.00,100.40
540.00,100.42
539.00,100.42
538.00,100.42
537.00,100.41
536.00,100.40
535.00,100.40
534.00,100.41
533.00,100.42
532.00,100.42
531.00,100.42
530.00,100.41
529.00,100.40
528.00,100.38
527.00,100.37
526.00,100.37
525.00,100.37
524.00,100.37
523.00,100.38
522.00,100.40
521.00,100.41
520.00,100.42
519.00,100.42
518.00,100.42
517.00,100.41
516.00,100.40
515.00,100.39
514.00,100.40
513.00,100.40
512.00,100.40
511.00,100.41
510.00,100.42
509.00,100.43
508.00,100.44
507.00,100.44
506.00,100.43
505.00,100.42
504.00,100.41
503.00,100.39
502.00,100.39
501.00,100.41
500.00,100.43
