Created as New Dataset,Sample 351 By Analyst Date Tuesday, February 04 2025
cm-1,%T
4000.00,100.36
3999.00,100.36
3998.00,100.36
3997.00,100.36
3996.00,100.36
3995.00,100.36
3994.00,100.36
3993.00,100.36
3992.00,100.36
3991.00,100.36
3990.00,100.36
3989.00,100.36
3988.00,100.36
3987.00,100.36
3986.00,100.36
3985.00,100.36
3984.00,100.36
3983.00,100.36
3982.00,100.36
3981.00,100.36
3980.00,100.36
3979.00,100.36
3978.00,100.36
3977.00,100.36
3976.00,100.36
3975.00,100.36
3974.00,100.36
3973.00,100.36
3972.00,100.36
3971.00,100.36
3970.00,100.36
3969.00,100.36
3968.00,100.36
3967.00,100.36
3966.00,100.35
3965.00,100.35
3964.00,100.35
3963.00,100.35
3962.00,100.35
3961.00,100.35
3960.00,100.35
3959.00,100.35
3958.00,100.35
3957.00,100.35
3956.00,100.35
3955.00,100.35
3954.00,100.35
3953.00,100.35
3952.00,100.35
3951.00,100.34
3950.00,100.33
3949.00,100.33
3948.00,100.32
3947.00,100.32
3946.00,100.31
3945.00,100.31
3944.00,100.31
3943.00,100.32
3942.00,100.33
3941.00,100.33
3940.00,100.33
3939.00,100.33
3938.00,100.34
3937.00,100.34
3936.00,100.33
3935.00,100.32
3934.00,100.31
3933.00,100.31
3932.00,100.31
3931.00,100.32
3930.00,100.32
3929.00,100.32
3928.00,100.32
3927.00,100.32
3926.00,100.33
3925.00,100.33
3924.00,100.33
3923.00,100.32
3922.00,100.31
3921.00,100.29
3920.00,100.29
3919.00,100.29
3918.00,100.29
3917.00,100.30
3916.00,100.31
3915.00,100.32
3914.00,100.33
3913.00,100.33
3912.00,100.34
3911.00,100.35
3910.00,100.35
3909.00,100.35
3908.00,100.34
3907.00,100.33
3906.00,100.31
3905.00,100.28
3904.00,100.26
3903.00,100.23
3902.00,100.20
3901.00,100.19
3900.00,100.21
3899.00,100.23
3898.00,100.25
3897.00,100.27
3896.00,100.28
3895.00,100.29
3894.00,100.30
3893.00,100.30
3892.00,100.31
3891.00,100.31
3890.00,100.31
3889.00,100.29
3888.00,100.26
3887.00,100.24
3886.00,100.25
3885.00,100.27
3884.00,100.27
3883.00,100.25
3882.00,100.24
3881.00,100.25
3880.00,100.27
3879.00,100.28
3878.00,100.28
3877.00,100.26
3876.00,100.26
3875.00,100.27
3874.00,100.29
3873.00,100.29
3872.00,100.26
3871.00,100.23
3870.00,100.23
3869.00,100.24
3868.00,100.25
3867.00,100.23
3866.00,100.21
3865.00,100.22
3864.00,100.24
3863.00,100.25
3862.00,100.25
3861.00,100.25
3860.00,100.25
3859.00,100.28
3858.00,100.31
3857.00,100.35
3856.00,100.37
3855.00,100.35
3854.00,100.32
3853.00,100.29
3852.00,100.27
3851.00,100.25
3850.00,100.24
3849.00,100.24
3848.00,100.25
3847.00,100.26
3846.00,100.27
3845.00,100.27
3844.00,100.27
3843.00,100.27
3842.00,100.27
3841.00,100.26
3840.00,100.25
3839.00,100.24
3838.00,100.24
3837.00,100.23
3836.00,100.23
3835.00,100.24
3834.00,100.24
3833.00,100.24
3832.00,100.25
3831.00,100.26
3830.00,100.27
3829.00,100.27
3828.00,100.27
3827.00,100.27
3826.00,100.28
3825.00,100.29
3824.00,100.27
3823.00,100.24
3822.00,100.23
3821.00,100.25
3820.00,100.26
3819.00,100.25
3818.00,100.23
3817.00,100.22
3816.00,100.24
3815.00,100.28
3814.00,100.30
3813.00,100.30
3812.00,100.30
3811.00,100.31
3810.00,100.32
3809.00,100.31
3808.00,100.30
3807.00,100.30
3806.00,100.30
3805.00,100.29
3804.00,100.27
3803.00,100.25
3802.00,100.25
3801.00,100.28
3800.00,100.28
3799.00,100.26
3798.00,100.24
3797.00,100.24
3796.00,100.27
3795.00,100.29
3794.00,100.30
3793.00,100.30
3792.00,100.31
3791.00,100.33
3790.00,100.34
3789.00,100.34
3788.00,100.34
3787.00,100.33
3786.00,100.33
3785.00,100.33
3784.00,100.33
3783.00,100.32
3782.00,100.31
3781.00,100.30
3780.00,100.30
3779.00,100.31
3778.00,100.32
3777.00,100.31
3776.00,100.31
3775.00,100.31
3774.00,100.32
3773.00,100.32
3772.00,100.31
3771.00,100.30
3770.00,100.29
3769.00,100.29
3768.00,100.28
3767.00,100.26
3766.00,100.26
3765.00,100.27
3764.00,100.28
3763.00,100.28
3762.00,100.26
3761.00,100.26
3760.00,100.26
3759.00,100.27
3758.00,100.26
3757.00,100.26
3756.00,100.25
3755.00,100.24
3754.00,100.23
3753.00,100.23
3752.00,100.22
3751.00,100.20
3750.00,100.18
3749.00,100.18
3748.00,100.18
3747.00,100.17
3746.00,100.15
3745.00,100.16
3744.00,100.18
3743.00,100.20
3742.00,100.18
3741.00,100.16
3740.00,100.14
3739.00,100.13
3738.00,100.13
3737.00,100.12
3736.00,100.14
3735.00,100.15
3734.00,100.16
3733.00,100.16
3732.00,100.17
3731.00,100.19
3730.00,100.20
3729.00,100.20
3728.00,100.20
3727.00,100.21
3726.00,100.23
3725.00,100.23
3724.00,100.23
3723.00,100.23
3722.00,100.23
3721.00,100.25
3720.00,100.26
3719.00,100.26
3718.00,100.26
3717.00,100.27
3716.00,100.27
3715.00,100.26
3714.00,100.25
3713.00,100.24
3712.00,100.23
3711.00,100.23
3710.00,100.22
3709.00,100.23
3708.00,100.24
3707.00,100.25
3706.00,100.27
3705.00,100.28
3704.00,100.29
3703.00,100.29
3702.00,100.30
3701.00,100.31
3700.00,100.31
3699.00,100.30
3698.00,100.30
3697.00,100.30
3696.00,100.31
3695.00,100.31
3694.00,100.30
3693.00,100.29
3692.00,100.29
3691.00,100.28
3690.00,100.27
3689.00,100.26
3688.00,100.25
3687.00,100.26
3686.00,100.26
3685.00,100.26
3684.00,100.26
3683.00,100.27
3682.00,100.27
3681.00,100.27
3680.00,100.28
3679.00,100.27
3678.00,100.25
3677.00,100.22
3676.00,100.20
3675.00,100.21
3674.00,100.21
3673.00,100.19
3672.00,100.16
3671.00,100.16
3670.00,100.20
3669.00,100.23
3668.00,100.25
3667.00,100.25
3666.00,100.25
3665.00,100.27
3664.00,100.29
3663.00,100.30
3662.00,100.31
3661.00,100.31
3660.00,100.31
3659.00,100.31
3658.00,100.29
3657.00,100.28
3656.00,100.28
3655.00,100.27
3654.00,100.25
3653.00,100.22
3652.00,100.18
3651.00,100.16
3650.00,100.16
3649.00,100.14
3648.00,100.14
3647.00,100.15
3646.00,100.17
3645.00,100.19
3644.00,100.22
3643.00,100.25
3642.00,100.28
3641.00,100.30
3640.00,100.30
3639.00,100.30
3638.00,100.30
3637.00,100.30
3636.00,100.29
3635.00,100.28
3634.00,100.28
3633.00,100.28
3632.00,100.26
3631.00,100.23
3630.00,100.20
3629.00,100.20
3628.00,100.21
3627.00,100.21
3626.00,100.21
3625.00,100.21
3624.00,100.23
3623.00,100.25
3622.00,100.27
3621.00,100.27
3620.00,100.27
3619.00,100.26
3618.00,100.24
3617.00,100.22
3616.00,100.20
3615.00,100.19
3614.00,100.19
3613.00,100.19
3612.00,100.20
3611.00,100.19
3610.00,100.18
3609.00,100.18
3608.00,100.21
3607.00,100.23
3606.00,100.24
3605.00,100.25
3604.00,100.26
3603.00,100.27
3602.00,100.28
3601.00,100.29
3600.00,100.29
3599.00,100.28
3598.00,100.27
3597.00,100.26
3596.00,100.26
3595.00,100.26
3594.00,100.26
3593.00,100.26
3592.00,100.25
3591.00,100.24
3590.00,100.22
3589.00,100.21
3588.00,100.22
3587.00,100.23
3586.00,100.24
3585.00,100.24
3584.00,100.25
3583.00,100.26
3582.00,100.28
3581.00,100.29
3580.00,100.31
3579.00,100.31
3578.00,100.31
3577.00,100.31
3576.00,100.31
3575.00,100.31
3574.00,100.31
3573.00,100.30
3572.00,100.29
3571.00,100.27
3570.00,100.24
3569.00,100.22
3568.00,100.21
3567.00,100.21
3566.00,100.22
3565.00,100.22
3564.00,100.23
3563.00,100.24
3562.00,100.26
3561.00,100.28
3560.00,100.29
3559.00,100.30
3558.00,100.30
3557.00,100.31
3556.00,100.31
3555.00,100.31
3554.00,100.31
3553.00,100.31
3552.00,100.31
3551.00,100.30
3550.00,100.29
3549.00,100.28
3548.00,100.27
3547.00,100.27
3546.00,100.27
3545.00,100.28
3544.00,100.28
3543.00,100.29
3542.00,100.29
3541.00,100.30
3540.00,100.31
3539.00,100.31
3538.00,100.32
3537.00,100.32
3536.00,100.32
3535.00,100.32
3534.00,100.32
3533.00,100.32
3532.00,100.31
3531.00,100.31
3530.00,100.31
3529.00,100.30
3528.00,100.30
3527.00,100.29
3526.00,100.28
3525.00,100.28
3524.00,100.29
3523.00,100.29
3522.00,100.30
3521.00,100.30
3520.00,100.31
3519.00,100.31
3518.00,100.32
3517.00,100.32
3516.00,100.33
3515.00,100.33
3514.00,100.33
3513.00,100.32
3512.00,100.32
3511.00,100.32
3510.00,100.32
3509.00,100.32
3508.00,100.32
3507.00,100.31
3506.00,100.31
3505.00,100.30
3504.00,100.31
3503.00,100.31
3502.00,100.31
3501.00,100.31
3500.00,100.31
3499.00,100.32
3498.00,100.32
3497.00,100.32
3496.00,100.33
3495.00,100.33
3494.00,100.33
3493.00,100.33
3492.00,100.33
3491.00,100.33
3490.00,100.33
3489.00,100.33
3488.00,100.33
3487.00,100.33
3486.00,100.33
3485.00,100.33
3484.00,100.33
3483.00,100.33
3482.00,100.34
3481.00,100.33
3480.00,100.33
3479.00,100.33
3478.00,100.33
3477.00,100.34
3476.00,100.34
3475.00,100.34
3474.00,100.34
3473.00,100.34
3472.00,100.34
3471.00,100.34
3470.00,100.33
3469.00,100.33
3468.00,100.33
3467.00,100.33
3466.00,100.34
3465.00,100.34
3464.00,100.34
3463.00,100.34
3462.00,100.34
3461.00,100.34
3460.00,100.34
3459.00,100.34
3458.00,100.34
3457.00,100.34
3456.00,100.34
3455.00,100.34
3454.00,100.34
3453.00,100.34
3452.00,100.34
3451.00,100.34
3450.00,100.34
3449.00,100.34
3448.00,100.34
3447.00,100.34
3446.00,100.33
3445.00,100.33
3444.00,100.33
3443.00,100.33
3442.00,100.34
3441.00,100.34
3440.00,100.34
3439.00,100.34
3438.00,100.34
3437.00,100.34
3436.00,100.34
3435.00,100.34
3434.00,100.34
3433.00,100.34
3432.00,100.34
3431.00,100.34
3430.00,100.34
3429.00,100.34
3428.00,100.34
3427.00,100.34
3426.00,100.34
3425.00,100.34
3424.00,100.34
3423.00,100.34
3422.00,100.34
3421.00,100.34
3420.00,100.34
3419.00,100.34
3418.00,100.34
3417.00,100.34
3416.00,100.34
3415.00,100.34
3414.00,100.34
3413.00,100.34
3412.00,100.34
3411.00,100.34
3410.00,100.34
3409.00,100.34
3408.00,100.34
3407.00,100.34
3406.00,100.34
3405.00,100.34
3404.00,100.34
3403.00,100.34
3402.00,100.34
3401.00,100.34
3400.00,100.34
3399.00,100.34
3398.00,100.34
3397.00,100.34
3396.00,100.34
3395.00,100.34
3394.00,100.34
3393.00,100.34
3392.00,100.34
3391.00,100.34
3390.00,100.34
3389.00,100.35
3388.00,100.35
3387.00,100.35
3386.00,100.35
3385.00,100.35
3384.00,100.35
3383.00,100.35
3382.00,100.35
3381.00,100.35
3380.00,100.35
3379.00,100.35
3378.00,100.35
3377.00,100.34
3376.00,100.34
3375.00,100.34
3374.00,100.34
3373.00,100.34
3372.00,100.34
3371.00,100.34
3370.00,100.34
3369.00,100.34
3368.00,100.34
3367.00,100.34
3366.00,100.34
3365.00,100.34
3364.00,100.34
3363.00,100.34
3362.00,100.34
3361.00,100.34
3360.00,100.34
3359.00,100.34
3358.00,100.34
3357.00,100.34
3356.00,100.35
3355.00,100.35
3354.00,100.35
3353.00,100.35
3352.00,100.34
3351.00,100.34
3350.00,100.34
3349.00,100.34
3348.00,100.35
3347.00,100.35
3346.00,100.35
3345.00,100.35
3344.00,100.35
3343.00,100.35
3342.00,100.35
3341.00,100.35
3340.00,100.35
3339.00,100.34
3338.00,100.34
3337.00,100.34
3336.00,100.35
3335.00,100.35
3334.00,100.35
3333.00,100.35
3332.00,100.35
3331.00,100.35
3330.00,100.35
3329.00,100.35
3328.00,100.35
3327.00,100.35
3326.00,100.35
3325.00,100.35
3324.00,100.35
3323.00,100.35
3322.00,100.35
3321.00,100.35
3320.00,100.35
3319.00,100.35
3318.00,100.35
3317.00,100.35
3316.00,100.35
3315.00,100.35
3314.00,100.35
3313.00,100.35
3312.00,100.35
3311.00,100.35
3310.00,100.35
3309.00,100.35
3308.00,100.35
3307.00,100.35
3306.00,100.35
3305.00,100.35
3304.00,100.35
3303.00,100.35
3302.00,100.35
3301.00,100.35
3300.00,100.35
3299.00,100.35
3298.00,100.35
3297.00,100.35
3296.00,100.35
3295.00,100.35
3294.00,100.35
3293.00,100.35
3292.00,100.35
3291.00,100.35
3290.00,100.35
3289.00,100.35
3288.00,100.35
3287.00,100.35
3286.00,100.35
3285.00,100.35
3284.00,100.35
3283.00,100.36
3282.00,100.36
3281.00,100.35
3280.00,100.35
3279.00,100.35
3278.00,100.35
3277.00,100.35
3276.00,100.35
3275.00,100.35
3274.00,100.35
3273.00,100.35
3272.00,100.35
3271.00,100.35
3270.00,100.35
3269.00,100.36
3268.00,100.36
3267.00,100.36
3266.00,100.36
3265.00,100.36
3264.00,100.35
3263.00,100.35
3262.00,100.35
3261.00,100.35
3260.00,100.35
3259.00,100.35
3258.00,100.35
3257.00,100.35
3256.00,100.35
3255.00,100.35
3254.00,100.35
3253.00,100.35
3252.00,100.35
3251.00,100.35
3250.00,100.35
3249.00,100.35
3248.00,100.35
3247.00,100.35
3246.00,100.35
3245.00,100.35
3244.00,100.35
3243.00,100.35
3242.00,100.35
3241.00,100.35
3240.00,100.35
3239.00,100.35
3238.00,100.35
3237.00,100.35
3236.00,100.35
3235.00,100.35
3234.00,100.35
3233.00,100.35
3232.00,100.35
3231.00,100.35
3230.00,100.35
3229.00,100.35
3228.00,100.35
3227.00,100.35
3226.00,100.35
3225.00,100.35
3224.00,100.35
3223.00,100.35
3222.00,100.35
3221.00,100.35
3220.00,100.35
3219.00,100.35
3218.00,100.35
3217.00,100.35
3216.00,100.35
3215.00,100.35
3214.00,100.35
3213.00,100.35
3212.00,100.35
3211.00,100.35
3210.00,100.35
3209.00,100.35
3208.00,100.35
3207.00,100.35
3206.00,100.35
3205.00,100.36
3204.00,100.36
3203.00,100.35
3202.00,100.35
3201.00,100.35
3200.00,100.35
3199.00,100.35
3198.00,100.35
3197.00,100.35
3196.00,100.35
3195.00,100.35
3194.00,100.35
3193.00,100.35
3192.00,100.36
3191.00,100.36
3190.00,100.36
3189.00,100.36
3188.00,100.36
3187.00,100.35
3186.00,100.35
3185.00,100.35
3184.00,100.35
3183.00,100.35
3182.00,100.35
3181.00,100.35
3180.00,100.35
3179.00,100.35
3178.00,100.35
3177.00,100.35
3176.00,100.35
3175.00,100.35
3174.00,100.35
3173.00,100.35
3172.00,100.35
3171.00,100.35
3170.00,100.35
3169.00,100.35
3168.00,100.35
3167.00,100.35
3166.00,100.35
3165.00,100.35
3164.00,100.35
3163.00,100.35
3162.00,100.35
3161.00,100.35
3160.00,100.35
3159.00,100.35
3158.00,100.35
3157.00,100.35
3156.00,100.35
3155.00,100.35
3154.00,100.35
3153.00,100.35
3152.00,100.35
3151.00,100.35
3150.00,100.35
3149.00,100.35
3148.00,100.35
3147.00,100.35
3146.00,100.35
3145.00,100.35
3144.00,100.35
3143.00,100.35
3142.00,100.35
3141.00,100.35
3140.00,100.35
3139.00,100.35
3138.00,100.35
3137.00,100.35
3136.00,100.35
3135.00,100.35
3134.00,100.35
3133.00,100.35
3132.00,100.35
3131.00,100.35
3130.00,100.35
3129.00,100.35
3128.00,100.35
3127.00,100.35
3126.00,100.35
3125.00,100.35
3124.00,100.34
3123.00,100.34
3122.00,100.34
3121.00,100.34
3120.00,100.35
3119.00,100.35
3118.00,100.34
3117.00,100.34
3116.00,100.34
3115.00,100.34
3114.00,100.34
3113.00,100.34
3112.00,100.34
3111.00,100.34
3110.00,100.34
3109.00,100.35
3108.00,100.35
3107.00,100.35
3106.00,100.35
3105.00,100.35
3104.00,100.35
3103.00,100.35
3102.00,100.34
3101.00,100.34
3100.00,100.34
3099.00,100.34
3098.00,100.35
3097.00,100.34
3096.00,100.34
3095.00,100.34
3094.00,100.34
3093.00,100.34
3092.00,100.34
3091.00,100.34
3090.00,100.34
3089.00,100.34
3088.00,100.35
3087.00,100.35
3086.00,100.34
3085.00,100.34
3084.00,100.34
3083.00,100.34
3082.00,100.34
3081.00,100.34
3080.00,100.34
3079.00,100.34
3078.00,100.34
3077.00,100.34
3076.00,100.35
3075.00,100.35
3074.00,100.35
3073.00,100.35
3072.00,100.35
3071.00,100.34
3070.00,100.34
3069.00,100.34
3068.00,100.34
3067.00,100.34
3066.00,100.34
3065.00,100.34
3064.00,100.34
3063.00,100.34
3062.00,100.34
3061.00,100.34
3060.00,100.34
3059.00,100.34
3058.00,100.34
3057.00,100.34
3056.00,100.34
3055.00,100.34
3054.00,100.34
3053.00,100.34
3052.00,100.34
3051.00,100.34
3050.00,100.35
3049.00,100.35
3048.00,100.34
3047.00,100.34
3046.00,100.34
3045.00,100.34
3044.00,100.34
3043.00,100.34
3042.00,100.34
3041.00,100.34
3040.00,100.34
3039.00,100.34
3038.00,100.34
3037.00,100.34
3036.00,100.33
3035.00,100.33
3034.00,100.33
3033.00,100.33
3032.00,100.33
3031.00,100.33
3030.00,100.33
3029.00,100.34
3028.00,100.34
3027.00,100.33
3026.00,100.33
3025.00,100.33
3024.00,100.33
3023.00,100.33
3022.00,100.34
3021.00,100.34
3020.00,100.34
3019.00,100.34
3018.00,100.34
3017.00,100.34
3016.00,100.33
3015.00,100.33
3014.00,100.33
3013.00,100.33
3012.00,100.33
3011.00,100.34
3010.00,100.34
3009.00,100.34
3008.00,100.34
3007.00,100.34
3006.00,100.34
3005.00,100.34
3004.00,100.34
3003.00,100.34
3002.00,100.34
3001.00,100.34
3000.00,100.34
2999.00,100.34
2998.00,100.33
2997.00,100.33
2996.00,100.33
2995.00,100.33
2994.00,100.33
2993.00,100.33
2992.00,100.33
2991.00,100.33
2990.00,100.33
2989.00,100.33
2988.00,100.33
2987.00,100.33
2986.00,100.33
2985.00,100.33
2984.00,100.33
2983.00,100.33
2982.00,100.33
2981.00,100.33
2980.00,100.33
2979.00,100.33
2978.00,100.33
2977.00,100.33
2976.00,100.33
2975.00,100.33
2974.00,100.33
2973.00,100.33
2972.00,100.33
2971.00,100.33
2970.00,100.33
2969.00,100.33
2968.00,100.33
2967.00,100.33
2966.00,100.33
2965.00,100.33
2964.00,100.33
2963.00,100.33
2962.00,100.33
2961.00,100.33
2960.00,100.33
2959.00,100.34
2958.00,100.34
2957.00,100.34
2956.00,100.34
2955.00,100.34
2954.00,100.33
2953.00,100.33
2952.00,100.34
2951.00,100.34
2950.00,100.33
2949.00,100.33
2948.00,100.33
2947.00,100.33
2946.00,100.33
2945.00,100.32
2944.00,100.32
2943.00,100.32
2942.00,100.32
2941.00,100.32
2940.00,100.32
2939.00,100.32
2938.00,100.33
2937.00,100.32
2936.00,100.32
2935.00,100.32
2934.00,100.32
2933.00,100.32
2932.00,100.32
2931.00,100.33
2930.00,100.33
2929.00,100.33
2928.00,100.33
2927.00,100.34
2926.00,100.34
2925.00,100.34
2924.00,100.35
2923.00,100.35
2922.00,100.35
2921.00,100.35
2920.00,100.35
2919.00,100.35
2918.00,100.35
2917.00,100.34
2916.00,100.35
2915.00,100.35
2914.00,100.34
2913.00,100.34
2912.00,100.34
2911.00,100.34
2910.00,100.34
2909.00,100.34
2908.00,100.33
2907.00,100.33
2906.00,100.33
2905.00,100.33
2904.00,100.33
2903.00,100.33
2902.00,100.33
2901.00,100.33
2900.00,100.33
2899.00,100.33
2898.00,100.33
2897.00,100.33
2896.00,100.33
2895.00,100.33
2894.00,100.33
2893.00,100.33
2892.00,100.33
2891.00,100.33
2890.00,100.33
2889.00,100.33
2888.00,100.33
2887.00,100.33
2886.00,100.33
2885.00,100.33
2884.00,100.33
2883.00,100.33
2882.00,100.33
2881.00,100.33
2880.00,100.33
2879.00,100.33
2878.00,100.33
2877.00,100.33
2876.00,100.33
2875.00,100.33
2874.00,100.32
2873.00,100.32
2872.00,100.32
2871.00,100.32
2870.00,100.32
2869.00,100.32
2868.00,100.33
2867.00,100.33
2866.00,100.33
2865.00,100.33
2864.00,100.33
2863.00,100.33
2862.00,100.33
2861.00,100.33
2860.00,100.33
2859.00,100.33
2858.00,100.34
2857.00,100.34
2856.00,100.34
2855.00,100.35
2854.00,100.35
2853.00,100.35
2852.00,100.35
2851.00,100.35
2850.00,100.35
2849.00,100.35
2848.00,100.35
2847.00,100.35
2846.00,100.35
2845.00,100.35
2844.00,100.34
2843.00,100.34
2842.00,100.34
2841.00,100.33
2840.00,100.33
2839.00,100.33
2838.00,100.33
2837.00,100.33
2836.00,100.32
2835.00,100.33
2834.00,100.33
2833.00,100.33
2832.00,100.33
2831.00,100.33
2830.00,100.33
2829.00,100.33
2828.00,100.33
2827.00,100.33
2826.00,100.33
2825.00,100.33
2824.00,100.33
2823.00,100.33
2822.00,100.33
2821.00,100.33
2820.00,100.33
2819.00,100.33
2818.00,100.33
2817.00,100.33
2816.00,100.32
2815.00,100.33
2814.00,100.33
2813.00,100.33
2812.00,100.33
2811.00,100.33
2810.00,100.33
2809.00,100.33
2808.00,100.33
2807.00,100.33
2806.00,100.33
2805.00,100.32
2804.00,100.32
2803.00,100.32
2802.00,100.32
2801.00,100.32
2800.00,100.32
2799.00,100.32
2798.00,100.32
2797.00,100.32
2796.00,100.33
2795.00,100.33
2794.00,100.32
2793.00,100.32
2792.00,100.33
2791.00,100.33
2790.00,100.32
2789.00,100.32
2788.00,100.33
2787.00,100.33
2786.00,100.33
2785.00,100.33
2784.00,100.33
2783.00,100.33
2782.00,100.33
2781.00,100.33
2780.00,100.33
2779.00,100.32
2778.00,100.32
2777.00,100.32
2776.00,100.32
2775.00,100.32
2774.00,100.32
2773.00,100.32
2772.00,100.32
2771.00,100.32
2770.00,100.32
2769.00,100.32
2768.00,100.32
2767.00,100.32
2766.00,100.32
2765.00,100.32
2764.00,100.32
2763.00,100.32
2762.00,100.32
2761.00,100.32
2760.00,100.32
2759.00,100.32
2758.00,100.32
2757.00,100.32
2756.00,100.32
2755.00,100.32
2754.00,100.32
2753.00,100.32
2752.00,100.32
2751.00,100.33
2750.00,100.32
2749.00,100.32
2748.00,100.32
2747.00,100.32
2746.00,100.32
2745.00,100.32
2744.00,100.32
2743.00,100.32
2742.00,100.32
2741.00,100.32
2740.00,100.32
2739.00,100.32
2738.00,100.32
2737.00,100.32
2736.00,100.32
2735.00,100.32
2734.00,100.32
2733.00,100.32
2732.00,100.32
2731.00,100.32
2730.00,100.32
2729.00,100.32
2728.00,100.32
2727.00,100.32
2726.00,100.32
2725.00,100.32
2724.00,100.32
2723.00,100.32
2722.00,100.32
2721.00,100.32
2720.00,100.32
2719.00,100.32
2718.00,100.32
2717.00,100.32
2716.00,100.32
2715.00,100.32
2714.00,100.32
2713.00,100.32
2712.00,100.32
2711.00,100.32
2710.00,100.32
2709.00,100.32
2708.00,100.32
2707.00,100.32
2706.00,100.32
2705.00,100.32
2704.00,100.32
2703.00,100.32
2702.00,100.32
2701.00,100.32
2700.00,100.32
2699.00,100.32
2698.00,100.32
2697.00,100.32
2696.00,100.32
2695.00,100.32
2694.00,100.32
2693.00,100.32
2692.00,100.32
2691.00,100.32
2690.00,100.32
2689.00,100.32
2688.00,100.32
2687.00,100.32
2686.00,100.32
2685.00,100.32
2684.00,100.32
2683.00,100.32
2682.00,100.32
2681.00,100.32
2680.00,100.32
2679.00,100.32
2678.00,100.32
2677.00,100.32
2676.00,100.32
2675.00,100.32
2674.00,100.32
2673.00,100.32
2672.00,100.32
2671.00,100.32
2670.00,100.32
2669.00,100.32
2668.00,100.32
2667.00,100.32
2666.00,100.32
2665.00,100.32
2664.00,100.32
2663.00,100.32
2662.00,100.32
2661.00,100.32
2660.00,100.32
2659.00,100.32
2658.00,100.32
2657.00,100.33
2656.00,100.33
2655.00,100.32
2654.00,100.32
2653.00,100.32
2652.00,100.32
2651.00,100.32
2650.00,100.32
2649.00,100.32
2648.00,100.32
2647.00,100.32
2646.00,100.32
2645.00,100.32
2644.00,100.32
2643.00,100.32
2642.00,100.32
2641.00,100.32
2640.00,100.32
2639.00,100.32
2638.00,100.32
2637.00,100.32
2636.00,100.32
2635.00,100.32
2634.00,100.32
2633.00,100.32
2632.00,100.32
2631.00,100.32
2630.00,100.32
2629.00,100.32
2628.00,100.32
2627.00,100.32
2626.00,100.32
2625.00,100.32
2624.00,100.32
2623.00,100.32
2622.00,100.32
2621.00,100.32
2620.00,100.32
2619.00,100.32
2618.00,100.32
2617.00,100.32
2616.00,100.32
2615.00,100.32
2614.00,100.32
2613.00,100.32
2612.00,100.32
2611.00,100.32
2610.00,100.32
2609.00,100.32
2608.00,100.32
2607.00,100.32
2606.00,100.32
2605.00,100.32
2604.00,100.32
2603.00,100.32
2602.00,100.32
2601.00,100.32
2600.00,100.32
2599.00,100.32
2598.00,100.32
2597.00,100.32
2596.00,100.32
2595.00,100.32
2594.00,100.32
2593.00,100.32
2592.00,100.32
2591.00,100.32
2590.00,100.32
2589.00,100.32
2588.00,100.32
2587.00,100.32
2586.00,100.32
2585.00,100.32
2584.00,100.32
2583.00,100.32
2582.00,100.32
2581.00,100.32
2580.00,100.32
2579.00,100.32
2578.00,100.32
2577.00,100.32
2576.00,100.32
2575.00,100.32
2574.00,100.32
2573.00,100.32
2572.00,100.32
2571.00,100.32
2570.00,100.32
2569.00,100.32
2568.00,100.32
2567.00,100.32
2566.00,100.32
2565.00,100.32
2564.00,100.32
2563.00,100.32
2562.00,100.32
2561.00,100.32
2560.00,100.32
2559.00,100.32
2558.00,100.32
2557.00,100.32
2556.00,100.32
2555.00,100.32
2554.00,100.32
2553.00,100.32
2552.00,100.32
2551.00,100.32
2550.00,100.32
2549.00,100.32
2548.00,100.32
2547.00,100.32
2546.00,100.32
2545.00,100.32
2544.00,100.32
2543.00,100.32
2542.00,100.32
2541.00,100.32
2540.00,100.32
2539.00,100.32
2538.00,100.32
2537.00,100.32
2536.00,100.32
2535.00,100.32
2534.00,100.32
2533.00,100.32
2532.00,100.32
2531.00,100.32
2530.00,100.32
2529.00,100.32
2528.00,100.32
2527.00,100.32
2526.00,100.32
2525.00,100.32
2524.00,100.32
2523.00,100.32
2522.00,100.32
2521.00,100.32
2520.00,100.32
2519.00,100.32
2518.00,100.32
2517.00,100.32
2516.00,100.32
2515.00,100.32
2514.00,100.32
2513.00,100.32
2512.00,100.32
2511.00,100.32
2510.00,100.32
2509.00,100.32
2508.00,100.32
2507.00,100.32
2506.00,100.32
2505.00,100.32
2504.00,100.32
2503.00,100.32
2502.00,100.32
2501.00,100.32
2500.00,100.32
2499.00,100.32
2498.00,100.32
2497.00,100.32
2496.00,100.32
2495.00,100.32
2494.00,100.32
2493.00,100.32
2492.00,100.32
2491.00,100.32
2490.00,100.32
2489.00,100.32
2488.00,100.32
2487.00,100.32
2486.00,100.32
2485.00,100.32
2484.00,100.32
2483.00,100.32
2482.00,100.32
2481.00,100.32
2480.00,100.32
2479.00,100.32
2478.00,100.32
2477.00,100.32
2476.00,100.32
2475.00,100.32
2474.00,100.32
2473.00,100.32
2472.00,100.32
2471.00,100.32
2470.00,100.32
2469.00,100.32
2468.00,100.32
2467.00,100.32
2466.00,100.32
2465.00,100.32
2464.00,100.32
2463.00,100.32
2462.00,100.32
2461.00,100.32
2460.00,100.32
2459.00,100.32
2458.00,100.32
2457.00,100.32
2456.00,100.32
2455.00,100.32
2454.00,100.32
2453.00,100.32
2452.00,100.32
2451.00,100.32
2450.00,100.32
2449.00,100.32
2448.00,100.32
2447.00,100.32
2446.00,100.32
2445.00,100.32
2444.00,100.32
2443.00,100.31
2442.00,100.31
2441.00,100.32
2440.00,100.32
2439.00,100.32
2438.00,100.32
2437.00,100.32
2436.00,100.32
2435.00,100.32
2434.00,100.32
2433.00,100.32
2432.00,100.32
2431.00,100.32
2430.00,100.32
2429.00,100.32
2428.00,100.32
2427.00,100.32
2426.00,100.32
2425.00,100.32
2424.00,100.32
2423.00,100.32
2422.00,100.32
2421.00,100.32
2420.00,100.32
2419.00,100.32
2418.00,100.32
2417.00,100.32
2416.00,100.32
2415.00,100.32
2414.00,100.32
2413.00,100.32
2412.00,100.32
2411.00,100.32
2410.00,100.32
2409.00,100.32
2408.00,100.32
2407.00,100.32
2406.00,100.32
2405.00,100.32
2404.00,100.32
2403.00,100.32
2402.00,100.32
2401.00,100.32
2400.00,100.32
2399.00,100.32
2398.00,100.32
2397.00,100.32
2396.00,100.32
2395.00,100.32
2394.00,100.32
2393.00,100.32
2392.00,100.32
2391.00,100.32
2390.00,100.31
2389.00,100.31
2388.00,100.31
2387.00,100.31
2386.00,100.31
2385.00,100.31
2384.00,100.31
2383.00,100.31
2382.00,100.31
2381.00,100.31
2380.00,100.31
2379.00,100.32
2378.00,100.32
2377.00,100.32
2376.00,100.32
2375.00,100.31
2374.00,100.31
2373.00,100.30
2372.00,100.30
2371.00,100.29
2370.00,100.30
2369.00,100.30
2368.00,100.30
2367.00,100.30
2366.00,100.29
2365.00,100.29
2364.00,100.29
2363.00,100.29
2362.00,100.29
2361.00,100.29
2360.00,100.28
2359.00,100.28
2358.00,100.28
2357.00,100.27
2356.00,100.26
2355.00,100.26
2354.00,100.26
2353.00,100.28
2352.00,100.29
2351.00,100.30
2350.00,100.29
2349.00,100.27
2348.00,100.24
2347.00,100.24
2346.00,100.25
2345.00,100.27
2344.00,100.27
2343.00,100.27
2342.00,100.26
2341.00,100.26
2340.00,100.26
2339.00,100.26
2338.00,100.27
2337.00,100.27
2336.00,100.27
2335.00,100.27
2334.00,100.26
2333.00,100.26
2332.00,100.27
2331.00,100.27
2330.00,100.27
2329.00,100.27
2328.00,100.27
2327.00,100.27
2326.00,100.26
2325.00,100.26
2324.00,100.26
2323.00,100.27
2322.00,100.27
2321.00,100.27
2320.00,100.27
2319.00,100.27
2318.00,100.27
2317.00,100.27
2316.00,100.27
2315.00,100.27
2314.00,100.28
2313.00,100.28
2312.00,100.28
2311.00,100.28
2310.00,100.28
2309.00,100.28
2308.00,100.28
2307.00,100.28
2306.00,100.28
2305.00,100.29
2304.00,100.29
2303.00,100.29
2302.00,100.29
2301.00,100.30
2300.00,100.30
2299.00,100.30
2298.00,100.30
2297.00,100.30
2296.00,100.30
2295.00,100.30
2294.00,100.30
2293.00,100.31
2292.00,100.31
2291.00,100.31
2290.00,100.31
2289.00,100.31
2288.00,100.31
2287.00,100.31
2286.00,100.31
2285.00,100.31
2284.00,100.31
2283.00,100.31
2282.00,100.31
2281.00,100.31
2280.00,100.31
2279.00,100.31
2278.00,100.31
2277.00,100.31
2276.00,100.32
2275.00,100.32
2274.00,100.31
2273.00,100.31
2272.00,100.31
2271.00,100.31
2270.00,100.31
2269.00,100.31
2268.00,100.31
2267.00,100.31
2266.00,100.31
2265.00,100.31
2264.00,100.31
2263.00,100.31
2262.00,100.31
2261.00,100.31
2260.00,100.31
2259.00,100.31
2258.00,100.31
2257.00,100.31
2256.00,100.31
2255.00,100.31
2254.00,100.31
2253.00,100.31
2252.00,100.31
2251.00,100.31
2250.00,100.31
2249.00,100.31
2248.00,100.31
2247.00,100.31
2246.00,100.31
2245.00,100.31
2244.00,100.31
2243.00,100.31
2242.00,100.31
2241.00,100.31
2240.00,100.31
2239.00,100.31
2238.00,100.31
2237.00,100.31
2236.00,100.31
2235.00,100.31
2234.00,100.31
2233.00,100.31
2232.00,100.31
2231.00,100.31
2230.00,100.31
2229.00,100.31
2228.00,100.31
2227.00,100.31
2226.00,100.31
2225.00,100.31
2224.00,100.31
2223.00,100.31
2222.00,100.31
2221.00,100.31
2220.00,100.31
2219.00,100.31
2218.00,100.31
2217.00,100.31
2216.00,100.31
2215.00,100.31
2214.00,100.31
2213.00,100.31
2212.00,100.31
2211.00,100.31
2210.00,100.31
2209.00,100.31
2208.00,100.31
2207.00,100.31
2206.00,100.31
2205.00,100.31
2204.00,100.31
2203.00,100.31
2202.00,100.31
2201.00,100.31
2200.00,100.31
2199.00,100.31
2198.00,100.31
2197.00,100.31
2196.00,100.31
2195.00,100.31
2194.00,100.31
2193.00,100.31
2192.00,100.31
2191.00,100.31
2190.00,100.31
2189.00,100.31
2188.00,100.31
2187.00,100.31
2186.00,100.31
2185.00,100.31
2184.00,100.31
2183.00,100.31
2182.00,100.31
2181.00,100.31
2180.00,100.31
2179.00,100.31
2178.00,100.31
2177.00,100.31
2176.00,100.31
2175.00,100.31
2174.00,100.31
2173.00,100.31
2172.00,100.31
2171.00,100.31
2170.00,100.31
2169.00,100.31
2168.00,100.31
2167.00,100.31
2166.00,100.31
2165.00,100.31
2164.00,100.31
2163.00,100.31
2162.00,100.31
2161.00,100.31
2160.00,100.31
2159.00,100.31
2158.00,100.31
2157.00,100.31
2156.00,100.31
2155.00,100.31
2154.00,100.31
2153.00,100.31
2152.00,100.31
2151.00,100.31
2150.00,100.31
2149.00,100.31
2148.00,100.31
2147.00,100.31
2146.00,100.31
2145.00,100.31
2144.00,100.31
2143.00,100.31
2142.00,100.31
2141.00,100.31
2140.00,100.31
2139.00,100.31
2138.00,100.31
2137.00,100.31
2136.00,100.31
2135.00,100.31
2134.00,100.31
2133.00,100.31
2132.00,100.31
2131.00,100.31
2130.00,100.31
2129.00,100.31
2128.00,100.31
2127.00,100.31
2126.00,100.31
2125.00,100.31
2124.00,100.31
2123.00,100.31
2122.00,100.31
2121.00,100.31
2120.00,100.31
2119.00,100.31
2118.00,100.31
2117.00,100.31
2116.00,100.31
2115.00,100.31
2114.00,100.31
2113.00,100.31
2112.00,100.31
2111.00,100.31
2110.00,100.31
2109.00,100.31
2108.00,100.31
2107.00,100.31
2106.00,100.31
2105.00,100.31
2104.00,100.31
2103.00,100.31
2102.00,100.31
2101.00,100.31
2100.00,100.31
2099.00,100.31
2098.00,100.31
2097.00,100.31
2096.00,100.31
2095.00,100.31
2094.00,100.31
2093.00,100.31
2092.00,100.31
2091.00,100.31
2090.00,100.31
2089.00,100.31
2088.00,100.31
2087.00,100.31
2086.00,100.31
2085.00,100.31
2084.00,100.31
2083.00,100.31
2082.00,100.31
2081.00,100.31
2080.00,100.31
2079.00,100.31
2078.00,100.31
2077.00,100.31
2076.00,100.31
2075.00,100.31
2074.00,100.31
2073.00,100.31
2072.00,100.31
2071.00,100.31
2070.00,100.31
2069.00,100.31
2068.00,100.31
2067.00,100.31
2066.00,100.31
2065.00,100.31
2064.00,100.32
2063.00,100.31
2062.00,100.31
2061.00,100.31
2060.00,100.31
2059.00,100.31
2058.00,100.31
2057.00,100.31
2056.00,100.31
2055.00,100.31
2054.00,100.31
2053.00,100.31
2052.00,100.31
2051.00,100.31
2050.00,100.31
2049.00,100.31
2048.00,100.31
2047.00,100.31
2046.00,100.31
2045.00,100.31
2044.00,100.31
2043.00,100.31
2042.00,100.31
2041.00,100.31
2040.00,100.31
2039.00,100.31
2038.00,100.31
2037.00,100.31
2036.00,100.31
2035.00,100.31
2034.00,100.31
2033.00,100.31
2032.00,100.31
2031.00,100.31
2030.00,100.31
2029.00,100.31
2028.00,100.31
2027.00,100.31
2026.00,100.31
2025.00,100.31
2024.00,100.31
2023.00,100.31
2022.00,100.31
2021.00,100.31
2020.00,100.31
2019.00,100.31
2018.00,100.31
2017.00,100.31
2016.00,100.31
2015.00,100.31
2014.00,100.31
2013.00,100.31
2012.00,100.31
2011.00,100.31
2010.00,100.31
2009.00,100.31
2008.00,100.31
2007.00,100.31
2006.00,100.31
2005.00,100.31
2004.00,100.31
2003.00,100.31
2002.00,100.30
2001.00,100.30
2000.00,100.31
1999.00,100.31
1998.00,100.30
1997.00,100.30
1996.00,100.31
1995.00,100.31
1994.00,100.31
1993.00,100.31
1992.00,100.31
1991.00,100.31
1990.00,100.31
1989.00,100.31
1988.00,100.31
1987.00,100.31
1986.00,100.31
1985.00,100.31
1984.00,100.31
1983.00,100.31
1982.00,100.31
1981.00,100.31
1980.00,100.31
1979.00,100.31
1978.00,100.30
1977.00,100.30
1976.00,100.30
1975.00,100.30
1974.00,100.31
1973.00,100.31
1972.00,100.31
1971.00,100.31
1970.00,100.31
1969.00,100.31
1968.00,100.31
1967.00,100.31
1966.00,100.31
1965.00,100.31
1964.00,100.30
1963.00,100.30
1962.00,100.31
1961.00,100.31
1960.00,100.31
1959.00,100.31
1958.00,100.31
1957.00,100.31
1956.00,100.31
1955.00,100.31
1954.00,100.31
1953.00,100.31
1952.00,100.31
1951.00,100.31
1950.00,100.31
1949.00,100.31
1948.00,100.31
1947.00,100.31
1946.00,100.31
1945.00,100.31
1944.00,100.31
1943.00,100.31
1942.00,100.31
1941.00,100.31
1940.00,100.30
1939.00,100.30
1938.00,100.30
1937.00,100.30
1936.00,100.31
1935.00,100.31
1934.00,100.31
1933.00,100.31
1932.00,100.31
1931.00,100.31
1930.00,100.31
1929.00,100.31
1928.00,100.30
1927.00,100.30
1926.00,100.31
1925.00,100.31
1924.00,100.31
1923.00,100.31
1922.00,100.31
1921.00,100.30
1920.00,100.29
1919.00,100.29
1918.00,100.30
1917.00,100.30
1916.00,100.30
1915.00,100.30
1914.00,100.30
1913.00,100.30
1912.00,100.30
1911.00,100.31
1910.00,100.31
1909.00,100.31
1908.00,100.31
1907.00,100.31
1906.00,100.30
1905.00,100.30
1904.00,100.30
1903.00,100.30
1902.00,100.30
1901.00,100.30
1900.00,100.31
1899.00,100.31
1898.00,100.31
1897.00,100.31
1896.00,100.31
1895.00,100.31
1894.00,100.31
1893.00,100.30
1892.00,100.31
1891.00,100.31
1890.00,100.31
1889.00,100.31
1888.00,100.31
1887.00,100.30
1886.00,100.30
1885.00,100.30
1884.00,100.30
1883.00,100.30
1882.00,100.30
1881.00,100.31
1880.00,100.31
1879.00,100.31
1878.00,100.31
1877.00,100.31
1876.00,100.31
1875.00,100.30
1874.00,100.30
1873.00,100.30
1872.00,100.30
1871.00,100.30
1870.00,100.30
1869.00,100.30
1868.00,100.30
1867.00,100.30
1866.00,100.29
1865.00,100.29
1864.00,100.30
1863.00,100.30
1862.00,100.30
1861.00,100.31
1860.00,100.31
1859.00,100.31
1858.00,100.30
1857.00,100.31
1856.00,100.31
1855.00,100.31
1854.00,100.31
1853.00,100.30
1852.00,100.30
1851.00,100.30
1850.00,100.30
1849.00,100.30
1848.00,100.31
1847.00,100.30
1846.00,100.30
1845.00,100.30
1844.00,100.30
1843.00,100.30
1842.00,100.29
1841.00,100.29
1840.00,100.29
1839.00,100.29
1838.00,100.30
1837.00,100.30
1836.00,100.30
1835.00,100.30
1834.00,100.30
1833.00,100.30
1832.00,100.30
1831.00,100.31
1830.00,100.31
1829.00,100.31
1828.00,100.30
1827.00,100.29
1826.00,100.29
1825.00,100.29
1824.00,100.30
1823.00,100.30
1822.00,100.29
1821.00,100.29
1820.00,100.30
1819.00,100.30
1818.00,100.30
1817.00,100.30
1816.00,100.30
1815.00,100.30
1814.00,100.30
1813.00,100.30
1812.00,100.30
1811.00,100.30
1810.00,100.30
1809.00,100.29
1808.00,100.30
1807.00,100.30
1806.00,100.30
1805.00,100.30
1804.00,100.30
1803.00,100.30
1802.00,100.29
1801.00,100.29
1800.00,100.29
1799.00,100.29
1798.00,100.29
1797.00,100.29
1796.00,100.30
1795.00,100.30
1794.00,100.29
1793.00,100.29
1792.00,100.29
1791.00,100.29
1790.00,100.28
1789.00,100.28
1788.00,100.28
1787.00,100.28
1786.00,100.28
1785.00,100.28
1784.00,100.28
1783.00,100.29
1782.00,100.29
1781.00,100.29
1780.00,100.29
1779.00,100.29
1778.00,100.29
1777.00,100.29
1776.00,100.29
1775.00,100.29
1774.00,100.29
1773.00,100.28
1772.00,100.28
1771.00,100.28
1770.00,100.27
1769.00,100.26
1768.00,100.26
1767.00,100.27
1766.00,100.28
1765.00,100.28
1764.00,100.28
1763.00,100.29
1762.00,100.30
1761.00,100.30
1760.00,100.29
1759.00,100.29
1758.00,100.28
1757.00,100.28
1756.00,100.27
1755.00,100.27
1754.00,100.25
1753.00,100.22
1752.00,100.21
1751.00,100.21
1750.00,100.23
1749.00,100.25
1748.00,100.25
1747.00,100.26
1746.00,100.27
1745.00,100.27
1744.00,100.28
1743.00,100.29
1742.00,100.29
1741.00,100.29
1740.00,100.29
1739.00,100.29
1738.00,100.29
1737.00,100.28
1736.00,100.26
1735.00,100.24
1734.00,100.23
1733.00,100.24
1732.00,100.24
1731.00,100.25
1730.00,100.27
1729.00,100.28
1728.00,100.28
1727.00,100.28
1726.00,100.29
1725.00,100.29
1724.00,100.29
1723.00,100.29
1722.00,100.28
1721.00,100.28
1720.00,100.28
1719.00,100.27
1718.00,100.26
1717.00,100.25
1716.00,100.26
1715.00,100.26
1714.00,100.26
1713.00,100.26
1712.00,100.27
1711.00,100.28
1710.00,100.28
1709.00,100.28
1708.00,100.29
1707.00,100.29
1706.00,100.29
1705.00,100.30
1704.00,100.30
1703.00,100.30
1702.00,100.28
1701.00,100.27
1700.00,100.28
1699.00,100.28
1698.00,100.25
1697.00,100.23
1696.00,100.24
1695.00,100.26
1694.00,100.27
1693.00,100.27
1692.00,100.26
1691.00,100.27
1690.00,100.27
1689.00,100.27
1688.00,100.27
1687.00,100.26
1686.00,100.25
1685.00,100.25
1684.00,100.26
1683.00,100.27
1682.00,100.27
1681.00,100.27
1680.00,100.27
1679.00,100.27
1678.00,100.28
1677.00,100.28
1676.00,100.27
1675.00,100.28
1674.00,100.28
1673.00,100.27
1672.00,100.26
1671.00,100.27
1670.00,100.28
1669.00,100.29
1668.00,100.28
1667.00,100.28
1666.00,100.28
1665.00,100.28
1664.00,100.28
1663.00,100.29
1662.00,100.29
1661.00,100.28
1660.00,100.27
1659.00,100.27
1658.00,100.28
1657.00,100.29
1656.00,100.30
1655.00,100.30
1654.00,100.31
1653.00,100.32
1652.00,100.31
1651.00,100.30
1650.00,100.28
1649.00,100.27
1648.00,100.26
1647.00,100.26
1646.00,100.26
1645.00,100.26
1644.00,100.26
1643.00,100.27
1642.00,100.27
1641.00,100.27
1640.00,100.27
1639.00,100.28
1638.00,100.28
1637.00,100.28
1636.00,100.28
1635.00,100.28
1634.00,100.28
1633.00,100.28
1632.00,100.28
1631.00,100.28
1630.00,100.28
1629.00,100.28
1628.00,100.29
1627.00,100.29
1626.00,100.29
1625.00,100.29
1624.00,100.29
1623.00,100.29
1622.00,100.29
1621.00,100.30
1620.00,100.29
1619.00,100.29
1618.00,100.30
1617.00,100.31
1616.00,100.31
1615.00,100.30
1614.00,100.30
1613.00,100.30
1612.00,100.29
1611.00,100.29
1610.00,100.29
1609.00,100.30
1608.00,100.30
1607.00,100.30
1606.00,100.30
1605.00,100.30
1604.00,100.30
1603.00,100.29
1602.00,100.30
1601.00,100.30
1600.00,100.30
1599.00,100.30
1598.00,100.30
1597.00,100.30
1596.00,100.30
1595.00,100.30
1594.00,100.30
1593.00,100.30
1592.00,100.30
1591.00,100.30
1590.00,100.30
1589.00,100.30
1588.00,100.30
1587.00,100.30
1586.00,100.30
1585.00,100.30
1584.00,100.30
1583.00,100.30
1582.00,100.30
1581.00,100.30
1580.00,100.31
1579.00,100.31
1578.00,100.32
1577.00,100.32
1576.00,100.31
1575.00,100.30
1574.00,100.30
1573.00,100.30
1572.00,100.29
1571.00,100.29
1570.00,100.30
1569.00,100.30
1568.00,100.29
1567.00,100.27
1566.00,100.27
1565.00,100.28
1564.00,100.28
1563.00,100.29
1562.00,100.30
1561.00,100.30
1560.00,100.29
1559.00,100.26
1558.00,100.25
1557.00,100.26
1556.00,100.25
1555.00,100.24
1554.00,100.24
1553.00,100.24
1552.00,100.25
1551.00,100.25
1550.00,100.25
1549.00,100.25
1548.00,100.25
1547.00,100.24
1546.00,100.24
1545.00,100.25
1544.00,100.26
1543.00,100.27
1542.00,100.26
1541.00,100.26
1540.00,100.26
1539.00,100.26
1538.00,100.26
1537.00,100.26
1536.00,100.26
1535.00,100.25
1534.00,100.26
1533.00,100.26
1532.00,100.26
1531.00,100.26
1530.00,100.26
1529.00,100.26
1528.00,100.26
1527.00,100.26
1526.00,100.25
1525.00,100.25
1524.00,100.25
1523.00,100.25
1522.00,100.25
1521.00,100.25
1520.00,100.25
1519.00,100.25
1518.00,100.25
1517.00,100.25
1516.00,100.25
1515.00,100.24
1514.00,100.23
1513.00,100.23
1512.00,100.24
1511.00,100.25
1510.00,100.25
1509.00,100.25
1508.00,100.25
1507.00,100.25
1506.00,100.24
1505.00,100.25
1504.00,100.25
1503.00,100.26
1502.00,100.26
1501.00,100.27
1500.00,100.27
1499.00,100.28
1498.00,100.28
1497.00,100.28
1496.00,100.28
1495.00,100.28
1494.00,100.28
1493.00,100.27
1492.00,100.27
1491.00,100.27
1490.00,100.27
1489.00,100.27
1488.00,100.27
1487.00,100.28
1486.00,100.28
1485.00,100.28
1484.00,100.29
1483.00,100.29
1482.00,100.29
1481.00,100.29
1480.00,100.29
1479.00,100.28
1478.00,100.28
1477.00,100.27
1476.00,100.27
1475.00,100.26
1474.00,100.25
1473.00,100.24
1472.00,100.25
1471.00,100.26
1470.00,100.27
1469.00,100.27
1468.00,100.28
1467.00,100.29
1466.00,100.29
1465.00,100.29
1464.00,100.28
1463.00,100.28
1462.00,100.27
1461.00,100.27
1460.00,100.28
1459.00,100.29
1458.00,100.28
1457.00,100.27
1456.00,100.26
1455.00,100.26
1454.00,100.26
1453.00,100.27
1452.00,100.27
1451.00,100.28
1450.00,100.29
1449.00,100.29
1448.00,100.29
1447.00,100.29
1446.00,100.30
1445.00,100.30
1444.00,100.30
1443.00,100.30
1442.00,100.30
1441.00,100.30
1440.00,100.30
1439.00,100.30
1438.00,100.30
1437.00,100.29
1436.00,100.28
1435.00,100.28
1434.00,100.28
1433.00,100.28
1432.00,100.28
1431.00,100.29
1430.00,100.29
1429.00,100.29
1428.00,100.29
1427.00,100.29
1426.00,100.29
1425.00,100.28
1424.00,100.28
1423.00,100.28
1422.00,100.29
1421.00,100.29
1420.00,100.28
1419.00,100.28
1418.00,100.28
1417.00,100.27
1416.00,100.27
1415.00,100.28
1414.00,100.29
1413.00,100.30
1412.00,100.30
1411.00,100.30
1410.00,100.31
1409.00,100.30
1408.00,100.30
1407.00,100.30
1406.00,100.30
1405.00,100.30
1404.00,100.29
1403.00,100.29
1402.00,100.29
1401.00,100.28
1400.00,100.28
1399.00,100.28
1398.00,100.28
1397.00,100.28
1396.00,100.28
1395.00,100.29
1394.00,100.29
1393.00,100.29
1392.00,100.29
1391.00,100.29
1390.00,100.29
1389.00,100.30
1388.00,100.30
1387.00,100.30
1386.00,100.31
1385.00,100.31
1384.00,100.31
1383.00,100.31
1382.00,100.30
1381.00,100.30
1380.00,100.30
1379.00,100.30
1378.00,100.29
1377.00,100.29
1376.00,100.29
1375.00,100.30
1374.00,100.30
1373.00,100.30
1372.00,100.30
1371.00,100.30
1370.00,100.30
1369.00,100.30
1368.00,100.30
1367.00,100.29
1366.00,100.29
1365.00,100.30
1364.00,100.30
1363.00,100.31
1362.00,100.31
1361.00,100.30
1360.00,100.30
1359.00,100.30
1358.00,100.30
1357.00,100.30
1356.00,100.30
1355.00,100.30
1354.00,100.31
1353.00,100.31
1352.00,100.31
1351.00,100.31
1350.00,100.31
1349.00,100.31
1348.00,100.31
1347.00,100.31
1346.00,100.31
1345.00,100.31
1344.00,100.31
1343.00,100.31
1342.00,100.31
1341.00,100.31
1340.00,100.31
1339.00,100.31
1338.00,100.31
1337.00,100.31
1336.00,100.30
1335.00,100.30
1334.00,100.30
1333.00,100.30
1332.00,100.31
1331.00,100.31
1330.00,100.31
1329.00,100.31
1328.00,100.31
1327.00,100.31
1326.00,100.31
1325.00,100.31
1324.00,100.31
1323.00,100.31
1322.00,100.31
1321.00,100.31
1320.00,100.31
1319.00,100.30
1318.00,100.31
1317.00,100.31
1316.00,100.31
1315.00,100.31
1314.00,100.31
1313.00,100.31
1312.00,100.31
1311.00,100.31
1310.00,100.31
1309.00,100.31
1308.00,100.31
1307.00,100.31
1306.00,100.31
1305.00,100.31
1304.00,100.31
1303.00,100.31
1302.00,100.31
1301.00,100.31
1300.00,100.31
1299.00,100.31
1298.00,100.31
1297.00,100.31
1296.00,100.31
1295.00,100.31
1294.00,100.31
1293.00,100.31
1292.00,100.31
1291.00,100.31
1290.00,100.32
1289.00,100.32
1288.00,100.31
1287.00,100.31
1286.00,100.31
1285.00,100.31
1284.00,100.31
1283.00,100.31
1282.00,100.31
1281.00,100.31
1280.00,100.31
1279.00,100.31
1278.00,100.31
1277.00,100.31
1276.00,100.31
1275.00,100.31
1274.00,100.31
1273.00,100.31
1272.00,100.31
1271.00,100.31
1270.00,100.31
1269.00,100.31
1268.00,100.31
1267.00,100.31
1266.00,100.31
1265.00,100.32
1264.00,100.32
1263.00,100.32
1262.00,100.32
1261.00,100.32
1260.00,100.32
1259.00,100.32
1258.00,100.33
1257.00,100.33
1256.00,100.33
1255.00,100.33
1254.00,100.33
1253.00,100.33
1252.00,100.33
1251.00,100.33
1250.00,100.33
1249.00,100.34
1248.00,100.34
1247.00,100.34
1246.00,100.33
1245.00,100.33
1244.00,100.33
1243.00,100.33
1242.00,100.32
1241.00,100.32
1240.00,100.32
1239.00,100.32
1238.00,100.32
1237.00,100.32
1236.00,100.32
1235.00,100.32
1234.00,100.32
1233.00,100.32
1232.00,100.32
1231.00,100.32
1230.00,100.32
1229.00,100.31
1228.00,100.32
1227.00,100.32
1226.00,100.32
1225.00,100.31
1224.00,100.31
1223.00,100.31
1222.00,100.31
1221.00,100.31
1220.00,100.31
1219.00,100.31
1218.00,100.31
1217.00,100.32
1216.00,100.32
1215.00,100.32
1214.00,100.32
1213.00,100.32
1212.00,100.32
1211.00,100.32
1210.00,100.32
1209.00,100.32
1208.00,100.32
1207.00,100.32
1206.00,100.32
1205.00,100.32
1204.00,100.32
1203.00,100.32
1202.00,100.32
1201.00,100.32
1200.00,100.32
1199.00,100.32
1198.00,100.32
1197.00,100.32
1196.00,100.32
1195.00,100.32
1194.00,100.32
1193.00,100.32
1192.00,100.32
1191.00,100.32
1190.00,100.33
1189.00,100.33
1188.00,100.32
1187.00,100.32
1186.00,100.32
1185.00,100.33
1184.00,100.33
1183.00,100.33
1182.00,100.33
1181.00,100.33
1180.00,100.33
1179.00,100.33
1178.00,100.33
1177.00,100.33
1176.00,100.33
1175.00,100.33
1174.00,100.33
1173.00,100.33
1172.00,100.33
1171.00,100.33
1170.00,100.33
1169.00,100.33
1168.00,100.33
1167.00,100.33
1166.00,100.33
1165.00,100.32
1164.00,100.32
1163.00,100.32
1162.00,100.33
1161.00,100.33
1160.00,100.33
1159.00,100.33
1158.00,100.33
1157.00,100.33
1156.00,100.33
1155.00,100.33
1154.00,100.33
1153.00,100.34
1152.00,100.34
1151.00,100.34
1150.00,100.33
1149.00,100.33
1148.00,100.33
1147.00,100.33
1146.00,100.33
1145.00,100.33
1144.00,100.33
1143.00,100.33
1142.00,100.33
1141.00,100.33
1140.00,100.33
1139.00,100.33
1138.00,100.33
1137.00,100.33
1136.00,100.33
1135.00,100.33
1134.00,100.33
1133.00,100.33
1132.00,100.33
1131.00,100.34
1130.00,100.34
1129.00,100.34
1128.00,100.34
1127.00,100.33
1126.00,100.33
1125.00,100.33
1124.00,100.33
1123.00,100.33
1122.00,100.33
1121.00,100.34
1120.00,100.34
1119.00,100.35
1118.00,100.35
1117.00,100.35
1116.00,100.34
1115.00,100.34
1114.00,100.34
1113.00,100.34
1112.00,100.34
1111.00,100.34
1110.00,100.34
1109.00,100.33
1108.00,100.33
1107.00,100.33
1106.00,100.33
1105.00,100.34
1104.00,100.34
1103.00,100.33
1102.00,100.33
1101.00,100.33
1100.00,100.33
1099.00,100.33
1098.00,100.33
1097.00,100.33
1096.00,100.33
1095.00,100.33
1094.00,100.33
1093.00,100.33
1092.00,100.33
1091.00,100.33
1090.00,100.33
1089.00,100.33
1088.00,100.33
1087.00,100.33
1086.00,100.33
1085.00,100.33
1084.00,100.33
1083.00,100.34
1082.00,100.34
1081.00,100.34
1080.00,100.34
1079.00,100.34
1078.00,100.34
1077.00,100.34
1076.00,100.33
1075.00,100.33
1074.00,100.33
1073.00,100.33
1072.00,100.33
1071.00,100.33
1070.00,100.33
1069.00,100.32
1068.00,100.32
1067.00,100.32
1066.00,100.32
1065.00,100.32
1064.00,100.32
1063.00,100.32
1062.00,100.32
1061.00,100.32
1060.00,100.32
1059.00,100.32
1058.00,100.32
1057.00,100.32
1056.00,100.32
1055.00,100.32
1054.00,100.32
1053.00,100.32
1052.00,100.32
1051.00,100.32
1050.00,100.32
1049.00,100.32
1048.00,100.32
1047.00,100.32
1046.00,100.31
1045.00,100.31
1044.00,100.31
1043.00,100.31
1042.00,100.31
1041.00,100.31
1040.00,100.31
1039.00,100.31
1038.00,100.31
1037.00,100.31
1036.00,100.31
1035.00,100.31
1034.00,100.32
1033.00,100.32
1032.00,100.31
1031.00,100.31
1030.00,100.31
1029.00,100.31
1028.00,100.31
1027.00,100.31
1026.00,100.31
1025.00,100.31
1024.00,100.31
1023.00,100.31
1022.00,100.31
1021.00,100.31
1020.00,100.31
1019.00,100.31
1018.00,100.31
1017.00,100.30
1016.00,100.30
1015.00,100.30
1014.00,100.30
1013.00,100.30
1012.00,100.30
1011.00,100.30
1010.00,100.30
1009.00,100.30
1008.00,100.30
1007.00,100.30
1006.00,100.30
1005.00,100.30
1004.00,100.29
1003.00,100.29
1002.00,100.29
1001.00,100.29
1000.00,100.29
999.00,100.29
998.00,100.29
997.00,100.29
996.00,100.29
995.00,100.30
994.00,100.30
993.00,100.30
992.00,100.30
991.00,100.30
990.00,100.30
989.00,100.30
988.00,100.30
987.00,100.30
986.00,100.30
985.00,100.30
984.00,100.30
983.00,100.30
982.00,100.30
981.00,100.30
980.00,100.30
979.00,100.30
978.00,100.30
977.00,100.30
976.00,100.30
975.00,100.30
974.00,100.30
973.00,100.30
972.00,100.30
971.00,100.30
970.00,100.30
969.00,100.30
968.00,100.30
967.00,100.30
966.00,100.30
965.00,100.30
964.00,100.30
963.00,100.30
962.00,100.31
961.00,100.31
960.00,100.31
959.00,100.31
958.00,100.31
957.00,100.31
956.00,100.31
955.00,100.31
954.00,100.31
953.00,100.31
952.00,100.31
951.00,100.31
950.00,100.31
949.00,100.31
948.00,100.31
947.00,100.31
946.00,100.31
945.00,100.32
944.00,100.32
943.00,100.32
942.00,100.31
941.00,100.31
940.00,100.31
939.00,100.31
938.00,100.32
937.00,100.32
936.00,100.32
935.00,100.32
934.00,100.32
933.00,100.32
932.00,100.32
931.00,100.32
930.00,100.32
929.00,100.32
928.00,100.32
927.00,100.31
926.00,100.32
925.00,100.32
924.00,100.32
923.00,100.32
922.00,100.32
921.00,100.32
920.00,100.32
919.00,100.32
918.00,100.32
917.00,100.32
916.00,100.32
915.00,100.32
914.00,100.33
913.00,100.33
912.00,100.33
911.00,100.33
910.00,100.33
909.00,100.33
908.00,100.33
907.00,100.33
906.00,100.33
905.00,100.32
904.00,100.32
903.00,100.32
902.00,100.31
901.00,100.31
900.00,100.31
899.00,100.31
898.00,100.32
897.00,100.32
896.00,100.31
895.00,100.32
894.00,100.32
893.00,100.32
892.00,100.32
891.00,100.31
890.00,100.32
889.00,100.32
888.00,100.32
887.00,100.32
886.00,100.32
885.00,100.31
884.00,100.31
883.00,100.31
882.00,100.31
881.00,100.31
880.00,100.31
879.00,100.31
878.00,100.31
877.00,100.31
876.00,100.31
875.00,100.31
874.00,100.31
873.00,100.31
872.00,100.31
871.00,100.31
870.00,100.31
869.00,100.31
868.00,100.31
867.00,100.30
866.00,100.30
865.00,100.30
864.00,100.30
863.00,100.30
862.00,100.30
861.00,100.30
860.00,100.30
859.00,100.30
858.00,100.30
857.00,100.30
856.00,100.30
855.00,100.30
854.00,100.30
853.00,100.30
852.00,100.31
851.00,100.31
850.00,100.31
849.00,100.31
848.00,100.31
847.00,100.30
846.00,100.30
845.00,100.31
844.00,100.31
843.00,100.30
842.00,100.30
841.00,100.30
840.00,100.30
839.00,100.30
838.00,100.30
837.00,100.30
836.00,100.31
835.00,100.31
834.00,100.31
833.00,100.31
832.00,100.31
831.00,100.31
830.00,100.31
829.00,100.31
828.00,100.31
827.00,100.31
826.00,100.31
825.00,100.30
824.00,100.30
823.00,100.30
822.00,100.30
821.00,100.31
820.00,100.30
819.00,100.30
818.00,100.29
817.00,100.29
816.00,100.30
815.00,100.30
814.00,100.31
813.00,100.31
812.00,100.31
811.00,100.31
810.00,100.31
809.00,100.31
808.00,100.31
807.00,100.31
806.00,100.31
805.00,100.31
804.00,100.31
803.00,100.31
802.00,100.31
801.00,100.31
800.00,100.30
799.00,100.30
798.00,100.30
797.00,100.30
796.00,100.30
795.00,100.30
794.00,100.30
793.00,100.30
792.00,100.31
791.00,100.31
790.00,100.31
789.00,100.31
788.00,100.30
787.00,100.30
786.00,100.30
785.00,100.30
784.00,100.30
783.00,100.30
782.00,100.29
781.00,100.29
780.00,100.29
779.00,100.29
778.00,100.30
777.00,100.30
776.00,100.30
775.00,100.30
774.00,100.30
773.00,100.30
772.00,100.30
771.00,100.30
770.00,100.30
769.00,100.30
768.00,100.30
767.00,100.30
766.00,100.30
765.00,100.30
764.00,100.30
763.00,100.30
762.00,100.30
761.00,100.30
760.00,100.30
759.00,100.30
758.00,100.30
757.00,100.30
756.00,100.30
755.00,100.29
754.00,100.29
753.00,100.30
752.00,100.30
751.00,100.30
750.00,100.29
749.00,100.29
748.00,100.30
747.00,100.30
746.00,100.31
745.00,100.30
744.00,100.30
743.00,100.30
742.00,100.30
741.00,100.29
740.00,100.29
739.00,100.28
738.00,100.28
737.00,100.29
736.00,100.29
735.00,100.30
734.00,100.30
733.00,100.30
732.00,100.30
731.00,100.30
730.00,100.30
729.00,100.29
728.00,100.29
727.00,100.29
726.00,100.30
725.00,100.30
724.00,100.30
723.00,100.30
722.00,100.30
721.00,100.30
720.00,100.29
719.00,100.29
718.00,100.29
717.00,100.30
716.00,100.30
715.00,100.31
714.00,100.31
713.00,100.31
712.00,100.31
711.00,100.31
710.00,100.31
709.00,100.31
708.00,100.31
707.00,100.30
706.00,100.30
705.00,100.31
704.00,100.31
703.00,100.31
702.00,100.31
701.00,100.31
700.00,100.31
699.00,100.30
698.00,100.30
697.00,100.30
696.00,100.30
695.00,100.30
694.00,100.30
693.00,100.30
692.00,100.31
691.00,100.31
690.00,100.32
689.00,100.32
688.00,100.32
687.00,100.32
686.00,100.33
685.00,100.33
684.00,100.34
683.00,100.35
682.00,100.35
681.00,100.35
680.00,100.35
679.00,100.34
678.00,100.34
677.00,100.33
676.00,100.33
675.00,100.33
674.00,100.33
673.00,100.34
672.00,100.36
671.00,100.39
670.00,100.43
669.00,100.51
668.00,100.55
667.00,100.53
666.00,100.47
665.00,100.41
664.00,100.37
663.00,100.34
662.00,100.33
661.00,100.33
660.00,100.33
659.00,100.33
658.00,100.33
657.00,100.34
656.00,100.35
655.00,100.35
654.00,100.35
653.00,100.35
652.00,100.35
651.00,100.34
650.00,100.35
649.00,100.34
648.00,100.34
647.00,100.34
646.00,100.35
645.00,100.35
644.00,100.35
643.00,100.34
642.00,100.34
641.00,100.34
640.00,100.33
639.00,100.33
638.00,100.33
637.00,100.33
636.00,100.32
635.00,100.32
634.00,100.33
633.00,100.33
632.00,100.32
631.00,100.31
630.00,100.32
629.00,100.33
628.00,100.33
627.00,100.33
626.00,100.32
625.00,100.32
624.00,100.32
623.00,100.33
622.00,100.34
621.00,100.35
620.00,100.35
619.00,100.35
618.00,100.35
617.00,100.34
616.00,100.33
615.00,100.33
614.00,100.34
613.00,100.34
612.00,100.34
611.00,100.33
610.00,100.34
609.00,100.34
608.00,100.35
607.00,100.35
606.00,100.36
605.00,100.36
604.00,100.36
603.00,100.36
602.00,100.35
601.00,100.34
600.00,100.33
599.00,100.33
598.00,100.33
597.00,100.34
596.00,100.36
595.00,100.38
594.00,100.39
593.00,100.39
592.00,100.37
591.00,100.35
590.00,100.34
589.00,100.34
588.00,100.34
587.00,100.34
586.00,100.34
585.00,100.33
584.00,100.33
583.00,100.35
582.00,100.36
581.00,100.37
580.00,100.36
579.00,100.36
578.00,100.36
577.00,100.37
576.00,100.36
575.00,100.35
574.00,100.36
573.00,100.36
572.00,100.36
571.00,100.35
570.00,100.35
569.00,100.35
568.00,100.34
567.00,100.34
566.00,100.34
565.00,100.35
564.00,100.35
563.00,100.35
562.00,100.36
561.00,100.36
560.00,100.36
559.00,100.35
558.00,100.35
557.00,100.34
556.00,100.32
555.00,100.31
554.00,100.32
553.00,100.33
552.00,100.33
551.00,100.33
550.00,100.32
549.00,100.32
548.00,100.32
547.00,100.33
546.00,100.35
545.00,100.36
544.00,100.35
543.00,100.35
542.00,100.36
541.00,100.37
540.00,100.38
539.00,100.37
538.00,100.37
537.00,100.36
536.00,100.35
535.00,100.35
534.00,100.35
533.00,100.36
532.00,100.36
531.00,100.35
530.00,100.35
529.00,100.34
528.00,100.33
527.00,100.32
526.00,100.31
525.00,100.31
524.00,100.31
523.00,100.32
522.00,100.34
521.00,100.35
520.00,100.35
519.00,100.35
518.00,100.34
517.00,100.34
516.00,100.33
515.00,100.33
514.00,100.34
513.00,100.35
512.00,100.36
511.00,100.36
510.00,100.37
509.00,100.37
508.00,100.37
507.00,100.36
506.00,100.37
505.00,100.37
504.00,100.36
503.00,100.35
502.00,100.35
501.00,100.36
500.00,100.37
