Created as New Dataset,Sample 350 By Analyst Date Tuesday, February 04 2025
cm-1,%T
4000.00,100.31
3999.00,100.31
3998.00,100.31
3997.00,100.31
3996.00,100.31
3995.00,100.31
3994.00,100.31
3993.00,100.31
3992.00,100.31
3991.00,100.31
3990.00,100.31
3989.00,100.31
3988.00,100.30
3987.00,100.30
3986.00,100.30
3985.00,100.30
3984.00,100.30
3983.00,100.30
3982.00,100.30
3981.00,100.30
3980.00,100.30
3979.00,100.30
3978.00,100.30
3977.00,100.30
3976.00,100.30
3975.00,100.31
3974.00,100.31
3973.00,100.31
3972.00,100.30
3971.00,100.30
3970.00,100.30
3969.00,100.31
3968.00,100.31
3967.00,100.31
3966.00,100.30
3965.00,100.30
3964.00,100.30
3963.00,100.30
3962.00,100.30
3961.00,100.30
3960.00,100.30
3959.00,100.30
3958.00,100.30
3957.00,100.30
3956.00,100.30
3955.00,100.30
3954.00,100.30
3953.00,100.30
3952.00,100.29
3951.00,100.29
3950.00,100.28
3949.00,100.27
3948.00,100.27
3947.00,100.27
3946.00,100.26
3945.00,100.26
3944.00,100.27
3943.00,100.27
3942.00,100.28
3941.00,100.28
3940.00,100.28
3939.00,100.28
3938.00,100.28
3937.00,100.29
3936.00,100.28
3935.00,100.27
3934.00,100.27
3933.00,100.26
3932.00,100.27
3931.00,100.27
3930.00,100.27
3929.00,100.27
3928.00,100.27
3927.00,100.27
3926.00,100.28
3925.00,100.28
3924.00,100.28
3923.00,100.27
3922.00,100.26
3921.00,100.25
3920.00,100.24
3919.00,100.24
3918.00,100.25
3917.00,100.25
3916.00,100.26
3915.00,100.27
3914.00,100.28
3913.00,100.28
3912.00,100.29
3911.00,100.29
3910.00,100.30
3909.00,100.29
3908.00,100.29
3907.00,100.28
3906.00,100.26
3905.00,100.24
3904.00,100.22
3903.00,100.19
3902.00,100.17
3901.00,100.16
3900.00,100.17
3899.00,100.19
3898.00,100.21
3897.00,100.22
3896.00,100.23
3895.00,100.24
3894.00,100.25
3893.00,100.26
3892.00,100.26
3891.00,100.26
3890.00,100.26
3889.00,100.25
3888.00,100.22
3887.00,100.20
3886.00,100.21
3885.00,100.23
3884.00,100.23
3883.00,100.22
3882.00,100.21
3881.00,100.21
3880.00,100.23
3879.00,100.24
3878.00,100.23
3877.00,100.22
3876.00,100.22
3875.00,100.23
3874.00,100.25
3873.00,100.25
3872.00,100.23
3871.00,100.20
3870.00,100.20
3869.00,100.21
3868.00,100.21
3867.00,100.20
3866.00,100.18
3865.00,100.19
3864.00,100.21
3863.00,100.22
3862.00,100.21
3861.00,100.21
3860.00,100.21
3859.00,100.23
3858.00,100.27
3857.00,100.30
3856.00,100.32
3855.00,100.30
3854.00,100.27
3853.00,100.24
3852.00,100.22
3851.00,100.21
3850.00,100.20
3849.00,100.20
3848.00,100.21
3847.00,100.22
3846.00,100.23
3845.00,100.23
3844.00,100.24
3843.00,100.24
3842.00,100.23
3841.00,100.22
3840.00,100.21
3839.00,100.21
3838.00,100.20
3837.00,100.20
3836.00,100.20
3835.00,100.20
3834.00,100.20
3833.00,100.20
3832.00,100.21
3831.00,100.22
3830.00,100.23
3829.00,100.23
3828.00,100.23
3827.00,100.23
3826.00,100.24
3825.00,100.25
3824.00,100.24
3823.00,100.21
3822.00,100.20
3821.00,100.21
3820.00,100.23
3819.00,100.22
3818.00,100.20
3817.00,100.19
3816.00,100.21
3815.00,100.24
3814.00,100.25
3813.00,100.25
3812.00,100.25
3811.00,100.26
3810.00,100.27
3809.00,100.27
3808.00,100.26
3807.00,100.26
3806.00,100.26
3805.00,100.25
3804.00,100.23
3803.00,100.21
3802.00,100.22
3801.00,100.23
3800.00,100.24
3799.00,100.23
3798.00,100.21
3797.00,100.21
3796.00,100.23
3795.00,100.24
3794.00,100.25
3793.00,100.26
3792.00,100.26
3791.00,100.27
3790.00,100.28
3789.00,100.29
3788.00,100.29
3787.00,100.28
3786.00,100.28
3785.00,100.28
3784.00,100.28
3783.00,100.28
3782.00,100.27
3781.00,100.26
3780.00,100.26
3779.00,100.26
3778.00,100.27
3777.00,100.27
3776.00,100.27
3775.00,100.27
3774.00,100.28
3773.00,100.27
3772.00,100.26
3771.00,100.25
3770.00,100.25
3769.00,100.24
3768.00,100.23
3767.00,100.22
3766.00,100.22
3765.00,100.23
3764.00,100.24
3763.00,100.24
3762.00,100.23
3761.00,100.22
3760.00,100.23
3759.00,100.23
3758.00,100.23
3757.00,100.22
3756.00,100.22
3755.00,100.21
3754.00,100.20
3753.00,100.19
3752.00,100.18
3751.00,100.17
3750.00,100.15
3749.00,100.15
3748.00,100.15
3747.00,100.14
3746.00,100.13
3745.00,100.13
3744.00,100.15
3743.00,100.16
3742.00,100.15
3741.00,100.13
3740.00,100.12
3739.00,100.11
3738.00,100.11
3737.00,100.10
3736.00,100.12
3735.00,100.13
3734.00,100.13
3733.00,100.13
3732.00,100.14
3731.00,100.16
3730.00,100.17
3729.00,100.17
3728.00,100.17
3727.00,100.18
3726.00,100.19
3725.00,100.20
3724.00,100.20
3723.00,100.20
3722.00,100.20
3721.00,100.21
3720.00,100.22
3719.00,100.22
3718.00,100.23
3717.00,100.23
3716.00,100.23
3715.00,100.22
3714.00,100.21
3713.00,100.20
3712.00,100.20
3711.00,100.19
3710.00,100.19
3709.00,100.19
3708.00,100.20
3707.00,100.21
3706.00,100.23
3705.00,100.24
3704.00,100.24
3703.00,100.25
3702.00,100.26
3701.00,100.26
3700.00,100.26
3699.00,100.26
3698.00,100.25
3697.00,100.25
3696.00,100.26
3695.00,100.26
3694.00,100.25
3693.00,100.25
3692.00,100.25
3691.00,100.25
3690.00,100.24
3689.00,100.22
3688.00,100.21
3687.00,100.21
3686.00,100.22
3685.00,100.22
3684.00,100.23
3683.00,100.23
3682.00,100.23
3681.00,100.23
3680.00,100.24
3679.00,100.24
3678.00,100.22
3677.00,100.19
3676.00,100.17
3675.00,100.18
3674.00,100.18
3673.00,100.16
3672.00,100.14
3671.00,100.13
3670.00,100.16
3669.00,100.19
3668.00,100.20
3667.00,100.21
3666.00,100.21
3665.00,100.23
3664.00,100.24
3663.00,100.26
3662.00,100.26
3661.00,100.27
3660.00,100.27
3659.00,100.26
3658.00,100.25
3657.00,100.24
3656.00,100.24
3655.00,100.23
3654.00,100.21
3653.00,100.19
3652.00,100.16
3651.00,100.14
3650.00,100.13
3649.00,100.12
3648.00,100.11
3647.00,100.12
3646.00,100.14
3645.00,100.16
3644.00,100.18
3643.00,100.21
3642.00,100.23
3641.00,100.25
3640.00,100.26
3639.00,100.26
3638.00,100.26
3637.00,100.25
3636.00,100.24
3635.00,100.24
3634.00,100.24
3633.00,100.23
3632.00,100.22
3631.00,100.19
3630.00,100.17
3629.00,100.16
3628.00,100.17
3627.00,100.17
3626.00,100.17
3625.00,100.18
3624.00,100.19
3623.00,100.21
3622.00,100.22
3621.00,100.23
3620.00,100.23
3619.00,100.22
3618.00,100.21
3617.00,100.19
3616.00,100.17
3615.00,100.16
3614.00,100.16
3613.00,100.16
3612.00,100.16
3611.00,100.15
3610.00,100.15
3609.00,100.15
3608.00,100.17
3607.00,100.19
3606.00,100.20
3605.00,100.21
3604.00,100.22
3603.00,100.22
3602.00,100.23
3601.00,100.24
3600.00,100.24
3599.00,100.23
3598.00,100.22
3597.00,100.22
3596.00,100.22
3595.00,100.22
3594.00,100.22
3593.00,100.22
3592.00,100.21
3591.00,100.20
3590.00,100.18
3589.00,100.17
3588.00,100.18
3587.00,100.19
3586.00,100.19
3585.00,100.20
3584.00,100.20
3583.00,100.22
3582.00,100.23
3581.00,100.25
3580.00,100.26
3579.00,100.26
3578.00,100.26
3577.00,100.26
3576.00,100.26
3575.00,100.26
3574.00,100.26
3573.00,100.25
3572.00,100.24
3571.00,100.23
3570.00,100.20
3569.00,100.18
3568.00,100.17
3567.00,100.18
3566.00,100.18
3565.00,100.18
3564.00,100.19
3563.00,100.20
3562.00,100.21
3561.00,100.23
3560.00,100.24
3559.00,100.25
3558.00,100.26
3557.00,100.26
3556.00,100.26
3555.00,100.26
3554.00,100.26
3553.00,100.26
3552.00,100.26
3551.00,100.25
3550.00,100.24
3549.00,100.23
3548.00,100.22
3547.00,100.22
3546.00,100.22
3545.00,100.23
3544.00,100.23
3543.00,100.24
3542.00,100.24
3541.00,100.25
3540.00,100.25
3539.00,100.26
3538.00,100.26
3537.00,100.26
3536.00,100.26
3535.00,100.26
3534.00,100.26
3533.00,100.26
3532.00,100.26
3531.00,100.26
3530.00,100.26
3529.00,100.25
3528.00,100.25
3527.00,100.24
3526.00,100.23
3525.00,100.23
3524.00,100.24
3523.00,100.24
3522.00,100.25
3521.00,100.25
3520.00,100.25
3519.00,100.26
3518.00,100.26
3517.00,100.27
3516.00,100.27
3515.00,100.27
3514.00,100.27
3513.00,100.27
3512.00,100.27
3511.00,100.27
3510.00,100.27
3509.00,100.27
3508.00,100.26
3507.00,100.26
3506.00,100.25
3505.00,100.25
3504.00,100.25
3503.00,100.25
3502.00,100.26
3501.00,100.26
3500.00,100.26
3499.00,100.26
3498.00,100.26
3497.00,100.27
3496.00,100.27
3495.00,100.27
3494.00,100.28
3493.00,100.28
3492.00,100.28
3491.00,100.28
3490.00,100.28
3489.00,100.27
3488.00,100.27
3487.00,100.27
3486.00,100.27
3485.00,100.27
3484.00,100.27
3483.00,100.28
3482.00,100.28
3481.00,100.28
3480.00,100.28
3479.00,100.27
3478.00,100.27
3477.00,100.28
3476.00,100.28
3475.00,100.28
3474.00,100.28
3473.00,100.28
3472.00,100.28
3471.00,100.28
3470.00,100.28
3469.00,100.28
3468.00,100.28
3467.00,100.28
3466.00,100.28
3465.00,100.28
3464.00,100.28
3463.00,100.28
3462.00,100.28
3461.00,100.28
3460.00,100.28
3459.00,100.28
3458.00,100.28
3457.00,100.28
3456.00,100.28
3455.00,100.28
3454.00,100.28
3453.00,100.28
3452.00,100.28
3451.00,100.28
3450.00,100.28
3449.00,100.28
3448.00,100.28
3447.00,100.28
3446.00,100.28
3445.00,100.27
3444.00,100.27
3443.00,100.28
3442.00,100.28
3441.00,100.28
3440.00,100.28
3439.00,100.28
3438.00,100.28
3437.00,100.28
3436.00,100.28
3435.00,100.28
3434.00,100.28
3433.00,100.28
3432.00,100.28
3431.00,100.28
3430.00,100.28
3429.00,100.28
3428.00,100.28
3427.00,100.28
3426.00,100.28
3425.00,100.28
3424.00,100.28
3423.00,100.28
3422.00,100.28
3421.00,100.28
3420.00,100.28
3419.00,100.28
3418.00,100.28
3417.00,100.28
3416.00,100.28
3415.00,100.28
3414.00,100.28
3413.00,100.28
3412.00,100.28
3411.00,100.29
3410.00,100.29
3409.00,100.29
3408.00,100.29
3407.00,100.29
3406.00,100.29
3405.00,100.29
3404.00,100.29
3403.00,100.28
3402.00,100.28
3401.00,100.28
3400.00,100.28
3399.00,100.28
3398.00,100.29
3397.00,100.29
3396.00,100.29
3395.00,100.29
3394.00,100.28
3393.00,100.28
3392.00,100.28
3391.00,100.29
3390.00,100.29
3389.00,100.29
3388.00,100.29
3387.00,100.29
3386.00,100.29
3385.00,100.29
3384.00,100.29
3383.00,100.29
3382.00,100.29
3381.00,100.29
3380.00,100.29
3379.00,100.29
3378.00,100.29
3377.00,100.28
3376.00,100.28
3375.00,100.28
3374.00,100.28
3373.00,100.28
3372.00,100.28
3371.00,100.28
3370.00,100.28
3369.00,100.28
3368.00,100.28
3367.00,100.28
3366.00,100.28
3365.00,100.28
3364.00,100.28
3363.00,100.28
3362.00,100.29
3361.00,100.29
3360.00,100.29
3359.00,100.29
3358.00,100.29
3357.00,100.29
3356.00,100.29
3355.00,100.29
3354.00,100.29
3353.00,100.29
3352.00,100.29
3351.00,100.29
3350.00,100.29
3349.00,100.29
3348.00,100.29
3347.00,100.29
3346.00,100.29
3345.00,100.29
3344.00,100.29
3343.00,100.29
3342.00,100.29
3341.00,100.29
3340.00,100.29
3339.00,100.29
3338.00,100.29
3337.00,100.29
3336.00,100.29
3335.00,100.29
3334.00,100.29
3333.00,100.29
3332.00,100.29
3331.00,100.29
3330.00,100.29
3329.00,100.29
3328.00,100.29
3327.00,100.29
3326.00,100.29
3325.00,100.29
3324.00,100.29
3323.00,100.29
3322.00,100.29
3321.00,100.29
3320.00,100.29
3319.00,100.29
3318.00,100.29
3317.00,100.29
3316.00,100.29
3315.00,100.29
3314.00,100.29
3313.00,100.29
3312.00,100.30
3311.00,100.30
3310.00,100.29
3309.00,100.29
3308.00,100.29
3307.00,100.29
3306.00,100.29
3305.00,100.29
3304.00,100.29
3303.00,100.29
3302.00,100.29
3301.00,100.29
3300.00,100.29
3299.00,100.29
3298.00,100.29
3297.00,100.29
3296.00,100.29
3295.00,100.29
3294.00,100.29
3293.00,100.29
3292.00,100.29
3291.00,100.29
3290.00,100.29
3289.00,100.29
3288.00,100.29
3287.00,100.29
3286.00,100.29
3285.00,100.29
3284.00,100.30
3283.00,100.30
3282.00,100.30
3281.00,100.30
3280.00,100.30
3279.00,100.30
3278.00,100.29
3277.00,100.29
3276.00,100.29
3275.00,100.29
3274.00,100.29
3273.00,100.29
3272.00,100.29
3271.00,100.29
3270.00,100.30
3269.00,100.30
3268.00,100.30
3267.00,100.30
3266.00,100.30
3265.00,100.30
3264.00,100.30
3263.00,100.29
3262.00,100.29
3261.00,100.29
3260.00,100.29
3259.00,100.29
3258.00,100.29
3257.00,100.29
3256.00,100.29
3255.00,100.29
3254.00,100.29
3253.00,100.29
3252.00,100.29
3251.00,100.29
3250.00,100.29
3249.00,100.29
3248.00,100.29
3247.00,100.29
3246.00,100.29
3245.00,100.29
3244.00,100.29
3243.00,100.29
3242.00,100.29
3241.00,100.29
3240.00,100.29
3239.00,100.30
3238.00,100.30
3237.00,100.29
3236.00,100.29
3235.00,100.29
3234.00,100.29
3233.00,100.29
3232.00,100.30
3231.00,100.29
3230.00,100.29
3229.00,100.29
3228.00,100.29
3227.00,100.29
3226.00,100.29
3225.00,100.29
3224.00,100.29
3223.00,100.29
3222.00,100.29
3221.00,100.29
3220.00,100.29
3219.00,100.29
3218.00,100.29
3217.00,100.30
3216.00,100.30
3215.00,100.30
3214.00,100.30
3213.00,100.30
3212.00,100.30
3211.00,100.30
3210.00,100.30
3209.00,100.30
3208.00,100.30
3207.00,100.30
3206.00,100.30
3205.00,100.30
3204.00,100.30
3203.00,100.30
3202.00,100.30
3201.00,100.30
3200.00,100.29
3199.00,100.29
3198.00,100.29
3197.00,100.29
3196.00,100.30
3195.00,100.30
3194.00,100.30
3193.00,100.30
3192.00,100.30
3191.00,100.30
3190.00,100.30
3189.00,100.30
3188.00,100.30
3187.00,100.29
3186.00,100.29
3185.00,100.29
3184.00,100.30
3183.00,100.30
3182.00,100.30
3181.00,100.30
3180.00,100.30
3179.00,100.29
3178.00,100.29
3177.00,100.29
3176.00,100.29
3175.00,100.29
3174.00,100.30
3173.00,100.30
3172.00,100.30
3171.00,100.30
3170.00,100.30
3169.00,100.30
3168.00,100.30
3167.00,100.30
3166.00,100.30
3165.00,100.30
3164.00,100.30
3163.00,100.30
3162.00,100.30
3161.00,100.30
3160.00,100.30
3159.00,100.30
3158.00,100.29
3157.00,100.29
3156.00,100.29
3155.00,100.29
3154.00,100.29
3153.00,100.29
3152.00,100.29
3151.00,100.29
3150.00,100.29
3149.00,100.29
3148.00,100.29
3147.00,100.29
3146.00,100.29
3145.00,100.30
3144.00,100.30
3143.00,100.30
3142.00,100.30
3141.00,100.30
3140.00,100.30
3139.00,100.30
3138.00,100.30
3137.00,100.30
3136.00,100.30
3135.00,100.30
3134.00,100.29
3133.00,100.29
3132.00,100.29
3131.00,100.30
3130.00,100.30
3129.00,100.30
3128.00,100.30
3127.00,100.30
3126.00,100.29
3125.00,100.29
3124.00,100.29
3123.00,100.29
3122.00,100.29
3121.00,100.29
3120.00,100.29
3119.00,100.29
3118.00,100.29
3117.00,100.28
3116.00,100.28
3115.00,100.29
3114.00,100.29
3113.00,100.29
3112.00,100.29
3111.00,100.29
3110.00,100.29
3109.00,100.29
3108.00,100.29
3107.00,100.30
3106.00,100.30
3105.00,100.30
3104.00,100.30
3103.00,100.30
3102.00,100.29
3101.00,100.29
3100.00,100.29
3099.00,100.29
3098.00,100.29
3097.00,100.29
3096.00,100.29
3095.00,100.29
3094.00,100.29
3093.00,100.29
3092.00,100.29
3091.00,100.29
3090.00,100.29
3089.00,100.29
3088.00,100.29
3087.00,100.29
3086.00,100.29
3085.00,100.29
3084.00,100.29
3083.00,100.29
3082.00,100.29
3081.00,100.29
3080.00,100.29
3079.00,100.28
3078.00,100.29
3077.00,100.29
3076.00,100.29
3075.00,100.29
3074.00,100.29
3073.00,100.29
3072.00,100.29
3071.00,100.29
3070.00,100.29
3069.00,100.29
3068.00,100.29
3067.00,100.29
3066.00,100.29
3065.00,100.29
3064.00,100.29
3063.00,100.29
3062.00,100.29
3061.00,100.29
3060.00,100.29
3059.00,100.29
3058.00,100.29
3057.00,100.29
3056.00,100.29
3055.00,100.29
3054.00,100.29
3053.00,100.28
3052.00,100.28
3051.00,100.29
3050.00,100.29
3049.00,100.29
3048.00,100.29
3047.00,100.29
3046.00,100.29
3045.00,100.29
3044.00,100.28
3043.00,100.28
3042.00,100.28
3041.00,100.29
3040.00,100.29
3039.00,100.29
3038.00,100.28
3037.00,100.28
3036.00,100.28
3035.00,100.28
3034.00,100.28
3033.00,100.28
3032.00,100.28
3031.00,100.28
3030.00,100.28
3029.00,100.28
3028.00,100.28
3027.00,100.28
3026.00,100.28
3025.00,100.28
3024.00,100.28
3023.00,100.28
3022.00,100.28
3021.00,100.28
3020.00,100.28
3019.00,100.28
3018.00,100.28
3017.00,100.28
3016.00,100.28
3015.00,100.28
3014.00,100.28
3013.00,100.28
3012.00,100.28
3011.00,100.28
3010.00,100.28
3009.00,100.29
3008.00,100.29
3007.00,100.29
3006.00,100.28
3005.00,100.28
3004.00,100.28
3003.00,100.28
3002.00,100.28
3001.00,100.28
3000.00,100.28
2999.00,100.28
2998.00,100.28
2997.00,100.28
2996.00,100.28
2995.00,100.28
2994.00,100.28
2993.00,100.28
2992.00,100.28
2991.00,100.28
2990.00,100.28
2989.00,100.28
2988.00,100.28
2987.00,100.28
2986.00,100.28
2985.00,100.28
2984.00,100.28
2983.00,100.28
2982.00,100.28
2981.00,100.28
2980.00,100.28
2979.00,100.28
2978.00,100.28
2977.00,100.28
2976.00,100.28
2975.00,100.28
2974.00,100.28
2973.00,100.28
2972.00,100.28
2971.00,100.28
2970.00,100.28
2969.00,100.28
2968.00,100.28
2967.00,100.28
2966.00,100.28
2965.00,100.28
2964.00,100.28
2963.00,100.28
2962.00,100.28
2961.00,100.28
2960.00,100.28
2959.00,100.28
2958.00,100.28
2957.00,100.29
2956.00,100.29
2955.00,100.28
2954.00,100.28
2953.00,100.28
2952.00,100.28
2951.00,100.28
2950.00,100.28
2949.00,100.28
2948.00,100.28
2947.00,100.28
2946.00,100.27
2945.00,100.27
2944.00,100.27
2943.00,100.27
2942.00,100.27
2941.00,100.27
2940.00,100.27
2939.00,100.27
2938.00,100.27
2937.00,100.27
2936.00,100.27
2935.00,100.27
2934.00,100.27
2933.00,100.27
2932.00,100.27
2931.00,100.27
2930.00,100.27
2929.00,100.28
2928.00,100.28
2927.00,100.28
2926.00,100.29
2925.00,100.29
2924.00,100.29
2923.00,100.29
2922.00,100.29
2921.00,100.30
2920.00,100.30
2919.00,100.29
2918.00,100.29
2917.00,100.29
2916.00,100.29
2915.00,100.29
2914.00,100.29
2913.00,100.29
2912.00,100.29
2911.00,100.28
2910.00,100.28
2909.00,100.28
2908.00,100.28
2907.00,100.28
2906.00,100.28
2905.00,100.28
2904.00,100.28
2903.00,100.28
2902.00,100.28
2901.00,100.28
2900.00,100.28
2899.00,100.28
2898.00,100.28
2897.00,100.28
2896.00,100.28
2895.00,100.28
2894.00,100.28
2893.00,100.28
2892.00,100.28
2891.00,100.28
2890.00,100.28
2889.00,100.28
2888.00,100.28
2887.00,100.28
2886.00,100.28
2885.00,100.28
2884.00,100.28
2883.00,100.28
2882.00,100.28
2881.00,100.28
2880.00,100.27
2879.00,100.27
2878.00,100.27
2877.00,100.27
2876.00,100.27
2875.00,100.27
2874.00,100.27
2873.00,100.27
2872.00,100.27
2871.00,100.27
2870.00,100.27
2869.00,100.27
2868.00,100.27
2867.00,100.28
2866.00,100.28
2865.00,100.28
2864.00,100.28
2863.00,100.28
2862.00,100.28
2861.00,100.28
2860.00,100.28
2859.00,100.28
2858.00,100.28
2857.00,100.29
2856.00,100.29
2855.00,100.29
2854.00,100.30
2853.00,100.30
2852.00,100.30
2851.00,100.30
2850.00,100.30
2849.00,100.30
2848.00,100.30
2847.00,100.29
2846.00,100.29
2845.00,100.29
2844.00,100.29
2843.00,100.29
2842.00,100.28
2841.00,100.28
2840.00,100.28
2839.00,100.28
2838.00,100.28
2837.00,100.27
2836.00,100.27
2835.00,100.27
2834.00,100.27
2833.00,100.27
2832.00,100.27
2831.00,100.27
2830.00,100.28
2829.00,100.28
2828.00,100.28
2827.00,100.28
2826.00,100.28
2825.00,100.28
2824.00,100.28
2823.00,100.28
2822.00,100.28
2821.00,100.28
2820.00,100.27
2819.00,100.27
2818.00,100.27
2817.00,100.27
2816.00,100.27
2815.00,100.27
2814.00,100.27
2813.00,100.27
2812.00,100.28
2811.00,100.28
2810.00,100.28
2809.00,100.28
2808.00,100.28
2807.00,100.28
2806.00,100.27
2805.00,100.27
2804.00,100.27
2803.00,100.27
2802.00,100.27
2801.00,100.27
2800.00,100.27
2799.00,100.27
2798.00,100.27
2797.00,100.27
2796.00,100.28
2795.00,100.28
2794.00,100.28
2793.00,100.28
2792.00,100.27
2791.00,100.27
2790.00,100.27
2789.00,100.27
2788.00,100.27
2787.00,100.27
2786.00,100.28
2785.00,100.28
2784.00,100.28
2783.00,100.28
2782.00,100.28
2781.00,100.28
2780.00,100.28
2779.00,100.28
2778.00,100.28
2777.00,100.28
2776.00,100.28
2775.00,100.27
2774.00,100.27
2773.00,100.27
2772.00,100.27
2771.00,100.27
2770.00,100.27
2769.00,100.27
2768.00,100.27
2767.00,100.27
2766.00,100.27
2765.00,100.27
2764.00,100.27
2763.00,100.27
2762.00,100.27
2761.00,100.27
2760.00,100.27
2759.00,100.27
2758.00,100.27
2757.00,100.27
2756.00,100.27
2755.00,100.27
2754.00,100.27
2753.00,100.27
2752.00,100.27
2751.00,100.27
2750.00,100.27
2749.00,100.27
2748.00,100.27
2747.00,100.27
2746.00,100.27
2745.00,100.27
2744.00,100.27
2743.00,100.27
2742.00,100.27
2741.00,100.27
2740.00,100.27
2739.00,100.27
2738.00,100.27
2737.00,100.27
2736.00,100.27
2735.00,100.27
2734.00,100.27
2733.00,100.27
2732.00,100.27
2731.00,100.27
2730.00,100.27
2729.00,100.27
2728.00,100.27
2727.00,100.27
2726.00,100.27
2725.00,100.27
2724.00,100.27
2723.00,100.27
2722.00,100.27
2721.00,100.27
2720.00,100.27
2719.00,100.27
2718.00,100.27
2717.00,100.27
2716.00,100.27
2715.00,100.27
2714.00,100.27
2713.00,100.27
2712.00,100.27
2711.00,100.27
2710.00,100.27
2709.00,100.27
2708.00,100.27
2707.00,100.27
2706.00,100.27
2705.00,100.27
2704.00,100.27
2703.00,100.27
2702.00,100.27
2701.00,100.27
2700.00,100.27
2699.00,100.27
2698.00,100.27
2697.00,100.27
2696.00,100.27
2695.00,100.27
2694.00,100.27
2693.00,100.27
2692.00,100.27
2691.00,100.27
2690.00,100.27
2689.00,100.27
2688.00,100.27
2687.00,100.27
2686.00,100.27
2685.00,100.27
2684.00,100.27
2683.00,100.27
2682.00,100.27
2681.00,100.27
2680.00,100.27
2679.00,100.27
2678.00,100.27
2677.00,100.27
2676.00,100.27
2675.00,100.27
2674.00,100.27
2673.00,100.27
2672.00,100.27
2671.00,100.27
2670.00,100.27
2669.00,100.27
2668.00,100.27
2667.00,100.27
2666.00,100.27
2665.00,100.27
2664.00,100.27
2663.00,100.27
2662.00,100.27
2661.00,100.27
2660.00,100.27
2659.00,100.27
2658.00,100.27
2657.00,100.27
2656.00,100.28
2655.00,100.27
2654.00,100.27
2653.00,100.27
2652.00,100.27
2651.00,100.27
2650.00,100.27
2649.00,100.27
2648.00,100.27
2647.00,100.27
2646.00,100.27
2645.00,100.27
2644.00,100.27
2643.00,100.27
2642.00,100.27
2641.00,100.27
2640.00,100.27
2639.00,100.27
2638.00,100.27
2637.00,100.27
2636.00,100.27
2635.00,100.27
2634.00,100.27
2633.00,100.27
2632.00,100.27
2631.00,100.27
2630.00,100.27
2629.00,100.27
2628.00,100.27
2627.00,100.27
2626.00,100.27
2625.00,100.27
2624.00,100.27
2623.00,100.27
2622.00,100.27
2621.00,100.27
2620.00,100.27
2619.00,100.27
2618.00,100.27
2617.00,100.27
2616.00,100.27
2615.00,100.27
2614.00,100.27
2613.00,100.27
2612.00,100.27
2611.00,100.27
2610.00,100.27
2609.00,100.27
2608.00,100.27
2607.00,100.27
2606.00,100.27
2605.00,100.27
2604.00,100.27
2603.00,100.27
2602.00,100.27
2601.00,100.27
2600.00,100.27
2599.00,100.27
2598.00,100.27
2597.00,100.27
2596.00,100.27
2595.00,100.27
2594.00,100.27
2593.00,100.27
2592.00,100.27
2591.00,100.27
2590.00,100.27
2589.00,100.27
2588.00,100.27
2587.00,100.27
2586.00,100.27
2585.00,100.27
2584.00,100.27
2583.00,100.27
2582.00,100.27
2581.00,100.27
2580.00,100.27
2579.00,100.27
2578.00,100.27
2577.00,100.27
2576.00,100.27
2575.00,100.27
2574.00,100.27
2573.00,100.27
2572.00,100.27
2571.00,100.27
2570.00,100.27
2569.00,100.27
2568.00,100.27
2567.00,100.27
2566.00,100.27
2565.00,100.27
2564.00,100.27
2563.00,100.27
2562.00,100.27
2561.00,100.27
2560.00,100.27
2559.00,100.27
2558.00,100.27
2557.00,100.27
2556.00,100.27
2555.00,100.27
2554.00,100.27
2553.00,100.27
2552.00,100.27
2551.00,100.27
2550.00,100.27
2549.00,100.27
2548.00,100.27
2547.00,100.27
2546.00,100.27
2545.00,100.27
2544.00,100.27
2543.00,100.27
2542.00,100.27
2541.00,100.27
2540.00,100.27
2539.00,100.27
2538.00,100.27
2537.00,100.27
2536.00,100.27
2535.00,100.27
2534.00,100.27
2533.00,100.27
2532.00,100.27
2531.00,100.27
2530.00,100.27
2529.00,100.27
2528.00,100.27
2527.00,100.27
2526.00,100.27
2525.00,100.27
2524.00,100.27
2523.00,100.27
2522.00,100.27
2521.00,100.27
2520.00,100.27
2519.00,100.27
2518.00,100.27
2517.00,100.27
2516.00,100.27
2515.00,100.27
2514.00,100.27
2513.00,100.27
2512.00,100.27
2511.00,100.27
2510.00,100.27
2509.00,100.27
2508.00,100.27
2507.00,100.27
2506.00,100.27
2505.00,100.27
2504.00,100.27
2503.00,100.27
2502.00,100.27
2501.00,100.27
2500.00,100.27
2499.00,100.27
2498.00,100.27
2497.00,100.27
2496.00,100.27
2495.00,100.27
2494.00,100.27
2493.00,100.27
2492.00,100.27
2491.00,100.27
2490.00,100.27
2489.00,100.27
2488.00,100.27
2487.00,100.27
2486.00,100.27
2485.00,100.27
2484.00,100.27
2483.00,100.27
2482.00,100.27
2481.00,100.27
2480.00,100.27
2479.00,100.27
2478.00,100.27
2477.00,100.27
2476.00,100.27
2475.00,100.27
2474.00,100.27
2473.00,100.27
2472.00,100.27
2471.00,100.27
2470.00,100.27
2469.00,100.27
2468.00,100.27
2467.00,100.27
2466.00,100.27
2465.00,100.27
2464.00,100.27
2463.00,100.27
2462.00,100.27
2461.00,100.27
2460.00,100.27
2459.00,100.27
2458.00,100.27
2457.00,100.27
2456.00,100.27
2455.00,100.27
2454.00,100.27
2453.00,100.27
2452.00,100.27
2451.00,100.27
2450.00,100.26
2449.00,100.27
2448.00,100.27
2447.00,100.27
2446.00,100.27
2445.00,100.27
2444.00,100.27
2443.00,100.27
2442.00,100.27
2441.00,100.27
2440.00,100.27
2439.00,100.27
2438.00,100.27
2437.00,100.27
2436.00,100.27
2435.00,100.27
2434.00,100.27
2433.00,100.27
2432.00,100.27
2431.00,100.27
2430.00,100.27
2429.00,100.27
2428.00,100.27
2427.00,100.27
2426.00,100.27
2425.00,100.27
2424.00,100.27
2423.00,100.27
2422.00,100.27
2421.00,100.27
2420.00,100.27
2419.00,100.27
2418.00,100.27
2417.00,100.27
2416.00,100.27
2415.00,100.27
2414.00,100.27
2413.00,100.27
2412.00,100.27
2411.00,100.27
2410.00,100.27
2409.00,100.27
2408.00,100.27
2407.00,100.27
2406.00,100.27
2405.00,100.27
2404.00,100.27
2403.00,100.27
2402.00,100.27
2401.00,100.27
2400.00,100.27
2399.00,100.27
2398.00,100.27
2397.00,100.27
2396.00,100.27
2395.00,100.27
2394.00,100.27
2393.00,100.27
2392.00,100.27
2391.00,100.27
2390.00,100.27
2389.00,100.27
2388.00,100.26
2387.00,100.26
2386.00,100.26
2385.00,100.26
2384.00,100.26
2383.00,100.26
2382.00,100.26
2381.00,100.26
2380.00,100.26
2379.00,100.27
2378.00,100.27
2377.00,100.27
2376.00,100.26
2375.00,100.26
2374.00,100.26
2373.00,100.25
2372.00,100.25
2371.00,100.25
2370.00,100.25
2369.00,100.25
2368.00,100.25
2367.00,100.25
2366.00,100.25
2365.00,100.24
2364.00,100.24
2363.00,100.24
2362.00,100.24
2361.00,100.24
2360.00,100.24
2359.00,100.23
2358.00,100.23
2357.00,100.22
2356.00,100.22
2355.00,100.21
2354.00,100.21
2353.00,100.22
2352.00,100.24
2351.00,100.25
2350.00,100.24
2349.00,100.22
2348.00,100.20
2347.00,100.19
2346.00,100.20
2345.00,100.21
2344.00,100.22
2343.00,100.22
2342.00,100.22
2341.00,100.22
2340.00,100.22
2339.00,100.22
2338.00,100.22
2337.00,100.22
2336.00,100.22
2335.00,100.22
2334.00,100.22
2333.00,100.22
2332.00,100.22
2331.00,100.23
2330.00,100.23
2329.00,100.23
2328.00,100.23
2327.00,100.22
2326.00,100.22
2325.00,100.22
2324.00,100.22
2323.00,100.22
2322.00,100.23
2321.00,100.23
2320.00,100.23
2319.00,100.23
2318.00,100.23
2317.00,100.23
2316.00,100.23
2315.00,100.23
2314.00,100.23
2313.00,100.23
2312.00,100.24
2311.00,100.24
2310.00,100.24
2309.00,100.24
2308.00,100.24
2307.00,100.24
2306.00,100.24
2305.00,100.24
2304.00,100.24
2303.00,100.24
2302.00,100.24
2301.00,100.25
2300.00,100.25
2299.00,100.25
2298.00,100.25
2297.00,100.25
2296.00,100.25
2295.00,100.25
2294.00,100.25
2293.00,100.26
2292.00,100.26
2291.00,100.26
2290.00,100.26
2289.00,100.26
2288.00,100.26
2287.00,100.26
2286.00,100.26
2285.00,100.26
2284.00,100.26
2283.00,100.26
2282.00,100.26
2281.00,100.26
2280.00,100.26
2279.00,100.26
2278.00,100.26
2277.00,100.26
2276.00,100.26
2275.00,100.26
2274.00,100.26
2273.00,100.26
2272.00,100.26
2271.00,100.26
2270.00,100.26
2269.00,100.26
2268.00,100.26
2267.00,100.26
2266.00,100.26
2265.00,100.27
2264.00,100.27
2263.00,100.27
2262.00,100.27
2261.00,100.27
2260.00,100.26
2259.00,100.26
2258.00,100.26
2257.00,100.26
2256.00,100.26
2255.00,100.27
2254.00,100.27
2253.00,100.27
2252.00,100.26
2251.00,100.26
2250.00,100.26
2249.00,100.26
2248.00,100.26
2247.00,100.26
2246.00,100.26
2245.00,100.26
2244.00,100.26
2243.00,100.26
2242.00,100.26
2241.00,100.26
2240.00,100.26
2239.00,100.26
2238.00,100.26
2237.00,100.27
2236.00,100.26
2235.00,100.26
2234.00,100.26
2233.00,100.26
2232.00,100.26
2231.00,100.26
2230.00,100.26
2229.00,100.26
2228.00,100.26
2227.00,100.27
2226.00,100.27
2225.00,100.27
2224.00,100.27
2223.00,100.27
2222.00,100.27
2221.00,100.26
2220.00,100.26
2219.00,100.26
2218.00,100.26
2217.00,100.26
2216.00,100.26
2215.00,100.26
2214.00,100.26
2213.00,100.26
2212.00,100.26
2211.00,100.26
2210.00,100.26
2209.00,100.26
2208.00,100.27
2207.00,100.27
2206.00,100.26
2205.00,100.26
2204.00,100.26
2203.00,100.26
2202.00,100.27
2201.00,100.27
2200.00,100.27
2199.00,100.27
2198.00,100.27
2197.00,100.27
2196.00,100.26
2195.00,100.26
2194.00,100.26
2193.00,100.26
2192.00,100.26
2191.00,100.26
2190.00,100.26
2189.00,100.26
2188.00,100.26
2187.00,100.26
2186.00,100.26
2185.00,100.26
2184.00,100.26
2183.00,100.26
2182.00,100.26
2181.00,100.26
2180.00,100.26
2179.00,100.26
2178.00,100.26
2177.00,100.26
2176.00,100.26
2175.00,100.26
2174.00,100.26
2173.00,100.26
2172.00,100.26
2171.00,100.26
2170.00,100.26
2169.00,100.26
2168.00,100.26
2167.00,100.26
2166.00,100.26
2165.00,100.26
2164.00,100.26
2163.00,100.26
2162.00,100.26
2161.00,100.26
2160.00,100.26
2159.00,100.26
2158.00,100.26
2157.00,100.26
2156.00,100.26
2155.00,100.26
2154.00,100.26
2153.00,100.26
2152.00,100.26
2151.00,100.26
2150.00,100.26
2149.00,100.26
2148.00,100.26
2147.00,100.26
2146.00,100.26
2145.00,100.26
2144.00,100.26
2143.00,100.26
2142.00,100.27
2141.00,100.27
2140.00,100.26
2139.00,100.26
2138.00,100.26
2137.00,100.26
2136.00,100.26
2135.00,100.26
2134.00,100.26
2133.00,100.26
2132.00,100.26
2131.00,100.26
2130.00,100.26
2129.00,100.26
2128.00,100.26
2127.00,100.26
2126.00,100.26
2125.00,100.26
2124.00,100.26
2123.00,100.26
2122.00,100.26
2121.00,100.26
2120.00,100.26
2119.00,100.26
2118.00,100.26
2117.00,100.26
2116.00,100.26
2115.00,100.26
2114.00,100.26
2113.00,100.26
2112.00,100.26
2111.00,100.26
2110.00,100.26
2109.00,100.26
2108.00,100.26
2107.00,100.26
2106.00,100.26
2105.00,100.26
2104.00,100.26
2103.00,100.26
2102.00,100.26
2101.00,100.26
2100.00,100.26
2099.00,100.26
2098.00,100.26
2097.00,100.26
2096.00,100.26
2095.00,100.26
2094.00,100.26
2093.00,100.26
2092.00,100.26
2091.00,100.26
2090.00,100.26
2089.00,100.26
2088.00,100.26
2087.00,100.26
2086.00,100.26
2085.00,100.26
2084.00,100.26
2083.00,100.26
2082.00,100.26
2081.00,100.26
2080.00,100.26
2079.00,100.26
2078.00,100.26
2077.00,100.26
2076.00,100.26
2075.00,100.26
2074.00,100.26
2073.00,100.26
2072.00,100.26
2071.00,100.26
2070.00,100.26
2069.00,100.26
2068.00,100.26
2067.00,100.26
2066.00,100.26
2065.00,100.26
2064.00,100.26
2063.00,100.26
2062.00,100.26
2061.00,100.26
2060.00,100.26
2059.00,100.26
2058.00,100.26
2057.00,100.26
2056.00,100.26
2055.00,100.26
2054.00,100.26
2053.00,100.26
2052.00,100.26
2051.00,100.26
2050.00,100.26
2049.00,100.26
2048.00,100.26
2047.00,100.26
2046.00,100.26
2045.00,100.26
2044.00,100.26
2043.00,100.26
2042.00,100.26
2041.00,100.27
2040.00,100.26
2039.00,100.26
2038.00,100.26
2037.00,100.26
2036.00,100.26
2035.00,100.26
2034.00,100.26
2033.00,100.26
2032.00,100.26
2031.00,100.26
2030.00,100.26
2029.00,100.26
2028.00,100.26
2027.00,100.26
2026.00,100.26
2025.00,100.26
2024.00,100.26
2023.00,100.26
2022.00,100.26
2021.00,100.26
2020.00,100.26
2019.00,100.26
2018.00,100.26
2017.00,100.26
2016.00,100.26
2015.00,100.26
2014.00,100.26
2013.00,100.26
2012.00,100.26
2011.00,100.26
2010.00,100.26
2009.00,100.26
2008.00,100.26
2007.00,100.26
2006.00,100.26
2005.00,100.26
2004.00,100.26
2003.00,100.26
2002.00,100.26
2001.00,100.26
2000.00,100.26
1999.00,100.26
1998.00,100.26
1997.00,100.26
1996.00,100.26
1995.00,100.26
1994.00,100.26
1993.00,100.26
1992.00,100.26
1991.00,100.26
1990.00,100.26
1989.00,100.26
1988.00,100.26
1987.00,100.26
1986.00,100.26
1985.00,100.26
1984.00,100.26
1983.00,100.26
1982.00,100.26
1981.00,100.26
1980.00,100.26
1979.00,100.26
1978.00,100.26
1977.00,100.26
1976.00,100.26
1975.00,100.26
1974.00,100.26
1973.00,100.26
1972.00,100.26
1971.00,100.26
1970.00,100.26
1969.00,100.26
1968.00,100.27
1967.00,100.27
1966.00,100.27
1965.00,100.26
1964.00,100.26
1963.00,100.26
1962.00,100.26
1961.00,100.26
1960.00,100.26
1959.00,100.26
1958.00,100.26
1957.00,100.26
1956.00,100.26
1955.00,100.26
1954.00,100.26
1953.00,100.26
1952.00,100.26
1951.00,100.26
1950.00,100.26
1949.00,100.26
1948.00,100.26
1947.00,100.26
1946.00,100.26
1945.00,100.26
1944.00,100.26
1943.00,100.26
1942.00,100.26
1941.00,100.26
1940.00,100.26
1939.00,100.26
1938.00,100.26
1937.00,100.26
1936.00,100.26
1935.00,100.26
1934.00,100.26
1933.00,100.26
1932.00,100.26
1931.00,100.26
1930.00,100.26
1929.00,100.26
1928.00,100.26
1927.00,100.26
1926.00,100.26
1925.00,100.26
1924.00,100.27
1923.00,100.27
1922.00,100.26
1921.00,100.25
1920.00,100.25
1919.00,100.25
1918.00,100.25
1917.00,100.25
1916.00,100.25
1915.00,100.25
1914.00,100.25
1913.00,100.25
1912.00,100.25
1911.00,100.26
1910.00,100.26
1909.00,100.26
1908.00,100.26
1907.00,100.26
1906.00,100.26
1905.00,100.26
1904.00,100.26
1903.00,100.26
1902.00,100.26
1901.00,100.26
1900.00,100.26
1899.00,100.26
1898.00,100.26
1897.00,100.26
1896.00,100.26
1895.00,100.26
1894.00,100.26
1893.00,100.26
1892.00,100.26
1891.00,100.26
1890.00,100.26
1889.00,100.26
1888.00,100.26
1887.00,100.26
1886.00,100.25
1885.00,100.25
1884.00,100.25
1883.00,100.25
1882.00,100.25
1881.00,100.26
1880.00,100.26
1879.00,100.26
1878.00,100.26
1877.00,100.26
1876.00,100.26
1875.00,100.25
1874.00,100.25
1873.00,100.25
1872.00,100.25
1871.00,100.25
1870.00,100.25
1869.00,100.26
1868.00,100.26
1867.00,100.26
1866.00,100.25
1865.00,100.25
1864.00,100.25
1863.00,100.25
1862.00,100.26
1861.00,100.26
1860.00,100.26
1859.00,100.26
1858.00,100.26
1857.00,100.26
1856.00,100.26
1855.00,100.26
1854.00,100.26
1853.00,100.26
1852.00,100.26
1851.00,100.26
1850.00,100.26
1849.00,100.26
1848.00,100.26
1847.00,100.26
1846.00,100.26
1845.00,100.26
1844.00,100.26
1843.00,100.25
1842.00,100.25
1841.00,100.24
1840.00,100.25
1839.00,100.25
1838.00,100.26
1837.00,100.26
1836.00,100.26
1835.00,100.26
1834.00,100.25
1833.00,100.25
1832.00,100.26
1831.00,100.26
1830.00,100.27
1829.00,100.26
1828.00,100.26
1827.00,100.25
1826.00,100.24
1825.00,100.25
1824.00,100.25
1823.00,100.25
1822.00,100.25
1821.00,100.25
1820.00,100.26
1819.00,100.26
1818.00,100.26
1817.00,100.26
1816.00,100.26
1815.00,100.26
1814.00,100.25
1813.00,100.25
1812.00,100.26
1811.00,100.26
1810.00,100.25
1809.00,100.25
1808.00,100.25
1807.00,100.25
1806.00,100.25
1805.00,100.25
1804.00,100.25
1803.00,100.25
1802.00,100.25
1801.00,100.24
1800.00,100.24
1799.00,100.24
1798.00,100.24
1797.00,100.25
1796.00,100.25
1795.00,100.25
1794.00,100.24
1793.00,100.24
1792.00,100.24
1791.00,100.25
1790.00,100.24
1789.00,100.24
1788.00,100.24
1787.00,100.24
1786.00,100.24
1785.00,100.24
1784.00,100.24
1783.00,100.24
1782.00,100.24
1781.00,100.25
1780.00,100.25
1779.00,100.25
1778.00,100.24
1777.00,100.24
1776.00,100.24
1775.00,100.24
1774.00,100.24
1773.00,100.24
1772.00,100.24
1771.00,100.24
1770.00,100.23
1769.00,100.22
1768.00,100.22
1767.00,100.23
1766.00,100.24
1765.00,100.24
1764.00,100.24
1763.00,100.25
1762.00,100.25
1761.00,100.25
1760.00,100.25
1759.00,100.24
1758.00,100.24
1757.00,100.23
1756.00,100.23
1755.00,100.23
1754.00,100.21
1753.00,100.19
1752.00,100.17
1751.00,100.18
1750.00,100.19
1749.00,100.21
1748.00,100.22
1747.00,100.22
1746.00,100.23
1745.00,100.23
1744.00,100.24
1743.00,100.24
1742.00,100.25
1741.00,100.25
1740.00,100.24
1739.00,100.25
1738.00,100.25
1737.00,100.24
1736.00,100.22
1735.00,100.20
1734.00,100.20
1733.00,100.20
1732.00,100.20
1731.00,100.21
1730.00,100.23
1729.00,100.24
1728.00,100.24
1727.00,100.24
1726.00,100.24
1725.00,100.25
1724.00,100.25
1723.00,100.24
1722.00,100.24
1721.00,100.24
1720.00,100.23
1719.00,100.22
1718.00,100.21
1717.00,100.21
1716.00,100.22
1715.00,100.22
1714.00,100.22
1713.00,100.23
1712.00,100.23
1711.00,100.23
1710.00,100.24
1709.00,100.24
1708.00,100.24
1707.00,100.25
1706.00,100.25
1705.00,100.25
1704.00,100.26
1703.00,100.25
1702.00,100.24
1701.00,100.23
1700.00,100.24
1699.00,100.23
1698.00,100.21
1697.00,100.20
1696.00,100.20
1695.00,100.22
1694.00,100.23
1693.00,100.23
1692.00,100.22
1691.00,100.22
1690.00,100.23
1689.00,100.23
1688.00,100.23
1687.00,100.22
1686.00,100.21
1685.00,100.20
1684.00,100.21
1683.00,100.22
1682.00,100.23
1681.00,100.23
1680.00,100.23
1679.00,100.23
1678.00,100.23
1677.00,100.23
1676.00,100.23
1675.00,100.23
1674.00,100.23
1673.00,100.23
1672.00,100.22
1671.00,100.22
1670.00,100.23
1669.00,100.24
1668.00,100.24
1667.00,100.24
1666.00,100.24
1665.00,100.24
1664.00,100.24
1663.00,100.24
1662.00,100.24
1661.00,100.24
1660.00,100.23
1659.00,100.22
1658.00,100.23
1657.00,100.24
1656.00,100.25
1655.00,100.25
1654.00,100.26
1653.00,100.26
1652.00,100.26
1651.00,100.25
1650.00,100.24
1649.00,100.22
1648.00,100.22
1647.00,100.22
1646.00,100.22
1645.00,100.22
1644.00,100.22
1643.00,100.22
1642.00,100.22
1641.00,100.23
1640.00,100.23
1639.00,100.23
1638.00,100.23
1637.00,100.23
1636.00,100.22
1635.00,100.23
1634.00,100.23
1633.00,100.23
1632.00,100.23
1631.00,100.23
1630.00,100.23
1629.00,100.23
1628.00,100.24
1627.00,100.24
1626.00,100.24
1625.00,100.24
1624.00,100.24
1623.00,100.24
1622.00,100.25
1621.00,100.25
1620.00,100.25
1619.00,100.25
1618.00,100.25
1617.00,100.26
1616.00,100.26
1615.00,100.25
1614.00,100.25
1613.00,100.25
1612.00,100.25
1611.00,100.25
1610.00,100.25
1609.00,100.25
1608.00,100.25
1607.00,100.25
1606.00,100.25
1605.00,100.26
1604.00,100.25
1603.00,100.25
1602.00,100.25
1601.00,100.25
1600.00,100.25
1599.00,100.25
1598.00,100.25
1597.00,100.26
1596.00,100.26
1595.00,100.25
1594.00,100.26
1593.00,100.26
1592.00,100.26
1591.00,100.26
1590.00,100.26
1589.00,100.26
1588.00,100.26
1587.00,100.26
1586.00,100.26
1585.00,100.26
1584.00,100.26
1583.00,100.25
1582.00,100.25
1581.00,100.26
1580.00,100.26
1579.00,100.27
1578.00,100.27
1577.00,100.27
1576.00,100.26
1575.00,100.25
1574.00,100.25
1573.00,100.25
1572.00,100.25
1571.00,100.25
1570.00,100.25
1569.00,100.25
1568.00,100.24
1567.00,100.23
1566.00,100.23
1565.00,100.23
1564.00,100.24
1563.00,100.25
1562.00,100.26
1561.00,100.25
1560.00,100.24
1559.00,100.22
1558.00,100.21
1557.00,100.21
1556.00,100.21
1555.00,100.20
1554.00,100.20
1553.00,100.20
1552.00,100.20
1551.00,100.21
1550.00,100.21
1549.00,100.21
1548.00,100.20
1547.00,100.20
1546.00,100.20
1545.00,100.21
1544.00,100.22
1543.00,100.22
1542.00,100.22
1541.00,100.21
1540.00,100.21
1539.00,100.21
1538.00,100.22
1537.00,100.22
1536.00,100.22
1535.00,100.21
1534.00,100.22
1533.00,100.22
1532.00,100.23
1531.00,100.22
1530.00,100.22
1529.00,100.22
1528.00,100.22
1527.00,100.22
1526.00,100.21
1525.00,100.21
1524.00,100.21
1523.00,100.21
1522.00,100.21
1521.00,100.21
1520.00,100.21
1519.00,100.21
1518.00,100.21
1517.00,100.21
1516.00,100.21
1515.00,100.21
1514.00,100.20
1513.00,100.19
1512.00,100.20
1511.00,100.21
1510.00,100.21
1509.00,100.21
1508.00,100.21
1507.00,100.21
1506.00,100.21
1505.00,100.21
1504.00,100.21
1503.00,100.22
1502.00,100.22
1501.00,100.22
1500.00,100.23
1499.00,100.24
1498.00,100.24
1497.00,100.23
1496.00,100.23
1495.00,100.23
1494.00,100.23
1493.00,100.23
1492.00,100.23
1491.00,100.23
1490.00,100.22
1489.00,100.23
1488.00,100.23
1487.00,100.23
1486.00,100.24
1485.00,100.24
1484.00,100.24
1483.00,100.24
1482.00,100.25
1481.00,100.25
1480.00,100.25
1479.00,100.24
1478.00,100.23
1477.00,100.23
1476.00,100.23
1475.00,100.22
1474.00,100.21
1473.00,100.20
1472.00,100.21
1471.00,100.22
1470.00,100.22
1469.00,100.23
1468.00,100.24
1467.00,100.25
1466.00,100.25
1465.00,100.24
1464.00,100.24
1463.00,100.24
1462.00,100.23
1461.00,100.23
1460.00,100.24
1459.00,100.24
1458.00,100.24
1457.00,100.23
1456.00,100.22
1455.00,100.22
1454.00,100.22
1453.00,100.23
1452.00,100.23
1451.00,100.24
1450.00,100.24
1449.00,100.24
1448.00,100.24
1447.00,100.25
1446.00,100.25
1445.00,100.25
1444.00,100.25
1443.00,100.25
1442.00,100.26
1441.00,100.25
1440.00,100.25
1439.00,100.25
1438.00,100.25
1437.00,100.24
1436.00,100.24
1435.00,100.24
1434.00,100.24
1433.00,100.24
1432.00,100.24
1431.00,100.25
1430.00,100.25
1429.00,100.25
1428.00,100.25
1427.00,100.24
1426.00,100.24
1425.00,100.24
1424.00,100.23
1423.00,100.24
1422.00,100.24
1421.00,100.24
1420.00,100.24
1419.00,100.24
1418.00,100.24
1417.00,100.23
1416.00,100.23
1415.00,100.24
1414.00,100.25
1413.00,100.25
1412.00,100.25
1411.00,100.25
1410.00,100.26
1409.00,100.26
1408.00,100.25
1407.00,100.25
1406.00,100.25
1405.00,100.25
1404.00,100.25
1403.00,100.25
1402.00,100.25
1401.00,100.24
1400.00,100.24
1399.00,100.24
1398.00,100.24
1397.00,100.24
1396.00,100.24
1395.00,100.24
1394.00,100.25
1393.00,100.24
1392.00,100.24
1391.00,100.24
1390.00,100.25
1389.00,100.25
1388.00,100.26
1387.00,100.26
1386.00,100.26
1385.00,100.26
1384.00,100.26
1383.00,100.26
1382.00,100.26
1381.00,100.26
1380.00,100.25
1379.00,100.25
1378.00,100.25
1377.00,100.25
1376.00,100.25
1375.00,100.25
1374.00,100.26
1373.00,100.26
1372.00,100.26
1371.00,100.25
1370.00,100.25
1369.00,100.25
1368.00,100.25
1367.00,100.25
1366.00,100.25
1365.00,100.25
1364.00,100.26
1363.00,100.26
1362.00,100.26
1361.00,100.26
1360.00,100.25
1359.00,100.25
1358.00,100.25
1357.00,100.25
1356.00,100.26
1355.00,100.26
1354.00,100.26
1353.00,100.26
1352.00,100.26
1351.00,100.26
1350.00,100.26
1349.00,100.26
1348.00,100.26
1347.00,100.26
1346.00,100.26
1345.00,100.26
1344.00,100.26
1343.00,100.26
1342.00,100.26
1341.00,100.26
1340.00,100.26
1339.00,100.26
1338.00,100.26
1337.00,100.26
1336.00,100.26
1335.00,100.26
1334.00,100.26
1333.00,100.26
1332.00,100.26
1331.00,100.26
1330.00,100.26
1329.00,100.26
1328.00,100.26
1327.00,100.26
1326.00,100.26
1325.00,100.26
1324.00,100.26
1323.00,100.26
1322.00,100.26
1321.00,100.26
1320.00,100.26
1319.00,100.26
1318.00,100.26
1317.00,100.26
1316.00,100.26
1315.00,100.26
1314.00,100.26
1313.00,100.26
1312.00,100.26
1311.00,100.26
1310.00,100.26
1309.00,100.26
1308.00,100.26
1307.00,100.26
1306.00,100.26
1305.00,100.26
1304.00,100.26
1303.00,100.26
1302.00,100.26
1301.00,100.26
1300.00,100.26
1299.00,100.26
1298.00,100.26
1297.00,100.27
1296.00,100.27
1295.00,100.26
1294.00,100.26
1293.00,100.26
1292.00,100.26
1291.00,100.26
1290.00,100.27
1289.00,100.27
1288.00,100.27
1287.00,100.27
1286.00,100.26
1285.00,100.26
1284.00,100.26
1283.00,100.26
1282.00,100.26
1281.00,100.27
1280.00,100.27
1279.00,100.27
1278.00,100.26
1277.00,100.26
1276.00,100.26
1275.00,100.26
1274.00,100.26
1273.00,100.26
1272.00,100.26
1271.00,100.26
1270.00,100.27
1269.00,100.27
1268.00,100.27
1267.00,100.27
1266.00,100.27
1265.00,100.27
1264.00,100.27
1263.00,100.27
1262.00,100.27
1261.00,100.27
1260.00,100.28
1259.00,100.28
1258.00,100.28
1257.00,100.28
1256.00,100.28
1255.00,100.28
1254.00,100.29
1253.00,100.29
1252.00,100.28
1251.00,100.28
1250.00,100.28
1249.00,100.29
1248.00,100.29
1247.00,100.29
1246.00,100.29
1245.00,100.28
1244.00,100.28
1243.00,100.28
1242.00,100.28
1241.00,100.27
1240.00,100.27
1239.00,100.27
1238.00,100.27
1237.00,100.27
1236.00,100.27
1235.00,100.27
1234.00,100.27
1233.00,100.27
1232.00,100.27
1231.00,100.27
1230.00,100.27
1229.00,100.27
1228.00,100.27
1227.00,100.27
1226.00,100.27
1225.00,100.27
1224.00,100.27
1223.00,100.27
1222.00,100.27
1221.00,100.27
1220.00,100.27
1219.00,100.27
1218.00,100.27
1217.00,100.27
1216.00,100.27
1215.00,100.27
1214.00,100.27
1213.00,100.27
1212.00,100.27
1211.00,100.27
1210.00,100.27
1209.00,100.27
1208.00,100.27
1207.00,100.27
1206.00,100.27
1205.00,100.27
1204.00,100.27
1203.00,100.27
1202.00,100.27
1201.00,100.27
1200.00,100.28
1199.00,100.28
1198.00,100.27
1197.00,100.27
1196.00,100.27
1195.00,100.27
1194.00,100.27
1193.00,100.28
1192.00,100.28
1191.00,100.28
1190.00,100.28
1189.00,100.28
1188.00,100.28
1187.00,100.27
1186.00,100.28
1185.00,100.28
1184.00,100.28
1183.00,100.28
1182.00,100.28
1181.00,100.28
1180.00,100.28
1179.00,100.28
1178.00,100.28
1177.00,100.28
1176.00,100.28
1175.00,100.28
1174.00,100.28
1173.00,100.28
1172.00,100.28
1171.00,100.28
1170.00,100.27
1169.00,100.27
1168.00,100.28
1167.00,100.28
1166.00,100.28
1165.00,100.28
1164.00,100.28
1163.00,100.28
1162.00,100.28
1161.00,100.28
1160.00,100.28
1159.00,100.28
1158.00,100.28
1157.00,100.28
1156.00,100.28
1155.00,100.28
1154.00,100.28
1153.00,100.28
1152.00,100.28
1151.00,100.28
1150.00,100.28
1149.00,100.28
1148.00,100.28
1147.00,100.28
1146.00,100.28
1145.00,100.28
1144.00,100.28
1143.00,100.28
1142.00,100.28
1141.00,100.28
1140.00,100.28
1139.00,100.28
1138.00,100.28
1137.00,100.28
1136.00,100.28
1135.00,100.28
1134.00,100.28
1133.00,100.28
1132.00,100.28
1131.00,100.29
1130.00,100.29
1129.00,100.28
1128.00,100.28
1127.00,100.28
1126.00,100.28
1125.00,100.28
1124.00,100.28
1123.00,100.28
1122.00,100.28
1121.00,100.28
1120.00,100.29
1119.00,100.29
1118.00,100.30
1117.00,100.30
1116.00,100.29
1115.00,100.29
1114.00,100.29
1113.00,100.29
1112.00,100.29
1111.00,100.29
1110.00,100.29
1109.00,100.28
1108.00,100.28
1107.00,100.28
1106.00,100.29
1105.00,100.29
1104.00,100.29
1103.00,100.29
1102.00,100.29
1101.00,100.28
1100.00,100.28
1099.00,100.28
1098.00,100.28
1097.00,100.28
1096.00,100.28
1095.00,100.28
1094.00,100.28
1093.00,100.28
1092.00,100.28
1091.00,100.28
1090.00,100.28
1089.00,100.28
1088.00,100.28
1087.00,100.28
1086.00,100.28
1085.00,100.28
1084.00,100.28
1083.00,100.28
1082.00,100.28
1081.00,100.29
1080.00,100.29
1079.00,100.29
1078.00,100.29
1077.00,100.28
1076.00,100.28
1075.00,100.28
1074.00,100.28
1073.00,100.28
1072.00,100.28
1071.00,100.28
1070.00,100.28
1069.00,100.28
1068.00,100.27
1067.00,100.27
1066.00,100.27
1065.00,100.27
1064.00,100.27
1063.00,100.26
1062.00,100.26
1061.00,100.26
1060.00,100.26
1059.00,100.26
1058.00,100.27
1057.00,100.27
1056.00,100.27
1055.00,100.28
1054.00,100.28
1053.00,100.28
1052.00,100.28
1051.00,100.27
1050.00,100.27
1049.00,100.27
1048.00,100.27
1047.00,100.27
1046.00,100.27
1045.00,100.26
1044.00,100.26
1043.00,100.26
1042.00,100.26
1041.00,100.26
1040.00,100.26
1039.00,100.26
1038.00,100.26
1037.00,100.26
1036.00,100.26
1035.00,100.26
1034.00,100.27
1033.00,100.27
1032.00,100.26
1031.00,100.26
1030.00,100.26
1029.00,100.26
1028.00,100.26
1027.00,100.26
1026.00,100.26
1025.00,100.26
1024.00,100.26
1023.00,100.26
1022.00,100.27
1021.00,100.27
1020.00,100.27
1019.00,100.27
1018.00,100.27
1017.00,100.26
1016.00,100.26
1015.00,100.25
1014.00,100.25
1013.00,100.25
1012.00,100.25
1011.00,100.25
1010.00,100.25
1009.00,100.25
1008.00,100.25
1007.00,100.25
1006.00,100.25
1005.00,100.25
1004.00,100.25
1003.00,100.25
1002.00,100.25
1001.00,100.25
1000.00,100.25
999.00,100.25
998.00,100.25
997.00,100.25
996.00,100.25
995.00,100.25
994.00,100.25
993.00,100.25
992.00,100.25
991.00,100.26
990.00,100.26
989.00,100.26
988.00,100.26
987.00,100.25
986.00,100.26
985.00,100.26
984.00,100.26
983.00,100.26
982.00,100.25
981.00,100.25
980.00,100.25
979.00,100.26
978.00,100.26
977.00,100.26
976.00,100.26
975.00,100.26
974.00,100.26
973.00,100.26
972.00,100.26
971.00,100.26
970.00,100.26
969.00,100.26
968.00,100.26
967.00,100.26
966.00,100.26
965.00,100.26
964.00,100.26
963.00,100.26
962.00,100.26
961.00,100.26
960.00,100.26
959.00,100.26
958.00,100.26
957.00,100.26
956.00,100.26
955.00,100.26
954.00,100.26
953.00,100.26
952.00,100.26
951.00,100.26
950.00,100.26
949.00,100.26
948.00,100.27
947.00,100.27
946.00,100.27
945.00,100.27
944.00,100.27
943.00,100.27
942.00,100.27
941.00,100.27
940.00,100.27
939.00,100.27
938.00,100.27
937.00,100.27
936.00,100.27
935.00,100.27
934.00,100.28
933.00,100.28
932.00,100.27
931.00,100.27
930.00,100.27
929.00,100.27
928.00,100.27
927.00,100.27
926.00,100.27
925.00,100.27
924.00,100.27
923.00,100.27
922.00,100.28
921.00,100.28
920.00,100.28
919.00,100.28
918.00,100.27
917.00,100.27
916.00,100.27
915.00,100.28
914.00,100.28
913.00,100.29
912.00,100.29
911.00,100.28
910.00,100.28
909.00,100.28
908.00,100.27
907.00,100.27
906.00,100.27
905.00,100.27
904.00,100.27
903.00,100.27
902.00,100.27
901.00,100.27
900.00,100.27
899.00,100.27
898.00,100.27
897.00,100.27
896.00,100.27
895.00,100.27
894.00,100.27
893.00,100.27
892.00,100.27
891.00,100.27
890.00,100.27
889.00,100.28
888.00,100.28
887.00,100.27
886.00,100.27
885.00,100.27
884.00,100.27
883.00,100.27
882.00,100.27
881.00,100.27
880.00,100.26
879.00,100.26
878.00,100.26
877.00,100.26
876.00,100.26
875.00,100.26
874.00,100.26
873.00,100.26
872.00,100.26
871.00,100.27
870.00,100.27
869.00,100.27
868.00,100.26
867.00,100.26
866.00,100.26
865.00,100.26
864.00,100.26
863.00,100.26
862.00,100.26
861.00,100.26
860.00,100.26
859.00,100.26
858.00,100.26
857.00,100.26
856.00,100.26
855.00,100.26
854.00,100.26
853.00,100.26
852.00,100.26
851.00,100.26
850.00,100.26
849.00,100.26
848.00,100.26
847.00,100.26
846.00,100.25
845.00,100.26
844.00,100.26
843.00,100.26
842.00,100.26
841.00,100.26
840.00,100.26
839.00,100.26
838.00,100.26
837.00,100.26
836.00,100.26
835.00,100.26
834.00,100.26
833.00,100.26
832.00,100.26
831.00,100.27
830.00,100.27
829.00,100.27
828.00,100.26
827.00,100.26
826.00,100.26
825.00,100.26
824.00,100.26
823.00,100.26
822.00,100.26
821.00,100.26
820.00,100.26
819.00,100.26
818.00,100.25
817.00,100.25
816.00,100.25
815.00,100.25
814.00,100.26
813.00,100.26
812.00,100.26
811.00,100.26
810.00,100.26
809.00,100.26
808.00,100.26
807.00,100.26
806.00,100.26
805.00,100.26
804.00,100.26
803.00,100.26
802.00,100.26
801.00,100.26
800.00,100.26
799.00,100.25
798.00,100.26
797.00,100.26
796.00,100.26
795.00,100.26
794.00,100.26
793.00,100.25
792.00,100.26
791.00,100.26
790.00,100.26
789.00,100.26
788.00,100.26
787.00,100.25
786.00,100.25
785.00,100.25
784.00,100.25
783.00,100.25
782.00,100.25
781.00,100.25
780.00,100.25
779.00,100.25
778.00,100.25
777.00,100.25
776.00,100.26
775.00,100.26
774.00,100.26
773.00,100.25
772.00,100.25
771.00,100.25
770.00,100.25
769.00,100.25
768.00,100.25
767.00,100.25
766.00,100.26
765.00,100.26
764.00,100.26
763.00,100.26
762.00,100.25
761.00,100.25
760.00,100.26
759.00,100.26
758.00,100.26
757.00,100.26
756.00,100.25
755.00,100.25
754.00,100.25
753.00,100.25
752.00,100.25
751.00,100.25
750.00,100.25
749.00,100.25
748.00,100.25
747.00,100.25
746.00,100.26
745.00,100.26
744.00,100.26
743.00,100.26
742.00,100.25
741.00,100.25
740.00,100.25
739.00,100.25
738.00,100.25
737.00,100.25
736.00,100.26
735.00,100.25
734.00,100.25
733.00,100.25
732.00,100.25
731.00,100.25
730.00,100.25
729.00,100.24
728.00,100.24
727.00,100.24
726.00,100.25
725.00,100.25
724.00,100.25
723.00,100.25
722.00,100.25
721.00,100.25
720.00,100.25
719.00,100.25
718.00,100.25
717.00,100.26
716.00,100.26
715.00,100.26
714.00,100.26
713.00,100.26
712.00,100.26
711.00,100.26
710.00,100.27
709.00,100.27
708.00,100.26
707.00,100.26
706.00,100.26
705.00,100.27
704.00,100.27
703.00,100.27
702.00,100.27
701.00,100.26
700.00,100.26
699.00,100.26
698.00,100.26
697.00,100.26
696.00,100.26
695.00,100.26
694.00,100.27
693.00,100.27
692.00,100.27
691.00,100.27
690.00,100.26
689.00,100.26
688.00,100.27
687.00,100.27
686.00,100.28
685.00,100.29
684.00,100.29
683.00,100.29
682.00,100.29
681.00,100.29
680.00,100.29
679.00,100.29
678.00,100.29
677.00,100.29
676.00,100.28
675.00,100.27
674.00,100.27
673.00,100.28
672.00,100.30
671.00,100.33
670.00,100.37
669.00,100.44
668.00,100.49
667.00,100.47
666.00,100.42
665.00,100.36
664.00,100.32
663.00,100.30
662.00,100.29
661.00,100.28
660.00,100.28
659.00,100.27
658.00,100.28
657.00,100.29
656.00,100.30
655.00,100.30
654.00,100.30
653.00,100.30
652.00,100.29
651.00,100.29
650.00,100.29
649.00,100.28
648.00,100.27
647.00,100.27
646.00,100.29
645.00,100.30
644.00,100.30
643.00,100.29
642.00,100.29
641.00,100.28
640.00,100.28
639.00,100.28
638.00,100.28
637.00,100.29
636.00,100.29
635.00,100.29
634.00,100.29
633.00,100.29
632.00,100.28
631.00,100.27
630.00,100.28
629.00,100.28
628.00,100.27
627.00,100.26
626.00,100.25
625.00,100.25
624.00,100.25
623.00,100.26
622.00,100.27
621.00,100.28
620.00,100.28
619.00,100.28
618.00,100.29
617.00,100.29
616.00,100.29
615.00,100.29
614.00,100.29
613.00,100.29
612.00,100.29
611.00,100.28
610.00,100.28
609.00,100.29
608.00,100.29
607.00,100.29
606.00,100.30
605.00,100.31
604.00,100.31
603.00,100.31
602.00,100.30
601.00,100.29
600.00,100.28
599.00,100.27
598.00,100.27
597.00,100.28
596.00,100.29
595.00,100.31
594.00,100.32
593.00,100.32
592.00,100.31
591.00,100.30
590.00,100.30
589.00,100.30
588.00,100.30
587.00,100.30
586.00,100.29
585.00,100.29
584.00,100.29
583.00,100.30
582.00,100.31
581.00,100.31
580.00,100.29
579.00,100.29
578.00,100.29
577.00,100.30
576.00,100.30
575.00,100.29
574.00,100.30
573.00,100.31
572.00,100.31
571.00,100.30
570.00,100.30
569.00,100.29
568.00,100.28
567.00,100.28
566.00,100.28
565.00,100.29
564.00,100.29
563.00,100.29
562.00,100.30
561.00,100.31
560.00,100.31
559.00,100.30
558.00,100.30
557.00,100.30
556.00,100.29
555.00,100.27
554.00,100.27
553.00,100.27
552.00,100.28
551.00,100.28
550.00,100.28
549.00,100.29
548.00,100.29
547.00,100.30
546.00,100.31
545.00,100.31
544.00,100.30
543.00,100.28
542.00,100.28
541.00,100.29
540.00,100.30
539.00,100.30
538.00,100.30
537.00,100.29
536.00,100.27
535.00,100.27
534.00,100.28
533.00,100.28
532.00,100.29
531.00,100.29
530.00,100.30
529.00,100.30
528.00,100.29
527.00,100.28
526.00,100.28
525.00,100.29
524.00,100.29
523.00,100.30
522.00,100.31
521.00,100.32
520.00,100.32
519.00,100.32
518.00,100.32
517.00,100.31
516.00,100.30
515.00,100.30
514.00,100.30
513.00,100.30
512.00,100.30
511.00,100.30
510.00,100.31
509.00,100.31
508.00,100.31
507.00,100.30
506.00,100.30
505.00,100.30
504.00,100.29
503.00,100.29
502.00,100.29
501.00,100.30
500.00,100.32
