3996.73391,0.00112
3994.67373,0.00106
3992.61356,0.00086
3990.55339,0.00062
3988.49322,0.00050
3986.43305,0.00050
3984.37287,0.00045
3982.31270,0.00041
3980.25253,0.00033
3978.19236,0.00016
3976.13219,0.00003
3974.07201,0.00000
3972.01184,0.00011
3969.95167,0.00051
3967.89150,0.00108
3965.83133,0.00128
3963.77115,0.00096
3961.71098,0.00063
3959.65081,0.00053
3957.59064,0.00045
3955.53046,0.00036
3953.47029,0.00039
3951.41012,0.00058
3949.34995,0.00078
3947.28978,0.00082
3945.22960,0.00063
3943.16943,0.00040
3941.10926,0.00036
3939.04909,0.00039
3936.98892,0.00042
3934.92874,0.00050
3932.86857,0.00056
3930.80840,0.00058
3928.74823,0.00071
3926.68805,0.00102
3924.62788,0.00127
3922.56771,0.00127
3920.50754,0.00116
3918.44737,0.00110
3916.38719,0.00106
3914.32702,0.00094
3912.26685,0.00080
3910.20668,0.00077
3908.14651,0.00091
3906.08633,0.00114
3904.02616,0.00125
3901.96599,0.00102
3899.90582,0.00074
3897.84565,0.00086
3895.78547,0.00125
3893.72530,0.00148
3891.66513,0.00133
3889.60496,0.00101
3887.54478,0.00089
3885.48461,0.00084
3883.42444,0.00062
3881.36427,0.00057
3879.30410,0.00079
3877.24392,0.00083
3875.18375,0.00067
3873.12358,0.00058
3871.06341,0.00059
3869.00324,0.00050
3866.94306,0.00028
3864.88289,0.00011
3862.82272,0.00017
3860.76255,0.00043
3858.70237,0.00085
3856.64220,0.00131
3854.58203,0.00168
3852.52186,0.00186
3850.46169,0.00177
3848.40151,0.00163
3846.34134,0.00161
3844.28117,0.00143
3842.22100,0.00085
3840.16083,0.00024
3838.10065,0.00004
3836.04048,0.00017
3833.98031,0.00030
3831.92014,0.00042
3829.85997,0.00072
3827.79979,0.00101
3825.73962,0.00102
3823.67945,0.00093
3821.61928,0.00089
3819.55910,0.00095
3817.49893,0.00103
3815.43876,0.00107
3813.37859,0.00112
3811.31842,0.00118
3809.25824,0.00130
3807.19807,0.00133
3805.13790,0.00101
3803.07773,0.00063
3801.01756,0.00075
3798.95738,0.00127
3796.89721,0.00162
3794.83704,0.00150
3792.77687,0.00108
3790.71670,0.00073
3788.65652,0.00066
3786.59635,0.00073
3784.53618,0.00066
3782.47601,0.00053
3780.41583,0.00073
3778.35566,0.00119
3776.29549,0.00146
3774.23532,0.00134
3772.17515,0.00095
3770.11497,0.00077
3768.05480,0.00101
3765.99463,0.00117
3763.93446,0.00107
3761.87429,0.00105
3759.81411,0.00124
3757.75394,0.00137
3755.69377,0.00109
3753.63360,0.00053
3751.57342,0.00016
3749.51325,0.00028
3747.45308,0.00042
3745.39291,0.00064
3743.33274,0.00146
3741.27256,0.00214
3739.21239,0.00190
3737.15222,0.00121
3735.09205,0.00107
3733.03188,0.00147
3730.97170,0.00131
3728.91153,0.00075
3726.85136,0.00068
3724.79119,0.00118
3722.73102,0.00160
3720.67084,0.00161
3718.61067,0.00145
3716.55050,0.00118
3714.49033,0.00095
3712.43015,0.00091
3710.36998,0.00109
3708.30981,0.00149
3706.24964,0.00157
3704.18947,0.00131
3702.12929,0.00120
3700.06912,0.00143
3698.00895,0.00168
3695.94878,0.00178
3693.88861,0.00177
3691.82843,0.00163
3689.76826,0.00182
3687.70809,0.00229
3685.64792,0.00236
3683.58775,0.00211
3681.52757,0.00213
3679.46740,0.00236
3677.40723,0.00234
3675.34706,0.00192
3673.28688,0.00148
3671.22671,0.00140
3669.16654,0.00190
3667.10637,0.00254
3665.04620,0.00293
3662.98602,0.00310
3660.92585,0.00305
3658.86568,0.00292
3656.80551,0.00318
3654.74534,0.00374
3652.68516,0.00428
3650.62499,0.00494
3648.56482,0.00546
3646.50465,0.00546
3644.44447,0.00551
3642.38430,0.00579
3640.32413,0.00612
3638.26396,0.00648
3636.20379,0.00680
3634.14361,0.00699
3632.08344,0.00713
3630.02327,0.00757
3627.96310,0.00839
3625.90293,0.00891
3623.84275,0.00898
3621.78258,0.00908
3619.72241,0.00934
3617.66224,0.00965
3615.60207,0.01012
3613.54189,0.01067
3611.48172,0.01142
3609.42155,0.01226
3607.36138,0.01285
3605.30120,0.01311
3603.24103,0.01321
3601.18086,0.01338
3599.12069,0.01357
3597.06052,0.01389
3595.00034,0.01466
3592.94017,0.01558
3590.88000,0.01590
3588.81983,0.01598
3586.75966,0.01636
3584.69948,0.01677
3582.63931,0.01705
3580.57914,0.01740
3578.51897,0.01776
3576.45879,0.01799
3574.39862,0.01823
3572.33845,0.01864
3570.27828,0.01915
3568.21811,0.01956
3566.15793,0.01986
3564.09776,0.02050
3562.03759,0.02144
3559.97742,0.02203
3557.91725,0.02219
3555.85707,0.02250
3553.79690,0.02312
3551.73673,0.02371
3549.67656,0.02388
3547.61639,0.02388
3545.55621,0.02424
3543.49604,0.02481
3541.43587,0.02526
3539.37570,0.02564
3537.31552,0.02593
3535.25535,0.02615
3533.19518,0.02644
3531.13501,0.02677
3529.07484,0.02724
3527.01466,0.02802
3524.95449,0.02895
3522.89432,0.02979
3520.83415,0.03029
3518.77398,0.03038
3516.71380,0.03036
3514.65363,0.03041
3512.59346,0.03056
3510.53329,0.03090
3508.47312,0.03145
3506.41294,0.03195
3504.35277,0.03225
3502.29260,0.03254
3500.23243,0.03291
3498.17225,0.03315
3496.11208,0.03336
3494.05191,0.03385
3491.99174,0.03441
3489.93157,0.03466
3487.87139,0.03485
3485.81122,0.03544
3483.75105,0.03624
3481.69088,0.03656
3479.63071,0.03634
3477.57053,0.03630
3475.51036,0.03672
3473.45019,0.03719
3471.39002,0.03761
3469.32984,0.03814
3467.26967,0.03860
3465.20950,0.03878
3463.14933,0.03880
3461.08916,0.03879
3459.02898,0.03887
3456.96881,0.03934
3454.90864,0.04013
3452.84847,0.04067
3450.78830,0.04071
3448.72812,0.04075
3446.66795,0.04130
3444.60778,0.04198
3442.54761,0.04227
3440.48744,0.04229
3438.42726,0.04241
3436.36709,0.04272
3434.30692,0.04297
3432.24675,0.04305
3430.18657,0.04305
3428.12640,0.04318
3426.06623,0.04344
3424.00606,0.04368
3421.94589,0.04402
3419.88571,0.04425
3417.82554,0.04430
3415.76537,0.04462
3413.70520,0.04517
3411.64503,0.04542
3409.58485,0.04545
3407.52468,0.04550
3405.46451,0.04578
3403.40434,0.04631
3401.34416,0.04647
3399.28399,0.04624
3397.22382,0.04620
3395.16365,0.04655
3393.10348,0.04706
3391.04330,0.04735
3388.98313,0.04726
3386.92296,0.04717
3384.86279,0.04741
3382.80262,0.04770
3380.74244,0.04774
3378.68227,0.04774
3376.62210,0.04785
3374.56193,0.04796
3372.50176,0.04808
3370.44158,0.04836
3368.38141,0.04867
3366.32124,0.04869
3364.26107,0.04832
3362.20089,0.04793
3360.14072,0.04790
3358.08055,0.04828
3356.02038,0.04876
3353.96021,0.04905
3351.90003,0.04901
3349.83986,0.04880
3347.77969,0.04876
3345.71952,0.04897
3343.65935,0.04911
3341.59917,0.04901
3339.53900,0.04894
3337.47883,0.04919
3335.41866,0.04961
3333.35849,0.04960
3331.29831,0.04932
3329.23814,0.04938
3327.17797,0.04975
3325.11780,0.05005
3323.05762,0.05010
3320.99745,0.04992
3318.93728,0.04962
3316.87711,0.04939
3314.81694,0.04936
3312.75676,0.04946
3310.69659,0.04947
3308.63642,0.04927
3306.57625,0.04906
3304.51608,0.04921
3302.45590,0.04964
3300.39573,0.04991
3298.33556,0.04991
3296.27539,0.04969
3294.21521,0.04952
3292.15504,0.04967
3290.09487,0.04985
3288.03470,0.04971
3285.97453,0.04965
3283.91435,0.04980
3281.85418,0.04972
3279.79401,0.04953
3277.73384,0.04965
3275.67367,0.04994
3273.61349,0.04996
3271.55332,0.04982
3269.49315,0.04976
3267.43298,0.04961
3265.37281,0.04942
3263.31263,0.04952
3261.25246,0.04980
3259.19229,0.04992
3257.13212,0.04978
3255.07194,0.04961
3253.01177,0.04960
3250.95160,0.04958
3248.89143,0.04932
3246.83126,0.04901
3244.77108,0.04905
3242.71091,0.04935
3240.65074,0.04952
3238.59057,0.04955
3236.53040,0.04936
3234.47022,0.04889
3232.41005,0.04857
3230.34988,0.04853
3228.28971,0.04866
3226.22954,0.04909
3224.16936,0.04934
3222.10919,0.04901
3220.04902,0.04872
3217.98885,0.04878
3215.92867,0.04891
3213.86850,0.04889
3211.80833,0.04881
3209.74816,0.04867
3207.68799,0.04838
3205.62781,0.04798
3203.56764,0.04770
3201.50747,0.04769
3199.44730,0.04761
3197.38713,0.04751
3195.32695,0.04772
3193.26678,0.04787
3191.20661,0.04749
3189.14644,0.04686
3187.08626,0.04655
3185.02609,0.04666
3182.96592,0.04691
3180.90575,0.04694
3178.84558,0.04671
3176.78540,0.04635
3174.72523,0.04590
3172.66506,0.04565
3170.60489,0.04571
3168.54472,0.04574
3166.48454,0.04566
3164.42437,0.04556
3162.36420,0.04530
3160.30403,0.04493
3158.24386,0.04469
3156.18368,0.04453
3154.12351,0.04437
3152.06334,0.04414
3150.00317,0.04394
3147.94299,0.04389
3145.88282,0.04374
3143.82265,0.04334
3141.76248,0.04305
3139.70231,0.04312
3137.64213,0.04324
3135.58196,0.04312
3133.52179,0.04290
3131.46162,0.04278
3129.40145,0.04265
3127.34127,0.04245
3125.28110,0.04219
3123.22093,0.04195
3121.16076,0.04187
3119.10058,0.04182
3117.04041,0.04151
3114.98024,0.04099
3112.92007,0.04070
3110.85990,0.04076
3108.79972,0.04067
3106.73955,0.04025
3104.67938,0.03984
3102.61921,0.03953
3100.55904,0.03924
3098.49886,0.03910
3096.43869,0.03911
3094.37852,0.03906
3092.31835,0.03892
3090.25818,0.03865
3088.19800,0.03825
3086.13783,0.03808
3084.07766,0.03820
3082.01749,0.03799
3079.95731,0.03749
3077.89714,0.03726
3075.83697,0.03721
3073.77680,0.03725
3071.71663,0.03745
3069.65645,0.03745
3067.59628,0.03710
3065.53611,0.03661
3063.47594,0.03613
3061.41577,0.03573
3059.35559,0.03553
3057.29542,0.03536
3055.23525,0.03505
3053.17508,0.03479
3051.11491,0.03472
3049.05473,0.03468
3046.99456,0.03442
3044.93439,0.03396
3042.87422,0.03379
3040.81404,0.03384
3038.75387,0.03359
3036.69370,0.03315
3034.63353,0.03296
3032.57336,0.03299
3030.51318,0.03294
3028.45301,0.03277
3026.39284,0.03251
3024.33267,0.03220
3022.27250,0.03187
3020.21232,0.03165
3018.15215,0.03164
3016.09198,0.03156
3014.03181,0.03133
3011.97163,0.03106
3009.91146,0.03061
3007.85129,0.03012
3005.79112,0.02997
3003.73095,0.03011
3001.67077,0.03020
2999.61060,0.03008
2997.55043,0.02977
2995.49026,0.02954
2993.43009,0.02948
2991.36991,0.02935
2989.30974,0.02916
2987.24957,0.02912
2985.18940,0.02909
2983.12923,0.02882
2981.06905,0.02846
2979.00888,0.02834
2976.94871,0.02842
2974.88854,0.02836
2972.82836,0.02805
2970.76819,0.02776
2968.70802,0.02778
2966.64785,0.02808
2964.58768,0.02827
2962.52750,0.02815
2960.46733,0.02796
2958.40716,0.02792
2956.34699,0.02803
2954.28682,0.02806
2952.22664,0.02797
2950.16647,0.02798
2948.10630,0.02813
2946.04613,0.02822
2943.98596,0.02819
2941.92578,0.02808
2939.86561,0.02800
2937.80544,0.02796
2935.74527,0.02790
2933.68509,0.02782
2931.62492,0.02783
2929.56475,0.02787
2927.50458,0.02773
2925.44441,0.02738
2923.38423,0.02702
2921.32406,0.02678
2919.26389,0.02667
2917.20372,0.02661
2915.14355,0.02661
2913.08337,0.02659
2911.02320,0.02639
2908.96303,0.02615
2906.90286,0.02604
2904.84268,0.02589
2902.78251,0.02567
2900.72234,0.02565
2898.66217,0.02581
2896.60200,0.02578
2894.54182,0.02551
2892.48165,0.02523
2890.42148,0.02502
2888.36131,0.02484
2886.30114,0.02483
2884.24096,0.02496
2882.18079,0.02501
2880.12062,0.02500
2878.06045,0.02485
2876.00028,0.02451
2873.94010,0.02427
2871.87993,0.02437
2869.81976,0.02458
2867.75959,0.02451
2865.69941,0.02409
2863.63924,0.02365
2861.57907,0.02353
2859.51890,0.02367
2857.45873,0.02380
2855.39855,0.02383
2853.33838,0.02374
2851.27821,0.02347
2849.21804,0.02329
2847.15787,0.02333
2845.09769,0.02326
2843.03752,0.02298
2840.97735,0.02271
2838.91718,0.02243
2836.85700,0.02208
2834.79683,0.02187
2832.73666,0.02201
2830.67649,0.02226
2828.61632,0.02227
2826.55614,0.02205
2824.49597,0.02175
2822.43580,0.02152
2820.37563,0.02148
2818.31546,0.02150
2816.25528,0.02137
2814.19511,0.02093
2812.13494,0.02039
2810.07477,0.02011
2808.01460,0.02009
2805.95442,0.02014
2803.89425,0.02012
2801.83408,0.02017
2799.77391,0.02034
2797.71373,0.02039
2795.65356,0.02018
2793.59339,0.01983
2791.53322,0.01957
2789.47305,0.01954
2787.41287,0.01965
2785.35270,0.01963
2783.29253,0.01946
2781.23236,0.01940
2779.17219,0.01954
2777.11201,0.01968
2775.05184,0.01960
2772.99167,0.01925
2770.93150,0.01884
2768.87133,0.01857
2766.81115,0.01850
2764.75098,0.01870
2762.69081,0.01882
2760.63064,0.01859
2758.57046,0.01838
2756.51029,0.01830
2754.45012,0.01821
2752.38995,0.01817
2750.32978,0.01820
2748.26960,0.01828
2746.20943,0.01831
2744.14926,0.01812
2742.08909,0.01778
2740.02892,0.01764
2737.96874,0.01774
2735.90857,0.01774
2733.84840,0.01760
2731.78823,0.01751
2729.72805,0.01749
2727.66788,0.01729
2725.60771,0.01706
2723.54754,0.01715
2721.48737,0.01739
2719.42719,0.01746
2717.36702,0.01735
2715.30685,0.01709
2713.24668,0.01676
2711.18651,0.01662
2709.12633,0.01657
2707.06616,0.01642
2705.00599,0.01627
2702.94582,0.01615
2700.88565,0.01606
2698.82547,0.01604
2696.76530,0.01597
2694.70513,0.01577
2692.64496,0.01564
2690.58478,0.01559
2688.52461,0.01549
2686.46444,0.01536
2684.40427,0.01525
2682.34410,0.01523
2680.28392,0.01529
2678.22375,0.01524
2676.16358,0.01511
2674.10341,0.01498
2672.04324,0.01495
2669.98306,0.01494
2667.92289,0.01483
2665.86272,0.01470
2663.80255,0.01472
2661.74238,0.01473
2659.68220,0.01463
2657.62203,0.01448
2655.56186,0.01434
2653.50169,0.01426
2651.44151,0.01413
2649.38134,0.01403
2647.32117,0.01394
2645.26100,0.01377
2643.20083,0.01363
2641.14065,0.01364
2639.08048,0.01353
2637.02031,0.01322
2634.96014,0.01305
2632.89997,0.01300
2630.83979,0.01287
2628.77962,0.01277
2626.71945,0.01267
2624.65928,0.01247
2622.59910,0.01216
2620.53893,0.01196
2618.47876,0.01199
2616.41859,0.01214
2614.35842,0.01210
2612.29824,0.01178
2610.23807,0.01162
2608.17790,0.01172
2606.11773,0.01177
2604.05756,0.01176
2601.99738,0.01174
2599.93721,0.01168
2597.87704,0.01159
2595.81687,0.01150
2593.75670,0.01157
2591.69652,0.01164
2589.63635,0.01135
2587.57618,0.01087
2585.51601,0.01063
2583.45583,0.01068
2581.39566,0.01079
2579.33549,0.01080
2577.27532,0.01054
2575.21515,0.01009
2573.15497,0.00980
2571.09480,0.00988
2569.03463,0.01021
2566.97446,0.01056
2564.91429,0.01083
2562.85411,0.01090
2560.79394,0.01078
2558.73377,0.01063
2556.67360,0.01061
2554.61342,0.01075
2552.55325,0.01077
2550.49308,0.01066
2548.43291,0.01073
2546.37274,0.01079
2544.31256,0.01064
2542.25239,0.01037
2540.19222,0.01034
2538.13205,0.01065
2536.07188,0.01099
2534.01170,0.01123
2531.95153,0.01132
2529.89136,0.01123
2527.83119,0.01106
2525.77102,0.01091
2523.71084,0.01062
2521.65067,0.01033
2519.59050,0.01045
2517.53033,0.01071
2515.47015,0.01066
2513.40998,0.01041
2511.34981,0.01030
2509.28964,0.01035
2507.22947,0.01040
2505.16929,0.01045
2503.10912,0.01028
2501.04895,0.00996
2498.98878,0.00994
2496.92861,0.01026
2494.86843,0.01073
2492.80826,0.01124
2490.74809,0.01158
2488.68792,0.01147
2486.62775,0.01104
2484.56757,0.01074
2482.50740,0.01085
2480.44723,0.01107
2478.38706,0.01100
2476.32688,0.01084
2474.26671,0.01085
2472.20654,0.01084
2470.14637,0.01094
2468.08620,0.01122
2466.02602,0.01127
2463.96585,0.01130
2461.90568,0.01160
2459.84551,0.01170
2457.78534,0.01142
2455.72516,0.01127
2453.66499,0.01138
2451.60482,0.01135
2449.54465,0.01134
2447.48447,0.01163
2445.42430,0.01180
2443.36413,0.01180
2441.30396,0.01191
2439.24379,0.01185
2437.18361,0.01164
2435.12344,0.01158
2433.06327,0.01155
2431.00310,0.01144
2428.94293,0.01149
2426.88275,0.01167
2424.82258,0.01148
2422.76241,0.01116
2420.70224,0.01106
2418.64207,0.01105
2416.58189,0.01115
2414.52172,0.01124
2412.46155,0.01126
2410.40138,0.01127
2408.34120,0.01115
2406.28103,0.01094
2404.22086,0.01093
2402.16069,0.01103
2400.10052,0.01103
2398.04034,0.01120
2395.98017,0.01140
2393.92000,0.01144
2391.85983,0.01129
2389.79966,0.01108
2387.73948,0.01092
2385.67931,0.01075
2383.61914,0.01073
2381.55897,0.01084
2379.49880,0.01090
2377.43862,0.01095
2375.37845,0.01146
2373.31828,0.01179
2371.25811,0.01170
2369.19793,0.01245
2367.13776,0.01278
2365.07759,0.01035
2363.01742,0.00752
2360.95725,0.00666
2358.89707,0.01045
2356.83690,0.01336
2354.77673,0.01318
2352.71656,0.01213
2350.65639,0.00873
2348.59621,0.00691
2346.53604,0.01109
2344.47587,0.01214
2342.41570,0.01102
2340.35552,0.00959
2338.29535,0.00798
2336.23518,0.00781
2334.17501,0.00889
2332.11484,0.01063
2330.05466,0.01173
2327.99449,0.01276
2325.93432,0.01309
2323.87415,0.01356
2321.81398,0.01297
2319.75380,0.01195
2317.69363,0.01056
2315.63346,0.01028
2313.57329,0.01070
2311.51312,0.01105
2309.45294,0.01129
2307.39277,0.01142
2305.33260,0.01149
2303.27243,0.01155
2301.21225,0.01167
2299.15208,0.01153
2297.09191,0.01139
2295.03174,0.01122
2292.97157,0.01082
2290.91139,0.01050
2288.85122,0.01053
2286.79105,0.01065
2284.73088,0.01046
2282.67071,0.00996
2280.61053,0.00935
2278.55036,0.00904
2276.49019,0.00936
2274.43002,0.00995
2272.36984,0.01015
2270.30967,0.00974
2268.24950,0.00922
2266.18933,0.00907
2264.12916,0.00924
2262.06898,0.00932
2260.00881,0.00911
2257.94864,0.00890
2255.88847,0.00904
2253.82830,0.00941
2251.76812,0.00930
2249.70795,0.00844
2247.64778,0.00795
2245.58761,0.00796
2243.52744,0.00749
2241.46726,0.00735
2239.40709,0.00780
2237.34692,0.00835
2235.28675,0.00885
2233.22657,0.00892
2231.16640,0.00882
2229.10623,0.00871
2227.04606,0.00806
2224.98589,0.00774
2222.92571,0.00855
2220.86554,0.00959
2218.80537,0.00986
2216.74520,0.00935
2214.68503,0.00848
2212.62485,0.00782
2210.56468,0.00746
2208.50451,0.00688
2206.44434,0.00647
2204.38417,0.00702
2202.32399,0.00781
2200.26382,0.00782
2198.20365,0.00776
2196.14348,0.00797
2194.08330,0.00768
2192.02313,0.00686
2189.96296,0.00602
2187.90279,0.00549
2185.84262,0.00494
2183.78244,0.00494
2181.72227,0.00620
2179.66210,0.00754
2177.60193,0.00762
2175.54176,0.00653
2173.48158,0.00554
2171.42141,0.00565
2169.36124,0.00686
2167.30107,0.00844
2165.24089,0.00887
2163.18072,0.00725
2161.12055,0.00507
2159.06038,0.00364
2157.00021,0.00239
2154.94003,0.00223
2152.87986,0.00327
2150.81969,0.00344
2148.75952,0.00308
2146.69935,0.00354
2144.63917,0.00431
2142.57900,0.00509
2140.51883,0.00577
2138.45866,0.00591
2136.39849,0.00562
2134.33831,0.00514
2132.27814,0.00487
2130.21797,0.00512
2128.15780,0.00566
2126.09762,0.00621
2124.03745,0.00663
2121.97728,0.00671
2119.91711,0.00631
2117.85694,0.00615
2115.79676,0.00646
2113.73659,0.00659
2111.67642,0.00670
2109.61625,0.00673
2107.55608,0.00636
2105.49590,0.00583
2103.43573,0.00543
2101.37556,0.00531
2099.31539,0.00534
2097.25521,0.00520
2095.19504,0.00515
2093.13487,0.00542
2091.07470,0.00539
2089.01453,0.00511
2086.95435,0.00520
2084.89418,0.00530
2082.83401,0.00500
2080.77384,0.00476
2078.71367,0.00494
2076.65349,0.00529
2074.59332,0.00550
2072.53315,0.00531
2070.47298,0.00509
2068.41281,0.00547
2066.35263,0.00612
2064.29246,0.00631
2062.23229,0.00604
2060.17212,0.00577
2058.11194,0.00557
2056.05177,0.00536
2053.99160,0.00561
2051.93143,0.00594
2049.87126,0.00556
2047.81108,0.00503
2045.75091,0.00472
2043.69074,0.00414
2041.63057,0.00372
2039.57040,0.00476
2037.51022,0.00667
2035.45005,0.00724
2033.38988,0.00581
2031.32971,0.00404
2029.26954,0.00358
2027.20936,0.00426
2025.14919,0.00497
2023.08902,0.00489
2021.02885,0.00421
2018.96867,0.00403
2016.90850,0.00445
2014.84833,0.00451
2012.78816,0.00383
2010.72799,0.00240
2008.66781,0.00099
2006.60764,0.00063
2004.54747,0.00142
2002.48730,0.00299
2000.42713,0.00430
1998.36695,0.00438
1996.30678,0.00327
1994.24661,0.00217
1992.18644,0.00216
1990.12626,0.00282
1988.06609,0.00326
1986.00592,0.00363
1983.94575,0.00458
1981.88558,0.00573
1979.82540,0.00547
1977.76523,0.00390
1975.70506,0.00291
1973.64489,0.00302
1971.58472,0.00312
1969.52454,0.00228
1967.46437,0.00147
1965.40420,0.00194
1963.34403,0.00271
1961.28386,0.00291
1959.22368,0.00339
1957.16351,0.00437
1955.10334,0.00454
1953.04317,0.00377
1950.98299,0.00346
1948.92282,0.00396
1946.86265,0.00427
1944.80248,0.00405
1942.74231,0.00352
1940.68213,0.00312
1938.62196,0.00352
1936.56179,0.00435
1934.50162,0.00454
1932.44145,0.00415
1930.38127,0.00381
1928.32110,0.00363
1926.26093,0.00375
1924.20076,0.00397
1922.14059,0.00384
1920.08041,0.00389
1918.02024,0.00433
1915.96007,0.00448
1913.89990,0.00444
1911.83972,0.00451
1909.77955,0.00438
1907.71938,0.00414
1905.65921,0.00411
1903.59904,0.00428
1901.53886,0.00444
1899.47869,0.00433
1897.41852,0.00420
1895.35835,0.00425
1893.29818,0.00414
1891.23800,0.00393
1889.17783,0.00403
1887.11766,0.00426
1885.05749,0.00434
1882.99731,0.00436
1880.93714,0.00440
1878.87697,0.00440
1876.81680,0.00424
1874.75663,0.00398
1872.69645,0.00383
1870.63628,0.00386
1868.57611,0.00410
1866.51594,0.00449
1864.45577,0.00484
1862.39559,0.00494
1860.33542,0.00471
1858.27525,0.00441
1856.21508,0.00425
1854.15491,0.00417
1852.09473,0.00414
1850.03456,0.00423
1847.97439,0.00448
1845.91422,0.00480
1843.85404,0.00490
1841.79387,0.00459
1839.73370,0.00428
1837.67353,0.00436
1835.61336,0.00467
1833.55318,0.00472
1831.49301,0.00446
1829.43284,0.00433
1827.37267,0.00459
1825.31250,0.00497
1823.25232,0.00523
1821.19215,0.00528
1819.13198,0.00517
1817.07181,0.00511
1815.01163,0.00509
1812.95146,0.00492
1810.89129,0.00473
1808.83112,0.00480
1806.77095,0.00503
1804.71077,0.00521
1802.65060,0.00531
1800.59043,0.00539
1798.53026,0.00541
1796.47009,0.00530
1794.40991,0.00517
1792.34974,0.00535
1790.28957,0.00573
1788.22940,0.00585
1786.16923,0.00581
1784.10905,0.00583
1782.04888,0.00584
1779.98871,0.00577
1777.92854,0.00566
1775.86836,0.00542
1773.80819,0.00522
1771.74802,0.00547
1769.68785,0.00601
1767.62768,0.00627
1765.56750,0.00626
1763.50733,0.00623
1761.44716,0.00630
1759.38699,0.00642
1757.32682,0.00646
1755.26664,0.00648
1753.20647,0.00667
1751.14630,0.00701
1749.08613,0.00724
1747.02596,0.00722
1744.96578,0.00732
1742.90561,0.00763
1740.84544,0.00793
1738.78527,0.00798
1736.72509,0.00782
1734.66492,0.00786
1732.60475,0.00840
1730.54458,0.00888
1728.48441,0.00893
1726.42423,0.00887
1724.36406,0.00893
1722.30389,0.00901
1720.24372,0.00898
1718.18355,0.00910
1716.12337,0.00963
1714.06320,0.01017
1712.00303,0.01030
1709.94286,0.01023
1707.88268,0.01034
1705.82251,0.01077
1703.76234,0.01131
1701.70217,0.01176
1699.64200,0.01223
1697.58182,0.01251
1695.52165,0.01248
1693.46148,0.01243
1691.40131,0.01251
1689.34114,0.01277
1687.28096,0.01307
1685.22079,0.01354
1683.16062,0.01448
1681.10045,0.01528
1679.04028,0.01550
1676.98010,0.01553
1674.91993,0.01584
1672.85976,0.01644
1670.79959,0.01718
1668.73941,0.01786
1666.67924,0.01812
1664.61907,0.01817
1662.55890,0.01848
1660.49873,0.01893
1658.43855,0.01910
1656.37838,0.01899
1654.31821,0.01898
1652.25804,0.01935
1650.19787,0.01961
1648.13769,0.01965
1646.07752,0.01985
1644.01735,0.02004
1641.95718,0.01994
1639.89701,0.01968
1637.83683,0.01946
1635.77666,0.01949
1633.71649,0.01959
1631.65632,0.01954
1629.59614,0.01937
1627.53597,0.01922
1625.47580,0.01917
1623.41563,0.01921
1621.35546,0.01916
1619.29528,0.01906
1617.23511,0.01902
1615.17494,0.01882
1613.11477,0.01840
1611.05460,0.01813
1608.99442,0.01817
1606.93425,0.01822
1604.87408,0.01804
1602.81391,0.01766
1600.75373,0.01724
1598.69356,0.01690
1596.63339,0.01652
1594.57322,0.01599
1592.51305,0.01548
1590.45287,0.01506
1588.39270,0.01459
1586.33253,0.01407
1584.27236,0.01368
1582.21219,0.01341
1580.15201,0.01304
1578.09184,0.01253
1576.03167,0.01202
1573.97150,0.01162
1571.91133,0.01135
1569.85115,0.01117
1567.79098,0.01094
1565.73081,0.01064
1563.67064,0.01027
1561.61046,0.00977
1559.55029,0.00937
1557.49012,0.00945
1555.42995,0.00954
1553.36978,0.00927
1551.30960,0.00886
1549.24943,0.00865
1547.18926,0.00858
1545.12909,0.00837
1543.06892,0.00792
1541.00874,0.00752
1538.94857,0.00751
1536.88840,0.00752
1534.82823,0.00738
1532.76805,0.00722
1530.70788,0.00701
1528.64771,0.00667
1526.58754,0.00641
1524.52737,0.00643
1522.46719,0.00665
1520.40702,0.00677
1518.34685,0.00664
1516.28668,0.00646
1514.22651,0.00627
1512.16633,0.00604
1510.10616,0.00584
1508.04599,0.00589
1505.98582,0.00608
1503.92565,0.00601
1501.86547,0.00574
1499.80530,0.00552
1497.74513,0.00555
1495.68496,0.00572
1493.62478,0.00568
1491.56461,0.00545
1489.50444,0.00537
1487.44427,0.00552
1485.38410,0.00571
1483.32392,0.00584
1481.26375,0.00580
1479.20358,0.00567
1477.14341,0.00568
1475.08324,0.00592
1473.02306,0.00630
1470.96289,0.00665
1468.90272,0.00680
1466.84255,0.00684
1464.78238,0.00692
1462.72220,0.00699
1460.66203,0.00699
1458.60186,0.00712
1456.54169,0.00752
1454.48151,0.00779
1452.42134,0.00770
1450.36117,0.00742
1448.30100,0.00722
1446.24083,0.00723
1444.18065,0.00733
1442.12048,0.00740
1440.06031,0.00741
1438.00014,0.00744
1435.93997,0.00758
1433.87979,0.00772
1431.81962,0.00777
1429.75945,0.00784
1427.69928,0.00796
1425.63910,0.00801
1423.57893,0.00804
1421.51876,0.00818
1419.45859,0.00855
1417.39842,0.00899
1415.33824,0.00905
1413.27807,0.00878
1411.21790,0.00856
1409.15773,0.00855
1407.09756,0.00862
1405.03738,0.00865
1402.97721,0.00852
1400.91704,0.00828
1398.85687,0.00810
1396.79670,0.00792
1394.73652,0.00770
1392.67635,0.00760
1390.61618,0.00768
1388.55601,0.00782
1386.49583,0.00786
1384.43566,0.00780
1382.37549,0.00778
1380.31532,0.00781
1378.25515,0.00781
1376.19497,0.00782
1374.13480,0.00783
1372.07463,0.00772
1370.01446,0.00754
1367.95429,0.00744
1365.89411,0.00741
1363.83394,0.00734
1361.77377,0.00720
1359.71360,0.00701
1357.65343,0.00679
1355.59325,0.00664
1353.53308,0.00658
1351.47291,0.00649
1349.41274,0.00636
1347.35256,0.00623
1345.29239,0.00619
1343.23222,0.00619
1341.17205,0.00620
1339.11188,0.00621
1337.05170,0.00613
1334.99153,0.00593
1332.93136,0.00578
1330.87119,0.00581
1328.81102,0.00596
1326.75084,0.00603
1324.69067,0.00598
1322.63050,0.00592
1320.57033,0.00590
1318.51015,0.00595
1316.44998,0.00604
1314.38981,0.00611
1312.32964,0.00622
1310.26947,0.00626
1308.20929,0.00611
1306.14912,0.00596
1304.08895,0.00602
1302.02878,0.00621
1299.96861,0.00635
1297.90843,0.00633
1295.84826,0.00623
1293.78809,0.00622
1291.72792,0.00629
1289.66775,0.00638
1287.60757,0.00646
1285.54740,0.00655
1283.48723,0.00664
1281.42706,0.00667
1279.36688,0.00672
1277.30671,0.00685
1275.24654,0.00700
1273.18637,0.00708
1271.12620,0.00704
1269.06602,0.00701
1267.00585,0.00697
1264.94568,0.00695
1262.88551,0.00707
1260.82534,0.00723
1258.76516,0.00726
1256.70499,0.00718
1254.64482,0.00713
1252.58465,0.00714
1250.52447,0.00717
1248.46430,0.00716
1246.40413,0.00703
1244.34396,0.00675
1242.28379,0.00650
1240.22361,0.00639
1238.16344,0.00630
1236.10327,0.00626
1234.04310,0.00623
1231.98293,0.00606
1229.92275,0.00585
1227.86258,0.00564
1225.80241,0.00533
1223.74224,0.00504
1221.68207,0.00492
1219.62189,0.00486
1217.56172,0.00462
1215.50155,0.00431
1213.44138,0.00420
1211.38120,0.00415
1209.32103,0.00407
1207.26086,0.00404
1205.20069,0.00402
1203.14052,0.00404
1201.08034,0.00415
1199.02017,0.00423
1196.96000,0.00427
1194.89983,0.00436
1192.83966,0.00452
1190.77948,0.00479
1188.71931,0.00519
1186.65914,0.00558
1184.59897,0.00591
1182.53880,0.00633
1180.47862,0.00700
1178.41845,0.00789
1176.35828,0.00880
1174.29811,0.00957
1172.23793,0.01023
1170.17776,0.01091
1168.11759,0.01169
1166.05742,0.01258
1163.99725,0.01355
1161.93707,0.01439
1159.87690,0.01501
1157.81673,0.01554
1155.75656,0.01617
1153.69639,0.01699
1151.63621,0.01790
1149.57604,0.01885
1147.51587,0.01982
1145.45570,0.02065
1143.39552,0.02130
1141.33535,0.02198
1139.27518,0.02287
1137.21501,0.02382
1135.15484,0.02480
1133.09466,0.02588
1131.03449,0.02700
1128.97432,0.02808
1126.91415,0.02911
1124.85398,0.03022
1122.79380,0.03134
1120.73363,0.03233
1118.67346,0.03336
1116.61329,0.03455
1114.55312,0.03577
1112.49294,0.03700
1110.43277,0.03825
1108.37260,0.03943
1106.31243,0.04062
1104.25225,0.04173
1102.19208,0.04280
1100.13191,0.04401
1098.07174,0.04514
1096.01157,0.04612
1093.95139,0.04707
1091.89122,0.04805
1089.83105,0.04910
1087.77088,0.05004
1085.71071,0.05096
1083.65053,0.05186
1081.59036,0.05245
1079.53019,0.05289
1077.47002,0.05352
1075.40985,0.05431
1073.34967,0.05498
1071.28950,0.05523
1069.22933,0.05516
1067.16916,0.05511
1065.10898,0.05505
1063.04881,0.05484
1060.98864,0.05455
1058.92847,0.05413
1056.86830,0.05345
1054.80812,0.05258
1052.74795,0.05177
1050.68778,0.05123
1048.62761,0.05066
1046.56744,0.04963
1044.50726,0.04830
1042.44709,0.04717
1040.38692,0.04628
1038.32675,0.04526
1036.26657,0.04423
1034.20640,0.04333
1032.14623,0.04227
1030.08606,0.04107
1028.02589,0.03994
1025.96571,0.03887
1023.90554,0.03776
1021.84537,0.03664
1019.78520,0.03570
1017.72503,0.03503
1015.66485,0.03438
1013.60468,0.03352
1011.54451,0.03273
1009.48434,0.03212
1007.42417,0.03161
1005.36399,0.03142
1003.30382,0.03148
1001.24365,0.03149
999.18348,0.03164
997.12330,0.03219
995.06313,0.03296
993.00296,0.03381
990.94279,0.03451
988.88262,0.03495
986.82244,0.03521
984.76227,0.03518
982.70210,0.03500
980.64193,0.03482
978.58176,0.03440
976.52158,0.03362
974.46141,0.03248
972.40124,0.03106
970.34107,0.02952
968.28089,0.02804
966.22072,0.02680
964.16055,0.02566
962.10038,0.02452
960.04021,0.02343
957.98003,0.02233
955.91986,0.02131
953.85969,0.02049
951.79952,0.01969
949.73935,0.01894
947.67917,0.01857
945.61900,0.01850
943.55883,0.01830
941.49866,0.01799
939.43849,0.01768
937.37831,0.01751
935.31814,0.01743
933.25797,0.01718
931.19780,0.01678
929.13762,0.01629
927.07745,0.01597
925.01728,0.01608
922.95711,0.01625
920.89694,0.01612
918.83676,0.01570
916.77659,0.01510
914.71642,0.01447
912.65625,0.01396
910.59608,0.01339
908.53590,0.01291
906.47573,0.01272
904.41556,0.01266
902.35539,0.01270
900.29522,0.01290
898.23504,0.01316
896.17487,0.01339
894.11470,0.01361
892.05453,0.01374
889.99435,0.01374
887.93418,0.01382
885.87401,0.01411
883.81384,0.01444
881.75367,0.01478
879.69349,0.01544
877.63332,0.01610
875.57315,0.01638
873.51298,0.01658
871.45281,0.01661
869.39263,0.01656
867.33246,0.01679
865.27229,0.01714
863.21212,0.01718
861.15194,0.01695
859.09177,0.01674
857.03160,0.01672
854.97143,0.01682
852.91126,0.01657
850.85108,0.01584
848.79091,0.01522
846.73074,0.01504
844.67057,0.01503
842.61040,0.01486
840.55022,0.01442
838.49005,0.01370
836.42988,0.01290
834.36971,0.01227
832.30954,0.01176
830.24936,0.01140
828.18919,0.01112
826.12902,0.01076
824.06885,0.01040
822.00867,0.01012
819.94850,0.00996
817.88833,0.00982
815.82816,0.00955
813.76799,0.00937
811.70781,0.00920
809.64764,0.00877
807.58747,0.00837
805.52730,0.00838
803.46713,0.00841
801.40695,0.00810
799.34678,0.00768
797.28661,0.00747
795.22644,0.00774
793.16627,0.00814
791.10609,0.00812
789.04592,0.00809
786.98575,0.00834
784.92558,0.00833
782.86540,0.00785
780.80523,0.00722
778.74506,0.00689
776.68489,0.00697
774.62472,0.00698
772.56454,0.00690
770.50437,0.00696
768.44420,0.00692
766.38403,0.00651
764.32386,0.00619
762.26368,0.00646
760.20351,0.00694
758.14334,0.00691
756.08317,0.00628
754.02299,0.00573
751.96282,0.00561
749.90265,0.00575
747.84248,0.00589
745.78231,0.00568
743.72213,0.00517
741.66196,0.00493
739.60179,0.00522
737.54162,0.00562
735.48145,0.00586
733.42127,0.00605
731.36110,0.00642
729.30093,0.00702
727.24076,0.00732
725.18059,0.00687
723.12041,0.00641
721.06024,0.00714
719.00007,0.00712
716.93990,0.00666
714.87972,0.00648
712.81955,0.00643
710.75938,0.00642
708.69921,0.00612
706.63904,0.00540
704.57886,0.00465
702.51869,0.00450
700.45852,0.00502
698.39835,0.00547
696.33818,0.00531
694.27800,0.00512
692.21783,0.00555
690.15766,0.00609
688.09749,0.00601
686.03731,0.00570
683.97714,0.00562
681.91697,0.00549
679.85680,0.00528
677.79663,0.00526
675.73645,0.00492
673.67628,0.00320
671.61611,0.00106
669.55594,0.00536
667.49577,0.00890
665.43559,0.00081
663.37542,0.00260
661.31525,0.00591
659.25508,0.00648
657.19491,0.00536
655.13473,0.00410
653.07456,0.00340
651.01439,0.00330
648.95422,0.00366
646.89404,0.00362
644.83387,0.00355
642.77370,0.00393
640.71353,0.00484
638.65336,0.00485
636.59318,0.00362
634.53301,0.00328
632.47284,0.00423
630.41267,0.00458
628.35250,0.00416
626.29232,0.00386
624.23215,0.00355
622.17198,0.00306
620.11181,0.00224
618.05164,0.00213
615.99146,0.00357
613.93129,0.00485
611.87112,0.00486
609.81095,0.00367
607.75077,0.00183
605.69060,0.00033
603.63043,0.00000
601.57026,0.00030
599.51009,0.00000
