3996.73391,0.00069
3994.67373,0.00044
3992.61356,0.00025
3990.55339,0.00019
3988.49322,0.00016
3986.43305,0.00005
3984.37287,0.00000
3982.31270,0.00014
3980.25253,0.00040
3978.19236,0.00063
3976.13219,0.00070
3974.07201,0.00053
3972.01184,0.00026
3969.95167,0.00009
3967.89150,0.00006
3965.83133,0.00017
3963.77115,0.00045
3961.71098,0.00083
3959.65081,0.00103
3957.59064,0.00089
3955.53046,0.00056
3953.47029,0.00034
3951.41012,0.00036
3949.34995,0.00051
3947.28978,0.00067
3945.22960,0.00071
3943.16943,0.00057
3941.10926,0.00044
3939.04909,0.00062
3936.98892,0.00088
3934.92874,0.00087
3932.86857,0.00062
3930.80840,0.00051
3928.74823,0.00066
3926.68805,0.00075
3924.62788,0.00059
3922.56771,0.00039
3920.50754,0.00045
3918.44737,0.00070
3916.38719,0.00077
3914.32702,0.00057
3912.26685,0.00036
3910.20668,0.00021
3908.14651,0.00005
3906.08633,0.00006
3904.02616,0.00036
3901.96599,0.00075
3899.90582,0.00097
3897.84565,0.00089
3895.78547,0.00072
3893.72530,0.00070
3891.66513,0.00074
3889.60496,0.00069
3887.54478,0.00068
3885.48461,0.00081
3883.42444,0.00087
3881.36427,0.00080
3879.30410,0.00075
3877.24392,0.00075
3875.18375,0.00075
3873.12358,0.00095
3871.06341,0.00157
3869.00324,0.00219
3866.94306,0.00220
3864.88289,0.00165
3862.82272,0.00101
3860.76255,0.00056
3858.70237,0.00045
3856.64220,0.00083
3854.58203,0.00139
3852.52186,0.00144
3850.46169,0.00108
3848.40151,0.00095
3846.34134,0.00100
3844.28117,0.00102
3842.22100,0.00115
3840.16083,0.00138
3838.10065,0.00119
3836.04048,0.00063
3833.98031,0.00027
3831.92014,0.00021
3829.85997,0.00022
3827.79979,0.00020
3825.73962,0.00017
3823.67945,0.00030
3821.61928,0.00066
3819.55910,0.00086
3817.49893,0.00055
3815.43876,0.00009
3813.37859,0.00002
3811.31842,0.00019
3809.25824,0.00024
3807.19807,0.00046
3805.13790,0.00113
3803.07773,0.00164
3801.01756,0.00136
3798.95738,0.00068
3796.89721,0.00033
3794.83704,0.00025
3792.77687,0.00030
3790.71670,0.00044
3788.65652,0.00055
3786.59635,0.00050
3784.53618,0.00038
3782.47601,0.00038
3780.41583,0.00048
3778.35566,0.00047
3776.29549,0.00042
3774.23532,0.00059
3772.17515,0.00084
3770.11497,0.00076
3768.05480,0.00053
3765.99463,0.00075
3763.93446,0.00115
3761.87429,0.00128
3759.81411,0.00120
3757.75394,0.00095
3755.69377,0.00073
3753.63360,0.00092
3751.57342,0.00142
3749.51325,0.00151
3747.45308,0.00119
3745.39291,0.00096
3743.33274,0.00083
3741.27256,0.00075
3739.21239,0.00070
3737.15222,0.00076
3735.09205,0.00086
3733.03188,0.00088
3730.97170,0.00099
3728.91153,0.00118
3726.85136,0.00128
3724.79119,0.00130
3722.73102,0.00120
3720.67084,0.00098
3718.61067,0.00069
3716.55050,0.00038
3714.49033,0.00007
3712.43015,0.00003
3710.36998,0.00045
3708.30981,0.00070
3706.24964,0.00055
3704.18947,0.00033
3702.12929,0.00026
3700.06912,0.00036
3698.00895,0.00043
3695.94878,0.00030
3693.88861,0.00018
3691.82843,0.00043
3689.76826,0.00090
3687.70809,0.00110
3685.64792,0.00092
3683.58775,0.00064
3681.52757,0.00048
3679.46740,0.00049
3677.40723,0.00071
3675.34706,0.00106
3673.28688,0.00116
3671.22671,0.00101
3669.16654,0.00090
3667.10637,0.00096
3665.04620,0.00115
3662.98602,0.00141
3660.92585,0.00163
3658.86568,0.00155
3656.80551,0.00120
3654.74534,0.00096
3652.68516,0.00098
3650.62499,0.00108
3648.56482,0.00129
3646.50465,0.00153
3644.44447,0.00157
3642.38430,0.00147
3640.32413,0.00157
3638.26396,0.00193
3636.20379,0.00229
3634.14361,0.00272
3632.08344,0.00330
3630.02327,0.00361
3627.96310,0.00354
3625.90293,0.00358
3623.84275,0.00391
3621.78258,0.00429
3619.72241,0.00457
3617.66224,0.00465
3615.60207,0.00455
3613.54189,0.00452
3611.48172,0.00472
3609.42155,0.00515
3607.36138,0.00542
3605.30120,0.00527
3603.24103,0.00512
3601.18086,0.00525
3599.12069,0.00550
3597.06052,0.00568
3595.00034,0.00570
3592.94017,0.00564
3590.88000,0.00571
3588.81983,0.00610
3586.75966,0.00663
3584.69948,0.00690
3582.63931,0.00690
3580.57914,0.00682
3578.51897,0.00660
3576.45879,0.00635
3574.39862,0.00642
3572.33845,0.00688
3570.27828,0.00756
3568.21811,0.00827
3566.15793,0.00853
3564.09776,0.00819
3562.03759,0.00785
3559.97742,0.00780
3557.91725,0.00789
3555.85707,0.00796
3553.79690,0.00809
3551.73673,0.00833
3549.67656,0.00862
3547.61639,0.00888
3545.55621,0.00922
3543.49604,0.00960
3541.43587,0.00978
3539.37570,0.00977
3537.31552,0.00972
3535.25535,0.00967
3533.19518,0.00972
3531.13501,0.00987
3529.07484,0.01013
3527.01466,0.01052
3524.95449,0.01097
3522.89432,0.01128
3520.83415,0.01145
3518.77398,0.01166
3516.71380,0.01176
3514.65363,0.01151
3512.59346,0.01124
3510.53329,0.01134
3508.47312,0.01155
3506.41294,0.01169
3504.35277,0.01211
3502.29260,0.01276
3500.23243,0.01308
3498.17225,0.01303
3496.11208,0.01303
3494.05191,0.01323
3491.99174,0.01349
3489.93157,0.01378
3487.87139,0.01395
3485.81122,0.01382
3483.75105,0.01362
3481.69088,0.01368
3479.63071,0.01388
3477.57053,0.01400
3475.51036,0.01407
3473.45019,0.01391
3471.39002,0.01351
3469.32984,0.01346
3467.26967,0.01401
3465.20950,0.01464
3463.14933,0.01503
3461.08916,0.01522
3459.02898,0.01518
3456.96881,0.01512
3454.90864,0.01524
3452.84847,0.01540
3450.78830,0.01540
3448.72812,0.01544
3446.66795,0.01564
3444.60778,0.01573
3442.54761,0.01568
3440.48744,0.01561
3438.42726,0.01564
3436.36709,0.01599
3434.30692,0.01642
3432.24675,0.01647
3430.18657,0.01625
3428.12640,0.01615
3426.06623,0.01618
3424.00606,0.01627
3421.94589,0.01647
3419.88571,0.01686
3417.82554,0.01726
3415.76537,0.01750
3413.70520,0.01760
3411.64503,0.01752
3409.58485,0.01730
3407.52468,0.01717
3405.46451,0.01720
3403.40434,0.01726
3401.34416,0.01736
3399.28399,0.01765
3397.22382,0.01789
3395.16365,0.01784
3393.10348,0.01766
3391.04330,0.01749
3388.98313,0.01733
3386.92296,0.01750
3384.86279,0.01798
3382.80262,0.01832
3380.74244,0.01848
3378.68227,0.01871
3376.62210,0.01886
3374.56193,0.01872
3372.50176,0.01861
3370.44158,0.01863
3368.38141,0.01861
3366.32124,0.01869
3364.26107,0.01895
3362.20089,0.01909
3360.14072,0.01905
3358.08055,0.01895
3356.02038,0.01883
3353.96021,0.01878
3351.90003,0.01886
3349.83986,0.01893
3347.77969,0.01891
3345.71952,0.01891
3343.65935,0.01897
3341.59917,0.01907
3339.53900,0.01922
3337.47883,0.01925
3335.41866,0.01921
3333.35849,0.01936
3331.29831,0.01956
3329.23814,0.01964
3327.17797,0.01969
3325.11780,0.01951
3323.05762,0.01901
3320.99745,0.01876
3318.93728,0.01909
3316.87711,0.01934
3314.81694,0.01933
3312.75676,0.01951
3310.69659,0.01986
3308.63642,0.02005
3306.57625,0.01999
3304.51608,0.01989
3302.45590,0.02002
3300.39573,0.02027
3298.33556,0.02025
3296.27539,0.01991
3294.21521,0.01960
3292.15504,0.01929
3290.09487,0.01905
3288.03470,0.01918
3285.97453,0.01944
3283.91435,0.01941
3281.85418,0.01930
3279.79401,0.01947
3277.73384,0.01969
3275.67367,0.01956
3273.61349,0.01936
3271.55332,0.01947
3269.49315,0.01965
3267.43298,0.01964
3265.37281,0.01967
3263.31263,0.01983
3261.25246,0.01991
3259.19229,0.01982
3257.13212,0.01982
3255.07194,0.01995
3253.01177,0.01987
3250.95160,0.01971
3248.89143,0.01977
3246.83126,0.01985
3244.77108,0.01989
3242.71091,0.02007
3240.65074,0.02025
3238.59057,0.02033
3236.53040,0.02029
3234.47022,0.02011
3232.41005,0.01995
3230.34988,0.01977
3228.28971,0.01960
3226.22954,0.01966
3224.16936,0.01990
3222.10919,0.02002
3220.04902,0.01986
3217.98885,0.01967
3215.92867,0.01973
3213.86850,0.01985
3211.80833,0.01983
3209.74816,0.01965
3207.68799,0.01943
3205.62781,0.01946
3203.56764,0.01961
3201.50747,0.01963
3199.44730,0.01954
3197.38713,0.01932
3195.32695,0.01903
3193.26678,0.01888
3191.20661,0.01899
3189.14644,0.01924
3187.08626,0.01952
3185.02609,0.01960
3182.96592,0.01940
3180.90575,0.01920
3178.84558,0.01912
3176.78540,0.01905
3174.72523,0.01893
3172.66506,0.01879
3170.60489,0.01883
3168.54472,0.01890
3166.48454,0.01871
3164.42437,0.01840
3162.36420,0.01826
3160.30403,0.01834
3158.24386,0.01849
3156.18368,0.01867
3154.12351,0.01888
3152.06334,0.01899
3150.00317,0.01888
3147.94299,0.01871
3145.88282,0.01865
3143.82265,0.01852
3141.76248,0.01824
3139.70231,0.01813
3137.64213,0.01798
3135.58196,0.01763
3133.52179,0.01750
3131.46162,0.01774
3129.40145,0.01795
3127.34127,0.01791
3125.28110,0.01770
3123.22093,0.01746
3121.16076,0.01737
3119.10058,0.01752
3117.04041,0.01768
3114.98024,0.01752
3112.92007,0.01717
3110.85990,0.01705
3108.79972,0.01706
3106.73955,0.01693
3104.67938,0.01668
3102.61921,0.01656
3100.55904,0.01668
3098.49886,0.01689
3096.43869,0.01693
3094.37852,0.01678
3092.31835,0.01659
3090.25818,0.01645
3088.19800,0.01643
3086.13783,0.01642
3084.07766,0.01628
3082.01749,0.01615
3079.95731,0.01601
3077.89714,0.01586
3075.83697,0.01581
3073.77680,0.01573
3071.71663,0.01563
3069.65645,0.01574
3067.59628,0.01598
3065.53611,0.01605
3063.47594,0.01583
3061.41577,0.01551
3059.35559,0.01526
3057.29542,0.01504
3055.23525,0.01475
3053.17508,0.01455
3051.11491,0.01462
3049.05473,0.01484
3046.99456,0.01495
3044.93439,0.01484
3042.87422,0.01458
3040.81404,0.01428
3038.75387,0.01407
3036.69370,0.01408
3034.63353,0.01438
3032.57336,0.01458
3030.51318,0.01442
3028.45301,0.01414
3026.39284,0.01404
3024.33267,0.01406
3022.27250,0.01406
3020.21232,0.01400
3018.15215,0.01386
3016.09198,0.01368
3014.03181,0.01363
3011.97163,0.01369
3009.91146,0.01372
3007.85129,0.01358
3005.79112,0.01333
3003.73095,0.01319
3001.67077,0.01326
2999.61060,0.01338
2997.55043,0.01329
2995.49026,0.01311
2993.43009,0.01301
2991.36991,0.01284
2989.30974,0.01270
2987.24957,0.01260
2985.18940,0.01237
2983.12923,0.01223
2981.06905,0.01239
2979.00888,0.01271
2976.94871,0.01296
2974.88854,0.01299
2972.82836,0.01284
2970.76819,0.01262
2968.70802,0.01243
2966.64785,0.01237
2964.58768,0.01242
2962.52750,0.01251
2960.46733,0.01257
2958.40716,0.01245
2956.34699,0.01224
2954.28682,0.01217
2952.22664,0.01240
2950.16647,0.01278
2948.10630,0.01280
2946.04613,0.01234
2943.98596,0.01198
2941.92578,0.01197
2939.86561,0.01209
2937.80544,0.01218
2935.74527,0.01225
2933.68509,0.01229
2931.62492,0.01237
2929.56475,0.01255
2927.50458,0.01262
2925.44441,0.01249
2923.38423,0.01229
2921.32406,0.01212
2919.26389,0.01202
2917.20372,0.01193
2915.14355,0.01180
2913.08337,0.01164
2911.02320,0.01160
2908.96303,0.01168
2906.90286,0.01178
2904.84268,0.01192
2902.78251,0.01204
2900.72234,0.01196
2898.66217,0.01182
2896.60200,0.01185
2894.54182,0.01193
2892.48165,0.01186
2890.42148,0.01169
2888.36131,0.01162
2886.30114,0.01159
2884.24096,0.01148
2882.18079,0.01154
2880.12062,0.01177
2878.06045,0.01171
2876.00028,0.01143
2873.94010,0.01133
2871.87993,0.01144
2869.81976,0.01148
2867.75959,0.01128
2865.69941,0.01101
2863.63924,0.01086
2861.57907,0.01083
2859.51890,0.01088
2857.45873,0.01088
2855.39855,0.01082
2853.33838,0.01084
2851.27821,0.01092
2849.21804,0.01094
2847.15787,0.01083
2845.09769,0.01074
2843.03752,0.01078
2840.97735,0.01079
2838.91718,0.01066
2836.85700,0.01049
2834.79683,0.01031
2832.73666,0.01012
2830.67649,0.01002
2828.61632,0.00992
2826.55614,0.00987
2824.49597,0.01002
2822.43580,0.01025
2820.37563,0.01033
2818.31546,0.01037
2816.25528,0.01036
2814.19511,0.01019
2812.13494,0.01004
2810.07477,0.00990
2808.01460,0.00968
2805.95442,0.00956
2803.89425,0.00968
2801.83408,0.00986
2799.77391,0.00988
2797.71373,0.00983
2795.65356,0.00980
2793.59339,0.00969
2791.53322,0.00958
2789.47305,0.00957
2787.41287,0.00956
2785.35270,0.00952
2783.29253,0.00957
2781.23236,0.00958
2779.17219,0.00947
2777.11201,0.00940
2775.05184,0.00934
2772.99167,0.00925
2770.93150,0.00917
2768.87133,0.00908
2766.81115,0.00902
2764.75098,0.00900
2762.69081,0.00904
2760.63064,0.00905
2758.57046,0.00896
2756.51029,0.00879
2754.45012,0.00854
2752.38995,0.00839
2750.32978,0.00847
2748.26960,0.00857
2746.20943,0.00855
2744.14926,0.00846
2742.08909,0.00843
2740.02892,0.00838
2737.96874,0.00824
2735.90857,0.00822
2733.84840,0.00837
2731.78823,0.00843
2729.72805,0.00833
2727.66788,0.00814
2725.60771,0.00788
2723.54754,0.00773
2721.48737,0.00782
2719.42719,0.00799
2717.36702,0.00816
2715.30685,0.00836
2713.24668,0.00847
2711.18651,0.00839
2709.12633,0.00822
2707.06616,0.00809
2705.00599,0.00800
2702.94582,0.00781
2700.88565,0.00759
2698.82547,0.00749
2696.76530,0.00756
2694.70513,0.00763
2692.64496,0.00757
2690.58478,0.00750
2688.52461,0.00747
2686.46444,0.00751
2684.40427,0.00763
2682.34410,0.00769
2680.28392,0.00762
2678.22375,0.00744
2676.16358,0.00731
2674.10341,0.00732
2672.04324,0.00720
2669.98306,0.00707
2667.92289,0.00711
2665.86272,0.00714
2663.80255,0.00710
2661.74238,0.00716
2659.68220,0.00735
2657.62203,0.00741
2655.56186,0.00716
2653.50169,0.00681
2651.44151,0.00671
2649.38134,0.00685
2647.32117,0.00704
2645.26100,0.00716
2643.20083,0.00706
2641.14065,0.00677
2639.08048,0.00649
2637.02031,0.00642
2634.96014,0.00649
2632.89997,0.00651
2630.83979,0.00640
2628.77962,0.00622
2626.71945,0.00615
2624.65928,0.00618
2622.59910,0.00620
2620.53893,0.00631
2618.47876,0.00650
2616.41859,0.00648
2614.35842,0.00630
2612.29824,0.00625
2610.23807,0.00634
2608.17790,0.00637
2606.11773,0.00634
2604.05756,0.00637
2601.99738,0.00638
2599.93721,0.00631
2597.87704,0.00631
2595.81687,0.00622
2593.75670,0.00598
2591.69652,0.00580
2589.63635,0.00576
2587.57618,0.00587
2585.51601,0.00584
2583.45583,0.00564
2581.39566,0.00569
2579.33549,0.00587
2577.27532,0.00587
2575.21515,0.00581
2573.15497,0.00583
2571.09480,0.00583
2569.03463,0.00575
2566.97446,0.00583
2564.91429,0.00599
2562.85411,0.00609
2560.79394,0.00620
2558.73377,0.00604
2556.67360,0.00560
2554.61342,0.00547
2552.55325,0.00567
2550.49308,0.00577
2548.43291,0.00571
2546.37274,0.00559
2544.31256,0.00561
2542.25239,0.00585
2540.19222,0.00602
2538.13205,0.00594
2536.07188,0.00578
2534.01170,0.00590
2531.95153,0.00609
2529.89136,0.00601
2527.83119,0.00586
2525.77102,0.00569
2523.71084,0.00548
2521.65067,0.00523
2519.59050,0.00512
2517.53033,0.00529
2515.47015,0.00548
2513.40998,0.00555
2511.34981,0.00555
2509.28964,0.00559
2507.22947,0.00585
2505.16929,0.00601
2503.10912,0.00578
2501.04895,0.00553
2498.98878,0.00540
2496.92861,0.00525
2494.86843,0.00541
2492.80826,0.00595
2490.74809,0.00643
2488.68792,0.00665
2486.62775,0.00669
2484.56757,0.00674
2482.50740,0.00674
2480.44723,0.00668
2478.38706,0.00662
2476.32688,0.00652
2474.26671,0.00633
2472.20654,0.00617
2470.14637,0.00617
2468.08620,0.00615
2466.02602,0.00619
2463.96585,0.00650
2461.90568,0.00683
2459.84551,0.00680
2457.78534,0.00634
2455.72516,0.00598
2453.66499,0.00620
2451.60482,0.00664
2449.54465,0.00694
2447.48447,0.00702
2445.42430,0.00676
2443.36413,0.00645
2441.30396,0.00646
2439.24379,0.00643
2437.18361,0.00628
2435.12344,0.00628
2433.06327,0.00632
2431.00310,0.00631
2428.94293,0.00642
2426.88275,0.00655
2424.82258,0.00645
2422.76241,0.00622
2420.70224,0.00632
2418.64207,0.00657
2416.58189,0.00646
2414.52172,0.00629
2412.46155,0.00630
2410.40138,0.00629
2408.34120,0.00615
2406.28103,0.00608
2404.22086,0.00621
2402.16069,0.00648
2400.10052,0.00666
2398.04034,0.00636
2395.98017,0.00608
2393.92000,0.00591
2391.85983,0.00587
2389.79966,0.00598
2387.73948,0.00619
2385.67931,0.00636
2383.61914,0.00648
2381.55897,0.00656
2379.49880,0.00656
2377.43862,0.00665
2375.37845,0.00716
2373.31828,0.00800
2371.25811,0.00858
2369.19793,0.00842
2367.13776,0.00709
2365.07759,0.00553
2363.01742,0.00577
2360.95725,0.00727
2358.89707,0.00833
2356.83690,0.00881
2354.77673,0.00854
2352.71656,0.00778
2350.65639,0.00737
2348.59621,0.00714
2346.53604,0.00658
2344.47587,0.00572
2342.41570,0.00501
2340.35552,0.00487
2338.29535,0.00524
2336.23518,0.00567
2334.17501,0.00600
2332.11484,0.00644
2330.05466,0.00704
2327.99449,0.00739
2325.93432,0.00730
2323.87415,0.00696
2321.81398,0.00664
2319.75380,0.00667
2317.69363,0.00696
2315.63346,0.00709
2313.57329,0.00695
2311.51312,0.00678
2309.45294,0.00668
2307.39277,0.00656
2305.33260,0.00642
2303.27243,0.00647
2301.21225,0.00675
2299.15208,0.00688
2297.09191,0.00671
2295.03174,0.00648
2292.97157,0.00640
2290.91139,0.00639
2288.85122,0.00625
2286.79105,0.00612
2284.73088,0.00630
2282.67071,0.00638
2280.61053,0.00601
2278.55036,0.00573
2276.49019,0.00598
2274.43002,0.00654
2272.36984,0.00705
2270.30967,0.00727
2268.24950,0.00703
2266.18933,0.00653
2264.12916,0.00606
2262.06898,0.00582
2260.00881,0.00599
2257.94864,0.00645
2255.88847,0.00666
2253.82830,0.00624
2251.76812,0.00554
2249.70795,0.00540
2247.64778,0.00584
2245.58761,0.00572
2243.52744,0.00541
2241.46726,0.00562
2239.40709,0.00571
2237.34692,0.00564
2235.28675,0.00608
2233.22657,0.00645
2231.16640,0.00620
2229.10623,0.00584
2227.04606,0.00541
2224.98589,0.00520
2222.92571,0.00537
2220.86554,0.00507
2218.80537,0.00446
2216.74520,0.00461
2214.68503,0.00490
2212.62485,0.00417
2210.56468,0.00338
2208.50451,0.00348
2206.44434,0.00389
2204.38417,0.00426
2202.32399,0.00447
2200.26382,0.00453
2198.20365,0.00489
2196.14348,0.00535
2194.08330,0.00535
2192.02313,0.00506
2189.96296,0.00456
2187.90279,0.00421
2185.84262,0.00442
2183.78244,0.00461
2181.72227,0.00486
2179.66210,0.00514
2177.60193,0.00530
2175.54176,0.00592
2173.48158,0.00603
2171.42141,0.00503
2169.36124,0.00461
2167.30107,0.00528
2165.24089,0.00524
2163.18072,0.00363
2161.12055,0.00248
2159.06038,0.00304
2157.00021,0.00395
2154.94003,0.00444
2152.87986,0.00448
2150.81969,0.00418
2148.75952,0.00386
2146.69935,0.00378
2144.63917,0.00402
2142.57900,0.00393
2140.51883,0.00342
2138.45866,0.00354
2136.39849,0.00406
2134.33831,0.00410
2132.27814,0.00429
2130.21797,0.00490
2128.15780,0.00514
2126.09762,0.00483
2124.03745,0.00462
2121.97728,0.00452
2119.91711,0.00429
2117.85694,0.00398
2115.79676,0.00351
2113.73659,0.00325
2111.67642,0.00382
2109.61625,0.00484
2107.55608,0.00528
2105.49590,0.00494
2103.43573,0.00449
2101.37556,0.00405
2099.31539,0.00329
2097.25521,0.00293
2095.19504,0.00359
2093.13487,0.00401
2091.07470,0.00355
2089.01453,0.00359
2086.95435,0.00431
2084.89418,0.00476
2082.83401,0.00483
2080.77384,0.00476
2078.71367,0.00488
2076.65349,0.00507
2074.59332,0.00478
2072.53315,0.00414
2070.47298,0.00374
2068.41281,0.00385
2066.35263,0.00436
2064.29246,0.00473
2062.23229,0.00441
2060.17212,0.00383
2058.11194,0.00388
2056.05177,0.00462
2053.99160,0.00537
2051.93143,0.00542
2049.87126,0.00440
2047.81108,0.00325
2045.75091,0.00360
2043.69074,0.00476
2041.63057,0.00483
2039.57040,0.00399
2037.51022,0.00367
2035.45005,0.00335
2033.38988,0.00178
2031.32971,0.00022
2029.26954,0.00020
2027.20936,0.00114
2025.14919,0.00240
2023.08902,0.00401
2021.02885,0.00522
2018.96867,0.00500
2016.90850,0.00340
2014.84833,0.00205
2012.78816,0.00236
2010.72799,0.00352
2008.66781,0.00415
2006.60764,0.00396
2004.54747,0.00333
2002.48730,0.00291
2000.42713,0.00261
1998.36695,0.00214
1996.30678,0.00183
1994.24661,0.00202
1992.18644,0.00235
1990.12626,0.00262
1988.06609,0.00310
1986.00592,0.00362
1983.94575,0.00411
1981.88558,0.00477
1979.82540,0.00509
1977.76523,0.00439
1975.70506,0.00331
1973.64489,0.00268
1971.58472,0.00260
1969.52454,0.00264
1967.46437,0.00237
1965.40420,0.00254
1963.34403,0.00319
1961.28386,0.00295
1959.22368,0.00227
1957.16351,0.00238
1955.10334,0.00249
1953.04317,0.00211
1950.98299,0.00206
1948.92282,0.00270
1946.86265,0.00355
1944.80248,0.00401
1942.74231,0.00407
1940.68213,0.00392
1938.62196,0.00374
1936.56179,0.00364
1934.50162,0.00358
1932.44145,0.00309
1930.38127,0.00218
1928.32110,0.00184
1926.26093,0.00233
1924.20076,0.00267
1922.14059,0.00249
1920.08041,0.00214
1918.02024,0.00201
1915.96007,0.00241
1913.89990,0.00304
1911.83972,0.00307
1909.77955,0.00241
1907.71938,0.00197
1905.65921,0.00199
1903.59904,0.00193
1901.53886,0.00171
1899.47869,0.00177
1897.41852,0.00241
1895.35835,0.00319
1893.29818,0.00342
1891.23800,0.00304
1889.17783,0.00255
1887.11766,0.00243
1885.05749,0.00268
1882.99731,0.00296
1880.93714,0.00311
1878.87697,0.00306
1876.81680,0.00278
1874.75663,0.00257
1872.69645,0.00256
1870.63628,0.00245
1868.57611,0.00218
1866.51594,0.00206
1864.45577,0.00213
1862.39559,0.00226
1860.33542,0.00247
1858.27525,0.00276
1856.21508,0.00294
1854.15491,0.00296
1852.09473,0.00295
1850.03456,0.00302
1847.97439,0.00314
1845.91422,0.00340
1843.85404,0.00371
1841.79387,0.00366
1839.73370,0.00334
1837.67353,0.00319
1835.61336,0.00331
1833.55318,0.00355
1831.49301,0.00379
1829.43284,0.00382
1827.37267,0.00349
1825.31250,0.00299
1823.25232,0.00264
1821.19215,0.00257
1819.13198,0.00270
1817.07181,0.00292
1815.01163,0.00321
1812.95146,0.00340
1810.89129,0.00328
1808.83112,0.00296
1806.77095,0.00276
1804.71077,0.00289
1802.65060,0.00319
1800.59043,0.00324
1798.53026,0.00308
1796.47009,0.00304
1794.40991,0.00313
1792.34974,0.00309
1790.28957,0.00284
1788.22940,0.00266
1786.16923,0.00272
1784.10905,0.00284
1782.04888,0.00275
1779.98871,0.00267
1777.92854,0.00298
1775.86836,0.00352
1773.80819,0.00382
1771.74802,0.00369
1769.68785,0.00345
1767.62768,0.00339
1765.56750,0.00344
1763.50733,0.00352
1761.44716,0.00356
1759.38699,0.00354
1757.32682,0.00347
1755.26664,0.00329
1753.20647,0.00325
1751.14630,0.00366
1749.08613,0.00422
1747.02596,0.00431
1744.96578,0.00400
1742.90561,0.00373
1740.84544,0.00372
1738.78527,0.00394
1736.72509,0.00433
1734.66492,0.00477
1732.60475,0.00491
1730.54458,0.00466
1728.48441,0.00431
1726.42423,0.00404
1724.36406,0.00394
1722.30389,0.00398
1720.24372,0.00416
1718.18355,0.00460
1716.12337,0.00511
1714.06320,0.00525
1712.00303,0.00504
1709.94286,0.00468
1707.88268,0.00448
1705.82251,0.00465
1703.76234,0.00491
1701.70217,0.00502
1699.64200,0.00518
1697.58182,0.00553
1695.52165,0.00591
1693.46148,0.00605
1691.40131,0.00598
1689.34114,0.00587
1687.28096,0.00590
1685.22079,0.00633
1683.16062,0.00704
1681.10045,0.00736
1679.04028,0.00739
1676.98010,0.00748
1674.91993,0.00756
1672.85976,0.00764
1670.79959,0.00785
1668.73941,0.00795
1666.67924,0.00761
1664.61907,0.00725
1662.55890,0.00732
1660.49873,0.00766
1658.43855,0.00788
1656.37838,0.00790
1654.31821,0.00786
1652.25804,0.00795
1650.19787,0.00802
1648.13769,0.00821
1646.07752,0.00864
1644.01735,0.00880
1641.95718,0.00866
1639.89701,0.00861
1637.83683,0.00878
1635.77666,0.00891
1633.71649,0.00864
1631.65632,0.00822
1629.59614,0.00799
1627.53597,0.00788
1625.47580,0.00785
1623.41563,0.00801
1621.35546,0.00814
1619.29528,0.00807
1617.23511,0.00802
1615.17494,0.00807
1613.11477,0.00804
1611.05460,0.00787
1608.99442,0.00760
1606.93425,0.00730
1604.87408,0.00712
1602.81391,0.00704
1600.75373,0.00699
1598.69356,0.00691
1596.63339,0.00671
1594.57322,0.00644
1592.51305,0.00628
1590.45287,0.00622
1588.39270,0.00619
1586.33253,0.00611
1584.27236,0.00586
1582.21219,0.00540
1580.15201,0.00482
1578.09184,0.00437
1576.03167,0.00432
1573.97150,0.00455
1571.91133,0.00466
1569.85115,0.00458
1567.79098,0.00435
1565.73081,0.00407
1563.67064,0.00384
1561.61046,0.00374
1559.55029,0.00385
1557.49012,0.00401
1555.42995,0.00390
1553.36978,0.00368
1551.30960,0.00349
1549.24943,0.00331
1547.18926,0.00316
1545.12909,0.00318
1543.06892,0.00338
1541.00874,0.00347
1538.94857,0.00326
1536.88840,0.00294
1534.82823,0.00270
1532.76805,0.00255
1530.70788,0.00257
1528.64771,0.00277
1526.58754,0.00301
1524.52737,0.00310
1522.46719,0.00307
1520.40702,0.00287
1518.34685,0.00254
1516.28668,0.00237
1514.22651,0.00241
1512.16633,0.00245
1510.10616,0.00243
1508.04599,0.00247
1505.98582,0.00256
1503.92565,0.00234
1501.86547,0.00187
1499.80530,0.00150
1497.74513,0.00131
1495.68496,0.00123
1493.62478,0.00135
1491.56461,0.00168
1489.50444,0.00192
1487.44427,0.00176
1485.38410,0.00144
1483.32392,0.00130
1481.26375,0.00134
1479.20358,0.00139
1477.14341,0.00145
1475.08324,0.00162
1473.02306,0.00187
1470.96289,0.00203
1468.90272,0.00214
1466.84255,0.00229
1464.78238,0.00236
1462.72220,0.00222
1460.66203,0.00215
1458.60186,0.00257
1456.54169,0.00319
1454.48151,0.00322
1452.42134,0.00283
1450.36117,0.00240
1448.30100,0.00206
1446.24083,0.00184
1444.18065,0.00175
1442.12048,0.00179
1440.06031,0.00195
1438.00014,0.00219
1435.93997,0.00241
1433.87979,0.00252
1431.81962,0.00260
1429.75945,0.00264
1427.69928,0.00266
1425.63910,0.00271
1423.57893,0.00281
1421.51876,0.00293
1419.45859,0.00318
1417.39842,0.00339
1415.33824,0.00328
1413.27807,0.00304
1411.21790,0.00295
1409.15773,0.00292
1407.09756,0.00280
1405.03738,0.00273
1402.97721,0.00278
1400.91704,0.00292
1398.85687,0.00305
1396.79670,0.00314
1394.73652,0.00312
1392.67635,0.00294
1390.61618,0.00268
1388.55601,0.00257
1386.49583,0.00264
1384.43566,0.00273
1382.37549,0.00279
1380.31532,0.00281
1378.25515,0.00287
1376.19497,0.00306
1374.13480,0.00319
1372.07463,0.00302
1370.01446,0.00273
1367.95429,0.00256
1365.89411,0.00255
1363.83394,0.00262
1361.77377,0.00269
1359.71360,0.00266
1357.65343,0.00262
1355.59325,0.00258
1353.53308,0.00245
1351.47291,0.00225
1349.41274,0.00210
1347.35256,0.00206
1345.29239,0.00206
1343.23222,0.00213
1341.17205,0.00234
1339.11188,0.00255
1337.05170,0.00249
1334.99153,0.00227
1332.93136,0.00208
1330.87119,0.00195
1328.81102,0.00190
1326.75084,0.00189
1324.69067,0.00172
1322.63050,0.00142
1320.57033,0.00133
1318.51015,0.00151
1316.44998,0.00168
1314.38981,0.00175
1312.32964,0.00173
1310.26947,0.00168
1308.20929,0.00175
1306.14912,0.00188
1304.08895,0.00191
1302.02878,0.00185
1299.96861,0.00174
1297.90843,0.00164
1295.84826,0.00164
1293.78809,0.00171
1291.72792,0.00174
1289.66775,0.00179
1287.60757,0.00186
1285.54740,0.00179
1283.48723,0.00166
1281.42706,0.00164
1279.36688,0.00174
1277.30671,0.00192
1275.24654,0.00204
1273.18637,0.00208
1271.12620,0.00204
1269.06602,0.00201
1267.00585,0.00200
1264.94568,0.00192
1262.88551,0.00182
1260.82534,0.00181
1258.76516,0.00192
1256.70499,0.00206
1254.64482,0.00220
1252.58465,0.00231
1250.52447,0.00228
1248.46430,0.00210
1246.40413,0.00195
1244.34396,0.00187
1242.28379,0.00180
1240.22361,0.00164
1238.16344,0.00143
1236.10327,0.00127
1234.04310,0.00120
1231.98293,0.00116
1229.92275,0.00112
1227.86258,0.00103
1225.80241,0.00097
1223.74224,0.00101
1221.68207,0.00110
1219.62189,0.00115
1217.56172,0.00111
1215.50155,0.00090
1213.44138,0.00058
1211.38120,0.00042
1209.32103,0.00046
1207.26086,0.00041
1205.20069,0.00031
1203.14052,0.00033
1201.08034,0.00045
1199.02017,0.00059
1196.96000,0.00059
1194.89983,0.00052
1192.83966,0.00065
1190.77948,0.00093
1188.71931,0.00121
1186.65914,0.00157
1184.59897,0.00194
1182.53880,0.00223
1180.47862,0.00261
1178.41845,0.00321
1176.35828,0.00389
1174.29811,0.00443
1172.23793,0.00476
1170.17776,0.00507
1168.11759,0.00562
1166.05742,0.00637
1163.99725,0.00712
1161.93707,0.00770
1159.87690,0.00813
1157.81673,0.00862
1155.75656,0.00915
1153.69639,0.00964
1151.63621,0.01021
1149.57604,0.01074
1147.51587,0.01111
1145.45570,0.01152
1143.39552,0.01196
1141.33535,0.01228
1139.27518,0.01261
1137.21501,0.01290
1135.15484,0.01309
1133.09466,0.01346
1131.03449,0.01405
1128.97432,0.01445
1126.91415,0.01470
1124.85398,0.01509
1122.79380,0.01551
1120.73363,0.01588
1118.67346,0.01630
1116.61329,0.01669
1114.55312,0.01707
1112.49294,0.01759
1110.43277,0.01822
1108.37260,0.01888
1106.31243,0.01944
1104.25225,0.01979
1102.19208,0.02011
1100.13191,0.02056
1098.07174,0.02121
1096.01157,0.02201
1093.95139,0.02266
1091.89122,0.02316
1089.83105,0.02376
1087.77088,0.02431
1085.71071,0.02461
1083.65053,0.02497
1081.59036,0.02547
1079.53019,0.02591
1077.47002,0.02632
1075.40985,0.02673
1073.34967,0.02702
1071.28950,0.02729
1069.22933,0.02770
1067.16916,0.02803
1065.10898,0.02793
1063.04881,0.02755
1060.98864,0.02718
1058.92847,0.02686
1056.86830,0.02682
1054.80812,0.02700
1052.74795,0.02697
1050.68778,0.02660
1048.62761,0.02601
1046.56744,0.02544
1044.50726,0.02508
1042.44709,0.02476
1040.38692,0.02429
1038.32675,0.02373
1036.26657,0.02319
1034.20640,0.02275
1032.14623,0.02246
1030.08606,0.02210
1028.02589,0.02155
1025.96571,0.02103
1023.90554,0.02062
1021.84537,0.02026
1019.78520,0.01987
1017.72503,0.01939
1015.66485,0.01883
1013.60468,0.01824
1011.54451,0.01771
1009.48434,0.01742
1007.42417,0.01737
1005.36399,0.01746
1003.30382,0.01755
1001.24365,0.01748
999.18348,0.01728
997.12330,0.01735
995.06313,0.01796
993.00296,0.01874
990.94279,0.01916
988.88262,0.01916
986.82244,0.01915
984.76227,0.01932
982.70210,0.01941
980.64193,0.01916
978.58176,0.01874
976.52158,0.01844
974.46141,0.01807
972.40124,0.01747
970.34107,0.01683
968.28089,0.01625
966.22072,0.01572
964.16055,0.01512
962.10038,0.01461
960.04021,0.01444
957.98003,0.01418
955.91986,0.01357
953.85969,0.01308
951.79952,0.01275
949.73935,0.01244
947.67917,0.01226
945.61900,0.01206
943.55883,0.01185
941.49866,0.01181
939.43849,0.01188
937.37831,0.01200
935.31814,0.01205
933.25797,0.01184
931.19780,0.01153
929.13762,0.01125
927.07745,0.01091
925.01728,0.01061
922.95711,0.01024
920.89694,0.00965
918.83676,0.00918
916.77659,0.00886
914.71642,0.00856
912.65625,0.00833
910.59608,0.00798
908.53590,0.00770
906.47573,0.00774
904.41556,0.00764
902.35539,0.00723
900.29522,0.00719
898.23504,0.00739
896.17487,0.00712
894.11470,0.00686
892.05453,0.00710
889.99435,0.00744
887.93418,0.00762
885.87401,0.00773
883.81384,0.00784
881.75367,0.00818
879.69349,0.00858
877.63332,0.00876
875.57315,0.00897
873.51298,0.00944
871.45281,0.00982
869.39263,0.00993
867.33246,0.00994
865.27229,0.01012
863.21212,0.01052
861.15194,0.01091
859.09177,0.01108
857.03160,0.01102
854.97143,0.01095
852.91126,0.01077
850.85108,0.01042
848.79091,0.01024
846.73074,0.01011
844.67057,0.00979
842.61040,0.00940
840.55022,0.00905
838.49005,0.00870
836.42988,0.00851
834.36971,0.00850
832.30954,0.00799
830.24936,0.00708
828.18919,0.00638
826.12902,0.00593
824.06885,0.00582
822.00867,0.00592
819.94850,0.00562
817.88833,0.00508
815.82816,0.00502
813.76799,0.00535
811.70781,0.00524
809.64764,0.00447
807.58747,0.00399
805.52730,0.00433
803.46713,0.00461
801.40695,0.00434
799.34678,0.00407
797.28661,0.00398
795.22644,0.00388
793.16627,0.00383
791.10609,0.00375
789.04592,0.00364
786.98575,0.00376
784.92558,0.00391
782.86540,0.00351
780.80523,0.00305
778.74506,0.00328
776.68489,0.00342
774.62472,0.00325
772.56454,0.00331
770.50437,0.00335
768.44420,0.00312
766.38403,0.00259
764.32386,0.00224
762.26368,0.00262
760.20351,0.00315
758.14334,0.00318
756.08317,0.00301
754.02299,0.00312
751.96282,0.00325
749.90265,0.00319
747.84248,0.00300
745.78231,0.00272
743.72213,0.00247
741.66196,0.00226
739.60179,0.00226
737.54162,0.00222
735.48145,0.00178
733.42127,0.00146
731.36110,0.00146
729.30093,0.00182
727.24076,0.00261
725.18059,0.00315
723.12041,0.00309
721.06024,0.00245
719.00007,0.00196
716.93990,0.00189
714.87972,0.00211
712.81955,0.00239
710.75938,0.00250
708.69921,0.00287
706.63904,0.00345
704.57886,0.00334
702.51869,0.00295
700.45852,0.00324
698.39835,0.00364
696.33818,0.00344
694.27800,0.00320
692.21783,0.00307
690.15766,0.00273
688.09749,0.00275
686.03731,0.00342
683.97714,0.00396
681.91697,0.00392
679.85680,0.00383
677.79663,0.00408
675.73645,0.00433
673.67628,0.00381
671.61611,0.00221
669.55594,0.00059
667.49577,0.00043
665.43559,0.00084
663.37542,0.00134
661.31525,0.00215
659.25508,0.00295
657.19491,0.00302
655.13473,0.00277
653.07456,0.00283
651.01439,0.00307
648.95422,0.00297
646.89404,0.00252
644.83387,0.00232
642.77370,0.00280
640.71353,0.00400
638.65336,0.00537
636.59318,0.00609
634.53301,0.00595
632.47284,0.00509
630.41267,0.00385
628.35250,0.00324
626.29232,0.00372
624.23215,0.00363
622.17198,0.00315
620.11181,0.00381
618.05164,0.00455
615.99146,0.00435
613.93129,0.00384
611.87112,0.00353
609.81095,0.00282
607.75077,0.00130
605.69060,0.00038
603.63043,0.00000
601.57026,0.00102
599.51009,0.00000
