3996.73391,0.00048
3994.67373,0.00038
3992.61356,0.00035
3990.55339,0.00034
3988.49322,0.00022
3986.43305,0.00017
3984.37287,0.00030
3982.31270,0.00042
3980.25253,0.00034
3978.19236,0.00015
3976.13219,0.00015
3974.07201,0.00033
3972.01184,0.00033
3969.95167,0.00008
3967.89150,0.00000
3965.83133,0.00023
3963.77115,0.00044
3961.71098,0.00054
3959.65081,0.00060
3957.59064,0.00057
3955.53046,0.00045
3953.47029,0.00042
3951.41012,0.00064
3949.34995,0.00080
3947.28978,0.00052
3945.22960,0.00007
3943.16943,0.00000
3941.10926,0.00039
3939.04909,0.00075
3936.98892,0.00077
3934.92874,0.00057
3932.86857,0.00045
3930.80840,0.00051
3928.74823,0.00073
3926.68805,0.00094
3924.62788,0.00092
3922.56771,0.00082
3920.50754,0.00085
3918.44737,0.00088
3916.38719,0.00083
3914.32702,0.00078
3912.26685,0.00081
3910.20668,0.00090
3908.14651,0.00085
3906.08633,0.00059
3904.02616,0.00020
3901.96599,0.00000
3899.90582,0.00033
3897.84565,0.00084
3895.78547,0.00088
3893.72530,0.00055
3891.66513,0.00049
3889.60496,0.00083
3887.54478,0.00104
3885.48461,0.00109
3883.42444,0.00135
3881.36427,0.00175
3879.30410,0.00197
3877.24392,0.00195
3875.18375,0.00185
3873.12358,0.00177
3871.06341,0.00149
3869.00324,0.00107
3866.94306,0.00101
3864.88289,0.00135
3862.82272,0.00157
3860.76255,0.00140
3858.70237,0.00115
3856.64220,0.00102
3854.58203,0.00091
3852.52186,0.00088
3850.46169,0.00109
3848.40151,0.00124
3846.34134,0.00108
3844.28117,0.00075
3842.22100,0.00071
3840.16083,0.00126
3838.10065,0.00195
3836.04048,0.00209
3833.98031,0.00171
3831.92014,0.00119
3829.85997,0.00081
3827.79979,0.00093
3825.73962,0.00145
3823.67945,0.00184
3821.61928,0.00190
3819.55910,0.00183
3817.49893,0.00196
3815.43876,0.00225
3813.37859,0.00212
3811.31842,0.00145
3809.25824,0.00084
3807.19807,0.00086
3805.13790,0.00138
3803.07773,0.00178
3801.01756,0.00174
3798.95738,0.00150
3796.89721,0.00134
3794.83704,0.00135
3792.77687,0.00159
3790.71670,0.00207
3788.65652,0.00237
3786.59635,0.00217
3784.53618,0.00201
3782.47601,0.00230
3780.41583,0.00254
3778.35566,0.00236
3776.29549,0.00207
3774.23532,0.00187
3772.17515,0.00175
3770.11497,0.00164
3768.05480,0.00140
3765.99463,0.00120
3763.93446,0.00142
3761.87429,0.00198
3759.81411,0.00227
3757.75394,0.00201
3755.69377,0.00159
3753.63360,0.00149
3751.57342,0.00162
3749.51325,0.00159
3747.45308,0.00166
3745.39291,0.00195
3743.33274,0.00212
3741.27256,0.00218
3739.21239,0.00234
3737.15222,0.00258
3735.09205,0.00257
3733.03188,0.00207
3730.97170,0.00179
3728.91153,0.00214
3726.85136,0.00254
3724.79119,0.00248
3722.73102,0.00214
3720.67084,0.00195
3718.61067,0.00206
3716.55050,0.00232
3714.49033,0.00220
3712.43015,0.00157
3710.36998,0.00097
3708.30981,0.00082
3706.24964,0.00112
3704.18947,0.00154
3702.12929,0.00186
3700.06912,0.00204
3698.00895,0.00208
3695.94878,0.00207
3693.88861,0.00204
3691.82843,0.00199
3689.76826,0.00183
3687.70809,0.00175
3685.64792,0.00200
3683.58775,0.00221
3681.52757,0.00198
3679.46740,0.00170
3677.40723,0.00185
3675.34706,0.00236
3673.28688,0.00289
3671.22671,0.00333
3669.16654,0.00349
3667.10637,0.00335
3665.04620,0.00321
3662.98602,0.00310
3660.92585,0.00297
3658.86568,0.00278
3656.80551,0.00269
3654.74534,0.00310
3652.68516,0.00404
3650.62499,0.00489
3648.56482,0.00492
3646.50465,0.00455
3644.44447,0.00487
3642.38430,0.00584
3640.32413,0.00673
3638.26396,0.00704
3636.20379,0.00692
3634.14361,0.00670
3632.08344,0.00667
3630.02327,0.00725
3627.96310,0.00839
3625.90293,0.00899
3623.84275,0.00865
3621.78258,0.00808
3619.72241,0.00836
3617.66224,0.00948
3615.60207,0.01002
3613.54189,0.00947
3611.48172,0.00879
3609.42155,0.00911
3607.36138,0.01031
3605.30120,0.01147
3603.24103,0.01186
3601.18086,0.01142
3599.12069,0.01099
3597.06052,0.01118
3595.00034,0.01193
3592.94017,0.01279
3590.88000,0.01324
3588.81983,0.01336
3586.75966,0.01386
3584.69948,0.01462
3582.63931,0.01507
3580.57914,0.01525
3578.51897,0.01545
3576.45879,0.01578
3574.39862,0.01609
3572.33845,0.01615
3570.27828,0.01621
3568.21811,0.01673
3566.15793,0.01758
3564.09776,0.01808
3562.03759,0.01818
3559.97742,0.01843
3557.91725,0.01896
3555.85707,0.01942
3553.79690,0.01971
3551.73673,0.01993
3549.67656,0.02009
3547.61639,0.02030
3545.55621,0.02078
3543.49604,0.02143
3541.43587,0.02181
3539.37570,0.02177
3537.31552,0.02160
3535.25535,0.02162
3533.19518,0.02192
3531.13501,0.02234
3529.07484,0.02270
3527.01466,0.02303
3524.95449,0.02374
3522.89432,0.02478
3520.83415,0.02541
3518.77398,0.02546
3516.71380,0.02541
3514.65363,0.02557
3512.59346,0.02609
3510.53329,0.02676
3508.47312,0.02723
3506.41294,0.02739
3504.35277,0.02733
3502.29260,0.02738
3500.23243,0.02771
3498.17225,0.02802
3496.11208,0.02821
3494.05191,0.02845
3491.99174,0.02884
3489.93157,0.02912
3487.87139,0.02906
3485.81122,0.02901
3483.75105,0.02922
3481.69088,0.02961
3479.63071,0.03008
3477.57053,0.03050
3475.51036,0.03081
3473.45019,0.03095
3471.39002,0.03097
3469.32984,0.03101
3467.26967,0.03105
3465.20950,0.03113
3463.14933,0.03158
3461.08916,0.03230
3459.02898,0.03289
3456.96881,0.03326
3454.90864,0.03359
3452.84847,0.03401
3450.78830,0.03442
3448.72812,0.03454
3446.66795,0.03434
3444.60778,0.03450
3442.54761,0.03499
3440.48744,0.03519
3438.42726,0.03526
3436.36709,0.03551
3434.30692,0.03588
3432.24675,0.03633
3430.18657,0.03653
3428.12640,0.03631
3426.06623,0.03621
3424.00606,0.03643
3421.94589,0.03659
3419.88571,0.03657
3417.82554,0.03666
3415.76537,0.03701
3413.70520,0.03745
3411.64503,0.03765
3409.58485,0.03768
3407.52468,0.03786
3405.46451,0.03811
3403.40434,0.03831
3401.34416,0.03850
3399.28399,0.03838
3397.22382,0.03809
3395.16365,0.03807
3393.10348,0.03832
3391.04330,0.03853
3388.98313,0.03869
3386.92296,0.03906
3384.86279,0.03939
3382.80262,0.03943
3380.74244,0.03944
3378.68227,0.03945
3376.62210,0.03957
3374.56193,0.03986
3372.50176,0.04009
3370.44158,0.04018
3368.38141,0.04028
3366.32124,0.04033
3364.26107,0.04033
3362.20089,0.04038
3360.14072,0.04039
3358.08055,0.04044
3356.02038,0.04071
3353.96021,0.04091
3351.90003,0.04073
3349.83986,0.04047
3347.77969,0.04041
3345.71952,0.04057
3343.65935,0.04100
3341.59917,0.04127
3339.53900,0.04109
3337.47883,0.04087
3335.41866,0.04087
3333.35849,0.04099
3331.29831,0.04116
3329.23814,0.04135
3327.17797,0.04130
3325.11780,0.04097
3323.05762,0.04091
3320.99745,0.04120
3318.93728,0.04137
3316.87711,0.04132
3314.81694,0.04139
3312.75676,0.04164
3310.69659,0.04178
3308.63642,0.04178
3306.57625,0.04191
3304.51608,0.04220
3302.45590,0.04235
3300.39573,0.04222
3298.33556,0.04196
3296.27539,0.04170
3294.21521,0.04164
3292.15504,0.04190
3290.09487,0.04218
3288.03470,0.04229
3285.97453,0.04238
3283.91435,0.04245
3281.85418,0.04235
3279.79401,0.04213
3277.73384,0.04204
3275.67367,0.04210
3273.61349,0.04219
3271.55332,0.04217
3269.49315,0.04197
3267.43298,0.04171
3265.37281,0.04162
3263.31263,0.04173
3261.25246,0.04195
3259.19229,0.04209
3257.13212,0.04196
3255.07194,0.04174
3253.01177,0.04172
3250.95160,0.04178
3248.89143,0.04185
3246.83126,0.04187
3244.77108,0.04183
3242.71091,0.04196
3240.65074,0.04220
3238.59057,0.04212
3236.53040,0.04192
3234.47022,0.04188
3232.41005,0.04182
3230.34988,0.04178
3228.28971,0.04192
3226.22954,0.04195
3224.16936,0.04174
3222.10919,0.04140
3220.04902,0.04123
3217.98885,0.04149
3215.92867,0.04184
3213.86850,0.04182
3211.80833,0.04152
3209.74816,0.04113
3207.68799,0.04078
3205.62781,0.04070
3203.56764,0.04080
3201.50747,0.04092
3199.44730,0.04103
3197.38713,0.04097
3195.32695,0.04059
3193.26678,0.04010
3191.20661,0.03982
3189.14644,0.03984
3187.08626,0.04000
3185.02609,0.04011
3182.96592,0.04009
3180.90575,0.04005
3178.84558,0.03988
3176.78540,0.03936
3174.72523,0.03884
3172.66506,0.03882
3170.60489,0.03915
3168.54472,0.03938
3166.48454,0.03939
3164.42437,0.03936
3162.36420,0.03922
3160.30403,0.03892
3158.24386,0.03866
3156.18368,0.03860
3154.12351,0.03877
3152.06334,0.03884
3150.00317,0.03860
3147.94299,0.03840
3145.88282,0.03834
3143.82265,0.03812
3141.76248,0.03790
3139.70231,0.03801
3137.64213,0.03810
3135.58196,0.03789
3133.52179,0.03758
3131.46162,0.03740
3129.40145,0.03731
3127.34127,0.03701
3125.28110,0.03660
3123.22093,0.03645
3121.16076,0.03643
3119.10058,0.03639
3117.04041,0.03650
3114.98024,0.03651
3112.92007,0.03622
3110.85990,0.03604
3108.79972,0.03604
3106.73955,0.03588
3104.67938,0.03559
3102.61921,0.03544
3100.55904,0.03531
3098.49886,0.03511
3096.43869,0.03500
3094.37852,0.03496
3092.31835,0.03466
3090.25818,0.03418
3088.19800,0.03399
3086.13783,0.03413
3084.07766,0.03415
3082.01749,0.03384
3079.95731,0.03349
3077.89714,0.03332
3075.83697,0.03318
3073.77680,0.03306
3071.71663,0.03301
3069.65645,0.03290
3067.59628,0.03265
3065.53611,0.03246
3063.47594,0.03242
3061.41577,0.03214
3059.35559,0.03158
3057.29542,0.03126
3055.23525,0.03130
3053.17508,0.03128
3051.11491,0.03109
3049.05473,0.03093
3046.99456,0.03085
3044.93439,0.03079
3042.87422,0.03071
3040.81404,0.03067
3038.75387,0.03060
3036.69370,0.03033
3034.63353,0.02988
3032.57336,0.02951
3030.51318,0.02948
3028.45301,0.02961
3026.39284,0.02955
3024.33267,0.02925
3022.27250,0.02885
3020.21232,0.02864
3018.15215,0.02865
3016.09198,0.02862
3014.03181,0.02856
3011.97163,0.02845
3009.91146,0.02815
3007.85129,0.02784
3005.79112,0.02754
3003.73095,0.02715
3001.67077,0.02672
2999.61060,0.02644
2997.55043,0.02657
2995.49026,0.02703
2993.43009,0.02713
2991.36991,0.02676
2989.30974,0.02652
2987.24957,0.02654
2985.18940,0.02648
2983.12923,0.02630
2981.06905,0.02624
2979.00888,0.02624
2976.94871,0.02629
2974.88854,0.02636
2972.82836,0.02618
2970.76819,0.02574
2968.70802,0.02535
2966.64785,0.02526
2964.58768,0.02534
2962.52750,0.02540
2960.46733,0.02544
2958.40716,0.02554
2956.34699,0.02565
2954.28682,0.02585
2952.22664,0.02602
2950.16647,0.02592
2948.10630,0.02585
2946.04613,0.02592
2943.98596,0.02591
2941.92578,0.02590
2939.86561,0.02599
2937.80544,0.02609
2935.74527,0.02615
2933.68509,0.02620
2931.62492,0.02618
2929.56475,0.02605
2927.50458,0.02603
2925.44441,0.02603
2923.38423,0.02580
2921.32406,0.02545
2919.26389,0.02511
2917.20372,0.02493
2915.14355,0.02503
2913.08337,0.02517
2911.02320,0.02505
2908.96303,0.02462
2906.90286,0.02417
2904.84268,0.02411
2902.78251,0.02430
2900.72234,0.02441
2898.66217,0.02440
2896.60200,0.02425
2894.54182,0.02406
2892.48165,0.02400
2890.42148,0.02401
2888.36131,0.02397
2886.30114,0.02401
2884.24096,0.02410
2882.18079,0.02399
2880.12062,0.02367
2878.06045,0.02336
2876.00028,0.02320
2873.94010,0.02322
2871.87993,0.02335
2869.81976,0.02335
2867.75959,0.02320
2865.69941,0.02307
2863.63924,0.02288
2861.57907,0.02273
2859.51890,0.02270
2857.45873,0.02257
2855.39855,0.02251
2853.33838,0.02254
2851.27821,0.02251
2849.21804,0.02225
2847.15787,0.02185
2845.09769,0.02168
2843.03752,0.02165
2840.97735,0.02155
2838.91718,0.02149
2836.85700,0.02143
2834.79683,0.02122
2832.73666,0.02103
2830.67649,0.02095
2828.61632,0.02081
2826.55614,0.02072
2824.49597,0.02073
2822.43580,0.02069
2820.37563,0.02061
2818.31546,0.02049
2816.25528,0.02039
2814.19511,0.02034
2812.13494,0.02016
2810.07477,0.01974
2808.01460,0.01934
2805.95442,0.01931
2803.89425,0.01962
2801.83408,0.01988
2799.77391,0.02001
2797.71373,0.02007
2795.65356,0.01987
2793.59339,0.01946
2791.53322,0.01921
2789.47305,0.01928
2787.41287,0.01939
2785.35270,0.01927
2783.29253,0.01896
2781.23236,0.01867
2779.17219,0.01865
2777.11201,0.01888
2775.05184,0.01904
2772.99167,0.01897
2770.93150,0.01889
2768.87133,0.01878
2766.81115,0.01869
2764.75098,0.01861
2762.69081,0.01843
2760.63064,0.01833
2758.57046,0.01830
2756.51029,0.01808
2754.45012,0.01792
2752.38995,0.01797
2750.32978,0.01798
2748.26960,0.01784
2746.20943,0.01771
2744.14926,0.01775
2742.08909,0.01784
2740.02892,0.01771
2737.96874,0.01735
2735.90857,0.01715
2733.84840,0.01722
2731.78823,0.01713
2729.72805,0.01695
2727.66788,0.01700
2725.60771,0.01718
2723.54754,0.01727
2721.48737,0.01717
2719.42719,0.01680
2717.36702,0.01643
2715.30685,0.01642
2713.24668,0.01651
2711.18651,0.01650
2709.12633,0.01655
2707.06616,0.01659
2705.00599,0.01634
2702.94582,0.01595
2700.88565,0.01578
2698.82547,0.01579
2696.76530,0.01589
2694.70513,0.01594
2692.64496,0.01587
2690.58478,0.01576
2688.52461,0.01561
2686.46444,0.01543
2684.40427,0.01527
2682.34410,0.01527
2680.28392,0.01543
2678.22375,0.01545
2676.16358,0.01519
2674.10341,0.01479
2672.04324,0.01455
2669.98306,0.01456
2667.92289,0.01457
2665.86272,0.01451
2663.80255,0.01444
2661.74238,0.01438
2659.68220,0.01446
2657.62203,0.01449
2655.56186,0.01425
2653.50169,0.01392
2651.44151,0.01362
2649.38134,0.01342
2647.32117,0.01330
2645.26100,0.01329
2643.20083,0.01352
2641.14065,0.01374
2639.08048,0.01355
2637.02031,0.01309
2634.96014,0.01284
2632.89997,0.01281
2630.83979,0.01281
2628.77962,0.01285
2626.71945,0.01292
2624.65928,0.01290
2622.59910,0.01269
2620.53893,0.01238
2618.47876,0.01225
2616.41859,0.01227
2614.35842,0.01212
2612.29824,0.01187
2610.23807,0.01178
2608.17790,0.01174
2606.11773,0.01165
2604.05756,0.01164
2601.99738,0.01167
2599.93721,0.01178
2597.87704,0.01208
2595.81687,0.01223
2593.75670,0.01209
2591.69652,0.01180
2589.63635,0.01140
2587.57618,0.01118
2585.51601,0.01136
2583.45583,0.01144
2581.39566,0.01120
2579.33549,0.01092
2577.27532,0.01066
2575.21515,0.01042
2573.15497,0.01038
2571.09480,0.01055
2569.03463,0.01065
2566.97446,0.01055
2564.91429,0.01043
2562.85411,0.01045
2560.79394,0.01073
2558.73377,0.01092
2556.67360,0.01072
2554.61342,0.01034
2552.55325,0.01017
2550.49308,0.01051
2548.43291,0.01105
2546.37274,0.01124
2544.31256,0.01116
2542.25239,0.01131
2540.19222,0.01158
2538.13205,0.01156
2536.07188,0.01123
2534.01170,0.01084
2531.95153,0.01072
2529.89136,0.01068
2527.83119,0.01046
2525.77102,0.01030
2523.71084,0.01026
2521.65067,0.01030
2519.59050,0.01051
2517.53033,0.01065
2515.47015,0.01045
2513.40998,0.01002
2511.34981,0.00983
2509.28964,0.01009
2507.22947,0.01055
2505.16929,0.01105
2503.10912,0.01150
2501.04895,0.01165
2498.98878,0.01141
2496.92861,0.01088
2494.86843,0.01040
2492.80826,0.01027
2490.74809,0.01049
2488.68792,0.01082
2486.62775,0.01103
2484.56757,0.01122
2482.50740,0.01148
2480.44723,0.01178
2478.38706,0.01199
2476.32688,0.01177
2474.26671,0.01113
2472.20654,0.01083
2470.14637,0.01104
2468.08620,0.01140
2466.02602,0.01174
2463.96585,0.01178
2461.90568,0.01167
2459.84551,0.01177
2457.78534,0.01212
2455.72516,0.01240
2453.66499,0.01224
2451.60482,0.01177
2449.54465,0.01130
2447.48447,0.01109
2445.42430,0.01114
2443.36413,0.01118
2441.30396,0.01117
2439.24379,0.01100
2437.18361,0.01088
2435.12344,0.01142
2433.06327,0.01214
2431.00310,0.01223
2428.94293,0.01211
2426.88275,0.01201
2424.82258,0.01160
2422.76241,0.01130
2420.70224,0.01142
2418.64207,0.01164
2416.58189,0.01171
2414.52172,0.01166
2412.46155,0.01174
2410.40138,0.01176
2408.34120,0.01154
2406.28103,0.01152
2404.22086,0.01179
2402.16069,0.01181
2400.10052,0.01153
2398.04034,0.01100
2395.98017,0.01071
2393.92000,0.01075
2391.85983,0.01105
2389.79966,0.01144
2387.73948,0.01186
2385.67931,0.01215
2383.61914,0.01199
2381.55897,0.01147
2379.49880,0.01108
2377.43862,0.01103
2375.37845,0.01079
2373.31828,0.01045
2371.25811,0.01059
2369.19793,0.01085
2367.13776,0.01036
2365.07759,0.00903
2363.01742,0.00841
2360.95725,0.01047
2358.89707,0.01069
2356.83690,0.00949
2354.77673,0.00939
2352.71656,0.01050
2350.65639,0.01361
2348.59621,0.01528
2346.53604,0.01246
2344.47587,0.01159
2342.41570,0.01173
2340.35552,0.01159
2338.29535,0.01207
2336.23518,0.01271
2334.17501,0.01346
2332.11484,0.01365
2330.05466,0.01314
2327.99449,0.01241
2325.93432,0.01239
2323.87415,0.01169
2321.81398,0.01101
2319.75380,0.01063
2317.69363,0.01123
2315.63346,0.01174
2313.57329,0.01167
2311.51312,0.01134
2309.45294,0.01105
2307.39277,0.01113
2305.33260,0.01150
2303.27243,0.01168
2301.21225,0.01131
2299.15208,0.01079
2297.09191,0.01047
2295.03174,0.01045
2292.97157,0.01060
2290.91139,0.01065
2288.85122,0.01043
2286.79105,0.01018
2284.73088,0.01029
2282.67071,0.01055
2280.61053,0.01035
2278.55036,0.00968
2276.49019,0.00919
2274.43002,0.00939
2272.36984,0.01000
2270.30967,0.01029
2268.24950,0.00990
2266.18933,0.00907
2264.12916,0.00825
2262.06898,0.00797
2260.00881,0.00825
2257.94864,0.00870
2255.88847,0.00917
2253.82830,0.00950
2251.76812,0.00950
2249.70795,0.00916
2247.64778,0.00855
2245.58761,0.00828
2243.52744,0.00831
2241.46726,0.00774
2239.40709,0.00720
2237.34692,0.00757
2235.28675,0.00830
2233.22657,0.00835
2231.16640,0.00768
2229.10623,0.00705
2227.04606,0.00681
2224.98589,0.00699
2222.92571,0.00762
2220.86554,0.00820
2218.80537,0.00842
2216.74520,0.00862
2214.68503,0.00852
2212.62485,0.00815
2210.56468,0.00802
2208.50451,0.00762
2206.44434,0.00661
2204.38417,0.00586
2202.32399,0.00558
2200.26382,0.00529
2198.20365,0.00541
2196.14348,0.00678
2194.08330,0.00857
2192.02313,0.00887
2189.96296,0.00798
2187.90279,0.00719
2185.84262,0.00637
2183.78244,0.00568
2181.72227,0.00634
2179.66210,0.00771
2177.60193,0.00814
2175.54176,0.00820
2173.48158,0.00847
2171.42141,0.00926
2169.36124,0.00993
2167.30107,0.00770
2165.24089,0.00391
2163.18072,0.00279
2161.12055,0.00351
2159.06038,0.00339
2157.00021,0.00305
2154.94003,0.00359
2152.87986,0.00445
2150.81969,0.00530
2148.75952,0.00527
2146.69935,0.00414
2144.63917,0.00398
2142.57900,0.00526
2140.51883,0.00632
2138.45866,0.00643
2136.39849,0.00587
2134.33831,0.00513
2132.27814,0.00506
2130.21797,0.00582
2128.15780,0.00654
2126.09762,0.00664
2124.03745,0.00605
2121.97728,0.00542
2119.91711,0.00551
2117.85694,0.00600
2115.79676,0.00631
2113.73659,0.00661
2111.67642,0.00661
2109.61625,0.00617
2107.55608,0.00593
2105.49590,0.00580
2103.43573,0.00577
2101.37556,0.00634
2099.31539,0.00668
2097.25521,0.00630
2095.19504,0.00593
2093.13487,0.00563
2091.07470,0.00561
2089.01453,0.00636
2086.95435,0.00687
2084.89418,0.00661
2082.83401,0.00625
2080.77384,0.00561
2078.71367,0.00503
2076.65349,0.00572
2074.59332,0.00689
2072.53315,0.00709
2070.47298,0.00678
2068.41281,0.00691
2066.35263,0.00723
2064.29246,0.00689
2062.23229,0.00602
2060.17212,0.00560
2058.11194,0.00583
2056.05177,0.00590
2053.99160,0.00578
2051.93143,0.00580
2049.87126,0.00559
2047.81108,0.00513
2045.75091,0.00411
2043.69074,0.00292
2041.63057,0.00312
2039.57040,0.00445
2037.51022,0.00542
2035.45005,0.00627
2033.38988,0.00733
2031.32971,0.00643
2029.26954,0.00315
2027.20936,0.00065
2025.14919,0.00000
2023.08902,0.00004
2021.02885,0.00078
2018.96867,0.00218
2016.90850,0.00308
2014.84833,0.00274
2012.78816,0.00244
2010.72799,0.00367
2008.66781,0.00450
2006.60764,0.00324
2004.54747,0.00218
2002.48730,0.00282
2000.42713,0.00411
1998.36695,0.00453
1996.30678,0.00432
1994.24661,0.00478
1992.18644,0.00537
1990.12626,0.00573
1988.06609,0.00636
1986.00592,0.00625
1983.94575,0.00535
1981.88558,0.00511
1979.82540,0.00560
1977.76523,0.00596
1975.70506,0.00609
1973.64489,0.00533
1971.58472,0.00365
1969.52454,0.00288
1967.46437,0.00286
1965.40420,0.00251
1963.34403,0.00222
1961.28386,0.00251
1959.22368,0.00332
1957.16351,0.00407
1955.10334,0.00413
1953.04317,0.00361
1950.98299,0.00338
1948.92282,0.00346
1946.86265,0.00335
1944.80248,0.00336
1942.74231,0.00351
1940.68213,0.00323
1938.62196,0.00271
1936.56179,0.00274
1934.50162,0.00334
1932.44145,0.00380
1930.38127,0.00363
1928.32110,0.00335
1926.26093,0.00354
1924.20076,0.00378
1922.14059,0.00394
1920.08041,0.00430
1918.02024,0.00460
1915.96007,0.00460
1913.89990,0.00428
1911.83972,0.00380
1909.77955,0.00340
1907.71938,0.00322
1905.65921,0.00336
1903.59904,0.00366
1901.53886,0.00393
1899.47869,0.00429
1897.41852,0.00462
1895.35835,0.00454
1893.29818,0.00413
1891.23800,0.00379
1889.17783,0.00386
1887.11766,0.00441
1885.05749,0.00469
1882.99731,0.00430
1880.93714,0.00381
1878.87697,0.00361
1876.81680,0.00352
1874.75663,0.00359
1872.69645,0.00385
1870.63628,0.00384
1868.57611,0.00328
1866.51594,0.00270
1864.45577,0.00269
1862.39559,0.00301
1860.33542,0.00329
1858.27525,0.00353
1856.21508,0.00373
1854.15491,0.00367
1852.09473,0.00348
1850.03456,0.00349
1847.97439,0.00371
1845.91422,0.00402
1843.85404,0.00438
1841.79387,0.00458
1839.73370,0.00447
1837.67353,0.00403
1835.61336,0.00342
1833.55318,0.00308
1831.49301,0.00328
1829.43284,0.00367
1827.37267,0.00368
1825.31250,0.00348
1823.25232,0.00336
1821.19215,0.00341
1819.13198,0.00363
1817.07181,0.00383
1815.01163,0.00375
1812.95146,0.00353
1810.89129,0.00359
1808.83112,0.00404
1806.77095,0.00449
1804.71077,0.00460
1802.65060,0.00447
1800.59043,0.00429
1798.53026,0.00402
1796.47009,0.00368
1794.40991,0.00344
1792.34974,0.00341
1790.28957,0.00368
1788.22940,0.00408
1786.16923,0.00435
1784.10905,0.00453
1782.04888,0.00466
1779.98871,0.00470
1777.92854,0.00475
1775.86836,0.00485
1773.80819,0.00490
1771.74802,0.00484
1769.68785,0.00461
1767.62768,0.00434
1765.56750,0.00443
1763.50733,0.00498
1761.44716,0.00559
1759.38699,0.00587
1757.32682,0.00583
1755.26664,0.00560
1753.20647,0.00526
1751.14630,0.00507
1749.08613,0.00530
1747.02596,0.00572
1744.96578,0.00606
1742.90561,0.00635
1740.84544,0.00663
1738.78527,0.00694
1736.72509,0.00731
1734.66492,0.00747
1732.60475,0.00736
1730.54458,0.00732
1728.48441,0.00739
1726.42423,0.00750
1724.36406,0.00765
1722.30389,0.00782
1720.24372,0.00792
1718.18355,0.00778
1716.12337,0.00763
1714.06320,0.00790
1712.00303,0.00821
1709.94286,0.00831
1707.88268,0.00843
1705.82251,0.00872
1703.76234,0.00910
1701.70217,0.00941
1699.64200,0.00961
1697.58182,0.00970
1695.52165,0.00971
1693.46148,0.00982
1691.40131,0.01012
1689.34114,0.01061
1687.28096,0.01122
1685.22079,0.01161
1683.16062,0.01169
1681.10045,0.01204
1679.04028,0.01274
1676.98010,0.01338
1674.91993,0.01370
1672.85976,0.01381
1670.79959,0.01396
1668.73941,0.01431
1666.67924,0.01473
1664.61907,0.01499
1662.55890,0.01516
1660.49873,0.01550
1658.43855,0.01592
1656.37838,0.01619
1654.31821,0.01629
1652.25804,0.01636
1650.19787,0.01670
1648.13769,0.01704
1646.07752,0.01694
1644.01735,0.01670
1641.95718,0.01674
1639.89701,0.01698
1637.83683,0.01713
1635.77666,0.01685
1633.71649,0.01634
1631.65632,0.01623
1629.59614,0.01636
1627.53597,0.01640
1625.47580,0.01642
1623.41563,0.01647
1621.35546,0.01646
1619.29528,0.01634
1617.23511,0.01606
1615.17494,0.01576
1613.11477,0.01568
1611.05460,0.01569
1608.99442,0.01568
1606.93425,0.01568
1604.87408,0.01558
1602.81391,0.01528
1600.75373,0.01486
1598.69356,0.01446
1596.63339,0.01415
1594.57322,0.01378
1592.51305,0.01325
1590.45287,0.01267
1588.39270,0.01229
1586.33253,0.01209
1584.27236,0.01176
1582.21219,0.01121
1580.15201,0.01061
1578.09184,0.01011
1576.03167,0.00972
1573.97150,0.00946
1571.91133,0.00921
1569.85115,0.00885
1567.79098,0.00849
1565.73081,0.00821
1563.67064,0.00805
1561.61046,0.00798
1559.55029,0.00767
1557.49012,0.00695
1555.42995,0.00649
1553.36978,0.00637
1551.30960,0.00631
1549.24943,0.00617
1547.18926,0.00592
1545.12909,0.00559
1543.06892,0.00532
1541.00874,0.00508
1538.94857,0.00483
1536.88840,0.00491
1534.82823,0.00510
1532.76805,0.00499
1530.70788,0.00467
1528.64771,0.00442
1526.58754,0.00424
1524.52737,0.00414
1522.46719,0.00407
1520.40702,0.00393
1518.34685,0.00384
1516.28668,0.00378
1514.22651,0.00359
1512.16633,0.00331
1510.10616,0.00321
1508.04599,0.00338
1505.98582,0.00347
1503.92565,0.00342
1501.86547,0.00339
1499.80530,0.00328
1497.74513,0.00306
1495.68496,0.00291
1493.62478,0.00295
1491.56461,0.00302
1489.50444,0.00304
1487.44427,0.00299
1485.38410,0.00294
1483.32392,0.00302
1481.26375,0.00321
1479.20358,0.00337
1477.14341,0.00337
1475.08324,0.00321
1473.02306,0.00314
1470.96289,0.00346
1468.90272,0.00396
1466.84255,0.00431
1464.78238,0.00444
1462.72220,0.00451
1460.66203,0.00459
1458.60186,0.00459
1456.54169,0.00454
1454.48151,0.00462
1452.42134,0.00473
1450.36117,0.00477
1448.30100,0.00474
1446.24083,0.00471
1444.18065,0.00474
1442.12048,0.00479
1440.06031,0.00473
1438.00014,0.00461
1435.93997,0.00466
1433.87979,0.00492
1431.81962,0.00514
1429.75945,0.00534
1427.69928,0.00566
1425.63910,0.00597
1423.57893,0.00612
1421.51876,0.00623
1419.45859,0.00637
1417.39842,0.00648
1415.33824,0.00659
1413.27807,0.00660
1411.21790,0.00653
1409.15773,0.00652
1407.09756,0.00648
1405.03738,0.00629
1402.97721,0.00611
1400.91704,0.00606
1398.85687,0.00594
1396.79670,0.00561
1394.73652,0.00519
1392.67635,0.00499
1390.61618,0.00505
1388.55601,0.00518
1386.49583,0.00544
1384.43566,0.00578
1382.37549,0.00592
1380.31532,0.00572
1378.25515,0.00547
1376.19497,0.00541
1374.13480,0.00543
1372.07463,0.00543
1370.01446,0.00537
1367.95429,0.00523
1365.89411,0.00506
1363.83394,0.00494
1361.77377,0.00484
1359.71360,0.00475
1357.65343,0.00468
1355.59325,0.00463
1353.53308,0.00447
1351.47291,0.00413
1349.41274,0.00382
1347.35256,0.00373
1345.29239,0.00388
1343.23222,0.00407
1341.17205,0.00403
1339.11188,0.00378
1337.05170,0.00367
1334.99153,0.00375
1332.93136,0.00383
1330.87119,0.00384
1328.81102,0.00384
1326.75084,0.00385
1324.69067,0.00376
1322.63050,0.00369
1320.57033,0.00374
1318.51015,0.00384
1316.44998,0.00385
1314.38981,0.00378
1312.32964,0.00370
1310.26947,0.00377
1308.20929,0.00389
1306.14912,0.00386
1304.08895,0.00373
1302.02878,0.00373
1299.96861,0.00388
1297.90843,0.00395
1295.84826,0.00383
1293.78809,0.00375
1291.72792,0.00388
1289.66775,0.00404
1287.60757,0.00408
1285.54740,0.00414
1283.48723,0.00427
1281.42706,0.00448
1279.36688,0.00470
1277.30671,0.00476
1275.24654,0.00460
1273.18637,0.00439
1271.12620,0.00432
1269.06602,0.00439
1267.00585,0.00452
1264.94568,0.00452
1262.88551,0.00436
1260.82534,0.00434
1258.76516,0.00458
1256.70499,0.00466
1254.64482,0.00455
1252.58465,0.00460
1250.52447,0.00469
1248.46430,0.00459
1246.40413,0.00435
1244.34396,0.00407
1242.28379,0.00389
1240.22361,0.00383
1238.16344,0.00373
1236.10327,0.00357
1234.04310,0.00339
1231.98293,0.00326
1229.92275,0.00318
1227.86258,0.00301
1225.80241,0.00270
1223.74224,0.00238
1221.68207,0.00219
1219.62189,0.00217
1217.56172,0.00212
1215.50155,0.00199
1213.44138,0.00183
1211.38120,0.00161
1209.32103,0.00134
1207.26086,0.00109
1205.20069,0.00089
1203.14052,0.00083
1201.08034,0.00101
1199.02017,0.00129
1196.96000,0.00146
1194.89983,0.00147
1192.83966,0.00147
1190.77948,0.00171
1188.71931,0.00218
1186.65914,0.00264
1184.59897,0.00314
1182.53880,0.00376
1180.47862,0.00423
1178.41845,0.00456
1176.35828,0.00514
1174.29811,0.00603
1172.23793,0.00692
1170.17776,0.00766
1168.11759,0.00844
1166.05742,0.00941
1163.99725,0.01035
1161.93707,0.01107
1159.87690,0.01162
1157.81673,0.01211
1155.75656,0.01268
1153.69639,0.01345
1151.63621,0.01428
1149.57604,0.01499
1147.51587,0.01571
1145.45570,0.01648
1143.39552,0.01719
1141.33535,0.01783
1139.27518,0.01866
1137.21501,0.01974
1135.15484,0.02076
1133.09466,0.02154
1131.03449,0.02233
1128.97432,0.02340
1126.91415,0.02454
1124.85398,0.02548
1122.79380,0.02627
1120.73363,0.02719
1118.67346,0.02822
1116.61329,0.02913
1114.55312,0.03005
1112.49294,0.03095
1110.43277,0.03181
1108.37260,0.03273
1106.31243,0.03351
1104.25225,0.03435
1102.19208,0.03544
1100.13191,0.03651
1098.07174,0.03753
1096.01157,0.03847
1093.95139,0.03932
1091.89122,0.04020
1089.83105,0.04107
1087.77088,0.04195
1085.71071,0.04274
1083.65053,0.04336
1081.59036,0.04402
1079.53019,0.04482
1077.47002,0.04551
1075.40985,0.04582
1073.34967,0.04595
1071.28950,0.04635
1069.22933,0.04685
1067.16916,0.04695
1065.10898,0.04681
1063.04881,0.04681
1060.98864,0.04697
1058.92847,0.04694
1056.86830,0.04646
1054.80812,0.04588
1052.74795,0.04551
1050.68778,0.04519
1048.62761,0.04475
1046.56744,0.04415
1044.50726,0.04336
1042.44709,0.04238
1040.38692,0.04145
1038.32675,0.04074
1036.26657,0.04006
1034.20640,0.03924
1032.14623,0.03834
1030.08606,0.03741
1028.02589,0.03641
1025.96571,0.03540
1023.90554,0.03453
1021.84537,0.03373
1019.78520,0.03273
1017.72503,0.03156
1015.66485,0.03071
1013.60468,0.03016
1011.54451,0.02946
1009.48434,0.02882
1007.42417,0.02852
1005.36399,0.02841
1003.30382,0.02835
1001.24365,0.02841
999.18348,0.02874
997.12330,0.02921
995.06313,0.02965
993.00296,0.03012
990.94279,0.03058
988.88262,0.03080
986.82244,0.03107
984.76227,0.03134
982.70210,0.03142
980.64193,0.03138
978.58176,0.03092
976.52158,0.02984
974.46141,0.02876
972.40124,0.02809
970.34107,0.02727
968.28089,0.02594
966.22072,0.02466
964.16055,0.02367
962.10038,0.02261
960.04021,0.02125
957.98003,0.01986
955.91986,0.01891
953.85969,0.01841
951.79952,0.01791
949.73935,0.01736
947.67917,0.01698
945.61900,0.01671
943.55883,0.01627
941.49866,0.01569
939.43849,0.01527
937.37831,0.01500
935.31814,0.01467
933.25797,0.01431
931.19780,0.01405
929.13762,0.01386
927.07745,0.01371
925.01728,0.01365
922.95711,0.01363
920.89694,0.01356
918.83676,0.01327
916.77659,0.01276
914.71642,0.01230
912.65625,0.01203
910.59608,0.01186
908.53590,0.01159
906.47573,0.01113
904.41556,0.01090
902.35539,0.01120
900.29522,0.01170
898.23504,0.01177
896.17487,0.01137
894.11470,0.01103
892.05453,0.01106
889.99435,0.01134
887.93418,0.01160
885.87401,0.01171
883.81384,0.01186
881.75367,0.01217
879.69349,0.01265
877.63332,0.01305
875.57315,0.01318
873.51298,0.01341
871.45281,0.01382
869.39263,0.01399
867.33246,0.01398
865.27229,0.01401
863.21212,0.01393
861.15194,0.01373
859.09177,0.01372
857.03160,0.01387
854.97143,0.01373
852.91126,0.01353
850.85108,0.01377
848.79091,0.01387
846.73074,0.01328
844.67057,0.01249
842.61040,0.01206
840.55022,0.01196
838.49005,0.01164
836.42988,0.01093
834.36971,0.01024
832.30954,0.00951
830.24936,0.00888
828.18919,0.00883
826.12902,0.00892
824.06885,0.00860
822.00867,0.00789
819.94850,0.00713
817.88833,0.00662
815.82816,0.00625
813.76799,0.00618
811.70781,0.00655
809.64764,0.00690
807.58747,0.00662
805.52730,0.00548
803.46713,0.00456
801.40695,0.00471
799.34678,0.00525
797.28661,0.00548
795.22644,0.00528
793.16627,0.00497
791.10609,0.00477
789.04592,0.00459
786.98575,0.00435
784.92558,0.00398
782.86540,0.00399
780.80523,0.00449
778.74506,0.00460
776.68489,0.00410
774.62472,0.00340
772.56454,0.00300
770.50437,0.00333
768.44420,0.00387
766.38403,0.00390
764.32386,0.00364
762.26368,0.00358
760.20351,0.00366
758.14334,0.00343
756.08317,0.00316
754.02299,0.00346
751.96282,0.00373
749.90265,0.00331
747.84248,0.00299
745.78231,0.00315
743.72213,0.00320
741.66196,0.00308
739.60179,0.00296
737.54162,0.00311
735.48145,0.00340
733.42127,0.00328
731.36110,0.00321
729.30093,0.00319
727.24076,0.00285
725.18059,0.00283
723.12041,0.00331
721.06024,0.00321
719.00007,0.00370
716.93990,0.00428
714.87972,0.00399
712.81955,0.00329
710.75938,0.00309
708.69921,0.00361
706.63904,0.00421
704.57886,0.00419
702.51869,0.00371
700.45852,0.00351
698.39835,0.00365
696.33818,0.00399
694.27800,0.00455
692.21783,0.00479
690.15766,0.00455
688.09749,0.00455
686.03731,0.00497
683.97714,0.00506
681.91697,0.00475
679.85680,0.00416
677.79663,0.00319
675.73645,0.00270
673.67628,0.00399
671.61611,0.00631
669.55594,0.00402
667.49577,0.00151
665.43559,0.00711
663.37542,0.00620
661.31525,0.00360
659.25508,0.00204
657.19491,0.00142
655.13473,0.00116
653.07456,0.00092
651.01439,0.00114
648.95422,0.00234
646.89404,0.00363
644.83387,0.00321
642.77370,0.00230
640.71353,0.00236
638.65336,0.00302
636.59318,0.00324
634.53301,0.00265
632.47284,0.00215
630.41267,0.00254
628.35250,0.00359
626.29232,0.00457
624.23215,0.00478
622.17198,0.00354
620.11181,0.00054
618.05164,0.00000
615.99146,0.00337
613.93129,0.00449
611.87112,0.00179
609.81095,-0.00003
607.75077,-0.00087
605.69060,-0.00210
603.63043,-0.00306
601.57026,-0.00268
599.51009,0.00000
