3996.73391,0.00074
3994.67373,0.00046
3992.61356,0.00037
3990.55339,0.00030
3988.49322,0.00024
3986.43305,0.00021
3984.37287,0.00010
3982.31270,0.00000
3980.25253,0.00014
3978.19236,0.00063
3976.13219,0.00106
3974.07201,0.00088
3972.01184,0.00043
3969.95167,0.00039
3967.89150,0.00054
3965.83133,0.00049
3963.77115,0.00039
3961.71098,0.00038
3959.65081,0.00032
3957.59064,0.00032
3955.53046,0.00058
3953.47029,0.00083
3951.41012,0.00084
3949.34995,0.00100
3947.28978,0.00140
3945.22960,0.00162
3943.16943,0.00146
3941.10926,0.00100
3939.04909,0.00066
3936.98892,0.00079
3934.92874,0.00116
3932.86857,0.00146
3930.80840,0.00141
3928.74823,0.00082
3926.68805,0.00018
3924.62788,0.00000
3922.56771,0.00010
3920.50754,0.00040
3918.44737,0.00081
3916.38719,0.00084
3914.32702,0.00047
3912.26685,0.00029
3910.20668,0.00058
3908.14651,0.00122
3906.08633,0.00189
3904.02616,0.00212
3901.96599,0.00170
3899.90582,0.00115
3897.84565,0.00087
3895.78547,0.00091
3893.72530,0.00101
3891.66513,0.00084
3889.60496,0.00057
3887.54478,0.00058
3885.48461,0.00089
3883.42444,0.00127
3881.36427,0.00128
3879.30410,0.00094
3877.24392,0.00077
3875.18375,0.00079
3873.12358,0.00075
3871.06341,0.00065
3869.00324,0.00072
3866.94306,0.00114
3864.88289,0.00159
3862.82272,0.00156
3860.76255,0.00131
3858.70237,0.00150
3856.64220,0.00216
3854.58203,0.00227
3852.52186,0.00108
3850.46169,0.00021
3848.40151,0.00037
3846.34134,0.00066
3844.28117,0.00059
3842.22100,0.00038
3840.16083,0.00042
3838.10065,0.00056
3836.04048,0.00046
3833.98031,0.00057
3831.92014,0.00091
3829.85997,0.00101
3827.79979,0.00089
3825.73962,0.00077
3823.67945,0.00060
3821.61928,0.00022
3819.55910,0.00000
3817.49893,0.00031
3815.43876,0.00062
3813.37859,0.00057
3811.31842,0.00067
3809.25824,0.00107
3807.19807,0.00110
3805.13790,0.00054
3803.07773,0.00009
3801.01756,0.00011
3798.95738,0.00041
3796.89721,0.00062
3794.83704,0.00060
3792.77687,0.00035
3790.71670,0.00019
3788.65652,0.00032
3786.59635,0.00042
3784.53618,0.00032
3782.47601,0.00048
3780.41583,0.00091
3778.35566,0.00103
3776.29549,0.00087
3774.23532,0.00080
3772.17515,0.00075
3770.11497,0.00063
3768.05480,0.00067
3765.99463,0.00102
3763.93446,0.00154
3761.87429,0.00209
3759.81411,0.00223
3757.75394,0.00167
3755.69377,0.00128
3753.63360,0.00180
3751.57342,0.00265
3749.51325,0.00268
3747.45308,0.00195
3745.39291,0.00155
3743.33274,0.00160
3741.27256,0.00149
3739.21239,0.00138
3737.15222,0.00158
3735.09205,0.00165
3733.03188,0.00115
3730.97170,0.00061
3728.91153,0.00045
3726.85136,0.00060
3724.79119,0.00084
3722.73102,0.00085
3720.67084,0.00075
3718.61067,0.00097
3716.55050,0.00146
3714.49033,0.00180
3712.43015,0.00188
3710.36998,0.00179
3708.30981,0.00166
3706.24964,0.00144
3704.18947,0.00115
3702.12929,0.00105
3700.06912,0.00113
3698.00895,0.00121
3695.94878,0.00142
3693.88861,0.00186
3691.82843,0.00241
3689.76826,0.00271
3687.70809,0.00248
3685.64792,0.00202
3683.58775,0.00167
3681.52757,0.00165
3679.46740,0.00213
3677.40723,0.00268
3675.34706,0.00275
3673.28688,0.00259
3671.22671,0.00268
3669.16654,0.00297
3667.10637,0.00341
3665.04620,0.00386
3662.98602,0.00405
3660.92585,0.00413
3658.86568,0.00441
3656.80551,0.00486
3654.74534,0.00533
3652.68516,0.00587
3650.62499,0.00639
3648.56482,0.00649
3646.50465,0.00604
3644.44447,0.00580
3642.38430,0.00629
3640.32413,0.00725
3638.26396,0.00821
3636.20379,0.00893
3634.14361,0.00940
3632.08344,0.00974
3630.02327,0.01026
3627.96310,0.01117
3625.90293,0.01196
3623.84275,0.01235
3621.78258,0.01248
3619.72241,0.01247
3617.66224,0.01259
3615.60207,0.01293
3613.54189,0.01358
3611.48172,0.01450
3609.42155,0.01531
3607.36138,0.01578
3605.30120,0.01589
3603.24103,0.01587
3601.18086,0.01628
3599.12069,0.01707
3597.06052,0.01765
3595.00034,0.01818
3592.94017,0.01900
3590.88000,0.02003
3588.81983,0.02099
3586.75966,0.02147
3584.69948,0.02150
3582.63931,0.02166
3580.57914,0.02211
3578.51897,0.02278
3576.45879,0.02358
3574.39862,0.02421
3572.33845,0.02451
3570.27828,0.02464
3568.21811,0.02485
3566.15793,0.02544
3564.09776,0.02646
3562.03759,0.02740
3559.97742,0.02778
3557.91725,0.02768
3555.85707,0.02780
3553.79690,0.02845
3551.73673,0.02918
3549.67656,0.02975
3547.61639,0.03034
3545.55621,0.03098
3543.49604,0.03169
3541.43587,0.03250
3539.37570,0.03334
3537.31552,0.03401
3535.25535,0.03449
3533.19518,0.03486
3531.13501,0.03519
3529.07484,0.03562
3527.01466,0.03621
3524.95449,0.03676
3522.89432,0.03724
3520.83415,0.03782
3518.77398,0.03846
3516.71380,0.03893
3514.65363,0.03925
3512.59346,0.03962
3510.53329,0.04015
3508.47312,0.04085
3506.41294,0.04154
3504.35277,0.04194
3502.29260,0.04213
3500.23243,0.04235
3498.17225,0.04274
3496.11208,0.04340
3494.05191,0.04412
3491.99174,0.04460
3489.93157,0.04500
3487.87139,0.04556
3485.81122,0.04588
3483.75105,0.04585
3481.69088,0.04594
3479.63071,0.04641
3477.57053,0.04702
3475.51036,0.04754
3473.45019,0.04804
3471.39002,0.04833
3469.32984,0.04851
3467.26967,0.04924
3465.20950,0.05037
3463.14933,0.05116
3461.08916,0.05126
3459.02898,0.05093
3456.96881,0.05089
3454.90864,0.05127
3452.84847,0.05184
3450.78830,0.05256
3448.72812,0.05321
3446.66795,0.05349
3444.60778,0.05375
3442.54761,0.05429
3440.48744,0.05476
3438.42726,0.05480
3436.36709,0.05476
3434.30692,0.05508
3432.24675,0.05562
3430.18657,0.05605
3428.12640,0.05645
3426.06623,0.05684
3424.00606,0.05694
3421.94589,0.05693
3419.88571,0.05728
3417.82554,0.05789
3415.76537,0.05841
3413.70520,0.05871
3411.64503,0.05882
3409.58485,0.05896
3407.52468,0.05927
3405.46451,0.05964
3403.40434,0.05986
3401.34416,0.05986
3399.28399,0.05984
3397.22382,0.06004
3395.16365,0.06027
3393.10348,0.06041
3391.04330,0.06051
3388.98313,0.06052
3386.92296,0.06065
3384.86279,0.06096
3382.80262,0.06128
3380.74244,0.06182
3378.68227,0.06249
3376.62210,0.06279
3374.56193,0.06289
3372.50176,0.06304
3370.44158,0.06312
3368.38141,0.06325
3366.32124,0.06346
3364.26107,0.06350
3362.20089,0.06356
3360.14072,0.06398
3358.08055,0.06437
3356.02038,0.06437
3353.96021,0.06452
3351.90003,0.06516
3349.83986,0.06566
3347.77969,0.06532
3345.71952,0.06459
3343.65935,0.06439
3341.59917,0.06467
3339.53900,0.06498
3337.47883,0.06522
3335.41866,0.06535
3333.35849,0.06531
3331.29831,0.06514
3329.23814,0.06502
3327.17797,0.06508
3325.11780,0.06529
3323.05762,0.06547
3320.99745,0.06542
3318.93728,0.06523
3316.87711,0.06524
3314.81694,0.06558
3312.75676,0.06590
3310.69659,0.06591
3308.63642,0.06580
3306.57625,0.06587
3304.51608,0.06617
3302.45590,0.06651
3300.39573,0.06654
3298.33556,0.06637
3296.27539,0.06624
3294.21521,0.06622
3292.15504,0.06651
3290.09487,0.06684
3288.03470,0.06676
3285.97453,0.06647
3283.91435,0.06645
3281.85418,0.06658
3279.79401,0.06652
3277.73384,0.06641
3275.67367,0.06649
3273.61349,0.06678
3271.55332,0.06710
3269.49315,0.06738
3267.43298,0.06774
3265.37281,0.06794
3263.31263,0.06773
3261.25246,0.06742
3259.19229,0.06720
3257.13212,0.06703
3255.07194,0.06683
3253.01177,0.06659
3250.95160,0.06650
3248.89143,0.06664
3246.83126,0.06679
3244.77108,0.06706
3242.71091,0.06743
3240.65074,0.06753
3238.59057,0.06735
3236.53040,0.06705
3234.47022,0.06668
3232.41005,0.06654
3230.34988,0.06669
3228.28971,0.06682
3226.22954,0.06682
3224.16936,0.06676
3222.10919,0.06664
3220.04902,0.06646
3217.98885,0.06643
3215.92867,0.06658
3213.86850,0.06666
3211.80833,0.06652
3209.74816,0.06624
3207.68799,0.06588
3205.62781,0.06556
3203.56764,0.06551
3201.50747,0.06568
3199.44730,0.06574
3197.38713,0.06558
3195.32695,0.06546
3193.26678,0.06546
3191.20661,0.06548
3189.14644,0.06535
3187.08626,0.06483
3185.02609,0.06427
3182.96592,0.06417
3180.90575,0.06428
3178.84558,0.06409
3176.78540,0.06382
3174.72523,0.06392
3172.66506,0.06412
3170.60489,0.06396
3168.54472,0.06366
3166.48454,0.06359
3164.42437,0.06346
3162.36420,0.06296
3160.30403,0.06257
3158.24386,0.06252
3156.18368,0.06242
3154.12351,0.06237
3152.06334,0.06238
3150.00317,0.06207
3147.94299,0.06150
3145.88282,0.06100
3143.82265,0.06073
3141.76248,0.06083
3139.70231,0.06096
3137.64213,0.06065
3135.58196,0.06015
3133.52179,0.05990
3131.46162,0.05987
3129.40145,0.05979
3127.34127,0.05948
3125.28110,0.05906
3123.22093,0.05871
3121.16076,0.05839
3119.10058,0.05803
3117.04041,0.05769
3114.98024,0.05760
3112.92007,0.05769
3110.85990,0.05768
3108.79972,0.05743
3106.73955,0.05686
3104.67938,0.05620
3102.61921,0.05591
3100.55904,0.05611
3098.49886,0.05639
3096.43869,0.05630
3094.37852,0.05582
3092.31835,0.05525
3090.25818,0.05475
3088.19800,0.05421
3086.13783,0.05367
3084.07766,0.05343
3082.01749,0.05363
3079.95731,0.05380
3077.89714,0.05348
3075.83697,0.05295
3073.77680,0.05251
3071.71663,0.05225
3069.65645,0.05208
3067.59628,0.05181
3065.53611,0.05147
3063.47594,0.05113
3061.41577,0.05078
3059.35559,0.05053
3057.29542,0.05041
3055.23525,0.05034
3053.17508,0.05031
3051.11491,0.05032
3049.05473,0.05012
3046.99456,0.04949
3044.93439,0.04866
3042.87422,0.04805
3040.81404,0.04780
3038.75387,0.04764
3036.69370,0.04740
3034.63353,0.04707
3032.57336,0.04677
3030.51318,0.04655
3028.45301,0.04624
3026.39284,0.04584
3024.33267,0.04548
3022.27250,0.04507
3020.21232,0.04477
3018.15215,0.04462
3016.09198,0.04433
3014.03181,0.04391
3011.97163,0.04359
3009.91146,0.04335
3007.85129,0.04309
3005.79112,0.04276
3003.73095,0.04248
3001.67077,0.04242
2999.61060,0.04249
2997.55043,0.04239
2995.49026,0.04202
2993.43009,0.04150
2991.36991,0.04115
2989.30974,0.04104
2987.24957,0.04100
2985.18940,0.04100
2983.12923,0.04089
2981.06905,0.04048
2979.00888,0.03995
2976.94871,0.03959
2974.88854,0.03945
2972.82836,0.03948
2970.76819,0.03957
2968.70802,0.03962
2966.64785,0.03960
2964.58768,0.03946
2962.52750,0.03926
2960.46733,0.03918
2958.40716,0.03905
2956.34699,0.03873
2954.28682,0.03840
2952.22664,0.03815
2950.16647,0.03793
2948.10630,0.03797
2946.04613,0.03841
2943.98596,0.03876
2941.92578,0.03873
2939.86561,0.03849
2937.80544,0.03818
2935.74527,0.03783
2933.68509,0.03760
2931.62492,0.03769
2929.56475,0.03792
2927.50458,0.03797
2925.44441,0.03783
2923.38423,0.03754
2921.32406,0.03710
2919.26389,0.03655
2917.20372,0.03616
2915.14355,0.03613
2913.08337,0.03625
2911.02320,0.03628
2908.96303,0.03615
2906.90286,0.03601
2904.84268,0.03594
2902.78251,0.03571
2900.72234,0.03540
2898.66217,0.03531
2896.60200,0.03520
2894.54182,0.03489
2892.48165,0.03465
2890.42148,0.03463
2888.36131,0.03461
2886.30114,0.03440
2884.24096,0.03420
2882.18079,0.03410
2880.12062,0.03396
2878.06045,0.03380
2876.00028,0.03377
2873.94010,0.03382
2871.87993,0.03375
2869.81976,0.03353
2867.75959,0.03327
2865.69941,0.03299
2863.63924,0.03277
2861.57907,0.03263
2859.51890,0.03256
2857.45873,0.03248
2855.39855,0.03228
2853.33838,0.03209
2851.27821,0.03189
2849.21804,0.03160
2847.15787,0.03136
2845.09769,0.03128
2843.03752,0.03131
2840.97735,0.03114
2838.91718,0.03073
2836.85700,0.03048
2834.79683,0.03042
2832.73666,0.03028
2830.67649,0.03003
2828.61632,0.02977
2826.55614,0.02956
2824.49597,0.02944
2822.43580,0.02930
2820.37563,0.02906
2818.31546,0.02891
2816.25528,0.02872
2814.19511,0.02850
2812.13494,0.02853
2810.07477,0.02842
2808.01460,0.02803
2805.95442,0.02787
2803.89425,0.02794
2801.83408,0.02786
2799.77391,0.02749
2797.71373,0.02718
2795.65356,0.02714
2793.59339,0.02720
2791.53322,0.02722
2789.47305,0.02719
2787.41287,0.02703
2785.35270,0.02675
2783.29253,0.02662
2781.23236,0.02655
2779.17219,0.02621
2777.11201,0.02584
2775.05184,0.02578
2772.99167,0.02570
2770.93150,0.02545
2768.87133,0.02529
2766.81115,0.02535
2764.75098,0.02540
2762.69081,0.02534
2760.63064,0.02531
2758.57046,0.02513
2756.51029,0.02471
2754.45012,0.02436
2752.38995,0.02427
2750.32978,0.02422
2748.26960,0.02406
2746.20943,0.02407
2744.14926,0.02423
2742.08909,0.02428
2740.02892,0.02415
2737.96874,0.02383
2735.90857,0.02347
2733.84840,0.02330
2731.78823,0.02329
2729.72805,0.02327
2727.66788,0.02316
2725.60771,0.02293
2723.54754,0.02271
2721.48737,0.02259
2719.42719,0.02245
2717.36702,0.02227
2715.30685,0.02208
2713.24668,0.02199
2711.18651,0.02200
2709.12633,0.02195
2707.06616,0.02173
2705.00599,0.02149
2702.94582,0.02127
2700.88565,0.02111
2698.82547,0.02090
2696.76530,0.02049
2694.70513,0.02028
2692.64496,0.02042
2690.58478,0.02040
2688.52461,0.02020
2686.46444,0.02006
2684.40427,0.01989
2682.34410,0.01963
2680.28392,0.01942
2678.22375,0.01931
2676.16358,0.01919
2674.10341,0.01908
2672.04324,0.01907
2669.98306,0.01902
2667.92289,0.01881
2665.86272,0.01865
2663.80255,0.01862
2661.74238,0.01839
2659.68220,0.01804
2657.62203,0.01783
2655.56186,0.01755
2653.50169,0.01731
2651.44151,0.01739
2649.38134,0.01751
2647.32117,0.01736
2645.26100,0.01705
2643.20083,0.01670
2641.14065,0.01636
2639.08048,0.01615
2637.02031,0.01614
2634.96014,0.01610
2632.89997,0.01581
2630.83979,0.01550
2628.77962,0.01542
2626.71945,0.01542
2624.65928,0.01535
2622.59910,0.01534
2620.53893,0.01528
2618.47876,0.01487
2616.41859,0.01453
2614.35842,0.01454
2612.29824,0.01450
2610.23807,0.01447
2608.17790,0.01454
2606.11773,0.01452
2604.05756,0.01425
2601.99738,0.01390
2599.93721,0.01392
2597.87704,0.01439
2595.81687,0.01475
2593.75670,0.01460
2591.69652,0.01399
2589.63635,0.01337
2587.57618,0.01310
2585.51601,0.01319
2583.45583,0.01334
2581.39566,0.01319
2579.33549,0.01294
2577.27532,0.01307
2575.21515,0.01340
2573.15497,0.01340
2571.09480,0.01316
2569.03463,0.01323
2566.97446,0.01342
2564.91429,0.01344
2562.85411,0.01359
2560.79394,0.01366
2558.73377,0.01338
2556.67360,0.01305
2554.61342,0.01280
2552.55325,0.01279
2550.49308,0.01306
2548.43291,0.01318
2546.37274,0.01307
2544.31256,0.01302
2542.25239,0.01299
2540.19222,0.01294
2538.13205,0.01291
2536.07188,0.01283
2534.01170,0.01282
2531.95153,0.01294
2529.89136,0.01304
2527.83119,0.01307
2525.77102,0.01315
2523.71084,0.01305
2521.65067,0.01269
2519.59050,0.01259
2517.53033,0.01287
2515.47015,0.01312
2513.40998,0.01313
2511.34981,0.01287
2509.28964,0.01272
2507.22947,0.01295
2505.16929,0.01320
2503.10912,0.01335
2501.04895,0.01355
2498.98878,0.01363
2496.92861,0.01354
2494.86843,0.01364
2492.80826,0.01385
2490.74809,0.01387
2488.68792,0.01382
2486.62775,0.01374
2484.56757,0.01368
2482.50740,0.01392
2480.44723,0.01412
2478.38706,0.01392
2476.32688,0.01364
2474.26671,0.01359
2472.20654,0.01378
2470.14637,0.01412
2468.08620,0.01427
2466.02602,0.01380
2463.96585,0.01333
2461.90568,0.01363
2459.84551,0.01400
2457.78534,0.01381
2455.72516,0.01382
2453.66499,0.01416
2451.60482,0.01421
2449.54465,0.01439
2447.48447,0.01468
2445.42430,0.01444
2443.36413,0.01408
2441.30396,0.01412
2439.24379,0.01414
2437.18361,0.01395
2435.12344,0.01408
2433.06327,0.01468
2431.00310,0.01531
2428.94293,0.01533
2426.88275,0.01463
2424.82258,0.01408
2422.76241,0.01399
2420.70224,0.01406
2418.64207,0.01415
2416.58189,0.01406
2414.52172,0.01399
2412.46155,0.01415
2410.40138,0.01447
2408.34120,0.01465
2406.28103,0.01454
2404.22086,0.01442
2402.16069,0.01430
2400.10052,0.01405
2398.04034,0.01395
2395.98017,0.01424
2393.92000,0.01465
2391.85983,0.01492
2389.79966,0.01498
2387.73948,0.01486
2385.67931,0.01470
2383.61914,0.01473
2381.55897,0.01493
2379.49880,0.01495
2377.43862,0.01461
2375.37845,0.01423
2373.31828,0.01420
2371.25811,0.01434
2369.19793,0.01433
2367.13776,0.01393
2365.07759,0.01346
2363.01742,0.01367
2360.95725,0.01386
2358.89707,0.01364
2356.83690,0.01393
2354.77673,0.01455
2352.71656,0.01467
2350.65639,0.01425
2348.59621,0.01375
2346.53604,0.01298
2344.47587,0.01190
2342.41570,0.01153
2340.35552,0.01225
2338.29535,0.01304
2336.23518,0.01317
2334.17501,0.01247
2332.11484,0.01173
2330.05466,0.01255
2327.99449,0.01461
2325.93432,0.01582
2323.87415,0.01544
2321.81398,0.01459
2319.75380,0.01420
2317.69363,0.01410
2315.63346,0.01388
2313.57329,0.01347
2311.51312,0.01331
2309.45294,0.01376
2307.39277,0.01424
2305.33260,0.01420
2303.27243,0.01374
2301.21225,0.01321
2299.15208,0.01293
2297.09191,0.01315
2295.03174,0.01365
2292.97157,0.01385
2290.91139,0.01350
2288.85122,0.01289
2286.79105,0.01239
2284.73088,0.01223
2282.67071,0.01235
2280.61053,0.01246
2278.55036,0.01236
2276.49019,0.01210
2274.43002,0.01184
2272.36984,0.01150
2270.30967,0.01095
2268.24950,0.01043
2266.18933,0.01035
2264.12916,0.01059
2262.06898,0.01055
2260.00881,0.01013
2257.94864,0.00973
2255.88847,0.00976
2253.82830,0.01041
2251.76812,0.01107
2249.70795,0.01105
2247.64778,0.01067
2245.58761,0.01023
2243.52744,0.00936
2241.46726,0.00849
2239.40709,0.00839
2237.34692,0.00863
2235.28675,0.00869
2233.22657,0.00892
2231.16640,0.00945
2229.10623,0.00998
2227.04606,0.00977
2224.98589,0.00874
2222.92571,0.00839
2220.86554,0.00893
2218.80537,0.00897
2216.74520,0.00849
2214.68503,0.00849
2212.62485,0.00901
2210.56468,0.00970
2208.50451,0.00991
2206.44434,0.00919
2204.38417,0.00841
2202.32399,0.00781
2200.26382,0.00677
2198.20365,0.00648
2196.14348,0.00815
2194.08330,0.01002
2192.02313,0.01025
2189.96296,0.00939
2187.90279,0.00855
2185.84262,0.00815
2183.78244,0.00787
2181.72227,0.00771
2179.66210,0.00734
2177.60193,0.00642
2175.54176,0.00595
2173.48158,0.00648
2171.42141,0.00693
2169.36124,0.00660
2167.30107,0.00632
2165.24089,0.00611
2163.18072,0.00443
2161.12055,0.00159
2159.06038,0.00000
2157.00021,0.00074
2154.94003,0.00204
2152.87986,0.00276
2150.81969,0.00415
2148.75952,0.00625
2146.69935,0.00743
2144.63917,0.00750
2142.57900,0.00693
2140.51883,0.00604
2138.45866,0.00503
2136.39849,0.00417
2134.33831,0.00410
2132.27814,0.00451
2130.21797,0.00471
2128.15780,0.00543
2126.09762,0.00699
2124.03745,0.00782
2121.97728,0.00727
2119.91711,0.00664
2117.85694,0.00658
2115.79676,0.00676
2113.73659,0.00688
2111.67642,0.00670
2109.61625,0.00664
2107.55608,0.00680
2105.49590,0.00659
2103.43573,0.00635
2101.37556,0.00646
2099.31539,0.00642
2097.25521,0.00636
2095.19504,0.00653
2093.13487,0.00636
2091.07470,0.00595
2089.01453,0.00567
2086.95435,0.00538
2084.89418,0.00541
2082.83401,0.00580
2080.77384,0.00546
2078.71367,0.00437
2076.65349,0.00432
2074.59332,0.00554
2072.53315,0.00592
2070.47298,0.00533
2068.41281,0.00565
2066.35263,0.00618
2064.29246,0.00553
2062.23229,0.00466
2060.17212,0.00411
2058.11194,0.00416
2056.05177,0.00527
2053.99160,0.00622
2051.93143,0.00582
2049.87126,0.00457
2047.81108,0.00358
2045.75091,0.00307
2043.69074,0.00265
2041.63057,0.00234
2039.57040,0.00249
2037.51022,0.00358
2035.45005,0.00529
2033.38988,0.00571
2031.32971,0.00327
2029.26954,0.00027
2027.20936,0.00000
2025.14919,0.00184
2023.08902,0.00299
2021.02885,0.00277
2018.96867,0.00277
2016.90850,0.00290
2014.84833,0.00209
2012.78816,0.00114
2010.72799,0.00126
2008.66781,0.00159
2006.60764,0.00083
2004.54747,0.00003
2002.48730,0.00028
2000.42713,0.00116
1998.36695,0.00189
1996.30678,0.00213
1994.24661,0.00216
1992.18644,0.00243
1990.12626,0.00316
1988.06609,0.00359
1986.00592,0.00313
1983.94575,0.00239
1981.88558,0.00177
1979.82540,0.00122
1977.76523,0.00131
1975.70506,0.00222
1973.64489,0.00316
1971.58472,0.00354
1969.52454,0.00378
1967.46437,0.00373
1965.40420,0.00238
1963.34403,0.00096
1961.28386,0.00049
1959.22368,0.00014
1957.16351,0.00000
1955.10334,0.00047
1953.04317,0.00078
1950.98299,0.00066
1948.92282,0.00069
1946.86265,0.00108
1944.80248,0.00162
1942.74231,0.00197
1940.68213,0.00175
1938.62196,0.00096
1936.56179,0.00019
1934.50162,0.00000
1932.44145,0.00057
1930.38127,0.00164
1928.32110,0.00241
1926.26093,0.00242
1924.20076,0.00209
1922.14059,0.00205
1920.08041,0.00275
1918.02024,0.00382
1915.96007,0.00423
1913.89990,0.00386
1911.83972,0.00329
1909.77955,0.00286
1907.71938,0.00282
1905.65921,0.00308
1903.59904,0.00314
1901.53886,0.00287
1899.47869,0.00265
1897.41852,0.00277
1895.35835,0.00305
1893.29818,0.00298
1891.23800,0.00241
1889.17783,0.00209
1887.11766,0.00261
1885.05749,0.00338
1882.99731,0.00349
1880.93714,0.00290
1878.87697,0.00234
1876.81680,0.00245
1874.75663,0.00293
1872.69645,0.00306
1870.63628,0.00294
1868.57611,0.00311
1866.51594,0.00338
1864.45577,0.00342
1862.39559,0.00342
1860.33542,0.00333
1858.27525,0.00302
1856.21508,0.00276
1854.15491,0.00280
1852.09473,0.00294
1850.03456,0.00302
1847.97439,0.00298
1845.91422,0.00273
1843.85404,0.00242
1841.79387,0.00243
1839.73370,0.00284
1837.67353,0.00324
1835.61336,0.00337
1833.55318,0.00343
1831.49301,0.00353
1829.43284,0.00338
1827.37267,0.00307
1825.31250,0.00302
1823.25232,0.00331
1821.19215,0.00367
1819.13198,0.00390
1817.07181,0.00399
1815.01163,0.00399
1812.95146,0.00396
1810.89129,0.00400
1808.83112,0.00412
1806.77095,0.00413
1804.71077,0.00409
1802.65060,0.00409
1800.59043,0.00411
1798.53026,0.00421
1796.47009,0.00441
1794.40991,0.00460
1792.34974,0.00466
1790.28957,0.00453
1788.22940,0.00436
1786.16923,0.00429
1784.10905,0.00429
1782.04888,0.00435
1779.98871,0.00437
1777.92854,0.00430
1775.86836,0.00435
1773.80819,0.00459
1771.74802,0.00492
1769.68785,0.00519
1767.62768,0.00519
1765.56750,0.00494
1763.50733,0.00478
1761.44716,0.00494
1759.38699,0.00523
1757.32682,0.00547
1755.26664,0.00568
1753.20647,0.00601
1751.14630,0.00640
1749.08613,0.00666
1747.02596,0.00675
1744.96578,0.00680
1742.90561,0.00688
1740.84544,0.00693
1738.78527,0.00689
1736.72509,0.00681
1734.66492,0.00697
1732.60475,0.00750
1730.54458,0.00797
1728.48441,0.00823
1726.42423,0.00853
1724.36406,0.00888
1722.30389,0.00912
1720.24372,0.00944
1718.18355,0.00994
1716.12337,0.01028
1714.06320,0.01029
1712.00303,0.01021
1709.94286,0.01024
1707.88268,0.01047
1705.82251,0.01097
1703.76234,0.01170
1701.70217,0.01234
1699.64200,0.01269
1697.58182,0.01300
1695.52165,0.01350
1693.46148,0.01394
1691.40131,0.01428
1689.34114,0.01467
1687.28096,0.01516
1685.22079,0.01583
1683.16062,0.01664
1681.10045,0.01727
1679.04028,0.01764
1676.98010,0.01799
1674.91993,0.01858
1672.85976,0.01924
1670.79959,0.01968
1668.73941,0.02002
1666.67924,0.02043
1664.61907,0.02092
1662.55890,0.02138
1660.49873,0.02171
1658.43855,0.02200
1656.37838,0.02235
1654.31821,0.02259
1652.25804,0.02251
1650.19787,0.02245
1648.13769,0.02262
1646.07752,0.02286
1644.01735,0.02284
1641.95718,0.02249
1639.89701,0.02213
1637.83683,0.02200
1635.77666,0.02190
1633.71649,0.02163
1631.65632,0.02133
1629.59614,0.02105
1627.53597,0.02071
1625.47580,0.02033
1623.41563,0.02007
1621.35546,0.01994
1619.29528,0.01969
1617.23511,0.01928
1615.17494,0.01892
1613.11477,0.01875
1611.05460,0.01864
1608.99442,0.01836
1606.93425,0.01788
1604.87408,0.01740
1602.81391,0.01698
1600.75373,0.01662
1598.69356,0.01626
1596.63339,0.01574
1594.57322,0.01503
1592.51305,0.01441
1590.45287,0.01395
1588.39270,0.01347
1586.33253,0.01287
1584.27236,0.01231
1582.21219,0.01186
1580.15201,0.01145
1578.09184,0.01106
1576.03167,0.01061
1573.97150,0.01010
1571.91133,0.00976
1569.85115,0.00942
1567.79098,0.00889
1565.73081,0.00843
1563.67064,0.00827
1561.61046,0.00847
1559.55029,0.00880
1557.49012,0.00857
1555.42995,0.00779
1553.36978,0.00714
1551.30960,0.00688
1549.24943,0.00676
1547.18926,0.00664
1545.12909,0.00660
1543.06892,0.00663
1541.00874,0.00647
1538.94857,0.00600
1536.88840,0.00559
1534.82823,0.00536
1532.76805,0.00505
1530.70788,0.00476
1528.64771,0.00479
1526.58754,0.00491
1524.52737,0.00479
1522.46719,0.00449
1520.40702,0.00402
1518.34685,0.00360
1516.28668,0.00348
1514.22651,0.00349
1512.16633,0.00351
1510.10616,0.00361
1508.04599,0.00362
1505.98582,0.00323
1503.92565,0.00273
1501.86547,0.00244
1499.80530,0.00235
1497.74513,0.00237
1495.68496,0.00243
1493.62478,0.00256
1491.56461,0.00278
1489.50444,0.00289
1487.44427,0.00276
1485.38410,0.00262
1483.32392,0.00261
1481.26375,0.00262
1479.20358,0.00264
1477.14341,0.00275
1475.08324,0.00302
1473.02306,0.00340
1470.96289,0.00351
1468.90272,0.00340
1466.84255,0.00345
1464.78238,0.00359
1462.72220,0.00359
1460.66203,0.00361
1458.60186,0.00384
1456.54169,0.00407
1454.48151,0.00397
1452.42134,0.00371
1450.36117,0.00366
1448.30100,0.00378
1446.24083,0.00378
1444.18065,0.00358
1442.12048,0.00338
1440.06031,0.00330
1438.00014,0.00340
1435.93997,0.00354
1433.87979,0.00350
1431.81962,0.00345
1429.75945,0.00360
1427.69928,0.00381
1425.63910,0.00399
1423.57893,0.00415
1421.51876,0.00432
1419.45859,0.00453
1417.39842,0.00467
1415.33824,0.00457
1413.27807,0.00437
1411.21790,0.00420
1409.15773,0.00407
1407.09756,0.00399
1405.03738,0.00392
1402.97721,0.00372
1400.91704,0.00349
1398.85687,0.00347
1396.79670,0.00357
1394.73652,0.00351
1392.67635,0.00327
1390.61618,0.00313
1388.55601,0.00318
1386.49583,0.00330
1384.43566,0.00337
1382.37549,0.00344
1380.31532,0.00353
1378.25515,0.00369
1376.19497,0.00387
1374.13480,0.00380
1372.07463,0.00344
1370.01446,0.00322
1367.95429,0.00332
1365.89411,0.00343
1363.83394,0.00327
1361.77377,0.00293
1359.71360,0.00263
1357.65343,0.00239
1355.59325,0.00221
1353.53308,0.00220
1351.47291,0.00227
1349.41274,0.00221
1347.35256,0.00198
1345.29239,0.00184
1343.23222,0.00206
1341.17205,0.00248
1339.11188,0.00255
1337.05170,0.00225
1334.99153,0.00200
1332.93136,0.00194
1330.87119,0.00198
1328.81102,0.00198
1326.75084,0.00192
1324.69067,0.00188
1322.63050,0.00194
1320.57033,0.00209
1318.51015,0.00219
1316.44998,0.00223
1314.38981,0.00218
1312.32964,0.00205
1310.26947,0.00192
1308.20929,0.00189
1306.14912,0.00202
1304.08895,0.00229
1302.02878,0.00255
1299.96861,0.00258
1297.90843,0.00246
1295.84826,0.00250
1293.78809,0.00268
1291.72792,0.00273
1289.66775,0.00278
1287.60757,0.00302
1285.54740,0.00317
1283.48723,0.00315
1281.42706,0.00316
1279.36688,0.00326
1277.30671,0.00332
1275.24654,0.00344
1273.18637,0.00360
1271.12620,0.00369
1269.06602,0.00376
1267.00585,0.00385
1264.94568,0.00388
1262.88551,0.00389
1260.82534,0.00384
1258.76516,0.00373
1256.70499,0.00374
1254.64482,0.00378
1252.58465,0.00357
1250.52447,0.00323
1248.46430,0.00311
1246.40413,0.00315
1244.34396,0.00304
1242.28379,0.00276
1240.22361,0.00258
1238.16344,0.00251
1236.10327,0.00238
1234.04310,0.00224
1231.98293,0.00205
1229.92275,0.00179
1227.86258,0.00166
1225.80241,0.00163
1223.74224,0.00134
1221.68207,0.00076
1219.62189,0.00033
1217.56172,0.00029
1215.50155,0.00046
1213.44138,0.00056
1211.38120,0.00039
1209.32103,0.00010
1207.26086,0.00000
1205.20069,0.00001
1203.14052,-0.00001
1201.08034,-0.00007
1199.02017,-0.00012
1196.96000,0.00003
1194.89983,0.00031
1192.83966,0.00065
1190.77948,0.00119
1188.71931,0.00185
1186.65914,0.00238
1184.59897,0.00292
1182.53880,0.00374
1180.47862,0.00461
1178.41845,0.00529
1176.35828,0.00614
1174.29811,0.00739
1172.23793,0.00870
1170.17776,0.00977
1168.11759,0.01063
1166.05742,0.01154
1163.99725,0.01276
1161.93707,0.01407
1159.87690,0.01513
1157.81673,0.01602
1155.75656,0.01697
1153.69639,0.01800
1151.63621,0.01899
1149.57604,0.01995
1147.51587,0.02101
1145.45570,0.02219
1143.39552,0.02345
1141.33535,0.02476
1139.27518,0.02612
1137.21501,0.02752
1135.15484,0.02899
1133.09466,0.03059
1131.03449,0.03221
1128.97432,0.03377
1126.91415,0.03528
1124.85398,0.03672
1122.79380,0.03820
1120.73363,0.03979
1118.67346,0.04149
1116.61329,0.04323
1114.55312,0.04491
1112.49294,0.04676
1110.43277,0.04862
1108.37260,0.05022
1106.31243,0.05175
1104.25225,0.05342
1102.19208,0.05518
1100.13191,0.05679
1098.07174,0.05832
1096.01157,0.05993
1093.95139,0.06147
1091.89122,0.06288
1089.83105,0.06425
1087.77088,0.06555
1085.71071,0.06673
1083.65053,0.06789
1081.59036,0.06908
1079.53019,0.07040
1077.47002,0.07175
1075.40985,0.07275
1073.34967,0.07333
1071.28950,0.07364
1069.22933,0.07384
1067.16916,0.07409
1065.10898,0.07418
1063.04881,0.07394
1060.98864,0.07341
1058.92847,0.07273
1056.86830,0.07205
1054.80812,0.07116
1052.74795,0.07002
1050.68778,0.06893
1048.62761,0.06779
1046.56744,0.06620
1044.50726,0.06419
1042.44709,0.06221
1040.38692,0.06061
1038.32675,0.05926
1036.26657,0.05774
1034.20640,0.05602
1032.14623,0.05432
1030.08606,0.05264
1028.02589,0.05107
1025.96571,0.04962
1023.90554,0.04827
1021.84537,0.04724
1019.78520,0.04638
1017.72503,0.04515
1015.66485,0.04364
1013.60468,0.04233
1011.54451,0.04133
1009.48434,0.04068
1007.42417,0.04043
1005.36399,0.04050
1003.30382,0.04090
1001.24365,0.04144
999.18348,0.04211
997.12330,0.04313
995.06313,0.04442
993.00296,0.04572
990.94279,0.04688
988.88262,0.04774
986.82244,0.04842
984.76227,0.04903
982.70210,0.04918
980.64193,0.04865
978.58176,0.04778
976.52158,0.04673
974.46141,0.04523
972.40124,0.04352
970.34107,0.04177
968.28089,0.03984
966.22072,0.03778
964.16055,0.03571
962.10038,0.03391
960.04021,0.03247
957.98003,0.03103
955.91986,0.02950
953.85969,0.02808
951.79952,0.02680
949.73935,0.02586
947.67917,0.02517
945.61900,0.02467
943.55883,0.02457
941.49866,0.02450
939.43849,0.02410
937.37831,0.02356
935.31814,0.02330
933.25797,0.02336
931.19780,0.02343
929.13762,0.02324
927.07745,0.02267
925.01728,0.02200
922.95711,0.02165
920.89694,0.02128
918.83676,0.02056
916.77659,0.01991
914.71642,0.01938
912.65625,0.01873
910.59608,0.01813
908.53590,0.01783
906.47573,0.01766
904.41556,0.01758
902.35539,0.01758
900.29522,0.01765
898.23504,0.01766
896.17487,0.01744
894.11470,0.01733
892.05453,0.01751
889.99435,0.01771
887.93418,0.01793
885.87401,0.01842
883.81384,0.01916
881.75367,0.01984
879.69349,0.02022
877.63332,0.02050
875.57315,0.02091
873.51298,0.02135
871.45281,0.02199
869.39263,0.02285
867.33246,0.02318
865.27229,0.02302
863.21212,0.02291
861.15194,0.02284
859.09177,0.02279
857.03160,0.02272
854.97143,0.02248
852.91126,0.02176
850.85108,0.02065
848.79091,0.01982
846.73074,0.01948
844.67057,0.01902
842.61040,0.01807
840.55022,0.01688
838.49005,0.01611
836.42988,0.01605
834.36971,0.01606
832.30954,0.01541
830.24936,0.01432
828.18919,0.01355
826.12902,0.01274
824.06885,0.01133
822.00867,0.01010
819.94850,0.00955
817.88833,0.00931
815.82816,0.00922
813.76799,0.00919
811.70781,0.00920
809.64764,0.00931
807.58747,0.00931
805.52730,0.00881
803.46713,0.00785
801.40695,0.00700
799.34678,0.00644
797.28661,0.00613
795.22644,0.00616
793.16627,0.00631
791.10609,0.00604
789.04592,0.00544
786.98575,0.00534
784.92558,0.00573
782.86540,0.00587
780.80523,0.00576
778.74506,0.00573
776.68489,0.00563
774.62472,0.00524
772.56454,0.00458
770.50437,0.00354
768.44420,0.00291
766.38403,0.00341
764.32386,0.00384
762.26368,0.00330
760.20351,0.00284
758.14334,0.00295
756.08317,0.00292
754.02299,0.00271
751.96282,0.00288
749.90265,0.00315
747.84248,0.00303
745.78231,0.00293
743.72213,0.00311
741.66196,0.00314
739.60179,0.00297
737.54162,0.00311
735.48145,0.00346
733.42127,0.00336
731.36110,0.00262
729.30093,0.00189
727.24076,0.00197
725.18059,0.00225
723.12041,0.00190
721.06024,0.00144
719.00007,0.00155
716.93990,0.00214
714.87972,0.00278
712.81955,0.00319
710.75938,0.00340
708.69921,0.00345
706.63904,0.00349
704.57886,0.00361
702.51869,0.00355
700.45852,0.00314
698.39835,0.00263
696.33818,0.00249
694.27800,0.00256
692.21783,0.00213
690.15766,0.00125
688.09749,0.00094
686.03731,0.00159
683.97714,0.00245
681.91697,0.00282
679.85680,0.00259
677.79663,0.00214
675.73645,0.00197
673.67628,0.00241
671.61611,0.00325
669.55594,0.00361
667.49577,0.00294
665.43559,0.00251
663.37542,0.00324
661.31525,0.00405
659.25508,0.00381
657.19491,0.00343
655.13473,0.00431
653.07456,0.00526
651.01439,0.00485
648.95422,0.00419
646.89404,0.00421
644.83387,0.00363
642.77370,0.00165
640.71353,0.00000
638.65336,0.00026
636.59318,0.00193
634.53301,0.00328
632.47284,0.00345
630.41267,0.00264
628.35250,0.00122
626.29232,0.00002
624.23215,0.00035
622.17198,0.00128
620.11181,0.00174
618.05164,0.00278
615.99146,0.00413
613.93129,0.00356
611.87112,0.00153
609.81095,0.00122
607.75077,0.00245
605.69060,0.00244
603.63043,0.00147
601.57026,0.00093
599.51009,0.00000
