3996.73391,0.00086
3994.67373,0.00100
3992.61356,0.00090
3990.55339,0.00071
3988.49322,0.00061
3986.43305,0.00059
3984.37287,0.00046
3982.31270,0.00028
3980.25253,0.00030
3978.19236,0.00071
3976.13219,0.00120
3974.07201,0.00111
3972.01184,0.00045
3969.95167,0.00000
3967.89150,0.00013
3965.83133,0.00049
3963.77115,0.00075
3961.71098,0.00061
3959.65081,0.00024
3957.59064,0.00031
3955.53046,0.00071
3953.47029,0.00094
3951.41012,0.00100
3949.34995,0.00116
3947.28978,0.00120
3945.22960,0.00131
3943.16943,0.00166
3941.10926,0.00152
3939.04909,0.00100
3936.98892,0.00067
3934.92874,0.00083
3932.86857,0.00142
3930.80840,0.00156
3928.74823,0.00085
3926.68805,0.00041
3924.62788,0.00056
3922.56771,0.00054
3920.50754,0.00075
3918.44737,0.00125
3916.38719,0.00125
3914.32702,0.00088
3912.26685,0.00090
3910.20668,0.00100
3908.14651,0.00104
3906.08633,0.00160
3904.02616,0.00201
3901.96599,0.00177
3899.90582,0.00166
3897.84565,0.00114
3895.78547,0.00062
3893.72530,0.00122
3891.66513,0.00182
3889.60496,0.00112
3887.54478,0.00117
3885.48461,0.00188
3883.42444,0.00164
3881.36427,0.00161
3879.30410,0.00088
3877.24392,0.00015
3875.18375,0.00089
3873.12358,0.00147
3871.06341,0.00187
3869.00324,0.00135
3866.94306,0.00069
3864.88289,0.00167
3862.82272,0.00194
3860.76255,0.00092
3858.70237,0.00025
3856.64220,0.00140
3854.58203,0.00378
3852.52186,0.00329
3850.46169,0.00078
3848.40151,0.00000
3846.34134,0.00041
3844.28117,0.00075
3842.22100,0.00058
3840.16083,0.00071
3838.10065,0.00087
3836.04048,0.00038
3833.98031,0.00052
3831.92014,0.00136
3829.85997,0.00178
3827.79979,0.00206
3825.73962,0.00188
3823.67945,0.00200
3821.61928,0.00250
3819.55910,0.00114
3817.49893,0.00082
3815.43876,0.00134
3813.37859,0.00059
3811.31842,0.00050
3809.25824,0.00161
3807.19807,0.00210
3805.13790,0.00080
3803.07773,0.00072
3801.01756,0.00128
3798.95738,0.00109
3796.89721,0.00188
3794.83704,0.00210
3792.77687,0.00159
3790.71670,0.00132
3788.65652,0.00135
3786.59635,0.00174
3784.53618,0.00190
3782.47601,0.00191
3780.41583,0.00255
3778.35566,0.00259
3776.29549,0.00190
3774.23532,0.00177
3772.17515,0.00242
3770.11497,0.00282
3768.05480,0.00205
3765.99463,0.00145
3763.93446,0.00120
3761.87429,0.00172
3759.81411,0.00263
3757.75394,0.00205
3755.69377,0.00079
3753.63360,0.00104
3751.57342,0.00221
3749.51325,0.00153
3747.45308,0.00061
3745.39291,0.00217
3743.33274,0.00247
3741.27256,0.00110
3739.21239,0.00114
3737.15222,0.00233
3735.09205,0.00299
3733.03188,0.00260
3730.97170,0.00171
3728.91153,0.00102
3726.85136,0.00120
3724.79119,0.00138
3722.73102,0.00141
3720.67084,0.00136
3718.61067,0.00128
3716.55050,0.00120
3714.49033,0.00167
3712.43015,0.00257
3710.36998,0.00221
3708.30981,0.00100
3706.24964,0.00073
3704.18947,0.00164
3702.12929,0.00252
3700.06912,0.00231
3698.00895,0.00192
3695.94878,0.00176
3693.88861,0.00165
3691.82843,0.00222
3689.76826,0.00301
3687.70809,0.00268
3685.64792,0.00209
3683.58775,0.00225
3681.52757,0.00246
3679.46740,0.00250
3677.40723,0.00324
3675.34706,0.00346
3673.28688,0.00173
3671.22671,0.00177
3669.16654,0.00243
3667.10637,0.00239
3665.04620,0.00327
3662.98602,0.00412
3660.92585,0.00418
3658.86568,0.00460
3656.80551,0.00544
3654.74534,0.00486
3652.68516,0.00452
3650.62499,0.00592
3648.56482,0.00672
3646.50465,0.00586
3644.44447,0.00491
3642.38430,0.00514
3640.32413,0.00607
3638.26396,0.00703
3636.20379,0.00770
3634.14361,0.00801
3632.08344,0.00848
3630.02327,0.01019
3627.96310,0.01071
3625.90293,0.00939
3623.84275,0.00908
3621.78258,0.01003
3619.72241,0.01104
3617.66224,0.01095
3615.60207,0.01081
3613.54189,0.01139
3611.48172,0.01205
3609.42155,0.01332
3607.36138,0.01425
3605.30120,0.01388
3603.24103,0.01360
3601.18086,0.01401
3599.12069,0.01457
3597.06052,0.01539
3595.00034,0.01650
3592.94017,0.01703
3590.88000,0.01735
3588.81983,0.01845
3586.75966,0.01885
3584.69948,0.01803
3582.63931,0.01796
3580.57914,0.01883
3578.51897,0.01976
3576.45879,0.02052
3574.39862,0.02096
3572.33845,0.02069
3570.27828,0.02031
3568.21811,0.02095
3566.15793,0.02199
3564.09776,0.02243
3562.03759,0.02282
3559.97742,0.02330
3557.91725,0.02360
3555.85707,0.02396
3553.79690,0.02458
3551.73673,0.02493
3549.67656,0.02511
3547.61639,0.02580
3545.55621,0.02636
3543.49604,0.02628
3541.43587,0.02634
3539.37570,0.02708
3537.31552,0.02822
3535.25535,0.02900
3533.19518,0.02913
3531.13501,0.02910
3529.07484,0.02945
3527.01466,0.03018
3524.95449,0.03076
3522.89432,0.03086
3520.83415,0.03084
3518.77398,0.03138
3516.71380,0.03221
3514.65363,0.03284
3512.59346,0.03321
3510.53329,0.03348
3508.47312,0.03364
3506.41294,0.03401
3504.35277,0.03480
3502.29260,0.03530
3500.23243,0.03560
3498.17225,0.03613
3496.11208,0.03645
3494.05191,0.03640
3491.99174,0.03651
3489.93157,0.03706
3487.87139,0.03776
3485.81122,0.03812
3483.75105,0.03839
3481.69088,0.03883
3479.63071,0.03926
3477.57053,0.03980
3475.51036,0.04029
3473.45019,0.04031
3471.39002,0.04004
3469.32984,0.04022
3467.26967,0.04119
3465.20950,0.04217
3463.14933,0.04256
3461.08916,0.04257
3459.02898,0.04268
3456.96881,0.04291
3454.90864,0.04283
3452.84847,0.04274
3450.78830,0.04319
3448.72812,0.04388
3446.66795,0.04407
3444.60778,0.04390
3442.54761,0.04422
3440.48744,0.04464
3438.42726,0.04467
3436.36709,0.04470
3434.30692,0.04525
3432.24675,0.04612
3430.18657,0.04678
3428.12640,0.04704
3426.06623,0.04697
3424.00606,0.04688
3421.94589,0.04711
3419.88571,0.04744
3417.82554,0.04770
3415.76537,0.04788
3413.70520,0.04791
3411.64503,0.04807
3409.58485,0.04834
3407.52468,0.04845
3405.46451,0.04852
3403.40434,0.04867
3401.34416,0.04865
3399.28399,0.04883
3397.22382,0.04956
3395.16365,0.05032
3393.10348,0.05079
3391.04330,0.05089
3388.98313,0.05069
3386.92296,0.05056
3384.86279,0.05065
3382.80262,0.05085
3380.74244,0.05108
3378.68227,0.05128
3376.62210,0.05135
3374.56193,0.05141
3372.50176,0.05167
3370.44158,0.05196
3368.38141,0.05206
3366.32124,0.05204
3364.26107,0.05196
3362.20089,0.05183
3360.14072,0.05185
3358.08055,0.05208
3356.02038,0.05220
3353.96021,0.05229
3351.90003,0.05267
3349.83986,0.05297
3347.77969,0.05277
3345.71952,0.05244
3343.65935,0.05260
3341.59917,0.05312
3339.53900,0.05345
3337.47883,0.05348
3335.41866,0.05341
3333.35849,0.05352
3331.29831,0.05390
3329.23814,0.05417
3327.17797,0.05420
3325.11780,0.05416
3323.05762,0.05414
3320.99745,0.05421
3318.93728,0.05421
3316.87711,0.05414
3314.81694,0.05422
3312.75676,0.05417
3310.69659,0.05382
3308.63642,0.05376
3306.57625,0.05405
3304.51608,0.05424
3302.45590,0.05435
3300.39573,0.05453
3298.33556,0.05452
3296.27539,0.05427
3294.21521,0.05420
3292.15504,0.05454
3290.09487,0.05479
3288.03470,0.05465
3285.97453,0.05439
3283.91435,0.05439
3281.85418,0.05462
3279.79401,0.05472
3277.73384,0.05463
3275.67367,0.05460
3273.61349,0.05463
3271.55332,0.05465
3269.49315,0.05498
3267.43298,0.05553
3265.37281,0.05575
3263.31263,0.05562
3261.25246,0.05537
3259.19229,0.05509
3257.13212,0.05504
3255.07194,0.05527
3253.01177,0.05532
3250.95160,0.05526
3248.89143,0.05534
3246.83126,0.05544
3244.77108,0.05552
3242.71091,0.05539
3240.65074,0.05511
3238.59057,0.05502
3236.53040,0.05516
3234.47022,0.05530
3232.41005,0.05522
3230.34988,0.05495
3228.28971,0.05487
3226.22954,0.05498
3224.16936,0.05489
3222.10919,0.05477
3220.04902,0.05486
3217.98885,0.05491
3215.92867,0.05514
3213.86850,0.05533
3211.80833,0.05496
3209.74816,0.05449
3207.68799,0.05418
3205.62781,0.05394
3203.56764,0.05408
3201.50747,0.05447
3199.44730,0.05454
3197.38713,0.05432
3195.32695,0.05416
3193.26678,0.05403
3191.20661,0.05387
3189.14644,0.05366
3187.08626,0.05331
3185.02609,0.05296
3182.96592,0.05280
3180.90575,0.05284
3178.84558,0.05282
3176.78540,0.05263
3174.72523,0.05262
3172.66506,0.05272
3170.60489,0.05257
3168.54472,0.05233
3166.48454,0.05215
3164.42437,0.05194
3162.36420,0.05180
3160.30403,0.05186
3158.24386,0.05190
3156.18368,0.05182
3154.12351,0.05200
3152.06334,0.05238
3150.00317,0.05216
3147.94299,0.05127
3145.88282,0.05052
3143.82265,0.05020
3141.76248,0.05012
3139.70231,0.05023
3137.64213,0.05027
3135.58196,0.04999
3133.52179,0.04959
3131.46162,0.04938
3129.40145,0.04936
3127.34127,0.04922
3125.28110,0.04908
3123.22093,0.04913
3121.16076,0.04890
3119.10058,0.04812
3117.04041,0.04741
3114.98024,0.04739
3112.92007,0.04772
3110.85990,0.04786
3108.79972,0.04760
3106.73955,0.04705
3104.67938,0.04639
3102.61921,0.04597
3100.55904,0.04601
3098.49886,0.04617
3096.43869,0.04617
3094.37852,0.04598
3092.31835,0.04568
3090.25818,0.04534
3088.19800,0.04501
3086.13783,0.04482
3084.07766,0.04481
3082.01749,0.04489
3079.95731,0.04481
3077.89714,0.04454
3075.83697,0.04438
3073.77680,0.04435
3071.71663,0.04423
3069.65645,0.04399
3067.59628,0.04368
3065.53611,0.04327
3063.47594,0.04272
3061.41577,0.04220
3059.35559,0.04216
3057.29542,0.04239
3055.23525,0.04236
3053.17508,0.04203
3051.11491,0.04164
3049.05473,0.04124
3046.99456,0.04092
3044.93439,0.04069
3042.87422,0.04042
3040.81404,0.04010
3038.75387,0.03994
3036.69370,0.03995
3034.63353,0.03989
3032.57336,0.03965
3030.51318,0.03924
3028.45301,0.03871
3026.39284,0.03856
3024.33267,0.03878
3022.27250,0.03869
3020.21232,0.03820
3018.15215,0.03771
3016.09198,0.03731
3014.03181,0.03700
3011.97163,0.03681
3009.91146,0.03666
3007.85129,0.03646
3005.79112,0.03623
3003.73095,0.03587
3001.67077,0.03555
2999.61060,0.03551
2997.55043,0.03555
2995.49026,0.03531
2993.43009,0.03486
2991.36991,0.03454
2989.30974,0.03449
2987.24957,0.03452
2985.18940,0.03451
2983.12923,0.03441
2981.06905,0.03420
2979.00888,0.03387
2976.94871,0.03356
2974.88854,0.03343
2972.82836,0.03351
2970.76819,0.03366
2968.70802,0.03364
2966.64785,0.03335
2964.58768,0.03304
2962.52750,0.03304
2960.46733,0.03321
2958.40716,0.03321
2956.34699,0.03304
2954.28682,0.03288
2952.22664,0.03281
2950.16647,0.03267
2948.10630,0.03252
2946.04613,0.03249
2943.98596,0.03245
2941.92578,0.03231
2939.86561,0.03225
2937.80544,0.03231
2935.74527,0.03234
2933.68509,0.03230
2931.62492,0.03215
2929.56475,0.03196
2927.50458,0.03180
2925.44441,0.03160
2923.38423,0.03130
2921.32406,0.03100
2919.26389,0.03081
2917.20372,0.03074
2915.14355,0.03072
2913.08337,0.03080
2911.02320,0.03086
2908.96303,0.03059
2906.90286,0.03026
2904.84268,0.03009
2902.78251,0.02978
2900.72234,0.02958
2898.66217,0.02977
2896.60200,0.02988
2894.54182,0.02960
2892.48165,0.02931
2890.42148,0.02930
2888.36131,0.02936
2886.30114,0.02927
2884.24096,0.02914
2882.18079,0.02898
2880.12062,0.02869
2878.06045,0.02842
2876.00028,0.02841
2873.94010,0.02859
2871.87993,0.02862
2869.81976,0.02835
2867.75959,0.02816
2865.69941,0.02824
2863.63924,0.02835
2861.57907,0.02825
2859.51890,0.02805
2857.45873,0.02786
2855.39855,0.02773
2853.33838,0.02767
2851.27821,0.02749
2849.21804,0.02720
2847.15787,0.02692
2845.09769,0.02677
2843.03752,0.02674
2840.97735,0.02669
2838.91718,0.02655
2836.85700,0.02632
2834.79683,0.02605
2832.73666,0.02582
2830.67649,0.02569
2828.61632,0.02554
2826.55614,0.02535
2824.49597,0.02527
2822.43580,0.02534
2820.37563,0.02545
2818.31546,0.02539
2816.25528,0.02506
2814.19511,0.02470
2812.13494,0.02461
2810.07477,0.02445
2808.01460,0.02415
2805.95442,0.02406
2803.89425,0.02405
2801.83408,0.02385
2799.77391,0.02360
2797.71373,0.02355
2795.65356,0.02373
2793.59339,0.02375
2791.53322,0.02350
2789.47305,0.02331
2787.41287,0.02321
2785.35270,0.02310
2783.29253,0.02313
2781.23236,0.02333
2779.17219,0.02324
2777.11201,0.02286
2775.05184,0.02259
2772.99167,0.02245
2770.93150,0.02233
2768.87133,0.02222
2766.81115,0.02217
2764.75098,0.02205
2762.69081,0.02188
2760.63064,0.02189
2758.57046,0.02181
2756.51029,0.02137
2754.45012,0.02097
2752.38995,0.02100
2750.32978,0.02122
2748.26960,0.02127
2746.20943,0.02120
2744.14926,0.02116
2742.08909,0.02112
2740.02892,0.02103
2737.96874,0.02075
2735.90857,0.02030
2733.84840,0.02012
2731.78823,0.02029
2729.72805,0.02028
2727.66788,0.02002
2725.60771,0.01981
2723.54754,0.01974
2721.48737,0.01971
2719.42719,0.01959
2717.36702,0.01946
2715.30685,0.01938
2713.24668,0.01933
2711.18651,0.01924
2709.12633,0.01911
2707.06616,0.01905
2705.00599,0.01900
2702.94582,0.01877
2700.88565,0.01850
2698.82547,0.01826
2696.76530,0.01791
2694.70513,0.01777
2692.64496,0.01791
2690.58478,0.01802
2688.52461,0.01808
2686.46444,0.01797
2684.40427,0.01756
2682.34410,0.01721
2680.28392,0.01720
2678.22375,0.01726
2676.16358,0.01712
2674.10341,0.01691
2672.04324,0.01686
2669.98306,0.01691
2667.92289,0.01685
2665.86272,0.01667
2663.80255,0.01656
2661.74238,0.01648
2659.68220,0.01631
2657.62203,0.01604
2655.56186,0.01572
2653.50169,0.01557
2651.44151,0.01561
2649.38134,0.01558
2647.32117,0.01531
2645.26100,0.01503
2643.20083,0.01498
2641.14065,0.01495
2639.08048,0.01464
2637.02031,0.01433
2634.96014,0.01438
2632.89997,0.01443
2630.83979,0.01424
2628.77962,0.01418
2626.71945,0.01433
2624.65928,0.01434
2622.59910,0.01408
2620.53893,0.01373
2618.47876,0.01343
2616.41859,0.01322
2614.35842,0.01309
2612.29824,0.01303
2610.23807,0.01308
2608.17790,0.01308
2606.11773,0.01294
2604.05756,0.01280
2601.99738,0.01258
2599.93721,0.01251
2597.87704,0.01285
2595.81687,0.01313
2593.75670,0.01311
2591.69652,0.01285
2589.63635,0.01232
2587.57618,0.01189
2585.51601,0.01200
2583.45583,0.01235
2581.39566,0.01229
2579.33549,0.01221
2577.27532,0.01249
2575.21515,0.01253
2573.15497,0.01219
2571.09480,0.01200
2569.03463,0.01213
2566.97446,0.01221
2564.91429,0.01209
2562.85411,0.01214
2560.79394,0.01236
2558.73377,0.01246
2556.67360,0.01216
2554.61342,0.01165
2552.55325,0.01160
2550.49308,0.01195
2548.43291,0.01195
2546.37274,0.01184
2544.31256,0.01206
2542.25239,0.01212
2540.19222,0.01193
2538.13205,0.01185
2536.07188,0.01191
2534.01170,0.01210
2531.95153,0.01237
2529.89136,0.01262
2527.83119,0.01271
2525.77102,0.01260
2523.71084,0.01226
2521.65067,0.01175
2519.59050,0.01162
2517.53033,0.01206
2515.47015,0.01246
2513.40998,0.01245
2511.34981,0.01232
2509.28964,0.01242
2507.22947,0.01251
2505.16929,0.01252
2503.10912,0.01285
2501.04895,0.01321
2498.98878,0.01326
2496.92861,0.01326
2494.86843,0.01332
2492.80826,0.01326
2490.74809,0.01301
2488.68792,0.01273
2486.62775,0.01255
2484.56757,0.01258
2482.50740,0.01284
2480.44723,0.01311
2478.38706,0.01321
2476.32688,0.01321
2474.26671,0.01299
2472.20654,0.01260
2470.14637,0.01260
2468.08620,0.01285
2466.02602,0.01279
2463.96585,0.01273
2461.90568,0.01292
2459.84551,0.01311
2457.78534,0.01321
2455.72516,0.01347
2453.66499,0.01369
2451.60482,0.01358
2449.54465,0.01344
2447.48447,0.01313
2445.42430,0.01262
2443.36413,0.01255
2441.30396,0.01288
2439.24379,0.01319
2437.18361,0.01333
2435.12344,0.01329
2433.06327,0.01337
2431.00310,0.01362
2428.94293,0.01364
2426.88275,0.01354
2424.82258,0.01364
2422.76241,0.01371
2420.70224,0.01360
2418.64207,0.01328
2416.58189,0.01289
2414.52172,0.01277
2412.46155,0.01287
2410.40138,0.01308
2408.34120,0.01335
2406.28103,0.01335
2404.22086,0.01316
2402.16069,0.01323
2400.10052,0.01355
2398.04034,0.01365
2395.98017,0.01363
2393.92000,0.01359
2391.85983,0.01349
2389.79966,0.01341
2387.73948,0.01336
2385.67931,0.01329
2383.61914,0.01328
2381.55897,0.01340
2379.49880,0.01366
2377.43862,0.01395
2375.37845,0.01374
2373.31828,0.01267
2371.25811,0.01154
2369.19793,0.01111
2367.13776,0.01117
2365.07759,0.01162
2363.01742,0.01225
2360.95725,0.01237
2358.89707,0.01283
2356.83690,0.01432
2354.77673,0.01484
2352.71656,0.01372
2350.65639,0.01267
2348.59621,0.01232
2346.53604,0.01184
2344.47587,0.01072
2342.41570,0.00980
2340.35552,0.01001
2338.29535,0.01063
2336.23518,0.01073
2334.17501,0.01058
2332.11484,0.01068
2330.05466,0.01154
2327.99449,0.01290
2325.93432,0.01368
2323.87415,0.01358
2321.81398,0.01325
2319.75380,0.01335
2317.69363,0.01356
2315.63346,0.01341
2313.57329,0.01309
2311.51312,0.01285
2309.45294,0.01254
2307.39277,0.01230
2305.33260,0.01259
2303.27243,0.01326
2301.21225,0.01345
2299.15208,0.01289
2297.09191,0.01221
2295.03174,0.01184
2292.97157,0.01184
2290.91139,0.01206
2288.85122,0.01207
2286.79105,0.01164
2284.73088,0.01136
2282.67071,0.01151
2280.61053,0.01168
2278.55036,0.01152
2276.49019,0.01099
2274.43002,0.01037
2272.36984,0.00993
2270.30967,0.00963
2268.24950,0.00957
2266.18933,0.01000
2264.12916,0.01047
2262.06898,0.01031
2260.00881,0.00974
2257.94864,0.00944
2255.88847,0.00958
2253.82830,0.00982
2251.76812,0.00976
2249.70795,0.00992
2247.64778,0.01075
2245.58761,0.01090
2243.52744,0.00981
2241.46726,0.00851
2239.40709,0.00799
2237.34692,0.00840
2235.28675,0.00894
2233.22657,0.00925
2231.16640,0.00954
2229.10623,0.00971
2227.04606,0.00936
2224.98589,0.00886
2222.92571,0.00915
2220.86554,0.00985
2218.80537,0.00951
2216.74520,0.00825
2214.68503,0.00771
2212.62485,0.00823
2210.56468,0.00888
2208.50451,0.00868
2206.44434,0.00807
2204.38417,0.00826
2202.32399,0.00872
2200.26382,0.00839
2198.20365,0.00751
2196.14348,0.00760
2194.08330,0.00866
2192.02313,0.00878
2189.96296,0.00797
2187.90279,0.00742
2185.84262,0.00734
2183.78244,0.00711
2181.72227,0.00646
2179.66210,0.00596
2177.60193,0.00566
2175.54176,0.00575
2173.48158,0.00670
2171.42141,0.00759
2169.36124,0.00753
2167.30107,0.00670
2165.24089,0.00540
2163.18072,0.00356
2161.12055,0.00134
2159.06038,0.00000
2157.00021,0.00033
2154.94003,0.00137
2152.87986,0.00232
2150.81969,0.00370
2148.75952,0.00498
2146.69935,0.00570
2144.63917,0.00640
2142.57900,0.00642
2140.51883,0.00547
2138.45866,0.00433
2136.39849,0.00356
2134.33831,0.00392
2132.27814,0.00524
2130.21797,0.00601
2128.15780,0.00601
2126.09762,0.00649
2124.03745,0.00722
2121.97728,0.00713
2119.91711,0.00632
2117.85694,0.00568
2115.79676,0.00597
2113.73659,0.00679
2111.67642,0.00708
2109.61625,0.00713
2107.55608,0.00752
2105.49590,0.00754
2103.43573,0.00674
2101.37556,0.00588
2099.31539,0.00592
2097.25521,0.00661
2095.19504,0.00703
2093.13487,0.00679
2091.07470,0.00679
2089.01453,0.00707
2086.95435,0.00663
2084.89418,0.00628
2082.83401,0.00681
2080.77384,0.00692
2078.71367,0.00588
2076.65349,0.00545
2074.59332,0.00639
2072.53315,0.00681
2070.47298,0.00630
2068.41281,0.00607
2066.35263,0.00580
2064.29246,0.00483
2062.23229,0.00405
2060.17212,0.00426
2058.11194,0.00563
2056.05177,0.00691
2053.99160,0.00668
2051.93143,0.00579
2049.87126,0.00518
2047.81108,0.00485
2045.75091,0.00487
2043.69074,0.00498
2041.63057,0.00482
2039.57040,0.00439
2037.51022,0.00373
2035.45005,0.00299
2033.38988,0.00231
2031.32971,0.00164
2029.26954,0.00131
2027.20936,0.00139
2025.14919,0.00166
2023.08902,0.00234
2021.02885,0.00358
2018.96867,0.00462
2016.90850,0.00362
2014.84833,0.00109
2012.78816,0.00000
2010.72799,0.00060
2008.66781,0.00156
2006.60764,0.00242
2004.54747,0.00299
2002.48730,0.00305
2000.42713,0.00284
1998.36695,0.00278
1996.30678,0.00314
1994.24661,0.00392
1992.18644,0.00435
1990.12626,0.00377
1988.06609,0.00292
1986.00592,0.00214
1983.94575,0.00169
1981.88558,0.00159
1979.82540,0.00176
1977.76523,0.00211
1975.70506,0.00254
1973.64489,0.00315
1971.58472,0.00332
1969.52454,0.00296
1967.46437,0.00284
1965.40420,0.00255
1963.34403,0.00213
1961.28386,0.00216
1959.22368,0.00240
1957.16351,0.00244
1955.10334,0.00207
1953.04317,0.00152
1950.98299,0.00163
1948.92282,0.00229
1946.86265,0.00240
1944.80248,0.00234
1942.74231,0.00266
1940.68213,0.00237
1938.62196,0.00186
1936.56179,0.00170
1934.50162,0.00180
1932.44145,0.00232
1930.38127,0.00311
1928.32110,0.00346
1926.26093,0.00304
1924.20076,0.00266
1922.14059,0.00269
1920.08041,0.00357
1918.02024,0.00493
1915.96007,0.00491
1913.89990,0.00405
1911.83972,0.00333
1909.77955,0.00305
1907.71938,0.00304
1905.65921,0.00287
1903.59904,0.00266
1901.53886,0.00281
1899.47869,0.00326
1897.41852,0.00375
1895.35835,0.00399
1893.29818,0.00363
1891.23800,0.00338
1889.17783,0.00363
1887.11766,0.00402
1885.05749,0.00451
1882.99731,0.00464
1880.93714,0.00451
1878.87697,0.00453
1876.81680,0.00467
1874.75663,0.00460
1872.69645,0.00422
1870.63628,0.00424
1868.57611,0.00433
1866.51594,0.00372
1864.45577,0.00326
1862.39559,0.00341
1860.33542,0.00370
1858.27525,0.00389
1856.21508,0.00402
1854.15491,0.00407
1852.09473,0.00409
1850.03456,0.00410
1847.97439,0.00399
1845.91422,0.00417
1843.85404,0.00425
1841.79387,0.00353
1839.73370,0.00342
1837.67353,0.00391
1835.61336,0.00401
1833.55318,0.00405
1831.49301,0.00483
1829.43284,0.00514
1827.37267,0.00442
1825.31250,0.00420
1823.25232,0.00416
1821.19215,0.00418
1819.13198,0.00442
1817.07181,0.00434
1815.01163,0.00405
1812.95146,0.00419
1810.89129,0.00464
1808.83112,0.00471
1806.77095,0.00449
1804.71077,0.00442
1802.65060,0.00480
1800.59043,0.00507
1798.53026,0.00457
1796.47009,0.00403
1794.40991,0.00440
1792.34974,0.00501
1790.28957,0.00442
1788.22940,0.00394
1786.16923,0.00453
1784.10905,0.00506
1782.04888,0.00527
1779.98871,0.00514
1777.92854,0.00448
1775.86836,0.00434
1773.80819,0.00525
1771.74802,0.00576
1769.68785,0.00519
1767.62768,0.00483
1765.56750,0.00455
1763.50733,0.00500
1761.44716,0.00551
1759.38699,0.00538
1757.32682,0.00553
1755.26664,0.00522
1753.20647,0.00539
1751.14630,0.00651
1749.08613,0.00670
1747.02596,0.00596
1744.96578,0.00552
1742.90561,0.00569
1740.84544,0.00617
1738.78527,0.00577
1736.72509,0.00558
1734.66492,0.00714
1732.60475,0.00735
1730.54458,0.00675
1728.48441,0.00685
1726.42423,0.00718
1724.36406,0.00761
1722.30389,0.00745
1720.24372,0.00770
1718.18355,0.00880
1716.12337,0.00860
1714.06320,0.00796
1712.00303,0.00805
1709.94286,0.00859
1707.88268,0.00936
1705.82251,0.00973
1703.76234,0.00914
1701.70217,0.00983
1699.64200,0.01053
1697.58182,0.01057
1695.52165,0.01149
1693.46148,0.01117
1691.40131,0.01115
1689.34114,0.01136
1687.28096,0.01161
1685.22079,0.01361
1683.16062,0.01422
1681.10045,0.01286
1679.04028,0.01266
1676.98010,0.01401
1674.91993,0.01512
1672.85976,0.01503
1670.79959,0.01606
1668.73941,0.01664
1666.67924,0.01581
1664.61907,0.01635
1662.55890,0.01752
1660.49873,0.01706
1658.43855,0.01619
1656.37838,0.01696
1654.31821,0.01958
1652.25804,0.01870
1650.19787,0.01555
1648.13769,0.01663
1646.07752,0.01838
1644.01735,0.01761
1641.95718,0.01671
1639.89701,0.01642
1637.83683,0.01726
1635.77666,0.01824
1633.71649,0.01676
1631.65632,0.01555
1629.59614,0.01596
1627.53597,0.01595
1625.47580,0.01560
1623.41563,0.01553
1621.35546,0.01436
1619.29528,0.01397
1617.23511,0.01507
1615.17494,0.01468
1613.11477,0.01382
1611.05460,0.01403
1608.99442,0.01416
1606.93425,0.01375
1604.87408,0.01342
1602.81391,0.01333
1600.75373,0.01297
1598.69356,0.01242
1596.63339,0.01207
1594.57322,0.01178
1592.51305,0.01135
1590.45287,0.01093
1588.39270,0.01051
1586.33253,0.01007
1584.27236,0.00966
1582.21219,0.00900
1580.15201,0.00829
1578.09184,0.00883
1576.03167,0.00929
1573.97150,0.00752
1571.91133,0.00702
1569.85115,0.00812
1567.79098,0.00753
1565.73081,0.00635
1563.67064,0.00537
1561.61046,0.00618
1559.55029,0.00869
1557.49012,0.00672
1555.42995,0.00429
1553.36978,0.00426
1551.30960,0.00481
1549.24943,0.00473
1547.18926,0.00405
1545.12909,0.00414
1543.06892,0.00492
1541.00874,0.00610
1538.94857,0.00489
1536.88840,0.00247
1534.82823,0.00309
1532.76805,0.00385
1530.70788,0.00285
1528.64771,0.00286
1526.58754,0.00311
1524.52737,0.00277
1522.46719,0.00330
1520.40702,0.00297
1518.34685,0.00221
1516.28668,0.00242
1514.22651,0.00194
1512.16633,0.00123
1510.10616,0.00156
1508.04599,0.00371
1505.98582,0.00386
1503.92565,0.00128
1501.86547,0.00057
1499.80530,0.00175
1497.74513,0.00288
1495.68496,0.00246
1493.62478,0.00139
1491.56461,0.00201
1489.50444,0.00304
1487.44427,0.00266
1485.38410,0.00210
1483.32392,0.00227
1481.26375,0.00251
1479.20358,0.00227
1477.14341,0.00232
1475.08324,0.00295
1473.02306,0.00376
1470.96289,0.00310
1468.90272,0.00212
1466.84255,0.00279
1464.78238,0.00331
1462.72220,0.00203
1460.66203,0.00158
1458.60186,0.00332
1456.54169,0.00390
1454.48151,0.00227
1452.42134,0.00179
1450.36117,0.00261
1448.30100,0.00343
1446.24083,0.00329
1444.18065,0.00279
1442.12048,0.00251
1440.06031,0.00241
1438.00014,0.00314
1435.93997,0.00317
1433.87979,0.00201
1431.81962,0.00217
1429.75945,0.00292
1427.69928,0.00284
1425.63910,0.00283
1423.57893,0.00279
1421.51876,0.00282
1419.45859,0.00353
1417.39842,0.00322
1415.33824,0.00257
1413.27807,0.00269
1411.21790,0.00295
1409.15773,0.00284
1407.09756,0.00284
1405.03738,0.00281
1402.97721,0.00221
1400.91704,0.00214
1398.85687,0.00253
1396.79670,0.00256
1394.73652,0.00248
1392.67635,0.00185
1390.61618,0.00157
1388.55601,0.00218
1386.49583,0.00239
1384.43566,0.00206
1382.37549,0.00216
1380.31532,0.00239
1378.25515,0.00241
1376.19497,0.00265
1374.13480,0.00291
1372.07463,0.00253
1370.01446,0.00232
1367.95429,0.00224
1365.89411,0.00203
1363.83394,0.00227
1361.77377,0.00227
1359.71360,0.00183
1357.65343,0.00172
1355.59325,0.00181
1353.53308,0.00176
1351.47291,0.00173
1349.41274,0.00175
1347.35256,0.00161
1345.29239,0.00136
1343.23222,0.00138
1341.17205,0.00192
1339.11188,0.00228
1337.05170,0.00193
1334.99153,0.00161
1332.93136,0.00167
1330.87119,0.00178
1328.81102,0.00178
1326.75084,0.00180
1324.69067,0.00188
1322.63050,0.00192
1320.57033,0.00191
1318.51015,0.00174
1316.44998,0.00151
1314.38981,0.00161
1312.32964,0.00176
1310.26947,0.00168
1308.20929,0.00158
1306.14912,0.00160
1304.08895,0.00174
1302.02878,0.00186
1299.96861,0.00190
1297.90843,0.00205
1295.84826,0.00231
1293.78809,0.00242
1291.72792,0.00232
1289.66775,0.00228
1287.60757,0.00242
1285.54740,0.00255
1283.48723,0.00263
1281.42706,0.00270
1279.36688,0.00279
1277.30671,0.00285
1275.24654,0.00289
1273.18637,0.00301
1271.12620,0.00310
1269.06602,0.00299
1267.00585,0.00287
1264.94568,0.00288
1262.88551,0.00301
1260.82534,0.00314
1258.76516,0.00314
1256.70499,0.00318
1254.64482,0.00324
1252.58465,0.00310
1250.52447,0.00284
1248.46430,0.00273
1246.40413,0.00270
1244.34396,0.00250
1242.28379,0.00213
1240.22361,0.00185
1238.16344,0.00177
1236.10327,0.00174
1234.04310,0.00168
1231.98293,0.00161
1229.92275,0.00152
1227.86258,0.00144
1225.80241,0.00135
1223.74224,0.00109
1221.68207,0.00072
1219.62189,0.00049
1217.56172,0.00050
1215.50155,0.00070
1213.44138,0.00076
1211.38120,0.00040
1209.32103,0.00000
1207.26086,-0.00001
1205.20069,0.00014
1203.14052,0.00024
1201.08034,0.00040
1199.02017,0.00059
1196.96000,0.00079
1194.89983,0.00101
1192.83966,0.00125
1190.77948,0.00159
1188.71931,0.00199
1186.65914,0.00241
1184.59897,0.00295
1182.53880,0.00360
1180.47862,0.00419
1178.41845,0.00470
1176.35828,0.00530
1174.29811,0.00604
1172.23793,0.00688
1170.17776,0.00769
1168.11759,0.00842
1166.05742,0.00915
1163.99725,0.01008
1161.93707,0.01108
1159.87690,0.01187
1157.81673,0.01254
1155.75656,0.01337
1153.69639,0.01419
1151.63621,0.01481
1149.57604,0.01550
1147.51587,0.01635
1145.45570,0.01721
1143.39552,0.01823
1141.33535,0.01933
1139.27518,0.02020
1137.21501,0.02110
1135.15484,0.02235
1133.09466,0.02371
1131.03449,0.02492
1128.97432,0.02600
1126.91415,0.02716
1124.85398,0.02843
1122.79380,0.02961
1120.73363,0.03071
1118.67346,0.03190
1116.61329,0.03318
1114.55312,0.03439
1112.49294,0.03571
1110.43277,0.03719
1108.37260,0.03861
1106.31243,0.03975
1104.25225,0.04075
1102.19208,0.04203
1100.13191,0.04342
1098.07174,0.04456
1096.01157,0.04549
1093.95139,0.04645
1091.89122,0.04743
1089.83105,0.04841
1087.77088,0.04939
1085.71071,0.05016
1083.65053,0.05095
1081.59036,0.05195
1079.53019,0.05288
1077.47002,0.05367
1075.40985,0.05416
1073.34967,0.05430
1071.28950,0.05448
1069.22933,0.05487
1067.16916,0.05513
1065.10898,0.05512
1063.04881,0.05500
1060.98864,0.05467
1058.92847,0.05403
1056.86830,0.05339
1054.80812,0.05290
1052.74795,0.05233
1050.68778,0.05156
1048.62761,0.05046
1046.56744,0.04900
1044.50726,0.04749
1042.44709,0.04618
1040.38692,0.04505
1038.32675,0.04386
1036.26657,0.04242
1034.20640,0.04082
1032.14623,0.03936
1030.08606,0.03819
1028.02589,0.03717
1025.96571,0.03616
1023.90554,0.03527
1021.84537,0.03452
1019.78520,0.03364
1017.72503,0.03260
1015.66485,0.03165
1013.60468,0.03094
1011.54451,0.03045
1009.48434,0.03030
1007.42417,0.03039
1005.36399,0.03056
1003.30382,0.03080
1001.24365,0.03114
999.18348,0.03171
997.12330,0.03259
995.06313,0.03351
993.00296,0.03446
990.94279,0.03540
988.88262,0.03617
986.82244,0.03681
984.76227,0.03720
982.70210,0.03708
980.64193,0.03654
978.58176,0.03596
976.52158,0.03535
974.46141,0.03444
972.40124,0.03328
970.34107,0.03196
968.28089,0.03050
966.22072,0.02905
964.16055,0.02755
962.10038,0.02605
960.04021,0.02489
957.98003,0.02388
955.91986,0.02262
953.85969,0.02140
951.79952,0.02074
949.73935,0.02058
947.67917,0.02036
945.61900,0.01989
943.55883,0.01961
941.49866,0.01955
939.43849,0.01928
937.37831,0.01885
935.31814,0.01872
933.25797,0.01879
931.19780,0.01870
929.13762,0.01862
927.07745,0.01852
925.01728,0.01813
922.95711,0.01752
920.89694,0.01687
918.83676,0.01643
916.77659,0.01618
914.71642,0.01590
912.65625,0.01556
910.59608,0.01508
908.53590,0.01448
906.47573,0.01417
904.41556,0.01426
902.35539,0.01444
900.29522,0.01451
898.23504,0.01437
896.17487,0.01407
894.11470,0.01398
892.05453,0.01414
889.99435,0.01447
887.93418,0.01495
885.87401,0.01540
883.81384,0.01566
881.75367,0.01587
879.69349,0.01634
877.63332,0.01692
875.57315,0.01713
873.51298,0.01730
871.45281,0.01788
869.39263,0.01846
867.33246,0.01873
865.27229,0.01898
863.21212,0.01904
861.15194,0.01872
859.09177,0.01861
857.03160,0.01860
854.97143,0.01810
852.91126,0.01723
850.85108,0.01648
848.79091,0.01623
846.73074,0.01634
844.67057,0.01610
842.61040,0.01522
840.55022,0.01456
838.49005,0.01430
836.42988,0.01373
834.36971,0.01290
832.30954,0.01216
830.24936,0.01146
828.18919,0.01074
826.12902,0.00980
824.06885,0.00879
822.00867,0.00823
819.94850,0.00820
817.88833,0.00851
815.82816,0.00882
813.76799,0.00871
811.70781,0.00812
809.64764,0.00741
807.58747,0.00677
805.52730,0.00631
803.46713,0.00629
801.40695,0.00625
799.34678,0.00584
797.28661,0.00540
795.22644,0.00486
793.16627,0.00445
791.10609,0.00455
789.04592,0.00465
786.98575,0.00458
784.92558,0.00496
782.86540,0.00554
780.80523,0.00540
778.74506,0.00503
776.68489,0.00509
774.62472,0.00511
772.56454,0.00470
770.50437,0.00402
768.44420,0.00381
766.38403,0.00424
764.32386,0.00446
762.26368,0.00424
760.20351,0.00382
758.14334,0.00300
756.08317,0.00221
754.02299,0.00206
751.96282,0.00254
749.90265,0.00331
747.84248,0.00361
745.78231,0.00311
743.72213,0.00257
741.66196,0.00249
739.60179,0.00254
737.54162,0.00257
735.48145,0.00294
733.42127,0.00335
731.36110,0.00303
729.30093,0.00228
727.24076,0.00214
725.18059,0.00260
723.12041,0.00280
721.06024,0.00258
719.00007,0.00231
716.93990,0.00237
714.87972,0.00282
712.81955,0.00328
710.75938,0.00340
708.69921,0.00345
706.63904,0.00384
704.57886,0.00415
702.51869,0.00378
700.45852,0.00305
698.39835,0.00264
696.33818,0.00262
694.27800,0.00257
692.21783,0.00218
690.15766,0.00188
688.09749,0.00216
686.03731,0.00264
683.97714,0.00288
681.91697,0.00293
679.85680,0.00293
677.79663,0.00319
675.73645,0.00380
673.67628,0.00388
671.61611,0.00316
669.55594,0.00281
667.49577,0.00321
665.43559,0.00314
663.37542,0.00296
661.31525,0.00348
659.25508,0.00433
657.19491,0.00471
655.13473,0.00466
653.07456,0.00490
651.01439,0.00553
648.95422,0.00560
646.89404,0.00459
644.83387,0.00295
642.77370,0.00149
640.71353,0.00111
638.65336,0.00209
636.59318,0.00350
634.53301,0.00414
632.47284,0.00409
630.41267,0.00392
628.35250,0.00310
626.29232,0.00160
624.23215,0.00112
622.17198,0.00118
620.11181,0.00058
618.05164,0.00000
615.99146,0.00041
613.93129,0.00092
611.87112,0.00042
609.81095,0.00086
607.75077,0.00249
605.69060,0.00315
603.63043,0.00294
601.57026,0.00191
599.51009,0.00000
