3996.73391,0.00097
3994.67373,0.00081
3992.61356,0.00058
3990.55339,0.00027
3988.49322,0.00000
3986.43305,0.00004
3984.37287,0.00027
3982.31270,0.00035
3980.25253,0.00032
3978.19236,0.00037
3976.13219,0.00032
3974.07201,0.00018
3972.01184,0.00022
3969.95167,0.00039
3967.89150,0.00037
3965.83133,0.00031
3963.77115,0.00054
3961.71098,0.00083
3959.65081,0.00075
3957.59064,0.00050
3955.53046,0.00051
3953.47029,0.00082
3951.41012,0.00113
3949.34995,0.00112
3947.28978,0.00088
3945.22960,0.00073
3943.16943,0.00076
3941.10926,0.00085
3939.04909,0.00075
3936.98892,0.00042
3934.92874,0.00020
3932.86857,0.00037
3930.80840,0.00071
3928.74823,0.00081
3926.68805,0.00071
3924.62788,0.00067
3922.56771,0.00072
3920.50754,0.00082
3918.44737,0.00087
3916.38719,0.00081
3914.32702,0.00064
3912.26685,0.00045
3910.20668,0.00039
3908.14651,0.00048
3906.08633,0.00048
3904.02616,0.00040
3901.96599,0.00054
3899.90582,0.00073
3897.84565,0.00076
3895.78547,0.00092
3893.72530,0.00134
3891.66513,0.00168
3889.60496,0.00157
3887.54478,0.00122
3885.48461,0.00101
3883.42444,0.00081
3881.36427,0.00046
3879.30410,0.00026
3877.24392,0.00042
3875.18375,0.00067
3873.12358,0.00060
3871.06341,0.00036
3869.00324,0.00037
3866.94306,0.00067
3864.88289,0.00097
3862.82272,0.00095
3860.76255,0.00077
3858.70237,0.00062
3856.64220,0.00054
3854.58203,0.00060
3852.52186,0.00063
3850.46169,0.00050
3848.40151,0.00053
3846.34134,0.00080
3844.28117,0.00113
3842.22100,0.00134
3840.16083,0.00109
3838.10065,0.00047
3836.04048,0.00007
3833.98031,0.00000
3831.92014,0.00015
3829.85997,0.00050
3827.79979,0.00081
3825.73962,0.00097
3823.67945,0.00114
3821.61928,0.00130
3819.55910,0.00125
3817.49893,0.00101
3815.43876,0.00060
3813.37859,0.00032
3811.31842,0.00043
3809.25824,0.00066
3807.19807,0.00064
3805.13790,0.00040
3803.07773,0.00020
3801.01756,0.00014
3798.95738,0.00027
3796.89721,0.00058
3794.83704,0.00080
3792.77687,0.00076
3790.71670,0.00072
3788.65652,0.00082
3786.59635,0.00098
3784.53618,0.00109
3782.47601,0.00106
3780.41583,0.00098
3778.35566,0.00099
3776.29549,0.00103
3774.23532,0.00108
3772.17515,0.00129
3770.11497,0.00159
3768.05480,0.00164
3765.99463,0.00145
3763.93446,0.00129
3761.87429,0.00122
3759.81411,0.00112
3757.75394,0.00095
3755.69377,0.00098
3753.63360,0.00117
3751.57342,0.00097
3749.51325,0.00030
3747.45308,0.00000
3745.39291,0.00048
3743.33274,0.00127
3741.27256,0.00144
3739.21239,0.00099
3737.15222,0.00055
3735.09205,0.00027
3733.03188,0.00010
3730.97170,0.00045
3728.91153,0.00108
3726.85136,0.00127
3724.79119,0.00108
3722.73102,0.00107
3720.67084,0.00116
3718.61067,0.00113
3716.55050,0.00122
3714.49033,0.00141
3712.43015,0.00142
3710.36998,0.00150
3708.30981,0.00177
3706.24964,0.00184
3704.18947,0.00157
3702.12929,0.00145
3700.06912,0.00180
3698.00895,0.00190
3695.94878,0.00137
3693.88861,0.00076
3691.82843,0.00050
3689.76826,0.00069
3687.70809,0.00112
3685.64792,0.00148
3683.58775,0.00175
3681.52757,0.00186
3679.46740,0.00169
3677.40723,0.00138
3675.34706,0.00130
3673.28688,0.00142
3671.22671,0.00139
3669.16654,0.00159
3667.10637,0.00230
3665.04620,0.00279
3662.98602,0.00289
3660.92585,0.00305
3658.86568,0.00326
3656.80551,0.00321
3654.74534,0.00305
3652.68516,0.00300
3650.62499,0.00305
3648.56482,0.00328
3646.50465,0.00375
3644.44447,0.00437
3642.38430,0.00496
3640.32413,0.00525
3638.26396,0.00529
3636.20379,0.00555
3634.14361,0.00613
3632.08344,0.00664
3630.02327,0.00706
3627.96310,0.00749
3625.90293,0.00773
3623.84275,0.00800
3621.78258,0.00817
3619.72241,0.00772
3617.66224,0.00711
3615.60207,0.00730
3613.54189,0.00812
3611.48172,0.00900
3609.42155,0.00968
3607.36138,0.01007
3605.30120,0.01048
3603.24103,0.01107
3601.18086,0.01141
3599.12069,0.01129
3597.06052,0.01108
3595.00034,0.01125
3592.94017,0.01193
3590.88000,0.01263
3588.81983,0.01301
3586.75966,0.01334
3584.69948,0.01379
3582.63931,0.01404
3580.57914,0.01416
3578.51897,0.01458
3576.45879,0.01507
3574.39862,0.01503
3572.33845,0.01478
3570.27828,0.01500
3568.21811,0.01553
3566.15793,0.01588
3564.09776,0.01614
3562.03759,0.01658
3559.97742,0.01717
3557.91725,0.01763
3555.85707,0.01783
3553.79690,0.01791
3551.73673,0.01820
3549.67656,0.01883
3547.61639,0.01943
3545.55621,0.01952
3543.49604,0.01931
3541.43587,0.01944
3539.37570,0.01992
3537.31552,0.02044
3535.25535,0.02090
3533.19518,0.02123
3531.13501,0.02121
3529.07484,0.02098
3527.01466,0.02100
3524.95449,0.02135
3522.89432,0.02195
3520.83415,0.02261
3518.77398,0.02298
3516.71380,0.02321
3514.65363,0.02363
3512.59346,0.02405
3510.53329,0.02421
3508.47312,0.02433
3506.41294,0.02467
3504.35277,0.02503
3502.29260,0.02529
3500.23243,0.02567
3498.17225,0.02601
3496.11208,0.02611
3494.05191,0.02607
3491.99174,0.02599
3489.93157,0.02606
3487.87139,0.02646
3485.81122,0.02725
3483.75105,0.02803
3481.69088,0.02841
3479.63071,0.02839
3477.57053,0.02828
3475.51036,0.02856
3473.45019,0.02923
3471.39002,0.02968
3469.32984,0.02973
3467.26967,0.02967
3465.20950,0.02977
3463.14933,0.03009
3461.08916,0.03042
3459.02898,0.03062
3456.96881,0.03064
3454.90864,0.03052
3452.84847,0.03062
3450.78830,0.03115
3448.72812,0.03190
3446.66795,0.03237
3444.60778,0.03227
3442.54761,0.03201
3440.48744,0.03198
3438.42726,0.03205
3436.36709,0.03232
3434.30692,0.03300
3432.24675,0.03370
3430.18657,0.03377
3428.12640,0.03336
3426.06623,0.03319
3424.00606,0.03356
3421.94589,0.03411
3419.88571,0.03448
3417.82554,0.03459
3415.76537,0.03451
3413.70520,0.03452
3411.64503,0.03475
3409.58485,0.03502
3407.52468,0.03520
3405.46451,0.03530
3403.40434,0.03534
3401.34416,0.03540
3399.28399,0.03562
3397.22382,0.03601
3395.16365,0.03650
3393.10348,0.03680
3391.04330,0.03680
3388.98313,0.03675
3386.92296,0.03691
3384.86279,0.03723
3382.80262,0.03749
3380.74244,0.03760
3378.68227,0.03776
3376.62210,0.03803
3374.56193,0.03822
3372.50176,0.03818
3370.44158,0.03816
3368.38141,0.03831
3366.32124,0.03824
3364.26107,0.03797
3362.20089,0.03795
3360.14072,0.03807
3358.08055,0.03806
3356.02038,0.03803
3353.96021,0.03812
3351.90003,0.03834
3349.83986,0.03860
3347.77969,0.03879
3345.71952,0.03904
3343.65935,0.03938
3341.59917,0.03938
3339.53900,0.03903
3337.47883,0.03883
3335.41866,0.03893
3333.35849,0.03908
3331.29831,0.03902
3329.23814,0.03867
3327.17797,0.03840
3325.11780,0.03847
3323.05762,0.03875
3320.99745,0.03900
3318.93728,0.03916
3316.87711,0.03925
3314.81694,0.03928
3312.75676,0.03935
3310.69659,0.03942
3308.63642,0.03935
3306.57625,0.03925
3304.51608,0.03914
3302.45590,0.03909
3300.39573,0.03934
3298.33556,0.03971
3296.27539,0.03996
3294.21521,0.04023
3292.15504,0.04032
3290.09487,0.04001
3288.03470,0.03970
3285.97453,0.03967
3283.91435,0.03981
3281.85418,0.03984
3279.79401,0.03978
3277.73384,0.03973
3275.67367,0.03964
3273.61349,0.03979
3271.55332,0.04009
3269.49315,0.03992
3267.43298,0.03944
3265.37281,0.03942
3263.31263,0.03982
3261.25246,0.03998
3259.19229,0.03989
3257.13212,0.03978
3255.07194,0.03962
3253.01177,0.03959
3250.95160,0.03980
3248.89143,0.03988
3246.83126,0.03972
3244.77108,0.03958
3242.71091,0.03964
3240.65074,0.03974
3238.59057,0.03978
3236.53040,0.03978
3234.47022,0.03984
3232.41005,0.03988
3230.34988,0.03967
3228.28971,0.03942
3226.22954,0.03937
3224.16936,0.03941
3222.10919,0.03954
3220.04902,0.03981
3217.98885,0.03987
3215.92867,0.03966
3213.86850,0.03957
3211.80833,0.03951
3209.74816,0.03932
3207.68799,0.03927
3205.62781,0.03938
3203.56764,0.03929
3201.50747,0.03914
3199.44730,0.03926
3197.38713,0.03946
3195.32695,0.03934
3193.26678,0.03912
3191.20661,0.03914
3189.14644,0.03912
3187.08626,0.03873
3185.02609,0.03825
3182.96592,0.03813
3180.90575,0.03811
3178.84558,0.03787
3176.78540,0.03772
3174.72523,0.03782
3172.66506,0.03794
3170.60489,0.03809
3168.54472,0.03826
3166.48454,0.03820
3164.42437,0.03791
3162.36420,0.03764
3160.30403,0.03758
3158.24386,0.03761
3156.18368,0.03743
3154.12351,0.03719
3152.06334,0.03703
3150.00317,0.03669
3147.94299,0.03632
3145.88282,0.03636
3143.82265,0.03658
3141.76248,0.03658
3139.70231,0.03646
3137.64213,0.03632
3135.58196,0.03608
3133.52179,0.03581
3131.46162,0.03559
3129.40145,0.03549
3127.34127,0.03556
3125.28110,0.03559
3123.22093,0.03537
3121.16076,0.03504
3119.10058,0.03479
3117.04041,0.03475
3114.98024,0.03484
3112.92007,0.03486
3110.85990,0.03478
3108.79972,0.03457
3106.73955,0.03424
3104.67938,0.03378
3102.61921,0.03324
3100.55904,0.03285
3098.49886,0.03276
3096.43869,0.03284
3094.37852,0.03294
3092.31835,0.03301
3090.25818,0.03303
3088.19800,0.03293
3086.13783,0.03268
3084.07766,0.03239
3082.01749,0.03205
3079.95731,0.03173
3077.89714,0.03166
3075.83697,0.03170
3073.77680,0.03162
3071.71663,0.03152
3069.65645,0.03143
3067.59628,0.03127
3065.53611,0.03109
3063.47594,0.03093
3061.41577,0.03078
3059.35559,0.03053
3057.29542,0.03021
3055.23525,0.03002
3053.17508,0.03003
3051.11491,0.03002
3049.05473,0.02985
3046.99456,0.02974
3044.93439,0.02963
3042.87422,0.02929
3040.81404,0.02875
3038.75387,0.02842
3036.69370,0.02852
3034.63353,0.02862
3032.57336,0.02837
3030.51318,0.02806
3028.45301,0.02798
3026.39284,0.02797
3024.33267,0.02779
3022.27250,0.02743
3020.21232,0.02710
3018.15215,0.02689
3016.09198,0.02676
3014.03181,0.02665
3011.97163,0.02651
3009.91146,0.02627
3007.85129,0.02594
3005.79112,0.02566
3003.73095,0.02556
3001.67077,0.02557
2999.61060,0.02540
2997.55043,0.02509
2995.49026,0.02498
2993.43009,0.02508
2991.36991,0.02515
2989.30974,0.02499
2987.24957,0.02471
2985.18940,0.02458
2983.12923,0.02448
2981.06905,0.02424
2979.00888,0.02390
2976.94871,0.02361
2974.88854,0.02354
2972.82836,0.02367
2970.76819,0.02381
2968.70802,0.02391
2966.64785,0.02394
2964.58768,0.02380
2962.52750,0.02350
2960.46733,0.02328
2958.40716,0.02325
2956.34699,0.02334
2954.28682,0.02351
2952.22664,0.02364
2950.16647,0.02371
2948.10630,0.02387
2946.04613,0.02377
2943.98596,0.02344
2941.92578,0.02340
2939.86561,0.02343
2937.80544,0.02328
2935.74527,0.02321
2933.68509,0.02322
2931.62492,0.02314
2929.56475,0.02286
2927.50458,0.02252
2925.44441,0.02240
2923.38423,0.02221
2921.32406,0.02183
2919.26389,0.02174
2917.20372,0.02193
2915.14355,0.02203
2913.08337,0.02198
2911.02320,0.02187
2908.96303,0.02179
2906.90286,0.02165
2904.84268,0.02146
2902.78251,0.02133
2900.72234,0.02130
2898.66217,0.02138
2896.60200,0.02135
2894.54182,0.02115
2892.48165,0.02094
2890.42148,0.02081
2888.36131,0.02081
2886.30114,0.02094
2884.24096,0.02108
2882.18079,0.02098
2880.12062,0.02067
2878.06045,0.02043
2876.00028,0.02041
2873.94010,0.02044
2871.87993,0.02028
2869.81976,0.02010
2867.75959,0.02003
2865.69941,0.01997
2863.63924,0.01991
2861.57907,0.02002
2859.51890,0.02014
2857.45873,0.01985
2855.39855,0.01929
2853.33838,0.01894
2851.27821,0.01897
2849.21804,0.01901
2847.15787,0.01871
2845.09769,0.01838
2843.03752,0.01831
2840.97735,0.01841
2838.91718,0.01838
2836.85700,0.01819
2834.79683,0.01809
2832.73666,0.01803
2830.67649,0.01792
2828.61632,0.01794
2826.55614,0.01798
2824.49597,0.01778
2822.43580,0.01758
2820.37563,0.01758
2818.31546,0.01754
2816.25528,0.01737
2814.19511,0.01726
2812.13494,0.01738
2810.07477,0.01739
2808.01460,0.01704
2805.95442,0.01668
2803.89425,0.01657
2801.83408,0.01657
2799.77391,0.01656
2797.71373,0.01651
2795.65356,0.01649
2793.59339,0.01646
2791.53322,0.01628
2789.47305,0.01599
2787.41287,0.01589
2785.35270,0.01597
2783.29253,0.01592
2781.23236,0.01572
2779.17219,0.01562
2777.11201,0.01571
2775.05184,0.01588
2772.99167,0.01595
2770.93150,0.01585
2768.87133,0.01560
2766.81115,0.01535
2764.75098,0.01532
2762.69081,0.01536
2760.63064,0.01534
2758.57046,0.01526
2756.51029,0.01515
2754.45012,0.01505
2752.38995,0.01493
2750.32978,0.01477
2748.26960,0.01471
2746.20943,0.01485
2744.14926,0.01488
2742.08909,0.01464
2740.02892,0.01445
2737.96874,0.01436
2735.90857,0.01422
2733.84840,0.01415
2731.78823,0.01409
2729.72805,0.01391
2727.66788,0.01377
2725.60771,0.01369
2723.54754,0.01362
2721.48737,0.01355
2719.42719,0.01340
2717.36702,0.01324
2715.30685,0.01317
2713.24668,0.01311
2711.18651,0.01306
2709.12633,0.01299
2707.06616,0.01283
2705.00599,0.01276
2702.94582,0.01290
2700.88565,0.01293
2698.82547,0.01277
2696.76530,0.01257
2694.70513,0.01253
2692.64496,0.01264
2690.58478,0.01254
2688.52461,0.01217
2686.46444,0.01180
2684.40427,0.01144
2682.34410,0.01128
2680.28392,0.01140
2678.22375,0.01144
2676.16358,0.01133
2674.10341,0.01137
2672.04324,0.01143
2669.98306,0.01140
2667.92289,0.01134
2665.86272,0.01127
2663.80255,0.01123
2661.74238,0.01119
2659.68220,0.01107
2657.62203,0.01095
2655.56186,0.01106
2653.50169,0.01128
2651.44151,0.01127
2649.38134,0.01094
2647.32117,0.01063
2645.26100,0.01049
2643.20083,0.01035
2641.14065,0.01014
2639.08048,0.01007
2637.02031,0.01020
2634.96014,0.01027
2632.89997,0.01011
2630.83979,0.00992
2628.77962,0.00986
2626.71945,0.00981
2624.65928,0.00967
2622.59910,0.00943
2620.53893,0.00924
2618.47876,0.00929
2616.41859,0.00926
2614.35842,0.00896
2612.29824,0.00877
2610.23807,0.00888
2608.17790,0.00908
2606.11773,0.00916
2604.05756,0.00916
2601.99738,0.00900
2599.93721,0.00870
2597.87704,0.00850
2595.81687,0.00846
2593.75670,0.00845
2591.69652,0.00825
2589.63635,0.00798
2587.57618,0.00818
2585.51601,0.00870
2583.45583,0.00883
2581.39566,0.00861
2579.33549,0.00838
2577.27532,0.00820
2575.21515,0.00816
2573.15497,0.00823
2571.09480,0.00830
2569.03463,0.00849
2566.97446,0.00864
2564.91429,0.00859
2562.85411,0.00857
2560.79394,0.00858
2558.73377,0.00844
2556.67360,0.00828
2554.61342,0.00808
2552.55325,0.00775
2550.49308,0.00761
2548.43291,0.00782
2546.37274,0.00806
2544.31256,0.00817
2542.25239,0.00818
2540.19222,0.00806
2538.13205,0.00796
2536.07188,0.00779
2534.01170,0.00763
2531.95153,0.00796
2529.89136,0.00835
2527.83119,0.00825
2525.77102,0.00778
2523.71084,0.00732
2521.65067,0.00734
2519.59050,0.00785
2517.53033,0.00817
2515.47015,0.00816
2513.40998,0.00818
2511.34981,0.00821
2509.28964,0.00810
2507.22947,0.00777
2505.16929,0.00755
2503.10912,0.00787
2501.04895,0.00834
2498.98878,0.00848
2496.92861,0.00828
2494.86843,0.00800
2492.80826,0.00788
2490.74809,0.00783
2488.68792,0.00776
2486.62775,0.00765
2484.56757,0.00755
2482.50740,0.00759
2480.44723,0.00768
2478.38706,0.00776
2476.32688,0.00797
2474.26671,0.00825
2472.20654,0.00831
2470.14637,0.00827
2468.08620,0.00835
2466.02602,0.00834
2463.96585,0.00826
2461.90568,0.00826
2459.84551,0.00835
2457.78534,0.00848
2455.72516,0.00841
2453.66499,0.00822
2451.60482,0.00820
2449.54465,0.00813
2447.48447,0.00811
2445.42430,0.00834
2443.36413,0.00857
2441.30396,0.00867
2439.24379,0.00871
2437.18361,0.00874
2435.12344,0.00870
2433.06327,0.00849
2431.00310,0.00822
2428.94293,0.00812
2426.88275,0.00818
2424.82258,0.00812
2422.76241,0.00807
2420.70224,0.00815
2418.64207,0.00824
2416.58189,0.00842
2414.52172,0.00857
2412.46155,0.00857
2410.40138,0.00873
2408.34120,0.00902
2406.28103,0.00908
2404.22086,0.00890
2402.16069,0.00887
2400.10052,0.00897
2398.04034,0.00858
2395.98017,0.00817
2393.92000,0.00809
2391.85983,0.00818
2389.79966,0.00824
2387.73948,0.00833
2385.67931,0.00844
2383.61914,0.00842
2381.55897,0.00831
2379.49880,0.00830
2377.43862,0.00847
2375.37845,0.00882
2373.31828,0.00911
2371.25811,0.00920
2369.19793,0.00955
2367.13776,0.00984
2365.07759,0.00950
2363.01742,0.01014
2360.95725,0.01166
2358.89707,0.01140
2356.83690,0.00935
2354.77673,0.00760
2352.71656,0.00705
2350.65639,0.00727
2348.59621,0.00776
2346.53604,0.00797
2344.47587,0.00753
2342.41570,0.00706
2340.35552,0.00699
2338.29535,0.00696
2336.23518,0.00743
2334.17501,0.00900
2332.11484,0.01058
2330.05466,0.01085
2327.99449,0.01026
2325.93432,0.00950
2323.87415,0.00868
2321.81398,0.00809
2319.75380,0.00798
2317.69363,0.00853
2315.63346,0.00939
2313.57329,0.00967
2311.51312,0.00937
2309.45294,0.00895
2307.39277,0.00845
2305.33260,0.00808
2303.27243,0.00814
2301.21225,0.00818
2299.15208,0.00789
2297.09191,0.00777
2295.03174,0.00816
2292.97157,0.00860
2290.91139,0.00857
2288.85122,0.00834
2286.79105,0.00836
2284.73088,0.00851
2282.67071,0.00846
2280.61053,0.00809
2278.55036,0.00735
2276.49019,0.00663
2274.43002,0.00651
2272.36984,0.00669
2270.30967,0.00667
2268.24950,0.00681
2266.18933,0.00721
2264.12916,0.00734
2262.06898,0.00727
2260.00881,0.00735
2257.94864,0.00719
2255.88847,0.00653
2253.82830,0.00604
2251.76812,0.00649
2249.70795,0.00709
2247.64778,0.00677
2245.58761,0.00636
2243.52744,0.00627
2241.46726,0.00607
2239.40709,0.00575
2237.34692,0.00552
2235.28675,0.00576
2233.22657,0.00619
2231.16640,0.00621
2229.10623,0.00612
2227.04606,0.00635
2224.98589,0.00634
2222.92571,0.00632
2220.86554,0.00693
2218.80537,0.00712
2216.74520,0.00638
2214.68503,0.00573
2212.62485,0.00575
2210.56468,0.00632
2208.50451,0.00670
2206.44434,0.00623
2204.38417,0.00517
2202.32399,0.00423
2200.26382,0.00438
2198.20365,0.00529
2196.14348,0.00542
2194.08330,0.00485
2192.02313,0.00479
2189.96296,0.00544
2187.90279,0.00580
2185.84262,0.00591
2183.78244,0.00603
2181.72227,0.00588
2179.66210,0.00606
2177.60193,0.00629
2175.54176,0.00523
2173.48158,0.00412
2171.42141,0.00488
2169.36124,0.00606
2167.30107,0.00541
2165.24089,0.00352
2163.18072,0.00271
2161.12055,0.00202
2159.06038,0.00033
2157.00021,0.00000
2154.94003,0.00088
2152.87986,0.00203
2150.81969,0.00340
2148.75952,0.00458
2146.69935,0.00478
2144.63917,0.00394
2142.57900,0.00349
2140.51883,0.00365
2138.45866,0.00353
2136.39849,0.00357
2134.33831,0.00386
2132.27814,0.00389
2130.21797,0.00383
2128.15780,0.00389
2126.09762,0.00424
2124.03745,0.00458
2121.97728,0.00487
2119.91711,0.00522
2117.85694,0.00529
2115.79676,0.00481
2113.73659,0.00425
2111.67642,0.00425
2109.61625,0.00449
2107.55608,0.00438
2105.49590,0.00412
2103.43573,0.00388
2101.37556,0.00364
2099.31539,0.00377
2097.25521,0.00416
2095.19504,0.00431
2093.13487,0.00416
2091.07470,0.00387
2089.01453,0.00364
2086.95435,0.00370
2084.89418,0.00398
2082.83401,0.00392
2080.77384,0.00373
2078.71367,0.00380
2076.65349,0.00340
2074.59332,0.00275
2072.53315,0.00305
2070.47298,0.00383
2068.41281,0.00396
2066.35263,0.00349
2064.29246,0.00332
2062.23229,0.00359
2060.17212,0.00312
2058.11194,0.00199
2056.05177,0.00188
2053.99160,0.00300
2051.93143,0.00346
2049.87126,0.00282
2047.81108,0.00272
2045.75091,0.00337
2043.69074,0.00313
2041.63057,0.00217
2039.57040,0.00237
2037.51022,0.00316
2035.45005,0.00318
2033.38988,0.00330
2031.32971,0.00386
2029.26954,0.00377
2027.20936,0.00297
2025.14919,0.00247
2023.08902,0.00289
2021.02885,0.00365
2018.96867,0.00348
2016.90850,0.00212
2014.84833,0.00093
2012.78816,0.00056
2010.72799,0.00040
2008.66781,0.00029
2006.60764,0.00034
2004.54747,0.00076
2002.48730,0.00112
2000.42713,0.00082
1998.36695,0.00050
1996.30678,0.00083
1994.24661,0.00148
1992.18644,0.00221
1990.12626,0.00301
1988.06609,0.00389
1986.00592,0.00508
1983.94575,0.00579
1981.88558,0.00502
1979.82540,0.00326
1977.76523,0.00184
1975.70506,0.00195
1973.64489,0.00301
1971.58472,0.00331
1969.52454,0.00263
1967.46437,0.00203
1965.40420,0.00175
1963.34403,0.00150
1961.28386,0.00123
1959.22368,0.00062
1957.16351,0.00000
1955.10334,0.00041
1953.04317,0.00174
1950.98299,0.00278
1948.92282,0.00273
1946.86265,0.00178
1944.80248,0.00091
1942.74231,0.00095
1940.68213,0.00151
1938.62196,0.00172
1936.56179,0.00157
1934.50162,0.00146
1932.44145,0.00160
1930.38127,0.00169
1928.32110,0.00128
1926.26093,0.00080
1924.20076,0.00088
1922.14059,0.00129
1920.08041,0.00152
1918.02024,0.00142
1915.96007,0.00120
1913.89990,0.00087
1911.83972,0.00052
1909.77955,0.00070
1907.71938,0.00125
1905.65921,0.00153
1903.59904,0.00155
1901.53886,0.00148
1899.47869,0.00153
1897.41852,0.00166
1895.35835,0.00169
1893.29818,0.00171
1891.23800,0.00175
1889.17783,0.00174
1887.11766,0.00173
1885.05749,0.00171
1882.99731,0.00162
1880.93714,0.00158
1878.87697,0.00165
1876.81680,0.00180
1874.75663,0.00193
1872.69645,0.00214
1870.63628,0.00231
1868.57611,0.00204
1866.51594,0.00161
1864.45577,0.00143
1862.39559,0.00130
1860.33542,0.00116
1858.27525,0.00108
1856.21508,0.00107
1854.15491,0.00125
1852.09473,0.00152
1850.03456,0.00168
1847.97439,0.00171
1845.91422,0.00174
1843.85404,0.00185
1841.79387,0.00184
1839.73370,0.00164
1837.67353,0.00154
1835.61336,0.00173
1833.55318,0.00194
1831.49301,0.00183
1829.43284,0.00146
1827.37267,0.00121
1825.31250,0.00121
1823.25232,0.00146
1821.19215,0.00179
1819.13198,0.00188
1817.07181,0.00175
1815.01163,0.00168
1812.95146,0.00167
1810.89129,0.00170
1808.83112,0.00189
1806.77095,0.00211
1804.71077,0.00208
1802.65060,0.00189
1800.59043,0.00182
1798.53026,0.00182
1796.47009,0.00174
1794.40991,0.00166
1792.34974,0.00165
1790.28957,0.00178
1788.22940,0.00199
1786.16923,0.00217
1784.10905,0.00230
1782.04888,0.00234
1779.98871,0.00218
1777.92854,0.00198
1775.86836,0.00187
1773.80819,0.00186
1771.74802,0.00193
1769.68785,0.00207
1767.62768,0.00220
1765.56750,0.00225
1763.50733,0.00229
1761.44716,0.00239
1759.38699,0.00263
1757.32682,0.00301
1755.26664,0.00341
1753.20647,0.00361
1751.14630,0.00345
1749.08613,0.00321
1747.02596,0.00344
1744.96578,0.00387
1742.90561,0.00403
1740.84544,0.00400
1738.78527,0.00410
1736.72509,0.00438
1734.66492,0.00452
1732.60475,0.00438
1730.54458,0.00430
1728.48441,0.00452
1726.42423,0.00492
1724.36406,0.00527
1722.30389,0.00544
1720.24372,0.00546
1718.18355,0.00540
1716.12337,0.00540
1714.06320,0.00558
1712.00303,0.00591
1709.94286,0.00627
1707.88268,0.00651
1705.82251,0.00670
1703.76234,0.00701
1701.70217,0.00732
1699.64200,0.00743
1697.58182,0.00758
1695.52165,0.00792
1693.46148,0.00828
1691.40131,0.00858
1689.34114,0.00892
1687.28096,0.00935
1685.22079,0.00970
1683.16062,0.00990
1681.10045,0.01032
1679.04028,0.01096
1676.98010,0.01149
1674.91993,0.01187
1672.85976,0.01218
1670.79959,0.01235
1668.73941,0.01250
1666.67924,0.01282
1664.61907,0.01328
1662.55890,0.01369
1660.49873,0.01401
1658.43855,0.01434
1656.37838,0.01461
1654.31821,0.01450
1652.25804,0.01406
1650.19787,0.01407
1648.13769,0.01431
1646.07752,0.01434
1644.01735,0.01435
1641.95718,0.01447
1639.89701,0.01460
1637.83683,0.01450
1635.77666,0.01407
1633.71649,0.01371
1631.65632,0.01371
1629.59614,0.01379
1627.53597,0.01370
1625.47580,0.01346
1623.41563,0.01315
1621.35546,0.01301
1619.29528,0.01303
1617.23511,0.01282
1615.17494,0.01256
1613.11477,0.01263
1611.05460,0.01270
1608.99442,0.01255
1606.93425,0.01239
1604.87408,0.01225
1602.81391,0.01199
1600.75373,0.01172
1598.69356,0.01158
1596.63339,0.01137
1594.57322,0.01093
1592.51305,0.01031
1590.45287,0.00972
1588.39270,0.00927
1586.33253,0.00893
1584.27236,0.00868
1582.21219,0.00851
1580.15201,0.00837
1578.09184,0.00808
1576.03167,0.00759
1573.97150,0.00726
1571.91133,0.00707
1569.85115,0.00653
1567.79098,0.00591
1565.73081,0.00581
1563.67064,0.00612
1561.61046,0.00642
1559.55029,0.00615
1557.49012,0.00526
1555.42995,0.00457
1553.36978,0.00423
1551.30960,0.00412
1549.24943,0.00418
1547.18926,0.00425
1545.12909,0.00404
1543.06892,0.00348
1541.00874,0.00281
1538.94857,0.00251
1536.88840,0.00271
1534.82823,0.00292
1532.76805,0.00289
1530.70788,0.00291
1528.64771,0.00294
1526.58754,0.00261
1524.52737,0.00205
1522.46719,0.00171
1520.40702,0.00172
1518.34685,0.00184
1516.28668,0.00185
1514.22651,0.00193
1512.16633,0.00213
1510.10616,0.00219
1508.04599,0.00196
1505.98582,0.00167
1503.92565,0.00160
1501.86547,0.00165
1499.80530,0.00174
1497.74513,0.00172
1495.68496,0.00155
1493.62478,0.00140
1491.56461,0.00135
1489.50444,0.00133
1487.44427,0.00137
1485.38410,0.00152
1483.32392,0.00176
1481.26375,0.00187
1479.20358,0.00179
1477.14341,0.00172
1475.08324,0.00171
1473.02306,0.00173
1470.96289,0.00195
1468.90272,0.00233
1466.84255,0.00253
1464.78238,0.00241
1462.72220,0.00233
1460.66203,0.00259
1458.60186,0.00292
1456.54169,0.00305
1454.48151,0.00313
1452.42134,0.00324
1450.36117,0.00321
1448.30100,0.00300
1446.24083,0.00289
1444.18065,0.00307
1442.12048,0.00332
1440.06031,0.00341
1438.00014,0.00319
1435.93997,0.00277
1433.87979,0.00269
1431.81962,0.00305
1429.75945,0.00348
1427.69928,0.00367
1425.63910,0.00368
1423.57893,0.00374
1421.51876,0.00390
1419.45859,0.00383
1417.39842,0.00359
1415.33824,0.00358
1413.27807,0.00377
1411.21790,0.00393
1409.15773,0.00400
1407.09756,0.00395
1405.03738,0.00374
1402.97721,0.00355
1400.91704,0.00351
1398.85687,0.00344
1396.79670,0.00329
1394.73652,0.00320
1392.67635,0.00324
1390.61618,0.00336
1388.55601,0.00346
1386.49583,0.00356
1384.43566,0.00378
1382.37549,0.00398
1380.31532,0.00393
1378.25515,0.00372
1376.19497,0.00352
1374.13480,0.00346
1372.07463,0.00355
1370.01446,0.00358
1367.95429,0.00344
1365.89411,0.00330
1363.83394,0.00320
1361.77377,0.00301
1359.71360,0.00281
1357.65343,0.00270
1355.59325,0.00266
1353.53308,0.00263
1351.47291,0.00261
1349.41274,0.00255
1347.35256,0.00244
1345.29239,0.00234
1343.23222,0.00231
1341.17205,0.00237
1339.11188,0.00248
1337.05170,0.00264
1334.99153,0.00268
1332.93136,0.00258
1330.87119,0.00243
1328.81102,0.00226
1326.75084,0.00211
1324.69067,0.00210
1322.63050,0.00223
1320.57033,0.00233
1318.51015,0.00222
1316.44998,0.00211
1314.38981,0.00217
1312.32964,0.00218
1310.26947,0.00209
1308.20929,0.00210
1306.14912,0.00224
1304.08895,0.00235
1302.02878,0.00233
1299.96861,0.00227
1297.90843,0.00229
1295.84826,0.00241
1293.78809,0.00256
1291.72792,0.00264
1289.66775,0.00262
1287.60757,0.00252
1285.54740,0.00252
1283.48723,0.00257
1281.42706,0.00261
1279.36688,0.00275
1277.30671,0.00298
1275.24654,0.00306
1273.18637,0.00295
1271.12620,0.00280
1269.06602,0.00277
1267.00585,0.00285
1264.94568,0.00281
1262.88551,0.00269
1260.82534,0.00270
1258.76516,0.00283
1256.70499,0.00286
1254.64482,0.00280
1252.58465,0.00276
1250.52447,0.00267
1248.46430,0.00254
1246.40413,0.00255
1244.34396,0.00248
1242.28379,0.00219
1240.22361,0.00199
1238.16344,0.00196
1236.10327,0.00190
1234.04310,0.00176
1231.98293,0.00168
1229.92275,0.00172
1227.86258,0.00175
1225.80241,0.00167
1223.74224,0.00147
1221.68207,0.00109
1219.62189,0.00073
1217.56172,0.00062
1215.50155,0.00055
1213.44138,0.00044
1211.38120,0.00027
1209.32103,0.00005
1207.26086,0.00000
1205.20069,0.00009
1203.14052,0.00010
1201.08034,0.00002
1199.02017,-0.00004
1196.96000,-0.00004
1194.89983,0.00003
1192.83966,0.00029
1190.77948,0.00067
1188.71931,0.00102
1186.65914,0.00140
1184.59897,0.00192
1182.53880,0.00246
1180.47862,0.00298
1178.41845,0.00345
1176.35828,0.00386
1174.29811,0.00435
1172.23793,0.00507
1170.17776,0.00587
1168.11759,0.00640
1166.05742,0.00671
1163.99725,0.00712
1161.93707,0.00766
1159.87690,0.00820
1157.81673,0.00876
1155.75656,0.00939
1153.69639,0.01013
1151.63621,0.01088
1149.57604,0.01136
1147.51587,0.01186
1145.45570,0.01271
1143.39552,0.01362
1141.33535,0.01428
1139.27518,0.01485
1137.21501,0.01561
1135.15484,0.01646
1133.09466,0.01705
1131.03449,0.01760
1128.97432,0.01852
1126.91415,0.01963
1124.85398,0.02048
1122.79380,0.02113
1120.73363,0.02178
1118.67346,0.02256
1116.61329,0.02353
1114.55312,0.02455
1112.49294,0.02554
1110.43277,0.02650
1108.37260,0.02760
1106.31243,0.02894
1104.25225,0.03025
1102.19208,0.03136
1100.13191,0.03252
1098.07174,0.03385
1096.01157,0.03502
1093.95139,0.03602
1091.89122,0.03714
1089.83105,0.03833
1087.77088,0.03939
1085.71071,0.04034
1083.65053,0.04122
1081.59036,0.04209
1079.53019,0.04318
1077.47002,0.04422
1075.40985,0.04483
1073.34967,0.04523
1071.28950,0.04569
1069.22933,0.04618
1067.16916,0.04656
1065.10898,0.04665
1063.04881,0.04670
1060.98864,0.04693
1058.92847,0.04718
1056.86830,0.04715
1054.80812,0.04673
1052.74795,0.04617
1050.68778,0.04571
1048.62761,0.04521
1046.56744,0.04451
1044.50726,0.04363
1042.44709,0.04261
1040.38692,0.04154
1038.32675,0.04035
1036.26657,0.03915
1034.20640,0.03810
1032.14623,0.03712
1030.08606,0.03607
1028.02589,0.03494
1025.96571,0.03392
1023.90554,0.03298
1021.84537,0.03206
1019.78520,0.03129
1017.72503,0.03056
1015.66485,0.02967
1013.60468,0.02874
1011.54451,0.02800
1009.48434,0.02750
1007.42417,0.02719
1005.36399,0.02688
1003.30382,0.02645
1001.24365,0.02615
999.18348,0.02619
997.12330,0.02648
995.06313,0.02703
993.00296,0.02794
990.94279,0.02891
988.88262,0.02957
986.82244,0.03006
984.76227,0.03052
982.70210,0.03063
980.64193,0.03012
978.58176,0.02924
976.52158,0.02834
974.46141,0.02748
972.40124,0.02644
970.34107,0.02510
968.28089,0.02350
966.22072,0.02198
964.16055,0.02082
962.10038,0.01973
960.04021,0.01852
957.98003,0.01751
955.91986,0.01666
953.85969,0.01594
951.79952,0.01546
949.73935,0.01500
947.67917,0.01445
945.61900,0.01395
943.55883,0.01372
941.49866,0.01385
939.43849,0.01387
937.37831,0.01336
935.31814,0.01287
933.25797,0.01311
931.19780,0.01352
929.13762,0.01347
927.07745,0.01322
925.01728,0.01292
922.95711,0.01253
920.89694,0.01197
918.83676,0.01135
916.77659,0.01084
914.71642,0.01028
912.65625,0.00971
910.59608,0.00944
908.53590,0.00929
906.47573,0.00903
904.41556,0.00889
902.35539,0.00877
900.29522,0.00832
898.23504,0.00783
896.17487,0.00783
894.11470,0.00823
892.05453,0.00850
889.99435,0.00865
887.93418,0.00890
885.87401,0.00921
883.81384,0.00947
881.75367,0.00957
879.69349,0.00967
877.63332,0.01009
875.57315,0.01060
873.51298,0.01071
871.45281,0.01081
869.39263,0.01145
867.33246,0.01239
865.27229,0.01308
863.21212,0.01314
861.15194,0.01264
859.09177,0.01207
857.03160,0.01189
854.97143,0.01177
852.91126,0.01123
850.85108,0.01062
848.79091,0.01046
846.73074,0.01062
844.67057,0.01056
842.61040,0.01004
840.55022,0.00927
838.49005,0.00877
836.42988,0.00873
834.36971,0.00869
832.30954,0.00830
830.24936,0.00777
828.18919,0.00722
826.12902,0.00658
824.06885,0.00622
822.00867,0.00627
819.94850,0.00603
817.88833,0.00547
815.82816,0.00529
813.76799,0.00506
811.70781,0.00439
809.64764,0.00398
807.58747,0.00372
805.52730,0.00319
803.46713,0.00296
801.40695,0.00329
799.34678,0.00336
797.28661,0.00276
795.22644,0.00241
793.16627,0.00265
791.10609,0.00277
789.04592,0.00259
786.98575,0.00256
784.92558,0.00294
782.86540,0.00359
780.80523,0.00386
778.74506,0.00330
776.68489,0.00264
774.62472,0.00231
772.56454,0.00219
770.50437,0.00234
768.44420,0.00251
766.38403,0.00256
764.32386,0.00253
762.26368,0.00234
760.20351,0.00195
758.14334,0.00186
756.08317,0.00226
754.02299,0.00227
751.96282,0.00166
749.90265,0.00106
747.84248,0.00061
745.78231,0.00025
743.72213,0.00014
741.66196,0.00031
739.60179,0.00044
737.54162,0.00037
735.48145,0.00057
733.42127,0.00113
731.36110,0.00109
729.30093,0.00035
727.24076,-0.00010
725.18059,0.00014
723.12041,0.00100
721.06024,0.00160
719.00007,0.00156
716.93990,0.00137
714.87972,0.00145
712.81955,0.00142
710.75938,0.00108
708.69921,0.00100
706.63904,0.00149
704.57886,0.00202
702.51869,0.00216
700.45852,0.00199
698.39835,0.00186
696.33818,0.00227
694.27800,0.00314
692.21783,0.00340
690.15766,0.00242
688.09749,0.00115
686.03731,0.00112
683.97714,0.00220
681.91697,0.00280
679.85680,0.00232
677.79663,0.00164
675.73645,0.00146
673.67628,0.00185
671.61611,0.00212
669.55594,0.00124
667.49577,0.00000
665.43559,0.00024
663.37542,0.00152
661.31525,0.00210
659.25508,0.00178
657.19491,0.00138
655.13473,0.00121
653.07456,0.00129
651.01439,0.00156
648.95422,0.00144
646.89404,0.00090
644.83387,0.00042
642.77370,0.00023
640.71353,0.00045
638.65336,0.00101
636.59318,0.00155
634.53301,0.00183
632.47284,0.00155
630.41267,0.00089
628.35250,0.00089
626.29232,0.00124
624.23215,0.00026
622.17198,-0.00051
620.11181,-0.00021
618.05164,0.00011
615.99146,-0.00022
613.93129,-0.00024
611.87112,0.00073
609.81095,0.00064
607.75077,-0.00111
605.69060,-0.00272
603.63043,-0.00268
601.57026,-0.00070
599.51009,0.00000
