3996.73391,0.00126
3994.67373,0.00114
3992.61356,0.00093
3990.55339,0.00064
3988.49322,0.00052
3986.43305,0.00056
3984.37287,0.00045
3982.31270,0.00013
3980.25253,0.00000
3978.19236,0.00019
3976.13219,0.00050
3974.07201,0.00087
3972.01184,0.00106
3969.95167,0.00097
3967.89150,0.00097
3965.83133,0.00105
3963.77115,0.00077
3961.71098,0.00026
3959.65081,0.00015
3957.59064,0.00048
3955.53046,0.00086
3953.47029,0.00102
3951.41012,0.00094
3949.34995,0.00082
3947.28978,0.00084
3945.22960,0.00094
3943.16943,0.00110
3941.10926,0.00119
3939.04909,0.00099
3936.98892,0.00059
3934.92874,0.00031
3932.86857,0.00043
3930.80840,0.00082
3928.74823,0.00112
3926.68805,0.00116
3924.62788,0.00112
3922.56771,0.00122
3920.50754,0.00143
3918.44737,0.00153
3916.38719,0.00127
3914.32702,0.00085
3912.26685,0.00056
3910.20668,0.00026
3908.14651,0.00008
3906.08633,0.00039
3904.02616,0.00080
3901.96599,0.00075
3899.90582,0.00088
3897.84565,0.00144
3895.78547,0.00152
3893.72530,0.00092
3891.66513,0.00038
3889.60496,0.00037
3887.54478,0.00072
3885.48461,0.00113
3883.42444,0.00138
3881.36427,0.00126
3879.30410,0.00085
3877.24392,0.00055
3875.18375,0.00044
3873.12358,0.00043
3871.06341,0.00063
3869.00324,0.00103
3866.94306,0.00133
3864.88289,0.00142
3862.82272,0.00146
3860.76255,0.00153
3858.70237,0.00139
3856.64220,0.00085
3854.58203,0.00030
3852.52186,0.00035
3850.46169,0.00057
3848.40151,0.00051
3846.34134,0.00035
3844.28117,0.00031
3842.22100,0.00041
3840.16083,0.00037
3838.10065,0.00019
3836.04048,0.00016
3833.98031,0.00035
3831.92014,0.00063
3829.85997,0.00078
3827.79979,0.00076
3825.73962,0.00068
3823.67945,0.00047
3821.61928,0.00011
3819.55910,0.00000
3817.49893,0.00021
3815.43876,0.00037
3813.37859,0.00046
3811.31842,0.00068
3809.25824,0.00107
3807.19807,0.00155
3805.13790,0.00167
3803.07773,0.00137
3801.01756,0.00099
3798.95738,0.00053
3796.89721,0.00010
3794.83704,0.00012
3792.77687,0.00051
3790.71670,0.00084
3788.65652,0.00087
3786.59635,0.00074
3784.53618,0.00058
3782.47601,0.00031
3780.41583,0.00002
3778.35566,0.00002
3776.29549,0.00020
3774.23532,0.00046
3772.17515,0.00097
3770.11497,0.00152
3768.05480,0.00148
3765.99463,0.00097
3763.93446,0.00070
3761.87429,0.00083
3759.81411,0.00090
3757.75394,0.00090
3755.69377,0.00123
3753.63360,0.00171
3751.57342,0.00182
3749.51325,0.00154
3747.45308,0.00113
3745.39291,0.00081
3743.33274,0.00095
3741.27256,0.00127
3739.21239,0.00122
3737.15222,0.00110
3735.09205,0.00130
3733.03188,0.00154
3730.97170,0.00157
3728.91153,0.00161
3726.85136,0.00156
3724.79119,0.00126
3722.73102,0.00096
3720.67084,0.00089
3718.61067,0.00099
3716.55050,0.00098
3714.49033,0.00080
3712.43015,0.00064
3710.36998,0.00071
3708.30981,0.00111
3706.24964,0.00132
3704.18947,0.00117
3702.12929,0.00093
3700.06912,0.00080
3698.00895,0.00067
3695.94878,0.00057
3693.88861,0.00067
3691.82843,0.00092
3689.76826,0.00139
3687.70809,0.00185
3685.64792,0.00178
3683.58775,0.00149
3681.52757,0.00151
3679.46740,0.00172
3677.40723,0.00198
3675.34706,0.00215
3673.28688,0.00179
3671.22671,0.00129
3669.16654,0.00136
3667.10637,0.00189
3665.04620,0.00227
3662.98602,0.00244
3660.92585,0.00274
3658.86568,0.00307
3656.80551,0.00304
3654.74534,0.00287
3652.68516,0.00322
3650.62499,0.00409
3648.56482,0.00474
3646.50465,0.00466
3644.44447,0.00461
3642.38430,0.00489
3640.32413,0.00501
3638.26396,0.00460
3636.20379,0.00419
3634.14361,0.00445
3632.08344,0.00503
3630.02327,0.00550
3627.96310,0.00636
3625.90293,0.00738
3623.84275,0.00791
3621.78258,0.00817
3619.72241,0.00845
3617.66224,0.00865
3615.60207,0.00868
3613.54189,0.00898
3611.48172,0.00995
3609.42155,0.01097
3607.36138,0.01140
3605.30120,0.01143
3603.24103,0.01149
3601.18086,0.01163
3599.12069,0.01172
3597.06052,0.01185
3595.00034,0.01226
3592.94017,0.01304
3590.88000,0.01383
3588.81983,0.01433
3586.75966,0.01436
3584.69948,0.01433
3582.63931,0.01474
3580.57914,0.01542
3578.51897,0.01601
3576.45879,0.01640
3574.39862,0.01669
3572.33845,0.01684
3570.27828,0.01681
3568.21811,0.01703
3566.15793,0.01769
3564.09776,0.01816
3562.03759,0.01829
3559.97742,0.01853
3557.91725,0.01907
3555.85707,0.01969
3553.79690,0.02024
3551.73673,0.02079
3549.67656,0.02125
3547.61639,0.02146
3545.55621,0.02139
3543.49604,0.02128
3541.43587,0.02150
3539.37570,0.02205
3537.31552,0.02271
3535.25535,0.02341
3533.19518,0.02398
3531.13501,0.02421
3529.07484,0.02430
3527.01466,0.02431
3524.95449,0.02417
3522.89432,0.02417
3520.83415,0.02452
3518.77398,0.02506
3516.71380,0.02576
3514.65363,0.02652
3512.59346,0.02704
3510.53329,0.02730
3508.47312,0.02776
3506.41294,0.02852
3504.35277,0.02920
3502.29260,0.02956
3500.23243,0.02960
3498.17225,0.02948
3496.11208,0.02955
3494.05191,0.03002
3491.99174,0.03061
3489.93157,0.03099
3487.87139,0.03116
3485.81122,0.03139
3483.75105,0.03180
3481.69088,0.03217
3479.63071,0.03242
3477.57053,0.03280
3475.51036,0.03333
3473.45019,0.03370
3471.39002,0.03392
3469.32984,0.03402
3467.26967,0.03403
3465.20950,0.03412
3463.14933,0.03421
3461.08916,0.03441
3459.02898,0.03498
3456.96881,0.03543
3454.90864,0.03556
3452.84847,0.03586
3450.78830,0.03647
3448.72812,0.03691
3446.66795,0.03690
3444.60778,0.03676
3442.54761,0.03684
3440.48744,0.03713
3438.42726,0.03752
3436.36709,0.03791
3434.30692,0.03824
3432.24675,0.03869
3430.18657,0.03933
3428.12640,0.03972
3426.06623,0.03964
3424.00606,0.03948
3421.94589,0.03959
3419.88571,0.03972
3417.82554,0.03976
3415.76537,0.04001
3413.70520,0.04046
3411.64503,0.04072
3409.58485,0.04081
3407.52468,0.04095
3405.46451,0.04115
3403.40434,0.04146
3401.34416,0.04155
3399.28399,0.04130
3397.22382,0.04118
3395.16365,0.04139
3393.10348,0.04164
3391.04330,0.04199
3388.98313,0.04264
3386.92296,0.04322
3384.86279,0.04315
3382.80262,0.04283
3380.74244,0.04289
3378.68227,0.04305
3376.62210,0.04304
3374.56193,0.04309
3372.50176,0.04323
3370.44158,0.04350
3368.38141,0.04402
3366.32124,0.04451
3364.26107,0.04474
3362.20089,0.04473
3360.14072,0.04467
3358.08055,0.04466
3356.02038,0.04458
3353.96021,0.04433
3351.90003,0.04413
3349.83986,0.04428
3347.77969,0.04449
3345.71952,0.04444
3343.65935,0.04440
3341.59917,0.04459
3339.53900,0.04488
3337.47883,0.04512
3335.41866,0.04510
3333.35849,0.04483
3331.29831,0.04482
3329.23814,0.04508
3327.17797,0.04518
3325.11780,0.04511
3323.05762,0.04510
3320.99745,0.04519
3318.93728,0.04534
3316.87711,0.04548
3314.81694,0.04567
3312.75676,0.04587
3310.69659,0.04598
3308.63642,0.04610
3306.57625,0.04622
3304.51608,0.04617
3302.45590,0.04603
3300.39573,0.04594
3298.33556,0.04593
3296.27539,0.04625
3294.21521,0.04662
3292.15504,0.04651
3290.09487,0.04623
3288.03470,0.04611
3285.97453,0.04611
3283.91435,0.04623
3281.85418,0.04618
3279.79401,0.04583
3277.73384,0.04562
3275.67367,0.04583
3273.61349,0.04620
3271.55332,0.04642
3269.49315,0.04652
3267.43298,0.04653
3265.37281,0.04647
3263.31263,0.04657
3261.25246,0.04678
3259.19229,0.04685
3257.13212,0.04678
3255.07194,0.04676
3253.01177,0.04674
3250.95160,0.04668
3248.89143,0.04662
3246.83126,0.04655
3244.77108,0.04651
3242.71091,0.04639
3240.65074,0.04639
3238.59057,0.04670
3236.53040,0.04694
3234.47022,0.04681
3232.41005,0.04670
3230.34988,0.04682
3228.28971,0.04675
3226.22954,0.04641
3224.16936,0.04615
3222.10919,0.04618
3220.04902,0.04648
3217.98885,0.04674
3215.92867,0.04679
3213.86850,0.04690
3211.80833,0.04707
3209.74816,0.04702
3207.68799,0.04666
3205.62781,0.04630
3203.56764,0.04617
3201.50747,0.04614
3199.44730,0.04603
3197.38713,0.04599
3195.32695,0.04613
3193.26678,0.04621
3191.20661,0.04599
3189.14644,0.04555
3187.08626,0.04516
3185.02609,0.04488
3182.96592,0.04477
3180.90575,0.04489
3178.84558,0.04507
3176.78540,0.04514
3174.72523,0.04508
3172.66506,0.04487
3170.60489,0.04457
3168.54472,0.04416
3166.48454,0.04376
3164.42437,0.04378
3162.36420,0.04416
3160.30403,0.04442
3158.24386,0.04441
3156.18368,0.04425
3154.12351,0.04395
3152.06334,0.04366
3150.00317,0.04347
3147.94299,0.04325
3145.88282,0.04306
3143.82265,0.04301
3141.76248,0.04298
3139.70231,0.04279
3137.64213,0.04237
3135.58196,0.04188
3133.52179,0.04167
3131.46162,0.04180
3129.40145,0.04195
3127.34127,0.04173
3125.28110,0.04120
3123.22093,0.04106
3121.16076,0.04145
3119.10058,0.04149
3117.04041,0.04085
3114.98024,0.04027
3112.92007,0.04015
3110.85990,0.04021
3108.79972,0.04011
3106.73955,0.03985
3104.67938,0.03971
3102.61921,0.03962
3100.55904,0.03956
3098.49886,0.03971
3096.43869,0.03979
3094.37852,0.03933
3092.31835,0.03863
3090.25818,0.03833
3088.19800,0.03847
3086.13783,0.03856
3084.07766,0.03832
3082.01749,0.03801
3079.95731,0.03781
3077.89714,0.03758
3075.83697,0.03722
3073.77680,0.03694
3071.71663,0.03698
3069.65645,0.03699
3067.59628,0.03664
3065.53611,0.03627
3063.47594,0.03609
3061.41577,0.03605
3059.35559,0.03594
3057.29542,0.03562
3055.23525,0.03546
3053.17508,0.03565
3051.11491,0.03583
3049.05473,0.03566
3046.99456,0.03513
3044.93439,0.03449
3042.87422,0.03408
3040.81404,0.03395
3038.75387,0.03374
3036.69370,0.03343
3034.63353,0.03340
3032.57336,0.03352
3030.51318,0.03335
3028.45301,0.03303
3026.39284,0.03292
3024.33267,0.03279
3022.27250,0.03235
3020.21232,0.03190
3018.15215,0.03184
3016.09198,0.03199
3014.03181,0.03195
3011.97163,0.03159
3009.91146,0.03114
3007.85129,0.03091
3005.79112,0.03078
3003.73095,0.03053
3001.67077,0.03028
2999.61060,0.03015
2997.55043,0.03009
2995.49026,0.02989
2993.43009,0.02962
2991.36991,0.02948
2989.30974,0.02958
2987.24957,0.02983
2985.18940,0.02992
2983.12923,0.02971
2981.06905,0.02939
2979.00888,0.02917
2976.94871,0.02908
2974.88854,0.02900
2972.82836,0.02895
2970.76819,0.02897
2968.70802,0.02877
2966.64785,0.02834
2964.58768,0.02799
2962.52750,0.02790
2960.46733,0.02800
2958.40716,0.02820
2956.34699,0.02823
2954.28682,0.02806
2952.22664,0.02808
2950.16647,0.02827
2948.10630,0.02822
2946.04613,0.02791
2943.98596,0.02782
2941.92578,0.02786
2939.86561,0.02770
2937.80544,0.02758
2935.74527,0.02758
2933.68509,0.02742
2931.62492,0.02727
2929.56475,0.02729
2927.50458,0.02718
2925.44441,0.02698
2923.38423,0.02697
2921.32406,0.02701
2919.26389,0.02687
2917.20372,0.02672
2915.14355,0.02657
2913.08337,0.02630
2911.02320,0.02608
2908.96303,0.02603
2906.90286,0.02608
2904.84268,0.02619
2902.78251,0.02617
2900.72234,0.02598
2898.66217,0.02581
2896.60200,0.02561
2894.54182,0.02532
2892.48165,0.02502
2890.42148,0.02469
2888.36131,0.02468
2886.30114,0.02501
2884.24096,0.02521
2882.18079,0.02520
2880.12062,0.02510
2878.06045,0.02501
2876.00028,0.02510
2873.94010,0.02521
2871.87993,0.02509
2869.81976,0.02479
2867.75959,0.02452
2865.69941,0.02437
2863.63924,0.02422
2861.57907,0.02397
2859.51890,0.02387
2857.45873,0.02406
2855.39855,0.02414
2853.33838,0.02384
2851.27821,0.02338
2849.21804,0.02312
2847.15787,0.02317
2845.09769,0.02332
2843.03752,0.02319
2840.97735,0.02279
2838.91718,0.02258
2836.85700,0.02269
2834.79683,0.02280
2832.73666,0.02275
2830.67649,0.02262
2828.61632,0.02240
2826.55614,0.02218
2824.49597,0.02196
2822.43580,0.02179
2820.37563,0.02182
2818.31546,0.02189
2816.25528,0.02173
2814.19511,0.02146
2812.13494,0.02135
2810.07477,0.02147
2808.01460,0.02166
2805.95442,0.02187
2803.89425,0.02181
2801.83408,0.02144
2799.77391,0.02111
2797.71373,0.02087
2795.65356,0.02077
2793.59339,0.02072
2791.53322,0.02070
2789.47305,0.02082
2787.41287,0.02079
2785.35270,0.02053
2783.29253,0.02026
2781.23236,0.02007
2779.17219,0.01994
2777.11201,0.01993
2775.05184,0.01998
2772.99167,0.01988
2770.93150,0.01970
2768.87133,0.01960
2766.81115,0.01962
2764.75098,0.01970
2762.69081,0.01967
2760.63064,0.01948
2758.57046,0.01922
2756.51029,0.01890
2754.45012,0.01873
2752.38995,0.01883
2750.32978,0.01892
2748.26960,0.01869
2746.20943,0.01845
2744.14926,0.01841
2742.08909,0.01835
2740.02892,0.01823
2737.96874,0.01823
2735.90857,0.01824
2733.84840,0.01802
2731.78823,0.01787
2729.72805,0.01796
2727.66788,0.01796
2725.60771,0.01769
2723.54754,0.01734
2721.48737,0.01719
2719.42719,0.01725
2717.36702,0.01720
2715.30685,0.01709
2713.24668,0.01721
2711.18651,0.01740
2709.12633,0.01734
2707.06616,0.01703
2705.00599,0.01680
2702.94582,0.01671
2700.88565,0.01658
2698.82547,0.01652
2696.76530,0.01657
2694.70513,0.01650
2692.64496,0.01635
2690.58478,0.01624
2688.52461,0.01599
2686.46444,0.01575
2684.40427,0.01571
2682.34410,0.01568
2680.28392,0.01553
2678.22375,0.01536
2676.16358,0.01535
2674.10341,0.01538
2672.04324,0.01517
2669.98306,0.01493
2667.92289,0.01476
2665.86272,0.01469
2663.80255,0.01470
2661.74238,0.01451
2659.68220,0.01430
2657.62203,0.01432
2655.56186,0.01446
2653.50169,0.01449
2651.44151,0.01423
2649.38134,0.01379
2647.32117,0.01335
2645.26100,0.01304
2643.20083,0.01293
2641.14065,0.01303
2639.08048,0.01331
2637.02031,0.01349
2634.96014,0.01328
2632.89997,0.01298
2630.83979,0.01288
2628.77962,0.01279
2626.71945,0.01247
2624.65928,0.01209
2622.59910,0.01202
2620.53893,0.01207
2618.47876,0.01186
2616.41859,0.01153
2614.35842,0.01149
2612.29824,0.01172
2610.23807,0.01184
2608.17790,0.01180
2606.11773,0.01183
2604.05756,0.01158
2601.99738,0.01113
2599.93721,0.01094
2597.87704,0.01088
2595.81687,0.01094
2593.75670,0.01118
2591.69652,0.01132
2589.63635,0.01128
2587.57618,0.01115
2585.51601,0.01086
2583.45583,0.01058
2581.39566,0.01068
2579.33549,0.01080
2577.27532,0.01059
2575.21515,0.01064
2573.15497,0.01109
2571.09480,0.01124
2569.03463,0.01098
2566.97446,0.01073
2564.91429,0.01063
2562.85411,0.01059
2560.79394,0.01032
2558.73377,0.00997
2556.67360,0.01009
2554.61342,0.01033
2552.55325,0.01019
2550.49308,0.01004
2548.43291,0.00993
2546.37274,0.00993
2544.31256,0.01032
2542.25239,0.01064
2540.19222,0.01050
2538.13205,0.01040
2536.07188,0.01069
2534.01170,0.01080
2531.95153,0.01042
2529.89136,0.01029
2527.83119,0.01040
2525.77102,0.01040
2523.71084,0.01080
2521.65067,0.01149
2519.59050,0.01179
2517.53033,0.01160
2515.47015,0.01125
2513.40998,0.01072
2511.34981,0.01008
2509.28964,0.01001
2507.22947,0.01065
2505.16929,0.01108
2503.10912,0.01084
2501.04895,0.01057
2498.98878,0.01068
2496.92861,0.01080
2494.86843,0.01067
2492.80826,0.01071
2490.74809,0.01113
2488.68792,0.01140
2486.62775,0.01135
2484.56757,0.01124
2482.50740,0.01120
2480.44723,0.01140
2478.38706,0.01159
2476.32688,0.01151
2474.26671,0.01128
2472.20654,0.01105
2470.14637,0.01094
2468.08620,0.01074
2466.02602,0.01059
2463.96585,0.01079
2461.90568,0.01110
2459.84551,0.01146
2457.78534,0.01191
2455.72516,0.01228
2453.66499,0.01246
2451.60482,0.01225
2449.54465,0.01181
2447.48447,0.01195
2445.42430,0.01258
2443.36413,0.01274
2441.30396,0.01229
2439.24379,0.01175
2437.18361,0.01173
2435.12344,0.01213
2433.06327,0.01230
2431.00310,0.01216
2428.94293,0.01188
2426.88275,0.01164
2424.82258,0.01171
2422.76241,0.01198
2420.70224,0.01192
2418.64207,0.01154
2416.58189,0.01144
2414.52172,0.01182
2412.46155,0.01195
2410.40138,0.01145
2408.34120,0.01109
2406.28103,0.01129
2404.22086,0.01162
2402.16069,0.01164
2400.10052,0.01140
2398.04034,0.01110
2395.98017,0.01108
2393.92000,0.01121
2391.85983,0.01145
2389.79966,0.01170
2387.73948,0.01171
2385.67931,0.01153
2383.61914,0.01150
2381.55897,0.01171
2379.49880,0.01196
2377.43862,0.01207
2375.37845,0.01215
2373.31828,0.01156
2371.25811,0.00977
2369.19793,0.00771
2367.13776,0.00649
2365.07759,0.00722
2363.01742,0.01035
2360.95725,0.01161
2358.89707,0.01172
2356.83690,0.01282
2354.77673,0.01417
2352.71656,0.01339
2350.65639,0.01041
2348.59621,0.00943
2346.53604,0.01258
2344.47587,0.01290
2342.41570,0.01224
2340.35552,0.01223
2338.29535,0.01173
2336.23518,0.01133
2334.17501,0.01128
2332.11484,0.01155
2330.05466,0.01207
2327.99449,0.01293
2325.93432,0.01261
2323.87415,0.01237
2321.81398,0.01258
2319.75380,0.01315
2317.69363,0.01264
2315.63346,0.01183
2313.57329,0.01110
2311.51312,0.01066
2309.45294,0.01049
2307.39277,0.01027
2305.33260,0.01011
2303.27243,0.00999
2301.21225,0.00992
2299.15208,0.00973
2297.09191,0.00982
2295.03174,0.01037
2292.97157,0.01080
2290.91139,0.01091
2288.85122,0.01094
2286.79105,0.01091
2284.73088,0.01100
2282.67071,0.01113
2280.61053,0.01086
2278.55036,0.01031
2276.49019,0.00981
2274.43002,0.00923
2272.36984,0.00877
2270.30967,0.00866
2268.24950,0.00848
2266.18933,0.00830
2264.12916,0.00867
2262.06898,0.00922
2260.00881,0.00937
2257.94864,0.00932
2255.88847,0.00930
2253.82830,0.00903
2251.76812,0.00879
2249.70795,0.00873
2247.64778,0.00853
2245.58761,0.00836
2243.52744,0.00827
2241.46726,0.00777
2239.40709,0.00706
2237.34692,0.00660
2235.28675,0.00645
2233.22657,0.00655
2231.16640,0.00670
2229.10623,0.00693
2227.04606,0.00709
2224.98589,0.00698
2222.92571,0.00743
2220.86554,0.00846
2218.80537,0.00883
2216.74520,0.00830
2214.68503,0.00789
2212.62485,0.00845
2210.56468,0.00903
2208.50451,0.00875
2206.44434,0.00811
2204.38417,0.00741
2202.32399,0.00716
2200.26382,0.00720
2198.20365,0.00666
2196.14348,0.00605
2194.08330,0.00546
2192.02313,0.00413
2189.96296,0.00372
2187.90279,0.00505
2185.84262,0.00563
2183.78244,0.00490
2181.72227,0.00435
2179.66210,0.00469
2177.60193,0.00526
2175.54176,0.00509
2173.48158,0.00483
2171.42141,0.00518
2169.36124,0.00535
2167.30107,0.00419
2165.24089,0.00275
2163.18072,0.00281
2161.12055,0.00362
2159.06038,0.00305
2157.00021,0.00209
2154.94003,0.00363
2152.87986,0.00537
2150.81969,0.00472
2148.75952,0.00403
2146.69935,0.00441
2144.63917,0.00461
2142.57900,0.00444
2140.51883,0.00394
2138.45866,0.00340
2136.39849,0.00311
2134.33831,0.00315
2132.27814,0.00325
2130.21797,0.00275
2128.15780,0.00239
2126.09762,0.00336
2124.03745,0.00461
2121.97728,0.00466
2119.91711,0.00423
2117.85694,0.00481
2115.79676,0.00625
2113.73659,0.00688
2111.67642,0.00580
2109.61625,0.00426
2107.55608,0.00374
2105.49590,0.00437
2103.43573,0.00529
2101.37556,0.00526
2099.31539,0.00447
2097.25521,0.00415
2095.19504,0.00437
2093.13487,0.00448
2091.07470,0.00466
2089.01453,0.00530
2086.95435,0.00573
2084.89418,0.00522
2082.83401,0.00430
2080.77384,0.00402
2078.71367,0.00393
2076.65349,0.00306
2074.59332,0.00250
2072.53315,0.00319
2070.47298,0.00363
2068.41281,0.00310
2066.35263,0.00274
2064.29246,0.00272
2062.23229,0.00267
2060.17212,0.00289
2058.11194,0.00306
2056.05177,0.00328
2053.99160,0.00416
2051.93143,0.00429
2049.87126,0.00281
2047.81108,0.00165
2045.75091,0.00187
2043.69074,0.00232
2041.63057,0.00238
2039.57040,0.00282
2037.51022,0.00395
2035.45005,0.00438
2033.38988,0.00382
2031.32971,0.00362
2029.26954,0.00302
2027.20936,0.00123
2025.14919,0.00000
2023.08902,0.00041
2021.02885,0.00158
2018.96867,0.00265
2016.90850,0.00300
2014.84833,0.00258
2012.78816,0.00238
2010.72799,0.00244
2008.66781,0.00186
2006.60764,0.00134
2004.54747,0.00213
2002.48730,0.00324
2000.42713,0.00380
1998.36695,0.00423
1996.30678,0.00397
1994.24661,0.00316
1992.18644,0.00303
1990.12626,0.00319
1988.06609,0.00335
1986.00592,0.00390
1983.94575,0.00421
1981.88558,0.00412
1979.82540,0.00383
1977.76523,0.00279
1975.70506,0.00153
1973.64489,0.00114
1971.58472,0.00082
1969.52454,0.00000
1967.46437,0.00032
1965.40420,0.00193
1963.34403,0.00250
1961.28386,0.00158
1959.22368,0.00073
1957.16351,0.00081
1955.10334,0.00153
1953.04317,0.00176
1950.98299,0.00087
1948.92282,0.00042
1946.86265,0.00130
1944.80248,0.00161
1942.74231,0.00053
1940.68213,-0.00018
1938.62196,-0.00007
1936.56179,0.00038
1934.50162,0.00129
1932.44145,0.00182
1930.38127,0.00159
1928.32110,0.00143
1926.26093,0.00158
1924.20076,0.00189
1922.14059,0.00232
1920.08041,0.00254
1918.02024,0.00254
1915.96007,0.00262
1913.89990,0.00288
1911.83972,0.00313
1909.77955,0.00290
1907.71938,0.00216
1905.65921,0.00168
1903.59904,0.00172
1901.53886,0.00187
1899.47869,0.00204
1897.41852,0.00211
1895.35835,0.00192
1893.29818,0.00168
1891.23800,0.00153
1889.17783,0.00155
1887.11766,0.00191
1885.05749,0.00227
1882.99731,0.00241
1880.93714,0.00247
1878.87697,0.00261
1876.81680,0.00288
1874.75663,0.00317
1872.69645,0.00317
1870.63628,0.00281
1868.57611,0.00255
1866.51594,0.00270
1864.45577,0.00308
1862.39559,0.00349
1860.33542,0.00362
1858.27525,0.00332
1856.21508,0.00286
1854.15491,0.00252
1852.09473,0.00242
1850.03456,0.00271
1847.97439,0.00325
1845.91422,0.00350
1843.85404,0.00332
1841.79387,0.00320
1839.73370,0.00327
1837.67353,0.00341
1835.61336,0.00361
1833.55318,0.00371
1831.49301,0.00362
1829.43284,0.00345
1827.37267,0.00330
1825.31250,0.00325
1823.25232,0.00327
1821.19215,0.00312
1819.13198,0.00293
1817.07181,0.00310
1815.01163,0.00342
1812.95146,0.00352
1810.89129,0.00353
1808.83112,0.00355
1806.77095,0.00349
1804.71077,0.00342
1802.65060,0.00344
1800.59043,0.00356
1798.53026,0.00373
1796.47009,0.00375
1794.40991,0.00359
1792.34974,0.00350
1790.28957,0.00364
1788.22940,0.00380
1786.16923,0.00387
1784.10905,0.00399
1782.04888,0.00421
1779.98871,0.00432
1777.92854,0.00427
1775.86836,0.00413
1773.80819,0.00394
1771.74802,0.00379
1769.68785,0.00386
1767.62768,0.00405
1765.56750,0.00412
1763.50733,0.00407
1761.44716,0.00415
1759.38699,0.00443
1757.32682,0.00478
1755.26664,0.00503
1753.20647,0.00507
1751.14630,0.00502
1749.08613,0.00503
1747.02596,0.00503
1744.96578,0.00517
1742.90561,0.00559
1740.84544,0.00607
1738.78527,0.00629
1736.72509,0.00628
1734.66492,0.00636
1732.60475,0.00662
1730.54458,0.00680
1728.48441,0.00697
1726.42423,0.00716
1724.36406,0.00716
1722.30389,0.00691
1720.24372,0.00663
1718.18355,0.00658
1716.12337,0.00692
1714.06320,0.00747
1712.00303,0.00788
1709.94286,0.00794
1707.88268,0.00785
1705.82251,0.00808
1703.76234,0.00867
1701.70217,0.00909
1699.64200,0.00919
1697.58182,0.00943
1695.52165,0.01001
1693.46148,0.01065
1691.40131,0.01114
1689.34114,0.01148
1687.28096,0.01160
1685.22079,0.01151
1683.16062,0.01174
1681.10045,0.01241
1679.04028,0.01291
1676.98010,0.01308
1674.91993,0.01313
1672.85976,0.01329
1670.79959,0.01387
1668.73941,0.01486
1666.67924,0.01548
1664.61907,0.01551
1662.55890,0.01551
1660.49873,0.01569
1658.43855,0.01581
1656.37838,0.01575
1654.31821,0.01565
1652.25804,0.01573
1650.19787,0.01602
1648.13769,0.01626
1646.07752,0.01638
1644.01735,0.01649
1641.95718,0.01647
1639.89701,0.01625
1637.83683,0.01588
1635.77666,0.01555
1633.71649,0.01555
1631.65632,0.01572
1629.59614,0.01567
1627.53597,0.01539
1625.47580,0.01508
1623.41563,0.01480
1621.35546,0.01460
1619.29528,0.01439
1617.23511,0.01412
1615.17494,0.01395
1613.11477,0.01392
1611.05460,0.01400
1608.99442,0.01406
1606.93425,0.01394
1604.87408,0.01362
1602.81391,0.01322
1600.75373,0.01286
1598.69356,0.01251
1596.63339,0.01207
1594.57322,0.01157
1592.51305,0.01106
1590.45287,0.01060
1588.39270,0.01023
1586.33253,0.00991
1584.27236,0.00956
1582.21219,0.00927
1580.15201,0.00910
1578.09184,0.00877
1576.03167,0.00812
1573.97150,0.00760
1571.91133,0.00737
1569.85115,0.00712
1567.79098,0.00685
1565.73081,0.00665
1563.67064,0.00642
1561.61046,0.00607
1559.55029,0.00555
1557.49012,0.00518
1555.42995,0.00506
1553.36978,0.00491
1551.30960,0.00481
1549.24943,0.00482
1547.18926,0.00471
1545.12909,0.00434
1543.06892,0.00393
1541.00874,0.00384
1538.94857,0.00398
1536.88840,0.00405
1534.82823,0.00395
1532.76805,0.00373
1530.70788,0.00355
1528.64771,0.00338
1526.58754,0.00311
1524.52737,0.00282
1522.46719,0.00255
1520.40702,0.00232
1518.34685,0.00208
1516.28668,0.00183
1514.22651,0.00169
1512.16633,0.00171
1510.10616,0.00179
1508.04599,0.00164
1505.98582,0.00131
1503.92565,0.00145
1501.86547,0.00174
1499.80530,0.00170
1497.74513,0.00150
1495.68496,0.00158
1493.62478,0.00178
1491.56461,0.00174
1489.50444,0.00162
1487.44427,0.00172
1485.38410,0.00187
1483.32392,0.00187
1481.26375,0.00185
1479.20358,0.00195
1477.14341,0.00204
1475.08324,0.00189
1473.02306,0.00168
1470.96289,0.00186
1468.90272,0.00230
1466.84255,0.00251
1464.78238,0.00246
1462.72220,0.00250
1460.66203,0.00262
1458.60186,0.00251
1456.54169,0.00229
1454.48151,0.00230
1452.42134,0.00239
1450.36117,0.00231
1448.30100,0.00217
1446.24083,0.00219
1444.18065,0.00233
1442.12048,0.00248
1440.06031,0.00260
1438.00014,0.00254
1435.93997,0.00240
1433.87979,0.00239
1431.81962,0.00248
1429.75945,0.00264
1427.69928,0.00284
1425.63910,0.00293
1423.57893,0.00303
1421.51876,0.00319
1419.45859,0.00315
1417.39842,0.00297
1415.33824,0.00301
1413.27807,0.00325
1411.21790,0.00344
1409.15773,0.00341
1407.09756,0.00322
1405.03738,0.00302
1402.97721,0.00287
1400.91704,0.00281
1398.85687,0.00282
1396.79670,0.00278
1394.73652,0.00266
1392.67635,0.00257
1390.61618,0.00253
1388.55601,0.00257
1386.49583,0.00272
1384.43566,0.00283
1382.37549,0.00278
1380.31532,0.00270
1378.25515,0.00266
1376.19497,0.00264
1374.13480,0.00268
1372.07463,0.00279
1370.01446,0.00282
1367.95429,0.00266
1365.89411,0.00245
1363.83394,0.00224
1361.77377,0.00206
1359.71360,0.00193
1357.65343,0.00183
1355.59325,0.00174
1353.53308,0.00170
1351.47291,0.00175
1349.41274,0.00185
1347.35256,0.00185
1345.29239,0.00171
1343.23222,0.00153
1341.17205,0.00148
1339.11188,0.00157
1337.05170,0.00172
1334.99153,0.00187
1332.93136,0.00192
1330.87119,0.00184
1328.81102,0.00173
1326.75084,0.00178
1324.69067,0.00187
1322.63050,0.00183
1320.57033,0.00167
1318.51015,0.00153
1316.44998,0.00156
1314.38981,0.00163
1312.32964,0.00164
1310.26947,0.00167
1308.20929,0.00176
1306.14912,0.00185
1304.08895,0.00197
1302.02878,0.00212
1299.96861,0.00211
1297.90843,0.00193
1295.84826,0.00187
1293.78809,0.00207
1291.72792,0.00234
1289.66775,0.00252
1287.60757,0.00266
1285.54740,0.00270
1283.48723,0.00261
1281.42706,0.00253
1279.36688,0.00255
1277.30671,0.00274
1275.24654,0.00296
1273.18637,0.00299
1271.12620,0.00293
1269.06602,0.00296
1267.00585,0.00294
1264.94568,0.00287
1262.88551,0.00288
1260.82534,0.00288
1258.76516,0.00281
1256.70499,0.00279
1254.64482,0.00288
1252.58465,0.00297
1250.52447,0.00290
1248.46430,0.00266
1246.40413,0.00243
1244.34396,0.00237
1242.28379,0.00233
1240.22361,0.00210
1238.16344,0.00180
1236.10327,0.00171
1234.04310,0.00175
1231.98293,0.00165
1229.92275,0.00134
1227.86258,0.00104
1225.80241,0.00086
1223.74224,0.00068
1221.68207,0.00046
1219.62189,0.00028
1217.56172,0.00012
1215.50155,0.00000
1213.44138,0.00004
1211.38120,0.00009
1209.32103,0.00001
1207.26086,-0.00009
1205.20069,-0.00013
1203.14052,-0.00013
1201.08034,-0.00009
1199.02017,-0.00001
1196.96000,0.00017
1194.89983,0.00045
1192.83966,0.00073
1190.77948,0.00100
1188.71931,0.00132
1186.65914,0.00183
1184.59897,0.00259
1182.53880,0.00339
1180.47862,0.00405
1178.41845,0.00471
1176.35828,0.00555
1174.29811,0.00651
1172.23793,0.00746
1170.17776,0.00837
1168.11759,0.00934
1166.05742,0.01040
1163.99725,0.01143
1161.93707,0.01238
1159.87690,0.01321
1157.81673,0.01395
1155.75656,0.01476
1153.69639,0.01570
1151.63621,0.01674
1149.57604,0.01779
1147.51587,0.01882
1145.45570,0.01994
1143.39552,0.02113
1141.33535,0.02235
1139.27518,0.02368
1137.21501,0.02499
1135.15484,0.02612
1133.09466,0.02730
1131.03449,0.02857
1128.97432,0.02979
1126.91415,0.03104
1124.85398,0.03241
1122.79380,0.03382
1120.73363,0.03514
1118.67346,0.03627
1116.61329,0.03736
1114.55312,0.03859
1112.49294,0.03995
1110.43277,0.04130
1108.37260,0.04259
1106.31243,0.04381
1104.25225,0.04496
1102.19208,0.04604
1100.13191,0.04694
1098.07174,0.04785
1096.01157,0.04910
1093.95139,0.05047
1091.89122,0.05152
1089.83105,0.05234
1087.77088,0.05331
1085.71071,0.05439
1083.65053,0.05524
1081.59036,0.05582
1079.53019,0.05639
1077.47002,0.05703
1075.40985,0.05776
1073.34967,0.05861
1071.28950,0.05937
1069.22933,0.05986
1067.16916,0.05991
1065.10898,0.05953
1063.04881,0.05893
1060.98864,0.05838
1058.92847,0.05799
1056.86830,0.05755
1054.80812,0.05686
1052.74795,0.05605
1050.68778,0.05529
1048.62761,0.05436
1046.56744,0.05310
1044.50726,0.05165
1042.44709,0.05007
1040.38692,0.04848
1038.32675,0.04712
1036.26657,0.04585
1034.20640,0.04459
1032.14623,0.04344
1030.08606,0.04235
1028.02589,0.04115
1025.96571,0.03999
1023.90554,0.03905
1021.84537,0.03803
1019.78520,0.03692
1017.72503,0.03598
1015.66485,0.03506
1013.60468,0.03420
1011.54451,0.03378
1009.48434,0.03382
1007.42417,0.03397
1005.36399,0.03395
1003.30382,0.03403
1001.24365,0.03457
999.18348,0.03540
997.12330,0.03635
995.06313,0.03744
993.00296,0.03852
990.94279,0.03932
988.88262,0.03986
986.82244,0.04045
984.76227,0.04103
982.70210,0.04118
980.64193,0.04089
978.58176,0.04049
976.52158,0.03984
974.46141,0.03862
972.40124,0.03715
970.34107,0.03576
968.28089,0.03447
966.22072,0.03316
964.16055,0.03168
962.10038,0.03022
960.04021,0.02903
957.98003,0.02799
955.91986,0.02692
953.85969,0.02571
951.79952,0.02450
949.73935,0.02372
947.67917,0.02330
945.61900,0.02290
943.55883,0.02237
941.49866,0.02184
939.43849,0.02160
937.37831,0.02160
935.31814,0.02166
933.25797,0.02151
931.19780,0.02098
929.13762,0.02041
927.07745,0.02012
925.01728,0.01995
922.95711,0.01973
920.89694,0.01942
918.83676,0.01894
916.77659,0.01833
914.71642,0.01760
912.65625,0.01682
910.59608,0.01629
908.53590,0.01618
906.47573,0.01626
904.41556,0.01617
902.35539,0.01585
900.29522,0.01559
898.23504,0.01571
896.17487,0.01603
894.11470,0.01627
892.05453,0.01644
889.99435,0.01633
887.93418,0.01620
885.87401,0.01675
883.81384,0.01775
881.75367,0.01832
879.69349,0.01840
877.63332,0.01870
875.57315,0.01931
873.51298,0.01980
871.45281,0.02035
869.39263,0.02080
867.33246,0.02074
865.27229,0.02053
863.21212,0.02052
861.15194,0.02078
859.09177,0.02122
857.03160,0.02144
854.97143,0.02132
852.91126,0.02085
850.85108,0.01981
848.79091,0.01883
846.73074,0.01878
844.67057,0.01877
842.61040,0.01759
840.55022,0.01605
838.49005,0.01521
836.42988,0.01480
834.36971,0.01443
832.30954,0.01394
830.24936,0.01330
828.18919,0.01243
826.12902,0.01138
824.06885,0.01077
822.00867,0.01072
819.94850,0.01061
817.88833,0.01008
815.82816,0.00944
813.76799,0.00905
811.70781,0.00903
809.64764,0.00915
807.58747,0.00890
805.52730,0.00824
803.46713,0.00761
801.40695,0.00697
799.34678,0.00640
797.28661,0.00650
795.22644,0.00700
793.16627,0.00701
791.10609,0.00668
789.04592,0.00621
786.98575,0.00532
784.92558,0.00448
782.86540,0.00438
780.80523,0.00514
778.74506,0.00624
776.68489,0.00678
774.62472,0.00615
772.56454,0.00493
770.50437,0.00437
768.44420,0.00445
766.38403,0.00448
764.32386,0.00438
762.26368,0.00422
760.20351,0.00401
758.14334,0.00364
756.08317,0.00339
754.02299,0.00376
751.96282,0.00424
749.90265,0.00410
747.84248,0.00353
745.78231,0.00313
743.72213,0.00337
741.66196,0.00377
739.60179,0.00345
737.54162,0.00288
735.48145,0.00280
733.42127,0.00298
731.36110,0.00336
729.30093,0.00368
727.24076,0.00336
725.18059,0.00301
723.12041,0.00343
721.06024,0.00433
719.00007,0.00412
716.93990,0.00342
714.87972,0.00320
712.81955,0.00313
710.75938,0.00297
708.69921,0.00317
706.63904,0.00366
704.57886,0.00392
702.51869,0.00388
700.45852,0.00351
698.39835,0.00317
696.33818,0.00342
694.27800,0.00347
692.21783,0.00259
690.15766,0.00159
688.09749,0.00131
686.03731,0.00141
683.97714,0.00130
681.91697,0.00109
679.85680,0.00098
677.79663,0.00089
675.73645,0.00088
673.67628,0.00082
671.61611,0.00064
669.55594,0.00416
667.49577,0.00658
665.43559,0.00000
663.37542,0.00082
661.31525,0.00373
659.25508,0.00509
657.19491,0.00466
655.13473,0.00378
653.07456,0.00349
651.01439,0.00331
648.95422,0.00346
646.89404,0.00406
644.83387,0.00411
642.77370,0.00261
640.71353,0.00071
638.65336,0.00000
636.59318,0.00073
634.53301,0.00198
632.47284,0.00310
630.41267,0.00364
628.35250,0.00299
626.29232,0.00177
624.23215,0.00151
622.17198,0.00132
620.11181,0.00139
618.05164,0.00245
615.99146,0.00261
613.93129,0.00111
611.87112,0.00026
609.81095,0.00027
607.75077,0.00011
605.69060,-0.00013
603.63043,0.00067
601.57026,0.00206
599.51009,0.00000
