Created as New Dataset,Sample 346 By Analyst Date Thursday, February 06 2025
cm-1,%T
4000.00,90.75
3999.00,90.75
3998.00,90.75
3997.00,90.75
3996.00,90.75
3995.00,90.75
3994.00,90.74
3993.00,90.74
3992.00,90.74
3991.00,90.74
3990.00,90.75
3989.00,90.75
3988.00,90.75
3987.00,90.75
3986.00,90.75
3985.00,90.75
3984.00,90.75
3983.00,90.75
3982.00,90.75
3981.00,90.75
3980.00,90.75
3979.00,90.75
3978.00,90.75
3977.00,90.75
3976.00,90.75
3975.00,90.75
3974.00,90.75
3973.00,90.75
3972.00,90.75
3971.00,90.75
3970.00,90.75
3969.00,90.75
3968.00,90.75
3967.00,90.75
3966.00,90.75
3965.00,90.75
3964.00,90.75
3963.00,90.75
3962.00,90.75
3961.00,90.75
3960.00,90.74
3959.00,90.74
3958.00,90.74
3957.00,90.74
3956.00,90.74
3955.00,90.74
3954.00,90.74
3953.00,90.74
3952.00,90.74
3951.00,90.74
3950.00,90.73
3949.00,90.73
3948.00,90.73
3947.00,90.73
3946.00,90.73
3945.00,90.73
3944.00,90.73
3943.00,90.73
3942.00,90.72
3941.00,90.71
3940.00,90.72
3939.00,90.72
3938.00,90.72
3937.00,90.73
3936.00,90.73
3935.00,90.73
3934.00,90.73
3933.00,90.74
3932.00,90.74
3931.00,90.74
3930.00,90.73
3929.00,90.74
3928.00,90.74
3927.00,90.74
3926.00,90.74
3925.00,90.74
3924.00,90.74
3923.00,90.74
3922.00,90.74
3921.00,90.74
3920.00,90.75
3919.00,90.75
3918.00,90.74
3917.00,90.74
3916.00,90.74
3915.00,90.74
3914.00,90.74
3913.00,90.74
3912.00,90.74
3911.00,90.74
3910.00,90.73
3909.00,90.74
3908.00,90.74
3907.00,90.74
3906.00,90.74
3905.00,90.74
3904.00,90.74
3903.00,90.74
3902.00,90.75
3901.00,90.75
3900.00,90.75
3899.00,90.74
3898.00,90.73
3897.00,90.72
3896.00,90.73
3895.00,90.73
3894.00,90.73
3893.00,90.72
3892.00,90.71
3891.00,90.70
3890.00,90.70
3889.00,90.70
3888.00,90.71
3887.00,90.72
3886.00,90.73
3885.00,90.73
3884.00,90.73
3883.00,90.74
3882.00,90.75
3881.00,90.74
3880.00,90.72
3879.00,90.71
3878.00,90.71
3877.00,90.73
3876.00,90.75
3875.00,90.75
3874.00,90.74
3873.00,90.72
3872.00,90.72
3871.00,90.73
3870.00,90.74
3869.00,90.74
3868.00,90.74
3867.00,90.75
3866.00,90.77
3865.00,90.77
3864.00,90.76
3863.00,90.74
3862.00,90.73
3861.00,90.73
3860.00,90.73
3859.00,90.73
3858.00,90.70
3857.00,90.66
3856.00,90.63
3855.00,90.64
3854.00,90.68
3853.00,90.69
3852.00,90.69
3851.00,90.70
3850.00,90.73
3849.00,90.74
3848.00,90.74
3847.00,90.73
3846.00,90.73
3845.00,90.73
3844.00,90.73
3843.00,90.73
3842.00,90.72
3841.00,90.71
3840.00,90.71
3839.00,90.71
3838.00,90.72
3837.00,90.73
3836.00,90.74
3835.00,90.74
3834.00,90.74
3833.00,90.73
3832.00,90.72
3831.00,90.71
3830.00,90.71
3829.00,90.72
3828.00,90.72
3827.00,90.73
3826.00,90.72
3825.00,90.72
3824.00,90.73
3823.00,90.76
3822.00,90.77
3821.00,90.76
3820.00,90.74
3819.00,90.71
3818.00,90.72
3817.00,90.73
3816.00,90.74
3815.00,90.73
3814.00,90.72
3813.00,90.72
3812.00,90.73
3811.00,90.73
3810.00,90.71
3809.00,90.71
3808.00,90.72
3807.00,90.73
3806.00,90.73
3805.00,90.73
3804.00,90.74
3803.00,90.74
3802.00,90.75
3801.00,90.74
3800.00,90.73
3799.00,90.73
3798.00,90.74
3797.00,90.74
3796.00,90.71
3795.00,90.69
3794.00,90.68
3793.00,90.68
3792.00,90.68
3791.00,90.68
3790.00,90.67
3789.00,90.67
3788.00,90.67
3787.00,90.68
3786.00,90.68
3785.00,90.67
3784.00,90.67
3783.00,90.67
3782.00,90.68
3781.00,90.69
3780.00,90.69
3779.00,90.68
3778.00,90.66
3777.00,90.65
3776.00,90.66
3775.00,90.67
3774.00,90.67
3773.00,90.68
3772.00,90.68
3771.00,90.69
3770.00,90.69
3769.00,90.69
3768.00,90.68
3767.00,90.69
3766.00,90.69
3765.00,90.69
3764.00,90.68
3763.00,90.69
3762.00,90.70
3761.00,90.71
3760.00,90.71
3759.00,90.70
3758.00,90.69
3757.00,90.69
3756.00,90.68
3755.00,90.68
3754.00,90.68
3753.00,90.70
3752.00,90.72
3751.00,90.73
3750.00,90.74
3749.00,90.74
3748.00,90.74
3747.00,90.72
3746.00,90.71
3745.00,90.71
3744.00,90.71
3743.00,90.71
3742.00,90.72
3741.00,90.75
3740.00,90.76
3739.00,90.75
3738.00,90.75
3737.00,90.76
3736.00,90.78
3735.00,90.77
3734.00,90.75
3733.00,90.73
3732.00,90.72
3731.00,90.71
3730.00,90.71
3729.00,90.71
3728.00,90.72
3727.00,90.72
3726.00,90.72
3725.00,90.72
3724.00,90.71
3723.00,90.71
3722.00,90.71
3721.00,90.70
3720.00,90.70
3719.00,90.70
3718.00,90.70
3717.00,90.71
3716.00,90.71
3715.00,90.72
3714.00,90.74
3713.00,90.75
3712.00,90.76
3711.00,90.75
3710.00,90.73
3709.00,90.72
3708.00,90.71
3707.00,90.70
3706.00,90.70
3705.00,90.70
3704.00,90.70
3703.00,90.69
3702.00,90.68
3701.00,90.66
3700.00,90.64
3699.00,90.64
3698.00,90.64
3697.00,90.64
3696.00,90.63
3695.00,90.63
3694.00,90.63
3693.00,90.63
3692.00,90.63
3691.00,90.61
3690.00,90.60
3689.00,90.59
3688.00,90.58
3687.00,90.58
3686.00,90.59
3685.00,90.59
3684.00,90.58
3683.00,90.58
3682.00,90.57
3681.00,90.57
3680.00,90.57
3679.00,90.56
3678.00,90.56
3677.00,90.58
3676.00,90.59
3675.00,90.59
3674.00,90.57
3673.00,90.57
3672.00,90.59
3671.00,90.61
3670.00,90.61
3669.00,90.58
3668.00,90.56
3667.00,90.56
3666.00,90.56
3665.00,90.57
3664.00,90.56
3663.00,90.56
3662.00,90.56
3661.00,90.56
3660.00,90.56
3659.00,90.56
3658.00,90.57
3657.00,90.58
3656.00,90.59
3655.00,90.60
3654.00,90.61
3653.00,90.63
3652.00,90.65
3651.00,90.67
3650.00,90.68
3649.00,90.68
3648.00,90.66
3647.00,90.64
3646.00,90.63
3645.00,90.63
3644.00,90.62
3643.00,90.62
3642.00,90.62
3641.00,90.61
3640.00,90.61
3639.00,90.60
3638.00,90.61
3637.00,90.61
3636.00,90.61
3635.00,90.61
3634.00,90.61
3633.00,90.60
3632.00,90.59
3631.00,90.60
3630.00,90.61
3629.00,90.62
3628.00,90.60
3627.00,90.60
3626.00,90.61
3625.00,90.62
3624.00,90.62
3623.00,90.62
3622.00,90.61
3621.00,90.61
3620.00,90.61
3619.00,90.61
3618.00,90.60
3617.00,90.60
3616.00,90.61
3615.00,90.62
3614.00,90.62
3613.00,90.61
3612.00,90.60
3611.00,90.60
3610.00,90.61
3609.00,90.62
3608.00,90.62
3607.00,90.61
3606.00,90.60
3605.00,90.60
3604.00,90.60
3603.00,90.61
3602.00,90.60
3601.00,90.60
3600.00,90.60
3599.00,90.59
3598.00,90.59
3597.00,90.59
3596.00,90.59
3595.00,90.58
3594.00,90.58
3593.00,90.57
3592.00,90.57
3591.00,90.57
3590.00,90.58
3589.00,90.59
3588.00,90.58
3587.00,90.57
3586.00,90.56
3585.00,90.56
3584.00,90.56
3583.00,90.55
3582.00,90.55
3581.00,90.54
3580.00,90.54
3579.00,90.53
3578.00,90.53
3577.00,90.52
3576.00,90.52
3575.00,90.52
3574.00,90.52
3573.00,90.51
3572.00,90.52
3571.00,90.52
3570.00,90.53
3569.00,90.54
3568.00,90.55
3567.00,90.54
3566.00,90.53
3565.00,90.52
3564.00,90.52
3563.00,90.52
3562.00,90.51
3561.00,90.51
3560.00,90.50
3559.00,90.50
3558.00,90.50
3557.00,90.50
3556.00,90.50
3555.00,90.50
3554.00,90.50
3553.00,90.50
3552.00,90.50
3551.00,90.50
3550.00,90.50
3549.00,90.51
3548.00,90.51
3547.00,90.51
3546.00,90.51
3545.00,90.51
3544.00,90.51
3543.00,90.50
3542.00,90.50
3541.00,90.50
3540.00,90.49
3539.00,90.49
3538.00,90.49
3537.00,90.49
3536.00,90.49
3535.00,90.48
3534.00,90.48
3533.00,90.49
3532.00,90.49
3531.00,90.49
3530.00,90.49
3529.00,90.49
3528.00,90.49
3527.00,90.48
3526.00,90.48
3525.00,90.48
3524.00,90.49
3523.00,90.48
3522.00,90.48
3521.00,90.48
3520.00,90.47
3519.00,90.47
3518.00,90.47
3517.00,90.47
3516.00,90.48
3515.00,90.48
3514.00,90.48
3513.00,90.48
3512.00,90.48
3511.00,90.49
3510.00,90.49
3509.00,90.49
3508.00,90.49
3507.00,90.49
3506.00,90.50
3505.00,90.50
3504.00,90.50
3503.00,90.50
3502.00,90.50
3501.00,90.50
3500.00,90.50
3499.00,90.51
3498.00,90.51
3497.00,90.51
3496.00,90.51
3495.00,90.51
3494.00,90.50
3493.00,90.50
3492.00,90.50
3491.00,90.50
3490.00,90.50
3489.00,90.50
3488.00,90.50
3487.00,90.50
3486.00,90.50
3485.00,90.50
3484.00,90.50
3483.00,90.50
3482.00,90.49
3481.00,90.49
3480.00,90.49
3479.00,90.48
3478.00,90.48
3477.00,90.48
3476.00,90.47
3475.00,90.47
3474.00,90.47
3473.00,90.46
3472.00,90.46
3471.00,90.46
3470.00,90.46
3469.00,90.46
3468.00,90.46
3467.00,90.46
3466.00,90.45
3465.00,90.45
3464.00,90.45
3463.00,90.45
3462.00,90.45
3461.00,90.44
3460.00,90.44
3459.00,90.44
3458.00,90.44
3457.00,90.44
3456.00,90.44
3455.00,90.44
3454.00,90.44
3453.00,90.44
3452.00,90.44
3451.00,90.44
3450.00,90.44
3449.00,90.44
3448.00,90.44
3447.00,90.44
3446.00,90.44
3445.00,90.43
3444.00,90.43
3443.00,90.43
3442.00,90.43
3441.00,90.42
3440.00,90.42
3439.00,90.42
3438.00,90.42
3437.00,90.42
3436.00,90.42
3435.00,90.42
3434.00,90.41
3433.00,90.41
3432.00,90.41
3431.00,90.41
3430.00,90.41
3429.00,90.40
3428.00,90.40
3427.00,90.40
3426.00,90.40
3425.00,90.40
3424.00,90.40
3423.00,90.40
3422.00,90.40
3421.00,90.40
3420.00,90.40
3419.00,90.40
3418.00,90.40
3417.00,90.41
3416.00,90.41
3415.00,90.41
3414.00,90.42
3413.00,90.42
3412.00,90.42
3411.00,90.43
3410.00,90.44
3409.00,90.44
3408.00,90.44
3407.00,90.45
3406.00,90.45
3405.00,90.46
3404.00,90.46
3403.00,90.47
3402.00,90.48
3401.00,90.48
3400.00,90.49
3399.00,90.50
3398.00,90.50
3397.00,90.51
3396.00,90.51
3395.00,90.51
3394.00,90.52
3393.00,90.52
3392.00,90.52
3391.00,90.52
3390.00,90.53
3389.00,90.53
3388.00,90.53
3387.00,90.53
3386.00,90.53
3385.00,90.53
3384.00,90.54
3383.00,90.54
3382.00,90.54
3381.00,90.53
3380.00,90.53
3379.00,90.53
3378.00,90.53
3377.00,90.53
3376.00,90.53
3375.00,90.53
3374.00,90.53
3373.00,90.53
3372.00,90.53
3371.00,90.53
3370.00,90.53
3369.00,90.53
3368.00,90.54
3367.00,90.54
3366.00,90.53
3365.00,90.53
3364.00,90.53
3363.00,90.53
3362.00,90.53
3361.00,90.53
3360.00,90.53
3359.00,90.53
3358.00,90.53
3357.00,90.53
3356.00,90.53
3355.00,90.53
3354.00,90.53
3353.00,90.53
3352.00,90.53
3351.00,90.53
3350.00,90.53
3349.00,90.54
3348.00,90.54
3347.00,90.54
3346.00,90.54
3345.00,90.54
3344.00,90.54
3343.00,90.54
3342.00,90.54
3341.00,90.54
3340.00,90.54
3339.00,90.54
3338.00,90.54
3337.00,90.53
3336.00,90.53
3335.00,90.53
3334.00,90.53
3333.00,90.52
3332.00,90.52
3331.00,90.52
3330.00,90.52
3329.00,90.52
3328.00,90.51
3327.00,90.51
3326.00,90.51
3325.00,90.51
3324.00,90.50
3323.00,90.50
3322.00,90.50
3321.00,90.50
3320.00,90.49
3319.00,90.49
3318.00,90.49
3317.00,90.48
3316.00,90.48
3315.00,90.48
3314.00,90.48
3313.00,90.48
3312.00,90.47
3311.00,90.47
3310.00,90.47
3309.00,90.47
3308.00,90.46
3307.00,90.46
3306.00,90.46
3305.00,90.46
3304.00,90.46
3303.00,90.46
3302.00,90.45
3301.00,90.45
3300.00,90.45
3299.00,90.46
3298.00,90.46
3297.00,90.46
3296.00,90.47
3295.00,90.47
3294.00,90.48
3293.00,90.48
3292.00,90.48
3291.00,90.49
3290.00,90.49
3289.00,90.49
3288.00,90.50
3287.00,90.50
3286.00,90.50
3285.00,90.51
3284.00,90.51
3283.00,90.51
3282.00,90.51
3281.00,90.52
3280.00,90.52
3279.00,90.52
3278.00,90.53
3277.00,90.53
3276.00,90.53
3275.00,90.53
3274.00,90.53
3273.00,90.53
3272.00,90.53
3271.00,90.53
3270.00,90.53
3269.00,90.53
3268.00,90.53
3267.00,90.53
3266.00,90.53
3265.00,90.53
3264.00,90.53
3263.00,90.52
3262.00,90.52
3261.00,90.52
3260.00,90.52
3259.00,90.52
3258.00,90.52
3257.00,90.52
3256.00,90.52
3255.00,90.52
3254.00,90.52
3253.00,90.52
3252.00,90.52
3251.00,90.52
3250.00,90.52
3249.00,90.52
3248.00,90.52
3247.00,90.52
3246.00,90.53
3245.00,90.53
3244.00,90.52
3243.00,90.52
3242.00,90.52
3241.00,90.53
3240.00,90.53
3239.00,90.53
3238.00,90.53
3237.00,90.53
3236.00,90.53
3235.00,90.53
3234.00,90.53
3233.00,90.53
3232.00,90.52
3231.00,90.52
3230.00,90.52
3229.00,90.52
3228.00,90.52
3227.00,90.52
3226.00,90.51
3225.00,90.51
3224.00,90.51
3223.00,90.51
3222.00,90.50
3221.00,90.50
3220.00,90.50
3219.00,90.50
3218.00,90.49
3217.00,90.49
3216.00,90.49
3215.00,90.48
3214.00,90.48
3213.00,90.48
3212.00,90.48
3211.00,90.47
3210.00,90.47
3209.00,90.47
3208.00,90.46
3207.00,90.46
3206.00,90.46
3205.00,90.46
3204.00,90.45
3203.00,90.45
3202.00,90.45
3201.00,90.45
3200.00,90.45
3199.00,90.45
3198.00,90.45
3197.00,90.45
3196.00,90.45
3195.00,90.45
3194.00,90.45
3193.00,90.45
3192.00,90.45
3191.00,90.45
3190.00,90.45
3189.00,90.46
3188.00,90.46
3187.00,90.46
3186.00,90.46
3185.00,90.46
3184.00,90.46
3183.00,90.46
3182.00,90.46
3181.00,90.46
3180.00,90.46
3179.00,90.46
3178.00,90.46
3177.00,90.46
3176.00,90.45
3175.00,90.45
3174.00,90.46
3173.00,90.46
3172.00,90.46
3171.00,90.45
3170.00,90.45
3169.00,90.45
3168.00,90.45
3167.00,90.45
3166.00,90.45
3165.00,90.44
3164.00,90.44
3163.00,90.44
3162.00,90.44
3161.00,90.43
3160.00,90.43
3159.00,90.43
3158.00,90.43
3157.00,90.42
3156.00,90.42
3155.00,90.42
3154.00,90.42
3153.00,90.42
3152.00,90.42
3151.00,90.42
3150.00,90.42
3149.00,90.42
3148.00,90.42
3147.00,90.42
3146.00,90.42
3145.00,90.42
3144.00,90.43
3143.00,90.43
3142.00,90.43
3141.00,90.43
3140.00,90.43
3139.00,90.43
3138.00,90.43
3137.00,90.43
3136.00,90.43
3135.00,90.43
3134.00,90.43
3133.00,90.43
3132.00,90.43
3131.00,90.43
3130.00,90.43
3129.00,90.43
3128.00,90.43
3127.00,90.43
3126.00,90.43
3125.00,90.43
3124.00,90.43
3123.00,90.43
3122.00,90.42
3121.00,90.42
3120.00,90.42
3119.00,90.42
3118.00,90.42
3117.00,90.41
3116.00,90.41
3115.00,90.40
3114.00,90.40
3113.00,90.39
3112.00,90.39
3111.00,90.38
3110.00,90.38
3109.00,90.37
3108.00,90.37
3107.00,90.36
3106.00,90.36
3105.00,90.36
3104.00,90.35
3103.00,90.35
3102.00,90.35
3101.00,90.35
3100.00,90.35
3099.00,90.34
3098.00,90.34
3097.00,90.34
3096.00,90.34
3095.00,90.34
3094.00,90.34
3093.00,90.34
3092.00,90.34
3091.00,90.33
3090.00,90.33
3089.00,90.33
3088.00,90.33
3087.00,90.32
3086.00,90.32
3085.00,90.32
3084.00,90.32
3083.00,90.31
3082.00,90.31
3081.00,90.31
3080.00,90.30
3079.00,90.30
3078.00,90.30
3077.00,90.30
3076.00,90.29
3075.00,90.29
3074.00,90.29
3073.00,90.29
3072.00,90.28
3071.00,90.28
3070.00,90.28
3069.00,90.29
3068.00,90.29
3067.00,90.29
3066.00,90.29
3065.00,90.29
3064.00,90.28
3063.00,90.28
3062.00,90.28
3061.00,90.28
3060.00,90.28
3059.00,90.28
3058.00,90.28
3057.00,90.27
3056.00,90.27
3055.00,90.27
3054.00,90.27
3053.00,90.27
3052.00,90.27
3051.00,90.27
3050.00,90.27
3049.00,90.27
3048.00,90.27
3047.00,90.26
3046.00,90.26
3045.00,90.26
3044.00,90.26
3043.00,90.26
3042.00,90.26
3041.00,90.26
3040.00,90.26
3039.00,90.26
3038.00,90.26
3037.00,90.26
3036.00,90.26
3035.00,90.26
3034.00,90.26
3033.00,90.27
3032.00,90.27
3031.00,90.27
3030.00,90.27
3029.00,90.27
3028.00,90.27
3027.00,90.27
3026.00,90.27
3025.00,90.27
3024.00,90.27
3023.00,90.27
3022.00,90.27
3021.00,90.27
3020.00,90.27
3019.00,90.27
3018.00,90.27
3017.00,90.27
3016.00,90.27
3015.00,90.27
3014.00,90.27
3013.00,90.27
3012.00,90.27
3011.00,90.26
3010.00,90.26
3009.00,90.26
3008.00,90.26
3007.00,90.25
3006.00,90.25
3005.00,90.25
3004.00,90.25
3003.00,90.24
3002.00,90.24
3001.00,90.24
3000.00,90.24
2999.00,90.24
2998.00,90.24
2997.00,90.24
2996.00,90.24
2995.00,90.23
2994.00,90.23
2993.00,90.23
2992.00,90.23
2991.00,90.23
2990.00,90.23
2989.00,90.23
2988.00,90.23
2987.00,90.23
2986.00,90.23
2985.00,90.23
2984.00,90.23
2983.00,90.23
2982.00,90.23
2981.00,90.23
2980.00,90.23
2979.00,90.23
2978.00,90.23
2977.00,90.24
2976.00,90.24
2975.00,90.24
2974.00,90.24
2973.00,90.24
2972.00,90.24
2971.00,90.24
2970.00,90.24
2969.00,90.24
2968.00,90.24
2967.00,90.24
2966.00,90.25
2965.00,90.25
2964.00,90.25
2963.00,90.25
2962.00,90.25
2961.00,90.25
2960.00,90.25
2959.00,90.25
2958.00,90.25
2957.00,90.25
2956.00,90.25
2955.00,90.25
2954.00,90.25
2953.00,90.25
2952.00,90.25
2951.00,90.25
2950.00,90.24
2949.00,90.24
2948.00,90.24
2947.00,90.24
2946.00,90.23
2945.00,90.23
2944.00,90.23
2943.00,90.23
2942.00,90.23
2941.00,90.22
2940.00,90.22
2939.00,90.22
2938.00,90.22
2937.00,90.22
2936.00,90.22
2935.00,90.23
2934.00,90.23
2933.00,90.23
2932.00,90.23
2931.00,90.23
2930.00,90.24
2929.00,90.24
2928.00,90.25
2927.00,90.25
2926.00,90.26
2925.00,90.27
2924.00,90.27
2923.00,90.28
2922.00,90.28
2921.00,90.28
2920.00,90.29
2919.00,90.29
2918.00,90.29
2917.00,90.29
2916.00,90.29
2915.00,90.29
2914.00,90.29
2913.00,90.29
2912.00,90.28
2911.00,90.28
2910.00,90.28
2909.00,90.28
2908.00,90.28
2907.00,90.27
2906.00,90.27
2905.00,90.27
2904.00,90.27
2903.00,90.26
2902.00,90.26
2901.00,90.26
2900.00,90.26
2899.00,90.26
2898.00,90.25
2897.00,90.25
2896.00,90.25
2895.00,90.25
2894.00,90.24
2893.00,90.24
2892.00,90.24
2891.00,90.24
2890.00,90.24
2889.00,90.24
2888.00,90.23
2887.00,90.23
2886.00,90.23
2885.00,90.23
2884.00,90.23
2883.00,90.23
2882.00,90.23
2881.00,90.23
2880.00,90.23
2879.00,90.23
2878.00,90.23
2877.00,90.23
2876.00,90.23
2875.00,90.24
2874.00,90.24
2873.00,90.24
2872.00,90.24
2871.00,90.25
2870.00,90.25
2869.00,90.25
2868.00,90.25
2867.00,90.25
2866.00,90.26
2865.00,90.26
2864.00,90.26
2863.00,90.26
2862.00,90.26
2861.00,90.26
2860.00,90.26
2859.00,90.27
2858.00,90.27
2857.00,90.27
2856.00,90.27
2855.00,90.27
2854.00,90.27
2853.00,90.27
2852.00,90.27
2851.00,90.27
2850.00,90.27
2849.00,90.27
2848.00,90.27
2847.00,90.27
2846.00,90.27
2845.00,90.26
2844.00,90.26
2843.00,90.26
2842.00,90.26
2841.00,90.25
2840.00,90.25
2839.00,90.25
2838.00,90.25
2837.00,90.24
2836.00,90.24
2835.00,90.24
2834.00,90.24
2833.00,90.24
2832.00,90.24
2831.00,90.24
2830.00,90.24
2829.00,90.24
2828.00,90.25
2827.00,90.25
2826.00,90.25
2825.00,90.25
2824.00,90.25
2823.00,90.25
2822.00,90.26
2821.00,90.26
2820.00,90.26
2819.00,90.26
2818.00,90.26
2817.00,90.27
2816.00,90.27
2815.00,90.27
2814.00,90.27
2813.00,90.27
2812.00,90.28
2811.00,90.28
2810.00,90.28
2809.00,90.28
2808.00,90.28
2807.00,90.28
2806.00,90.28
2805.00,90.28
2804.00,90.28
2803.00,90.28
2802.00,90.27
2801.00,90.27
2800.00,90.27
2799.00,90.27
2798.00,90.27
2797.00,90.27
2796.00,90.27
2795.00,90.27
2794.00,90.27
2793.00,90.27
2792.00,90.27
2791.00,90.27
2790.00,90.27
2789.00,90.27
2788.00,90.27
2787.00,90.27
2786.00,90.27
2785.00,90.27
2784.00,90.27
2783.00,90.27
2782.00,90.27
2781.00,90.28
2780.00,90.28
2779.00,90.28
2778.00,90.28
2777.00,90.29
2776.00,90.29
2775.00,90.29
2774.00,90.29
2773.00,90.29
2772.00,90.30
2771.00,90.30
2770.00,90.30
2769.00,90.30
2768.00,90.31
2767.00,90.31
2766.00,90.31
2765.00,90.31
2764.00,90.31
2763.00,90.31
2762.00,90.32
2761.00,90.32
2760.00,90.32
2759.00,90.32
2758.00,90.32
2757.00,90.32
2756.00,90.32
2755.00,90.32
2754.00,90.32
2753.00,90.32
2752.00,90.32
2751.00,90.32
2750.00,90.32
2749.00,90.31
2748.00,90.31
2747.00,90.31
2746.00,90.31
2745.00,90.30
2744.00,90.30
2743.00,90.30
2742.00,90.30
2741.00,90.29
2740.00,90.29
2739.00,90.29
2738.00,90.29
2737.00,90.29
2736.00,90.29
2735.00,90.28
2734.00,90.28
2733.00,90.28
2732.00,90.28
2731.00,90.28
2730.00,90.28
2729.00,90.29
2728.00,90.29
2727.00,90.29
2726.00,90.30
2725.00,90.30
2724.00,90.30
2723.00,90.31
2722.00,90.31
2721.00,90.32
2720.00,90.32
2719.00,90.32
2718.00,90.33
2717.00,90.33
2716.00,90.33
2715.00,90.34
2714.00,90.34
2713.00,90.34
2712.00,90.35
2711.00,90.35
2710.00,90.35
2709.00,90.36
2708.00,90.36
2707.00,90.36
2706.00,90.36
2705.00,90.36
2704.00,90.37
2703.00,90.37
2702.00,90.37
2701.00,90.37
2700.00,90.37
2699.00,90.37
2698.00,90.37
2697.00,90.37
2696.00,90.37
2695.00,90.36
2694.00,90.36
2693.00,90.36
2692.00,90.36
2691.00,90.36
2690.00,90.36
2689.00,90.35
2688.00,90.35
2687.00,90.35
2686.00,90.35
2685.00,90.34
2684.00,90.34
2683.00,90.34
2682.00,90.34
2681.00,90.34
2680.00,90.34
2679.00,90.33
2678.00,90.33
2677.00,90.33
2676.00,90.33
2675.00,90.33
2674.00,90.33
2673.00,90.33
2672.00,90.33
2671.00,90.33
2670.00,90.34
2669.00,90.34
2668.00,90.34
2667.00,90.34
2666.00,90.35
2665.00,90.35
2664.00,90.36
2663.00,90.36
2662.00,90.37
2661.00,90.37
2660.00,90.37
2659.00,90.38
2658.00,90.38
2657.00,90.39
2656.00,90.39
2655.00,90.39
2654.00,90.40
2653.00,90.40
2652.00,90.40
2651.00,90.40
2650.00,90.40
2649.00,90.40
2648.00,90.40
2647.00,90.41
2646.00,90.41
2645.00,90.41
2644.00,90.41
2643.00,90.41
2642.00,90.40
2641.00,90.40
2640.00,90.40
2639.00,90.40
2638.00,90.40
2637.00,90.40
2636.00,90.40
2635.00,90.39
2634.00,90.39
2633.00,90.39
2632.00,90.39
2631.00,90.38
2630.00,90.38
2629.00,90.38
2628.00,90.38
2627.00,90.38
2626.00,90.38
2625.00,90.37
2624.00,90.37
2623.00,90.37
2622.00,90.37
2621.00,90.37
2620.00,90.37
2619.00,90.37
2618.00,90.37
2617.00,90.37
2616.00,90.37
2615.00,90.37
2614.00,90.37
2613.00,90.37
2612.00,90.38
2611.00,90.38
2610.00,90.38
2609.00,90.38
2608.00,90.38
2607.00,90.39
2606.00,90.39
2605.00,90.39
2604.00,90.39
2603.00,90.39
2602.00,90.39
2601.00,90.40
2600.00,90.40
2599.00,90.40
2598.00,90.40
2597.00,90.40
2596.00,90.40
2595.00,90.40
2594.00,90.40
2593.00,90.40
2592.00,90.40
2591.00,90.40
2590.00,90.39
2589.00,90.39
2588.00,90.39
2587.00,90.39
2586.00,90.39
2585.00,90.38
2584.00,90.38
2583.00,90.38
2582.00,90.38
2581.00,90.38
2580.00,90.37
2579.00,90.37
2578.00,90.37
2577.00,90.37
2576.00,90.37
2575.00,90.37
2574.00,90.37
2573.00,90.37
2572.00,90.37
2571.00,90.37
2570.00,90.37
2569.00,90.37
2568.00,90.38
2567.00,90.38
2566.00,90.38
2565.00,90.38
2564.00,90.38
2563.00,90.39
2562.00,90.39
2561.00,90.39
2560.00,90.39
2559.00,90.40
2558.00,90.40
2557.00,90.40
2556.00,90.41
2555.00,90.41
2554.00,90.42
2553.00,90.42
2552.00,90.42
2551.00,90.42
2550.00,90.43
2549.00,90.43
2548.00,90.43
2547.00,90.44
2546.00,90.44
2545.00,90.44
2544.00,90.44
2543.00,90.45
2542.00,90.45
2541.00,90.45
2540.00,90.45
2539.00,90.45
2538.00,90.44
2537.00,90.44
2536.00,90.44
2535.00,90.44
2534.00,90.44
2533.00,90.44
2532.00,90.43
2531.00,90.43
2530.00,90.43
2529.00,90.43
2528.00,90.43
2527.00,90.42
2526.00,90.42
2525.00,90.42
2524.00,90.42
2523.00,90.42
2522.00,90.42
2521.00,90.42
2520.00,90.42
2519.00,90.42
2518.00,90.43
2517.00,90.43
2516.00,90.43
2515.00,90.43
2514.00,90.44
2513.00,90.44
2512.00,90.44
2511.00,90.45
2510.00,90.45
2509.00,90.45
2508.00,90.46
2507.00,90.46
2506.00,90.47
2505.00,90.47
2504.00,90.47
2503.00,90.48
2502.00,90.48
2501.00,90.49
2500.00,90.49
2499.00,90.49
2498.00,90.50
2497.00,90.50
2496.00,90.50
2495.00,90.51
2494.00,90.51
2493.00,90.51
2492.00,90.51
2491.00,90.51
2490.00,90.51
2489.00,90.51
2488.00,90.51
2487.00,90.51
2486.00,90.51
2485.00,90.51
2484.00,90.51
2483.00,90.51
2482.00,90.51
2481.00,90.51
2480.00,90.51
2479.00,90.51
2478.00,90.50
2477.00,90.50
2476.00,90.50
2475.00,90.50
2474.00,90.50
2473.00,90.50
2472.00,90.50
2471.00,90.50
2470.00,90.49
2469.00,90.49
2468.00,90.49
2467.00,90.49
2466.00,90.49
2465.00,90.49
2464.00,90.49
2463.00,90.50
2462.00,90.50
2461.00,90.50
2460.00,90.50
2459.00,90.50
2458.00,90.50
2457.00,90.50
2456.00,90.51
2455.00,90.51
2454.00,90.51
2453.00,90.51
2452.00,90.51
2451.00,90.52
2450.00,90.52
2449.00,90.52
2448.00,90.52
2447.00,90.52
2446.00,90.52
2445.00,90.52
2444.00,90.52
2443.00,90.52
2442.00,90.52
2441.00,90.52
2440.00,90.52
2439.00,90.51
2438.00,90.51
2437.00,90.51
2436.00,90.51
2435.00,90.51
2434.00,90.50
2433.00,90.50
2432.00,90.50
2431.00,90.49
2430.00,90.49
2429.00,90.48
2428.00,90.48
2427.00,90.47
2426.00,90.47
2425.00,90.47
2424.00,90.46
2423.00,90.46
2422.00,90.45
2421.00,90.45
2420.00,90.44
2419.00,90.44
2418.00,90.44
2417.00,90.43
2416.00,90.43
2415.00,90.43
2414.00,90.43
2413.00,90.43
2412.00,90.43
2411.00,90.43
2410.00,90.43
2409.00,90.43
2408.00,90.43
2407.00,90.43
2406.00,90.44
2405.00,90.44
2404.00,90.44
2403.00,90.45
2402.00,90.45
2401.00,90.45
2400.00,90.46
2399.00,90.46
2398.00,90.47
2397.00,90.47
2396.00,90.48
2395.00,90.48
2394.00,90.48
2393.00,90.49
2392.00,90.49
2391.00,90.49
2390.00,90.49
2389.00,90.50
2388.00,90.50
2387.00,90.50
2386.00,90.51
2385.00,90.51
2384.00,90.52
2383.00,90.52
2382.00,90.52
2381.00,90.53
2380.00,90.53
2379.00,90.53
2378.00,90.54
2377.00,90.54
2376.00,90.55
2375.00,90.55
2374.00,90.55
2373.00,90.55
2372.00,90.56
2371.00,90.56
2370.00,90.56
2369.00,90.56
2368.00,90.57
2367.00,90.57
2366.00,90.57
2365.00,90.58
2364.00,90.58
2363.00,90.58
2362.00,90.59
2361.00,90.59
2360.00,90.60
2359.00,90.62
2358.00,90.63
2357.00,90.63
2356.00,90.62
2355.00,90.60
2354.00,90.59
2353.00,90.60
2352.00,90.65
2351.00,90.71
2350.00,90.74
2349.00,90.72
2348.00,90.66
2347.00,90.60
2346.00,90.56
2345.00,90.54
2344.00,90.55
2343.00,90.57
2342.00,90.58
2341.00,90.59
2340.00,90.59
2339.00,90.60
2338.00,90.60
2337.00,90.60
2336.00,90.60
2335.00,90.61
2334.00,90.60
2333.00,90.59
2332.00,90.57
2331.00,90.55
2330.00,90.55
2329.00,90.56
2328.00,90.57
2327.00,90.57
2326.00,90.56
2325.00,90.55
2324.00,90.53
2323.00,90.51
2322.00,90.50
2321.00,90.49
2320.00,90.49
2319.00,90.49
2318.00,90.50
2317.00,90.50
2316.00,90.49
2315.00,90.47
2314.00,90.45
2313.00,90.44
2312.00,90.43
2311.00,90.42
2310.00,90.41
2309.00,90.41
2308.00,90.41
2307.00,90.41
2306.00,90.42
2305.00,90.43
2304.00,90.43
2303.00,90.44
2302.00,90.45
2301.00,90.45
2300.00,90.46
2299.00,90.46
2298.00,90.47
2297.00,90.47
2296.00,90.48
2295.00,90.49
2294.00,90.49
2293.00,90.50
2292.00,90.50
2291.00,90.51
2290.00,90.51
2289.00,90.52
2288.00,90.52
2287.00,90.52
2286.00,90.53
2285.00,90.53
2284.00,90.54
2283.00,90.54
2282.00,90.54
2281.00,90.54
2280.00,90.54
2279.00,90.55
2278.00,90.55
2277.00,90.55
2276.00,90.55
2275.00,90.55
2274.00,90.54
2273.00,90.54
2272.00,90.54
2271.00,90.54
2270.00,90.54
2269.00,90.53
2268.00,90.53
2267.00,90.53
2266.00,90.52
2265.00,90.52
2264.00,90.52
2263.00,90.51
2262.00,90.51
2261.00,90.51
2260.00,90.51
2259.00,90.51
2258.00,90.50
2257.00,90.50
2256.00,90.50
2255.00,90.50
2254.00,90.50
2253.00,90.50
2252.00,90.50
2251.00,90.50
2250.00,90.50
2249.00,90.50
2248.00,90.50
2247.00,90.50
2246.00,90.51
2245.00,90.51
2244.00,90.52
2243.00,90.52
2242.00,90.52
2241.00,90.53
2240.00,90.53
2239.00,90.54
2238.00,90.54
2237.00,90.54
2236.00,90.55
2235.00,90.55
2234.00,90.56
2233.00,90.56
2232.00,90.57
2231.00,90.57
2230.00,90.57
2229.00,90.58
2228.00,90.58
2227.00,90.58
2226.00,90.58
2225.00,90.58
2224.00,90.59
2223.00,90.59
2222.00,90.59
2221.00,90.59
2220.00,90.58
2219.00,90.58
2218.00,90.58
2217.00,90.58
2216.00,90.58
2215.00,90.57
2214.00,90.57
2213.00,90.57
2212.00,90.57
2211.00,90.56
2210.00,90.56
2209.00,90.56
2208.00,90.56
2207.00,90.56
2206.00,90.56
2205.00,90.56
2204.00,90.56
2203.00,90.56
2202.00,90.56
2201.00,90.56
2200.00,90.56
2199.00,90.56
2198.00,90.56
2197.00,90.56
2196.00,90.57
2195.00,90.57
2194.00,90.57
2193.00,90.58
2192.00,90.58
2191.00,90.58
2190.00,90.59
2189.00,90.59
2188.00,90.60
2187.00,90.60
2186.00,90.60
2185.00,90.61
2184.00,90.61
2183.00,90.62
2182.00,90.62
2181.00,90.62
2180.00,90.62
2179.00,90.63
2178.00,90.63
2177.00,90.63
2176.00,90.63
2175.00,90.63
2174.00,90.63
2173.00,90.63
2172.00,90.63
2171.00,90.63
2170.00,90.62
2169.00,90.62
2168.00,90.62
2167.00,90.62
2166.00,90.61
2165.00,90.61
2164.00,90.61
2163.00,90.60
2162.00,90.60
2161.00,90.59
2160.00,90.59
2159.00,90.58
2158.00,90.58
2157.00,90.58
2156.00,90.58
2155.00,90.57
2154.00,90.57
2153.00,90.57
2152.00,90.57
2151.00,90.57
2150.00,90.56
2149.00,90.56
2148.00,90.57
2147.00,90.57
2146.00,90.57
2145.00,90.57
2144.00,90.57
2143.00,90.57
2142.00,90.58
2141.00,90.58
2140.00,90.58
2139.00,90.59
2138.00,90.59
2137.00,90.59
2136.00,90.60
2135.00,90.60
2134.00,90.61
2133.00,90.61
2132.00,90.61
2131.00,90.62
2130.00,90.62
2129.00,90.63
2128.00,90.63
2127.00,90.63
2126.00,90.63
2125.00,90.63
2124.00,90.64
2123.00,90.64
2122.00,90.64
2121.00,90.64
2120.00,90.64
2119.00,90.64
2118.00,90.63
2117.00,90.63
2116.00,90.63
2115.00,90.63
2114.00,90.63
2113.00,90.63
2112.00,90.62
2111.00,90.62
2110.00,90.62
2109.00,90.62
2108.00,90.61
2107.00,90.61
2106.00,90.61
2105.00,90.61
2104.00,90.60
2103.00,90.60
2102.00,90.60
2101.00,90.60
2100.00,90.59
2099.00,90.59
2098.00,90.59
2097.00,90.59
2096.00,90.59
2095.00,90.58
2094.00,90.58
2093.00,90.58
2092.00,90.58
2091.00,90.58
2090.00,90.58
2089.00,90.58
2088.00,90.58
2087.00,90.58
2086.00,90.59
2085.00,90.59
2084.00,90.59
2083.00,90.59
2082.00,90.60
2081.00,90.60
2080.00,90.60
2079.00,90.60
2078.00,90.61
2077.00,90.61
2076.00,90.61
2075.00,90.61
2074.00,90.61
2073.00,90.62
2072.00,90.62
2071.00,90.62
2070.00,90.62
2069.00,90.63
2068.00,90.63
2067.00,90.63
2066.00,90.63
2065.00,90.63
2064.00,90.63
2063.00,90.63
2062.00,90.63
2061.00,90.63
2060.00,90.63
2059.00,90.62
2058.00,90.62
2057.00,90.62
2056.00,90.62
2055.00,90.61
2054.00,90.61
2053.00,90.61
2052.00,90.61
2051.00,90.61
2050.00,90.60
2049.00,90.60
2048.00,90.60
2047.00,90.59
2046.00,90.59
2045.00,90.59
2044.00,90.59
2043.00,90.59
2042.00,90.59
2041.00,90.58
2040.00,90.58
2039.00,90.58
2038.00,90.58
2037.00,90.58
2036.00,90.58
2035.00,90.58
2034.00,90.58
2033.00,90.58
2032.00,90.58
2031.00,90.58
2030.00,90.59
2029.00,90.59
2028.00,90.60
2027.00,90.60
2026.00,90.60
2025.00,90.61
2024.00,90.61
2023.00,90.61
2022.00,90.62
2021.00,90.62
2020.00,90.62
2019.00,90.62
2018.00,90.62
2017.00,90.62
2016.00,90.63
2015.00,90.63
2014.00,90.63
2013.00,90.63
2012.00,90.63
2011.00,90.63
2010.00,90.63
2009.00,90.63
2008.00,90.63
2007.00,90.62
2006.00,90.62
2005.00,90.61
2004.00,90.61
2003.00,90.60
2002.00,90.60
2001.00,90.59
2000.00,90.59
1999.00,90.58
1998.00,90.58
1997.00,90.57
1996.00,90.57
1995.00,90.56
1994.00,90.56
1993.00,90.55
1992.00,90.54
1991.00,90.53
1990.00,90.53
1989.00,90.53
1988.00,90.52
1987.00,90.52
1986.00,90.52
1985.00,90.51
1984.00,90.51
1983.00,90.51
1982.00,90.51
1981.00,90.51
1980.00,90.51
1979.00,90.51
1978.00,90.51
1977.00,90.51
1976.00,90.51
1975.00,90.52
1974.00,90.52
1973.00,90.53
1972.00,90.53
1971.00,90.54
1970.00,90.54
1969.00,90.55
1968.00,90.55
1967.00,90.55
1966.00,90.56
1965.00,90.56
1964.00,90.57
1963.00,90.57
1962.00,90.56
1961.00,90.55
1960.00,90.55
1959.00,90.55
1958.00,90.56
1957.00,90.55
1956.00,90.54
1955.00,90.53
1954.00,90.52
1953.00,90.51
1952.00,90.50
1951.00,90.49
1950.00,90.48
1949.00,90.48
1948.00,90.47
1947.00,90.47
1946.00,90.47
1945.00,90.46
1944.00,90.46
1943.00,90.45
1942.00,90.45
1941.00,90.45
1940.00,90.46
1939.00,90.47
1938.00,90.47
1937.00,90.48
1936.00,90.48
1935.00,90.49
1934.00,90.49
1933.00,90.50
1932.00,90.50
1931.00,90.51
1930.00,90.51
1929.00,90.52
1928.00,90.52
1927.00,90.53
1926.00,90.53
1925.00,90.53
1924.00,90.53
1923.00,90.53
1922.00,90.53
1921.00,90.54
1920.00,90.55
1919.00,90.56
1918.00,90.55
1917.00,90.55
1916.00,90.55
1915.00,90.56
1914.00,90.57
1913.00,90.57
1912.00,90.57
1911.00,90.57
1910.00,90.57
1909.00,90.57
1908.00,90.57
1907.00,90.57
1906.00,90.58
1905.00,90.58
1904.00,90.58
1903.00,90.58
1902.00,90.58
1901.00,90.58
1900.00,90.57
1899.00,90.57
1898.00,90.57
1897.00,90.56
1896.00,90.56
1895.00,90.55
1894.00,90.55
1893.00,90.55
1892.00,90.55
1891.00,90.54
1890.00,90.53
1889.00,90.52
1888.00,90.52
1887.00,90.52
1886.00,90.52
1885.00,90.52
1884.00,90.51
1883.00,90.51
1882.00,90.51
1881.00,90.50
1880.00,90.50
1879.00,90.49
1878.00,90.49
1877.00,90.49
1876.00,90.49
1875.00,90.49
1874.00,90.50
1873.00,90.50
1872.00,90.50
1871.00,90.51
1870.00,90.51
1869.00,90.50
1868.00,90.50
1867.00,90.50
1866.00,90.51
1865.00,90.52
1864.00,90.52
1863.00,90.52
1862.00,90.53
1861.00,90.53
1860.00,90.52
1859.00,90.52
1858.00,90.52
1857.00,90.51
1856.00,90.51
1855.00,90.50
1854.00,90.49
1853.00,90.48
1852.00,90.48
1851.00,90.47
1850.00,90.47
1849.00,90.47
1848.00,90.46
1847.00,90.45
1846.00,90.45
1845.00,90.44
1844.00,90.43
1843.00,90.43
1842.00,90.43
1841.00,90.44
1840.00,90.44
1839.00,90.43
1838.00,90.42
1837.00,90.42
1836.00,90.41
1835.00,90.41
1834.00,90.41
1833.00,90.42
1832.00,90.42
1831.00,90.41
1830.00,90.40
1829.00,90.40
1828.00,90.40
1827.00,90.41
1826.00,90.42
1825.00,90.41
1824.00,90.41
1823.00,90.40
1822.00,90.41
1821.00,90.41
1820.00,90.41
1819.00,90.40
1818.00,90.40
1817.00,90.40
1816.00,90.40
1815.00,90.40
1814.00,90.40
1813.00,90.41
1812.00,90.41
1811.00,90.40
1810.00,90.40
1809.00,90.40
1808.00,90.40
1807.00,90.40
1806.00,90.40
1805.00,90.40
1804.00,90.40
1803.00,90.39
1802.00,90.39
1801.00,90.39
1800.00,90.39
1799.00,90.38
1798.00,90.38
1797.00,90.38
1796.00,90.37
1795.00,90.36
1794.00,90.36
1793.00,90.35
1792.00,90.34
1791.00,90.33
1790.00,90.33
1789.00,90.33
1788.00,90.32
1787.00,90.31
1786.00,90.30
1785.00,90.30
1784.00,90.29
1783.00,90.29
1782.00,90.29
1781.00,90.28
1780.00,90.28
1779.00,90.28
1778.00,90.28
1777.00,90.28
1776.00,90.27
1775.00,90.27
1774.00,90.27
1773.00,90.28
1772.00,90.28
1771.00,90.28
1770.00,90.28
1769.00,90.28
1768.00,90.28
1767.00,90.28
1766.00,90.28
1765.00,90.28
1764.00,90.29
1763.00,90.29
1762.00,90.28
1761.00,90.28
1760.00,90.29
1759.00,90.30
1758.00,90.30
1757.00,90.30
1756.00,90.30
1755.00,90.30
1754.00,90.31
1753.00,90.32
1752.00,90.33
1751.00,90.34
1750.00,90.34
1749.00,90.33
1748.00,90.32
1747.00,90.31
1746.00,90.31
1745.00,90.31
1744.00,90.31
1743.00,90.30
1742.00,90.30
1741.00,90.30
1740.00,90.30
1739.00,90.30
1738.00,90.29
1737.00,90.29
1736.00,90.29
1735.00,90.29
1734.00,90.29
1733.00,90.29
1732.00,90.30
1731.00,90.30
1730.00,90.28
1729.00,90.27
1728.00,90.26
1727.00,90.26
1726.00,90.26
1725.00,90.26
1724.00,90.26
1723.00,90.26
1722.00,90.26
1721.00,90.26
1720.00,90.26
1719.00,90.26
1718.00,90.26
1717.00,90.27
1716.00,90.28
1715.00,90.29
1714.00,90.28
1713.00,90.29
1712.00,90.29
1711.00,90.28
1710.00,90.29
1709.00,90.30
1708.00,90.31
1707.00,90.31
1706.00,90.31
1705.00,90.31
1704.00,90.31
1703.00,90.30
1702.00,90.31
1701.00,90.33
1700.00,90.33
1699.00,90.33
1698.00,90.35
1697.00,90.36
1696.00,90.35
1695.00,90.34
1694.00,90.34
1693.00,90.35
1692.00,90.34
1691.00,90.33
1690.00,90.33
1689.00,90.31
1688.00,90.30
1687.00,90.30
1686.00,90.30
1685.00,90.31
1684.00,90.30
1683.00,90.30
1682.00,90.30
1681.00,90.30
1680.00,90.29
1679.00,90.29
1678.00,90.29
1677.00,90.29
1676.00,90.30
1675.00,90.30
1674.00,90.30
1673.00,90.30
1672.00,90.30
1671.00,90.30
1670.00,90.29
1669.00,90.28
1668.00,90.28
1667.00,90.29
1666.00,90.30
1665.00,90.30
1664.00,90.30
1663.00,90.30
1662.00,90.30
1661.00,90.31
1660.00,90.31
1659.00,90.32
1658.00,90.33
1657.00,90.32
1656.00,90.31
1655.00,90.31
1654.00,90.32
1653.00,90.32
1652.00,90.34
1651.00,90.38
1650.00,90.40
1649.00,90.40
1648.00,90.39
1647.00,90.38
1646.00,90.37
1645.00,90.37
1644.00,90.38
1643.00,90.38
1642.00,90.38
1641.00,90.37
1640.00,90.37
1639.00,90.37
1638.00,90.37
1637.00,90.36
1636.00,90.36
1635.00,90.35
1634.00,90.35
1633.00,90.36
1632.00,90.36
1631.00,90.35
1630.00,90.35
1629.00,90.35
1628.00,90.34
1627.00,90.34
1626.00,90.33
1625.00,90.33
1624.00,90.32
1623.00,90.32
1622.00,90.32
1621.00,90.32
1620.00,90.31
1619.00,90.31
1618.00,90.32
1617.00,90.32
1616.00,90.32
1615.00,90.33
1614.00,90.33
1613.00,90.32
1612.00,90.32
1611.00,90.32
1610.00,90.32
1609.00,90.31
1608.00,90.31
1607.00,90.30
1606.00,90.30
1605.00,90.30
1604.00,90.30
1603.00,90.30
1602.00,90.30
1601.00,90.30
1600.00,90.30
1599.00,90.31
1598.00,90.31
1597.00,90.31
1596.00,90.31
1595.00,90.32
1594.00,90.32
1593.00,90.32
1592.00,90.32
1591.00,90.32
1590.00,90.32
1589.00,90.32
1588.00,90.32
1587.00,90.32
1586.00,90.32
1585.00,90.31
1584.00,90.30
1583.00,90.30
1582.00,90.30
1581.00,90.30
1580.00,90.29
1579.00,90.28
1578.00,90.27
1577.00,90.26
1576.00,90.26
1575.00,90.27
1574.00,90.29
1573.00,90.29
1572.00,90.28
1571.00,90.28
1570.00,90.28
1569.00,90.28
1568.00,90.28
1567.00,90.30
1566.00,90.30
1565.00,90.29
1564.00,90.28
1563.00,90.28
1562.00,90.28
1561.00,90.29
1560.00,90.32
1559.00,90.34
1558.00,90.34
1557.00,90.34
1556.00,90.34
1555.00,90.34
1554.00,90.34
1553.00,90.34
1552.00,90.34
1551.00,90.34
1550.00,90.34
1549.00,90.34
1548.00,90.34
1547.00,90.35
1546.00,90.36
1545.00,90.36
1544.00,90.36
1543.00,90.36
1542.00,90.37
1541.00,90.37
1540.00,90.37
1539.00,90.36
1538.00,90.37
1537.00,90.38
1536.00,90.37
1535.00,90.37
1534.00,90.37
1533.00,90.36
1532.00,90.36
1531.00,90.36
1530.00,90.36
1529.00,90.36
1528.00,90.35
1527.00,90.34
1526.00,90.34
1525.00,90.34
1524.00,90.34
1523.00,90.35
1522.00,90.35
1521.00,90.35
1520.00,90.35
1519.00,90.35
1518.00,90.34
1517.00,90.33
1516.00,90.31
1515.00,90.31
1514.00,90.31
1513.00,90.32
1512.00,90.31
1511.00,90.31
1510.00,90.29
1509.00,90.29
1508.00,90.30
1507.00,90.29
1506.00,90.29
1505.00,90.30
1504.00,90.31
1503.00,90.31
1502.00,90.30
1501.00,90.30
1500.00,90.31
1499.00,90.31
1498.00,90.31
1497.00,90.32
1496.00,90.34
1495.00,90.35
1494.00,90.36
1493.00,90.37
1492.00,90.37
1491.00,90.37
1490.00,90.36
1489.00,90.35
1488.00,90.34
1487.00,90.33
1486.00,90.33
1485.00,90.32
1484.00,90.32
1483.00,90.31
1482.00,90.31
1481.00,90.31
1480.00,90.31
1479.00,90.31
1478.00,90.31
1477.00,90.31
1476.00,90.30
1475.00,90.29
1474.00,90.29
1473.00,90.30
1472.00,90.30
1471.00,90.29
1470.00,90.29
1469.00,90.28
1468.00,90.27
1467.00,90.26
1466.00,90.26
1465.00,90.26
1464.00,90.26
1463.00,90.27
1462.00,90.27
1461.00,90.27
1460.00,90.26
1459.00,90.24
1458.00,90.23
1457.00,90.24
1456.00,90.25
1455.00,90.27
1454.00,90.28
1453.00,90.28
1452.00,90.28
1451.00,90.28
1450.00,90.28
1449.00,90.28
1448.00,90.28
1447.00,90.28
1446.00,90.28
1445.00,90.28
1444.00,90.28
1443.00,90.28
1442.00,90.28
1441.00,90.28
1440.00,90.28
1439.00,90.28
1438.00,90.28
1437.00,90.29
1436.00,90.30
1435.00,90.31
1434.00,90.31
1433.00,90.31
1432.00,90.31
1431.00,90.31
1430.00,90.30
1429.00,90.30
1428.00,90.30
1427.00,90.30
1426.00,90.30
1425.00,90.29
1424.00,90.29
1423.00,90.29
1422.00,90.28
1421.00,90.28
1420.00,90.28
1419.00,90.28
1418.00,90.28
1417.00,90.27
1416.00,90.27
1415.00,90.27
1414.00,90.26
1413.00,90.25
1412.00,90.25
1411.00,90.25
1410.00,90.25
1409.00,90.25
1408.00,90.25
1407.00,90.25
1406.00,90.26
1405.00,90.26
1404.00,90.26
1403.00,90.26
1402.00,90.27
1401.00,90.27
1400.00,90.27
1399.00,90.27
1398.00,90.27
1397.00,90.26
1396.00,90.25
1395.00,90.25
1394.00,90.25
1393.00,90.25
1392.00,90.26
1391.00,90.26
1390.00,90.26
1389.00,90.26
1388.00,90.26
1387.00,90.26
1386.00,90.27
1385.00,90.28
1384.00,90.28
1383.00,90.29
1382.00,90.29
1381.00,90.29
1380.00,90.29
1379.00,90.29
1378.00,90.29
1377.00,90.29
1376.00,90.29
1375.00,90.29
1374.00,90.28
1373.00,90.28
1372.00,90.28
1371.00,90.28
1370.00,90.28
1369.00,90.28
1368.00,90.28
1367.00,90.28
1366.00,90.28
1365.00,90.27
1364.00,90.27
1363.00,90.26
1362.00,90.25
1361.00,90.24
1360.00,90.24
1359.00,90.25
1358.00,90.25
1357.00,90.25
1356.00,90.25
1355.00,90.24
1354.00,90.24
1353.00,90.24
1352.00,90.24
1351.00,90.24
1350.00,90.24
1349.00,90.24
1348.00,90.24
1347.00,90.24
1346.00,90.24
1345.00,90.24
1344.00,90.24
1343.00,90.25
1342.00,90.25
1341.00,90.25
1340.00,90.25
1339.00,90.25
1338.00,90.26
1337.00,90.26
1336.00,90.27
1335.00,90.27
1334.00,90.27
1333.00,90.28
1332.00,90.28
1331.00,90.28
1330.00,90.28
1329.00,90.29
1328.00,90.29
1327.00,90.29
1326.00,90.29
1325.00,90.29
1324.00,90.29
1323.00,90.29
1322.00,90.29
1321.00,90.29
1320.00,90.29
1319.00,90.29
1318.00,90.28
1317.00,90.28
1316.00,90.28
1315.00,90.28
1314.00,90.28
1313.00,90.27
1312.00,90.27
1311.00,90.27
1310.00,90.27
1309.00,90.26
1308.00,90.26
1307.00,90.26
1306.00,90.26
1305.00,90.26
1304.00,90.25
1303.00,90.25
1302.00,90.25
1301.00,90.25
1300.00,90.25
1299.00,90.25
1298.00,90.25
1297.00,90.25
1296.00,90.25
1295.00,90.25
1294.00,90.26
1293.00,90.26
1292.00,90.26
1291.00,90.26
1290.00,90.26
1289.00,90.27
1288.00,90.27
1287.00,90.27
1286.00,90.28
1285.00,90.28
1284.00,90.28
1283.00,90.29
1282.00,90.29
1281.00,90.29
1280.00,90.30
1279.00,90.30
1278.00,90.30
1277.00,90.31
1276.00,90.31
1275.00,90.31
1274.00,90.31
1273.00,90.31
1272.00,90.32
1271.00,90.32
1270.00,90.32
1269.00,90.32
1268.00,90.32
1267.00,90.33
1266.00,90.33
1265.00,90.33
1264.00,90.34
1263.00,90.34
1262.00,90.35
1261.00,90.35
1260.00,90.35
1259.00,90.35
1258.00,90.34
1257.00,90.34
1256.00,90.33
1255.00,90.32
1254.00,90.32
1253.00,90.31
1252.00,90.31
1251.00,90.31
1250.00,90.30
1249.00,90.30
1248.00,90.30
1247.00,90.29
1246.00,90.29
1245.00,90.29
1244.00,90.29
1243.00,90.29
1242.00,90.29
1241.00,90.29
1240.00,90.29
1239.00,90.29
1238.00,90.29
1237.00,90.29
1236.00,90.30
1235.00,90.30
1234.00,90.30
1233.00,90.31
1232.00,90.31
1231.00,90.31
1230.00,90.32
1229.00,90.32
1228.00,90.32
1227.00,90.33
1226.00,90.33
1225.00,90.33
1224.00,90.34
1223.00,90.34
1222.00,90.34
1221.00,90.34
1220.00,90.35
1219.00,90.35
1218.00,90.35
1217.00,90.35
1216.00,90.35
1215.00,90.36
1214.00,90.36
1213.00,90.35
1212.00,90.35
1211.00,90.35
1210.00,90.35
1209.00,90.35
1208.00,90.35
1207.00,90.35
1206.00,90.35
1205.00,90.34
1204.00,90.34
1203.00,90.34
1202.00,90.33
1201.00,90.33
1200.00,90.33
1199.00,90.33
1198.00,90.33
1197.00,90.32
1196.00,90.32
1195.00,90.32
1194.00,90.32
1193.00,90.32
1192.00,90.32
1191.00,90.32
1190.00,90.32
1189.00,90.32
1188.00,90.32
1187.00,90.32
1186.00,90.32
1185.00,90.32
1184.00,90.33
1183.00,90.33
1182.00,90.33
1181.00,90.34
1180.00,90.34
1179.00,90.34
1178.00,90.35
1177.00,90.35
1176.00,90.35
1175.00,90.36
1174.00,90.36
1173.00,90.36
1172.00,90.37
1171.00,90.37
1170.00,90.38
1169.00,90.38
1168.00,90.38
1167.00,90.38
1166.00,90.38
1165.00,90.38
1164.00,90.38
1163.00,90.38
1162.00,90.38
1161.00,90.38
1160.00,90.38
1159.00,90.38
1158.00,90.38
1157.00,90.38
1156.00,90.38
1155.00,90.37
1154.00,90.37
1153.00,90.37
1152.00,90.36
1151.00,90.36
1150.00,90.35
1149.00,90.35
1148.00,90.35
1147.00,90.35
1146.00,90.34
1145.00,90.34
1144.00,90.34
1143.00,90.33
1142.00,90.33
1141.00,90.33
1140.00,90.33
1139.00,90.33
1138.00,90.33
1137.00,90.33
1136.00,90.32
1135.00,90.33
1134.00,90.33
1133.00,90.33
1132.00,90.33
1131.00,90.33
1130.00,90.34
1129.00,90.34
1128.00,90.35
1127.00,90.35
1126.00,90.35
1125.00,90.35
1124.00,90.36
1123.00,90.36
1122.00,90.37
1121.00,90.37
1120.00,90.37
1119.00,90.37
1118.00,90.37
1117.00,90.38
1116.00,90.38
1115.00,90.38
1114.00,90.39
1113.00,90.39
1112.00,90.39
1111.00,90.39
1110.00,90.39
1109.00,90.39
1108.00,90.39
1107.00,90.39
1106.00,90.39
1105.00,90.39
1104.00,90.39
1103.00,90.39
1102.00,90.38
1101.00,90.38
1100.00,90.38
1099.00,90.37
1098.00,90.37
1097.00,90.37
1096.00,90.37
1095.00,90.37
1094.00,90.36
1093.00,90.36
1092.00,90.36
1091.00,90.35
1090.00,90.35
1089.00,90.35
1088.00,90.35
1087.00,90.35
1086.00,90.35
1085.00,90.34
1084.00,90.34
1083.00,90.34
1082.00,90.34
1081.00,90.34
1080.00,90.35
1079.00,90.35
1078.00,90.35
1077.00,90.35
1076.00,90.35
1075.00,90.36
1074.00,90.36
1073.00,90.36
1072.00,90.36
1071.00,90.36
1070.00,90.37
1069.00,90.37
1068.00,90.37
1067.00,90.37
1066.00,90.38
1065.00,90.37
1064.00,90.37
1063.00,90.38
1062.00,90.38
1061.00,90.38
1060.00,90.38
1059.00,90.38
1058.00,90.37
1057.00,90.37
1056.00,90.37
1055.00,90.38
1054.00,90.38
1053.00,90.39
1052.00,90.39
1051.00,90.40
1050.00,90.40
1049.00,90.39
1048.00,90.38
1047.00,90.37
1046.00,90.36
1045.00,90.35
1044.00,90.34
1043.00,90.33
1042.00,90.33
1041.00,90.33
1040.00,90.32
1039.00,90.32
1038.00,90.31
1037.00,90.31
1036.00,90.30
1035.00,90.30
1034.00,90.30
1033.00,90.30
1032.00,90.30
1031.00,90.30
1030.00,90.30
1029.00,90.29
1028.00,90.29
1027.00,90.29
1026.00,90.29
1025.00,90.29
1024.00,90.30
1023.00,90.30
1022.00,90.30
1021.00,90.29
1020.00,90.29
1019.00,90.29
1018.00,90.29
1017.00,90.29
1016.00,90.29
1015.00,90.29
1014.00,90.29
1013.00,90.29
1012.00,90.28
1011.00,90.28
1010.00,90.28
1009.00,90.27
1008.00,90.27
1007.00,90.27
1006.00,90.27
1005.00,90.26
1004.00,90.26
1003.00,90.26
1002.00,90.25
1001.00,90.25
1000.00,90.25
999.00,90.24
998.00,90.24
997.00,90.24
996.00,90.23
995.00,90.23
994.00,90.22
993.00,90.22
992.00,90.21
991.00,90.21
990.00,90.21
989.00,90.20
988.00,90.20
987.00,90.20
986.00,90.19
985.00,90.19
984.00,90.18
983.00,90.18
982.00,90.18
981.00,90.18
980.00,90.18
979.00,90.18
978.00,90.18
977.00,90.17
976.00,90.17
975.00,90.17
974.00,90.17
973.00,90.17
972.00,90.17
971.00,90.18
970.00,90.18
969.00,90.18
968.00,90.18
967.00,90.18
966.00,90.18
965.00,90.18
964.00,90.18
963.00,90.19
962.00,90.19
961.00,90.19
960.00,90.20
959.00,90.20
958.00,90.20
957.00,90.20
956.00,90.20
955.00,90.20
954.00,90.20
953.00,90.20
952.00,90.20
951.00,90.20
950.00,90.20
949.00,90.19
948.00,90.19
947.00,90.19
946.00,90.19
945.00,90.19
944.00,90.19
943.00,90.18
942.00,90.18
941.00,90.17
940.00,90.17
939.00,90.17
938.00,90.16
937.00,90.16
936.00,90.16
935.00,90.16
934.00,90.15
933.00,90.15
932.00,90.15
931.00,90.15
930.00,90.15
929.00,90.15
928.00,90.15
927.00,90.15
926.00,90.15
925.00,90.15
924.00,90.15
923.00,90.15
922.00,90.15
921.00,90.15
920.00,90.15
919.00,90.16
918.00,90.16
917.00,90.17
916.00,90.17
915.00,90.17
914.00,90.17
913.00,90.18
912.00,90.18
911.00,90.18
910.00,90.19
909.00,90.19
908.00,90.20
907.00,90.20
906.00,90.20
905.00,90.21
904.00,90.21
903.00,90.21
902.00,90.21
901.00,90.21
900.00,90.22
899.00,90.22
898.00,90.22
897.00,90.22
896.00,90.22
895.00,90.21
894.00,90.21
893.00,90.21
892.00,90.21
891.00,90.21
890.00,90.22
889.00,90.21
888.00,90.21
887.00,90.21
886.00,90.21
885.00,90.21
884.00,90.21
883.00,90.21
882.00,90.21
881.00,90.21
880.00,90.21
879.00,90.21
878.00,90.21
877.00,90.21
876.00,90.21
875.00,90.21
874.00,90.21
873.00,90.21
872.00,90.21
871.00,90.21
870.00,90.21
869.00,90.21
868.00,90.21
867.00,90.21
866.00,90.22
865.00,90.22
864.00,90.22
863.00,90.23
862.00,90.23
861.00,90.23
860.00,90.23
859.00,90.24
858.00,90.24
857.00,90.25
856.00,90.25
855.00,90.25
854.00,90.25
853.00,90.26
852.00,90.26
851.00,90.26
850.00,90.26
849.00,90.26
848.00,90.27
847.00,90.27
846.00,90.27
845.00,90.27
844.00,90.27
843.00,90.27
842.00,90.27
841.00,90.27
840.00,90.27
839.00,90.27
838.00,90.27
837.00,90.27
836.00,90.28
835.00,90.28
834.00,90.28
833.00,90.28
832.00,90.28
831.00,90.29
830.00,90.29
829.00,90.30
828.00,90.30
827.00,90.31
826.00,90.31
825.00,90.32
824.00,90.32
823.00,90.32
822.00,90.32
821.00,90.32
820.00,90.32
819.00,90.32
818.00,90.31
817.00,90.31
816.00,90.31
815.00,90.31
814.00,90.32
813.00,90.32
812.00,90.32
811.00,90.33
810.00,90.33
809.00,90.33
808.00,90.34
807.00,90.34
806.00,90.34
805.00,90.34
804.00,90.34
803.00,90.35
802.00,90.35
801.00,90.35
800.00,90.35
799.00,90.35
798.00,90.35
797.00,90.35
796.00,90.35
795.00,90.35
794.00,90.35
793.00,90.35
792.00,90.35
791.00,90.34
790.00,90.34
789.00,90.33
788.00,90.33
787.00,90.33
786.00,90.32
785.00,90.32
784.00,90.32
783.00,90.32
782.00,90.31
781.00,90.31
780.00,90.31
779.00,90.30
778.00,90.30
777.00,90.30
776.00,90.30
775.00,90.30
774.00,90.30
773.00,90.30
772.00,90.30
771.00,90.30
770.00,90.30
769.00,90.30
768.00,90.31
767.00,90.31
766.00,90.31
765.00,90.31
764.00,90.31
763.00,90.32
762.00,90.32
761.00,90.32
760.00,90.33
759.00,90.33
758.00,90.33
757.00,90.33
756.00,90.34
755.00,90.34
754.00,90.35
753.00,90.35
752.00,90.35
751.00,90.36
750.00,90.36
749.00,90.36
748.00,90.37
747.00,90.37
746.00,90.37
745.00,90.37
744.00,90.37
743.00,90.37
742.00,90.37
741.00,90.38
740.00,90.38
739.00,90.38
738.00,90.38
737.00,90.38
736.00,90.38
735.00,90.38
734.00,90.38
733.00,90.38
732.00,90.38
731.00,90.38
730.00,90.38
729.00,90.38
728.00,90.38
727.00,90.39
726.00,90.39
725.00,90.38
724.00,90.38
723.00,90.38
722.00,90.37
721.00,90.36
720.00,90.37
719.00,90.37
718.00,90.37
717.00,90.38
716.00,90.38
715.00,90.38
714.00,90.38
713.00,90.39
712.00,90.39
711.00,90.39
710.00,90.40
709.00,90.40
708.00,90.40
707.00,90.41
706.00,90.41
705.00,90.41
704.00,90.42
703.00,90.42
702.00,90.42
701.00,90.43
700.00,90.43
699.00,90.44
698.00,90.44
697.00,90.45
696.00,90.46
695.00,90.46
694.00,90.47
693.00,90.47
692.00,90.48
691.00,90.49
690.00,90.49
689.00,90.50
688.00,90.51
687.00,90.52
686.00,90.52
685.00,90.52
684.00,90.52
683.00,90.52
682.00,90.52
681.00,90.52
680.00,90.53
679.00,90.53
678.00,90.53
677.00,90.52
676.00,90.52
675.00,90.52
674.00,90.53
673.00,90.54
672.00,90.57
671.00,90.62
670.00,90.67
669.00,90.71
668.00,90.72
667.00,90.70
666.00,90.67
665.00,90.61
664.00,90.56
663.00,90.54
662.00,90.53
661.00,90.54
660.00,90.54
659.00,90.55
658.00,90.55
657.00,90.56
656.00,90.56
655.00,90.56
654.00,90.57
653.00,90.57
652.00,90.57
651.00,90.57
650.00,90.58
649.00,90.58
648.00,90.58
647.00,90.58
646.00,90.59
645.00,90.59
644.00,90.59
643.00,90.59
642.00,90.60
641.00,90.60
640.00,90.61
639.00,90.61
638.00,90.61
637.00,90.61
636.00,90.61
635.00,90.62
634.00,90.62
633.00,90.63
632.00,90.63
631.00,90.63
630.00,90.63
629.00,90.63
628.00,90.63
627.00,90.63
626.00,90.64
625.00,90.64
624.00,90.63
623.00,90.64
622.00,90.64
621.00,90.64
620.00,90.64
619.00,90.64
618.00,90.64
617.00,90.63
616.00,90.63
615.00,90.64
614.00,90.65
613.00,90.65
612.00,90.66
611.00,90.66
610.00,90.66
609.00,90.66
608.00,90.66
607.00,90.67
606.00,90.68
605.00,90.68
604.00,90.68
603.00,90.68
602.00,90.68
601.00,90.68
600.00,90.68
599.00,90.68
598.00,90.68
597.00,90.68
596.00,90.68
595.00,90.68
594.00,90.68
593.00,90.69
592.00,90.69
591.00,90.70
590.00,90.71
589.00,90.71
588.00,90.72
587.00,90.73
586.00,90.73
585.00,90.73
584.00,90.73
583.00,90.73
582.00,90.73
581.00,90.73
580.00,90.74
579.00,90.74
578.00,90.74
577.00,90.74
576.00,90.74
575.00,90.74
574.00,90.73
573.00,90.73
572.00,90.73
571.00,90.73
570.00,90.74
569.00,90.74
568.00,90.74
567.00,90.74
566.00,90.74
565.00,90.73
564.00,90.73
563.00,90.73
562.00,90.73
561.00,90.74
560.00,90.74
559.00,90.74
558.00,90.74
557.00,90.74
556.00,90.74
555.00,90.74
554.00,90.74
553.00,90.74
552.00,90.75
551.00,90.75
550.00,90.75
549.00,90.74
548.00,90.74
547.00,90.75
546.00,90.75
545.00,90.76
544.00,90.76
543.00,90.75
542.00,90.75
541.00,90.75
540.00,90.75
539.00,90.75
538.00,90.75
537.00,90.74
536.00,90.74
535.00,90.74
534.00,90.74
533.00,90.74
532.00,90.74
531.00,90.74
530.00,90.74
529.00,90.74
528.00,90.74
527.00,90.74
526.00,90.74
525.00,90.74
524.00,90.73
523.00,90.72
522.00,90.72
521.00,90.72
520.00,90.73
519.00,90.73
518.00,90.73
517.00,90.72
516.00,90.72
515.00,90.72
514.00,90.72
513.00,90.72
512.00,90.71
511.00,90.71
510.00,90.72
509.00,90.73
508.00,90.74
507.00,90.74
506.00,90.74
505.00,90.74
504.00,90.74
503.00,90.74
502.00,90.74
501.00,90.75
500.00,90.76
