Created as New Dataset,Sample 363 By Analyst Date Thursday, February 06 2025
cm-1,%T
4000.00,98.48
3999.00,98.48
3998.00,98.48
3997.00,98.48
3996.00,98.48
3995.00,98.48
3994.00,98.48
3993.00,98.48
3992.00,98.48
3991.00,98.48
3990.00,98.48
3989.00,98.48
3988.00,98.48
3987.00,98.48
3986.00,98.48
3985.00,98.48
3984.00,98.48
3983.00,98.48
3982.00,98.48
3981.00,98.48
3980.00,98.48
3979.00,98.48
3978.00,98.48
3977.00,98.48
3976.00,98.48
3975.00,98.48
3974.00,98.48
3973.00,98.48
3972.00,98.47
3971.00,98.47
3970.00,98.47
3969.00,98.47
3968.00,98.47
3967.00,98.47
3966.00,98.47
3965.00,98.47
3964.00,98.48
3963.00,98.48
3962.00,98.48
3961.00,98.48
3960.00,98.48
3959.00,98.48
3958.00,98.48
3957.00,98.48
3956.00,98.48
3955.00,98.48
3954.00,98.48
3953.00,98.48
3952.00,98.48
3951.00,98.48
3950.00,98.48
3949.00,98.48
3948.00,98.47
3947.00,98.47
3946.00,98.47
3945.00,98.48
3944.00,98.48
3943.00,98.48
3942.00,98.48
3941.00,98.48
3940.00,98.48
3939.00,98.48
3938.00,98.47
3937.00,98.47
3936.00,98.47
3935.00,98.47
3934.00,98.47
3933.00,98.47
3932.00,98.47
3931.00,98.47
3930.00,98.47
3929.00,98.47
3928.00,98.47
3927.00,98.47
3926.00,98.47
3925.00,98.47
3924.00,98.47
3923.00,98.47
3922.00,98.47
3921.00,98.47
3920.00,98.47
3919.00,98.47
3918.00,98.47
3917.00,98.47
3916.00,98.47
3915.00,98.47
3914.00,98.47
3913.00,98.48
3912.00,98.48
3911.00,98.48
3910.00,98.47
3909.00,98.47
3908.00,98.47
3907.00,98.47
3906.00,98.47
3905.00,98.47
3904.00,98.47
3903.00,98.47
3902.00,98.47
3901.00,98.47
3900.00,98.47
3899.00,98.47
3898.00,98.47
3897.00,98.47
3896.00,98.47
3895.00,98.47
3894.00,98.48
3893.00,98.48
3892.00,98.48
3891.00,98.47
3890.00,98.47
3889.00,98.47
3888.00,98.47
3887.00,98.47
3886.00,98.47
3885.00,98.47
3884.00,98.47
3883.00,98.47
3882.00,98.47
3881.00,98.47
3880.00,98.47
3879.00,98.47
3878.00,98.47
3877.00,98.47
3876.00,98.47
3875.00,98.47
3874.00,98.46
3873.00,98.46
3872.00,98.47
3871.00,98.47
3870.00,98.47
3869.00,98.46
3868.00,98.46
3867.00,98.46
3866.00,98.47
3865.00,98.47
3864.00,98.47
3863.00,98.46
3862.00,98.46
3861.00,98.46
3860.00,98.46
3859.00,98.46
3858.00,98.46
3857.00,98.45
3856.00,98.46
3855.00,98.46
3854.00,98.47
3853.00,98.47
3852.00,98.46
3851.00,98.46
3850.00,98.47
3849.00,98.47
3848.00,98.47
3847.00,98.47
3846.00,98.47
3845.00,98.47
3844.00,98.47
3843.00,98.47
3842.00,98.47
3841.00,98.47
3840.00,98.47
3839.00,98.47
3838.00,98.47
3837.00,98.46
3836.00,98.46
3835.00,98.47
3834.00,98.47
3833.00,98.47
3832.00,98.47
3831.00,98.47
3830.00,98.47
3829.00,98.47
3828.00,98.47
3827.00,98.47
3826.00,98.46
3825.00,98.46
3824.00,98.46
3823.00,98.47
3822.00,98.47
3821.00,98.46
3820.00,98.46
3819.00,98.46
3818.00,98.46
3817.00,98.47
3816.00,98.47
3815.00,98.47
3814.00,98.47
3813.00,98.47
3812.00,98.47
3811.00,98.47
3810.00,98.47
3809.00,98.47
3808.00,98.47
3807.00,98.47
3806.00,98.46
3805.00,98.46
3804.00,98.47
3803.00,98.47
3802.00,98.47
3801.00,98.47
3800.00,98.47
3799.00,98.47
3798.00,98.47
3797.00,98.48
3796.00,98.48
3795.00,98.48
3794.00,98.48
3793.00,98.48
3792.00,98.48
3791.00,98.48
3790.00,98.48
3789.00,98.48
3788.00,98.48
3787.00,98.48
3786.00,98.48
3785.00,98.48
3784.00,98.48
3783.00,98.48
3782.00,98.48
3781.00,98.48
3780.00,98.48
3779.00,98.48
3778.00,98.47
3777.00,98.47
3776.00,98.47
3775.00,98.47
3774.00,98.47
3773.00,98.47
3772.00,98.47
3771.00,98.47
3770.00,98.47
3769.00,98.47
3768.00,98.47
3767.00,98.47
3766.00,98.47
3765.00,98.47
3764.00,98.46
3763.00,98.47
3762.00,98.47
3761.00,98.47
3760.00,98.47
3759.00,98.47
3758.00,98.46
3757.00,98.46
3756.00,98.46
3755.00,98.45
3754.00,98.45
3753.00,98.45
3752.00,98.45
3751.00,98.46
3750.00,98.45
3749.00,98.45
3748.00,98.45
3747.00,98.46
3746.00,98.46
3745.00,98.47
3744.00,98.47
3743.00,98.46
3742.00,98.46
3741.00,98.46
3740.00,98.46
3739.00,98.46
3738.00,98.45
3737.00,98.46
3736.00,98.46
3735.00,98.46
3734.00,98.46
3733.00,98.46
3732.00,98.46
3731.00,98.46
3730.00,98.46
3729.00,98.47
3728.00,98.47
3727.00,98.47
3726.00,98.47
3725.00,98.47
3724.00,98.47
3723.00,98.47
3722.00,98.47
3721.00,98.47
3720.00,98.47
3719.00,98.47
3718.00,98.46
3717.00,98.46
3716.00,98.46
3715.00,98.46
3714.00,98.46
3713.00,98.46
3712.00,98.46
3711.00,98.46
3710.00,98.46
3709.00,98.46
3708.00,98.46
3707.00,98.46
3706.00,98.46
3705.00,98.46
3704.00,98.46
3703.00,98.46
3702.00,98.46
3701.00,98.46
3700.00,98.46
3699.00,98.46
3698.00,98.46
3697.00,98.46
3696.00,98.46
3695.00,98.45
3694.00,98.45
3693.00,98.45
3692.00,98.45
3691.00,98.45
3690.00,98.45
3689.00,98.45
3688.00,98.45
3687.00,98.45
3686.00,98.46
3685.00,98.46
3684.00,98.46
3683.00,98.46
3682.00,98.45
3681.00,98.45
3680.00,98.45
3679.00,98.44
3678.00,98.44
3677.00,98.45
3676.00,98.45
3675.00,98.44
3674.00,98.43
3673.00,98.44
3672.00,98.44
3671.00,98.45
3670.00,98.45
3669.00,98.45
3668.00,98.44
3667.00,98.45
3666.00,98.45
3665.00,98.45
3664.00,98.45
3663.00,98.45
3662.00,98.45
3661.00,98.45
3660.00,98.45
3659.00,98.45
3658.00,98.45
3657.00,98.45
3656.00,98.45
3655.00,98.44
3654.00,98.44
3653.00,98.44
3652.00,98.44
3651.00,98.44
3650.00,98.44
3649.00,98.44
3648.00,98.44
3647.00,98.45
3646.00,98.45
3645.00,98.45
3644.00,98.46
3643.00,98.46
3642.00,98.46
3641.00,98.46
3640.00,98.46
3639.00,98.46
3638.00,98.46
3637.00,98.46
3636.00,98.46
3635.00,98.46
3634.00,98.46
3633.00,98.45
3632.00,98.45
3631.00,98.45
3630.00,98.46
3629.00,98.46
3628.00,98.46
3627.00,98.46
3626.00,98.46
3625.00,98.46
3624.00,98.46
3623.00,98.46
3622.00,98.46
3621.00,98.46
3620.00,98.46
3619.00,98.46
3618.00,98.46
3617.00,98.45
3616.00,98.45
3615.00,98.45
3614.00,98.45
3613.00,98.45
3612.00,98.45
3611.00,98.45
3610.00,98.45
3609.00,98.45
3608.00,98.46
3607.00,98.46
3606.00,98.46
3605.00,98.46
3604.00,98.46
3603.00,98.46
3602.00,98.46
3601.00,98.46
3600.00,98.46
3599.00,98.46
3598.00,98.46
3597.00,98.46
3596.00,98.46
3595.00,98.46
3594.00,98.46
3593.00,98.45
3592.00,98.45
3591.00,98.45
3590.00,98.45
3589.00,98.45
3588.00,98.46
3587.00,98.46
3586.00,98.46
3585.00,98.46
3584.00,98.46
3583.00,98.46
3582.00,98.46
3581.00,98.46
3580.00,98.46
3579.00,98.46
3578.00,98.46
3577.00,98.46
3576.00,98.46
3575.00,98.47
3574.00,98.46
3573.00,98.46
3572.00,98.46
3571.00,98.46
3570.00,98.45
3569.00,98.45
3568.00,98.45
3567.00,98.45
3566.00,98.45
3565.00,98.45
3564.00,98.45
3563.00,98.45
3562.00,98.45
3561.00,98.45
3560.00,98.45
3559.00,98.46
3558.00,98.46
3557.00,98.46
3556.00,98.45
3555.00,98.45
3554.00,98.45
3553.00,98.45
3552.00,98.45
3551.00,98.45
3550.00,98.45
3549.00,98.45
3548.00,98.45
3547.00,98.45
3546.00,98.45
3545.00,98.45
3544.00,98.45
3543.00,98.45
3542.00,98.45
3541.00,98.46
3540.00,98.46
3539.00,98.46
3538.00,98.46
3537.00,98.46
3536.00,98.46
3535.00,98.46
3534.00,98.46
3533.00,98.46
3532.00,98.46
3531.00,98.46
3530.00,98.46
3529.00,98.46
3528.00,98.46
3527.00,98.45
3526.00,98.45
3525.00,98.45
3524.00,98.46
3523.00,98.46
3522.00,98.46
3521.00,98.46
3520.00,98.46
3519.00,98.46
3518.00,98.46
3517.00,98.46
3516.00,98.46
3515.00,98.46
3514.00,98.46
3513.00,98.46
3512.00,98.46
3511.00,98.46
3510.00,98.45
3509.00,98.45
3508.00,98.45
3507.00,98.45
3506.00,98.45
3505.00,98.45
3504.00,98.45
3503.00,98.45
3502.00,98.45
3501.00,98.45
3500.00,98.45
3499.00,98.45
3498.00,98.45
3497.00,98.45
3496.00,98.45
3495.00,98.45
3494.00,98.45
3493.00,98.45
3492.00,98.45
3491.00,98.45
3490.00,98.45
3489.00,98.45
3488.00,98.45
3487.00,98.45
3486.00,98.45
3485.00,98.45
3484.00,98.45
3483.00,98.45
3482.00,98.45
3481.00,98.45
3480.00,98.45
3479.00,98.45
3478.00,98.46
3477.00,98.46
3476.00,98.46
3475.00,98.46
3474.00,98.46
3473.00,98.45
3472.00,98.45
3471.00,98.45
3470.00,98.45
3469.00,98.45
3468.00,98.45
3467.00,98.45
3466.00,98.45
3465.00,98.45
3464.00,98.45
3463.00,98.45
3462.00,98.45
3461.00,98.45
3460.00,98.45
3459.00,98.45
3458.00,98.45
3457.00,98.45
3456.00,98.45
3455.00,98.45
3454.00,98.45
3453.00,98.45
3452.00,98.45
3451.00,98.45
3450.00,98.45
3449.00,98.45
3448.00,98.45
3447.00,98.45
3446.00,98.45
3445.00,98.45
3444.00,98.45
3443.00,98.45
3442.00,98.45
3441.00,98.45
3440.00,98.45
3439.00,98.45
3438.00,98.45
3437.00,98.45
3436.00,98.45
3435.00,98.45
3434.00,98.45
3433.00,98.45
3432.00,98.45
3431.00,98.45
3430.00,98.45
3429.00,98.45
3428.00,98.45
3427.00,98.45
3426.00,98.45
3425.00,98.45
3424.00,98.45
3423.00,98.45
3422.00,98.45
3421.00,98.45
3420.00,98.45
3419.00,98.45
3418.00,98.45
3417.00,98.45
3416.00,98.45
3415.00,98.45
3414.00,98.45
3413.00,98.45
3412.00,98.45
3411.00,98.45
3410.00,98.45
3409.00,98.45
3408.00,98.45
3407.00,98.45
3406.00,98.45
3405.00,98.45
3404.00,98.45
3403.00,98.45
3402.00,98.45
3401.00,98.45
3400.00,98.45
3399.00,98.45
3398.00,98.45
3397.00,98.45
3396.00,98.45
3395.00,98.45
3394.00,98.45
3393.00,98.45
3392.00,98.45
3391.00,98.45
3390.00,98.45
3389.00,98.46
3388.00,98.46
3387.00,98.46
3386.00,98.45
3385.00,98.45
3384.00,98.46
3383.00,98.46
3382.00,98.46
3381.00,98.46
3380.00,98.46
3379.00,98.46
3378.00,98.46
3377.00,98.46
3376.00,98.46
3375.00,98.46
3374.00,98.46
3373.00,98.46
3372.00,98.46
3371.00,98.46
3370.00,98.46
3369.00,98.46
3368.00,98.46
3367.00,98.46
3366.00,98.46
3365.00,98.46
3364.00,98.46
3363.00,98.46
3362.00,98.46
3361.00,98.46
3360.00,98.46
3359.00,98.46
3358.00,98.46
3357.00,98.46
3356.00,98.46
3355.00,98.46
3354.00,98.46
3353.00,98.46
3352.00,98.46
3351.00,98.46
3350.00,98.46
3349.00,98.46
3348.00,98.46
3347.00,98.46
3346.00,98.46
3345.00,98.46
3344.00,98.46
3343.00,98.46
3342.00,98.46
3341.00,98.46
3340.00,98.46
3339.00,98.46
3338.00,98.46
3337.00,98.46
3336.00,98.46
3335.00,98.46
3334.00,98.46
3333.00,98.46
3332.00,98.46
3331.00,98.46
3330.00,98.45
3329.00,98.45
3328.00,98.46
3327.00,98.46
3326.00,98.46
3325.00,98.46
3324.00,98.46
3323.00,98.46
3322.00,98.46
3321.00,98.46
3320.00,98.46
3319.00,98.46
3318.00,98.46
3317.00,98.46
3316.00,98.46
3315.00,98.46
3314.00,98.46
3313.00,98.46
3312.00,98.46
3311.00,98.46
3310.00,98.46
3309.00,98.46
3308.00,98.46
3307.00,98.45
3306.00,98.45
3305.00,98.45
3304.00,98.45
3303.00,98.45
3302.00,98.45
3301.00,98.45
3300.00,98.45
3299.00,98.45
3298.00,98.45
3297.00,98.45
3296.00,98.45
3295.00,98.45
3294.00,98.45
3293.00,98.45
3292.00,98.45
3291.00,98.45
3290.00,98.45
3289.00,98.45
3288.00,98.45
3287.00,98.45
3286.00,98.45
3285.00,98.45
3284.00,98.45
3283.00,98.45
3282.00,98.45
3281.00,98.45
3280.00,98.45
3279.00,98.45
3278.00,98.45
3277.00,98.45
3276.00,98.46
3275.00,98.46
3274.00,98.46
3273.00,98.46
3272.00,98.46
3271.00,98.46
3270.00,98.46
3269.00,98.46
3268.00,98.46
3267.00,98.46
3266.00,98.46
3265.00,98.46
3264.00,98.46
3263.00,98.46
3262.00,98.46
3261.00,98.46
3260.00,98.46
3259.00,98.46
3258.00,98.46
3257.00,98.46
3256.00,98.46
3255.00,98.46
3254.00,98.46
3253.00,98.46
3252.00,98.46
3251.00,98.46
3250.00,98.46
3249.00,98.46
3248.00,98.46
3247.00,98.46
3246.00,98.46
3245.00,98.46
3244.00,98.46
3243.00,98.46
3242.00,98.46
3241.00,98.46
3240.00,98.46
3239.00,98.45
3238.00,98.45
3237.00,98.45
3236.00,98.45
3235.00,98.45
3234.00,98.45
3233.00,98.45
3232.00,98.45
3231.00,98.45
3230.00,98.45
3229.00,98.45
3228.00,98.45
3227.00,98.45
3226.00,98.45
3225.00,98.45
3224.00,98.45
3223.00,98.45
3222.00,98.45
3221.00,98.45
3220.00,98.45
3219.00,98.45
3218.00,98.45
3217.00,98.45
3216.00,98.45
3215.00,98.45
3214.00,98.45
3213.00,98.45
3212.00,98.45
3211.00,98.45
3210.00,98.45
3209.00,98.46
3208.00,98.46
3207.00,98.46
3206.00,98.45
3205.00,98.45
3204.00,98.45
3203.00,98.45
3202.00,98.45
3201.00,98.45
3200.00,98.45
3199.00,98.45
3198.00,98.45
3197.00,98.45
3196.00,98.45
3195.00,98.45
3194.00,98.45
3193.00,98.45
3192.00,98.45
3191.00,98.45
3190.00,98.45
3189.00,98.45
3188.00,98.45
3187.00,98.45
3186.00,98.45
3185.00,98.45
3184.00,98.45
3183.00,98.45
3182.00,98.45
3181.00,98.45
3180.00,98.45
3179.00,98.45
3178.00,98.45
3177.00,98.45
3176.00,98.45
3175.00,98.45
3174.00,98.45
3173.00,98.45
3172.00,98.45
3171.00,98.45
3170.00,98.45
3169.00,98.45
3168.00,98.45
3167.00,98.45
3166.00,98.45
3165.00,98.45
3164.00,98.45
3163.00,98.45
3162.00,98.45
3161.00,98.45
3160.00,98.45
3159.00,98.45
3158.00,98.45
3157.00,98.45
3156.00,98.45
3155.00,98.45
3154.00,98.45
3153.00,98.45
3152.00,98.45
3151.00,98.45
3150.00,98.45
3149.00,98.45
3148.00,98.45
3147.00,98.45
3146.00,98.45
3145.00,98.45
3144.00,98.45
3143.00,98.45
3142.00,98.45
3141.00,98.45
3140.00,98.45
3139.00,98.45
3138.00,98.45
3137.00,98.45
3136.00,98.45
3135.00,98.45
3134.00,98.45
3133.00,98.45
3132.00,98.45
3131.00,98.45
3130.00,98.45
3129.00,98.45
3128.00,98.45
3127.00,98.44
3126.00,98.44
3125.00,98.44
3124.00,98.44
3123.00,98.44
3122.00,98.44
3121.00,98.44
3120.00,98.44
3119.00,98.44
3118.00,98.44
3117.00,98.44
3116.00,98.44
3115.00,98.45
3114.00,98.45
3113.00,98.45
3112.00,98.45
3111.00,98.45
3110.00,98.45
3109.00,98.44
3108.00,98.44
3107.00,98.44
3106.00,98.44
3105.00,98.45
3104.00,98.45
3103.00,98.45
3102.00,98.45
3101.00,98.45
3100.00,98.44
3099.00,98.44
3098.00,98.44
3097.00,98.44
3096.00,98.44
3095.00,98.44
3094.00,98.44
3093.00,98.44
3092.00,98.44
3091.00,98.44
3090.00,98.44
3089.00,98.44
3088.00,98.44
3087.00,98.44
3086.00,98.44
3085.00,98.44
3084.00,98.44
3083.00,98.44
3082.00,98.44
3081.00,98.44
3080.00,98.44
3079.00,98.44
3078.00,98.44
3077.00,98.44
3076.00,98.44
3075.00,98.43
3074.00,98.43
3073.00,98.43
3072.00,98.43
3071.00,98.43
3070.00,98.43
3069.00,98.43
3068.00,98.43
3067.00,98.43
3066.00,98.43
3065.00,98.43
3064.00,98.43
3063.00,98.43
3062.00,98.43
3061.00,98.43
3060.00,98.43
3059.00,98.43
3058.00,98.43
3057.00,98.43
3056.00,98.43
3055.00,98.43
3054.00,98.43
3053.00,98.43
3052.00,98.43
3051.00,98.43
3050.00,98.43
3049.00,98.43
3048.00,98.43
3047.00,98.43
3046.00,98.43
3045.00,98.43
3044.00,98.43
3043.00,98.43
3042.00,98.43
3041.00,98.43
3040.00,98.43
3039.00,98.43
3038.00,98.43
3037.00,98.43
3036.00,98.42
3035.00,98.42
3034.00,98.42
3033.00,98.42
3032.00,98.42
3031.00,98.42
3030.00,98.42
3029.00,98.42
3028.00,98.42
3027.00,98.42
3026.00,98.42
3025.00,98.42
3024.00,98.42
3023.00,98.42
3022.00,98.42
3021.00,98.42
3020.00,98.42
3019.00,98.42
3018.00,98.42
3017.00,98.42
3016.00,98.41
3015.00,98.41
3014.00,98.41
3013.00,98.41
3012.00,98.41
3011.00,98.41
3010.00,98.41
3009.00,98.41
3008.00,98.41
3007.00,98.41
3006.00,98.41
3005.00,98.41
3004.00,98.41
3003.00,98.41
3002.00,98.41
3001.00,98.41
3000.00,98.41
2999.00,98.41
2998.00,98.41
2997.00,98.41
2996.00,98.41
2995.00,98.41
2994.00,98.41
2993.00,98.40
2992.00,98.40
2991.00,98.40
2990.00,98.40
2989.00,98.40
2988.00,98.40
2987.00,98.40
2986.00,98.40
2985.00,98.40
2984.00,98.39
2983.00,98.39
2982.00,98.39
2981.00,98.39
2980.00,98.39
2979.00,98.39
2978.00,98.39
2977.00,98.39
2976.00,98.39
2975.00,98.39
2974.00,98.39
2973.00,98.39
2972.00,98.39
2971.00,98.39
2970.00,98.39
2969.00,98.39
2968.00,98.39
2967.00,98.39
2966.00,98.39
2965.00,98.39
2964.00,98.39
2963.00,98.39
2962.00,98.39
2961.00,98.39
2960.00,98.39
2959.00,98.39
2958.00,98.39
2957.00,98.39
2956.00,98.39
2955.00,98.39
2954.00,98.39
2953.00,98.39
2952.00,98.39
2951.00,98.39
2950.00,98.39
2949.00,98.39
2948.00,98.39
2947.00,98.39
2946.00,98.39
2945.00,98.39
2944.00,98.39
2943.00,98.39
2942.00,98.39
2941.00,98.39
2940.00,98.39
2939.00,98.39
2938.00,98.39
2937.00,98.39
2936.00,98.39
2935.00,98.39
2934.00,98.40
2933.00,98.40
2932.00,98.40
2931.00,98.40
2930.00,98.40
2929.00,98.40
2928.00,98.40
2927.00,98.40
2926.00,98.40
2925.00,98.40
2924.00,98.40
2923.00,98.40
2922.00,98.40
2921.00,98.40
2920.00,98.40
2919.00,98.40
2918.00,98.40
2917.00,98.40
2916.00,98.40
2915.00,98.41
2914.00,98.41
2913.00,98.41
2912.00,98.41
2911.00,98.41
2910.00,98.41
2909.00,98.41
2908.00,98.41
2907.00,98.41
2906.00,98.41
2905.00,98.41
2904.00,98.41
2903.00,98.41
2902.00,98.41
2901.00,98.41
2900.00,98.41
2899.00,98.41
2898.00,98.41
2897.00,98.41
2896.00,98.41
2895.00,98.41
2894.00,98.41
2893.00,98.41
2892.00,98.42
2891.00,98.42
2890.00,98.42
2889.00,98.42
2888.00,98.42
2887.00,98.41
2886.00,98.41
2885.00,98.41
2884.00,98.41
2883.00,98.41
2882.00,98.41
2881.00,98.41
2880.00,98.41
2879.00,98.41
2878.00,98.41
2877.00,98.41
2876.00,98.41
2875.00,98.41
2874.00,98.41
2873.00,98.41
2872.00,98.40
2871.00,98.40
2870.00,98.40
2869.00,98.40
2868.00,98.40
2867.00,98.40
2866.00,98.41
2865.00,98.41
2864.00,98.41
2863.00,98.41
2862.00,98.41
2861.00,98.41
2860.00,98.41
2859.00,98.41
2858.00,98.41
2857.00,98.41
2856.00,98.41
2855.00,98.42
2854.00,98.42
2853.00,98.42
2852.00,98.42
2851.00,98.42
2850.00,98.42
2849.00,98.42
2848.00,98.42
2847.00,98.41
2846.00,98.41
2845.00,98.41
2844.00,98.41
2843.00,98.41
2842.00,98.41
2841.00,98.42
2840.00,98.42
2839.00,98.42
2838.00,98.42
2837.00,98.42
2836.00,98.42
2835.00,98.42
2834.00,98.42
2833.00,98.42
2832.00,98.42
2831.00,98.42
2830.00,98.42
2829.00,98.42
2828.00,98.42
2827.00,98.41
2826.00,98.41
2825.00,98.41
2824.00,98.41
2823.00,98.41
2822.00,98.41
2821.00,98.41
2820.00,98.42
2819.00,98.42
2818.00,98.42
2817.00,98.42
2816.00,98.42
2815.00,98.42
2814.00,98.42
2813.00,98.42
2812.00,98.42
2811.00,98.42
2810.00,98.42
2809.00,98.42
2808.00,98.42
2807.00,98.42
2806.00,98.42
2805.00,98.42
2804.00,98.42
2803.00,98.42
2802.00,98.42
2801.00,98.43
2800.00,98.43
2799.00,98.43
2798.00,98.43
2797.00,98.43
2796.00,98.43
2795.00,98.43
2794.00,98.43
2793.00,98.43
2792.00,98.43
2791.00,98.43
2790.00,98.43
2789.00,98.43
2788.00,98.43
2787.00,98.43
2786.00,98.43
2785.00,98.43
2784.00,98.43
2783.00,98.43
2782.00,98.43
2781.00,98.43
2780.00,98.43
2779.00,98.43
2778.00,98.43
2777.00,98.43
2776.00,98.43
2775.00,98.43
2774.00,98.43
2773.00,98.43
2772.00,98.43
2771.00,98.43
2770.00,98.43
2769.00,98.43
2768.00,98.43
2767.00,98.43
2766.00,98.43
2765.00,98.43
2764.00,98.43
2763.00,98.43
2762.00,98.43
2761.00,98.43
2760.00,98.43
2759.00,98.43
2758.00,98.43
2757.00,98.43
2756.00,98.43
2755.00,98.43
2754.00,98.43
2753.00,98.43
2752.00,98.43
2751.00,98.43
2750.00,98.43
2749.00,98.43
2748.00,98.43
2747.00,98.43
2746.00,98.43
2745.00,98.43
2744.00,98.43
2743.00,98.43
2742.00,98.43
2741.00,98.43
2740.00,98.43
2739.00,98.43
2738.00,98.43
2737.00,98.43
2736.00,98.43
2735.00,98.43
2734.00,98.43
2733.00,98.43
2732.00,98.43
2731.00,98.43
2730.00,98.43
2729.00,98.43
2728.00,98.43
2727.00,98.43
2726.00,98.43
2725.00,98.43
2724.00,98.43
2723.00,98.43
2722.00,98.43
2721.00,98.43
2720.00,98.43
2719.00,98.43
2718.00,98.43
2717.00,98.43
2716.00,98.43
2715.00,98.43
2714.00,98.43
2713.00,98.43
2712.00,98.43
2711.00,98.43
2710.00,98.43
2709.00,98.43
2708.00,98.43
2707.00,98.43
2706.00,98.43
2705.00,98.43
2704.00,98.43
2703.00,98.43
2702.00,98.43
2701.00,98.43
2700.00,98.43
2699.00,98.43
2698.00,98.43
2697.00,98.43
2696.00,98.43
2695.00,98.43
2694.00,98.43
2693.00,98.43
2692.00,98.43
2691.00,98.43
2690.00,98.43
2689.00,98.43
2688.00,98.43
2687.00,98.43
2686.00,98.43
2685.00,98.43
2684.00,98.43
2683.00,98.43
2682.00,98.43
2681.00,98.43
2680.00,98.43
2679.00,98.43
2678.00,98.43
2677.00,98.43
2676.00,98.43
2675.00,98.43
2674.00,98.43
2673.00,98.43
2672.00,98.43
2671.00,98.43
2670.00,98.43
2669.00,98.43
2668.00,98.43
2667.00,98.43
2666.00,98.43
2665.00,98.43
2664.00,98.43
2663.00,98.43
2662.00,98.43
2661.00,98.43
2660.00,98.43
2659.00,98.43
2658.00,98.43
2657.00,98.43
2656.00,98.43
2655.00,98.43
2654.00,98.43
2653.00,98.43
2652.00,98.43
2651.00,98.43
2650.00,98.43
2649.00,98.44
2648.00,98.44
2647.00,98.44
2646.00,98.44
2645.00,98.43
2644.00,98.43
2643.00,98.43
2642.00,98.43
2641.00,98.43
2640.00,98.43
2639.00,98.43
2638.00,98.43
2637.00,98.43
2636.00,98.43
2635.00,98.43
2634.00,98.43
2633.00,98.43
2632.00,98.43
2631.00,98.44
2630.00,98.44
2629.00,98.44
2628.00,98.43
2627.00,98.43
2626.00,98.43
2625.00,98.43
2624.00,98.43
2623.00,98.43
2622.00,98.43
2621.00,98.43
2620.00,98.43
2619.00,98.43
2618.00,98.43
2617.00,98.43
2616.00,98.43
2615.00,98.43
2614.00,98.43
2613.00,98.43
2612.00,98.43
2611.00,98.43
2610.00,98.43
2609.00,98.43
2608.00,98.43
2607.00,98.43
2606.00,98.43
2605.00,98.43
2604.00,98.43
2603.00,98.43
2602.00,98.43
2601.00,98.43
2600.00,98.43
2599.00,98.43
2598.00,98.43
2597.00,98.43
2596.00,98.43
2595.00,98.43
2594.00,98.43
2593.00,98.43
2592.00,98.43
2591.00,98.43
2590.00,98.43
2589.00,98.43
2588.00,98.43
2587.00,98.43
2586.00,98.43
2585.00,98.43
2584.00,98.43
2583.00,98.43
2582.00,98.43
2581.00,98.43
2580.00,98.43
2579.00,98.43
2578.00,98.43
2577.00,98.43
2576.00,98.43
2575.00,98.43
2574.00,98.43
2573.00,98.43
2572.00,98.43
2571.00,98.43
2570.00,98.43
2569.00,98.43
2568.00,98.43
2567.00,98.43
2566.00,98.43
2565.00,98.43
2564.00,98.43
2563.00,98.43
2562.00,98.43
2561.00,98.43
2560.00,98.43
2559.00,98.43
2558.00,98.43
2557.00,98.43
2556.00,98.43
2555.00,98.43
2554.00,98.43
2553.00,98.43
2552.00,98.43
2551.00,98.43
2550.00,98.43
2549.00,98.43
2548.00,98.43
2547.00,98.43
2546.00,98.44
2545.00,98.44
2544.00,98.44
2543.00,98.44
2542.00,98.43
2541.00,98.43
2540.00,98.43
2539.00,98.43
2538.00,98.44
2537.00,98.44
2536.00,98.44
2535.00,98.44
2534.00,98.43
2533.00,98.43
2532.00,98.43
2531.00,98.43
2530.00,98.43
2529.00,98.43
2528.00,98.43
2527.00,98.43
2526.00,98.43
2525.00,98.43
2524.00,98.43
2523.00,98.43
2522.00,98.43
2521.00,98.43
2520.00,98.43
2519.00,98.43
2518.00,98.43
2517.00,98.43
2516.00,98.43
2515.00,98.43
2514.00,98.43
2513.00,98.43
2512.00,98.43
2511.00,98.43
2510.00,98.43
2509.00,98.43
2508.00,98.43
2507.00,98.43
2506.00,98.43
2505.00,98.43
2504.00,98.43
2503.00,98.44
2502.00,98.44
2501.00,98.44
2500.00,98.44
2499.00,98.44
2498.00,98.44
2497.00,98.44
2496.00,98.44
2495.00,98.44
2494.00,98.44
2493.00,98.44
2492.00,98.44
2491.00,98.44
2490.00,98.44
2489.00,98.44
2488.00,98.44
2487.00,98.44
2486.00,98.44
2485.00,98.44
2484.00,98.44
2483.00,98.44
2482.00,98.44
2481.00,98.44
2480.00,98.44
2479.00,98.44
2478.00,98.44
2477.00,98.44
2476.00,98.44
2475.00,98.44
2474.00,98.44
2473.00,98.44
2472.00,98.44
2471.00,98.44
2470.00,98.43
2469.00,98.43
2468.00,98.43
2467.00,98.43
2466.00,98.43
2465.00,98.43
2464.00,98.43
2463.00,98.44
2462.00,98.44
2461.00,98.44
2460.00,98.44
2459.00,98.44
2458.00,98.43
2457.00,98.43
2456.00,98.43
2455.00,98.43
2454.00,98.44
2453.00,98.44
2452.00,98.44
2451.00,98.44
2450.00,98.44
2449.00,98.44
2448.00,98.44
2447.00,98.44
2446.00,98.44
2445.00,98.44
2444.00,98.44
2443.00,98.44
2442.00,98.44
2441.00,98.44
2440.00,98.43
2439.00,98.43
2438.00,98.43
2437.00,98.43
2436.00,98.43
2435.00,98.43
2434.00,98.43
2433.00,98.43
2432.00,98.43
2431.00,98.43
2430.00,98.43
2429.00,98.43
2428.00,98.43
2427.00,98.43
2426.00,98.43
2425.00,98.43
2424.00,98.43
2423.00,98.43
2422.00,98.43
2421.00,98.43
2420.00,98.43
2419.00,98.43
2418.00,98.43
2417.00,98.43
2416.00,98.43
2415.00,98.43
2414.00,98.43
2413.00,98.43
2412.00,98.43
2411.00,98.43
2410.00,98.43
2409.00,98.43
2408.00,98.43
2407.00,98.43
2406.00,98.43
2405.00,98.43
2404.00,98.43
2403.00,98.43
2402.00,98.43
2401.00,98.43
2400.00,98.43
2399.00,98.43
2398.00,98.43
2397.00,98.43
2396.00,98.43
2395.00,98.43
2394.00,98.43
2393.00,98.43
2392.00,98.43
2391.00,98.43
2390.00,98.43
2389.00,98.43
2388.00,98.43
2387.00,98.43
2386.00,98.43
2385.00,98.43
2384.00,98.43
2383.00,98.43
2382.00,98.43
2381.00,98.43
2380.00,98.43
2379.00,98.43
2378.00,98.43
2377.00,98.44
2376.00,98.44
2375.00,98.44
2374.00,98.44
2373.00,98.44
2372.00,98.44
2371.00,98.44
2370.00,98.44
2369.00,98.44
2368.00,98.45
2367.00,98.45
2366.00,98.45
2365.00,98.45
2364.00,98.45
2363.00,98.45
2362.00,98.45
2361.00,98.46
2360.00,98.47
2359.00,98.47
2358.00,98.48
2357.00,98.48
2356.00,98.48
2355.00,98.48
2354.00,98.47
2353.00,98.45
2352.00,98.45
2351.00,98.46
2350.00,98.47
2349.00,98.47
2348.00,98.46
2347.00,98.43
2346.00,98.42
2345.00,98.42
2344.00,98.43
2343.00,98.44
2342.00,98.44
2341.00,98.45
2340.00,98.45
2339.00,98.45
2338.00,98.45
2337.00,98.45
2336.00,98.45
2335.00,98.45
2334.00,98.45
2333.00,98.45
2332.00,98.45
2331.00,98.45
2330.00,98.45
2329.00,98.45
2328.00,98.46
2327.00,98.46
2326.00,98.46
2325.00,98.46
2324.00,98.46
2323.00,98.45
2322.00,98.45
2321.00,98.45
2320.00,98.44
2319.00,98.44
2318.00,98.44
2317.00,98.44
2316.00,98.44
2315.00,98.44
2314.00,98.43
2313.00,98.43
2312.00,98.43
2311.00,98.42
2310.00,98.42
2309.00,98.42
2308.00,98.42
2307.00,98.42
2306.00,98.42
2305.00,98.42
2304.00,98.42
2303.00,98.42
2302.00,98.42
2301.00,98.42
2300.00,98.42
2299.00,98.42
2298.00,98.42
2297.00,98.42
2296.00,98.42
2295.00,98.42
2294.00,98.42
2293.00,98.42
2292.00,98.42
2291.00,98.42
2290.00,98.42
2289.00,98.42
2288.00,98.42
2287.00,98.42
2286.00,98.42
2285.00,98.42
2284.00,98.42
2283.00,98.42
2282.00,98.42
2281.00,98.42
2280.00,98.42
2279.00,98.43
2278.00,98.43
2277.00,98.43
2276.00,98.43
2275.00,98.43
2274.00,98.43
2273.00,98.43
2272.00,98.43
2271.00,98.43
2270.00,98.42
2269.00,98.42
2268.00,98.42
2267.00,98.42
2266.00,98.42
2265.00,98.42
2264.00,98.42
2263.00,98.42
2262.00,98.42
2261.00,98.42
2260.00,98.42
2259.00,98.42
2258.00,98.42
2257.00,98.42
2256.00,98.42
2255.00,98.42
2254.00,98.42
2253.00,98.42
2252.00,98.42
2251.00,98.42
2250.00,98.42
2249.00,98.42
2248.00,98.42
2247.00,98.42
2246.00,98.42
2245.00,98.42
2244.00,98.42
2243.00,98.42
2242.00,98.42
2241.00,98.42
2240.00,98.42
2239.00,98.42
2238.00,98.42
2237.00,98.42
2236.00,98.42
2235.00,98.42
2234.00,98.43
2233.00,98.43
2232.00,98.43
2231.00,98.43
2230.00,98.43
2229.00,98.43
2228.00,98.43
2227.00,98.43
2226.00,98.43
2225.00,98.43
2224.00,98.43
2223.00,98.43
2222.00,98.43
2221.00,98.43
2220.00,98.43
2219.00,98.43
2218.00,98.42
2217.00,98.42
2216.00,98.42
2215.00,98.42
2214.00,98.42
2213.00,98.42
2212.00,98.42
2211.00,98.42
2210.00,98.42
2209.00,98.42
2208.00,98.42
2207.00,98.42
2206.00,98.42
2205.00,98.42
2204.00,98.42
2203.00,98.42
2202.00,98.42
2201.00,98.42
2200.00,98.42
2199.00,98.42
2198.00,98.42
2197.00,98.42
2196.00,98.42
2195.00,98.42
2194.00,98.42
2193.00,98.42
2192.00,98.42
2191.00,98.42
2190.00,98.42
2189.00,98.43
2188.00,98.43
2187.00,98.43
2186.00,98.43
2185.00,98.43
2184.00,98.43
2183.00,98.43
2182.00,98.43
2181.00,98.43
2180.00,98.43
2179.00,98.43
2178.00,98.43
2177.00,98.43
2176.00,98.43
2175.00,98.43
2174.00,98.43
2173.00,98.43
2172.00,98.43
2171.00,98.43
2170.00,98.43
2169.00,98.43
2168.00,98.43
2167.00,98.43
2166.00,98.43
2165.00,98.43
2164.00,98.43
2163.00,98.43
2162.00,98.43
2161.00,98.43
2160.00,98.43
2159.00,98.42
2158.00,98.42
2157.00,98.42
2156.00,98.42
2155.00,98.42
2154.00,98.42
2153.00,98.42
2152.00,98.42
2151.00,98.42
2150.00,98.42
2149.00,98.42
2148.00,98.42
2147.00,98.42
2146.00,98.42
2145.00,98.42
2144.00,98.42
2143.00,98.42
2142.00,98.42
2141.00,98.42
2140.00,98.42
2139.00,98.42
2138.00,98.42
2137.00,98.42
2136.00,98.42
2135.00,98.43
2134.00,98.43
2133.00,98.43
2132.00,98.43
2131.00,98.43
2130.00,98.43
2129.00,98.43
2128.00,98.43
2127.00,98.43
2126.00,98.43
2125.00,98.43
2124.00,98.43
2123.00,98.43
2122.00,98.43
2121.00,98.43
2120.00,98.43
2119.00,98.43
2118.00,98.43
2117.00,98.43
2116.00,98.43
2115.00,98.42
2114.00,98.42
2113.00,98.42
2112.00,98.42
2111.00,98.42
2110.00,98.42
2109.00,98.42
2108.00,98.42
2107.00,98.42
2106.00,98.42
2105.00,98.42
2104.00,98.42
2103.00,98.42
2102.00,98.42
2101.00,98.42
2100.00,98.42
2099.00,98.42
2098.00,98.42
2097.00,98.42
2096.00,98.42
2095.00,98.42
2094.00,98.42
2093.00,98.42
2092.00,98.42
2091.00,98.42
2090.00,98.42
2089.00,98.42
2088.00,98.42
2087.00,98.42
2086.00,98.42
2085.00,98.42
2084.00,98.42
2083.00,98.42
2082.00,98.42
2081.00,98.42
2080.00,98.42
2079.00,98.42
2078.00,98.42
2077.00,98.42
2076.00,98.42
2075.00,98.42
2074.00,98.42
2073.00,98.42
2072.00,98.42
2071.00,98.42
2070.00,98.42
2069.00,98.42
2068.00,98.42
2067.00,98.42
2066.00,98.42
2065.00,98.42
2064.00,98.42
2063.00,98.42
2062.00,98.42
2061.00,98.42
2060.00,98.42
2059.00,98.42
2058.00,98.42
2057.00,98.42
2056.00,98.42
2055.00,98.42
2054.00,98.42
2053.00,98.42
2052.00,98.42
2051.00,98.42
2050.00,98.42
2049.00,98.42
2048.00,98.42
2047.00,98.42
2046.00,98.42
2045.00,98.42
2044.00,98.42
2043.00,98.42
2042.00,98.42
2041.00,98.42
2040.00,98.42
2039.00,98.42
2038.00,98.42
2037.00,98.42
2036.00,98.42
2035.00,98.42
2034.00,98.42
2033.00,98.42
2032.00,98.42
2031.00,98.42
2030.00,98.42
2029.00,98.42
2028.00,98.42
2027.00,98.42
2026.00,98.42
2025.00,98.43
2024.00,98.43
2023.00,98.43
2022.00,98.43
2021.00,98.43
2020.00,98.43
2019.00,98.43
2018.00,98.43
2017.00,98.43
2016.00,98.43
2015.00,98.43
2014.00,98.43
2013.00,98.43
2012.00,98.43
2011.00,98.43
2010.00,98.43
2009.00,98.43
2008.00,98.43
2007.00,98.43
2006.00,98.43
2005.00,98.43
2004.00,98.43
2003.00,98.43
2002.00,98.43
2001.00,98.43
2000.00,98.43
1999.00,98.43
1998.00,98.43
1997.00,98.42
1996.00,98.42
1995.00,98.42
1994.00,98.42
1993.00,98.42
1992.00,98.42
1991.00,98.42
1990.00,98.42
1989.00,98.42
1988.00,98.42
1987.00,98.42
1986.00,98.42
1985.00,98.42
1984.00,98.42
1983.00,98.42
1982.00,98.42
1981.00,98.42
1980.00,98.42
1979.00,98.42
1978.00,98.42
1977.00,98.42
1976.00,98.42
1975.00,98.42
1974.00,98.42
1973.00,98.42
1972.00,98.42
1971.00,98.42
1970.00,98.42
1969.00,98.42
1968.00,98.43
1967.00,98.43
1966.00,98.43
1965.00,98.43
1964.00,98.43
1963.00,98.43
1962.00,98.42
1961.00,98.42
1960.00,98.42
1959.00,98.43
1958.00,98.43
1957.00,98.43
1956.00,98.43
1955.00,98.42
1954.00,98.42
1953.00,98.42
1952.00,98.42
1951.00,98.42
1950.00,98.42
1949.00,98.42
1948.00,98.42
1947.00,98.42
1946.00,98.42
1945.00,98.42
1944.00,98.42
1943.00,98.42
1942.00,98.42
1941.00,98.41
1940.00,98.41
1939.00,98.41
1938.00,98.41
1937.00,98.42
1936.00,98.42
1935.00,98.42
1934.00,98.42
1933.00,98.42
1932.00,98.42
1931.00,98.42
1930.00,98.42
1929.00,98.42
1928.00,98.42
1927.00,98.42
1926.00,98.42
1925.00,98.42
1924.00,98.42
1923.00,98.42
1922.00,98.42
1921.00,98.42
1920.00,98.42
1919.00,98.42
1918.00,98.42
1917.00,98.42
1916.00,98.42
1915.00,98.42
1914.00,98.42
1913.00,98.43
1912.00,98.43
1911.00,98.43
1910.00,98.43
1909.00,98.43
1908.00,98.43
1907.00,98.43
1906.00,98.43
1905.00,98.43
1904.00,98.43
1903.00,98.43
1902.00,98.43
1901.00,98.43
1900.00,98.43
1899.00,98.43
1898.00,98.43
1897.00,98.43
1896.00,98.43
1895.00,98.42
1894.00,98.42
1893.00,98.42
1892.00,98.42
1891.00,98.42
1890.00,98.42
1889.00,98.42
1888.00,98.42
1887.00,98.42
1886.00,98.42
1885.00,98.42
1884.00,98.42
1883.00,98.42
1882.00,98.42
1881.00,98.42
1880.00,98.42
1879.00,98.42
1878.00,98.42
1877.00,98.42
1876.00,98.42
1875.00,98.42
1874.00,98.42
1873.00,98.42
1872.00,98.42
1871.00,98.42
1870.00,98.42
1869.00,98.42
1868.00,98.42
1867.00,98.42
1866.00,98.42
1865.00,98.42
1864.00,98.42
1863.00,98.42
1862.00,98.42
1861.00,98.42
1860.00,98.42
1859.00,98.42
1858.00,98.42
1857.00,98.42
1856.00,98.42
1855.00,98.42
1854.00,98.42
1853.00,98.42
1852.00,98.42
1851.00,98.42
1850.00,98.42
1849.00,98.42
1848.00,98.42
1847.00,98.42
1846.00,98.42
1845.00,98.42
1844.00,98.42
1843.00,98.42
1842.00,98.41
1841.00,98.42
1840.00,98.42
1839.00,98.42
1838.00,98.41
1837.00,98.41
1836.00,98.41
1835.00,98.41
1834.00,98.41
1833.00,98.41
1832.00,98.41
1831.00,98.41
1830.00,98.41
1829.00,98.41
1828.00,98.41
1827.00,98.41
1826.00,98.41
1825.00,98.41
1824.00,98.41
1823.00,98.41
1822.00,98.41
1821.00,98.41
1820.00,98.41
1819.00,98.41
1818.00,98.41
1817.00,98.41
1816.00,98.41
1815.00,98.41
1814.00,98.41
1813.00,98.41
1812.00,98.42
1811.00,98.41
1810.00,98.41
1809.00,98.41
1808.00,98.41
1807.00,98.42
1806.00,98.42
1805.00,98.42
1804.00,98.42
1803.00,98.42
1802.00,98.42
1801.00,98.42
1800.00,98.42
1799.00,98.41
1798.00,98.41
1797.00,98.41
1796.00,98.41
1795.00,98.41
1794.00,98.41
1793.00,98.41
1792.00,98.41
1791.00,98.41
1790.00,98.41
1789.00,98.41
1788.00,98.41
1787.00,98.41
1786.00,98.41
1785.00,98.41
1784.00,98.41
1783.00,98.40
1782.00,98.40
1781.00,98.40
1780.00,98.40
1779.00,98.40
1778.00,98.40
1777.00,98.40
1776.00,98.40
1775.00,98.40
1774.00,98.40
1773.00,98.40
1772.00,98.40
1771.00,98.40
1770.00,98.40
1769.00,98.40
1768.00,98.40
1767.00,98.40
1766.00,98.40
1765.00,98.40
1764.00,98.40
1763.00,98.41
1762.00,98.41
1761.00,98.41
1760.00,98.41
1759.00,98.41
1758.00,98.41
1757.00,98.41
1756.00,98.41
1755.00,98.41
1754.00,98.41
1753.00,98.41
1752.00,98.41
1751.00,98.41
1750.00,98.41
1749.00,98.41
1748.00,98.40
1747.00,98.40
1746.00,98.41
1745.00,98.41
1744.00,98.41
1743.00,98.41
1742.00,98.40
1741.00,98.40
1740.00,98.41
1739.00,98.41
1738.00,98.41
1737.00,98.40
1736.00,98.40
1735.00,98.40
1734.00,98.40
1733.00,98.40
1732.00,98.41
1731.00,98.40
1730.00,98.40
1729.00,98.40
1728.00,98.40
1727.00,98.40
1726.00,98.40
1725.00,98.40
1724.00,98.40
1723.00,98.40
1722.00,98.40
1721.00,98.40
1720.00,98.40
1719.00,98.40
1718.00,98.40
1717.00,98.39
1716.00,98.40
1715.00,98.39
1714.00,98.39
1713.00,98.40
1712.00,98.40
1711.00,98.40
1710.00,98.40
1709.00,98.40
1708.00,98.40
1707.00,98.41
1706.00,98.40
1705.00,98.40
1704.00,98.40
1703.00,98.40
1702.00,98.41
1701.00,98.41
1700.00,98.42
1699.00,98.42
1698.00,98.41
1697.00,98.41
1696.00,98.40
1695.00,98.40
1694.00,98.40
1693.00,98.41
1692.00,98.41
1691.00,98.41
1690.00,98.41
1689.00,98.41
1688.00,98.41
1687.00,98.41
1686.00,98.41
1685.00,98.40
1684.00,98.40
1683.00,98.40
1682.00,98.40
1681.00,98.40
1680.00,98.40
1679.00,98.40
1678.00,98.40
1677.00,98.40
1676.00,98.40
1675.00,98.40
1674.00,98.40
1673.00,98.40
1672.00,98.40
1671.00,98.40
1670.00,98.40
1669.00,98.40
1668.00,98.40
1667.00,98.40
1666.00,98.40
1665.00,98.40
1664.00,98.40
1663.00,98.40
1662.00,98.40
1661.00,98.40
1660.00,98.40
1659.00,98.40
1658.00,98.41
1657.00,98.41
1656.00,98.41
1655.00,98.41
1654.00,98.41
1653.00,98.41
1652.00,98.41
1651.00,98.41
1650.00,98.41
1649.00,98.41
1648.00,98.41
1647.00,98.40
1646.00,98.40
1645.00,98.41
1644.00,98.41
1643.00,98.41
1642.00,98.41
1641.00,98.41
1640.00,98.41
1639.00,98.41
1638.00,98.41
1637.00,98.41
1636.00,98.41
1635.00,98.41
1634.00,98.41
1633.00,98.41
1632.00,98.41
1631.00,98.41
1630.00,98.40
1629.00,98.40
1628.00,98.40
1627.00,98.40
1626.00,98.40
1625.00,98.40
1624.00,98.40
1623.00,98.40
1622.00,98.40
1621.00,98.40
1620.00,98.40
1619.00,98.39
1618.00,98.39
1617.00,98.39
1616.00,98.39
1615.00,98.39
1614.00,98.39
1613.00,98.40
1612.00,98.40
1611.00,98.40
1610.00,98.40
1609.00,98.40
1608.00,98.40
1607.00,98.40
1606.00,98.40
1605.00,98.40
1604.00,98.40
1603.00,98.40
1602.00,98.40
1601.00,98.40
1600.00,98.40
1599.00,98.40
1598.00,98.40
1597.00,98.41
1596.00,98.41
1595.00,98.41
1594.00,98.41
1593.00,98.41
1592.00,98.41
1591.00,98.41
1590.00,98.41
1589.00,98.41
1588.00,98.41
1587.00,98.41
1586.00,98.41
1585.00,98.41
1584.00,98.41
1583.00,98.40
1582.00,98.40
1581.00,98.40
1580.00,98.40
1579.00,98.40
1578.00,98.41
1577.00,98.41
1576.00,98.41
1575.00,98.41
1574.00,98.41
1573.00,98.40
1572.00,98.40
1571.00,98.40
1570.00,98.40
1569.00,98.39
1568.00,98.39
1567.00,98.39
1566.00,98.39
1565.00,98.39
1564.00,98.39
1563.00,98.39
1562.00,98.39
1561.00,98.39
1560.00,98.39
1559.00,98.39
1558.00,98.39
1557.00,98.39
1556.00,98.39
1555.00,98.39
1554.00,98.39
1553.00,98.39
1552.00,98.39
1551.00,98.40
1550.00,98.40
1549.00,98.40
1548.00,98.40
1547.00,98.40
1546.00,98.40
1545.00,98.41
1544.00,98.41
1543.00,98.41
1542.00,98.41
1541.00,98.41
1540.00,98.41
1539.00,98.41
1538.00,98.41
1537.00,98.41
1536.00,98.41
1535.00,98.41
1534.00,98.41
1533.00,98.41
1532.00,98.40
1531.00,98.40
1530.00,98.40
1529.00,98.40
1528.00,98.40
1527.00,98.41
1526.00,98.41
1525.00,98.41
1524.00,98.40
1523.00,98.40
1522.00,98.39
1521.00,98.39
1520.00,98.39
1519.00,98.39
1518.00,98.39
1517.00,98.39
1516.00,98.39
1515.00,98.39
1514.00,98.39
1513.00,98.39
1512.00,98.39
1511.00,98.39
1510.00,98.39
1509.00,98.39
1508.00,98.39
1507.00,98.39
1506.00,98.39
1505.00,98.39
1504.00,98.40
1503.00,98.39
1502.00,98.39
1501.00,98.39
1500.00,98.39
1499.00,98.39
1498.00,98.39
1497.00,98.40
1496.00,98.40
1495.00,98.40
1494.00,98.41
1493.00,98.41
1492.00,98.41
1491.00,98.41
1490.00,98.41
1489.00,98.41
1488.00,98.40
1487.00,98.40
1486.00,98.40
1485.00,98.40
1484.00,98.40
1483.00,98.40
1482.00,98.40
1481.00,98.40
1480.00,98.40
1479.00,98.40
1478.00,98.40
1477.00,98.40
1476.00,98.40
1475.00,98.39
1474.00,98.39
1473.00,98.39
1472.00,98.40
1471.00,98.39
1470.00,98.39
1469.00,98.39
1468.00,98.39
1467.00,98.39
1466.00,98.39
1465.00,98.39
1464.00,98.38
1463.00,98.38
1462.00,98.38
1461.00,98.38
1460.00,98.38
1459.00,98.38
1458.00,98.38
1457.00,98.38
1456.00,98.38
1455.00,98.38
1454.00,98.38
1453.00,98.38
1452.00,98.39
1451.00,98.39
1450.00,98.39
1449.00,98.39
1448.00,98.39
1447.00,98.39
1446.00,98.39
1445.00,98.39
1444.00,98.39
1443.00,98.39
1442.00,98.39
1441.00,98.39
1440.00,98.39
1439.00,98.39
1438.00,98.39
1437.00,98.39
1436.00,98.39
1435.00,98.39
1434.00,98.39
1433.00,98.39
1432.00,98.40
1431.00,98.40
1430.00,98.40
1429.00,98.40
1428.00,98.40
1427.00,98.40
1426.00,98.40
1425.00,98.39
1424.00,98.39
1423.00,98.39
1422.00,98.39
1421.00,98.39
1420.00,98.39
1419.00,98.39
1418.00,98.39
1417.00,98.39
1416.00,98.39
1415.00,98.39
1414.00,98.39
1413.00,98.39
1412.00,98.39
1411.00,98.39
1410.00,98.39
1409.00,98.39
1408.00,98.39
1407.00,98.39
1406.00,98.39
1405.00,98.39
1404.00,98.38
1403.00,98.39
1402.00,98.39
1401.00,98.39
1400.00,98.38
1399.00,98.39
1398.00,98.39
1397.00,98.39
1396.00,98.39
1395.00,98.39
1394.00,98.39
1393.00,98.38
1392.00,98.38
1391.00,98.38
1390.00,98.38
1389.00,98.39
1388.00,98.39
1387.00,98.39
1386.00,98.39
1385.00,98.39
1384.00,98.39
1383.00,98.39
1382.00,98.39
1381.00,98.39
1380.00,98.39
1379.00,98.39
1378.00,98.39
1377.00,98.39
1376.00,98.39
1375.00,98.39
1374.00,98.39
1373.00,98.39
1372.00,98.39
1371.00,98.38
1370.00,98.38
1369.00,98.38
1368.00,98.38
1367.00,98.38
1366.00,98.38
1365.00,98.38
1364.00,98.38
1363.00,98.38
1362.00,98.38
1361.00,98.38
1360.00,98.38
1359.00,98.38
1358.00,98.38
1357.00,98.38
1356.00,98.38
1355.00,98.38
1354.00,98.37
1353.00,98.37
1352.00,98.37
1351.00,98.37
1350.00,98.37
1349.00,98.37
1348.00,98.37
1347.00,98.37
1346.00,98.37
1345.00,98.37
1344.00,98.37
1343.00,98.37
1342.00,98.38
1341.00,98.38
1340.00,98.38
1339.00,98.38
1338.00,98.38
1337.00,98.38
1336.00,98.38
1335.00,98.38
1334.00,98.38
1333.00,98.38
1332.00,98.38
1331.00,98.38
1330.00,98.39
1329.00,98.39
1328.00,98.39
1327.00,98.39
1326.00,98.39
1325.00,98.39
1324.00,98.39
1323.00,98.39
1322.00,98.39
1321.00,98.39
1320.00,98.39
1319.00,98.39
1318.00,98.39
1317.00,98.39
1316.00,98.39
1315.00,98.39
1314.00,98.39
1313.00,98.39
1312.00,98.38
1311.00,98.38
1310.00,98.38
1309.00,98.38
1308.00,98.38
1307.00,98.38
1306.00,98.38
1305.00,98.38
1304.00,98.38
1303.00,98.38
1302.00,98.38
1301.00,98.38
1300.00,98.38
1299.00,98.38
1298.00,98.38
1297.00,98.38
1296.00,98.37
1295.00,98.38
1294.00,98.38
1293.00,98.38
1292.00,98.38
1291.00,98.38
1290.00,98.38
1289.00,98.38
1288.00,98.38
1287.00,98.38
1286.00,98.38
1285.00,98.38
1284.00,98.38
1283.00,98.38
1282.00,98.38
1281.00,98.39
1280.00,98.39
1279.00,98.39
1278.00,98.39
1277.00,98.39
1276.00,98.39
1275.00,98.39
1274.00,98.39
1273.00,98.39
1272.00,98.39
1271.00,98.39
1270.00,98.39
1269.00,98.39
1268.00,98.39
1267.00,98.40
1266.00,98.40
1265.00,98.40
1264.00,98.40
1263.00,98.40
1262.00,98.40
1261.00,98.40
1260.00,98.40
1259.00,98.40
1258.00,98.40
1257.00,98.39
1256.00,98.39
1255.00,98.39
1254.00,98.39
1253.00,98.39
1252.00,98.38
1251.00,98.38
1250.00,98.38
1249.00,98.38
1248.00,98.38
1247.00,98.38
1246.00,98.38
1245.00,98.38
1244.00,98.38
1243.00,98.38
1242.00,98.38
1241.00,98.38
1240.00,98.38
1239.00,98.38
1238.00,98.38
1237.00,98.38
1236.00,98.38
1235.00,98.38
1234.00,98.38
1233.00,98.38
1232.00,98.38
1231.00,98.38
1230.00,98.39
1229.00,98.38
1228.00,98.38
1227.00,98.38
1226.00,98.39
1225.00,98.39
1224.00,98.39
1223.00,98.39
1222.00,98.39
1221.00,98.39
1220.00,98.39
1219.00,98.39
1218.00,98.39
1217.00,98.39
1216.00,98.39
1215.00,98.39
1214.00,98.39
1213.00,98.39
1212.00,98.39
1211.00,98.39
1210.00,98.39
1209.00,98.39
1208.00,98.39
1207.00,98.39
1206.00,98.39
1205.00,98.39
1204.00,98.39
1203.00,98.39
1202.00,98.39
1201.00,98.39
1200.00,98.39
1199.00,98.38
1198.00,98.38
1197.00,98.38
1196.00,98.38
1195.00,98.38
1194.00,98.38
1193.00,98.38
1192.00,98.38
1191.00,98.38
1190.00,98.38
1189.00,98.38
1188.00,98.38
1187.00,98.38
1186.00,98.38
1185.00,98.38
1184.00,98.38
1183.00,98.38
1182.00,98.38
1181.00,98.38
1180.00,98.38
1179.00,98.39
1178.00,98.39
1177.00,98.39
1176.00,98.39
1175.00,98.39
1174.00,98.39
1173.00,98.39
1172.00,98.39
1171.00,98.39
1170.00,98.39
1169.00,98.39
1168.00,98.39
1167.00,98.39
1166.00,98.39
1165.00,98.39
1164.00,98.39
1163.00,98.40
1162.00,98.40
1161.00,98.40
1160.00,98.39
1159.00,98.39
1158.00,98.39
1157.00,98.39
1156.00,98.39
1155.00,98.39
1154.00,98.39
1153.00,98.39
1152.00,98.39
1151.00,98.39
1150.00,98.39
1149.00,98.39
1148.00,98.39
1147.00,98.39
1146.00,98.39
1145.00,98.38
1144.00,98.38
1143.00,98.38
1142.00,98.38
1141.00,98.38
1140.00,98.38
1139.00,98.38
1138.00,98.38
1137.00,98.38
1136.00,98.38
1135.00,98.38
1134.00,98.38
1133.00,98.38
1132.00,98.38
1131.00,98.38
1130.00,98.38
1129.00,98.38
1128.00,98.38
1127.00,98.38
1126.00,98.38
1125.00,98.38
1124.00,98.39
1123.00,98.39
1122.00,98.39
1121.00,98.39
1120.00,98.39
1119.00,98.39
1118.00,98.39
1117.00,98.39
1116.00,98.39
1115.00,98.39
1114.00,98.39
1113.00,98.39
1112.00,98.39
1111.00,98.39
1110.00,98.39
1109.00,98.39
1108.00,98.39
1107.00,98.39
1106.00,98.39
1105.00,98.39
1104.00,98.40
1103.00,98.40
1102.00,98.40
1101.00,98.40
1100.00,98.39
1099.00,98.39
1098.00,98.39
1097.00,98.39
1096.00,98.39
1095.00,98.39
1094.00,98.39
1093.00,98.38
1092.00,98.38
1091.00,98.38
1090.00,98.38
1089.00,98.38
1088.00,98.38
1087.00,98.38
1086.00,98.38
1085.00,98.38
1084.00,98.37
1083.00,98.37
1082.00,98.37
1081.00,98.37
1080.00,98.37
1079.00,98.37
1078.00,98.37
1077.00,98.36
1076.00,98.36
1075.00,98.36
1074.00,98.36
1073.00,98.35
1072.00,98.35
1071.00,98.35
1070.00,98.34
1069.00,98.34
1068.00,98.34
1067.00,98.33
1066.00,98.33
1065.00,98.32
1064.00,98.32
1063.00,98.31
1062.00,98.31
1061.00,98.30
1060.00,98.30
1059.00,98.30
1058.00,98.29
1057.00,98.29
1056.00,98.29
1055.00,98.29
1054.00,98.29
1053.00,98.29
1052.00,98.30
1051.00,98.30
1050.00,98.31
1049.00,98.31
1048.00,98.32
1047.00,98.32
1046.00,98.32
1045.00,98.33
1044.00,98.33
1043.00,98.33
1042.00,98.34
1041.00,98.34
1040.00,98.34
1039.00,98.35
1038.00,98.35
1037.00,98.34
1036.00,98.31
1035.00,98.27
1034.00,98.24
1033.00,98.23
1032.00,98.25
1031.00,98.28
1030.00,98.32
1029.00,98.33
1028.00,98.34
1027.00,98.34
1026.00,98.34
1025.00,98.33
1024.00,98.33
1023.00,98.33
1022.00,98.32
1021.00,98.32
1020.00,98.31
1019.00,98.31
1018.00,98.31
1017.00,98.31
1016.00,98.31
1015.00,98.31
1014.00,98.31
1013.00,98.31
1012.00,98.31
1011.00,98.31
1010.00,98.31
1009.00,98.31
1008.00,98.31
1007.00,98.31
1006.00,98.31
1005.00,98.32
1004.00,98.32
1003.00,98.32
1002.00,98.32
1001.00,98.32
1000.00,98.32
999.00,98.32
998.00,98.32
997.00,98.32
996.00,98.32
995.00,98.33
994.00,98.33
993.00,98.33
992.00,98.33
991.00,98.33
990.00,98.33
989.00,98.34
988.00,98.34
987.00,98.34
986.00,98.34
985.00,98.34
984.00,98.34
983.00,98.34
982.00,98.34
981.00,98.34
980.00,98.34
979.00,98.34
978.00,98.34
977.00,98.34
976.00,98.34
975.00,98.34
974.00,98.34
973.00,98.34
972.00,98.34
971.00,98.34
970.00,98.35
969.00,98.35
968.00,98.35
967.00,98.35
966.00,98.35
965.00,98.35
964.00,98.35
963.00,98.35
962.00,98.35
961.00,98.36
960.00,98.36
959.00,98.36
958.00,98.35
957.00,98.35
956.00,98.35
955.00,98.36
954.00,98.36
953.00,98.36
952.00,98.36
951.00,98.36
950.00,98.36
949.00,98.36
948.00,98.36
947.00,98.36
946.00,98.36
945.00,98.36
944.00,98.36
943.00,98.35
942.00,98.35
941.00,98.35
940.00,98.35
939.00,98.35
938.00,98.35
937.00,98.35
936.00,98.35
935.00,98.35
934.00,98.34
933.00,98.34
932.00,98.34
931.00,98.34
930.00,98.34
929.00,98.34
928.00,98.34
927.00,98.34
926.00,98.35
925.00,98.35
924.00,98.35
923.00,98.34
922.00,98.34
921.00,98.34
920.00,98.34
919.00,98.34
918.00,98.34
917.00,98.34
916.00,98.35
915.00,98.35
914.00,98.35
913.00,98.35
912.00,98.35
911.00,98.35
910.00,98.35
909.00,98.36
908.00,98.36
907.00,98.36
906.00,98.36
905.00,98.36
904.00,98.36
903.00,98.36
902.00,98.36
901.00,98.36
900.00,98.36
899.00,98.36
898.00,98.36
897.00,98.36
896.00,98.36
895.00,98.36
894.00,98.36
893.00,98.37
892.00,98.36
891.00,98.36
890.00,98.36
889.00,98.36
888.00,98.36
887.00,98.36
886.00,98.36
885.00,98.36
884.00,98.36
883.00,98.36
882.00,98.36
881.00,98.36
880.00,98.36
879.00,98.36
878.00,98.36
877.00,98.36
876.00,98.36
875.00,98.36
874.00,98.36
873.00,98.36
872.00,98.36
871.00,98.36
870.00,98.37
869.00,98.37
868.00,98.37
867.00,98.37
866.00,98.37
865.00,98.37
864.00,98.37
863.00,98.37
862.00,98.37
861.00,98.37
860.00,98.37
859.00,98.37
858.00,98.37
857.00,98.37
856.00,98.38
855.00,98.38
854.00,98.38
853.00,98.38
852.00,98.38
851.00,98.38
850.00,98.38
849.00,98.38
848.00,98.38
847.00,98.38
846.00,98.38
845.00,98.38
844.00,98.38
843.00,98.39
842.00,98.38
841.00,98.38
840.00,98.38
839.00,98.38
838.00,98.39
837.00,98.39
836.00,98.39
835.00,98.39
834.00,98.39
833.00,98.39
832.00,98.39
831.00,98.39
830.00,98.39
829.00,98.39
828.00,98.39
827.00,98.39
826.00,98.40
825.00,98.40
824.00,98.40
823.00,98.40
822.00,98.40
821.00,98.40
820.00,98.39
819.00,98.39
818.00,98.39
817.00,98.39
816.00,98.39
815.00,98.39
814.00,98.39
813.00,98.39
812.00,98.39
811.00,98.39
810.00,98.39
809.00,98.39
808.00,98.39
807.00,98.40
806.00,98.40
805.00,98.40
804.00,98.40
803.00,98.40
802.00,98.40
801.00,98.40
800.00,98.40
799.00,98.40
798.00,98.40
797.00,98.40
796.00,98.40
795.00,98.40
794.00,98.40
793.00,98.40
792.00,98.40
791.00,98.40
790.00,98.40
789.00,98.40
788.00,98.40
787.00,98.40
786.00,98.40
785.00,98.40
784.00,98.40
783.00,98.39
782.00,98.39
781.00,98.39
780.00,98.39
779.00,98.39
778.00,98.39
777.00,98.39
776.00,98.39
775.00,98.39
774.00,98.39
773.00,98.39
772.00,98.39
771.00,98.39
770.00,98.39
769.00,98.39
768.00,98.39
767.00,98.39
766.00,98.39
765.00,98.39
764.00,98.39
763.00,98.39
762.00,98.39
761.00,98.39
760.00,98.39
759.00,98.39
758.00,98.40
757.00,98.40
756.00,98.40
755.00,98.40
754.00,98.40
753.00,98.40
752.00,98.40
751.00,98.41
750.00,98.40
749.00,98.40
748.00,98.40
747.00,98.40
746.00,98.40
745.00,98.40
744.00,98.40
743.00,98.40
742.00,98.41
741.00,98.41
740.00,98.41
739.00,98.41
738.00,98.41
737.00,98.41
736.00,98.41
735.00,98.41
734.00,98.41
733.00,98.40
732.00,98.40
731.00,98.40
730.00,98.40
729.00,98.40
728.00,98.40
727.00,98.40
726.00,98.40
725.00,98.40
724.00,98.40
723.00,98.40
722.00,98.40
721.00,98.40
720.00,98.40
719.00,98.40
718.00,98.40
717.00,98.41
716.00,98.41
715.00,98.41
714.00,98.40
713.00,98.40
712.00,98.40
711.00,98.40
710.00,98.40
709.00,98.40
708.00,98.40
707.00,98.41
706.00,98.41
705.00,98.41
704.00,98.41
703.00,98.41
702.00,98.41
701.00,98.41
700.00,98.41
699.00,98.41
698.00,98.42
697.00,98.42
696.00,98.42
695.00,98.42
694.00,98.42
693.00,98.42
692.00,98.42
691.00,98.42
690.00,98.42
689.00,98.42
688.00,98.42
687.00,98.42
686.00,98.42
685.00,98.42
684.00,98.42
683.00,98.43
682.00,98.43
681.00,98.43
680.00,98.43
679.00,98.43
678.00,98.43
677.00,98.43
676.00,98.43
675.00,98.42
674.00,98.42
673.00,98.42
672.00,98.42
671.00,98.43
670.00,98.45
669.00,98.47
668.00,98.50
667.00,98.50
666.00,98.47
665.00,98.45
664.00,98.43
663.00,98.42
662.00,98.42
661.00,98.42
660.00,98.42
659.00,98.42
658.00,98.42
657.00,98.42
656.00,98.42
655.00,98.42
654.00,98.43
653.00,98.43
652.00,98.43
651.00,98.43
650.00,98.43
649.00,98.42
648.00,98.42
647.00,98.43
646.00,98.44
645.00,98.44
644.00,98.44
643.00,98.44
642.00,98.44
641.00,98.44
640.00,98.44
639.00,98.44
638.00,98.44
637.00,98.45
636.00,98.44
635.00,98.44
634.00,98.45
633.00,98.45
632.00,98.45
631.00,98.45
630.00,98.45
629.00,98.44
628.00,98.44
627.00,98.44
626.00,98.44
625.00,98.44
624.00,98.45
623.00,98.45
622.00,98.45
621.00,98.45
620.00,98.45
619.00,98.45
618.00,98.45
617.00,98.45
616.00,98.45
615.00,98.45
614.00,98.45
613.00,98.45
612.00,98.45
611.00,98.45
610.00,98.45
609.00,98.45
608.00,98.45
607.00,98.45
606.00,98.45
605.00,98.45
604.00,98.45
603.00,98.46
602.00,98.46
601.00,98.46
600.00,98.46
599.00,98.46
598.00,98.45
597.00,98.45
596.00,98.45
595.00,98.45
594.00,98.46
593.00,98.47
592.00,98.47
591.00,98.48
590.00,98.48
589.00,98.47
588.00,98.47
587.00,98.47
586.00,98.47
585.00,98.47
584.00,98.47
583.00,98.47
582.00,98.47
581.00,98.47
580.00,98.47
579.00,98.47
578.00,98.47
577.00,98.48
576.00,98.48
575.00,98.48
574.00,98.48
573.00,98.47
572.00,98.47
571.00,98.47
570.00,98.48
569.00,98.48
568.00,98.48
567.00,98.48
566.00,98.48
565.00,98.48
564.00,98.48
563.00,98.48
562.00,98.48
561.00,98.48
560.00,98.48
559.00,98.47
558.00,98.47
557.00,98.47
556.00,98.47
555.00,98.47
554.00,98.47
553.00,98.47
552.00,98.47
551.00,98.47
550.00,98.46
549.00,98.47
548.00,98.47
547.00,98.48
546.00,98.48
545.00,98.48
544.00,98.48
543.00,98.48
542.00,98.48
541.00,98.48
540.00,98.47
539.00,98.47
538.00,98.48
537.00,98.48
536.00,98.48
535.00,98.48
534.00,98.48
533.00,98.47
532.00,98.47
531.00,98.47
530.00,98.47
529.00,98.47
528.00,98.47
527.00,98.47
526.00,98.47
525.00,98.48
524.00,98.47
523.00,98.47
522.00,98.47
521.00,98.47
520.00,98.47
519.00,98.47
518.00,98.47
517.00,98.47
516.00,98.48
515.00,98.48
514.00,98.49
513.00,98.49
512.00,98.49
511.00,98.48
510.00,98.47
509.00,98.47
508.00,98.47
507.00,98.47
506.00,98.47
505.00,98.47
504.00,98.46
503.00,98.46
502.00,98.47
501.00,98.48
500.00,98.49
