Created as New Dataset,Sample 350 By Analyst Date Thursday, February 06 2025
cm-1,%T
4000.00,107.52
3999.00,107.52
3998.00,107.52
3997.00,107.52
3996.00,107.51
3995.00,107.51
3994.00,107.51
3993.00,107.51
3992.00,107.51
3991.00,107.51
3990.00,107.51
3989.00,107.51
3988.00,107.51
3987.00,107.50
3986.00,107.50
3985.00,107.50
3984.00,107.50
3983.00,107.50
3982.00,107.50
3981.00,107.50
3980.00,107.50
3979.00,107.50
3978.00,107.49
3977.00,107.49
3976.00,107.49
3975.00,107.48
3974.00,107.48
3973.00,107.48
3972.00,107.47
3971.00,107.47
3970.00,107.47
3969.00,107.47
3968.00,107.47
3967.00,107.47
3966.00,107.47
3965.00,107.47
3964.00,107.47
3963.00,107.47
3962.00,107.47
3961.00,107.47
3960.00,107.47
3959.00,107.47
3958.00,107.47
3957.00,107.48
3956.00,107.48
3955.00,107.49
3954.00,107.48
3953.00,107.48
3952.00,107.48
3951.00,107.47
3950.00,107.46
3949.00,107.46
3948.00,107.45
3947.00,107.46
3946.00,107.46
3945.00,107.46
3944.00,107.46
3943.00,107.46
3942.00,107.46
3941.00,107.47
3940.00,107.47
3939.00,107.47
3938.00,107.48
3937.00,107.48
3936.00,107.47
3935.00,107.46
3934.00,107.45
3933.00,107.44
3932.00,107.43
3931.00,107.42
3930.00,107.42
3929.00,107.41
3928.00,107.42
3927.00,107.42
3926.00,107.41
3925.00,107.41
3924.00,107.40
3923.00,107.39
3922.00,107.37
3921.00,107.35
3920.00,107.34
3919.00,107.34
3918.00,107.34
3917.00,107.35
3916.00,107.36
3915.00,107.37
3914.00,107.38
3913.00,107.39
3912.00,107.40
3911.00,107.41
3910.00,107.41
3909.00,107.39
3908.00,107.36
3907.00,107.33
3906.00,107.29
3905.00,107.24
3904.00,107.20
3903.00,107.17
3902.00,107.15
3901.00,107.15
3900.00,107.17
3899.00,107.21
3898.00,107.26
3897.00,107.30
3896.00,107.32
3895.00,107.33
3894.00,107.34
3893.00,107.34
3892.00,107.34
3891.00,107.33
3890.00,107.32
3889.00,107.30
3888.00,107.28
3887.00,107.28
3886.00,107.30
3885.00,107.31
3884.00,107.29
3883.00,107.26
3882.00,107.23
3881.00,107.25
3880.00,107.28
3879.00,107.31
3878.00,107.32
3877.00,107.31
3876.00,107.30
3875.00,107.30
3874.00,107.30
3873.00,107.28
3872.00,107.25
3871.00,107.22
3870.00,107.21
3869.00,107.21
3868.00,107.21
3867.00,107.19
3866.00,107.18
3865.00,107.20
3864.00,107.23
3863.00,107.25
3862.00,107.25
3861.00,107.26
3860.00,107.27
3859.00,107.28
3858.00,107.27
3857.00,107.25
3856.00,107.23
3855.00,107.20
3854.00,107.18
3853.00,107.17
3852.00,107.16
3851.00,107.14
3850.00,107.15
3849.00,107.20
3848.00,107.27
3847.00,107.32
3846.00,107.34
3845.00,107.33
3844.00,107.31
3843.00,107.28
3842.00,107.25
3841.00,107.22
3840.00,107.20
3839.00,107.19
3838.00,107.19
3837.00,107.18
3836.00,107.16
3835.00,107.15
3834.00,107.16
3833.00,107.19
3832.00,107.23
3831.00,107.27
3830.00,107.29
3829.00,107.29
3828.00,107.29
3827.00,107.28
3826.00,107.27
3825.00,107.24
3824.00,107.20
3823.00,107.16
3822.00,107.14
3821.00,107.13
3820.00,107.12
3819.00,107.10
3818.00,107.09
3817.00,107.12
3816.00,107.18
3815.00,107.23
3814.00,107.24
3813.00,107.23
3812.00,107.22
3811.00,107.24
3810.00,107.26
3809.00,107.26
3808.00,107.25
3807.00,107.23
3806.00,107.20
3805.00,107.17
3804.00,107.14
3803.00,107.13
3802.00,107.15
3801.00,107.18
3800.00,107.17
3799.00,107.14
3798.00,107.12
3797.00,107.15
3796.00,107.22
3795.00,107.27
3794.00,107.30
3793.00,107.31
3792.00,107.33
3791.00,107.35
3790.00,107.37
3789.00,107.37
3788.00,107.37
3787.00,107.36
3786.00,107.36
3785.00,107.35
3784.00,107.34
3783.00,107.32
3782.00,107.31
3781.00,107.30
3780.00,107.30
3779.00,107.31
3778.00,107.32
3777.00,107.33
3776.00,107.33
3775.00,107.33
3774.00,107.33
3773.00,107.32
3772.00,107.30
3771.00,107.28
3770.00,107.27
3769.00,107.26
3768.00,107.24
3767.00,107.23
3766.00,107.23
3765.00,107.25
3764.00,107.27
3763.00,107.26
3762.00,107.25
3761.00,107.24
3760.00,107.23
3759.00,107.23
3758.00,107.21
3757.00,107.18
3756.00,107.16
3755.00,107.15
3754.00,107.13
3753.00,107.10
3752.00,107.07
3751.00,107.03
3750.00,106.99
3749.00,106.94
3748.00,106.90
3747.00,106.89
3746.00,106.90
3745.00,106.96
3744.00,107.03
3743.00,107.06
3742.00,107.03
3741.00,107.00
3740.00,107.01
3739.00,107.04
3738.00,107.06
3737.00,107.03
3736.00,106.98
3735.00,106.94
3734.00,106.93
3733.00,106.95
3732.00,107.00
3731.00,107.06
3730.00,107.09
3729.00,107.11
3728.00,107.12
3727.00,107.13
3726.00,107.14
3725.00,107.13
3724.00,107.12
3723.00,107.11
3722.00,107.12
3721.00,107.13
3720.00,107.15
3719.00,107.16
3718.00,107.17
3717.00,107.16
3716.00,107.15
3715.00,107.13
3714.00,107.11
3713.00,107.08
3712.00,107.06
3711.00,107.04
3710.00,107.03
3709.00,107.05
3708.00,107.09
3707.00,107.13
3706.00,107.17
3705.00,107.20
3704.00,107.21
3703.00,107.22
3702.00,107.23
3701.00,107.25
3700.00,107.26
3699.00,107.27
3698.00,107.28
3697.00,107.30
3696.00,107.32
3695.00,107.31
3694.00,107.29
3693.00,107.26
3692.00,107.24
3691.00,107.23
3690.00,107.22
3689.00,107.23
3688.00,107.25
3687.00,107.28
3686.00,107.29
3685.00,107.31
3684.00,107.34
3683.00,107.38
3682.00,107.40
3681.00,107.38
3680.00,107.34
3679.00,107.30
3678.00,107.24
3677.00,107.19
3676.00,107.16
3675.00,107.15
3674.00,107.14
3673.00,107.11
3672.00,107.11
3671.00,107.14
3670.00,107.20
3669.00,107.25
3668.00,107.27
3667.00,107.29
3666.00,107.32
3665.00,107.36
3664.00,107.41
3663.00,107.43
3662.00,107.43
3661.00,107.41
3660.00,107.38
3659.00,107.35
3658.00,107.33
3657.00,107.31
3656.00,107.30
3655.00,107.26
3654.00,107.21
3653.00,107.15
3652.00,107.10
3651.00,107.08
3650.00,107.06
3649.00,107.03
3648.00,107.02
3647.00,107.04
3646.00,107.09
3645.00,107.16
3644.00,107.22
3643.00,107.27
3642.00,107.31
3641.00,107.33
3640.00,107.34
3639.00,107.34
3638.00,107.33
3637.00,107.32
3636.00,107.31
3635.00,107.29
3634.00,107.26
3633.00,107.22
3632.00,107.18
3631.00,107.13
3630.00,107.10
3629.00,107.11
3628.00,107.13
3627.00,107.15
3626.00,107.16
3625.00,107.19
3624.00,107.23
3623.00,107.27
3622.00,107.27
3621.00,107.26
3620.00,107.23
3619.00,107.22
3618.00,107.20
3617.00,107.18
3616.00,107.17
3615.00,107.17
3614.00,107.17
3613.00,107.18
3612.00,107.18
3611.00,107.17
3610.00,107.18
3609.00,107.19
3608.00,107.21
3607.00,107.23
3606.00,107.25
3605.00,107.27
3604.00,107.29
3603.00,107.31
3602.00,107.32
3601.00,107.32
3600.00,107.31
3599.00,107.30
3598.00,107.29
3597.00,107.28
3596.00,107.27
3595.00,107.27
3594.00,107.27
3593.00,107.26
3592.00,107.25
3591.00,107.24
3590.00,107.22
3589.00,107.21
3588.00,107.20
3587.00,107.20
3586.00,107.21
3585.00,107.23
3584.00,107.26
3583.00,107.29
3582.00,107.32
3581.00,107.34
3580.00,107.36
3579.00,107.36
3578.00,107.36
3577.00,107.36
3576.00,107.37
3575.00,107.37
3574.00,107.37
3573.00,107.36
3572.00,107.35
3571.00,107.33
3570.00,107.30
3569.00,107.27
3568.00,107.25
3567.00,107.24
3566.00,107.24
3565.00,107.24
3564.00,107.26
3563.00,107.29
3562.00,107.31
3561.00,107.34
3560.00,107.36
3559.00,107.36
3558.00,107.37
3557.00,107.37
3556.00,107.37
3555.00,107.36
3554.00,107.36
3553.00,107.35
3552.00,107.34
3551.00,107.33
3550.00,107.32
3549.00,107.31
3548.00,107.30
3547.00,107.30
3546.00,107.29
3545.00,107.29
3544.00,107.29
3543.00,107.30
3542.00,107.31
3541.00,107.32
3540.00,107.33
3539.00,107.33
3538.00,107.33
3537.00,107.33
3536.00,107.33
3535.00,107.33
3534.00,107.33
3533.00,107.33
3532.00,107.34
3531.00,107.34
3530.00,107.33
3529.00,107.33
3528.00,107.32
3527.00,107.32
3526.00,107.31
3525.00,107.31
3524.00,107.31
3523.00,107.32
3522.00,107.33
3521.00,107.34
3520.00,107.34
3519.00,107.35
3518.00,107.35
3517.00,107.36
3516.00,107.36
3515.00,107.36
3514.00,107.36
3513.00,107.36
3512.00,107.35
3511.00,107.35
3510.00,107.34
3509.00,107.34
3508.00,107.33
3507.00,107.33
3506.00,107.33
3505.00,107.33
3504.00,107.32
3503.00,107.32
3502.00,107.31
3501.00,107.31
3500.00,107.32
3499.00,107.32
3498.00,107.33
3497.00,107.33
3496.00,107.33
3495.00,107.33
3494.00,107.33
3493.00,107.34
3492.00,107.34
3491.00,107.34
3490.00,107.34
3489.00,107.34
3488.00,107.34
3487.00,107.34
3486.00,107.34
3485.00,107.34
3484.00,107.34
3483.00,107.35
3482.00,107.35
3481.00,107.35
3480.00,107.35
3479.00,107.35
3478.00,107.36
3477.00,107.37
3476.00,107.38
3475.00,107.38
3474.00,107.38
3473.00,107.39
3472.00,107.39
3471.00,107.39
3470.00,107.39
3469.00,107.40
3468.00,107.40
3467.00,107.40
3466.00,107.41
3465.00,107.41
3464.00,107.41
3463.00,107.41
3462.00,107.41
3461.00,107.41
3460.00,107.41
3459.00,107.41
3458.00,107.41
3457.00,107.41
3456.00,107.41
3455.00,107.41
3454.00,107.41
3453.00,107.41
3452.00,107.41
3451.00,107.40
3450.00,107.40
3449.00,107.40
3448.00,107.39
3447.00,107.39
3446.00,107.39
3445.00,107.39
3444.00,107.39
3443.00,107.40
3442.00,107.40
3441.00,107.41
3440.00,107.41
3439.00,107.41
3438.00,107.41
3437.00,107.42
3436.00,107.43
3435.00,107.43
3434.00,107.43
3433.00,107.44
3432.00,107.44
3431.00,107.44
3430.00,107.44
3429.00,107.44
3428.00,107.45
3427.00,107.45
3426.00,107.46
3425.00,107.46
3424.00,107.46
3423.00,107.46
3422.00,107.46
3421.00,107.46
3420.00,107.45
3419.00,107.46
3418.00,107.46
3417.00,107.46
3416.00,107.46
3415.00,107.46
3414.00,107.46
3413.00,107.46
3412.00,107.46
3411.00,107.46
3410.00,107.45
3409.00,107.45
3408.00,107.45
3407.00,107.44
3406.00,107.44
3405.00,107.43
3404.00,107.42
3403.00,107.42
3402.00,107.41
3401.00,107.41
3400.00,107.41
3399.00,107.40
3398.00,107.40
3397.00,107.39
3396.00,107.38
3395.00,107.38
3394.00,107.37
3393.00,107.37
3392.00,107.36
3391.00,107.36
3390.00,107.36
3389.00,107.36
3388.00,107.36
3387.00,107.36
3386.00,107.35
3385.00,107.35
3384.00,107.35
3383.00,107.35
3382.00,107.35
3381.00,107.35
3380.00,107.35
3379.00,107.35
3378.00,107.34
3377.00,107.34
3376.00,107.34
3375.00,107.34
3374.00,107.34
3373.00,107.34
3372.00,107.34
3371.00,107.34
3370.00,107.33
3369.00,107.33
3368.00,107.33
3367.00,107.33
3366.00,107.33
3365.00,107.33
3364.00,107.33
3363.00,107.33
3362.00,107.32
3361.00,107.32
3360.00,107.32
3359.00,107.32
3358.00,107.32
3357.00,107.32
3356.00,107.32
3355.00,107.32
3354.00,107.32
3353.00,107.32
3352.00,107.32
3351.00,107.32
3350.00,107.32
3349.00,107.32
3348.00,107.32
3347.00,107.32
3346.00,107.32
3345.00,107.32
3344.00,107.32
3343.00,107.32
3342.00,107.32
3341.00,107.33
3340.00,107.33
3339.00,107.33
3338.00,107.33
3337.00,107.33
3336.00,107.33
3335.00,107.33
3334.00,107.34
3333.00,107.34
3332.00,107.34
3331.00,107.35
3330.00,107.35
3329.00,107.35
3328.00,107.35
3327.00,107.36
3326.00,107.36
3325.00,107.36
3324.00,107.37
3323.00,107.37
3322.00,107.38
3321.00,107.38
3320.00,107.39
3319.00,107.39
3318.00,107.40
3317.00,107.41
3316.00,107.41
3315.00,107.42
3314.00,107.42
3313.00,107.43
3312.00,107.44
3311.00,107.45
3310.00,107.46
3309.00,107.47
3308.00,107.48
3307.00,107.50
3306.00,107.51
3305.00,107.52
3304.00,107.53
3303.00,107.53
3302.00,107.53
3301.00,107.53
3300.00,107.52
3299.00,107.51
3298.00,107.50
3297.00,107.48
3296.00,107.47
3295.00,107.45
3294.00,107.44
3293.00,107.42
3292.00,107.41
3291.00,107.40
3290.00,107.39
3289.00,107.38
3288.00,107.37
3287.00,107.36
3286.00,107.35
3285.00,107.35
3284.00,107.34
3283.00,107.33
3282.00,107.33
3281.00,107.32
3280.00,107.32
3279.00,107.31
3278.00,107.31
3277.00,107.30
3276.00,107.30
3275.00,107.29
3274.00,107.29
3273.00,107.29
3272.00,107.28
3271.00,107.28
3270.00,107.28
3269.00,107.28
3268.00,107.28
3267.00,107.28
3266.00,107.28
3265.00,107.28
3264.00,107.28
3263.00,107.28
3262.00,107.28
3261.00,107.28
3260.00,107.28
3259.00,107.29
3258.00,107.29
3257.00,107.29
3256.00,107.29
3255.00,107.29
3254.00,107.29
3253.00,107.29
3252.00,107.30
3251.00,107.30
3250.00,107.30
3249.00,107.30
3248.00,107.30
3247.00,107.30
3246.00,107.30
3245.00,107.30
3244.00,107.30
3243.00,107.31
3242.00,107.31
3241.00,107.31
3240.00,107.31
3239.00,107.31
3238.00,107.31
3237.00,107.31
3236.00,107.31
3235.00,107.31
3234.00,107.31
3233.00,107.31
3232.00,107.31
3231.00,107.31
3230.00,107.31
3229.00,107.32
3228.00,107.32
3227.00,107.32
3226.00,107.32
3225.00,107.33
3224.00,107.33
3223.00,107.33
3222.00,107.34
3221.00,107.34
3220.00,107.34
3219.00,107.34
3218.00,107.34
3217.00,107.35
3216.00,107.35
3215.00,107.35
3214.00,107.36
3213.00,107.36
3212.00,107.36
3211.00,107.36
3210.00,107.37
3209.00,107.37
3208.00,107.37
3207.00,107.38
3206.00,107.38
3205.00,107.38
3204.00,107.38
3203.00,107.39
3202.00,107.38
3201.00,107.38
3200.00,107.38
3199.00,107.38
3198.00,107.38
3197.00,107.38
3196.00,107.38
3195.00,107.38
3194.00,107.38
3193.00,107.37
3192.00,107.37
3191.00,107.37
3190.00,107.37
3189.00,107.37
3188.00,107.36
3187.00,107.36
3186.00,107.36
3185.00,107.36
3184.00,107.35
3183.00,107.35
3182.00,107.35
3181.00,107.35
3180.00,107.34
3179.00,107.34
3178.00,107.34
3177.00,107.33
3176.00,107.33
3175.00,107.33
3174.00,107.33
3173.00,107.33
3172.00,107.33
3171.00,107.33
3170.00,107.33
3169.00,107.33
3168.00,107.33
3167.00,107.33
3166.00,107.34
3165.00,107.34
3164.00,107.34
3163.00,107.35
3162.00,107.35
3161.00,107.35
3160.00,107.36
3159.00,107.36
3158.00,107.36
3157.00,107.36
3156.00,107.36
3155.00,107.36
3154.00,107.37
3153.00,107.37
3152.00,107.37
3151.00,107.37
3150.00,107.37
3149.00,107.37
3148.00,107.37
3147.00,107.37
3146.00,107.37
3145.00,107.37
3144.00,107.37
3143.00,107.37
3142.00,107.37
3141.00,107.37
3140.00,107.37
3139.00,107.37
3138.00,107.37
3137.00,107.37
3136.00,107.37
3135.00,107.37
3134.00,107.37
3133.00,107.37
3132.00,107.37
3131.00,107.37
3130.00,107.37
3129.00,107.37
3128.00,107.37
3127.00,107.37
3126.00,107.37
3125.00,107.37
3124.00,107.37
3123.00,107.37
3122.00,107.37
3121.00,107.37
3120.00,107.37
3119.00,107.37
3118.00,107.37
3117.00,107.38
3116.00,107.38
3115.00,107.38
3114.00,107.39
3113.00,107.39
3112.00,107.39
3111.00,107.39
3110.00,107.40
3109.00,107.40
3108.00,107.40
3107.00,107.41
3106.00,107.41
3105.00,107.41
3104.00,107.41
3103.00,107.40
3102.00,107.40
3101.00,107.40
3100.00,107.40
3099.00,107.40
3098.00,107.40
3097.00,107.40
3096.00,107.40
3095.00,107.39
3094.00,107.39
3093.00,107.39
3092.00,107.39
3091.00,107.39
3090.00,107.38
3089.00,107.38
3088.00,107.38
3087.00,107.37
3086.00,107.37
3085.00,107.37
3084.00,107.36
3083.00,107.36
3082.00,107.36
3081.00,107.35
3080.00,107.35
3079.00,107.35
3078.00,107.35
3077.00,107.35
3076.00,107.35
3075.00,107.35
3074.00,107.35
3073.00,107.35
3072.00,107.35
3071.00,107.35
3070.00,107.35
3069.00,107.35
3068.00,107.35
3067.00,107.35
3066.00,107.35
3065.00,107.36
3064.00,107.36
3063.00,107.36
3062.00,107.37
3061.00,107.37
3060.00,107.37
3059.00,107.37
3058.00,107.38
3057.00,107.38
3056.00,107.38
3055.00,107.38
3054.00,107.38
3053.00,107.39
3052.00,107.39
3051.00,107.39
3050.00,107.39
3049.00,107.39
3048.00,107.39
3047.00,107.39
3046.00,107.39
3045.00,107.39
3044.00,107.39
3043.00,107.39
3042.00,107.39
3041.00,107.39
3040.00,107.39
3039.00,107.39
3038.00,107.39
3037.00,107.39
3036.00,107.38
3035.00,107.38
3034.00,107.38
3033.00,107.37
3032.00,107.37
3031.00,107.37
3030.00,107.37
3029.00,107.37
3028.00,107.36
3027.00,107.36
3026.00,107.36
3025.00,107.36
3024.00,107.36
3023.00,107.36
3022.00,107.35
3021.00,107.35
3020.00,107.35
3019.00,107.35
3018.00,107.35
3017.00,107.34
3016.00,107.34
3015.00,107.34
3014.00,107.33
3013.00,107.33
3012.00,107.33
3011.00,107.33
3010.00,107.33
3009.00,107.33
3008.00,107.33
3007.00,107.33
3006.00,107.33
3005.00,107.33
3004.00,107.32
3003.00,107.32
3002.00,107.32
3001.00,107.32
3000.00,107.32
2999.00,107.32
2998.00,107.31
2997.00,107.31
2996.00,107.31
2995.00,107.31
2994.00,107.30
2993.00,107.30
2992.00,107.30
2991.00,107.30
2990.00,107.30
2989.00,107.30
2988.00,107.30
2987.00,107.30
2986.00,107.30
2985.00,107.30
2984.00,107.29
2983.00,107.29
2982.00,107.29
2981.00,107.29
2980.00,107.29
2979.00,107.29
2978.00,107.29
2977.00,107.29
2976.00,107.29
2975.00,107.29
2974.00,107.28
2973.00,107.28
2972.00,107.28
2971.00,107.28
2970.00,107.28
2969.00,107.28
2968.00,107.29
2967.00,107.29
2966.00,107.29
2965.00,107.29
2964.00,107.29
2963.00,107.29
2962.00,107.30
2961.00,107.30
2960.00,107.30
2959.00,107.31
2958.00,107.31
2957.00,107.31
2956.00,107.32
2955.00,107.32
2954.00,107.32
2953.00,107.32
2952.00,107.32
2951.00,107.32
2950.00,107.32
2949.00,107.32
2948.00,107.33
2947.00,107.33
2946.00,107.33
2945.00,107.33
2944.00,107.33
2943.00,107.33
2942.00,107.33
2941.00,107.33
2940.00,107.34
2939.00,107.34
2938.00,107.34
2937.00,107.34
2936.00,107.34
2935.00,107.34
2934.00,107.34
2933.00,107.34
2932.00,107.34
2931.00,107.34
2930.00,107.34
2929.00,107.34
2928.00,107.34
2927.00,107.35
2926.00,107.35
2925.00,107.35
2924.00,107.35
2923.00,107.35
2922.00,107.35
2921.00,107.35
2920.00,107.35
2919.00,107.34
2918.00,107.34
2917.00,107.34
2916.00,107.33
2915.00,107.33
2914.00,107.32
2913.00,107.31
2912.00,107.31
2911.00,107.30
2910.00,107.30
2909.00,107.30
2908.00,107.29
2907.00,107.29
2906.00,107.29
2905.00,107.29
2904.00,107.29
2903.00,107.29
2902.00,107.28
2901.00,107.29
2900.00,107.29
2899.00,107.29
2898.00,107.29
2897.00,107.29
2896.00,107.30
2895.00,107.30
2894.00,107.30
2893.00,107.30
2892.00,107.30
2891.00,107.30
2890.00,107.31
2889.00,107.31
2888.00,107.31
2887.00,107.31
2886.00,107.31
2885.00,107.31
2884.00,107.31
2883.00,107.30
2882.00,107.30
2881.00,107.30
2880.00,107.30
2879.00,107.30
2878.00,107.30
2877.00,107.29
2876.00,107.29
2875.00,107.29
2874.00,107.29
2873.00,107.29
2872.00,107.29
2871.00,107.29
2870.00,107.29
2869.00,107.29
2868.00,107.29
2867.00,107.29
2866.00,107.29
2865.00,107.29
2864.00,107.29
2863.00,107.29
2862.00,107.29
2861.00,107.30
2860.00,107.30
2859.00,107.30
2858.00,107.31
2857.00,107.31
2856.00,107.32
2855.00,107.32
2854.00,107.33
2853.00,107.33
2852.00,107.34
2851.00,107.34
2850.00,107.34
2849.00,107.34
2848.00,107.34
2847.00,107.34
2846.00,107.34
2845.00,107.33
2844.00,107.33
2843.00,107.33
2842.00,107.33
2841.00,107.33
2840.00,107.33
2839.00,107.33
2838.00,107.32
2837.00,107.32
2836.00,107.32
2835.00,107.32
2834.00,107.32
2833.00,107.32
2832.00,107.32
2831.00,107.31
2830.00,107.31
2829.00,107.31
2828.00,107.30
2827.00,107.30
2826.00,107.30
2825.00,107.30
2824.00,107.29
2823.00,107.29
2822.00,107.28
2821.00,107.28
2820.00,107.28
2819.00,107.27
2818.00,107.27
2817.00,107.26
2816.00,107.26
2815.00,107.26
2814.00,107.25
2813.00,107.25
2812.00,107.25
2811.00,107.25
2810.00,107.25
2809.00,107.25
2808.00,107.26
2807.00,107.26
2806.00,107.26
2805.00,107.26
2804.00,107.26
2803.00,107.27
2802.00,107.27
2801.00,107.28
2800.00,107.28
2799.00,107.28
2798.00,107.29
2797.00,107.29
2796.00,107.30
2795.00,107.30
2794.00,107.31
2793.00,107.31
2792.00,107.31
2791.00,107.32
2790.00,107.32
2789.00,107.32
2788.00,107.32
2787.00,107.33
2786.00,107.33
2785.00,107.33
2784.00,107.33
2783.00,107.34
2782.00,107.34
2781.00,107.34
2780.00,107.34
2779.00,107.34
2778.00,107.34
2777.00,107.34
2776.00,107.34
2775.00,107.34
2774.00,107.34
2773.00,107.34
2772.00,107.33
2771.00,107.33
2770.00,107.33
2769.00,107.33
2768.00,107.33
2767.00,107.33
2766.00,107.33
2765.00,107.32
2764.00,107.32
2763.00,107.32
2762.00,107.32
2761.00,107.32
2760.00,107.32
2759.00,107.32
2758.00,107.32
2757.00,107.32
2756.00,107.32
2755.00,107.32
2754.00,107.32
2753.00,107.32
2752.00,107.32
2751.00,107.32
2750.00,107.32
2749.00,107.32
2748.00,107.32
2747.00,107.32
2746.00,107.32
2745.00,107.32
2744.00,107.32
2743.00,107.32
2742.00,107.32
2741.00,107.32
2740.00,107.32
2739.00,107.32
2738.00,107.32
2737.00,107.32
2736.00,107.32
2735.00,107.32
2734.00,107.32
2733.00,107.32
2732.00,107.32
2731.00,107.32
2730.00,107.32
2729.00,107.31
2728.00,107.31
2727.00,107.30
2726.00,107.30
2725.00,107.30
2724.00,107.29
2723.00,107.29
2722.00,107.29
2721.00,107.29
2720.00,107.28
2719.00,107.28
2718.00,107.28
2717.00,107.28
2716.00,107.28
2715.00,107.28
2714.00,107.28
2713.00,107.28
2712.00,107.27
2711.00,107.27
2710.00,107.27
2709.00,107.27
2708.00,107.27
2707.00,107.27
2706.00,107.27
2705.00,107.27
2704.00,107.27
2703.00,107.28
2702.00,107.28
2701.00,107.28
2700.00,107.28
2699.00,107.28
2698.00,107.28
2697.00,107.28
2696.00,107.29
2695.00,107.29
2694.00,107.29
2693.00,107.29
2692.00,107.29
2691.00,107.30
2690.00,107.30
2689.00,107.30
2688.00,107.31
2687.00,107.31
2686.00,107.31
2685.00,107.31
2684.00,107.32
2683.00,107.32
2682.00,107.32
2681.00,107.32
2680.00,107.32
2679.00,107.32
2678.00,107.32
2677.00,107.32
2676.00,107.32
2675.00,107.32
2674.00,107.32
2673.00,107.32
2672.00,107.32
2671.00,107.32
2670.00,107.32
2669.00,107.32
2668.00,107.31
2667.00,107.31
2666.00,107.31
2665.00,107.30
2664.00,107.30
2663.00,107.30
2662.00,107.29
2661.00,107.29
2660.00,107.29
2659.00,107.28
2658.00,107.28
2657.00,107.28
2656.00,107.27
2655.00,107.27
2654.00,107.27
2653.00,107.26
2652.00,107.26
2651.00,107.26
2650.00,107.26
2649.00,107.26
2648.00,107.25
2647.00,107.25
2646.00,107.25
2645.00,107.25
2644.00,107.25
2643.00,107.25
2642.00,107.25
2641.00,107.25
2640.00,107.25
2639.00,107.25
2638.00,107.25
2637.00,107.25
2636.00,107.25
2635.00,107.25
2634.00,107.25
2633.00,107.25
2632.00,107.25
2631.00,107.25
2630.00,107.25
2629.00,107.25
2628.00,107.25
2627.00,107.26
2626.00,107.26
2625.00,107.26
2624.00,107.26
2623.00,107.26
2622.00,107.26
2621.00,107.26
2620.00,107.26
2619.00,107.26
2618.00,107.26
2617.00,107.26
2616.00,107.27
2615.00,107.26
2614.00,107.26
2613.00,107.26
2612.00,107.26
2611.00,107.26
2610.00,107.26
2609.00,107.26
2608.00,107.26
2607.00,107.26
2606.00,107.26
2605.00,107.25
2604.00,107.25
2603.00,107.25
2602.00,107.25
2601.00,107.25
2600.00,107.25
2599.00,107.25
2598.00,107.25
2597.00,107.26
2596.00,107.26
2595.00,107.26
2594.00,107.26
2593.00,107.26
2592.00,107.26
2591.00,107.26
2590.00,107.27
2589.00,107.27
2588.00,107.27
2587.00,107.27
2586.00,107.28
2585.00,107.28
2584.00,107.28
2583.00,107.28
2582.00,107.29
2581.00,107.29
2580.00,107.29
2579.00,107.29
2578.00,107.29
2577.00,107.29
2576.00,107.29
2575.00,107.29
2574.00,107.29
2573.00,107.29
2572.00,107.29
2571.00,107.29
2570.00,107.29
2569.00,107.28
2568.00,107.28
2567.00,107.28
2566.00,107.27
2565.00,107.27
2564.00,107.27
2563.00,107.26
2562.00,107.26
2561.00,107.26
2560.00,107.25
2559.00,107.25
2558.00,107.24
2557.00,107.24
2556.00,107.24
2555.00,107.23
2554.00,107.23
2553.00,107.22
2552.00,107.22
2551.00,107.21
2550.00,107.21
2549.00,107.20
2548.00,107.20
2547.00,107.19
2546.00,107.19
2545.00,107.19
2544.00,107.19
2543.00,107.18
2542.00,107.18
2541.00,107.18
2540.00,107.18
2539.00,107.18
2538.00,107.18
2537.00,107.18
2536.00,107.19
2535.00,107.19
2534.00,107.19
2533.00,107.19
2532.00,107.20
2531.00,107.20
2530.00,107.21
2529.00,107.21
2528.00,107.21
2527.00,107.21
2526.00,107.21
2525.00,107.21
2524.00,107.21
2523.00,107.22
2522.00,107.22
2521.00,107.22
2520.00,107.22
2519.00,107.22
2518.00,107.21
2517.00,107.21
2516.00,107.21
2515.00,107.21
2514.00,107.20
2513.00,107.20
2512.00,107.20
2511.00,107.20
2510.00,107.19
2509.00,107.19
2508.00,107.18
2507.00,107.18
2506.00,107.17
2505.00,107.17
2504.00,107.17
2503.00,107.16
2502.00,107.16
2501.00,107.15
2500.00,107.15
2499.00,107.15
2498.00,107.14
2497.00,107.14
2496.00,107.14
2495.00,107.14
2494.00,107.14
2493.00,107.13
2492.00,107.13
2491.00,107.13
2490.00,107.13
2489.00,107.13
2488.00,107.13
2487.00,107.13
2486.00,107.13
2485.00,107.14
2484.00,107.14
2483.00,107.14
2482.00,107.14
2481.00,107.14
2480.00,107.14
2479.00,107.14
2478.00,107.14
2477.00,107.14
2476.00,107.14
2475.00,107.14
2474.00,107.14
2473.00,107.14
2472.00,107.14
2471.00,107.14
2470.00,107.13
2469.00,107.13
2468.00,107.13
2467.00,107.13
2466.00,107.13
2465.00,107.13
2464.00,107.13
2463.00,107.12
2462.00,107.12
2461.00,107.11
2460.00,107.11
2459.00,107.11
2458.00,107.10
2457.00,107.10
2456.00,107.09
2455.00,107.09
2454.00,107.09
2453.00,107.08
2452.00,107.08
2451.00,107.08
2450.00,107.07
2449.00,107.07
2448.00,107.07
2447.00,107.07
2446.00,107.07
2445.00,107.08
2444.00,107.08
2443.00,107.08
2442.00,107.08
2441.00,107.09
2440.00,107.09
2439.00,107.09
2438.00,107.10
2437.00,107.10
2436.00,107.11
2435.00,107.11
2434.00,107.12
2433.00,107.12
2432.00,107.13
2431.00,107.13
2430.00,107.14
2429.00,107.15
2428.00,107.15
2427.00,107.16
2426.00,107.17
2425.00,107.17
2424.00,107.18
2423.00,107.18
2422.00,107.19
2421.00,107.20
2420.00,107.20
2419.00,107.20
2418.00,107.21
2417.00,107.21
2416.00,107.21
2415.00,107.22
2414.00,107.22
2413.00,107.22
2412.00,107.22
2411.00,107.22
2410.00,107.22
2409.00,107.21
2408.00,107.21
2407.00,107.21
2406.00,107.21
2405.00,107.20
2404.00,107.20
2403.00,107.19
2402.00,107.19
2401.00,107.18
2400.00,107.18
2399.00,107.18
2398.00,107.17
2397.00,107.17
2396.00,107.17
2395.00,107.16
2394.00,107.16
2393.00,107.15
2392.00,107.15
2391.00,107.15
2390.00,107.14
2389.00,107.14
2388.00,107.14
2387.00,107.14
2386.00,107.14
2385.00,107.14
2384.00,107.14
2383.00,107.13
2382.00,107.14
2381.00,107.14
2380.00,107.14
2379.00,107.14
2378.00,107.14
2377.00,107.14
2376.00,107.14
2375.00,107.13
2374.00,107.13
2373.00,107.13
2372.00,107.13
2371.00,107.14
2370.00,107.14
2369.00,107.14
2368.00,107.13
2367.00,107.12
2366.00,107.11
2365.00,107.11
2364.00,107.11
2363.00,107.12
2362.00,107.12
2361.00,107.11
2360.00,107.10
2359.00,107.10
2358.00,107.10
2357.00,107.10
2356.00,107.10
2355.00,107.11
2354.00,107.11
2353.00,107.12
2352.00,107.13
2351.00,107.13
2350.00,107.11
2349.00,107.09
2348.00,107.07
2347.00,107.07
2346.00,107.09
2345.00,107.10
2344.00,107.10
2343.00,107.08
2342.00,107.07
2341.00,107.07
2340.00,107.07
2339.00,107.07
2338.00,107.08
2337.00,107.08
2336.00,107.08
2335.00,107.08
2334.00,107.07
2333.00,107.08
2332.00,107.08
2331.00,107.08
2330.00,107.08
2329.00,107.08
2328.00,107.07
2327.00,107.06
2326.00,107.06
2325.00,107.06
2324.00,107.06
2323.00,107.06
2322.00,107.05
2321.00,107.05
2320.00,107.04
2319.00,107.04
2318.00,107.04
2317.00,107.04
2316.00,107.04
2315.00,107.04
2314.00,107.05
2313.00,107.05
2312.00,107.05
2311.00,107.06
2310.00,107.06
2309.00,107.06
2308.00,107.05
2307.00,107.05
2306.00,107.06
2305.00,107.06
2304.00,107.06
2303.00,107.06
2302.00,107.07
2301.00,107.07
2300.00,107.07
2299.00,107.07
2298.00,107.06
2297.00,107.06
2296.00,107.06
2295.00,107.06
2294.00,107.06
2293.00,107.05
2292.00,107.05
2291.00,107.05
2290.00,107.05
2289.00,107.04
2288.00,107.04
2287.00,107.04
2286.00,107.04
2285.00,107.04
2284.00,107.03
2283.00,107.03
2282.00,107.03
2281.00,107.03
2280.00,107.02
2279.00,107.02
2278.00,107.02
2277.00,107.02
2276.00,107.02
2275.00,107.03
2274.00,107.03
2273.00,107.03
2272.00,107.03
2271.00,107.03
2270.00,107.03
2269.00,107.04
2268.00,107.04
2267.00,107.05
2266.00,107.05
2265.00,107.05
2264.00,107.05
2263.00,107.06
2262.00,107.06
2261.00,107.06
2260.00,107.07
2259.00,107.07
2258.00,107.07
2257.00,107.07
2256.00,107.08
2255.00,107.08
2254.00,107.08
2253.00,107.08
2252.00,107.08
2251.00,107.08
2250.00,107.08
2249.00,107.07
2248.00,107.07
2247.00,107.07
2246.00,107.07
2245.00,107.06
2244.00,107.06
2243.00,107.06
2242.00,107.05
2241.00,107.05
2240.00,107.04
2239.00,107.04
2238.00,107.03
2237.00,107.03
2236.00,107.02
2235.00,107.02
2234.00,107.01
2233.00,107.01
2232.00,107.01
2231.00,107.00
2230.00,107.00
2229.00,106.99
2228.00,106.99
2227.00,106.99
2226.00,106.98
2225.00,106.98
2224.00,106.98
2223.00,106.98
2222.00,106.98
2221.00,106.98
2220.00,106.98
2219.00,106.98
2218.00,106.99
2217.00,106.99
2216.00,106.99
2215.00,106.99
2214.00,107.00
2213.00,107.00
2212.00,107.00
2211.00,107.00
2210.00,107.00
2209.00,107.00
2208.00,107.00
2207.00,107.00
2206.00,107.00
2205.00,107.00
2204.00,107.00
2203.00,107.00
2202.00,106.99
2201.00,106.99
2200.00,106.98
2199.00,106.98
2198.00,106.97
2197.00,106.97
2196.00,106.96
2195.00,106.95
2194.00,106.95
2193.00,106.94
2192.00,106.93
2191.00,106.92
2190.00,106.91
2189.00,106.91
2188.00,106.90
2187.00,106.89
2186.00,106.89
2185.00,106.88
2184.00,106.87
2183.00,106.87
2182.00,106.87
2181.00,106.86
2180.00,106.86
2179.00,106.86
2178.00,106.86
2177.00,106.86
2176.00,106.86
2175.00,106.86
2174.00,106.86
2173.00,106.86
2172.00,106.87
2171.00,106.87
2170.00,106.88
2169.00,106.88
2168.00,106.89
2167.00,106.89
2166.00,106.90
2165.00,106.91
2164.00,106.91
2163.00,106.92
2162.00,106.93
2161.00,106.93
2160.00,106.94
2159.00,106.95
2158.00,106.95
2157.00,106.96
2156.00,106.96
2155.00,106.97
2154.00,106.97
2153.00,106.97
2152.00,106.97
2151.00,106.97
2150.00,106.97
2149.00,106.97
2148.00,106.97
2147.00,106.97
2146.00,106.97
2145.00,106.96
2144.00,106.96
2143.00,106.96
2142.00,106.96
2141.00,106.95
2140.00,106.94
2139.00,106.94
2138.00,106.93
2137.00,106.93
2136.00,106.92
2135.00,106.92
2134.00,106.91
2133.00,106.91
2132.00,106.90
2131.00,106.90
2130.00,106.89
2129.00,106.89
2128.00,106.88
2127.00,106.88
2126.00,106.88
2125.00,106.88
2124.00,106.88
2123.00,106.87
2122.00,106.87
2121.00,106.87
2120.00,106.87
2119.00,106.87
2118.00,106.87
2117.00,106.87
2116.00,106.87
2115.00,106.87
2114.00,106.88
2113.00,106.88
2112.00,106.88
2111.00,106.88
2110.00,106.88
2109.00,106.88
2108.00,106.88
2107.00,106.89
2106.00,106.89
2105.00,106.89
2104.00,106.89
2103.00,106.88
2102.00,106.88
2101.00,106.89
2100.00,106.89
2099.00,106.89
2098.00,106.89
2097.00,106.89
2096.00,106.89
2095.00,106.89
2094.00,106.89
2093.00,106.89
2092.00,106.89
2091.00,106.89
2090.00,106.89
2089.00,106.89
2088.00,106.89
2087.00,106.89
2086.00,106.89
2085.00,106.89
2084.00,106.89
2083.00,106.88
2082.00,106.88
2081.00,106.88
2080.00,106.88
2079.00,106.88
2078.00,106.87
2077.00,106.87
2076.00,106.87
2075.00,106.87
2074.00,106.86
2073.00,106.86
2072.00,106.86
2071.00,106.86
2070.00,106.86
2069.00,106.86
2068.00,106.86
2067.00,106.86
2066.00,106.86
2065.00,106.86
2064.00,106.86
2063.00,106.86
2062.00,106.87
2061.00,106.87
2060.00,106.87
2059.00,106.87
2058.00,106.87
2057.00,106.87
2056.00,106.88
2055.00,106.88
2054.00,106.88
2053.00,106.88
2052.00,106.89
2051.00,106.89
2050.00,106.89
2049.00,106.90
2048.00,106.90
2047.00,106.91
2046.00,106.91
2045.00,106.91
2044.00,106.92
2043.00,106.92
2042.00,106.92
2041.00,106.93
2040.00,106.93
2039.00,106.93
2038.00,106.93
2037.00,106.93
2036.00,106.93
2035.00,106.93
2034.00,106.93
2033.00,106.93
2032.00,106.93
2031.00,106.92
2030.00,106.92
2029.00,106.91
2028.00,106.91
2027.00,106.90
2026.00,106.90
2025.00,106.89
2024.00,106.88
2023.00,106.87
2022.00,106.87
2021.00,106.86
2020.00,106.86
2019.00,106.85
2018.00,106.85
2017.00,106.84
2016.00,106.84
2015.00,106.83
2014.00,106.83
2013.00,106.83
2012.00,106.83
2011.00,106.83
2010.00,106.83
2009.00,106.83
2008.00,106.84
2007.00,106.84
2006.00,106.85
2005.00,106.86
2004.00,106.86
2003.00,106.87
2002.00,106.88
2001.00,106.89
2000.00,106.90
1999.00,106.91
1998.00,106.92
1997.00,106.93
1996.00,106.94
1995.00,106.94
1994.00,106.95
1993.00,106.97
1992.00,106.98
1991.00,106.99
1990.00,106.99
1989.00,107.00
1988.00,107.00
1987.00,107.01
1986.00,107.02
1985.00,107.02
1984.00,107.03
1983.00,107.03
1982.00,107.04
1981.00,107.04
1980.00,107.04
1979.00,107.04
1978.00,107.04
1977.00,107.04
1976.00,107.04
1975.00,107.03
1974.00,107.03
1973.00,107.02
1972.00,107.01
1971.00,107.01
1970.00,107.00
1969.00,107.00
1968.00,106.99
1967.00,106.99
1966.00,106.98
1965.00,106.98
1964.00,106.98
1963.00,106.98
1962.00,106.98
1961.00,106.98
1960.00,106.99
1959.00,107.01
1958.00,107.02
1957.00,107.03
1956.00,107.04
1955.00,107.05
1954.00,107.06
1953.00,107.07
1952.00,107.09
1951.00,107.10
1950.00,107.11
1949.00,107.11
1948.00,107.12
1947.00,107.13
1946.00,107.13
1945.00,107.13
1944.00,107.13
1943.00,107.13
1942.00,107.12
1941.00,107.12
1940.00,107.11
1939.00,107.10
1938.00,107.09
1937.00,107.08
1936.00,107.07
1935.00,107.06
1934.00,107.05
1933.00,107.03
1932.00,107.02
1931.00,107.01
1930.00,107.00
1929.00,106.99
1928.00,106.98
1927.00,106.97
1926.00,106.96
1925.00,106.96
1924.00,106.96
1923.00,106.95
1922.00,106.95
1921.00,106.95
1920.00,106.94
1919.00,106.94
1918.00,106.94
1917.00,106.94
1916.00,106.93
1915.00,106.93
1914.00,106.92
1913.00,106.92
1912.00,106.92
1911.00,106.92
1910.00,106.92
1909.00,106.91
1908.00,106.91
1907.00,106.91
1906.00,106.91
1905.00,106.91
1904.00,106.91
1903.00,106.91
1902.00,106.91
1901.00,106.92
1900.00,106.92
1899.00,106.93
1898.00,106.93
1897.00,106.94
1896.00,106.94
1895.00,106.95
1894.00,106.95
1893.00,106.96
1892.00,106.97
1891.00,106.98
1890.00,106.98
1889.00,106.99
1888.00,107.00
1887.00,107.00
1886.00,107.01
1885.00,107.01
1884.00,107.02
1883.00,107.02
1882.00,107.03
1881.00,107.03
1880.00,107.04
1879.00,107.04
1878.00,107.05
1877.00,107.05
1876.00,107.05
1875.00,107.05
1874.00,107.05
1873.00,107.05
1872.00,107.05
1871.00,107.04
1870.00,107.04
1869.00,107.03
1868.00,107.03
1867.00,107.02
1866.00,107.02
1865.00,107.01
1864.00,107.00
1863.00,107.00
1862.00,107.00
1861.00,107.00
1860.00,106.99
1859.00,106.99
1858.00,106.98
1857.00,106.98
1856.00,106.98
1855.00,106.98
1854.00,106.99
1853.00,106.99
1852.00,107.00
1851.00,107.01
1850.00,107.03
1849.00,107.04
1848.00,107.06
1847.00,107.07
1846.00,107.09
1845.00,107.09
1844.00,107.09
1843.00,107.09
1842.00,107.10
1841.00,107.10
1840.00,107.11
1839.00,107.12
1838.00,107.12
1837.00,107.13
1836.00,107.13
1835.00,107.13
1834.00,107.13
1833.00,107.13
1832.00,107.14
1831.00,107.13
1830.00,107.13
1829.00,107.13
1828.00,107.13
1827.00,107.13
1826.00,107.13
1825.00,107.13
1824.00,107.13
1823.00,107.13
1822.00,107.13
1821.00,107.13
1820.00,107.13
1819.00,107.14
1818.00,107.14
1817.00,107.14
1816.00,107.14
1815.00,107.14
1814.00,107.14
1813.00,107.14
1812.00,107.14
1811.00,107.14
1810.00,107.14
1809.00,107.14
1808.00,107.14
1807.00,107.13
1806.00,107.14
1805.00,107.14
1804.00,107.14
1803.00,107.15
1802.00,107.15
1801.00,107.15
1800.00,107.16
1799.00,107.16
1798.00,107.16
1797.00,107.16
1796.00,107.17
1795.00,107.17
1794.00,107.17
1793.00,107.18
1792.00,107.18
1791.00,107.18
1790.00,107.19
1789.00,107.19
1788.00,107.20
1787.00,107.20
1786.00,107.21
1785.00,107.22
1784.00,107.22
1783.00,107.23
1782.00,107.23
1781.00,107.23
1780.00,107.23
1779.00,107.23
1778.00,107.23
1777.00,107.22
1776.00,107.22
1775.00,107.21
1774.00,107.21
1773.00,107.20
1772.00,107.19
1771.00,107.19
1770.00,107.19
1769.00,107.18
1768.00,107.18
1767.00,107.18
1766.00,107.18
1765.00,107.17
1764.00,107.16
1763.00,107.15
1762.00,107.14
1761.00,107.14
1760.00,107.13
1759.00,107.13
1758.00,107.13
1757.00,107.12
1756.00,107.11
1755.00,107.10
1754.00,107.09
1753.00,107.08
1752.00,107.08
1751.00,107.08
1750.00,107.09
1749.00,107.09
1748.00,107.09
1747.00,107.10
1746.00,107.10
1745.00,107.11
1744.00,107.12
1743.00,107.13
1742.00,107.13
1741.00,107.14
1740.00,107.14
1739.00,107.14
1738.00,107.14
1737.00,107.14
1736.00,107.14
1735.00,107.14
1734.00,107.15
1733.00,107.15
1732.00,107.15
1731.00,107.16
1730.00,107.17
1729.00,107.18
1728.00,107.19
1727.00,107.19
1726.00,107.19
1725.00,107.19
1724.00,107.19
1723.00,107.19
1722.00,107.19
1721.00,107.19
1720.00,107.19
1719.00,107.18
1718.00,107.18
1717.00,107.18
1716.00,107.18
1715.00,107.18
1714.00,107.18
1713.00,107.18
1712.00,107.17
1711.00,107.17
1710.00,107.16
1709.00,107.16
1708.00,107.16
1707.00,107.16
1706.00,107.15
1705.00,107.15
1704.00,107.15
1703.00,107.16
1702.00,107.15
1701.00,107.15
1700.00,107.14
1699.00,107.12
1698.00,107.11
1697.00,107.11
1696.00,107.12
1695.00,107.14
1694.00,107.14
1693.00,107.13
1692.00,107.13
1691.00,107.13
1690.00,107.13
1689.00,107.14
1688.00,107.14
1687.00,107.14
1686.00,107.15
1685.00,107.15
1684.00,107.16
1683.00,107.16
1682.00,107.16
1681.00,107.16
1680.00,107.16
1679.00,107.16
1678.00,107.17
1677.00,107.17
1676.00,107.17
1675.00,107.17
1674.00,107.17
1673.00,107.17
1672.00,107.16
1671.00,107.16
1670.00,107.17
1669.00,107.17
1668.00,107.17
1667.00,107.17
1666.00,107.17
1665.00,107.17
1664.00,107.17
1663.00,107.16
1662.00,107.16
1661.00,107.16
1660.00,107.16
1659.00,107.16
1658.00,107.15
1657.00,107.15
1656.00,107.15
1655.00,107.15
1654.00,107.16
1653.00,107.16
1652.00,107.15
1651.00,107.14
1650.00,107.12
1649.00,107.11
1648.00,107.10
1647.00,107.11
1646.00,107.11
1645.00,107.12
1644.00,107.12
1643.00,107.13
1642.00,107.14
1641.00,107.14
1640.00,107.15
1639.00,107.16
1638.00,107.16
1637.00,107.17
1636.00,107.18
1635.00,107.18
1634.00,107.17
1633.00,107.17
1632.00,107.18
1631.00,107.18
1630.00,107.18
1629.00,107.19
1628.00,107.19
1627.00,107.20
1626.00,107.21
1625.00,107.21
1624.00,107.21
1623.00,107.20
1622.00,107.20
1621.00,107.21
1620.00,107.21
1619.00,107.21
1618.00,107.21
1617.00,107.21
1616.00,107.21
1615.00,107.22
1614.00,107.22
1613.00,107.22
1612.00,107.22
1611.00,107.21
1610.00,107.21
1609.00,107.21
1608.00,107.21
1607.00,107.20
1606.00,107.20
1605.00,107.19
1604.00,107.18
1603.00,107.17
1602.00,107.16
1601.00,107.15
1600.00,107.15
1599.00,107.14
1598.00,107.14
1597.00,107.13
1596.00,107.12
1595.00,107.12
1594.00,107.12
1593.00,107.11
1592.00,107.11
1591.00,107.11
1590.00,107.11
1589.00,107.11
1588.00,107.11
1587.00,107.11
1586.00,107.11
1585.00,107.12
1584.00,107.12
1583.00,107.12
1582.00,107.13
1581.00,107.13
1580.00,107.14
1579.00,107.15
1578.00,107.17
1577.00,107.18
1576.00,107.18
1575.00,107.17
1574.00,107.17
1573.00,107.18
1572.00,107.18
1571.00,107.19
1570.00,107.19
1569.00,107.19
1568.00,107.19
1567.00,107.20
1566.00,107.20
1565.00,107.20
1564.00,107.20
1563.00,107.20
1562.00,107.20
1561.00,107.20
1560.00,107.18
1559.00,107.17
1558.00,107.18
1557.00,107.18
1556.00,107.18
1555.00,107.18
1554.00,107.18
1553.00,107.18
1552.00,107.18
1551.00,107.18
1550.00,107.18
1549.00,107.19
1548.00,107.19
1547.00,107.19
1546.00,107.20
1545.00,107.21
1544.00,107.22
1543.00,107.23
1542.00,107.23
1541.00,107.23
1540.00,107.23
1539.00,107.23
1538.00,107.22
1537.00,107.21
1536.00,107.20
1535.00,107.19
1534.00,107.18
1533.00,107.18
1532.00,107.18
1531.00,107.18
1530.00,107.18
1529.00,107.18
1528.00,107.18
1527.00,107.18
1526.00,107.18
1525.00,107.17
1524.00,107.17
1523.00,107.17
1522.00,107.16
1521.00,107.16
1520.00,107.17
1519.00,107.18
1518.00,107.19
1517.00,107.19
1516.00,107.19
1515.00,107.19
1514.00,107.18
1513.00,107.18
1512.00,107.19
1511.00,107.19
1510.00,107.19
1509.00,107.19
1508.00,107.19
1507.00,107.19
1506.00,107.19
1505.00,107.19
1504.00,107.17
1503.00,107.17
1502.00,107.16
1501.00,107.16
1500.00,107.16
1499.00,107.16
1498.00,107.16
1497.00,107.17
1496.00,107.17
1495.00,107.17
1494.00,107.17
1493.00,107.16
1492.00,107.15
1491.00,107.14
1490.00,107.13
1489.00,107.13
1488.00,107.13
1487.00,107.13
1486.00,107.13
1485.00,107.13
1484.00,107.13
1483.00,107.12
1482.00,107.12
1481.00,107.12
1480.00,107.13
1479.00,107.13
1478.00,107.13
1477.00,107.13
1476.00,107.14
1475.00,107.14
1474.00,107.14
1473.00,107.14
1472.00,107.15
1471.00,107.16
1470.00,107.17
1469.00,107.18
1468.00,107.18
1467.00,107.19
1466.00,107.19
1465.00,107.19
1464.00,107.20
1463.00,107.20
1462.00,107.20
1461.00,107.20
1460.00,107.20
1459.00,107.21
1458.00,107.21
1457.00,107.20
1456.00,107.20
1455.00,107.20
1454.00,107.20
1453.00,107.20
1452.00,107.20
1451.00,107.20
1450.00,107.20
1449.00,107.19
1448.00,107.19
1447.00,107.18
1446.00,107.17
1445.00,107.16
1444.00,107.16
1443.00,107.15
1442.00,107.15
1441.00,107.14
1440.00,107.13
1439.00,107.13
1438.00,107.11
1437.00,107.10
1436.00,107.10
1435.00,107.10
1434.00,107.09
1433.00,107.09
1432.00,107.09
1431.00,107.09
1430.00,107.08
1429.00,107.08
1428.00,107.09
1427.00,107.09
1426.00,107.10
1425.00,107.09
1424.00,107.10
1423.00,107.10
1422.00,107.10
1421.00,107.10
1420.00,107.10
1419.00,107.11
1418.00,107.12
1417.00,107.12
1416.00,107.13
1415.00,107.14
1414.00,107.15
1413.00,107.15
1412.00,107.16
1411.00,107.16
1410.00,107.17
1409.00,107.17
1408.00,107.18
1407.00,107.18
1406.00,107.18
1405.00,107.19
1404.00,107.19
1403.00,107.19
1402.00,107.18
1401.00,107.17
1400.00,107.17
1399.00,107.17
1398.00,107.17
1397.00,107.17
1396.00,107.16
1395.00,107.16
1394.00,107.16
1393.00,107.15
1392.00,107.15
1391.00,107.15
1390.00,107.15
1389.00,107.15
1388.00,107.15
1387.00,107.15
1386.00,107.14
1385.00,107.14
1384.00,107.13
1383.00,107.13
1382.00,107.13
1381.00,107.13
1380.00,107.13
1379.00,107.13
1378.00,107.13
1377.00,107.12
1376.00,107.12
1375.00,107.12
1374.00,107.12
1373.00,107.13
1372.00,107.13
1371.00,107.13
1370.00,107.13
1369.00,107.13
1368.00,107.13
1367.00,107.13
1366.00,107.14
1365.00,107.14
1364.00,107.15
1363.00,107.15
1362.00,107.16
1361.00,107.16
1360.00,107.15
1359.00,107.15
1358.00,107.15
1357.00,107.15
1356.00,107.16
1355.00,107.16
1354.00,107.16
1353.00,107.16
1352.00,107.16
1351.00,107.16
1350.00,107.16
1349.00,107.16
1348.00,107.16
1347.00,107.16
1346.00,107.16
1345.00,107.16
1344.00,107.15
1343.00,107.15
1342.00,107.14
1341.00,107.14
1340.00,107.14
1339.00,107.14
1338.00,107.14
1337.00,107.13
1336.00,107.13
1335.00,107.12
1334.00,107.12
1333.00,107.11
1332.00,107.11
1331.00,107.11
1330.00,107.11
1329.00,107.11
1328.00,107.11
1327.00,107.11
1326.00,107.11
1325.00,107.11
1324.00,107.11
1323.00,107.11
1322.00,107.11
1321.00,107.11
1320.00,107.12
1319.00,107.12
1318.00,107.13
1317.00,107.13
1316.00,107.14
1315.00,107.14
1314.00,107.14
1313.00,107.15
1312.00,107.15
1311.00,107.16
1310.00,107.16
1309.00,107.17
1308.00,107.17
1307.00,107.17
1306.00,107.17
1305.00,107.18
1304.00,107.18
1303.00,107.18
1302.00,107.19
1301.00,107.19
1300.00,107.19
1299.00,107.18
1298.00,107.18
1297.00,107.18
1296.00,107.18
1295.00,107.17
1294.00,107.17
1293.00,107.17
1292.00,107.16
1291.00,107.16
1290.00,107.15
1289.00,107.15
1288.00,107.14
1287.00,107.13
1286.00,107.13
1285.00,107.12
1284.00,107.12
1283.00,107.12
1282.00,107.11
1281.00,107.10
1280.00,107.10
1279.00,107.09
1278.00,107.09
1277.00,107.08
1276.00,107.08
1275.00,107.09
1274.00,107.09
1273.00,107.09
1272.00,107.08
1271.00,107.08
1270.00,107.08
1269.00,107.09
1268.00,107.09
1267.00,107.10
1266.00,107.10
1265.00,107.10
1264.00,107.11
1263.00,107.11
1262.00,107.12
1261.00,107.12
1260.00,107.13
1259.00,107.13
1258.00,107.14
1257.00,107.15
1256.00,107.16
1255.00,107.16
1254.00,107.17
1253.00,107.17
1252.00,107.17
1251.00,107.18
1250.00,107.19
1249.00,107.19
1248.00,107.19
1247.00,107.20
1246.00,107.20
1245.00,107.20
1244.00,107.20
1243.00,107.19
1242.00,107.19
1241.00,107.19
1240.00,107.19
1239.00,107.19
1238.00,107.19
1237.00,107.18
1236.00,107.18
1235.00,107.17
1234.00,107.17
1233.00,107.16
1232.00,107.16
1231.00,107.15
1230.00,107.15
1229.00,107.14
1228.00,107.13
1227.00,107.13
1226.00,107.12
1225.00,107.11
1224.00,107.11
1223.00,107.11
1222.00,107.10
1221.00,107.10
1220.00,107.10
1219.00,107.09
1218.00,107.09
1217.00,107.08
1216.00,107.08
1215.00,107.08
1214.00,107.09
1213.00,107.09
1212.00,107.09
1211.00,107.09
1210.00,107.09
1209.00,107.09
1208.00,107.10
1207.00,107.10
1206.00,107.10
1205.00,107.11
1204.00,107.11
1203.00,107.11
1202.00,107.12
1201.00,107.12
1200.00,107.12
1199.00,107.12
1198.00,107.13
1197.00,107.13
1196.00,107.13
1195.00,107.13
1194.00,107.13
1193.00,107.13
1192.00,107.13
1191.00,107.13
1190.00,107.13
1189.00,107.13
1188.00,107.13
1187.00,107.13
1186.00,107.12
1185.00,107.12
1184.00,107.12
1183.00,107.11
1182.00,107.11
1181.00,107.10
1180.00,107.10
1179.00,107.09
1178.00,107.09
1177.00,107.08
1176.00,107.08
1175.00,107.07
1174.00,107.07
1173.00,107.07
1172.00,107.07
1171.00,107.07
1170.00,107.06
1169.00,107.06
1168.00,107.05
1167.00,107.05
1166.00,107.05
1165.00,107.05
1164.00,107.05
1163.00,107.05
1162.00,107.05
1161.00,107.05
1160.00,107.05
1159.00,107.06
1158.00,107.06
1157.00,107.05
1156.00,107.05
1155.00,107.05
1154.00,107.06
1153.00,107.06
1152.00,107.06
1151.00,107.06
1150.00,107.06
1149.00,107.06
1148.00,107.07
1147.00,107.07
1146.00,107.08
1145.00,107.08
1144.00,107.08
1143.00,107.08
1142.00,107.08
1141.00,107.08
1140.00,107.08
1139.00,107.08
1138.00,107.08
1137.00,107.08
1136.00,107.08
1135.00,107.08
1134.00,107.07
1133.00,107.07
1132.00,107.07
1131.00,107.06
1130.00,107.06
1129.00,107.06
1128.00,107.05
1127.00,107.05
1126.00,107.05
1125.00,107.05
1124.00,107.04
1123.00,107.04
1122.00,107.03
1121.00,107.03
1120.00,107.02
1119.00,107.02
1118.00,107.02
1117.00,107.01
1116.00,107.01
1115.00,107.01
1114.00,107.01
1113.00,107.01
1112.00,107.02
1111.00,107.02
1110.00,107.02
1109.00,107.02
1108.00,107.02
1107.00,107.02
1106.00,107.02
1105.00,107.02
1104.00,107.03
1103.00,107.03
1102.00,107.03
1101.00,107.03
1100.00,107.04
1099.00,107.04
1098.00,107.04
1097.00,107.04
1096.00,107.04
1095.00,107.04
1094.00,107.04
1093.00,107.04
1092.00,107.05
1091.00,107.05
1090.00,107.05
1089.00,107.05
1088.00,107.05
1087.00,107.05
1086.00,107.04
1085.00,107.04
1084.00,107.04
1083.00,107.04
1082.00,107.04
1081.00,107.04
1080.00,107.03
1079.00,107.03
1078.00,107.03
1077.00,107.02
1076.00,107.02
1075.00,107.01
1074.00,107.01
1073.00,107.00
1072.00,107.00
1071.00,106.99
1070.00,106.98
1069.00,106.97
1068.00,106.97
1067.00,106.96
1066.00,106.96
1065.00,106.96
1064.00,106.96
1063.00,106.95
1062.00,106.95
1061.00,106.94
1060.00,106.94
1059.00,106.94
1058.00,106.94
1057.00,106.94
1056.00,106.95
1055.00,106.95
1054.00,106.96
1053.00,106.97
1052.00,106.97
1051.00,106.98
1050.00,106.99
1049.00,107.00
1048.00,107.00
1047.00,107.01
1046.00,107.01
1045.00,107.01
1044.00,107.01
1043.00,107.02
1042.00,107.02
1041.00,107.03
1040.00,107.03
1039.00,107.03
1038.00,107.04
1037.00,107.04
1036.00,107.03
1035.00,107.02
1034.00,107.00
1033.00,107.00
1032.00,107.00
1031.00,107.02
1030.00,107.04
1029.00,107.05
1028.00,107.05
1027.00,107.05
1026.00,107.04
1025.00,107.04
1024.00,107.04
1023.00,107.04
1022.00,107.05
1021.00,107.05
1020.00,107.04
1019.00,107.04
1018.00,107.04
1017.00,107.03
1016.00,107.03
1015.00,107.03
1014.00,107.02
1013.00,107.02
1012.00,107.02
1011.00,107.02
1010.00,107.02
1009.00,107.02
1008.00,107.02
1007.00,107.01
1006.00,107.02
1005.00,107.02
1004.00,107.03
1003.00,107.03
1002.00,107.04
1001.00,107.04
1000.00,107.05
999.00,107.05
998.00,107.05
997.00,107.06
996.00,107.07
995.00,107.08
994.00,107.08
993.00,107.09
992.00,107.09
991.00,107.10
990.00,107.10
989.00,107.11
988.00,107.12
987.00,107.13
986.00,107.13
985.00,107.13
984.00,107.14
983.00,107.14
982.00,107.14
981.00,107.15
980.00,107.15
979.00,107.15
978.00,107.15
977.00,107.15
976.00,107.15
975.00,107.16
974.00,107.15
973.00,107.15
972.00,107.15
971.00,107.15
970.00,107.15
969.00,107.15
968.00,107.15
967.00,107.16
966.00,107.15
965.00,107.15
964.00,107.14
963.00,107.14
962.00,107.14
961.00,107.14
960.00,107.14
959.00,107.14
958.00,107.14
957.00,107.14
956.00,107.14
955.00,107.14
954.00,107.15
953.00,107.15
952.00,107.15
951.00,107.15
950.00,107.16
949.00,107.16
948.00,107.16
947.00,107.17
946.00,107.17
945.00,107.17
944.00,107.18
943.00,107.18
942.00,107.19
941.00,107.20
940.00,107.21
939.00,107.21
938.00,107.21
937.00,107.21
936.00,107.21
935.00,107.21
934.00,107.22
933.00,107.23
932.00,107.23
931.00,107.23
930.00,107.24
929.00,107.24
928.00,107.24
927.00,107.24
926.00,107.25
925.00,107.25
924.00,107.25
923.00,107.25
922.00,107.25
921.00,107.24
920.00,107.24
919.00,107.24
918.00,107.23
917.00,107.23
916.00,107.22
915.00,107.23
914.00,107.23
913.00,107.23
912.00,107.22
911.00,107.22
910.00,107.21
909.00,107.21
908.00,107.21
907.00,107.21
906.00,107.21
905.00,107.21
904.00,107.21
903.00,107.21
902.00,107.21
901.00,107.21
900.00,107.21
899.00,107.21
898.00,107.21
897.00,107.21
896.00,107.21
895.00,107.22
894.00,107.22
893.00,107.22
892.00,107.22
891.00,107.22
890.00,107.23
889.00,107.23
888.00,107.24
887.00,107.25
886.00,107.25
885.00,107.26
884.00,107.26
883.00,107.26
882.00,107.26
881.00,107.27
880.00,107.28
879.00,107.28
878.00,107.29
877.00,107.29
876.00,107.29
875.00,107.29
874.00,107.29
873.00,107.29
872.00,107.29
871.00,107.29
870.00,107.29
869.00,107.29
868.00,107.28
867.00,107.28
866.00,107.28
865.00,107.28
864.00,107.27
863.00,107.27
862.00,107.26
861.00,107.26
860.00,107.26
859.00,107.26
858.00,107.26
857.00,107.26
856.00,107.25
855.00,107.25
854.00,107.25
853.00,107.24
852.00,107.24
851.00,107.24
850.00,107.24
849.00,107.24
848.00,107.25
847.00,107.25
846.00,107.25
845.00,107.26
844.00,107.26
843.00,107.26
842.00,107.26
841.00,107.26
840.00,107.27
839.00,107.27
838.00,107.27
837.00,107.28
836.00,107.28
835.00,107.29
834.00,107.29
833.00,107.30
832.00,107.30
831.00,107.31
830.00,107.31
829.00,107.32
828.00,107.33
827.00,107.34
826.00,107.35
825.00,107.35
824.00,107.36
823.00,107.35
822.00,107.35
821.00,107.34
820.00,107.34
819.00,107.34
818.00,107.34
817.00,107.34
816.00,107.34
815.00,107.34
814.00,107.33
813.00,107.33
812.00,107.33
811.00,107.32
810.00,107.32
809.00,107.32
808.00,107.32
807.00,107.31
806.00,107.31
805.00,107.30
804.00,107.30
803.00,107.29
802.00,107.29
801.00,107.29
800.00,107.29
799.00,107.29
798.00,107.29
797.00,107.29
796.00,107.29
795.00,107.29
794.00,107.29
793.00,107.29
792.00,107.29
791.00,107.29
790.00,107.30
789.00,107.30
788.00,107.30
787.00,107.30
786.00,107.30
785.00,107.30
784.00,107.31
783.00,107.31
782.00,107.32
781.00,107.32
780.00,107.32
779.00,107.32
778.00,107.33
777.00,107.33
776.00,107.33
775.00,107.33
774.00,107.33
773.00,107.33
772.00,107.34
771.00,107.34
770.00,107.35
769.00,107.35
768.00,107.34
767.00,107.34
766.00,107.34
765.00,107.34
764.00,107.34
763.00,107.34
762.00,107.33
761.00,107.33
760.00,107.32
759.00,107.31
758.00,107.31
757.00,107.31
756.00,107.30
755.00,107.30
754.00,107.30
753.00,107.30
752.00,107.30
751.00,107.29
750.00,107.29
749.00,107.28
748.00,107.28
747.00,107.28
746.00,107.28
745.00,107.28
744.00,107.29
743.00,107.29
742.00,107.28
741.00,107.28
740.00,107.27
739.00,107.27
738.00,107.28
737.00,107.29
736.00,107.29
735.00,107.30
734.00,107.30
733.00,107.30
732.00,107.30
731.00,107.30
730.00,107.30
729.00,107.31
728.00,107.31
727.00,107.31
726.00,107.31
725.00,107.32
724.00,107.32
723.00,107.32
722.00,107.32
721.00,107.32
720.00,107.32
719.00,107.33
718.00,107.33
717.00,107.33
716.00,107.33
715.00,107.33
714.00,107.32
713.00,107.32
712.00,107.32
711.00,107.32
710.00,107.32
709.00,107.32
708.00,107.32
707.00,107.31
706.00,107.31
705.00,107.31
704.00,107.30
703.00,107.30
702.00,107.30
701.00,107.30
700.00,107.30
699.00,107.29
698.00,107.29
697.00,107.29
696.00,107.29
695.00,107.30
694.00,107.30
693.00,107.30
692.00,107.30
691.00,107.30
690.00,107.31
689.00,107.31
688.00,107.31
687.00,107.31
686.00,107.30
685.00,107.31
684.00,107.31
683.00,107.32
682.00,107.32
681.00,107.32
680.00,107.32
679.00,107.31
678.00,107.31
677.00,107.31
676.00,107.32
675.00,107.32
674.00,107.32
673.00,107.33
672.00,107.35
671.00,107.38
670.00,107.40
669.00,107.41
668.00,107.39
667.00,107.38
666.00,107.37
665.00,107.36
664.00,107.35
663.00,107.34
662.00,107.34
661.00,107.35
660.00,107.35
659.00,107.35
658.00,107.35
657.00,107.35
656.00,107.35
655.00,107.34
654.00,107.34
653.00,107.34
652.00,107.32
651.00,107.31
650.00,107.31
649.00,107.31
648.00,107.30
647.00,107.30
646.00,107.31
645.00,107.31
644.00,107.31
643.00,107.31
642.00,107.31
641.00,107.30
640.00,107.30
639.00,107.29
638.00,107.30
637.00,107.30
636.00,107.31
635.00,107.31
634.00,107.31
633.00,107.31
632.00,107.30
631.00,107.30
630.00,107.30
629.00,107.31
628.00,107.32
627.00,107.33
626.00,107.33
625.00,107.33
624.00,107.33
623.00,107.33
622.00,107.33
621.00,107.34
620.00,107.34
619.00,107.34
618.00,107.35
617.00,107.35
616.00,107.35
615.00,107.35
614.00,107.35
613.00,107.34
612.00,107.35
611.00,107.36
610.00,107.37
609.00,107.38
608.00,107.38
607.00,107.38
606.00,107.38
605.00,107.37
604.00,107.37
603.00,107.37
602.00,107.38
601.00,107.38
600.00,107.37
599.00,107.37
598.00,107.36
597.00,107.36
596.00,107.36
595.00,107.36
594.00,107.36
593.00,107.36
592.00,107.36
591.00,107.36
590.00,107.36
589.00,107.37
588.00,107.37
587.00,107.37
586.00,107.37
585.00,107.37
584.00,107.36
583.00,107.37
582.00,107.38
581.00,107.39
580.00,107.39
579.00,107.39
578.00,107.38
577.00,107.39
576.00,107.39
575.00,107.39
574.00,107.39
573.00,107.40
572.00,107.40
571.00,107.40
570.00,107.40
569.00,107.40
568.00,107.40
567.00,107.40
566.00,107.40
565.00,107.40
564.00,107.41
563.00,107.41
562.00,107.42
561.00,107.42
560.00,107.42
559.00,107.42
558.00,107.43
557.00,107.44
556.00,107.45
555.00,107.45
554.00,107.45
553.00,107.44
552.00,107.43
551.00,107.43
550.00,107.43
549.00,107.44
548.00,107.44
547.00,107.44
546.00,107.43
545.00,107.43
544.00,107.42
543.00,107.42
542.00,107.42
541.00,107.42
540.00,107.42
539.00,107.42
538.00,107.43
537.00,107.43
536.00,107.44
535.00,107.44
534.00,107.44
533.00,107.44
532.00,107.45
531.00,107.46
530.00,107.46
529.00,107.47
528.00,107.47
527.00,107.47
526.00,107.47
525.00,107.48
524.00,107.48
523.00,107.49
522.00,107.50
521.00,107.50
520.00,107.50
519.00,107.50
518.00,107.50
517.00,107.51
516.00,107.51
515.00,107.52
514.00,107.52
513.00,107.52
512.00,107.52
511.00,107.53
510.00,107.53
509.00,107.53
508.00,107.52
507.00,107.51
506.00,107.50
505.00,107.50
504.00,107.51
503.00,107.52
502.00,107.53
501.00,107.53
500.00,107.52
