Created as New Dataset,Sample 359 By Analyst Date Thursday, February 06 2025
cm-1,%T
4000.00,87.99
3999.00,87.99
3998.00,87.99
3997.00,87.99
3996.00,87.98
3995.00,87.98
3994.00,87.98
3993.00,87.98
3992.00,87.98
3991.00,87.98
3990.00,87.98
3989.00,87.98
3988.00,87.98
3987.00,87.98
3986.00,87.98
3985.00,87.98
3984.00,87.98
3983.00,87.98
3982.00,87.98
3981.00,87.98
3980.00,87.98
3979.00,87.98
3978.00,87.98
3977.00,87.98
3976.00,87.98
3975.00,87.98
3974.00,87.98
3973.00,87.99
3972.00,87.99
3971.00,87.99
3970.00,87.99
3969.00,87.99
3968.00,87.99
3967.00,87.99
3966.00,87.99
3965.00,87.99
3964.00,87.99
3963.00,87.99
3962.00,87.99
3961.00,87.99
3960.00,87.99
3959.00,87.99
3958.00,87.99
3957.00,87.99
3956.00,87.99
3955.00,87.99
3954.00,87.99
3953.00,87.99
3952.00,87.99
3951.00,87.98
3950.00,87.98
3949.00,87.98
3948.00,87.97
3947.00,87.97
3946.00,87.98
3945.00,87.98
3944.00,87.98
3943.00,87.97
3942.00,87.97
3941.00,87.97
3940.00,87.97
3939.00,87.97
3938.00,87.97
3937.00,87.97
3936.00,87.97
3935.00,87.97
3934.00,87.97
3933.00,87.97
3932.00,87.97
3931.00,87.97
3930.00,87.97
3929.00,87.97
3928.00,87.98
3927.00,87.98
3926.00,87.98
3925.00,87.98
3924.00,87.97
3923.00,87.97
3922.00,87.98
3921.00,87.98
3920.00,87.97
3919.00,87.97
3918.00,87.98
3917.00,87.98
3916.00,87.98
3915.00,87.98
3914.00,87.99
3913.00,87.99
3912.00,87.99
3911.00,87.99
3910.00,87.99
3909.00,87.99
3908.00,87.99
3907.00,87.99
3906.00,87.99
3905.00,87.98
3904.00,87.96
3903.00,87.95
3902.00,87.95
3901.00,87.96
3900.00,87.97
3899.00,87.96
3898.00,87.96
3897.00,87.96
3896.00,87.96
3895.00,87.96
3894.00,87.96
3893.00,87.96
3892.00,87.96
3891.00,87.95
3890.00,87.94
3889.00,87.94
3888.00,87.95
3887.00,87.96
3886.00,87.95
3885.00,87.94
3884.00,87.95
3883.00,87.96
3882.00,87.97
3881.00,87.96
3880.00,87.94
3879.00,87.93
3878.00,87.94
3877.00,87.96
3876.00,87.97
3875.00,87.96
3874.00,87.95
3873.00,87.94
3872.00,87.95
3871.00,87.97
3870.00,87.96
3869.00,87.95
3868.00,87.96
3867.00,87.98
3866.00,87.98
3865.00,87.97
3864.00,87.95
3863.00,87.95
3862.00,87.96
3861.00,87.97
3860.00,87.97
3859.00,87.97
3858.00,87.98
3857.00,88.00
3856.00,88.02
3855.00,88.04
3854.00,88.03
3853.00,88.02
3852.00,88.02
3851.00,88.04
3850.00,88.03
3849.00,88.00
3848.00,87.97
3847.00,87.96
3846.00,87.96
3845.00,87.96
3844.00,87.96
3843.00,87.96
3842.00,87.95
3841.00,87.96
3840.00,87.97
3839.00,87.97
3838.00,87.97
3837.00,87.97
3836.00,87.97
3835.00,87.97
3834.00,87.97
3833.00,87.96
3832.00,87.95
3831.00,87.94
3830.00,87.94
3829.00,87.95
3828.00,87.96
3827.00,87.96
3826.00,87.94
3825.00,87.94
3824.00,87.95
3823.00,87.97
3822.00,87.97
3821.00,87.95
3820.00,87.93
3819.00,87.94
3818.00,87.97
3817.00,87.98
3816.00,87.98
3815.00,87.97
3814.00,87.98
3813.00,88.00
3812.00,87.99
3811.00,87.97
3810.00,87.96
3809.00,87.97
3808.00,87.98
3807.00,87.98
3806.00,87.97
3805.00,87.97
3804.00,87.99
3803.00,88.00
3802.00,87.99
3801.00,87.97
3800.00,87.97
3799.00,87.99
3798.00,87.99
3797.00,87.97
3796.00,87.95
3795.00,87.95
3794.00,87.96
3793.00,87.97
3792.00,87.97
3791.00,87.97
3790.00,87.96
3789.00,87.97
3788.00,87.97
3787.00,87.96
3786.00,87.96
3785.00,87.96
3784.00,87.96
3783.00,87.95
3782.00,87.96
3781.00,87.96
3780.00,87.95
3779.00,87.94
3778.00,87.94
3777.00,87.95
3776.00,87.96
3775.00,87.96
3774.00,87.95
3773.00,87.95
3772.00,87.96
3771.00,87.96
3770.00,87.95
3769.00,87.94
3768.00,87.95
3767.00,87.95
3766.00,87.96
3765.00,87.95
3764.00,87.94
3763.00,87.95
3762.00,87.96
3761.00,87.96
3760.00,87.96
3759.00,87.95
3758.00,87.95
3757.00,87.95
3756.00,87.95
3755.00,87.96
3754.00,87.97
3753.00,87.97
3752.00,87.97
3751.00,87.98
3750.00,87.98
3749.00,87.99
3748.00,87.98
3747.00,87.99
3746.00,88.00
3745.00,88.00
3744.00,87.99
3743.00,87.99
3742.00,88.01
3741.00,88.00
3740.00,87.97
3739.00,87.95
3738.00,87.95
3737.00,87.96
3736.00,87.97
3735.00,87.96
3734.00,87.96
3733.00,87.96
3732.00,87.96
3731.00,87.96
3730.00,87.96
3729.00,87.97
3728.00,87.97
3727.00,87.97
3726.00,87.96
3725.00,87.96
3724.00,87.96
3723.00,87.96
3722.00,87.95
3721.00,87.94
3720.00,87.94
3719.00,87.95
3718.00,87.96
3717.00,87.97
3716.00,87.97
3715.00,87.98
3714.00,87.98
3713.00,87.98
3712.00,87.97
3711.00,87.97
3710.00,87.97
3709.00,87.97
3708.00,87.97
3707.00,87.97
3706.00,87.97
3705.00,87.97
3704.00,87.97
3703.00,87.97
3702.00,87.96
3701.00,87.96
3700.00,87.95
3699.00,87.95
3698.00,87.95
3697.00,87.95
3696.00,87.94
3695.00,87.94
3694.00,87.94
3693.00,87.94
3692.00,87.93
3691.00,87.93
3690.00,87.92
3689.00,87.92
3688.00,87.92
3687.00,87.93
3686.00,87.94
3685.00,87.93
3684.00,87.91
3683.00,87.90
3682.00,87.89
3681.00,87.89
3680.00,87.89
3679.00,87.88
3678.00,87.88
3677.00,87.89
3676.00,87.89
3675.00,87.87
3674.00,87.87
3673.00,87.89
3672.00,87.90
3671.00,87.90
3670.00,87.89
3669.00,87.88
3668.00,87.89
3667.00,87.90
3666.00,87.90
3665.00,87.89
3664.00,87.89
3663.00,87.90
3662.00,87.90
3661.00,87.90
3660.00,87.90
3659.00,87.90
3658.00,87.91
3657.00,87.92
3656.00,87.91
3655.00,87.91
3654.00,87.92
3653.00,87.92
3652.00,87.92
3651.00,87.91
3650.00,87.90
3649.00,87.90
3648.00,87.91
3647.00,87.92
3646.00,87.92
3645.00,87.92
3644.00,87.93
3643.00,87.93
3642.00,87.93
3641.00,87.93
3640.00,87.93
3639.00,87.93
3638.00,87.93
3637.00,87.93
3636.00,87.93
3635.00,87.93
3634.00,87.92
3633.00,87.91
3632.00,87.91
3631.00,87.91
3630.00,87.92
3629.00,87.91
3628.00,87.90
3627.00,87.91
3626.00,87.92
3625.00,87.91
3624.00,87.89
3623.00,87.88
3622.00,87.89
3621.00,87.89
3620.00,87.89
3619.00,87.88
3618.00,87.87
3617.00,87.87
3616.00,87.87
3615.00,87.88
3614.00,87.88
3613.00,87.87
3612.00,87.87
3611.00,87.87
3610.00,87.88
3609.00,87.89
3608.00,87.89
3607.00,87.90
3606.00,87.90
3605.00,87.90
3604.00,87.90
3603.00,87.90
3602.00,87.90
3601.00,87.90
3600.00,87.90
3599.00,87.90
3598.00,87.90
3597.00,87.90
3596.00,87.90
3595.00,87.89
3594.00,87.89
3593.00,87.89
3592.00,87.89
3591.00,87.89
3590.00,87.89
3589.00,87.89
3588.00,87.89
3587.00,87.88
3586.00,87.88
3585.00,87.89
3584.00,87.89
3583.00,87.89
3582.00,87.88
3581.00,87.88
3580.00,87.88
3579.00,87.88
3578.00,87.88
3577.00,87.88
3576.00,87.87
3575.00,87.87
3574.00,87.87
3573.00,87.87
3572.00,87.86
3571.00,87.86
3570.00,87.85
3569.00,87.85
3568.00,87.85
3567.00,87.84
3566.00,87.84
3565.00,87.84
3564.00,87.84
3563.00,87.84
3562.00,87.85
3561.00,87.85
3560.00,87.85
3559.00,87.85
3558.00,87.85
3557.00,87.85
3556.00,87.85
3555.00,87.85
3554.00,87.85
3553.00,87.85
3552.00,87.85
3551.00,87.85
3550.00,87.85
3549.00,87.85
3548.00,87.85
3547.00,87.85
3546.00,87.85
3545.00,87.85
3544.00,87.85
3543.00,87.85
3542.00,87.85
3541.00,87.85
3540.00,87.85
3539.00,87.85
3538.00,87.85
3537.00,87.85
3536.00,87.85
3535.00,87.84
3534.00,87.84
3533.00,87.84
3532.00,87.84
3531.00,87.84
3530.00,87.84
3529.00,87.83
3528.00,87.83
3527.00,87.83
3526.00,87.82
3525.00,87.82
3524.00,87.83
3523.00,87.82
3522.00,87.82
3521.00,87.82
3520.00,87.82
3519.00,87.82
3518.00,87.82
3517.00,87.82
3516.00,87.82
3515.00,87.82
3514.00,87.82
3513.00,87.82
3512.00,87.82
3511.00,87.82
3510.00,87.82
3509.00,87.82
3508.00,87.82
3507.00,87.82
3506.00,87.82
3505.00,87.82
3504.00,87.83
3503.00,87.83
3502.00,87.83
3501.00,87.83
3500.00,87.83
3499.00,87.83
3498.00,87.83
3497.00,87.83
3496.00,87.84
3495.00,87.84
3494.00,87.84
3493.00,87.84
3492.00,87.84
3491.00,87.84
3490.00,87.84
3489.00,87.84
3488.00,87.84
3487.00,87.84
3486.00,87.84
3485.00,87.84
3484.00,87.84
3483.00,87.84
3482.00,87.83
3481.00,87.83
3480.00,87.83
3479.00,87.83
3478.00,87.82
3477.00,87.82
3476.00,87.82
3475.00,87.82
3474.00,87.81
3473.00,87.81
3472.00,87.81
3471.00,87.81
3470.00,87.80
3469.00,87.80
3468.00,87.80
3467.00,87.80
3466.00,87.80
3465.00,87.79
3464.00,87.79
3463.00,87.79
3462.00,87.79
3461.00,87.79
3460.00,87.79
3459.00,87.79
3458.00,87.79
3457.00,87.79
3456.00,87.78
3455.00,87.78
3454.00,87.78
3453.00,87.78
3452.00,87.78
3451.00,87.78
3450.00,87.78
3449.00,87.78
3448.00,87.78
3447.00,87.78
3446.00,87.78
3445.00,87.78
3444.00,87.78
3443.00,87.78
3442.00,87.78
3441.00,87.78
3440.00,87.78
3439.00,87.78
3438.00,87.78
3437.00,87.78
3436.00,87.78
3435.00,87.78
3434.00,87.78
3433.00,87.78
3432.00,87.78
3431.00,87.78
3430.00,87.78
3429.00,87.78
3428.00,87.78
3427.00,87.78
3426.00,87.78
3425.00,87.78
3424.00,87.78
3423.00,87.78
3422.00,87.78
3421.00,87.78
3420.00,87.78
3419.00,87.78
3418.00,87.78
3417.00,87.78
3416.00,87.78
3415.00,87.78
3414.00,87.78
3413.00,87.78
3412.00,87.78
3411.00,87.78
3410.00,87.79
3409.00,87.79
3408.00,87.79
3407.00,87.80
3406.00,87.80
3405.00,87.80
3404.00,87.80
3403.00,87.81
3402.00,87.81
3401.00,87.81
3400.00,87.82
3399.00,87.82
3398.00,87.83
3397.00,87.83
3396.00,87.83
3395.00,87.83
3394.00,87.84
3393.00,87.84
3392.00,87.84
3391.00,87.85
3390.00,87.85
3389.00,87.86
3388.00,87.86
3387.00,87.86
3386.00,87.86
3385.00,87.86
3384.00,87.86
3383.00,87.86
3382.00,87.86
3381.00,87.87
3380.00,87.87
3379.00,87.87
3378.00,87.87
3377.00,87.87
3376.00,87.87
3375.00,87.87
3374.00,87.86
3373.00,87.86
3372.00,87.86
3371.00,87.86
3370.00,87.86
3369.00,87.86
3368.00,87.86
3367.00,87.86
3366.00,87.85
3365.00,87.85
3364.00,87.85
3363.00,87.85
3362.00,87.85
3361.00,87.84
3360.00,87.84
3359.00,87.84
3358.00,87.84
3357.00,87.84
3356.00,87.84
3355.00,87.84
3354.00,87.84
3353.00,87.84
3352.00,87.84
3351.00,87.84
3350.00,87.84
3349.00,87.84
3348.00,87.84
3347.00,87.84
3346.00,87.84
3345.00,87.84
3344.00,87.85
3343.00,87.85
3342.00,87.85
3341.00,87.85
3340.00,87.85
3339.00,87.85
3338.00,87.85
3337.00,87.85
3336.00,87.85
3335.00,87.86
3334.00,87.86
3333.00,87.86
3332.00,87.86
3331.00,87.86
3330.00,87.86
3329.00,87.86
3328.00,87.85
3327.00,87.85
3326.00,87.85
3325.00,87.85
3324.00,87.85
3323.00,87.85
3322.00,87.85
3321.00,87.85
3320.00,87.84
3319.00,87.84
3318.00,87.84
3317.00,87.84
3316.00,87.84
3315.00,87.83
3314.00,87.83
3313.00,87.83
3312.00,87.83
3311.00,87.82
3310.00,87.82
3309.00,87.81
3308.00,87.81
3307.00,87.81
3306.00,87.81
3305.00,87.81
3304.00,87.81
3303.00,87.81
3302.00,87.81
3301.00,87.81
3300.00,87.81
3299.00,87.81
3298.00,87.81
3297.00,87.81
3296.00,87.81
3295.00,87.82
3294.00,87.82
3293.00,87.82
3292.00,87.82
3291.00,87.83
3290.00,87.83
3289.00,87.84
3288.00,87.84
3287.00,87.84
3286.00,87.85
3285.00,87.85
3284.00,87.85
3283.00,87.85
3282.00,87.86
3281.00,87.86
3280.00,87.86
3279.00,87.87
3278.00,87.87
3277.00,87.87
3276.00,87.87
3275.00,87.87
3274.00,87.87
3273.00,87.87
3272.00,87.87
3271.00,87.87
3270.00,87.87
3269.00,87.87
3268.00,87.87
3267.00,87.86
3266.00,87.86
3265.00,87.86
3264.00,87.86
3263.00,87.86
3262.00,87.86
3261.00,87.85
3260.00,87.85
3259.00,87.85
3258.00,87.85
3257.00,87.85
3256.00,87.84
3255.00,87.84
3254.00,87.84
3253.00,87.84
3252.00,87.84
3251.00,87.84
3250.00,87.84
3249.00,87.84
3248.00,87.84
3247.00,87.84
3246.00,87.84
3245.00,87.84
3244.00,87.84
3243.00,87.84
3242.00,87.84
3241.00,87.85
3240.00,87.85
3239.00,87.85
3238.00,87.85
3237.00,87.85
3236.00,87.85
3235.00,87.85
3234.00,87.85
3233.00,87.85
3232.00,87.85
3231.00,87.86
3230.00,87.86
3229.00,87.86
3228.00,87.86
3227.00,87.86
3226.00,87.86
3225.00,87.86
3224.00,87.86
3223.00,87.86
3222.00,87.86
3221.00,87.85
3220.00,87.85
3219.00,87.85
3218.00,87.85
3217.00,87.85
3216.00,87.85
3215.00,87.85
3214.00,87.84
3213.00,87.84
3212.00,87.84
3211.00,87.84
3210.00,87.84
3209.00,87.83
3208.00,87.83
3207.00,87.83
3206.00,87.83
3205.00,87.82
3204.00,87.82
3203.00,87.82
3202.00,87.82
3201.00,87.82
3200.00,87.82
3199.00,87.81
3198.00,87.81
3197.00,87.81
3196.00,87.81
3195.00,87.81
3194.00,87.81
3193.00,87.81
3192.00,87.81
3191.00,87.81
3190.00,87.81
3189.00,87.82
3188.00,87.82
3187.00,87.82
3186.00,87.82
3185.00,87.82
3184.00,87.82
3183.00,87.82
3182.00,87.82
3181.00,87.82
3180.00,87.82
3179.00,87.82
3178.00,87.82
3177.00,87.82
3176.00,87.82
3175.00,87.82
3174.00,87.82
3173.00,87.83
3172.00,87.83
3171.00,87.83
3170.00,87.83
3169.00,87.82
3168.00,87.82
3167.00,87.82
3166.00,87.82
3165.00,87.82
3164.00,87.82
3163.00,87.82
3162.00,87.82
3161.00,87.82
3160.00,87.81
3159.00,87.81
3158.00,87.81
3157.00,87.81
3156.00,87.81
3155.00,87.81
3154.00,87.80
3153.00,87.80
3152.00,87.80
3151.00,87.80
3150.00,87.80
3149.00,87.80
3148.00,87.80
3147.00,87.80
3146.00,87.80
3145.00,87.80
3144.00,87.80
3143.00,87.80
3142.00,87.80
3141.00,87.80
3140.00,87.80
3139.00,87.80
3138.00,87.80
3137.00,87.80
3136.00,87.80
3135.00,87.80
3134.00,87.80
3133.00,87.80
3132.00,87.80
3131.00,87.81
3130.00,87.81
3129.00,87.81
3128.00,87.81
3127.00,87.81
3126.00,87.81
3125.00,87.81
3124.00,87.81
3123.00,87.81
3122.00,87.81
3121.00,87.81
3120.00,87.81
3119.00,87.81
3118.00,87.81
3117.00,87.81
3116.00,87.81
3115.00,87.81
3114.00,87.81
3113.00,87.80
3112.00,87.80
3111.00,87.80
3110.00,87.80
3109.00,87.79
3108.00,87.79
3107.00,87.79
3106.00,87.78
3105.00,87.78
3104.00,87.78
3103.00,87.78
3102.00,87.77
3101.00,87.77
3100.00,87.77
3099.00,87.77
3098.00,87.76
3097.00,87.76
3096.00,87.76
3095.00,87.76
3094.00,87.76
3093.00,87.76
3092.00,87.75
3091.00,87.75
3090.00,87.75
3089.00,87.75
3088.00,87.75
3087.00,87.74
3086.00,87.74
3085.00,87.74
3084.00,87.74
3083.00,87.73
3082.00,87.73
3081.00,87.73
3080.00,87.73
3079.00,87.73
3078.00,87.73
3077.00,87.73
3076.00,87.73
3075.00,87.74
3074.00,87.74
3073.00,87.74
3072.00,87.74
3071.00,87.74
3070.00,87.74
3069.00,87.74
3068.00,87.74
3067.00,87.74
3066.00,87.74
3065.00,87.74
3064.00,87.74
3063.00,87.74
3062.00,87.74
3061.00,87.75
3060.00,87.75
3059.00,87.75
3058.00,87.74
3057.00,87.74
3056.00,87.74
3055.00,87.74
3054.00,87.74
3053.00,87.74
3052.00,87.74
3051.00,87.74
3050.00,87.73
3049.00,87.73
3048.00,87.73
3047.00,87.73
3046.00,87.73
3045.00,87.72
3044.00,87.72
3043.00,87.72
3042.00,87.72
3041.00,87.72
3040.00,87.72
3039.00,87.72
3038.00,87.72
3037.00,87.72
3036.00,87.72
3035.00,87.72
3034.00,87.72
3033.00,87.72
3032.00,87.72
3031.00,87.72
3030.00,87.72
3029.00,87.72
3028.00,87.72
3027.00,87.73
3026.00,87.73
3025.00,87.73
3024.00,87.73
3023.00,87.73
3022.00,87.73
3021.00,87.74
3020.00,87.74
3019.00,87.74
3018.00,87.74
3017.00,87.74
3016.00,87.74
3015.00,87.74
3014.00,87.74
3013.00,87.74
3012.00,87.74
3011.00,87.74
3010.00,87.74
3009.00,87.73
3008.00,87.73
3007.00,87.73
3006.00,87.73
3005.00,87.72
3004.00,87.72
3003.00,87.72
3002.00,87.72
3001.00,87.71
3000.00,87.71
2999.00,87.71
2998.00,87.70
2997.00,87.70
2996.00,87.70
2995.00,87.69
2994.00,87.69
2993.00,87.68
2992.00,87.68
2991.00,87.68
2990.00,87.68
2989.00,87.67
2988.00,87.67
2987.00,87.67
2986.00,87.67
2985.00,87.67
2984.00,87.67
2983.00,87.67
2982.00,87.67
2981.00,87.67
2980.00,87.67
2979.00,87.67
2978.00,87.67
2977.00,87.67
2976.00,87.67
2975.00,87.67
2974.00,87.67
2973.00,87.68
2972.00,87.68
2971.00,87.68
2970.00,87.68
2969.00,87.68
2968.00,87.68
2967.00,87.69
2966.00,87.69
2965.00,87.69
2964.00,87.70
2963.00,87.70
2962.00,87.70
2961.00,87.70
2960.00,87.70
2959.00,87.70
2958.00,87.71
2957.00,87.71
2956.00,87.71
2955.00,87.71
2954.00,87.71
2953.00,87.71
2952.00,87.70
2951.00,87.70
2950.00,87.70
2949.00,87.70
2948.00,87.70
2947.00,87.69
2946.00,87.69
2945.00,87.69
2944.00,87.69
2943.00,87.68
2942.00,87.68
2941.00,87.68
2940.00,87.68
2939.00,87.68
2938.00,87.68
2937.00,87.68
2936.00,87.68
2935.00,87.68
2934.00,87.68
2933.00,87.68
2932.00,87.68
2931.00,87.68
2930.00,87.68
2929.00,87.68
2928.00,87.68
2927.00,87.69
2926.00,87.69
2925.00,87.70
2924.00,87.71
2923.00,87.71
2922.00,87.71
2921.00,87.72
2920.00,87.72
2919.00,87.72
2918.00,87.72
2917.00,87.72
2916.00,87.72
2915.00,87.72
2914.00,87.72
2913.00,87.72
2912.00,87.72
2911.00,87.72
2910.00,87.72
2909.00,87.72
2908.00,87.72
2907.00,87.72
2906.00,87.72
2905.00,87.72
2904.00,87.71
2903.00,87.71
2902.00,87.71
2901.00,87.71
2900.00,87.71
2899.00,87.70
2898.00,87.70
2897.00,87.70
2896.00,87.70
2895.00,87.69
2894.00,87.69
2893.00,87.69
2892.00,87.69
2891.00,87.69
2890.00,87.68
2889.00,87.68
2888.00,87.68
2887.00,87.68
2886.00,87.67
2885.00,87.67
2884.00,87.67
2883.00,87.67
2882.00,87.67
2881.00,87.67
2880.00,87.67
2879.00,87.66
2878.00,87.66
2877.00,87.66
2876.00,87.66
2875.00,87.66
2874.00,87.66
2873.00,87.67
2872.00,87.67
2871.00,87.67
2870.00,87.67
2869.00,87.67
2868.00,87.68
2867.00,87.68
2866.00,87.68
2865.00,87.68
2864.00,87.69
2863.00,87.69
2862.00,87.69
2861.00,87.70
2860.00,87.70
2859.00,87.70
2858.00,87.70
2857.00,87.71
2856.00,87.71
2855.00,87.71
2854.00,87.71
2853.00,87.72
2852.00,87.72
2851.00,87.72
2850.00,87.72
2849.00,87.73
2848.00,87.73
2847.00,87.72
2846.00,87.72
2845.00,87.72
2844.00,87.72
2843.00,87.71
2842.00,87.71
2841.00,87.71
2840.00,87.71
2839.00,87.70
2838.00,87.70
2837.00,87.70
2836.00,87.70
2835.00,87.70
2834.00,87.70
2833.00,87.70
2832.00,87.69
2831.00,87.69
2830.00,87.69
2829.00,87.69
2828.00,87.69
2827.00,87.69
2826.00,87.69
2825.00,87.69
2824.00,87.69
2823.00,87.69
2822.00,87.69
2821.00,87.70
2820.00,87.70
2819.00,87.70
2818.00,87.70
2817.00,87.70
2816.00,87.70
2815.00,87.70
2814.00,87.70
2813.00,87.71
2812.00,87.71
2811.00,87.71
2810.00,87.71
2809.00,87.71
2808.00,87.72
2807.00,87.72
2806.00,87.72
2805.00,87.72
2804.00,87.72
2803.00,87.73
2802.00,87.73
2801.00,87.73
2800.00,87.73
2799.00,87.73
2798.00,87.73
2797.00,87.73
2796.00,87.73
2795.00,87.73
2794.00,87.73
2793.00,87.73
2792.00,87.73
2791.00,87.73
2790.00,87.73
2789.00,87.73
2788.00,87.73
2787.00,87.73
2786.00,87.73
2785.00,87.73
2784.00,87.73
2783.00,87.72
2782.00,87.72
2781.00,87.72
2780.00,87.72
2779.00,87.72
2778.00,87.72
2777.00,87.72
2776.00,87.72
2775.00,87.72
2774.00,87.72
2773.00,87.72
2772.00,87.72
2771.00,87.72
2770.00,87.72
2769.00,87.72
2768.00,87.73
2767.00,87.73
2766.00,87.73
2765.00,87.73
2764.00,87.73
2763.00,87.74
2762.00,87.74
2761.00,87.74
2760.00,87.74
2759.00,87.75
2758.00,87.75
2757.00,87.75
2756.00,87.75
2755.00,87.75
2754.00,87.75
2753.00,87.75
2752.00,87.76
2751.00,87.76
2750.00,87.76
2749.00,87.76
2748.00,87.76
2747.00,87.76
2746.00,87.76
2745.00,87.76
2744.00,87.75
2743.00,87.75
2742.00,87.75
2741.00,87.75
2740.00,87.75
2739.00,87.75
2738.00,87.74
2737.00,87.74
2736.00,87.74
2735.00,87.74
2734.00,87.74
2733.00,87.74
2732.00,87.73
2731.00,87.73
2730.00,87.73
2729.00,87.73
2728.00,87.73
2727.00,87.73
2726.00,87.72
2725.00,87.72
2724.00,87.72
2723.00,87.72
2722.00,87.72
2721.00,87.72
2720.00,87.72
2719.00,87.73
2718.00,87.73
2717.00,87.73
2716.00,87.73
2715.00,87.73
2714.00,87.73
2713.00,87.74
2712.00,87.74
2711.00,87.74
2710.00,87.74
2709.00,87.74
2708.00,87.75
2707.00,87.75
2706.00,87.75
2705.00,87.75
2704.00,87.76
2703.00,87.76
2702.00,87.76
2701.00,87.77
2700.00,87.77
2699.00,87.77
2698.00,87.77
2697.00,87.77
2696.00,87.77
2695.00,87.77
2694.00,87.77
2693.00,87.77
2692.00,87.77
2691.00,87.77
2690.00,87.77
2689.00,87.77
2688.00,87.77
2687.00,87.77
2686.00,87.77
2685.00,87.76
2684.00,87.76
2683.00,87.76
2682.00,87.76
2681.00,87.76
2680.00,87.75
2679.00,87.75
2678.00,87.75
2677.00,87.75
2676.00,87.75
2675.00,87.74
2674.00,87.74
2673.00,87.74
2672.00,87.74
2671.00,87.74
2670.00,87.74
2669.00,87.74
2668.00,87.74
2667.00,87.74
2666.00,87.74
2665.00,87.75
2664.00,87.75
2663.00,87.75
2662.00,87.75
2661.00,87.76
2660.00,87.76
2659.00,87.76
2658.00,87.76
2657.00,87.77
2656.00,87.77
2655.00,87.77
2654.00,87.77
2653.00,87.78
2652.00,87.78
2651.00,87.78
2650.00,87.78
2649.00,87.79
2648.00,87.79
2647.00,87.79
2646.00,87.79
2645.00,87.79
2644.00,87.79
2643.00,87.79
2642.00,87.79
2641.00,87.79
2640.00,87.79
2639.00,87.79
2638.00,87.79
2637.00,87.79
2636.00,87.79
2635.00,87.79
2634.00,87.78
2633.00,87.78
2632.00,87.78
2631.00,87.78
2630.00,87.77
2629.00,87.77
2628.00,87.77
2627.00,87.76
2626.00,87.76
2625.00,87.76
2624.00,87.76
2623.00,87.76
2622.00,87.75
2621.00,87.75
2620.00,87.75
2619.00,87.75
2618.00,87.75
2617.00,87.75
2616.00,87.75
2615.00,87.75
2614.00,87.75
2613.00,87.75
2612.00,87.75
2611.00,87.75
2610.00,87.75
2609.00,87.75
2608.00,87.75
2607.00,87.75
2606.00,87.75
2605.00,87.76
2604.00,87.76
2603.00,87.76
2602.00,87.76
2601.00,87.76
2600.00,87.77
2599.00,87.77
2598.00,87.77
2597.00,87.77
2596.00,87.78
2595.00,87.78
2594.00,87.78
2593.00,87.78
2592.00,87.78
2591.00,87.78
2590.00,87.78
2589.00,87.78
2588.00,87.78
2587.00,87.78
2586.00,87.78
2585.00,87.78
2584.00,87.78
2583.00,87.78
2582.00,87.78
2581.00,87.78
2580.00,87.78
2579.00,87.78
2578.00,87.78
2577.00,87.77
2576.00,87.77
2575.00,87.77
2574.00,87.77
2573.00,87.77
2572.00,87.77
2571.00,87.77
2570.00,87.76
2569.00,87.76
2568.00,87.76
2567.00,87.76
2566.00,87.76
2565.00,87.76
2564.00,87.76
2563.00,87.76
2562.00,87.76
2561.00,87.76
2560.00,87.76
2559.00,87.76
2558.00,87.76
2557.00,87.77
2556.00,87.77
2555.00,87.77
2554.00,87.77
2553.00,87.77
2552.00,87.77
2551.00,87.77
2550.00,87.78
2549.00,87.78
2548.00,87.78
2547.00,87.78
2546.00,87.79
2545.00,87.79
2544.00,87.79
2543.00,87.79
2542.00,87.79
2541.00,87.79
2540.00,87.79
2539.00,87.79
2538.00,87.80
2537.00,87.80
2536.00,87.79
2535.00,87.79
2534.00,87.79
2533.00,87.79
2532.00,87.79
2531.00,87.79
2530.00,87.79
2529.00,87.79
2528.00,87.79
2527.00,87.79
2526.00,87.79
2525.00,87.79
2524.00,87.79
2523.00,87.79
2522.00,87.78
2521.00,87.78
2520.00,87.78
2519.00,87.78
2518.00,87.78
2517.00,87.78
2516.00,87.78
2515.00,87.78
2514.00,87.78
2513.00,87.78
2512.00,87.78
2511.00,87.78
2510.00,87.78
2509.00,87.78
2508.00,87.79
2507.00,87.79
2506.00,87.79
2505.00,87.79
2504.00,87.79
2503.00,87.79
2502.00,87.80
2501.00,87.80
2500.00,87.80
2499.00,87.80
2498.00,87.81
2497.00,87.81
2496.00,87.81
2495.00,87.82
2494.00,87.82
2493.00,87.82
2492.00,87.82
2491.00,87.83
2490.00,87.83
2489.00,87.83
2488.00,87.83
2487.00,87.83
2486.00,87.83
2485.00,87.84
2484.00,87.84
2483.00,87.84
2482.00,87.84
2481.00,87.84
2480.00,87.84
2479.00,87.84
2478.00,87.84
2477.00,87.84
2476.00,87.84
2475.00,87.84
2474.00,87.84
2473.00,87.84
2472.00,87.83
2471.00,87.83
2470.00,87.83
2469.00,87.83
2468.00,87.83
2467.00,87.82
2466.00,87.82
2465.00,87.82
2464.00,87.82
2463.00,87.82
2462.00,87.82
2461.00,87.82
2460.00,87.81
2459.00,87.81
2458.00,87.81
2457.00,87.81
2456.00,87.81
2455.00,87.81
2454.00,87.80
2453.00,87.80
2452.00,87.80
2451.00,87.80
2450.00,87.80
2449.00,87.80
2448.00,87.80
2447.00,87.81
2446.00,87.81
2445.00,87.81
2444.00,87.81
2443.00,87.81
2442.00,87.81
2441.00,87.81
2440.00,87.81
2439.00,87.81
2438.00,87.81
2437.00,87.81
2436.00,87.82
2435.00,87.82
2434.00,87.82
2433.00,87.82
2432.00,87.82
2431.00,87.82
2430.00,87.81
2429.00,87.81
2428.00,87.81
2427.00,87.81
2426.00,87.81
2425.00,87.81
2424.00,87.81
2423.00,87.80
2422.00,87.80
2421.00,87.80
2420.00,87.80
2419.00,87.79
2418.00,87.79
2417.00,87.79
2416.00,87.79
2415.00,87.78
2414.00,87.78
2413.00,87.78
2412.00,87.78
2411.00,87.78
2410.00,87.77
2409.00,87.77
2408.00,87.77
2407.00,87.77
2406.00,87.77
2405.00,87.77
2404.00,87.77
2403.00,87.77
2402.00,87.78
2401.00,87.78
2400.00,87.78
2399.00,87.78
2398.00,87.78
2397.00,87.79
2396.00,87.79
2395.00,87.79
2394.00,87.79
2393.00,87.79
2392.00,87.80
2391.00,87.80
2390.00,87.80
2389.00,87.80
2388.00,87.80
2387.00,87.80
2386.00,87.80
2385.00,87.80
2384.00,87.80
2383.00,87.80
2382.00,87.80
2381.00,87.80
2380.00,87.80
2379.00,87.80
2378.00,87.80
2377.00,87.80
2376.00,87.80
2375.00,87.80
2374.00,87.81
2373.00,87.81
2372.00,87.81
2371.00,87.82
2370.00,87.82
2369.00,87.82
2368.00,87.82
2367.00,87.82
2366.00,87.81
2365.00,87.80
2364.00,87.81
2363.00,87.81
2362.00,87.82
2361.00,87.82
2360.00,87.82
2359.00,87.84
2358.00,87.85
2357.00,87.87
2356.00,87.88
2355.00,87.86
2354.00,87.82
2353.00,87.78
2352.00,87.79
2351.00,87.85
2350.00,87.93
2349.00,87.97
2348.00,87.93
2347.00,87.85
2346.00,87.78
2345.00,87.76
2344.00,87.77
2343.00,87.78
2342.00,87.78
2341.00,87.79
2340.00,87.78
2339.00,87.78
2338.00,87.79
2337.00,87.79
2336.00,87.80
2335.00,87.80
2334.00,87.80
2333.00,87.79
2332.00,87.77
2331.00,87.75
2330.00,87.75
2329.00,87.77
2328.00,87.79
2327.00,87.80
2326.00,87.80
2325.00,87.79
2324.00,87.77
2323.00,87.77
2322.00,87.77
2321.00,87.76
2320.00,87.76
2319.00,87.76
2318.00,87.76
2317.00,87.78
2316.00,87.78
2315.00,87.78
2314.00,87.77
2313.00,87.75
2312.00,87.74
2311.00,87.73
2310.00,87.73
2309.00,87.73
2308.00,87.74
2307.00,87.74
2306.00,87.74
2305.00,87.75
2304.00,87.75
2303.00,87.75
2302.00,87.75
2301.00,87.75
2300.00,87.76
2299.00,87.76
2298.00,87.77
2297.00,87.77
2296.00,87.77
2295.00,87.77
2294.00,87.78
2293.00,87.78
2292.00,87.78
2291.00,87.78
2290.00,87.78
2289.00,87.79
2288.00,87.79
2287.00,87.79
2286.00,87.80
2285.00,87.80
2284.00,87.80
2283.00,87.81
2282.00,87.81
2281.00,87.81
2280.00,87.81
2279.00,87.81
2278.00,87.82
2277.00,87.82
2276.00,87.82
2275.00,87.82
2274.00,87.82
2273.00,87.82
2272.00,87.82
2271.00,87.82
2270.00,87.81
2269.00,87.81
2268.00,87.81
2267.00,87.81
2266.00,87.81
2265.00,87.81
2264.00,87.81
2263.00,87.81
2262.00,87.80
2261.00,87.80
2260.00,87.80
2259.00,87.80
2258.00,87.80
2257.00,87.80
2256.00,87.79
2255.00,87.79
2254.00,87.79
2253.00,87.79
2252.00,87.79
2251.00,87.79
2250.00,87.78
2249.00,87.78
2248.00,87.78
2247.00,87.78
2246.00,87.78
2245.00,87.78
2244.00,87.78
2243.00,87.78
2242.00,87.78
2241.00,87.79
2240.00,87.79
2239.00,87.79
2238.00,87.79
2237.00,87.80
2236.00,87.80
2235.00,87.80
2234.00,87.80
2233.00,87.81
2232.00,87.81
2231.00,87.81
2230.00,87.82
2229.00,87.82
2228.00,87.82
2227.00,87.82
2226.00,87.83
2225.00,87.83
2224.00,87.83
2223.00,87.83
2222.00,87.83
2221.00,87.84
2220.00,87.84
2219.00,87.84
2218.00,87.84
2217.00,87.84
2216.00,87.84
2215.00,87.84
2214.00,87.84
2213.00,87.84
2212.00,87.84
2211.00,87.84
2210.00,87.83
2209.00,87.83
2208.00,87.83
2207.00,87.83
2206.00,87.83
2205.00,87.83
2204.00,87.82
2203.00,87.82
2202.00,87.82
2201.00,87.82
2200.00,87.82
2199.00,87.82
2198.00,87.82
2197.00,87.82
2196.00,87.82
2195.00,87.82
2194.00,87.82
2193.00,87.82
2192.00,87.82
2191.00,87.82
2190.00,87.82
2189.00,87.82
2188.00,87.82
2187.00,87.82
2186.00,87.82
2185.00,87.82
2184.00,87.82
2183.00,87.83
2182.00,87.83
2181.00,87.83
2180.00,87.83
2179.00,87.83
2178.00,87.83
2177.00,87.84
2176.00,87.84
2175.00,87.84
2174.00,87.84
2173.00,87.84
2172.00,87.84
2171.00,87.84
2170.00,87.85
2169.00,87.85
2168.00,87.85
2167.00,87.85
2166.00,87.85
2165.00,87.85
2164.00,87.84
2163.00,87.84
2162.00,87.84
2161.00,87.84
2160.00,87.84
2159.00,87.84
2158.00,87.84
2157.00,87.83
2156.00,87.83
2155.00,87.83
2154.00,87.83
2153.00,87.83
2152.00,87.83
2151.00,87.83
2150.00,87.82
2149.00,87.82
2148.00,87.82
2147.00,87.82
2146.00,87.82
2145.00,87.82
2144.00,87.82
2143.00,87.82
2142.00,87.82
2141.00,87.82
2140.00,87.82
2139.00,87.82
2138.00,87.82
2137.00,87.82
2136.00,87.83
2135.00,87.83
2134.00,87.83
2133.00,87.83
2132.00,87.83
2131.00,87.84
2130.00,87.84
2129.00,87.84
2128.00,87.84
2127.00,87.84
2126.00,87.84
2125.00,87.85
2124.00,87.85
2123.00,87.85
2122.00,87.85
2121.00,87.85
2120.00,87.85
2119.00,87.85
2118.00,87.85
2117.00,87.85
2116.00,87.85
2115.00,87.85
2114.00,87.85
2113.00,87.85
2112.00,87.85
2111.00,87.85
2110.00,87.85
2109.00,87.85
2108.00,87.85
2107.00,87.84
2106.00,87.84
2105.00,87.84
2104.00,87.84
2103.00,87.83
2102.00,87.83
2101.00,87.83
2100.00,87.83
2099.00,87.82
2098.00,87.82
2097.00,87.82
2096.00,87.82
2095.00,87.82
2094.00,87.81
2093.00,87.81
2092.00,87.81
2091.00,87.81
2090.00,87.80
2089.00,87.80
2088.00,87.80
2087.00,87.80
2086.00,87.80
2085.00,87.80
2084.00,87.80
2083.00,87.80
2082.00,87.80
2081.00,87.80
2080.00,87.80
2079.00,87.80
2078.00,87.81
2077.00,87.81
2076.00,87.81
2075.00,87.81
2074.00,87.81
2073.00,87.81
2072.00,87.82
2071.00,87.82
2070.00,87.82
2069.00,87.83
2068.00,87.83
2067.00,87.83
2066.00,87.84
2065.00,87.84
2064.00,87.84
2063.00,87.84
2062.00,87.84
2061.00,87.84
2060.00,87.85
2059.00,87.85
2058.00,87.85
2057.00,87.85
2056.00,87.85
2055.00,87.85
2054.00,87.85
2053.00,87.85
2052.00,87.85
2051.00,87.84
2050.00,87.84
2049.00,87.84
2048.00,87.84
2047.00,87.84
2046.00,87.83
2045.00,87.83
2044.00,87.83
2043.00,87.83
2042.00,87.83
2041.00,87.82
2040.00,87.82
2039.00,87.82
2038.00,87.82
2037.00,87.82
2036.00,87.82
2035.00,87.82
2034.00,87.81
2033.00,87.81
2032.00,87.81
2031.00,87.81
2030.00,87.81
2029.00,87.81
2028.00,87.82
2027.00,87.82
2026.00,87.82
2025.00,87.82
2024.00,87.82
2023.00,87.82
2022.00,87.83
2021.00,87.83
2020.00,87.83
2019.00,87.83
2018.00,87.84
2017.00,87.84
2016.00,87.84
2015.00,87.84
2014.00,87.84
2013.00,87.84
2012.00,87.84
2011.00,87.84
2010.00,87.84
2009.00,87.84
2008.00,87.84
2007.00,87.84
2006.00,87.84
2005.00,87.84
2004.00,87.84
2003.00,87.83
2002.00,87.83
2001.00,87.83
2000.00,87.83
1999.00,87.82
1998.00,87.82
1997.00,87.82
1996.00,87.81
1995.00,87.81
1994.00,87.81
1993.00,87.81
1992.00,87.80
1991.00,87.80
1990.00,87.79
1989.00,87.79
1988.00,87.78
1987.00,87.78
1986.00,87.78
1985.00,87.77
1984.00,87.77
1983.00,87.77
1982.00,87.77
1981.00,87.77
1980.00,87.76
1979.00,87.76
1978.00,87.76
1977.00,87.76
1976.00,87.76
1975.00,87.77
1974.00,87.77
1973.00,87.77
1972.00,87.77
1971.00,87.78
1970.00,87.78
1969.00,87.78
1968.00,87.79
1967.00,87.79
1966.00,87.79
1965.00,87.79
1964.00,87.79
1963.00,87.80
1962.00,87.79
1961.00,87.79
1960.00,87.79
1959.00,87.80
1958.00,87.80
1957.00,87.81
1956.00,87.80
1955.00,87.80
1954.00,87.79
1953.00,87.78
1952.00,87.78
1951.00,87.78
1950.00,87.78
1949.00,87.77
1948.00,87.77
1947.00,87.77
1946.00,87.77
1945.00,87.77
1944.00,87.77
1943.00,87.76
1942.00,87.76
1941.00,87.76
1940.00,87.76
1939.00,87.76
1938.00,87.76
1937.00,87.77
1936.00,87.77
1935.00,87.77
1934.00,87.77
1933.00,87.77
1932.00,87.77
1931.00,87.77
1930.00,87.77
1929.00,87.78
1928.00,87.78
1927.00,87.77
1926.00,87.78
1925.00,87.78
1924.00,87.77
1923.00,87.77
1922.00,87.77
1921.00,87.77
1920.00,87.78
1919.00,87.78
1918.00,87.78
1917.00,87.78
1916.00,87.77
1915.00,87.77
1914.00,87.78
1913.00,87.78
1912.00,87.79
1911.00,87.79
1910.00,87.79
1909.00,87.79
1908.00,87.79
1907.00,87.80
1906.00,87.80
1905.00,87.80
1904.00,87.81
1903.00,87.81
1902.00,87.81
1901.00,87.81
1900.00,87.81
1899.00,87.81
1898.00,87.81
1897.00,87.81
1896.00,87.81
1895.00,87.80
1894.00,87.80
1893.00,87.80
1892.00,87.80
1891.00,87.80
1890.00,87.80
1889.00,87.79
1888.00,87.79
1887.00,87.78
1886.00,87.78
1885.00,87.78
1884.00,87.78
1883.00,87.77
1882.00,87.77
1881.00,87.77
1880.00,87.77
1879.00,87.76
1878.00,87.76
1877.00,87.76
1876.00,87.76
1875.00,87.75
1874.00,87.75
1873.00,87.75
1872.00,87.76
1871.00,87.76
1870.00,87.76
1869.00,87.76
1868.00,87.75
1867.00,87.75
1866.00,87.75
1865.00,87.75
1864.00,87.76
1863.00,87.76
1862.00,87.76
1861.00,87.77
1860.00,87.77
1859.00,87.77
1858.00,87.76
1857.00,87.77
1856.00,87.77
1855.00,87.76
1854.00,87.76
1853.00,87.76
1852.00,87.76
1851.00,87.76
1850.00,87.76
1849.00,87.76
1848.00,87.75
1847.00,87.75
1846.00,87.74
1845.00,87.74
1844.00,87.74
1843.00,87.73
1842.00,87.73
1841.00,87.73
1840.00,87.73
1839.00,87.72
1838.00,87.72
1837.00,87.72
1836.00,87.72
1835.00,87.71
1834.00,87.72
1833.00,87.72
1832.00,87.72
1831.00,87.72
1830.00,87.72
1829.00,87.71
1828.00,87.71
1827.00,87.71
1826.00,87.71
1825.00,87.71
1824.00,87.70
1823.00,87.69
1822.00,87.69
1821.00,87.69
1820.00,87.69
1819.00,87.69
1818.00,87.69
1817.00,87.69
1816.00,87.69
1815.00,87.69
1814.00,87.69
1813.00,87.69
1812.00,87.69
1811.00,87.69
1810.00,87.69
1809.00,87.69
1808.00,87.69
1807.00,87.69
1806.00,87.69
1805.00,87.69
1804.00,87.70
1803.00,87.69
1802.00,87.69
1801.00,87.69
1800.00,87.69
1799.00,87.68
1798.00,87.68
1797.00,87.68
1796.00,87.68
1795.00,87.67
1794.00,87.66
1793.00,87.66
1792.00,87.66
1791.00,87.66
1790.00,87.66
1789.00,87.66
1788.00,87.66
1787.00,87.66
1786.00,87.66
1785.00,87.66
1784.00,87.66
1783.00,87.66
1782.00,87.65
1781.00,87.65
1780.00,87.64
1779.00,87.64
1778.00,87.63
1777.00,87.63
1776.00,87.62
1775.00,87.62
1774.00,87.61
1773.00,87.61
1772.00,87.62
1771.00,87.62
1770.00,87.61
1769.00,87.60
1768.00,87.60
1767.00,87.61
1766.00,87.61
1765.00,87.60
1764.00,87.61
1763.00,87.61
1762.00,87.61
1761.00,87.60
1760.00,87.60
1759.00,87.60
1758.00,87.59
1757.00,87.59
1756.00,87.59
1755.00,87.59
1754.00,87.58
1753.00,87.58
1752.00,87.59
1751.00,87.60
1750.00,87.60
1749.00,87.60
1748.00,87.59
1747.00,87.59
1746.00,87.59
1745.00,87.59
1744.00,87.60
1743.00,87.60
1742.00,87.59
1741.00,87.59
1740.00,87.59
1739.00,87.60
1738.00,87.60
1737.00,87.59
1736.00,87.59
1735.00,87.58
1734.00,87.58
1733.00,87.59
1732.00,87.60
1731.00,87.59
1730.00,87.59
1729.00,87.58
1728.00,87.58
1727.00,87.58
1726.00,87.58
1725.00,87.58
1724.00,87.58
1723.00,87.58
1722.00,87.57
1721.00,87.57
1720.00,87.58
1719.00,87.57
1718.00,87.56
1717.00,87.57
1716.00,87.58
1715.00,87.58
1714.00,87.56
1713.00,87.56
1712.00,87.57
1711.00,87.57
1710.00,87.57
1709.00,87.58
1708.00,87.59
1707.00,87.60
1706.00,87.60
1705.00,87.60
1704.00,87.59
1703.00,87.57
1702.00,87.56
1701.00,87.58
1700.00,87.59
1699.00,87.60
1698.00,87.61
1697.00,87.62
1696.00,87.62
1695.00,87.62
1694.00,87.62
1693.00,87.61
1692.00,87.61
1691.00,87.61
1690.00,87.61
1689.00,87.60
1688.00,87.59
1687.00,87.60
1686.00,87.61
1685.00,87.62
1684.00,87.61
1683.00,87.61
1682.00,87.61
1681.00,87.60
1680.00,87.59
1679.00,87.59
1678.00,87.60
1677.00,87.61
1676.00,87.61
1675.00,87.62
1674.00,87.61
1673.00,87.60
1672.00,87.59
1671.00,87.58
1670.00,87.59
1669.00,87.59
1668.00,87.59
1667.00,87.59
1666.00,87.59
1665.00,87.60
1664.00,87.60
1663.00,87.59
1662.00,87.59
1661.00,87.59
1660.00,87.59
1659.00,87.60
1658.00,87.60
1657.00,87.60
1656.00,87.60
1655.00,87.62
1654.00,87.64
1653.00,87.64
1652.00,87.64
1651.00,87.65
1650.00,87.64
1649.00,87.63
1648.00,87.62
1647.00,87.61
1646.00,87.61
1645.00,87.62
1644.00,87.62
1643.00,87.62
1642.00,87.62
1641.00,87.62
1640.00,87.62
1639.00,87.62
1638.00,87.62
1637.00,87.62
1636.00,87.62
1635.00,87.62
1634.00,87.62
1633.00,87.63
1632.00,87.62
1631.00,87.62
1630.00,87.63
1629.00,87.64
1628.00,87.63
1627.00,87.62
1626.00,87.62
1625.00,87.61
1624.00,87.61
1623.00,87.60
1622.00,87.61
1621.00,87.61
1620.00,87.61
1619.00,87.61
1618.00,87.63
1617.00,87.64
1616.00,87.63
1615.00,87.63
1614.00,87.62
1613.00,87.61
1612.00,87.61
1611.00,87.61
1610.00,87.61
1609.00,87.61
1608.00,87.60
1607.00,87.60
1606.00,87.60
1605.00,87.60
1604.00,87.59
1603.00,87.59
1602.00,87.59
1601.00,87.59
1600.00,87.58
1599.00,87.58
1598.00,87.59
1597.00,87.59
1596.00,87.59
1595.00,87.59
1594.00,87.60
1593.00,87.60
1592.00,87.60
1591.00,87.60
1590.00,87.60
1589.00,87.60
1588.00,87.60
1587.00,87.60
1586.00,87.60
1585.00,87.60
1584.00,87.59
1583.00,87.59
1582.00,87.59
1581.00,87.59
1580.00,87.58
1579.00,87.58
1578.00,87.57
1577.00,87.57
1576.00,87.58
1575.00,87.59
1574.00,87.60
1573.00,87.59
1572.00,87.58
1571.00,87.59
1570.00,87.59
1569.00,87.59
1568.00,87.58
1567.00,87.58
1566.00,87.58
1565.00,87.58
1564.00,87.58
1563.00,87.59
1562.00,87.61
1561.00,87.64
1560.00,87.64
1559.00,87.62
1558.00,87.60
1557.00,87.60
1556.00,87.59
1555.00,87.59
1554.00,87.59
1553.00,87.59
1552.00,87.59
1551.00,87.59
1550.00,87.59
1549.00,87.58
1548.00,87.58
1547.00,87.59
1546.00,87.60
1545.00,87.60
1544.00,87.60
1543.00,87.59
1542.00,87.60
1541.00,87.60
1540.00,87.59
1539.00,87.59
1538.00,87.60
1537.00,87.61
1536.00,87.61
1535.00,87.61
1534.00,87.61
1533.00,87.61
1532.00,87.62
1531.00,87.62
1530.00,87.62
1529.00,87.62
1528.00,87.62
1527.00,87.61
1526.00,87.60
1525.00,87.61
1524.00,87.61
1523.00,87.62
1522.00,87.63
1521.00,87.63
1520.00,87.63
1519.00,87.62
1518.00,87.61
1517.00,87.60
1516.00,87.59
1515.00,87.59
1514.00,87.59
1513.00,87.59
1512.00,87.60
1511.00,87.60
1510.00,87.58
1509.00,87.57
1508.00,87.57
1507.00,87.55
1506.00,87.55
1505.00,87.56
1504.00,87.57
1503.00,87.57
1502.00,87.57
1501.00,87.57
1500.00,87.57
1499.00,87.57
1498.00,87.57
1497.00,87.57
1496.00,87.59
1495.00,87.61
1494.00,87.62
1493.00,87.62
1492.00,87.63
1491.00,87.63
1490.00,87.62
1489.00,87.61
1488.00,87.60
1487.00,87.59
1486.00,87.58
1485.00,87.58
1484.00,87.59
1483.00,87.59
1482.00,87.59
1481.00,87.58
1480.00,87.58
1479.00,87.58
1478.00,87.58
1477.00,87.58
1476.00,87.57
1475.00,87.55
1474.00,87.54
1473.00,87.54
1472.00,87.54
1471.00,87.54
1470.00,87.54
1469.00,87.55
1468.00,87.55
1467.00,87.55
1466.00,87.55
1465.00,87.55
1464.00,87.54
1463.00,87.54
1462.00,87.54
1461.00,87.54
1460.00,87.54
1459.00,87.54
1458.00,87.52
1457.00,87.51
1456.00,87.52
1455.00,87.53
1454.00,87.54
1453.00,87.54
1452.00,87.54
1451.00,87.55
1450.00,87.55
1449.00,87.55
1448.00,87.55
1447.00,87.55
1446.00,87.54
1445.00,87.54
1444.00,87.54
1443.00,87.55
1442.00,87.55
1441.00,87.54
1440.00,87.54
1439.00,87.54
1438.00,87.54
1437.00,87.54
1436.00,87.55
1435.00,87.55
1434.00,87.55
1433.00,87.54
1432.00,87.55
1431.00,87.55
1430.00,87.55
1429.00,87.54
1428.00,87.54
1427.00,87.55
1426.00,87.55
1425.00,87.54
1424.00,87.54
1423.00,87.54
1422.00,87.54
1421.00,87.55
1420.00,87.56
1419.00,87.56
1418.00,87.55
1417.00,87.54
1416.00,87.53
1415.00,87.54
1414.00,87.54
1413.00,87.53
1412.00,87.53
1411.00,87.54
1410.00,87.54
1409.00,87.54
1408.00,87.54
1407.00,87.55
1406.00,87.56
1405.00,87.55
1404.00,87.55
1403.00,87.56
1402.00,87.56
1401.00,87.56
1400.00,87.56
1399.00,87.56
1398.00,87.55
1397.00,87.54
1396.00,87.53
1395.00,87.53
1394.00,87.53
1393.00,87.52
1392.00,87.52
1391.00,87.52
1390.00,87.53
1389.00,87.52
1388.00,87.52
1387.00,87.52
1386.00,87.52
1385.00,87.52
1384.00,87.53
1383.00,87.53
1382.00,87.54
1381.00,87.54
1380.00,87.54
1379.00,87.54
1378.00,87.54
1377.00,87.54
1376.00,87.54
1375.00,87.54
1374.00,87.54
1373.00,87.54
1372.00,87.54
1371.00,87.55
1370.00,87.55
1369.00,87.55
1368.00,87.55
1367.00,87.55
1366.00,87.55
1365.00,87.55
1364.00,87.55
1363.00,87.54
1362.00,87.54
1361.00,87.53
1360.00,87.53
1359.00,87.53
1358.00,87.53
1357.00,87.53
1356.00,87.53
1355.00,87.53
1354.00,87.53
1353.00,87.52
1352.00,87.52
1351.00,87.52
1350.00,87.52
1349.00,87.52
1348.00,87.52
1347.00,87.52
1346.00,87.51
1345.00,87.51
1344.00,87.51
1343.00,87.51
1342.00,87.52
1341.00,87.51
1340.00,87.51
1339.00,87.51
1338.00,87.51
1337.00,87.51
1336.00,87.52
1335.00,87.52
1334.00,87.52
1333.00,87.52
1332.00,87.52
1331.00,87.53
1330.00,87.53
1329.00,87.53
1328.00,87.53
1327.00,87.53
1326.00,87.53
1325.00,87.53
1324.00,87.53
1323.00,87.53
1322.00,87.54
1321.00,87.54
1320.00,87.54
1319.00,87.54
1318.00,87.54
1317.00,87.54
1316.00,87.54
1315.00,87.54
1314.00,87.54
1313.00,87.54
1312.00,87.54
1311.00,87.54
1310.00,87.54
1309.00,87.54
1308.00,87.53
1307.00,87.53
1306.00,87.53
1305.00,87.53
1304.00,87.53
1303.00,87.53
1302.00,87.53
1301.00,87.53
1300.00,87.53
1299.00,87.53
1298.00,87.53
1297.00,87.52
1296.00,87.52
1295.00,87.52
1294.00,87.52
1293.00,87.52
1292.00,87.52
1291.00,87.52
1290.00,87.52
1289.00,87.52
1288.00,87.52
1287.00,87.53
1286.00,87.53
1285.00,87.53
1284.00,87.53
1283.00,87.53
1282.00,87.53
1281.00,87.53
1280.00,87.53
1279.00,87.53
1278.00,87.53
1277.00,87.54
1276.00,87.54
1275.00,87.55
1274.00,87.55
1273.00,87.55
1272.00,87.55
1271.00,87.55
1270.00,87.56
1269.00,87.56
1268.00,87.57
1267.00,87.57
1266.00,87.58
1265.00,87.59
1264.00,87.59
1263.00,87.60
1262.00,87.60
1261.00,87.60
1260.00,87.60
1259.00,87.60
1258.00,87.60
1257.00,87.59
1256.00,87.58
1255.00,87.57
1254.00,87.57
1253.00,87.56
1252.00,87.56
1251.00,87.56
1250.00,87.56
1249.00,87.56
1248.00,87.56
1247.00,87.56
1246.00,87.55
1245.00,87.55
1244.00,87.55
1243.00,87.55
1242.00,87.55
1241.00,87.55
1240.00,87.55
1239.00,87.55
1238.00,87.55
1237.00,87.55
1236.00,87.55
1235.00,87.55
1234.00,87.56
1233.00,87.56
1232.00,87.56
1231.00,87.56
1230.00,87.56
1229.00,87.56
1228.00,87.56
1227.00,87.56
1226.00,87.57
1225.00,87.57
1224.00,87.57
1223.00,87.58
1222.00,87.58
1221.00,87.58
1220.00,87.58
1219.00,87.58
1218.00,87.58
1217.00,87.58
1216.00,87.58
1215.00,87.59
1214.00,87.59
1213.00,87.59
1212.00,87.59
1211.00,87.58
1210.00,87.58
1209.00,87.59
1208.00,87.59
1207.00,87.59
1206.00,87.59
1205.00,87.58
1204.00,87.58
1203.00,87.58
1202.00,87.58
1201.00,87.58
1200.00,87.57
1199.00,87.57
1198.00,87.57
1197.00,87.57
1196.00,87.57
1195.00,87.57
1194.00,87.57
1193.00,87.56
1192.00,87.56
1191.00,87.56
1190.00,87.56
1189.00,87.56
1188.00,87.56
1187.00,87.56
1186.00,87.56
1185.00,87.56
1184.00,87.56
1183.00,87.56
1182.00,87.56
1181.00,87.56
1180.00,87.57
1179.00,87.57
1178.00,87.57
1177.00,87.57
1176.00,87.57
1175.00,87.57
1174.00,87.57
1173.00,87.58
1172.00,87.58
1171.00,87.58
1170.00,87.58
1169.00,87.58
1168.00,87.58
1167.00,87.58
1166.00,87.58
1165.00,87.58
1164.00,87.59
1163.00,87.59
1162.00,87.59
1161.00,87.59
1160.00,87.59
1159.00,87.59
1158.00,87.59
1157.00,87.59
1156.00,87.59
1155.00,87.59
1154.00,87.60
1153.00,87.59
1152.00,87.59
1151.00,87.59
1150.00,87.59
1149.00,87.58
1148.00,87.58
1147.00,87.58
1146.00,87.58
1145.00,87.58
1144.00,87.57
1143.00,87.57
1142.00,87.57
1141.00,87.57
1140.00,87.56
1139.00,87.56
1138.00,87.56
1137.00,87.56
1136.00,87.56
1135.00,87.56
1134.00,87.56
1133.00,87.56
1132.00,87.55
1131.00,87.55
1130.00,87.56
1129.00,87.56
1128.00,87.56
1127.00,87.57
1126.00,87.57
1125.00,87.57
1124.00,87.57
1123.00,87.57
1122.00,87.57
1121.00,87.57
1120.00,87.57
1119.00,87.58
1118.00,87.58
1117.00,87.59
1116.00,87.59
1115.00,87.59
1114.00,87.59
1113.00,87.59
1112.00,87.60
1111.00,87.60
1110.00,87.60
1109.00,87.61
1108.00,87.61
1107.00,87.61
1106.00,87.61
1105.00,87.61
1104.00,87.61
1103.00,87.61
1102.00,87.61
1101.00,87.61
1100.00,87.61
1099.00,87.61
1098.00,87.61
1097.00,87.61
1096.00,87.61
1095.00,87.61
1094.00,87.61
1093.00,87.61
1092.00,87.60
1091.00,87.60
1090.00,87.60
1089.00,87.60
1088.00,87.60
1087.00,87.60
1086.00,87.60
1085.00,87.59
1084.00,87.59
1083.00,87.59
1082.00,87.59
1081.00,87.59
1080.00,87.59
1079.00,87.59
1078.00,87.59
1077.00,87.60
1076.00,87.60
1075.00,87.60
1074.00,87.60
1073.00,87.60
1072.00,87.60
1071.00,87.60
1070.00,87.60
1069.00,87.60
1068.00,87.60
1067.00,87.61
1066.00,87.61
1065.00,87.61
1064.00,87.61
1063.00,87.61
1062.00,87.61
1061.00,87.61
1060.00,87.61
1059.00,87.61
1058.00,87.61
1057.00,87.61
1056.00,87.61
1055.00,87.62
1054.00,87.62
1053.00,87.63
1052.00,87.63
1051.00,87.64
1050.00,87.65
1049.00,87.65
1048.00,87.64
1047.00,87.64
1046.00,87.62
1045.00,87.61
1044.00,87.60
1043.00,87.60
1042.00,87.59
1041.00,87.59
1040.00,87.59
1039.00,87.58
1038.00,87.58
1037.00,87.58
1036.00,87.57
1035.00,87.57
1034.00,87.57
1033.00,87.57
1032.00,87.57
1031.00,87.57
1030.00,87.57
1029.00,87.56
1028.00,87.56
1027.00,87.56
1026.00,87.56
1025.00,87.56
1024.00,87.56
1023.00,87.56
1022.00,87.56
1021.00,87.55
1020.00,87.55
1019.00,87.55
1018.00,87.54
1017.00,87.54
1016.00,87.54
1015.00,87.54
1014.00,87.54
1013.00,87.53
1012.00,87.53
1011.00,87.52
1010.00,87.52
1009.00,87.51
1008.00,87.51
1007.00,87.51
1006.00,87.51
1005.00,87.51
1004.00,87.50
1003.00,87.50
1002.00,87.50
1001.00,87.49
1000.00,87.49
999.00,87.48
998.00,87.48
997.00,87.48
996.00,87.48
995.00,87.47
994.00,87.47
993.00,87.47
992.00,87.46
991.00,87.46
990.00,87.45
989.00,87.45
988.00,87.45
987.00,87.45
986.00,87.44
985.00,87.44
984.00,87.43
983.00,87.43
982.00,87.43
981.00,87.43
980.00,87.43
979.00,87.43
978.00,87.43
977.00,87.42
976.00,87.42
975.00,87.42
974.00,87.42
973.00,87.41
972.00,87.41
971.00,87.41
970.00,87.41
969.00,87.41
968.00,87.41
967.00,87.41
966.00,87.41
965.00,87.41
964.00,87.41
963.00,87.41
962.00,87.41
961.00,87.42
960.00,87.42
959.00,87.42
958.00,87.42
957.00,87.42
956.00,87.42
955.00,87.42
954.00,87.42
953.00,87.42
952.00,87.42
951.00,87.42
950.00,87.42
949.00,87.42
948.00,87.42
947.00,87.42
946.00,87.41
945.00,87.41
944.00,87.41
943.00,87.41
942.00,87.41
941.00,87.41
940.00,87.40
939.00,87.40
938.00,87.40
937.00,87.40
936.00,87.40
935.00,87.40
934.00,87.40
933.00,87.39
932.00,87.39
931.00,87.39
930.00,87.39
929.00,87.39
928.00,87.39
927.00,87.38
926.00,87.38
925.00,87.38
924.00,87.38
923.00,87.38
922.00,87.38
921.00,87.38
920.00,87.38
919.00,87.38
918.00,87.38
917.00,87.38
916.00,87.38
915.00,87.39
914.00,87.39
913.00,87.39
912.00,87.39
911.00,87.39
910.00,87.40
909.00,87.40
908.00,87.40
907.00,87.40
906.00,87.41
905.00,87.41
904.00,87.41
903.00,87.41
902.00,87.41
901.00,87.41
900.00,87.42
899.00,87.42
898.00,87.42
897.00,87.42
896.00,87.42
895.00,87.42
894.00,87.42
893.00,87.42
892.00,87.43
891.00,87.43
890.00,87.43
889.00,87.43
888.00,87.43
887.00,87.43
886.00,87.43
885.00,87.43
884.00,87.43
883.00,87.43
882.00,87.43
881.00,87.43
880.00,87.43
879.00,87.43
878.00,87.44
877.00,87.44
876.00,87.44
875.00,87.44
874.00,87.45
873.00,87.45
872.00,87.45
871.00,87.44
870.00,87.44
869.00,87.44
868.00,87.44
867.00,87.44
866.00,87.44
865.00,87.44
864.00,87.44
863.00,87.44
862.00,87.44
861.00,87.44
860.00,87.44
859.00,87.44
858.00,87.45
857.00,87.45
856.00,87.46
855.00,87.46
854.00,87.46
853.00,87.46
852.00,87.46
851.00,87.46
850.00,87.46
849.00,87.47
848.00,87.47
847.00,87.48
846.00,87.48
845.00,87.48
844.00,87.48
843.00,87.48
842.00,87.49
841.00,87.49
840.00,87.49
839.00,87.49
838.00,87.49
837.00,87.49
836.00,87.49
835.00,87.49
834.00,87.50
833.00,87.50
832.00,87.51
831.00,87.51
830.00,87.52
829.00,87.53
828.00,87.54
827.00,87.55
826.00,87.55
825.00,87.56
824.00,87.56
823.00,87.57
822.00,87.57
821.00,87.57
820.00,87.57
819.00,87.56
818.00,87.56
817.00,87.56
816.00,87.56
815.00,87.56
814.00,87.56
813.00,87.56
812.00,87.56
811.00,87.57
810.00,87.57
809.00,87.56
808.00,87.56
807.00,87.56
806.00,87.56
805.00,87.57
804.00,87.57
803.00,87.57
802.00,87.57
801.00,87.56
800.00,87.56
799.00,87.55
798.00,87.55
797.00,87.55
796.00,87.55
795.00,87.55
794.00,87.55
793.00,87.55
792.00,87.55
791.00,87.55
790.00,87.54
789.00,87.54
788.00,87.53
787.00,87.53
786.00,87.53
785.00,87.53
784.00,87.53
783.00,87.53
782.00,87.53
781.00,87.53
780.00,87.52
779.00,87.52
778.00,87.52
777.00,87.53
776.00,87.53
775.00,87.53
774.00,87.52
773.00,87.52
772.00,87.52
771.00,87.52
770.00,87.52
769.00,87.52
768.00,87.52
767.00,87.52
766.00,87.52
765.00,87.53
764.00,87.53
763.00,87.53
762.00,87.53
761.00,87.53
760.00,87.53
759.00,87.53
758.00,87.53
757.00,87.54
756.00,87.54
755.00,87.54
754.00,87.54
753.00,87.54
752.00,87.54
751.00,87.54
750.00,87.54
749.00,87.55
748.00,87.55
747.00,87.55
746.00,87.55
745.00,87.55
744.00,87.55
743.00,87.55
742.00,87.56
741.00,87.56
740.00,87.56
739.00,87.56
738.00,87.56
737.00,87.57
736.00,87.57
735.00,87.57
734.00,87.57
733.00,87.57
732.00,87.57
731.00,87.57
730.00,87.57
729.00,87.57
728.00,87.58
727.00,87.58
726.00,87.58
725.00,87.58
724.00,87.58
723.00,87.58
722.00,87.58
721.00,87.58
720.00,87.58
719.00,87.58
718.00,87.58
717.00,87.58
716.00,87.58
715.00,87.58
714.00,87.58
713.00,87.57
712.00,87.57
711.00,87.57
710.00,87.58
709.00,87.58
708.00,87.58
707.00,87.58
706.00,87.58
705.00,87.58
704.00,87.58
703.00,87.58
702.00,87.59
701.00,87.59
700.00,87.60
699.00,87.61
698.00,87.61
697.00,87.61
696.00,87.62
695.00,87.62
694.00,87.62
693.00,87.62
692.00,87.63
691.00,87.63
690.00,87.63
689.00,87.64
688.00,87.65
687.00,87.66
686.00,87.67
685.00,87.68
684.00,87.69
683.00,87.69
682.00,87.69
681.00,87.69
680.00,87.68
679.00,87.68
678.00,87.67
677.00,87.67
676.00,87.68
675.00,87.68
674.00,87.69
673.00,87.70
672.00,87.70
671.00,87.70
670.00,87.71
669.00,87.72
668.00,87.75
667.00,87.80
666.00,87.82
665.00,87.78
664.00,87.74
663.00,87.73
662.00,87.73
661.00,87.72
660.00,87.72
659.00,87.72
658.00,87.72
657.00,87.71
656.00,87.71
655.00,87.71
654.00,87.71
653.00,87.71
652.00,87.71
651.00,87.72
650.00,87.72
649.00,87.73
648.00,87.74
647.00,87.75
646.00,87.76
645.00,87.76
644.00,87.76
643.00,87.75
642.00,87.75
641.00,87.75
640.00,87.75
639.00,87.76
638.00,87.77
637.00,87.78
636.00,87.78
635.00,87.78
634.00,87.78
633.00,87.78
632.00,87.78
631.00,87.79
630.00,87.80
629.00,87.81
628.00,87.82
627.00,87.82
626.00,87.82
625.00,87.81
624.00,87.82
623.00,87.82
622.00,87.83
621.00,87.83
620.00,87.82
619.00,87.82
618.00,87.82
617.00,87.82
616.00,87.82
615.00,87.82
614.00,87.83
613.00,87.83
612.00,87.84
611.00,87.84
610.00,87.84
609.00,87.84
608.00,87.85
607.00,87.85
606.00,87.85
605.00,87.85
604.00,87.85
603.00,87.86
602.00,87.86
601.00,87.85
600.00,87.85
599.00,87.85
598.00,87.86
597.00,87.86
596.00,87.87
595.00,87.87
594.00,87.88
593.00,87.89
592.00,87.89
591.00,87.88
590.00,87.89
589.00,87.90
588.00,87.91
587.00,87.92
586.00,87.93
585.00,87.92
584.00,87.92
583.00,87.93
582.00,87.93
581.00,87.94
580.00,87.96
579.00,87.97
578.00,87.98
577.00,87.97
576.00,87.96
575.00,87.96
574.00,87.96
573.00,87.97
572.00,87.97
571.00,87.96
570.00,87.96
569.00,87.96
568.00,87.97
567.00,87.97
566.00,87.98
565.00,87.98
564.00,87.98
563.00,87.99
562.00,87.99
561.00,87.98
560.00,87.98
559.00,87.99
558.00,88.00
557.00,88.00
556.00,87.99
555.00,87.99
554.00,87.99
553.00,88.00
552.00,87.99
551.00,87.99
550.00,87.99
549.00,87.99
548.00,87.99
547.00,87.99
546.00,87.99
545.00,87.99
544.00,87.99
543.00,87.99
542.00,88.00
541.00,88.00
540.00,87.99
539.00,87.99
538.00,87.99
537.00,87.99
536.00,87.98
535.00,87.99
534.00,88.00
533.00,88.00
532.00,87.99
531.00,87.99
530.00,87.98
529.00,87.98
528.00,87.99
527.00,87.99
526.00,88.00
525.00,87.99
524.00,87.99
523.00,87.99
522.00,87.99
521.00,87.99
520.00,87.98
519.00,87.98
518.00,87.99
517.00,87.99
516.00,87.99
515.00,87.99
514.00,87.99
513.00,87.99
512.00,87.99
511.00,87.99
510.00,87.98
509.00,87.99
508.00,87.99
507.00,87.99
506.00,87.99
505.00,87.99
504.00,87.97
503.00,87.96
502.00,87.96
501.00,87.98
500.00,88.00
