Created as New Dataset,Sample 355 By Analyst Date Thursday, February 06 2025
cm-1,%T
4000.00,127.69
3999.00,127.69
3998.00,127.69
3997.00,127.69
3996.00,127.70
3995.00,127.70
3994.00,127.70
3993.00,127.70
3992.00,127.70
3991.00,127.70
3990.00,127.70
3989.00,127.70
3988.00,127.70
3987.00,127.70
3986.00,127.70
3985.00,127.70
3984.00,127.70
3983.00,127.69
3982.00,127.69
3981.00,127.69
3980.00,127.69
3979.00,127.69
3978.00,127.69
3977.00,127.69
3976.00,127.68
3975.00,127.68
3974.00,127.68
3973.00,127.68
3972.00,127.67
3971.00,127.67
3970.00,127.67
3969.00,127.66
3968.00,127.66
3967.00,127.66
3966.00,127.65
3965.00,127.65
3964.00,127.64
3963.00,127.64
3962.00,127.64
3961.00,127.64
3960.00,127.63
3959.00,127.63
3958.00,127.63
3957.00,127.63
3956.00,127.63
3955.00,127.63
3954.00,127.62
3953.00,127.62
3952.00,127.62
3951.00,127.62
3950.00,127.62
3949.00,127.62
3948.00,127.63
3947.00,127.63
3946.00,127.62
3945.00,127.61
3944.00,127.61
3943.00,127.61
3942.00,127.62
3941.00,127.63
3940.00,127.62
3939.00,127.62
3938.00,127.62
3937.00,127.62
3936.00,127.62
3935.00,127.61
3934.00,127.61
3933.00,127.60
3932.00,127.61
3931.00,127.61
3930.00,127.61
3929.00,127.61
3928.00,127.61
3927.00,127.60
3926.00,127.60
3925.00,127.60
3924.00,127.61
3923.00,127.61
3922.00,127.61
3921.00,127.61
3920.00,127.60
3919.00,127.60
3918.00,127.60
3917.00,127.60
3916.00,127.60
3915.00,127.60
3914.00,127.59
3913.00,127.59
3912.00,127.60
3911.00,127.60
3910.00,127.61
3909.00,127.62
3908.00,127.62
3907.00,127.63
3906.00,127.64
3905.00,127.64
3904.00,127.66
3903.00,127.66
3902.00,127.65
3901.00,127.64
3900.00,127.64
3899.00,127.65
3898.00,127.66
3897.00,127.66
3896.00,127.65
3895.00,127.65
3894.00,127.64
3893.00,127.64
3892.00,127.64
3891.00,127.66
3890.00,127.69
3889.00,127.68
3888.00,127.66
3887.00,127.64
3886.00,127.65
3885.00,127.67
3884.00,127.67
3883.00,127.64
3882.00,127.62
3881.00,127.63
3880.00,127.66
3879.00,127.68
3878.00,127.66
3877.00,127.64
3876.00,127.63
3875.00,127.64
3874.00,127.67
3873.00,127.68
3872.00,127.66
3871.00,127.64
3870.00,127.65
3869.00,127.68
3868.00,127.67
3867.00,127.64
3866.00,127.62
3865.00,127.63
3864.00,127.63
3863.00,127.63
3862.00,127.62
3861.00,127.61
3860.00,127.62
3859.00,127.64
3858.00,127.68
3857.00,127.72
3856.00,127.74
3855.00,127.72
3854.00,127.69
3853.00,127.70
3852.00,127.71
3851.00,127.67
3850.00,127.62
3849.00,127.59
3848.00,127.59
3847.00,127.58
3846.00,127.57
3845.00,127.56
3844.00,127.56
3843.00,127.58
3842.00,127.59
3841.00,127.60
3840.00,127.60
3839.00,127.61
3838.00,127.61
3837.00,127.61
3836.00,127.60
3835.00,127.58
3834.00,127.57
3833.00,127.56
3832.00,127.57
3831.00,127.58
3830.00,127.57
3829.00,127.55
3828.00,127.54
3827.00,127.56
3826.00,127.59
3825.00,127.60
3824.00,127.59
3823.00,127.57
3822.00,127.57
3821.00,127.61
3820.00,127.65
3819.00,127.64
3818.00,127.61
3817.00,127.61
3816.00,127.63
3815.00,127.64
3814.00,127.62
3813.00,127.60
3812.00,127.59
3811.00,127.62
3810.00,127.62
3809.00,127.61
3808.00,127.60
3807.00,127.61
3806.00,127.64
3805.00,127.64
3804.00,127.62
3803.00,127.60
3802.00,127.61
3801.00,127.63
3800.00,127.63
3799.00,127.59
3798.00,127.56
3797.00,127.56
3796.00,127.58
3795.00,127.58
3794.00,127.57
3793.00,127.55
3792.00,127.55
3791.00,127.55
3790.00,127.55
3789.00,127.54
3788.00,127.54
3787.00,127.54
3786.00,127.54
3785.00,127.55
3784.00,127.56
3783.00,127.56
3782.00,127.55
3781.00,127.53
3780.00,127.54
3779.00,127.55
3778.00,127.56
3777.00,127.55
3776.00,127.55
3775.00,127.56
3774.00,127.57
3773.00,127.56
3772.00,127.55
3771.00,127.55
3770.00,127.56
3769.00,127.57
3768.00,127.56
3767.00,127.54
3766.00,127.54
3765.00,127.56
3764.00,127.57
3763.00,127.56
3762.00,127.54
3761.00,127.53
3760.00,127.53
3759.00,127.54
3758.00,127.54
3757.00,127.55
3756.00,127.57
3755.00,127.59
3754.00,127.62
3753.00,127.63
3752.00,127.62
3751.00,127.61
3750.00,127.61
3749.00,127.63
3748.00,127.63
3747.00,127.61
3746.00,127.58
3745.00,127.57
3744.00,127.59
3743.00,127.59
3742.00,127.54
3741.00,127.50
3740.00,127.50
3739.00,127.52
3738.00,127.51
3737.00,127.49
3736.00,127.49
3735.00,127.50
3734.00,127.50
3733.00,127.51
3732.00,127.52
3731.00,127.53
3730.00,127.52
3729.00,127.50
3728.00,127.48
3727.00,127.49
3726.00,127.50
3725.00,127.50
3724.00,127.49
3723.00,127.49
3722.00,127.50
3721.00,127.51
3720.00,127.52
3719.00,127.52
3718.00,127.53
3717.00,127.55
3716.00,127.56
3715.00,127.57
3714.00,127.56
3713.00,127.56
3712.00,127.54
3711.00,127.54
3710.00,127.54
3709.00,127.54
3708.00,127.54
3707.00,127.54
3706.00,127.54
3705.00,127.53
3704.00,127.52
3703.00,127.51
3702.00,127.52
3701.00,127.52
3700.00,127.53
3699.00,127.52
3698.00,127.51
3697.00,127.52
3696.00,127.53
3695.00,127.54
3694.00,127.54
3693.00,127.55
3692.00,127.57
3691.00,127.57
3690.00,127.57
3689.00,127.57
3688.00,127.57
3687.00,127.57
3686.00,127.55
3685.00,127.54
3684.00,127.54
3683.00,127.54
3682.00,127.54
3681.00,127.55
3680.00,127.57
3679.00,127.60
3678.00,127.61
3677.00,127.59
3676.00,127.58
3675.00,127.62
3674.00,127.64
3673.00,127.62
3672.00,127.59
3671.00,127.58
3670.00,127.59
3669.00,127.59
3668.00,127.58
3667.00,127.55
3666.00,127.54
3665.00,127.53
3664.00,127.53
3663.00,127.52
3662.00,127.52
3661.00,127.53
3660.00,127.53
3659.00,127.53
3658.00,127.52
3657.00,127.52
3656.00,127.54
3655.00,127.55
3654.00,127.54
3653.00,127.54
3652.00,127.55
3651.00,127.55
3650.00,127.54
3649.00,127.52
3648.00,127.52
3647.00,127.52
3646.00,127.52
3645.00,127.51
3644.00,127.49
3643.00,127.48
3642.00,127.47
3641.00,127.47
3640.00,127.47
3639.00,127.47
3638.00,127.47
3637.00,127.48
3636.00,127.48
3635.00,127.49
3634.00,127.51
3633.00,127.54
3632.00,127.56
3631.00,127.55
3630.00,127.54
3629.00,127.54
3628.00,127.56
3627.00,127.56
3626.00,127.55
3625.00,127.54
3624.00,127.56
3623.00,127.57
3622.00,127.56
3621.00,127.56
3620.00,127.56
3619.00,127.57
3618.00,127.58
3617.00,127.58
3616.00,127.57
3615.00,127.57
3614.00,127.58
3613.00,127.59
3612.00,127.59
3611.00,127.58
3610.00,127.56
3609.00,127.55
3608.00,127.55
3607.00,127.55
3606.00,127.55
3605.00,127.54
3604.00,127.54
3603.00,127.53
3602.00,127.53
3601.00,127.53
3600.00,127.53
3599.00,127.53
3598.00,127.52
3597.00,127.52
3596.00,127.52
3595.00,127.52
3594.00,127.52
3593.00,127.53
3592.00,127.53
3591.00,127.53
3590.00,127.53
3589.00,127.52
3588.00,127.51
3587.00,127.51
3586.00,127.51
3585.00,127.50
3584.00,127.50
3583.00,127.49
3582.00,127.49
3581.00,127.49
3580.00,127.49
3579.00,127.49
3578.00,127.49
3577.00,127.49
3576.00,127.49
3575.00,127.49
3574.00,127.50
3573.00,127.51
3572.00,127.51
3571.00,127.52
3570.00,127.51
3569.00,127.51
3568.00,127.50
3567.00,127.51
3566.00,127.52
3565.00,127.52
3564.00,127.52
3563.00,127.51
3562.00,127.51
3561.00,127.51
3560.00,127.51
3559.00,127.51
3558.00,127.51
3557.00,127.51
3556.00,127.52
3555.00,127.51
3554.00,127.51
3553.00,127.51
3552.00,127.51
3551.00,127.52
3550.00,127.52
3549.00,127.52
3548.00,127.52
3547.00,127.51
3546.00,127.51
3545.00,127.51
3544.00,127.51
3543.00,127.51
3542.00,127.52
3541.00,127.52
3540.00,127.53
3539.00,127.53
3538.00,127.53
3537.00,127.53
3536.00,127.53
3535.00,127.53
3534.00,127.53
3533.00,127.54
3532.00,127.54
3531.00,127.54
3530.00,127.54
3529.00,127.54
3528.00,127.54
3527.00,127.54
3526.00,127.54
3525.00,127.53
3524.00,127.53
3523.00,127.53
3522.00,127.54
3521.00,127.54
3520.00,127.54
3519.00,127.54
3518.00,127.54
3517.00,127.54
3516.00,127.54
3515.00,127.54
3514.00,127.53
3513.00,127.53
3512.00,127.53
3511.00,127.53
3510.00,127.53
3509.00,127.53
3508.00,127.54
3507.00,127.53
3506.00,127.53
3505.00,127.53
3504.00,127.52
3503.00,127.52
3502.00,127.52
3501.00,127.52
3500.00,127.52
3499.00,127.52
3498.00,127.51
3497.00,127.51
3496.00,127.51
3495.00,127.51
3494.00,127.51
3493.00,127.51
3492.00,127.51
3491.00,127.51
3490.00,127.50
3489.00,127.50
3488.00,127.50
3487.00,127.49
3486.00,127.49
3485.00,127.49
3484.00,127.49
3483.00,127.49
3482.00,127.49
3481.00,127.49
3480.00,127.48
3479.00,127.48
3478.00,127.48
3477.00,127.48
3476.00,127.48
3475.00,127.48
3474.00,127.48
3473.00,127.48
3472.00,127.48
3471.00,127.48
3470.00,127.47
3469.00,127.47
3468.00,127.47
3467.00,127.47
3466.00,127.48
3465.00,127.48
3464.00,127.49
3463.00,127.49
3462.00,127.50
3461.00,127.50
3460.00,127.50
3459.00,127.51
3458.00,127.51
3457.00,127.52
3456.00,127.52
3455.00,127.53
3454.00,127.53
3453.00,127.54
3452.00,127.54
3451.00,127.54
3450.00,127.55
3449.00,127.55
3448.00,127.55
3447.00,127.56
3446.00,127.56
3445.00,127.57
3444.00,127.57
3443.00,127.57
3442.00,127.57
3441.00,127.57
3440.00,127.57
3439.00,127.57
3438.00,127.56
3437.00,127.56
3436.00,127.56
3435.00,127.55
3434.00,127.55
3433.00,127.55
3432.00,127.56
3431.00,127.56
3430.00,127.55
3429.00,127.55
3428.00,127.55
3427.00,127.55
3426.00,127.55
3425.00,127.55
3424.00,127.55
3423.00,127.55
3422.00,127.55
3421.00,127.55
3420.00,127.55
3419.00,127.55
3418.00,127.54
3417.00,127.54
3416.00,127.54
3415.00,127.53
3414.00,127.53
3413.00,127.53
3412.00,127.53
3411.00,127.53
3410.00,127.53
3409.00,127.53
3408.00,127.53
3407.00,127.53
3406.00,127.52
3405.00,127.52
3404.00,127.52
3403.00,127.51
3402.00,127.50
3401.00,127.50
3400.00,127.49
3399.00,127.50
3398.00,127.50
3397.00,127.50
3396.00,127.50
3395.00,127.50
3394.00,127.49
3393.00,127.49
3392.00,127.49
3391.00,127.48
3390.00,127.48
3389.00,127.48
3388.00,127.48
3387.00,127.48
3386.00,127.48
3385.00,127.48
3384.00,127.48
3383.00,127.47
3382.00,127.47
3381.00,127.46
3380.00,127.46
3379.00,127.46
3378.00,127.46
3377.00,127.45
3376.00,127.45
3375.00,127.45
3374.00,127.45
3373.00,127.44
3372.00,127.44
3371.00,127.43
3370.00,127.43
3369.00,127.43
3368.00,127.43
3367.00,127.43
3366.00,127.43
3365.00,127.44
3364.00,127.45
3363.00,127.45
3362.00,127.46
3361.00,127.46
3360.00,127.46
3359.00,127.47
3358.00,127.47
3357.00,127.48
3356.00,127.48
3355.00,127.49
3354.00,127.49
3353.00,127.49
3352.00,127.49
3351.00,127.49
3350.00,127.50
3349.00,127.50
3348.00,127.50
3347.00,127.51
3346.00,127.51
3345.00,127.51
3344.00,127.51
3343.00,127.51
3342.00,127.51
3341.00,127.50
3340.00,127.50
3339.00,127.50
3338.00,127.50
3337.00,127.50
3336.00,127.50
3335.00,127.50
3334.00,127.50
3333.00,127.50
3332.00,127.50
3331.00,127.49
3330.00,127.49
3329.00,127.49
3328.00,127.49
3327.00,127.48
3326.00,127.48
3325.00,127.48
3324.00,127.48
3323.00,127.48
3322.00,127.48
3321.00,127.48
3320.00,127.48
3319.00,127.48
3318.00,127.48
3317.00,127.48
3316.00,127.48
3315.00,127.48
3314.00,127.48
3313.00,127.48
3312.00,127.48
3311.00,127.48
3310.00,127.48
3309.00,127.48
3308.00,127.48
3307.00,127.48
3306.00,127.48
3305.00,127.48
3304.00,127.49
3303.00,127.49
3302.00,127.50
3301.00,127.50
3300.00,127.50
3299.00,127.50
3298.00,127.50
3297.00,127.49
3296.00,127.49
3295.00,127.49
3294.00,127.48
3293.00,127.48
3292.00,127.47
3291.00,127.47
3290.00,127.47
3289.00,127.47
3288.00,127.47
3287.00,127.47
3286.00,127.47
3285.00,127.46
3284.00,127.46
3283.00,127.46
3282.00,127.45
3281.00,127.45
3280.00,127.45
3279.00,127.45
3278.00,127.44
3277.00,127.44
3276.00,127.44
3275.00,127.43
3274.00,127.43
3273.00,127.43
3272.00,127.43
3271.00,127.42
3270.00,127.43
3269.00,127.43
3268.00,127.44
3267.00,127.44
3266.00,127.45
3265.00,127.45
3264.00,127.45
3263.00,127.45
3262.00,127.46
3261.00,127.46
3260.00,127.46
3259.00,127.46
3258.00,127.46
3257.00,127.46
3256.00,127.46
3255.00,127.46
3254.00,127.47
3253.00,127.47
3252.00,127.47
3251.00,127.47
3250.00,127.47
3249.00,127.47
3248.00,127.46
3247.00,127.46
3246.00,127.46
3245.00,127.46
3244.00,127.47
3243.00,127.47
3242.00,127.47
3241.00,127.47
3240.00,127.47
3239.00,127.47
3238.00,127.47
3237.00,127.46
3236.00,127.46
3235.00,127.46
3234.00,127.45
3233.00,127.45
3232.00,127.45
3231.00,127.45
3230.00,127.46
3229.00,127.46
3228.00,127.46
3227.00,127.46
3226.00,127.46
3225.00,127.45
3224.00,127.45
3223.00,127.45
3222.00,127.45
3221.00,127.45
3220.00,127.45
3219.00,127.44
3218.00,127.44
3217.00,127.44
3216.00,127.44
3215.00,127.44
3214.00,127.44
3213.00,127.44
3212.00,127.44
3211.00,127.44
3210.00,127.44
3209.00,127.44
3208.00,127.44
3207.00,127.44
3206.00,127.44
3205.00,127.44
3204.00,127.44
3203.00,127.44
3202.00,127.44
3201.00,127.44
3200.00,127.44
3199.00,127.45
3198.00,127.44
3197.00,127.44
3196.00,127.44
3195.00,127.45
3194.00,127.45
3193.00,127.45
3192.00,127.45
3191.00,127.45
3190.00,127.45
3189.00,127.45
3188.00,127.45
3187.00,127.45
3186.00,127.45
3185.00,127.45
3184.00,127.45
3183.00,127.46
3182.00,127.46
3181.00,127.46
3180.00,127.47
3179.00,127.47
3178.00,127.47
3177.00,127.47
3176.00,127.47
3175.00,127.48
3174.00,127.48
3173.00,127.48
3172.00,127.48
3171.00,127.48
3170.00,127.48
3169.00,127.48
3168.00,127.48
3167.00,127.48
3166.00,127.48
3165.00,127.48
3164.00,127.48
3163.00,127.48
3162.00,127.48
3161.00,127.48
3160.00,127.48
3159.00,127.47
3158.00,127.47
3157.00,127.47
3156.00,127.47
3155.00,127.46
3154.00,127.46
3153.00,127.46
3152.00,127.45
3151.00,127.45
3150.00,127.46
3149.00,127.46
3148.00,127.46
3147.00,127.46
3146.00,127.46
3145.00,127.46
3144.00,127.46
3143.00,127.46
3142.00,127.46
3141.00,127.46
3140.00,127.45
3139.00,127.45
3138.00,127.45
3137.00,127.46
3136.00,127.46
3135.00,127.46
3134.00,127.46
3133.00,127.46
3132.00,127.46
3131.00,127.46
3130.00,127.46
3129.00,127.46
3128.00,127.46
3127.00,127.46
3126.00,127.46
3125.00,127.46
3124.00,127.46
3123.00,127.45
3122.00,127.45
3121.00,127.44
3120.00,127.44
3119.00,127.44
3118.00,127.43
3117.00,127.43
3116.00,127.43
3115.00,127.44
3114.00,127.44
3113.00,127.44
3112.00,127.44
3111.00,127.44
3110.00,127.44
3109.00,127.44
3108.00,127.44
3107.00,127.44
3106.00,127.44
3105.00,127.45
3104.00,127.45
3103.00,127.45
3102.00,127.44
3101.00,127.44
3100.00,127.44
3099.00,127.44
3098.00,127.45
3097.00,127.45
3096.00,127.45
3095.00,127.45
3094.00,127.45
3093.00,127.45
3092.00,127.46
3091.00,127.46
3090.00,127.46
3089.00,127.46
3088.00,127.47
3087.00,127.47
3086.00,127.48
3085.00,127.48
3084.00,127.48
3083.00,127.49
3082.00,127.49
3081.00,127.50
3080.00,127.50
3079.00,127.50
3078.00,127.51
3077.00,127.51
3076.00,127.52
3075.00,127.52
3074.00,127.52
3073.00,127.53
3072.00,127.52
3071.00,127.52
3070.00,127.52
3069.00,127.51
3068.00,127.51
3067.00,127.51
3066.00,127.50
3065.00,127.51
3064.00,127.51
3063.00,127.50
3062.00,127.50
3061.00,127.50
3060.00,127.50
3059.00,127.49
3058.00,127.49
3057.00,127.49
3056.00,127.48
3055.00,127.48
3054.00,127.48
3053.00,127.48
3052.00,127.48
3051.00,127.47
3050.00,127.47
3049.00,127.47
3048.00,127.47
3047.00,127.47
3046.00,127.46
3045.00,127.46
3044.00,127.46
3043.00,127.46
3042.00,127.46
3041.00,127.46
3040.00,127.47
3039.00,127.47
3038.00,127.47
3037.00,127.47
3036.00,127.47
3035.00,127.47
3034.00,127.47
3033.00,127.47
3032.00,127.47
3031.00,127.47
3030.00,127.47
3029.00,127.47
3028.00,127.47
3027.00,127.47
3026.00,127.47
3025.00,127.47
3024.00,127.47
3023.00,127.47
3022.00,127.47
3021.00,127.47
3020.00,127.47
3019.00,127.47
3018.00,127.46
3017.00,127.45
3016.00,127.45
3015.00,127.44
3014.00,127.44
3013.00,127.43
3012.00,127.43
3011.00,127.43
3010.00,127.44
3009.00,127.44
3008.00,127.44
3007.00,127.44
3006.00,127.44
3005.00,127.44
3004.00,127.44
3003.00,127.44
3002.00,127.44
3001.00,127.44
3000.00,127.44
2999.00,127.44
2998.00,127.44
2997.00,127.44
2996.00,127.44
2995.00,127.44
2994.00,127.44
2993.00,127.45
2992.00,127.45
2991.00,127.45
2990.00,127.46
2989.00,127.46
2988.00,127.47
2987.00,127.47
2986.00,127.47
2985.00,127.47
2984.00,127.47
2983.00,127.47
2982.00,127.47
2981.00,127.47
2980.00,127.47
2979.00,127.47
2978.00,127.48
2977.00,127.48
2976.00,127.48
2975.00,127.48
2974.00,127.48
2973.00,127.48
2972.00,127.48
2971.00,127.49
2970.00,127.49
2969.00,127.49
2968.00,127.48
2967.00,127.48
2966.00,127.48
2965.00,127.48
2964.00,127.47
2963.00,127.47
2962.00,127.47
2961.00,127.47
2960.00,127.47
2959.00,127.46
2958.00,127.46
2957.00,127.46
2956.00,127.46
2955.00,127.46
2954.00,127.45
2953.00,127.45
2952.00,127.45
2951.00,127.45
2950.00,127.45
2949.00,127.45
2948.00,127.45
2947.00,127.44
2946.00,127.45
2945.00,127.45
2944.00,127.45
2943.00,127.45
2942.00,127.45
2941.00,127.46
2940.00,127.46
2939.00,127.46
2938.00,127.47
2937.00,127.47
2936.00,127.47
2935.00,127.47
2934.00,127.47
2933.00,127.47
2932.00,127.47
2931.00,127.47
2930.00,127.47
2929.00,127.47
2928.00,127.47
2927.00,127.47
2926.00,127.47
2925.00,127.47
2924.00,127.47
2923.00,127.46
2922.00,127.46
2921.00,127.46
2920.00,127.46
2919.00,127.45
2918.00,127.45
2917.00,127.45
2916.00,127.44
2915.00,127.44
2914.00,127.44
2913.00,127.44
2912.00,127.44
2911.00,127.44
2910.00,127.45
2909.00,127.45
2908.00,127.45
2907.00,127.45
2906.00,127.45
2905.00,127.46
2904.00,127.46
2903.00,127.46
2902.00,127.46
2901.00,127.47
2900.00,127.47
2899.00,127.47
2898.00,127.47
2897.00,127.47
2896.00,127.47
2895.00,127.47
2894.00,127.47
2893.00,127.47
2892.00,127.47
2891.00,127.47
2890.00,127.47
2889.00,127.47
2888.00,127.47
2887.00,127.47
2886.00,127.47
2885.00,127.47
2884.00,127.47
2883.00,127.47
2882.00,127.47
2881.00,127.47
2880.00,127.46
2879.00,127.46
2878.00,127.46
2877.00,127.46
2876.00,127.46
2875.00,127.46
2874.00,127.46
2873.00,127.46
2872.00,127.46
2871.00,127.46
2870.00,127.46
2869.00,127.47
2868.00,127.47
2867.00,127.47
2866.00,127.47
2865.00,127.47
2864.00,127.47
2863.00,127.47
2862.00,127.47
2861.00,127.47
2860.00,127.47
2859.00,127.47
2858.00,127.47
2857.00,127.47
2856.00,127.47
2855.00,127.46
2854.00,127.46
2853.00,127.46
2852.00,127.46
2851.00,127.45
2850.00,127.45
2849.00,127.44
2848.00,127.43
2847.00,127.43
2846.00,127.42
2845.00,127.42
2844.00,127.42
2843.00,127.42
2842.00,127.42
2841.00,127.42
2840.00,127.41
2839.00,127.41
2838.00,127.41
2837.00,127.41
2836.00,127.41
2835.00,127.41
2834.00,127.41
2833.00,127.41
2832.00,127.41
2831.00,127.41
2830.00,127.41
2829.00,127.41
2828.00,127.41
2827.00,127.41
2826.00,127.41
2825.00,127.41
2824.00,127.41
2823.00,127.41
2822.00,127.41
2821.00,127.41
2820.00,127.41
2819.00,127.41
2818.00,127.42
2817.00,127.42
2816.00,127.43
2815.00,127.43
2814.00,127.43
2813.00,127.44
2812.00,127.44
2811.00,127.44
2810.00,127.45
2809.00,127.45
2808.00,127.45
2807.00,127.46
2806.00,127.46
2805.00,127.46
2804.00,127.46
2803.00,127.46
2802.00,127.46
2801.00,127.46
2800.00,127.46
2799.00,127.46
2798.00,127.46
2797.00,127.45
2796.00,127.45
2795.00,127.45
2794.00,127.45
2793.00,127.44
2792.00,127.44
2791.00,127.44
2790.00,127.43
2789.00,127.43
2788.00,127.43
2787.00,127.43
2786.00,127.43
2785.00,127.42
2784.00,127.42
2783.00,127.42
2782.00,127.42
2781.00,127.42
2780.00,127.41
2779.00,127.41
2778.00,127.41
2777.00,127.41
2776.00,127.40
2775.00,127.40
2774.00,127.40
2773.00,127.40
2772.00,127.40
2771.00,127.40
2770.00,127.40
2769.00,127.40
2768.00,127.40
2767.00,127.40
2766.00,127.40
2765.00,127.40
2764.00,127.40
2763.00,127.40
2762.00,127.40
2761.00,127.40
2760.00,127.40
2759.00,127.40
2758.00,127.40
2757.00,127.40
2756.00,127.40
2755.00,127.40
2754.00,127.40
2753.00,127.40
2752.00,127.40
2751.00,127.40
2750.00,127.39
2749.00,127.39
2748.00,127.39
2747.00,127.39
2746.00,127.39
2745.00,127.39
2744.00,127.39
2743.00,127.39
2742.00,127.39
2741.00,127.39
2740.00,127.39
2739.00,127.39
2738.00,127.39
2737.00,127.39
2736.00,127.39
2735.00,127.39
2734.00,127.39
2733.00,127.39
2732.00,127.38
2731.00,127.38
2730.00,127.38
2729.00,127.38
2728.00,127.38
2727.00,127.39
2726.00,127.39
2725.00,127.39
2724.00,127.39
2723.00,127.39
2722.00,127.40
2721.00,127.40
2720.00,127.40
2719.00,127.41
2718.00,127.41
2717.00,127.41
2716.00,127.41
2715.00,127.41
2714.00,127.41
2713.00,127.41
2712.00,127.41
2711.00,127.41
2710.00,127.41
2709.00,127.41
2708.00,127.41
2707.00,127.41
2706.00,127.41
2705.00,127.41
2704.00,127.40
2703.00,127.40
2702.00,127.40
2701.00,127.40
2700.00,127.40
2699.00,127.39
2698.00,127.39
2697.00,127.39
2696.00,127.39
2695.00,127.38
2694.00,127.38
2693.00,127.38
2692.00,127.38
2691.00,127.38
2690.00,127.37
2689.00,127.37
2688.00,127.37
2687.00,127.37
2686.00,127.36
2685.00,127.36
2684.00,127.36
2683.00,127.36
2682.00,127.36
2681.00,127.36
2680.00,127.36
2679.00,127.36
2678.00,127.36
2677.00,127.35
2676.00,127.35
2675.00,127.35
2674.00,127.35
2673.00,127.35
2672.00,127.35
2671.00,127.35
2670.00,127.35
2669.00,127.35
2668.00,127.35
2667.00,127.35
2666.00,127.35
2665.00,127.34
2664.00,127.34
2663.00,127.34
2662.00,127.34
2661.00,127.34
2660.00,127.34
2659.00,127.34
2658.00,127.34
2657.00,127.34
2656.00,127.34
2655.00,127.34
2654.00,127.33
2653.00,127.33
2652.00,127.33
2651.00,127.33
2650.00,127.33
2649.00,127.33
2648.00,127.33
2647.00,127.33
2646.00,127.33
2645.00,127.33
2644.00,127.33
2643.00,127.33
2642.00,127.33
2641.00,127.33
2640.00,127.33
2639.00,127.33
2638.00,127.33
2637.00,127.33
2636.00,127.33
2635.00,127.34
2634.00,127.34
2633.00,127.34
2632.00,127.34
2631.00,127.35
2630.00,127.35
2629.00,127.36
2628.00,127.36
2627.00,127.36
2626.00,127.36
2625.00,127.36
2624.00,127.36
2623.00,127.36
2622.00,127.36
2621.00,127.36
2620.00,127.36
2619.00,127.36
2618.00,127.36
2617.00,127.36
2616.00,127.36
2615.00,127.35
2614.00,127.35
2613.00,127.35
2612.00,127.35
2611.00,127.35
2610.00,127.35
2609.00,127.35
2608.00,127.34
2607.00,127.34
2606.00,127.34
2605.00,127.34
2604.00,127.34
2603.00,127.34
2602.00,127.33
2601.00,127.33
2600.00,127.33
2599.00,127.33
2598.00,127.33
2597.00,127.33
2596.00,127.33
2595.00,127.33
2594.00,127.32
2593.00,127.32
2592.00,127.32
2591.00,127.32
2590.00,127.32
2589.00,127.32
2588.00,127.32
2587.00,127.32
2586.00,127.31
2585.00,127.31
2584.00,127.31
2583.00,127.31
2582.00,127.31
2581.00,127.31
2580.00,127.31
2579.00,127.31
2578.00,127.31
2577.00,127.31
2576.00,127.30
2575.00,127.30
2574.00,127.30
2573.00,127.30
2572.00,127.30
2571.00,127.29
2570.00,127.29
2569.00,127.29
2568.00,127.29
2567.00,127.29
2566.00,127.29
2565.00,127.29
2564.00,127.29
2563.00,127.29
2562.00,127.28
2561.00,127.28
2560.00,127.28
2559.00,127.28
2558.00,127.28
2557.00,127.28
2556.00,127.28
2555.00,127.28
2554.00,127.28
2553.00,127.28
2552.00,127.28
2551.00,127.28
2550.00,127.29
2549.00,127.29
2548.00,127.29
2547.00,127.29
2546.00,127.29
2545.00,127.29
2544.00,127.30
2543.00,127.30
2542.00,127.30
2541.00,127.31
2540.00,127.31
2539.00,127.31
2538.00,127.31
2537.00,127.31
2536.00,127.31
2535.00,127.32
2534.00,127.32
2533.00,127.32
2532.00,127.32
2531.00,127.32
2530.00,127.31
2529.00,127.31
2528.00,127.31
2527.00,127.31
2526.00,127.31
2525.00,127.30
2524.00,127.30
2523.00,127.30
2522.00,127.29
2521.00,127.29
2520.00,127.29
2519.00,127.28
2518.00,127.28
2517.00,127.28
2516.00,127.27
2515.00,127.27
2514.00,127.26
2513.00,127.26
2512.00,127.26
2511.00,127.25
2510.00,127.25
2509.00,127.25
2508.00,127.25
2507.00,127.24
2506.00,127.24
2505.00,127.23
2504.00,127.23
2503.00,127.23
2502.00,127.23
2501.00,127.22
2500.00,127.22
2499.00,127.22
2498.00,127.22
2497.00,127.22
2496.00,127.22
2495.00,127.22
2494.00,127.21
2493.00,127.21
2492.00,127.21
2491.00,127.21
2490.00,127.21
2489.00,127.21
2488.00,127.21
2487.00,127.21
2486.00,127.21
2485.00,127.21
2484.00,127.21
2483.00,127.21
2482.00,127.21
2481.00,127.21
2480.00,127.21
2479.00,127.20
2478.00,127.20
2477.00,127.20
2476.00,127.20
2475.00,127.20
2474.00,127.20
2473.00,127.20
2472.00,127.20
2471.00,127.20
2470.00,127.19
2469.00,127.19
2468.00,127.19
2467.00,127.19
2466.00,127.19
2465.00,127.19
2464.00,127.19
2463.00,127.19
2462.00,127.19
2461.00,127.19
2460.00,127.19
2459.00,127.19
2458.00,127.20
2457.00,127.20
2456.00,127.20
2455.00,127.21
2454.00,127.21
2453.00,127.21
2452.00,127.22
2451.00,127.22
2450.00,127.22
2449.00,127.23
2448.00,127.23
2447.00,127.23
2446.00,127.24
2445.00,127.24
2444.00,127.24
2443.00,127.24
2442.00,127.24
2441.00,127.24
2440.00,127.24
2439.00,127.24
2438.00,127.24
2437.00,127.24
2436.00,127.24
2435.00,127.24
2434.00,127.24
2433.00,127.24
2432.00,127.24
2431.00,127.24
2430.00,127.24
2429.00,127.24
2428.00,127.24
2427.00,127.24
2426.00,127.24
2425.00,127.24
2424.00,127.24
2423.00,127.24
2422.00,127.24
2421.00,127.23
2420.00,127.23
2419.00,127.23
2418.00,127.23
2417.00,127.23
2416.00,127.23
2415.00,127.23
2414.00,127.23
2413.00,127.22
2412.00,127.22
2411.00,127.22
2410.00,127.22
2409.00,127.22
2408.00,127.21
2407.00,127.21
2406.00,127.21
2405.00,127.21
2404.00,127.20
2403.00,127.20
2402.00,127.20
2401.00,127.20
2400.00,127.20
2399.00,127.19
2398.00,127.19
2397.00,127.19
2396.00,127.19
2395.00,127.19
2394.00,127.19
2393.00,127.19
2392.00,127.18
2391.00,127.18
2390.00,127.18
2389.00,127.18
2388.00,127.18
2387.00,127.18
2386.00,127.17
2385.00,127.17
2384.00,127.16
2383.00,127.16
2382.00,127.16
2381.00,127.16
2380.00,127.16
2379.00,127.16
2378.00,127.17
2377.00,127.17
2376.00,127.18
2375.00,127.19
2374.00,127.19
2373.00,127.19
2372.00,127.18
2371.00,127.17
2370.00,127.16
2369.00,127.15
2368.00,127.15
2367.00,127.14
2366.00,127.15
2365.00,127.15
2364.00,127.16
2363.00,127.17
2362.00,127.16
2361.00,127.15
2360.00,127.14
2359.00,127.14
2358.00,127.15
2357.00,127.15
2356.00,127.14
2355.00,127.14
2354.00,127.12
2353.00,127.11
2352.00,127.12
2351.00,127.15
2350.00,127.17
2349.00,127.17
2348.00,127.15
2347.00,127.12
2346.00,127.11
2345.00,127.12
2344.00,127.14
2343.00,127.15
2342.00,127.15
2341.00,127.15
2340.00,127.15
2339.00,127.14
2338.00,127.14
2337.00,127.14
2336.00,127.13
2335.00,127.13
2334.00,127.12
2333.00,127.12
2332.00,127.12
2331.00,127.12
2330.00,127.11
2329.00,127.12
2328.00,127.13
2327.00,127.12
2326.00,127.11
2325.00,127.09
2324.00,127.08
2323.00,127.08
2322.00,127.09
2321.00,127.11
2320.00,127.12
2319.00,127.11
2318.00,127.10
2317.00,127.09
2316.00,127.08
2315.00,127.08
2314.00,127.08
2313.00,127.09
2312.00,127.09
2311.00,127.10
2310.00,127.11
2309.00,127.12
2308.00,127.13
2307.00,127.13
2306.00,127.13
2305.00,127.13
2304.00,127.13
2303.00,127.13
2302.00,127.12
2301.00,127.12
2300.00,127.12
2299.00,127.12
2298.00,127.12
2297.00,127.12
2296.00,127.12
2295.00,127.12
2294.00,127.12
2293.00,127.11
2292.00,127.11
2291.00,127.11
2290.00,127.11
2289.00,127.11
2288.00,127.12
2287.00,127.12
2286.00,127.12
2285.00,127.12
2284.00,127.12
2283.00,127.12
2282.00,127.12
2281.00,127.12
2280.00,127.13
2279.00,127.13
2278.00,127.13
2277.00,127.14
2276.00,127.14
2275.00,127.14
2274.00,127.15
2273.00,127.15
2272.00,127.16
2271.00,127.16
2270.00,127.16
2269.00,127.17
2268.00,127.17
2267.00,127.17
2266.00,127.17
2265.00,127.17
2264.00,127.17
2263.00,127.17
2262.00,127.17
2261.00,127.17
2260.00,127.17
2259.00,127.16
2258.00,127.16
2257.00,127.16
2256.00,127.15
2255.00,127.15
2254.00,127.15
2253.00,127.15
2252.00,127.14
2251.00,127.14
2250.00,127.14
2249.00,127.13
2248.00,127.13
2247.00,127.13
2246.00,127.12
2245.00,127.12
2244.00,127.12
2243.00,127.11
2242.00,127.11
2241.00,127.11
2240.00,127.10
2239.00,127.10
2238.00,127.09
2237.00,127.09
2236.00,127.09
2235.00,127.09
2234.00,127.08
2233.00,127.08
2232.00,127.08
2231.00,127.07
2230.00,127.07
2229.00,127.07
2228.00,127.07
2227.00,127.07
2226.00,127.06
2225.00,127.06
2224.00,127.06
2223.00,127.06
2222.00,127.06
2221.00,127.06
2220.00,127.06
2219.00,127.06
2218.00,127.06
2217.00,127.06
2216.00,127.06
2215.00,127.06
2214.00,127.06
2213.00,127.06
2212.00,127.06
2211.00,127.06
2210.00,127.06
2209.00,127.06
2208.00,127.06
2207.00,127.06
2206.00,127.06
2205.00,127.05
2204.00,127.05
2203.00,127.05
2202.00,127.05
2201.00,127.05
2200.00,127.04
2199.00,127.04
2198.00,127.04
2197.00,127.04
2196.00,127.04
2195.00,127.04
2194.00,127.04
2193.00,127.04
2192.00,127.04
2191.00,127.04
2190.00,127.04
2189.00,127.04
2188.00,127.04
2187.00,127.05
2186.00,127.05
2185.00,127.05
2184.00,127.05
2183.00,127.06
2182.00,127.06
2181.00,127.06
2180.00,127.06
2179.00,127.06
2178.00,127.06
2177.00,127.06
2176.00,127.06
2175.00,127.06
2174.00,127.06
2173.00,127.06
2172.00,127.06
2171.00,127.06
2170.00,127.06
2169.00,127.06
2168.00,127.06
2167.00,127.06
2166.00,127.06
2165.00,127.06
2164.00,127.06
2163.00,127.06
2162.00,127.06
2161.00,127.06
2160.00,127.06
2159.00,127.06
2158.00,127.06
2157.00,127.06
2156.00,127.06
2155.00,127.05
2154.00,127.05
2153.00,127.05
2152.00,127.05
2151.00,127.05
2150.00,127.04
2149.00,127.04
2148.00,127.04
2147.00,127.03
2146.00,127.03
2145.00,127.03
2144.00,127.03
2143.00,127.02
2142.00,127.02
2141.00,127.01
2140.00,127.01
2139.00,127.01
2138.00,127.01
2137.00,127.00
2136.00,127.00
2135.00,126.99
2134.00,126.99
2133.00,126.99
2132.00,126.98
2131.00,126.98
2130.00,126.98
2129.00,126.98
2128.00,126.98
2127.00,126.98
2126.00,126.98
2125.00,126.98
2124.00,126.98
2123.00,126.98
2122.00,126.98
2121.00,126.98
2120.00,126.98
2119.00,126.98
2118.00,126.98
2117.00,126.98
2116.00,126.99
2115.00,126.99
2114.00,126.99
2113.00,126.99
2112.00,126.99
2111.00,126.99
2110.00,127.00
2109.00,127.00
2108.00,127.00
2107.00,127.00
2106.00,127.00
2105.00,127.01
2104.00,127.01
2103.00,127.01
2102.00,127.02
2101.00,127.02
2100.00,127.02
2099.00,127.03
2098.00,127.03
2097.00,127.04
2096.00,127.04
2095.00,127.04
2094.00,127.04
2093.00,127.04
2092.00,127.04
2091.00,127.04
2090.00,127.04
2089.00,127.04
2088.00,127.04
2087.00,127.04
2086.00,127.04
2085.00,127.04
2084.00,127.03
2083.00,127.03
2082.00,127.03
2081.00,127.03
2080.00,127.03
2079.00,127.02
2078.00,127.02
2077.00,127.02
2076.00,127.02
2075.00,127.02
2074.00,127.01
2073.00,127.01
2072.00,127.00
2071.00,127.00
2070.00,127.00
2069.00,127.00
2068.00,127.00
2067.00,126.99
2066.00,126.99
2065.00,126.99
2064.00,126.99
2063.00,126.99
2062.00,126.99
2061.00,126.99
2060.00,126.98
2059.00,126.98
2058.00,126.98
2057.00,126.98
2056.00,126.98
2055.00,126.98
2054.00,126.98
2053.00,126.97
2052.00,126.97
2051.00,126.97
2050.00,126.97
2049.00,126.97
2048.00,126.97
2047.00,126.97
2046.00,126.97
2045.00,126.97
2044.00,126.97
2043.00,126.97
2042.00,126.97
2041.00,126.97
2040.00,126.98
2039.00,126.98
2038.00,126.98
2037.00,126.98
2036.00,126.98
2035.00,126.98
2034.00,126.98
2033.00,126.98
2032.00,126.98
2031.00,126.98
2030.00,126.98
2029.00,126.97
2028.00,126.97
2027.00,126.97
2026.00,126.97
2025.00,126.97
2024.00,126.97
2023.00,126.97
2022.00,126.97
2021.00,126.97
2020.00,126.97
2019.00,126.97
2018.00,126.97
2017.00,126.98
2016.00,126.98
2015.00,126.98
2014.00,126.99
2013.00,126.99
2012.00,127.00
2011.00,127.00
2010.00,127.01
2009.00,127.01
2008.00,127.02
2007.00,127.02
2006.00,127.03
2005.00,127.03
2004.00,127.03
2003.00,127.04
2002.00,127.04
2001.00,127.04
2000.00,127.04
1999.00,127.05
1998.00,127.05
1997.00,127.05
1996.00,127.05
1995.00,127.05
1994.00,127.05
1993.00,127.05
1992.00,127.06
1991.00,127.06
1990.00,127.07
1989.00,127.07
1988.00,127.07
1987.00,127.07
1986.00,127.07
1985.00,127.07
1984.00,127.07
1983.00,127.07
1982.00,127.07
1981.00,127.07
1980.00,127.07
1979.00,127.07
1978.00,127.06
1977.00,127.06
1976.00,127.06
1975.00,127.06
1974.00,127.05
1973.00,127.05
1972.00,127.05
1971.00,127.04
1970.00,127.03
1969.00,127.03
1968.00,127.02
1967.00,127.02
1966.00,127.02
1965.00,127.02
1964.00,127.02
1963.00,127.02
1962.00,127.03
1961.00,127.03
1960.00,127.04
1959.00,127.03
1958.00,127.03
1957.00,127.03
1956.00,127.04
1955.00,127.05
1954.00,127.06
1953.00,127.07
1952.00,127.08
1951.00,127.08
1950.00,127.09
1949.00,127.09
1948.00,127.09
1947.00,127.10
1946.00,127.10
1945.00,127.09
1944.00,127.09
1943.00,127.09
1942.00,127.09
1941.00,127.09
1940.00,127.09
1939.00,127.08
1938.00,127.08
1937.00,127.07
1936.00,127.07
1935.00,127.06
1934.00,127.06
1933.00,127.05
1932.00,127.05
1931.00,127.05
1930.00,127.05
1929.00,127.05
1928.00,127.05
1927.00,127.05
1926.00,127.05
1925.00,127.04
1924.00,127.05
1923.00,127.06
1922.00,127.07
1921.00,127.07
1920.00,127.07
1919.00,127.08
1918.00,127.07
1917.00,127.07
1916.00,127.07
1915.00,127.06
1914.00,127.06
1913.00,127.06
1912.00,127.06
1911.00,127.05
1910.00,127.05
1909.00,127.05
1908.00,127.05
1907.00,127.05
1906.00,127.05
1905.00,127.04
1904.00,127.04
1903.00,127.04
1902.00,127.04
1901.00,127.04
1900.00,127.04
1899.00,127.04
1898.00,127.04
1897.00,127.04
1896.00,127.04
1895.00,127.04
1894.00,127.04
1893.00,127.04
1892.00,127.04
1891.00,127.04
1890.00,127.04
1889.00,127.04
1888.00,127.04
1887.00,127.04
1886.00,127.04
1885.00,127.04
1884.00,127.04
1883.00,127.04
1882.00,127.04
1881.00,127.04
1880.00,127.04
1879.00,127.05
1878.00,127.05
1877.00,127.05
1876.00,127.05
1875.00,127.05
1874.00,127.05
1873.00,127.04
1872.00,127.04
1871.00,127.03
1870.00,127.03
1869.00,127.03
1868.00,127.04
1867.00,127.04
1866.00,127.04
1865.00,127.04
1864.00,127.03
1863.00,127.03
1862.00,127.03
1861.00,127.03
1860.00,127.03
1859.00,127.04
1858.00,127.04
1857.00,127.04
1856.00,127.05
1855.00,127.06
1854.00,127.06
1853.00,127.07
1852.00,127.08
1851.00,127.08
1850.00,127.09
1849.00,127.10
1848.00,127.11
1847.00,127.12
1846.00,127.13
1845.00,127.14
1844.00,127.15
1843.00,127.16
1842.00,127.16
1841.00,127.16
1840.00,127.17
1839.00,127.17
1838.00,127.18
1837.00,127.18
1836.00,127.18
1835.00,127.19
1834.00,127.19
1833.00,127.18
1832.00,127.18
1831.00,127.17
1830.00,127.17
1829.00,127.18
1828.00,127.18
1827.00,127.18
1826.00,127.17
1825.00,127.17
1824.00,127.17
1823.00,127.18
1822.00,127.17
1821.00,127.17
1820.00,127.17
1819.00,127.17
1818.00,127.17
1817.00,127.17
1816.00,127.17
1815.00,127.17
1814.00,127.17
1813.00,127.17
1812.00,127.17
1811.00,127.18
1810.00,127.18
1809.00,127.17
1808.00,127.17
1807.00,127.18
1806.00,127.18
1805.00,127.17
1804.00,127.17
1803.00,127.17
1802.00,127.17
1801.00,127.17
1800.00,127.18
1799.00,127.18
1798.00,127.19
1797.00,127.19
1796.00,127.18
1795.00,127.18
1794.00,127.17
1793.00,127.17
1792.00,127.18
1791.00,127.20
1790.00,127.21
1789.00,127.21
1788.00,127.21
1787.00,127.21
1786.00,127.21
1785.00,127.21
1784.00,127.21
1783.00,127.21
1782.00,127.21
1781.00,127.21
1780.00,127.22
1779.00,127.22
1778.00,127.22
1777.00,127.22
1776.00,127.21
1775.00,127.21
1774.00,127.20
1773.00,127.20
1772.00,127.21
1771.00,127.22
1770.00,127.22
1769.00,127.21
1768.00,127.21
1767.00,127.21
1766.00,127.21
1765.00,127.22
1764.00,127.21
1763.00,127.21
1762.00,127.22
1761.00,127.22
1760.00,127.23
1759.00,127.23
1758.00,127.24
1757.00,127.25
1756.00,127.25
1755.00,127.26
1754.00,127.27
1753.00,127.28
1752.00,127.27
1751.00,127.26
1750.00,127.26
1749.00,127.26
1748.00,127.27
1747.00,127.28
1746.00,127.28
1745.00,127.29
1744.00,127.29
1743.00,127.30
1742.00,127.30
1741.00,127.30
1740.00,127.30
1739.00,127.30
1738.00,127.31
1737.00,127.32
1736.00,127.33
1735.00,127.32
1734.00,127.29
1733.00,127.27
1732.00,127.26
1731.00,127.27
1730.00,127.28
1729.00,127.28
1728.00,127.29
1727.00,127.28
1726.00,127.28
1725.00,127.27
1724.00,127.27
1723.00,127.27
1722.00,127.27
1721.00,127.26
1720.00,127.27
1719.00,127.28
1718.00,127.28
1717.00,127.27
1716.00,127.26
1715.00,127.25
1714.00,127.25
1713.00,127.24
1712.00,127.23
1711.00,127.23
1710.00,127.24
1709.00,127.23
1708.00,127.22
1707.00,127.22
1706.00,127.21
1705.00,127.20
1704.00,127.21
1703.00,127.24
1702.00,127.25
1701.00,127.23
1700.00,127.21
1699.00,127.21
1698.00,127.19
1697.00,127.19
1696.00,127.20
1695.00,127.21
1694.00,127.22
1693.00,127.22
1692.00,127.22
1691.00,127.22
1690.00,127.22
1689.00,127.22
1688.00,127.23
1687.00,127.25
1686.00,127.25
1685.00,127.25
1684.00,127.26
1683.00,127.26
1682.00,127.25
1681.00,127.25
1680.00,127.25
1679.00,127.26
1678.00,127.27
1677.00,127.28
1676.00,127.29
1675.00,127.28
1674.00,127.27
1673.00,127.26
1672.00,127.27
1671.00,127.28
1670.00,127.28
1669.00,127.29
1668.00,127.29
1667.00,127.29
1666.00,127.29
1665.00,127.28
1664.00,127.28
1663.00,127.27
1662.00,127.27
1661.00,127.27
1660.00,127.28
1659.00,127.28
1658.00,127.28
1657.00,127.29
1656.00,127.31
1655.00,127.32
1654.00,127.31
1653.00,127.30
1652.00,127.29
1651.00,127.26
1650.00,127.24
1649.00,127.25
1648.00,127.26
1647.00,127.26
1646.00,127.26
1645.00,127.25
1644.00,127.25
1643.00,127.25
1642.00,127.25
1641.00,127.26
1640.00,127.26
1639.00,127.27
1638.00,127.29
1637.00,127.30
1636.00,127.29
1635.00,127.28
1634.00,127.26
1633.00,127.25
1632.00,127.25
1631.00,127.26
1630.00,127.25
1629.00,127.25
1628.00,127.24
1627.00,127.24
1626.00,127.24
1625.00,127.24
1624.00,127.25
1623.00,127.25
1622.00,127.25
1621.00,127.25
1620.00,127.26
1619.00,127.26
1618.00,127.25
1617.00,127.24
1616.00,127.25
1615.00,127.25
1614.00,127.25
1613.00,127.25
1612.00,127.25
1611.00,127.25
1610.00,127.24
1609.00,127.24
1608.00,127.25
1607.00,127.25
1606.00,127.24
1605.00,127.25
1604.00,127.25
1603.00,127.25
1602.00,127.24
1601.00,127.25
1600.00,127.25
1599.00,127.24
1598.00,127.24
1597.00,127.25
1596.00,127.25
1595.00,127.25
1594.00,127.25
1593.00,127.26
1592.00,127.26
1591.00,127.26
1590.00,127.27
1589.00,127.27
1588.00,127.28
1587.00,127.29
1586.00,127.29
1585.00,127.29
1584.00,127.29
1583.00,127.29
1582.00,127.29
1581.00,127.30
1580.00,127.31
1579.00,127.33
1578.00,127.35
1577.00,127.36
1576.00,127.35
1575.00,127.32
1574.00,127.31
1573.00,127.30
1572.00,127.30
1571.00,127.30
1570.00,127.29
1569.00,127.30
1568.00,127.31
1567.00,127.30
1566.00,127.29
1565.00,127.30
1564.00,127.30
1563.00,127.30
1562.00,127.30
1561.00,127.29
1560.00,127.25
1559.00,127.23
1558.00,127.25
1557.00,127.26
1556.00,127.27
1555.00,127.27
1554.00,127.26
1553.00,127.25
1552.00,127.24
1551.00,127.23
1550.00,127.23
1549.00,127.24
1548.00,127.24
1547.00,127.24
1546.00,127.24
1545.00,127.25
1544.00,127.27
1543.00,127.29
1542.00,127.30
1541.00,127.30
1540.00,127.30
1539.00,127.29
1538.00,127.27
1537.00,127.25
1536.00,127.25
1535.00,127.25
1534.00,127.25
1533.00,127.24
1532.00,127.23
1531.00,127.23
1530.00,127.22
1529.00,127.23
1528.00,127.23
1527.00,127.25
1526.00,127.26
1525.00,127.26
1524.00,127.24
1523.00,127.23
1522.00,127.21
1521.00,127.22
1520.00,127.23
1519.00,127.24
1518.00,127.25
1517.00,127.26
1516.00,127.26
1515.00,127.26
1514.00,127.26
1513.00,127.26
1512.00,127.26
1511.00,127.26
1510.00,127.28
1509.00,127.30
1508.00,127.32
1507.00,127.35
1506.00,127.37
1505.00,127.35
1504.00,127.32
1503.00,127.30
1502.00,127.31
1501.00,127.32
1500.00,127.32
1499.00,127.31
1498.00,127.31
1497.00,127.31
1496.00,127.30
1495.00,127.30
1494.00,127.29
1493.00,127.28
1492.00,127.26
1491.00,127.25
1490.00,127.25
1489.00,127.25
1488.00,127.25
1487.00,127.27
1486.00,127.28
1485.00,127.28
1484.00,127.28
1483.00,127.28
1482.00,127.28
1481.00,127.28
1480.00,127.28
1479.00,127.28
1478.00,127.27
1477.00,127.27
1476.00,127.27
1475.00,127.28
1474.00,127.30
1473.00,127.30
1472.00,127.30
1471.00,127.30
1470.00,127.30
1469.00,127.29
1468.00,127.29
1467.00,127.29
1466.00,127.29
1465.00,127.29
1464.00,127.29
1463.00,127.29
1462.00,127.29
1461.00,127.29
1460.00,127.30
1459.00,127.30
1458.00,127.30
1457.00,127.30
1456.00,127.30
1455.00,127.30
1454.00,127.29
1453.00,127.29
1452.00,127.29
1451.00,127.27
1450.00,127.26
1449.00,127.25
1448.00,127.25
1447.00,127.26
1446.00,127.27
1445.00,127.27
1444.00,127.27
1443.00,127.26
1442.00,127.27
1441.00,127.27
1440.00,127.27
1439.00,127.27
1438.00,127.28
1437.00,127.28
1436.00,127.27
1435.00,127.27
1434.00,127.28
1433.00,127.29
1432.00,127.29
1431.00,127.29
1430.00,127.30
1429.00,127.30
1428.00,127.31
1427.00,127.30
1426.00,127.31
1425.00,127.31
1424.00,127.31
1423.00,127.31
1422.00,127.31
1421.00,127.31
1420.00,127.30
1419.00,127.30
1418.00,127.31
1417.00,127.32
1416.00,127.33
1415.00,127.33
1414.00,127.33
1413.00,127.34
1412.00,127.34
1411.00,127.34
1410.00,127.34
1409.00,127.34
1408.00,127.33
1407.00,127.32
1406.00,127.32
1405.00,127.32
1404.00,127.32
1403.00,127.32
1402.00,127.31
1401.00,127.29
1400.00,127.28
1399.00,127.27
1398.00,127.26
1397.00,127.27
1396.00,127.27
1395.00,127.27
1394.00,127.28
1393.00,127.28
1392.00,127.28
1391.00,127.28
1390.00,127.28
1389.00,127.28
1388.00,127.28
1387.00,127.28
1386.00,127.28
1385.00,127.28
1384.00,127.27
1383.00,127.27
1382.00,127.26
1381.00,127.26
1380.00,127.26
1379.00,127.27
1378.00,127.27
1377.00,127.27
1376.00,127.27
1375.00,127.27
1374.00,127.27
1373.00,127.27
1372.00,127.27
1371.00,127.27
1370.00,127.28
1369.00,127.28
1368.00,127.29
1367.00,127.29
1366.00,127.29
1365.00,127.28
1364.00,127.28
1363.00,127.28
1362.00,127.30
1361.00,127.31
1360.00,127.32
1359.00,127.32
1358.00,127.32
1357.00,127.32
1356.00,127.32
1355.00,127.32
1354.00,127.33
1353.00,127.33
1352.00,127.34
1351.00,127.34
1350.00,127.34
1349.00,127.33
1348.00,127.33
1347.00,127.33
1346.00,127.32
1345.00,127.32
1344.00,127.32
1343.00,127.32
1342.00,127.32
1341.00,127.32
1340.00,127.32
1339.00,127.32
1338.00,127.32
1337.00,127.32
1336.00,127.32
1335.00,127.32
1334.00,127.32
1333.00,127.32
1332.00,127.31
1331.00,127.31
1330.00,127.30
1329.00,127.30
1328.00,127.30
1327.00,127.30
1326.00,127.31
1325.00,127.31
1324.00,127.31
1323.00,127.31
1322.00,127.31
1321.00,127.30
1320.00,127.30
1319.00,127.31
1318.00,127.31
1317.00,127.32
1316.00,127.32
1315.00,127.32
1314.00,127.32
1313.00,127.32
1312.00,127.32
1311.00,127.32
1310.00,127.32
1309.00,127.32
1308.00,127.33
1307.00,127.33
1306.00,127.33
1305.00,127.33
1304.00,127.33
1303.00,127.32
1302.00,127.32
1301.00,127.32
1300.00,127.33
1299.00,127.33
1298.00,127.33
1297.00,127.33
1296.00,127.33
1295.00,127.32
1294.00,127.32
1293.00,127.31
1292.00,127.32
1291.00,127.32
1290.00,127.32
1289.00,127.32
1288.00,127.32
1287.00,127.32
1286.00,127.32
1285.00,127.32
1284.00,127.32
1283.00,127.32
1282.00,127.32
1281.00,127.33
1280.00,127.33
1279.00,127.33
1278.00,127.33
1277.00,127.33
1276.00,127.32
1275.00,127.32
1274.00,127.33
1273.00,127.34
1272.00,127.34
1271.00,127.35
1270.00,127.35
1269.00,127.35
1268.00,127.35
1267.00,127.35
1266.00,127.35
1265.00,127.35
1264.00,127.36
1263.00,127.36
1262.00,127.36
1261.00,127.36
1260.00,127.36
1259.00,127.35
1258.00,127.35
1257.00,127.35
1256.00,127.35
1255.00,127.36
1254.00,127.36
1253.00,127.36
1252.00,127.36
1251.00,127.36
1250.00,127.35
1249.00,127.35
1248.00,127.35
1247.00,127.35
1246.00,127.35
1245.00,127.35
1244.00,127.34
1243.00,127.34
1242.00,127.33
1241.00,127.32
1240.00,127.32
1239.00,127.31
1238.00,127.31
1237.00,127.32
1236.00,127.32
1235.00,127.32
1234.00,127.31
1233.00,127.30
1232.00,127.30
1231.00,127.29
1230.00,127.29
1229.00,127.30
1228.00,127.30
1227.00,127.30
1226.00,127.30
1225.00,127.30
1224.00,127.29
1223.00,127.29
1222.00,127.29
1221.00,127.30
1220.00,127.30
1219.00,127.31
1218.00,127.31
1217.00,127.32
1216.00,127.32
1215.00,127.32
1214.00,127.32
1213.00,127.32
1212.00,127.33
1211.00,127.34
1210.00,127.34
1209.00,127.35
1208.00,127.35
1207.00,127.35
1206.00,127.35
1205.00,127.35
1204.00,127.35
1203.00,127.35
1202.00,127.35
1201.00,127.36
1200.00,127.36
1199.00,127.36
1198.00,127.36
1197.00,127.36
1196.00,127.35
1195.00,127.35
1194.00,127.35
1193.00,127.35
1192.00,127.36
1191.00,127.35
1190.00,127.35
1189.00,127.35
1188.00,127.35
1187.00,127.34
1186.00,127.34
1185.00,127.34
1184.00,127.34
1183.00,127.34
1182.00,127.34
1181.00,127.33
1180.00,127.33
1179.00,127.32
1178.00,127.31
1177.00,127.31
1176.00,127.31
1175.00,127.31
1174.00,127.31
1173.00,127.31
1172.00,127.31
1171.00,127.31
1170.00,127.30
1169.00,127.30
1168.00,127.30
1167.00,127.30
1166.00,127.31
1165.00,127.31
1164.00,127.31
1163.00,127.31
1162.00,127.31
1161.00,127.31
1160.00,127.31
1159.00,127.32
1158.00,127.32
1157.00,127.32
1156.00,127.33
1155.00,127.33
1154.00,127.33
1153.00,127.34
1152.00,127.34
1151.00,127.34
1150.00,127.35
1149.00,127.35
1148.00,127.35
1147.00,127.35
1146.00,127.36
1145.00,127.36
1144.00,127.36
1143.00,127.36
1142.00,127.36
1141.00,127.37
1140.00,127.37
1139.00,127.37
1138.00,127.37
1137.00,127.36
1136.00,127.36
1135.00,127.36
1134.00,127.37
1133.00,127.37
1132.00,127.37
1131.00,127.37
1130.00,127.36
1129.00,127.36
1128.00,127.36
1127.00,127.35
1126.00,127.35
1125.00,127.36
1124.00,127.36
1123.00,127.35
1122.00,127.35
1121.00,127.35
1120.00,127.35
1119.00,127.35
1118.00,127.35
1117.00,127.35
1116.00,127.35
1115.00,127.35
1114.00,127.35
1113.00,127.35
1112.00,127.35
1111.00,127.35
1110.00,127.35
1109.00,127.35
1108.00,127.35
1107.00,127.35
1106.00,127.36
1105.00,127.36
1104.00,127.36
1103.00,127.36
1102.00,127.35
1101.00,127.35
1100.00,127.36
1099.00,127.36
1098.00,127.36
1097.00,127.37
1096.00,127.37
1095.00,127.37
1094.00,127.36
1093.00,127.37
1092.00,127.37
1091.00,127.37
1090.00,127.37
1089.00,127.37
1088.00,127.37
1087.00,127.37
1086.00,127.37
1085.00,127.37
1084.00,127.36
1083.00,127.36
1082.00,127.36
1081.00,127.36
1080.00,127.35
1079.00,127.35
1078.00,127.35
1077.00,127.34
1076.00,127.33
1075.00,127.33
1074.00,127.32
1073.00,127.32
1072.00,127.32
1071.00,127.32
1070.00,127.31
1069.00,127.31
1068.00,127.30
1067.00,127.29
1066.00,127.28
1065.00,127.28
1064.00,127.28
1063.00,127.28
1062.00,127.27
1061.00,127.27
1060.00,127.27
1059.00,127.27
1058.00,127.27
1057.00,127.28
1056.00,127.28
1055.00,127.28
1054.00,127.29
1053.00,127.29
1052.00,127.29
1051.00,127.29
1050.00,127.29
1049.00,127.29
1048.00,127.29
1047.00,127.29
1046.00,127.30
1045.00,127.31
1044.00,127.32
1043.00,127.33
1042.00,127.33
1041.00,127.33
1040.00,127.34
1039.00,127.34
1038.00,127.34
1037.00,127.34
1036.00,127.33
1035.00,127.31
1034.00,127.29
1033.00,127.29
1032.00,127.30
1031.00,127.32
1030.00,127.33
1029.00,127.34
1028.00,127.35
1027.00,127.35
1026.00,127.35
1025.00,127.35
1024.00,127.35
1023.00,127.34
1022.00,127.33
1021.00,127.33
1020.00,127.33
1019.00,127.33
1018.00,127.33
1017.00,127.33
1016.00,127.32
1015.00,127.32
1014.00,127.31
1013.00,127.31
1012.00,127.31
1011.00,127.31
1010.00,127.31
1009.00,127.31
1008.00,127.31
1007.00,127.31
1006.00,127.31
1005.00,127.32
1004.00,127.32
1003.00,127.33
1002.00,127.33
1001.00,127.34
1000.00,127.34
999.00,127.35
998.00,127.35
997.00,127.35
996.00,127.36
995.00,127.36
994.00,127.37
993.00,127.37
992.00,127.38
991.00,127.39
990.00,127.39
989.00,127.39
988.00,127.39
987.00,127.39
986.00,127.39
985.00,127.40
984.00,127.41
983.00,127.41
982.00,127.41
981.00,127.41
980.00,127.41
979.00,127.40
978.00,127.40
977.00,127.41
976.00,127.41
975.00,127.41
974.00,127.41
973.00,127.41
972.00,127.41
971.00,127.40
970.00,127.40
969.00,127.41
968.00,127.41
967.00,127.41
966.00,127.41
965.00,127.41
964.00,127.41
963.00,127.41
962.00,127.41
961.00,127.40
960.00,127.41
959.00,127.41
958.00,127.42
957.00,127.42
956.00,127.43
955.00,127.42
954.00,127.42
953.00,127.42
952.00,127.42
951.00,127.42
950.00,127.43
949.00,127.44
948.00,127.45
947.00,127.45
946.00,127.45
945.00,127.44
944.00,127.44
943.00,127.44
942.00,127.45
941.00,127.46
940.00,127.47
939.00,127.47
938.00,127.47
937.00,127.47
936.00,127.47
935.00,127.47
934.00,127.47
933.00,127.47
932.00,127.47
931.00,127.48
930.00,127.49
929.00,127.49
928.00,127.49
927.00,127.49
926.00,127.48
925.00,127.48
924.00,127.48
923.00,127.49
922.00,127.49
921.00,127.49
920.00,127.49
919.00,127.48
918.00,127.48
917.00,127.48
916.00,127.48
915.00,127.48
914.00,127.49
913.00,127.49
912.00,127.49
911.00,127.48
910.00,127.48
909.00,127.48
908.00,127.48
907.00,127.48
906.00,127.48
905.00,127.49
904.00,127.49
903.00,127.49
902.00,127.49
901.00,127.50
900.00,127.50
899.00,127.50
898.00,127.50
897.00,127.51
896.00,127.51
895.00,127.52
894.00,127.52
893.00,127.52
892.00,127.53
891.00,127.53
890.00,127.53
889.00,127.53
888.00,127.54
887.00,127.55
886.00,127.55
885.00,127.56
884.00,127.56
883.00,127.56
882.00,127.56
881.00,127.56
880.00,127.56
879.00,127.56
878.00,127.56
877.00,127.56
876.00,127.56
875.00,127.56
874.00,127.56
873.00,127.55
872.00,127.55
871.00,127.55
870.00,127.55
869.00,127.56
868.00,127.56
867.00,127.56
866.00,127.56
865.00,127.56
864.00,127.55
863.00,127.55
862.00,127.55
861.00,127.55
860.00,127.56
859.00,127.56
858.00,127.56
857.00,127.55
856.00,127.55
855.00,127.56
854.00,127.56
853.00,127.57
852.00,127.57
851.00,127.57
850.00,127.57
849.00,127.58
848.00,127.58
847.00,127.59
846.00,127.59
845.00,127.59
844.00,127.59
843.00,127.60
842.00,127.60
841.00,127.61
840.00,127.61
839.00,127.61
838.00,127.61
837.00,127.61
836.00,127.62
835.00,127.62
834.00,127.63
833.00,127.64
832.00,127.64
831.00,127.64
830.00,127.64
829.00,127.64
828.00,127.64
827.00,127.64
826.00,127.64
825.00,127.64
824.00,127.64
823.00,127.63
822.00,127.63
821.00,127.63
820.00,127.63
819.00,127.63
818.00,127.62
817.00,127.62
816.00,127.62
815.00,127.62
814.00,127.62
813.00,127.63
812.00,127.63
811.00,127.62
810.00,127.62
809.00,127.62
808.00,127.62
807.00,127.62
806.00,127.62
805.00,127.62
804.00,127.62
803.00,127.61
802.00,127.61
801.00,127.61
800.00,127.61
799.00,127.61
798.00,127.61
797.00,127.61
796.00,127.61
795.00,127.61
794.00,127.61
793.00,127.61
792.00,127.61
791.00,127.62
790.00,127.62
789.00,127.61
788.00,127.61
787.00,127.62
786.00,127.62
785.00,127.62
784.00,127.63
783.00,127.63
782.00,127.63
781.00,127.63
780.00,127.63
779.00,127.64
778.00,127.64
777.00,127.64
776.00,127.64
775.00,127.64
774.00,127.64
773.00,127.64
772.00,127.64
771.00,127.64
770.00,127.63
769.00,127.63
768.00,127.63
767.00,127.63
766.00,127.64
765.00,127.64
764.00,127.65
763.00,127.64
762.00,127.64
761.00,127.63
760.00,127.63
759.00,127.62
758.00,127.62
757.00,127.62
756.00,127.62
755.00,127.62
754.00,127.62
753.00,127.62
752.00,127.62
751.00,127.62
750.00,127.62
749.00,127.62
748.00,127.62
747.00,127.62
746.00,127.62
745.00,127.62
744.00,127.62
743.00,127.62
742.00,127.62
741.00,127.62
740.00,127.62
739.00,127.63
738.00,127.63
737.00,127.63
736.00,127.63
735.00,127.63
734.00,127.63
733.00,127.63
732.00,127.63
731.00,127.64
730.00,127.64
729.00,127.64
728.00,127.64
727.00,127.64
726.00,127.64
725.00,127.64
724.00,127.64
723.00,127.64
722.00,127.65
721.00,127.65
720.00,127.66
719.00,127.66
718.00,127.65
717.00,127.64
716.00,127.64
715.00,127.63
714.00,127.63
713.00,127.63
712.00,127.63
711.00,127.63
710.00,127.63
709.00,127.62
708.00,127.62
707.00,127.61
706.00,127.61
705.00,127.62
704.00,127.62
703.00,127.62
702.00,127.62
701.00,127.61
700.00,127.61
699.00,127.61
698.00,127.61
697.00,127.62
696.00,127.62
695.00,127.63
694.00,127.63
693.00,127.63
692.00,127.63
691.00,127.62
690.00,127.62
689.00,127.61
688.00,127.61
687.00,127.61
686.00,127.61
685.00,127.61
684.00,127.61
683.00,127.61
682.00,127.61
681.00,127.60
680.00,127.60
679.00,127.61
678.00,127.62
677.00,127.63
676.00,127.63
675.00,127.62
674.00,127.62
673.00,127.62
672.00,127.62
671.00,127.62
670.00,127.61
669.00,127.57
668.00,127.54
667.00,127.54
666.00,127.55
665.00,127.58
664.00,127.61
663.00,127.63
662.00,127.63
661.00,127.63
660.00,127.63
659.00,127.63
658.00,127.63
657.00,127.62
656.00,127.61
655.00,127.59
654.00,127.58
653.00,127.58
652.00,127.59
651.00,127.60
650.00,127.60
649.00,127.60
648.00,127.59
647.00,127.58
646.00,127.58
645.00,127.59
644.00,127.60
643.00,127.60
642.00,127.60
641.00,127.60
640.00,127.59
639.00,127.59
638.00,127.59
637.00,127.59
636.00,127.60
635.00,127.60
634.00,127.60
633.00,127.60
632.00,127.60
631.00,127.59
630.00,127.58
629.00,127.58
628.00,127.58
627.00,127.59
626.00,127.59
625.00,127.61
624.00,127.61
623.00,127.61
622.00,127.60
621.00,127.59
620.00,127.58
619.00,127.58
618.00,127.59
617.00,127.61
616.00,127.61
615.00,127.60
614.00,127.59
613.00,127.57
612.00,127.57
611.00,127.57
610.00,127.57
609.00,127.58
608.00,127.59
607.00,127.59
606.00,127.58
605.00,127.57
604.00,127.56
603.00,127.55
602.00,127.55
601.00,127.55
600.00,127.56
599.00,127.57
598.00,127.58
597.00,127.59
596.00,127.58
595.00,127.57
594.00,127.55
593.00,127.55
592.00,127.56
591.00,127.57
590.00,127.58
589.00,127.58
588.00,127.57
587.00,127.55
586.00,127.54
585.00,127.54
584.00,127.55
583.00,127.57
582.00,127.58
581.00,127.58
580.00,127.59
579.00,127.58
578.00,127.57
577.00,127.57
576.00,127.56
575.00,127.57
574.00,127.57
573.00,127.58
572.00,127.58
571.00,127.59
570.00,127.58
569.00,127.57
568.00,127.55
567.00,127.53
566.00,127.53
565.00,127.54
564.00,127.55
563.00,127.56
562.00,127.56
561.00,127.55
560.00,127.54
559.00,127.53
558.00,127.52
557.00,127.53
556.00,127.53
555.00,127.54
554.00,127.54
553.00,127.54
552.00,127.53
551.00,127.52
550.00,127.52
549.00,127.52
548.00,127.52
547.00,127.52
546.00,127.53
545.00,127.54
544.00,127.54
543.00,127.53
542.00,127.52
541.00,127.51
540.00,127.51
539.00,127.52
538.00,127.54
537.00,127.56
536.00,127.57
535.00,127.58
534.00,127.57
533.00,127.57
532.00,127.56
531.00,127.57
530.00,127.58
529.00,127.60
528.00,127.61
527.00,127.62
526.00,127.62
525.00,127.62
524.00,127.61
523.00,127.60
522.00,127.60
521.00,127.61
520.00,127.63
519.00,127.65
518.00,127.66
517.00,127.66
516.00,127.65
515.00,127.64
514.00,127.64
513.00,127.65
512.00,127.66
511.00,127.67
510.00,127.68
509.00,127.68
508.00,127.68
507.00,127.67
506.00,127.66
505.00,127.66
504.00,127.66
503.00,127.67
502.00,127.68
501.00,127.70
500.00,127.71
