3996.73391,0.00000
3994.67373,0.00043
3992.61356,0.00069
3990.55339,0.00046
3988.49322,0.00013
3986.43305,0.00016
3984.37287,0.00033
3982.31270,0.00030
3980.25253,0.00031
3978.19236,0.00039
3976.13219,0.00036
3974.07201,0.00030
3972.01184,0.00035
3969.95167,0.00053
3967.89150,0.00079
3965.83133,0.00097
3963.77115,0.00095
3961.71098,0.00096
3959.65081,0.00102
3957.59064,0.00079
3955.53046,0.00050
3953.47029,0.00053
3951.41012,0.00077
3949.34995,0.00101
3947.28978,0.00127
3945.22960,0.00107
3943.16943,0.00038
3941.10926,0.00007
3939.04909,0.00003
3936.98892,0.00013
3934.92874,0.00022
3932.86857,0.00015
3930.80840,0.00048
3928.74823,0.00107
3926.68805,0.00104
3924.62788,0.00082
3922.56771,0.00107
3920.50754,0.00117
3918.44737,0.00104
3916.38719,0.00104
3914.32702,0.00102
3912.26685,0.00076
3910.20668,0.00091
3908.14651,0.00140
3906.08633,0.00126
3904.02616,0.00099
3901.96599,0.00111
3899.90582,0.00099
3897.84565,0.00139
3895.78547,0.00188
3893.72530,0.00117
3891.66513,0.00029
3889.60496,0.00071
3887.54478,0.00052
3885.48461,0.00000
3883.42444,0.00062
3881.36427,0.00060
3879.30410,0.00093
3877.24392,0.00161
3875.18375,0.00132
3873.12358,0.00134
3871.06341,0.00105
3869.00324,0.00129
3866.94306,0.00207
3864.88289,0.00175
3862.82272,0.00192
3860.76255,0.00263
3858.70237,0.00306
3856.64220,0.00227
3854.58203,0.00025
3852.52186,0.00038
3850.46169,0.00221
3848.40151,0.00265
3846.34134,0.00219
3844.28117,0.00186
3842.22100,0.00203
3840.16083,0.00173
3838.10065,0.00117
3836.04048,0.00133
3833.98031,0.00131
3831.92014,0.00110
3829.85997,0.00144
3827.79979,0.00164
3825.73962,0.00195
3823.67945,0.00167
3821.61928,0.00074
3819.55910,0.00183
3817.49893,0.00210
3815.43876,0.00151
3813.37859,0.00211
3811.31842,0.00224
3809.25824,0.00139
3807.19807,0.00096
3805.13790,0.00194
3803.07773,0.00147
3801.01756,0.00070
3798.95738,0.00141
3796.89721,0.00127
3794.83704,0.00127
3792.77687,0.00146
3790.71670,0.00131
3788.65652,0.00113
3786.59635,0.00085
3784.53618,0.00082
3782.47601,0.00099
3780.41583,0.00057
3778.35566,0.00075
3776.29549,0.00160
3774.23532,0.00196
3772.17515,0.00169
3770.11497,0.00136
3768.05480,0.00165
3765.99463,0.00162
3763.93446,0.00173
3761.87429,0.00151
3759.81411,0.00083
3757.75394,0.00122
3755.69377,0.00210
3753.63360,0.00169
3751.57342,0.00078
3749.51325,0.00188
3747.45308,0.00293
3745.39291,0.00135
3743.33274,0.00110
3741.27256,0.00242
3739.21239,0.00248
3737.15222,0.00178
3735.09205,0.00164
3733.03188,0.00209
3730.97170,0.00245
3728.91153,0.00222
3726.85136,0.00151
3724.79119,0.00163
3722.73102,0.00199
3720.67084,0.00192
3718.61067,0.00160
3716.55050,0.00151
3714.49033,0.00113
3712.43015,0.00020
3710.36998,0.00018
3708.30981,0.00105
3706.24964,0.00154
3704.18947,0.00102
3702.12929,0.00034
3700.06912,0.00083
3698.00895,0.00146
3695.94878,0.00169
3693.88861,0.00185
3691.82843,0.00127
3689.76826,0.00043
3687.70809,0.00097
3685.64792,0.00197
3683.58775,0.00212
3681.52757,0.00209
3679.46740,0.00208
3677.40723,0.00135
3675.34706,0.00106
3673.28688,0.00232
3671.22671,0.00147
3669.16654,0.00078
3667.10637,0.00197
3665.04620,0.00248
3662.98602,0.00241
3660.92585,0.00254
3658.86568,0.00232
3656.80551,0.00190
3654.74534,0.00290
3652.68516,0.00334
3650.62499,0.00203
3648.56482,0.00192
3646.50465,0.00330
3644.44447,0.00414
3642.38430,0.00407
3640.32413,0.00404
3638.26396,0.00406
3636.20379,0.00408
3634.14361,0.00449
3632.08344,0.00488
3630.02327,0.00398
3627.96310,0.00420
3625.90293,0.00597
3623.84275,0.00657
3621.78258,0.00597
3619.72241,0.00535
3617.66224,0.00599
3615.60207,0.00669
3613.54189,0.00660
3611.48172,0.00681
3609.42155,0.00694
3607.36138,0.00723
3605.30120,0.00791
3603.24103,0.00799
3601.18086,0.00766
3599.12069,0.00771
3597.06052,0.00793
3595.00034,0.00823
3592.94017,0.00897
3590.88000,0.00946
3588.81983,0.00919
3586.75966,0.00957
3584.69948,0.01051
3582.63931,0.01050
3580.57914,0.01017
3578.51897,0.01026
3576.45879,0.01057
3574.39862,0.01112
3572.33845,0.01193
3570.27828,0.01226
3568.21811,0.01169
3566.15793,0.01159
3564.09776,0.01231
3562.03759,0.01255
3559.97742,0.01247
3557.91725,0.01269
3555.85707,0.01311
3553.79690,0.01347
3551.73673,0.01389
3549.67656,0.01415
3547.61639,0.01385
3545.55621,0.01365
3543.49604,0.01410
3541.43587,0.01471
3539.37570,0.01503
3537.31552,0.01523
3535.25535,0.01566
3533.19518,0.01603
3531.13501,0.01607
3529.07484,0.01603
3527.01466,0.01612
3524.95449,0.01630
3522.89432,0.01638
3520.83415,0.01631
3518.77398,0.01618
3516.71380,0.01615
3514.65363,0.01630
3512.59346,0.01663
3510.53329,0.01710
3508.47312,0.01773
3506.41294,0.01820
3504.35277,0.01815
3502.29260,0.01835
3500.23243,0.01901
3498.17225,0.01929
3496.11208,0.01906
3494.05191,0.01877
3491.99174,0.01871
3489.93157,0.01898
3487.87139,0.01953
3485.81122,0.01997
3483.75105,0.01994
3481.69088,0.01988
3479.63071,0.02023
3477.57053,0.02067
3475.51036,0.02100
3473.45019,0.02124
3471.39002,0.02139
3469.32984,0.02157
3467.26967,0.02173
3465.20950,0.02176
3463.14933,0.02168
3461.08916,0.02181
3459.02898,0.02209
3456.96881,0.02234
3454.90864,0.02251
3452.84847,0.02270
3450.78830,0.02326
3448.72812,0.02364
3446.66795,0.02351
3444.60778,0.02353
3442.54761,0.02369
3440.48744,0.02385
3438.42726,0.02402
3436.36709,0.02427
3434.30692,0.02456
3432.24675,0.02472
3430.18657,0.02456
3428.12640,0.02420
3426.06623,0.02416
3424.00606,0.02459
3421.94589,0.02507
3419.88571,0.02542
3417.82554,0.02561
3415.76537,0.02569
3413.70520,0.02575
3411.64503,0.02578
3409.58485,0.02599
3407.52468,0.02636
3405.46451,0.02658
3403.40434,0.02673
3401.34416,0.02687
3399.28399,0.02685
3397.22382,0.02668
3395.16365,0.02656
3393.10348,0.02671
3391.04330,0.02722
3388.98313,0.02756
3386.92296,0.02768
3384.86279,0.02790
3382.80262,0.02790
3380.74244,0.02763
3378.68227,0.02747
3376.62210,0.02733
3374.56193,0.02719
3372.50176,0.02742
3370.44158,0.02776
3368.38141,0.02780
3366.32124,0.02793
3364.26107,0.02836
3362.20089,0.02862
3360.14072,0.02865
3358.08055,0.02864
3356.02038,0.02855
3353.96021,0.02853
3351.90003,0.02883
3349.83986,0.02919
3347.77969,0.02923
3345.71952,0.02918
3343.65935,0.02935
3341.59917,0.02950
3339.53900,0.02935
3337.47883,0.02921
3335.41866,0.02936
3333.35849,0.02956
3331.29831,0.02962
3329.23814,0.02968
3327.17797,0.02973
3325.11780,0.02969
3323.05762,0.02970
3320.99745,0.02968
3318.93728,0.02952
3316.87711,0.02960
3314.81694,0.02988
3312.75676,0.02979
3310.69659,0.02953
3308.63642,0.02972
3306.57625,0.03015
3304.51608,0.03024
3302.45590,0.02996
3300.39573,0.02971
3298.33556,0.02977
3296.27539,0.02993
3294.21521,0.02999
3292.15504,0.03016
3290.09487,0.03051
3288.03470,0.03066
3285.97453,0.03052
3283.91435,0.03038
3281.85418,0.03032
3279.79401,0.03031
3277.73384,0.03024
3275.67367,0.03012
3273.61349,0.03018
3271.55332,0.03047
3269.49315,0.03067
3267.43298,0.03056
3265.37281,0.03038
3263.31263,0.03034
3261.25246,0.03013
3259.19229,0.02977
3257.13212,0.02973
3255.07194,0.02996
3253.01177,0.03018
3250.95160,0.03015
3248.89143,0.02989
3246.83126,0.02971
3244.77108,0.02985
3242.71091,0.03010
3240.65074,0.03018
3238.59057,0.03028
3236.53040,0.03038
3234.47022,0.03037
3232.41005,0.03047
3230.34988,0.03057
3228.28971,0.03038
3226.22954,0.03016
3224.16936,0.03019
3222.10919,0.03015
3220.04902,0.02997
3217.98885,0.03021
3215.92867,0.03061
3213.86850,0.03048
3211.80833,0.02999
3209.74816,0.02959
3207.68799,0.02938
3205.62781,0.02923
3203.56764,0.02930
3201.50747,0.02943
3199.44730,0.02930
3197.38713,0.02921
3195.32695,0.02947
3193.26678,0.02966
3191.20661,0.02948
3189.14644,0.02927
3187.08626,0.02919
3185.02609,0.02901
3182.96592,0.02883
3180.90575,0.02892
3178.84558,0.02898
3176.78540,0.02892
3174.72523,0.02884
3172.66506,0.02864
3170.60489,0.02834
3168.54472,0.02811
3166.48454,0.02796
3164.42437,0.02784
3162.36420,0.02790
3160.30403,0.02799
3158.24386,0.02794
3156.18368,0.02783
3154.12351,0.02779
3152.06334,0.02784
3150.00317,0.02784
3147.94299,0.02769
3145.88282,0.02757
3143.82265,0.02750
3141.76248,0.02724
3139.70231,0.02696
3137.64213,0.02703
3135.58196,0.02722
3133.52179,0.02717
3131.46162,0.02706
3129.40145,0.02695
3127.34127,0.02677
3125.28110,0.02659
3123.22093,0.02636
3121.16076,0.02611
3119.10058,0.02593
3117.04041,0.02584
3114.98024,0.02588
3112.92007,0.02598
3110.85990,0.02592
3108.79972,0.02564
3106.73955,0.02531
3104.67938,0.02528
3102.61921,0.02541
3100.55904,0.02525
3098.49886,0.02480
3096.43869,0.02460
3094.37852,0.02483
3092.31835,0.02507
3090.25818,0.02508
3088.19800,0.02486
3086.13783,0.02463
3084.07766,0.02461
3082.01749,0.02447
3079.95731,0.02394
3077.89714,0.02347
3075.83697,0.02349
3073.77680,0.02378
3071.71663,0.02397
3069.65645,0.02390
3067.59628,0.02376
3065.53611,0.02366
3063.47594,0.02339
3061.41577,0.02305
3059.35559,0.02283
3057.29542,0.02261
3055.23525,0.02233
3053.17508,0.02220
3051.11491,0.02228
3049.05473,0.02242
3046.99456,0.02248
3044.93439,0.02249
3042.87422,0.02242
3040.81404,0.02235
3038.75387,0.02223
3036.69370,0.02192
3034.63353,0.02157
3032.57336,0.02147
3030.51318,0.02150
3028.45301,0.02142
3026.39284,0.02143
3024.33267,0.02162
3022.27250,0.02158
3020.21232,0.02129
3018.15215,0.02100
3016.09198,0.02068
3014.03181,0.02045
3011.97163,0.02029
3009.91146,0.02012
3007.85129,0.01992
3005.79112,0.01959
3003.73095,0.01930
3001.67077,0.01926
2999.61060,0.01933
2997.55043,0.01931
2995.49026,0.01928
2993.43009,0.01932
2991.36991,0.01936
2989.30974,0.01931
2987.24957,0.01920
2985.18940,0.01920
2983.12923,0.01924
2981.06905,0.01919
2979.00888,0.01914
2976.94871,0.01905
2974.88854,0.01884
2972.82836,0.01870
2970.76819,0.01883
2968.70802,0.01903
2966.64785,0.01909
2964.58768,0.01897
2962.52750,0.01882
2960.46733,0.01882
2958.40716,0.01897
2956.34699,0.01905
2954.28682,0.01899
2952.22664,0.01892
2950.16647,0.01905
2948.10630,0.01938
2946.04613,0.01952
2943.98596,0.01939
2941.92578,0.01937
2939.86561,0.01939
2937.80544,0.01926
2935.74527,0.01914
2933.68509,0.01911
2931.62492,0.01901
2929.56475,0.01866
2927.50458,0.01832
2925.44441,0.01836
2923.38423,0.01868
2921.32406,0.01882
2919.26389,0.01867
2917.20372,0.01849
2915.14355,0.01838
2913.08337,0.01831
2911.02320,0.01828
2908.96303,0.01820
2906.90286,0.01804
2904.84268,0.01803
2902.78251,0.01823
2900.72234,0.01848
2898.66217,0.01857
2896.60200,0.01853
2894.54182,0.01852
2892.48165,0.01856
2890.42148,0.01857
2888.36131,0.01852
2886.30114,0.01850
2884.24096,0.01839
2882.18079,0.01814
2880.12062,0.01800
2878.06045,0.01808
2876.00028,0.01818
2873.94010,0.01806
2871.87993,0.01793
2869.81976,0.01780
2867.75959,0.01756
2865.69941,0.01748
2863.63924,0.01763
2861.57907,0.01768
2859.51890,0.01738
2857.45873,0.01688
2855.39855,0.01659
2853.33838,0.01676
2851.27821,0.01703
2849.21804,0.01693
2847.15787,0.01665
2845.09769,0.01652
2843.03752,0.01651
2840.97735,0.01653
2838.91718,0.01661
2836.85700,0.01659
2834.79683,0.01639
2832.73666,0.01619
2830.67649,0.01602
2828.61632,0.01586
2826.55614,0.01592
2824.49597,0.01609
2822.43580,0.01595
2820.37563,0.01566
2818.31546,0.01555
2816.25528,0.01542
2814.19511,0.01513
2812.13494,0.01501
2810.07477,0.01513
2808.01460,0.01528
2805.95442,0.01530
2803.89425,0.01525
2801.83408,0.01518
2799.77391,0.01501
2797.71373,0.01491
2795.65356,0.01496
2793.59339,0.01490
2791.53322,0.01480
2789.47305,0.01493
2787.41287,0.01505
2785.35270,0.01493
2783.29253,0.01478
2781.23236,0.01476
2779.17219,0.01473
2777.11201,0.01453
2775.05184,0.01431
2772.99167,0.01416
2770.93150,0.01406
2768.87133,0.01411
2766.81115,0.01430
2764.75098,0.01438
2762.69081,0.01430
2760.63064,0.01418
2758.57046,0.01407
2756.51029,0.01406
2754.45012,0.01420
2752.38995,0.01415
2750.32978,0.01384
2748.26960,0.01362
2746.20943,0.01351
2744.14926,0.01341
2742.08909,0.01349
2740.02892,0.01372
2737.96874,0.01384
2735.90857,0.01382
2733.84840,0.01373
2731.78823,0.01351
2729.72805,0.01323
2727.66788,0.01315
2725.60771,0.01322
2723.54754,0.01318
2721.48737,0.01307
2719.42719,0.01290
2717.36702,0.01260
2715.30685,0.01250
2713.24668,0.01281
2711.18651,0.01306
2709.12633,0.01296
2707.06616,0.01289
2705.00599,0.01303
2702.94582,0.01311
2700.88565,0.01287
2698.82547,0.01251
2696.76530,0.01236
2694.70513,0.01232
2692.64496,0.01220
2690.58478,0.01211
2688.52461,0.01216
2686.46444,0.01222
2684.40427,0.01216
2682.34410,0.01207
2680.28392,0.01206
2678.22375,0.01202
2676.16358,0.01184
2674.10341,0.01155
2672.04324,0.01130
2669.98306,0.01127
2667.92289,0.01138
2665.86272,0.01141
2663.80255,0.01134
2661.74238,0.01132
2659.68220,0.01143
2657.62203,0.01149
2655.56186,0.01140
2653.50169,0.01134
2651.44151,0.01126
2649.38134,0.01101
2647.32117,0.01080
2645.26100,0.01083
2643.20083,0.01092
2641.14065,0.01091
2639.08048,0.01080
2637.02031,0.01056
2634.96014,0.01043
2632.89997,0.01048
2630.83979,0.01056
2628.77962,0.01052
2626.71945,0.01032
2624.65928,0.01017
2622.59910,0.01015
2620.53893,0.01014
2618.47876,0.01026
2616.41859,0.01041
2614.35842,0.01027
2612.29824,0.00989
2610.23807,0.00953
2608.17790,0.00924
2606.11773,0.00921
2604.05756,0.00970
2601.99738,0.01020
2599.93721,0.00997
2597.87704,0.00946
2595.81687,0.00923
2593.75670,0.00911
2591.69652,0.00896
2589.63635,0.00874
2587.57618,0.00867
2585.51601,0.00888
2583.45583,0.00892
2581.39566,0.00879
2579.33549,0.00900
2577.27532,0.00933
2575.21515,0.00921
2573.15497,0.00893
2571.09480,0.00874
2569.03463,0.00846
2566.97446,0.00839
2564.91429,0.00858
2562.85411,0.00879
2560.79394,0.00895
2558.73377,0.00884
2556.67360,0.00851
2554.61342,0.00843
2552.55325,0.00870
2550.49308,0.00885
2548.43291,0.00880
2546.37274,0.00887
2544.31256,0.00906
2542.25239,0.00903
2540.19222,0.00889
2538.13205,0.00896
2536.07188,0.00892
2534.01170,0.00867
2531.95153,0.00856
2529.89136,0.00859
2527.83119,0.00872
2525.77102,0.00895
2523.71084,0.00892
2521.65067,0.00859
2519.59050,0.00856
2517.53033,0.00887
2515.47015,0.00907
2513.40998,0.00914
2511.34981,0.00922
2509.28964,0.00930
2507.22947,0.00934
2505.16929,0.00911
2503.10912,0.00868
2501.04895,0.00854
2498.98878,0.00867
2496.92861,0.00876
2494.86843,0.00897
2492.80826,0.00919
2490.74809,0.00907
2488.68792,0.00896
2486.62775,0.00900
2484.56757,0.00901
2482.50740,0.00897
2480.44723,0.00891
2478.38706,0.00898
2476.32688,0.00905
2474.26671,0.00917
2472.20654,0.00933
2470.14637,0.00913
2468.08620,0.00875
2466.02602,0.00864
2463.96585,0.00887
2461.90568,0.00925
2459.84551,0.00937
2457.78534,0.00923
2455.72516,0.00932
2453.66499,0.00969
2451.60482,0.00965
2449.54465,0.00923
2447.48447,0.00930
2445.42430,0.00980
2443.36413,0.00992
2441.30396,0.00956
2439.24379,0.00944
2437.18361,0.00955
2435.12344,0.00947
2433.06327,0.00938
2431.00310,0.00936
2428.94293,0.00937
2426.88275,0.00926
2424.82258,0.00910
2422.76241,0.00917
2420.70224,0.00938
2418.64207,0.00959
2416.58189,0.00969
2414.52172,0.00954
2412.46155,0.00936
2410.40138,0.00920
2408.34120,0.00896
2406.28103,0.00881
2404.22086,0.00875
2402.16069,0.00871
2400.10052,0.00874
2398.04034,0.00883
2395.98017,0.00914
2393.92000,0.00922
2391.85983,0.00888
2389.79966,0.00860
2387.73948,0.00875
2385.67931,0.00927
2383.61914,0.00984
2381.55897,0.01013
2379.49880,0.01019
2377.43862,0.01031
2375.37845,0.01038
2373.31828,0.01005
2371.25811,0.00966
2369.19793,0.01006
2367.13776,0.01171
2365.07759,0.01393
2363.01742,0.01496
2360.95725,0.01429
2358.89707,0.01323
2356.83690,0.01255
2354.77673,0.01202
2352.71656,0.01163
2350.65639,0.01148
2348.59621,0.01164
2346.53604,0.01247
2344.47587,0.01332
2342.41570,0.01270
2340.35552,0.01110
2338.29535,0.00982
2336.23518,0.00909
2334.17501,0.00894
2332.11484,0.00923
2330.05466,0.00968
2327.99449,0.01021
2325.93432,0.01049
2323.87415,0.01032
2321.81398,0.01019
2319.75380,0.01040
2317.69363,0.01063
2315.63346,0.01057
2313.57329,0.01016
2311.51312,0.00963
2309.45294,0.00920
2307.39277,0.00894
2305.33260,0.00898
2303.27243,0.00922
2301.21225,0.00943
2299.15208,0.00955
2297.09191,0.00947
2295.03174,0.00923
2292.97157,0.00900
2290.91139,0.00912
2288.85122,0.00966
2286.79105,0.01001
2284.73088,0.00964
2282.67071,0.00890
2280.61053,0.00828
2278.55036,0.00797
2276.49019,0.00791
2274.43002,0.00803
2272.36984,0.00822
2270.30967,0.00810
2268.24950,0.00780
2266.18933,0.00803
2264.12916,0.00865
2262.06898,0.00872
2260.00881,0.00805
2257.94864,0.00718
2255.88847,0.00654
2253.82830,0.00674
2251.76812,0.00760
2249.70795,0.00799
2247.64778,0.00766
2245.58761,0.00721
2243.52744,0.00701
2241.46726,0.00685
2239.40709,0.00647
2237.34692,0.00636
2235.28675,0.00661
2233.22657,0.00691
2231.16640,0.00718
2229.10623,0.00710
2227.04606,0.00678
2224.98589,0.00699
2222.92571,0.00762
2220.86554,0.00754
2218.80537,0.00697
2216.74520,0.00736
2214.68503,0.00810
2212.62485,0.00761
2210.56468,0.00640
2208.50451,0.00592
2206.44434,0.00609
2204.38417,0.00596
2202.32399,0.00584
2200.26382,0.00619
2198.20365,0.00651
2196.14348,0.00626
2194.08330,0.00601
2192.02313,0.00646
2189.96296,0.00722
2187.90279,0.00772
2185.84262,0.00715
2183.78244,0.00578
2181.72227,0.00513
2179.66210,0.00548
2177.60193,0.00592
2175.54176,0.00549
2173.48158,0.00455
2171.42141,0.00393
2169.36124,0.00387
2167.30107,0.00477
2165.24089,0.00604
2163.18072,0.00577
2161.12055,0.00388
2159.06038,0.00298
2157.00021,0.00352
2154.94003,0.00376
2152.87986,0.00371
2150.81969,0.00368
2148.75952,0.00381
2146.69935,0.00417
2144.63917,0.00389
2142.57900,0.00296
2140.51883,0.00287
2138.45866,0.00381
2136.39849,0.00398
2134.33831,0.00336
2132.27814,0.00325
2130.21797,0.00326
2128.15780,0.00350
2126.09762,0.00426
2124.03745,0.00484
2121.97728,0.00486
2119.91711,0.00481
2117.85694,0.00480
2115.79676,0.00473
2113.73659,0.00481
2111.67642,0.00444
2109.61625,0.00382
2107.55608,0.00401
2105.49590,0.00457
2103.43573,0.00475
2101.37556,0.00490
2099.31539,0.00503
2097.25521,0.00476
2095.19504,0.00432
2093.13487,0.00396
2091.07470,0.00376
2089.01453,0.00406
2086.95435,0.00478
2084.89418,0.00537
2082.83401,0.00562
2080.77384,0.00547
2078.71367,0.00525
2076.65349,0.00514
2074.59332,0.00489
2072.53315,0.00452
2070.47298,0.00402
2068.41281,0.00363
2066.35263,0.00363
2064.29246,0.00449
2062.23229,0.00567
2060.17212,0.00582
2058.11194,0.00515
2056.05177,0.00428
2053.99160,0.00340
2051.93143,0.00309
2049.87126,0.00360
2047.81108,0.00471
2045.75091,0.00581
2043.69074,0.00574
2041.63057,0.00506
2039.57040,0.00544
2037.51022,0.00590
2035.45005,0.00472
2033.38988,0.00311
2031.32971,0.00308
2029.26954,0.00354
2027.20936,0.00320
2025.14919,0.00305
2023.08902,0.00333
2021.02885,0.00343
2018.96867,0.00292
2016.90850,0.00223
2014.84833,0.00302
2012.78816,0.00447
2010.72799,0.00427
2008.66781,0.00319
2006.60764,0.00303
2004.54747,0.00309
2002.48730,0.00300
2000.42713,0.00337
1998.36695,0.00391
1996.30678,0.00423
1994.24661,0.00418
1992.18644,0.00390
1990.12626,0.00367
1988.06609,0.00309
1986.00592,0.00280
1983.94575,0.00308
1981.88558,0.00284
1979.82540,0.00156
1977.76523,0.00028
1975.70506,0.00000
1973.64489,0.00033
1971.58472,0.00085
1969.52454,0.00144
1967.46437,0.00217
1965.40420,0.00294
1963.34403,0.00295
1961.28386,0.00242
1959.22368,0.00223
1957.16351,0.00244
1955.10334,0.00287
1953.04317,0.00342
1950.98299,0.00390
1948.92282,0.00428
1946.86265,0.00436
1944.80248,0.00376
1942.74231,0.00278
1940.68213,0.00223
1938.62196,0.00177
1936.56179,0.00168
1934.50162,0.00220
1932.44145,0.00289
1930.38127,0.00342
1928.32110,0.00362
1926.26093,0.00352
1924.20076,0.00306
1922.14059,0.00310
1920.08041,0.00338
1918.02024,0.00321
1915.96007,0.00371
1913.89990,0.00413
1911.83972,0.00379
1909.77955,0.00334
1907.71938,0.00346
1905.65921,0.00389
1903.59904,0.00410
1901.53886,0.00398
1899.47869,0.00367
1897.41852,0.00336
1895.35835,0.00342
1893.29818,0.00405
1891.23800,0.00411
1889.17783,0.00360
1887.11766,0.00363
1885.05749,0.00388
1882.99731,0.00407
1880.93714,0.00410
1878.87697,0.00392
1876.81680,0.00367
1874.75663,0.00353
1872.69645,0.00348
1870.63628,0.00300
1868.57611,0.00266
1866.51594,0.00330
1864.45577,0.00390
1862.39559,0.00384
1860.33542,0.00364
1858.27525,0.00362
1856.21508,0.00364
1854.15491,0.00365
1852.09473,0.00380
1850.03456,0.00398
1847.97439,0.00393
1845.91422,0.00328
1843.85404,0.00280
1841.79387,0.00361
1839.73370,0.00410
1837.67353,0.00387
1835.61336,0.00389
1833.55318,0.00408
1831.49301,0.00366
1829.43284,0.00349
1827.37267,0.00398
1825.31250,0.00386
1823.25232,0.00388
1821.19215,0.00401
1819.13198,0.00373
1817.07181,0.00352
1815.01163,0.00363
1812.95146,0.00349
1810.89129,0.00321
1808.83112,0.00342
1806.77095,0.00391
1804.71077,0.00433
1802.65060,0.00432
1800.59043,0.00407
1798.53026,0.00424
1796.47009,0.00463
1794.40991,0.00438
1792.34974,0.00377
1790.28957,0.00419
1788.22940,0.00454
1786.16923,0.00403
1784.10905,0.00376
1782.04888,0.00380
1779.98871,0.00409
1777.92854,0.00491
1775.86836,0.00519
1773.80819,0.00433
1771.74802,0.00388
1769.68785,0.00451
1767.62768,0.00473
1765.56750,0.00482
1763.50733,0.00445
1761.44716,0.00438
1759.38699,0.00495
1757.32682,0.00492
1755.26664,0.00529
1753.20647,0.00552
1751.14630,0.00509
1749.08613,0.00544
1747.02596,0.00614
1744.96578,0.00631
1742.90561,0.00607
1740.84544,0.00591
1738.78527,0.00673
1736.72509,0.00714
1734.66492,0.00577
1732.60475,0.00616
1730.54458,0.00726
1728.48441,0.00739
1726.42423,0.00742
1724.36406,0.00753
1722.30389,0.00815
1720.24372,0.00809
1718.18355,0.00690
1716.12337,0.00715
1714.06320,0.00823
1712.00303,0.00873
1709.94286,0.00877
1707.88268,0.00850
1705.82251,0.00851
1703.76234,0.00935
1701.70217,0.00878
1699.64200,0.00842
1697.58182,0.00913
1695.52165,0.00887
1693.46148,0.00964
1691.40131,0.00986
1689.34114,0.00988
1687.28096,0.01004
1685.22079,0.00853
1683.16062,0.00850
1681.10045,0.01030
1679.04028,0.01081
1676.98010,0.00993
1674.91993,0.00962
1672.85976,0.01065
1670.79959,0.01024
1668.73941,0.01001
1666.67924,0.01119
1664.61907,0.01102
1662.55890,0.01025
1660.49873,0.01110
1658.43855,0.01235
1656.37838,0.01194
1654.31821,0.00941
1652.25804,0.01000
1650.19787,0.01277
1648.13769,0.01150
1646.07752,0.01019
1644.01735,0.01161
1641.95718,0.01252
1639.89701,0.01241
1637.83683,0.01111
1635.77666,0.00957
1633.71649,0.01061
1631.65632,0.01159
1629.59614,0.01101
1627.53597,0.01087
1625.47580,0.01103
1623.41563,0.01076
1621.35546,0.01148
1619.29528,0.01131
1617.23511,0.00972
1615.17494,0.01009
1613.11477,0.01111
1611.05460,0.01067
1608.99442,0.00998
1606.93425,0.00992
1604.87408,0.00996
1602.81391,0.00977
1600.75373,0.00966
1598.69356,0.00950
1596.63339,0.00900
1594.57322,0.00845
1592.51305,0.00819
1590.45287,0.00802
1588.39270,0.00777
1586.33253,0.00740
1584.27236,0.00707
1582.21219,0.00708
1580.15201,0.00716
1578.09184,0.00606
1576.03167,0.00511
1573.97150,0.00650
1571.91133,0.00667
1569.85115,0.00520
1567.79098,0.00536
1565.73081,0.00605
1563.67064,0.00662
1561.61046,0.00540
1559.55029,0.00212
1557.49012,0.00346
1555.42995,0.00580
1553.36978,0.00580
1551.30960,0.00502
1549.24943,0.00472
1547.18926,0.00507
1545.12909,0.00479
1543.06892,0.00395
1541.00874,0.00243
1538.94857,0.00307
1536.88840,0.00530
1534.82823,0.00449
1532.76805,0.00317
1530.70788,0.00376
1528.64771,0.00380
1526.58754,0.00375
1524.52737,0.00427
1522.46719,0.00383
1520.40702,0.00395
1518.34685,0.00423
1516.28668,0.00376
1514.22651,0.00409
1512.16633,0.00444
1510.10616,0.00387
1508.04599,0.00166
1505.98582,0.00133
1503.92565,0.00366
1501.86547,0.00420
1499.80530,0.00295
1497.74513,0.00192
1495.68496,0.00252
1493.62478,0.00361
1491.56461,0.00293
1489.50444,0.00196
1487.44427,0.00239
1485.38410,0.00295
1483.32392,0.00275
1481.26375,0.00241
1479.20358,0.00273
1477.14341,0.00301
1475.08324,0.00272
1473.02306,0.00223
1470.96289,0.00320
1468.90272,0.00430
1466.84255,0.00361
1464.78238,0.00305
1462.72220,0.00431
1460.66203,0.00486
1458.60186,0.00338
1456.54169,0.00304
1454.48151,0.00477
1452.42134,0.00520
1450.36117,0.00443
1448.30100,0.00378
1446.24083,0.00396
1444.18065,0.00423
1442.12048,0.00423
1440.06031,0.00408
1438.00014,0.00305
1435.93997,0.00280
1433.87979,0.00395
1431.81962,0.00392
1429.75945,0.00337
1427.69928,0.00358
1425.63910,0.00370
1423.57893,0.00399
1421.51876,0.00414
1419.45859,0.00333
1417.39842,0.00354
1415.33824,0.00402
1413.27807,0.00359
1411.21790,0.00315
1409.15773,0.00328
1407.09756,0.00326
1405.03738,0.00311
1402.97721,0.00358
1400.91704,0.00369
1398.85687,0.00347
1396.79670,0.00351
1394.73652,0.00340
1392.67635,0.00385
1390.61618,0.00404
1388.55601,0.00333
1386.49583,0.00312
1384.43566,0.00372
1382.37549,0.00402
1380.31532,0.00412
1378.25515,0.00432
1376.19497,0.00429
1374.13480,0.00423
1372.07463,0.00475
1370.01446,0.00493
1367.95429,0.00482
1365.89411,0.00477
1363.83394,0.00423
1361.77377,0.00396
1359.71360,0.00433
1357.65343,0.00449
1355.59325,0.00431
1353.53308,0.00421
1351.47291,0.00425
1349.41274,0.00423
1347.35256,0.00421
1345.29239,0.00438
1343.23222,0.00460
1341.17205,0.00441
1339.11188,0.00422
1337.05170,0.00447
1334.99153,0.00449
1332.93136,0.00419
1330.87119,0.00403
1328.81102,0.00407
1326.75084,0.00407
1324.69067,0.00406
1322.63050,0.00408
1320.57033,0.00401
1318.51015,0.00404
1316.44998,0.00425
1314.38981,0.00423
1312.32964,0.00401
1310.26947,0.00378
1308.20929,0.00354
1306.14912,0.00345
1304.08895,0.00340
1302.02878,0.00334
1299.96861,0.00331
1297.90843,0.00314
1295.84826,0.00284
1293.78809,0.00272
1291.72792,0.00289
1289.66775,0.00314
1287.60757,0.00324
1285.54740,0.00320
1283.48723,0.00307
1281.42706,0.00297
1279.36688,0.00294
1277.30671,0.00298
1275.24654,0.00304
1273.18637,0.00296
1271.12620,0.00281
1269.06602,0.00283
1267.00585,0.00285
1264.94568,0.00281
1262.88551,0.00283
1260.82534,0.00283
1258.76516,0.00280
1256.70499,0.00281
1254.64482,0.00282
1252.58465,0.00276
1250.52447,0.00267
1248.46430,0.00268
1246.40413,0.00276
1244.34396,0.00272
1242.28379,0.00248
1240.22361,0.00227
1238.16344,0.00222
1236.10327,0.00225
1234.04310,0.00224
1231.98293,0.00217
1229.92275,0.00210
1227.86258,0.00209
1225.80241,0.00214
1223.74224,0.00217
1221.68207,0.00213
1219.62189,0.00212
1217.56172,0.00219
1215.50155,0.00223
1213.44138,0.00219
1211.38120,0.00222
1209.32103,0.00226
1207.26086,0.00225
1205.20069,0.00224
1203.14052,0.00222
1201.08034,0.00223
1199.02017,0.00225
1196.96000,0.00227
1194.89983,0.00242
1192.83966,0.00266
1190.77948,0.00274
1188.71931,0.00270
1186.65914,0.00279
1184.59897,0.00310
1182.53880,0.00356
1180.47862,0.00399
1178.41845,0.00438
1176.35828,0.00490
1174.29811,0.00554
1172.23793,0.00617
1170.17776,0.00677
1168.11759,0.00731
1166.05742,0.00784
1163.99725,0.00839
1161.93707,0.00891
1159.87690,0.00940
1157.81673,0.00979
1155.75656,0.01010
1153.69639,0.01049
1151.63621,0.01094
1149.57604,0.01132
1147.51587,0.01165
1145.45570,0.01205
1143.39552,0.01250
1141.33535,0.01299
1139.27518,0.01358
1137.21501,0.01423
1135.15484,0.01489
1133.09466,0.01555
1131.03449,0.01625
1128.97432,0.01692
1126.91415,0.01752
1124.85398,0.01822
1122.79380,0.01897
1120.73363,0.01965
1118.67346,0.02043
1116.61329,0.02126
1114.55312,0.02202
1112.49294,0.02277
1110.43277,0.02356
1108.37260,0.02432
1106.31243,0.02490
1104.25225,0.02538
1102.19208,0.02591
1100.13191,0.02644
1098.07174,0.02712
1096.01157,0.02800
1093.95139,0.02878
1091.89122,0.02935
1089.83105,0.02992
1087.77088,0.03055
1085.71071,0.03113
1083.65053,0.03154
1081.59036,0.03199
1079.53019,0.03258
1077.47002,0.03307
1075.40985,0.03335
1073.34967,0.03371
1071.28950,0.03435
1069.22933,0.03490
1067.16916,0.03495
1065.10898,0.03482
1063.04881,0.03493
1060.98864,0.03523
1058.92847,0.03537
1056.86830,0.03526
1054.80812,0.03507
1052.74795,0.03494
1050.68778,0.03488
1048.62761,0.03469
1046.56744,0.03422
1044.50726,0.03358
1042.44709,0.03291
1040.38692,0.03224
1038.32675,0.03165
1036.26657,0.03109
1034.20640,0.03050
1032.14623,0.02992
1030.08606,0.02944
1028.02589,0.02902
1025.96571,0.02859
1023.90554,0.02808
1021.84537,0.02763
1019.78520,0.02716
1017.72503,0.02658
1015.66485,0.02601
1013.60468,0.02551
1011.54451,0.02502
1009.48434,0.02466
1007.42417,0.02463
1005.36399,0.02477
1003.30382,0.02480
1001.24365,0.02473
999.18348,0.02470
997.12330,0.02460
995.06313,0.02463
993.00296,0.02506
990.94279,0.02554
988.88262,0.02595
986.82244,0.02634
984.76227,0.02649
982.70210,0.02639
980.64193,0.02615
978.58176,0.02571
976.52158,0.02523
974.46141,0.02472
972.40124,0.02410
970.34107,0.02343
968.28089,0.02262
966.22072,0.02162
964.16055,0.02061
962.10038,0.01971
960.04021,0.01874
957.98003,0.01760
955.91986,0.01667
953.85969,0.01608
951.79952,0.01568
949.73935,0.01547
947.67917,0.01536
945.61900,0.01517
943.55883,0.01493
941.49866,0.01476
939.43849,0.01471
937.37831,0.01461
935.31814,0.01424
933.25797,0.01373
931.19780,0.01343
929.13762,0.01345
927.07745,0.01356
925.01728,0.01342
922.95711,0.01300
920.89694,0.01265
918.83676,0.01245
916.77659,0.01217
914.71642,0.01189
912.65625,0.01179
910.59608,0.01162
908.53590,0.01130
906.47573,0.01105
904.41556,0.01073
902.35539,0.01023
900.29522,0.00997
898.23504,0.01011
896.17487,0.01037
894.11470,0.01062
892.05453,0.01076
889.99435,0.01086
887.93418,0.01107
885.87401,0.01120
883.81384,0.01114
881.75367,0.01109
879.69349,0.01126
877.63332,0.01164
875.57315,0.01193
873.51298,0.01197
871.45281,0.01184
869.39263,0.01148
867.33246,0.01107
865.27229,0.01105
863.21212,0.01138
861.15194,0.01164
859.09177,0.01158
857.03160,0.01127
854.97143,0.01088
852.91126,0.01052
850.85108,0.01022
848.79091,0.00993
846.73074,0.00953
844.67057,0.00914
842.61040,0.00897
840.55022,0.00888
838.49005,0.00840
836.42988,0.00786
834.36971,0.00760
832.30954,0.00719
830.24936,0.00675
828.18919,0.00624
826.12902,0.00551
824.06885,0.00526
822.00867,0.00564
819.94850,0.00572
817.88833,0.00528
815.82816,0.00496
813.76799,0.00484
811.70781,0.00458
809.64764,0.00444
807.58747,0.00444
805.52730,0.00395
803.46713,0.00324
801.40695,0.00328
799.34678,0.00379
797.28661,0.00403
795.22644,0.00406
793.16627,0.00394
791.10609,0.00372
789.04592,0.00359
786.98575,0.00335
784.92558,0.00287
782.86540,0.00265
780.80523,0.00263
778.74506,0.00230
776.68489,0.00181
774.62472,0.00143
772.56454,0.00142
770.50437,0.00182
768.44420,0.00232
766.38403,0.00259
764.32386,0.00240
762.26368,0.00204
760.20351,0.00200
758.14334,0.00218
756.08317,0.00211
754.02299,0.00173
751.96282,0.00148
749.90265,0.00136
747.84248,0.00142
745.78231,0.00190
743.72213,0.00204
741.66196,0.00134
739.60179,0.00085
737.54162,0.00130
735.48145,0.00179
733.42127,0.00158
731.36110,0.00113
729.30093,0.00074
727.24076,0.00036
725.18059,0.00023
723.12041,0.00061
721.06024,0.00100
719.00007,0.00126
716.93990,0.00134
714.87972,0.00127
712.81955,0.00130
710.75938,0.00162
708.69921,0.00206
706.63904,0.00199
704.57886,0.00136
702.51869,0.00119
700.45852,0.00170
698.39835,0.00189
696.33818,0.00137
694.27800,0.00076
692.21783,0.00064
690.15766,0.00117
688.09749,0.00213
686.03731,0.00277
683.97714,0.00246
681.91697,0.00135
679.85680,0.00017
677.79663,0.00000
675.73645,0.00097
673.67628,0.00210
671.61611,0.00285
669.55594,0.00314
667.49577,0.00203
665.43559,0.00005
663.37542,-0.00055
661.31525,0.00015
659.25508,0.00150
657.19491,0.00253
655.13473,0.00197
653.07456,0.00046
651.01439,-0.00004
648.95422,0.00059
646.89404,0.00121
644.83387,0.00171
642.77370,0.00236
640.71353,0.00298
638.65336,0.00307
636.59318,0.00226
634.53301,0.00129
632.47284,0.00097
630.41267,0.00087
628.35250,0.00088
626.29232,0.00178
624.23215,0.00306
622.17198,0.00334
620.11181,0.00348
618.05164,0.00377
615.99146,0.00363
613.93129,0.00291
611.87112,0.00113
609.81095,-0.00022
607.75077,0.00047
605.69060,0.00076
603.63043,-0.00094
601.57026,-0.00139
599.51009,0.00000
