3996.73391,0.00103
3994.67373,0.00105
3992.61356,0.00075
3990.55339,0.00046
3988.49322,0.00044
3986.43305,0.00035
3984.37287,0.00024
3982.31270,0.00039
3980.25253,0.00064
3978.19236,0.00066
3976.13219,0.00046
3974.07201,0.00042
3972.01184,0.00069
3969.95167,0.00081
3967.89150,0.00047
3965.83133,0.00005
3963.77115,0.00000
3961.71098,0.00031
3959.65081,0.00084
3957.59064,0.00128
3955.53046,0.00124
3953.47029,0.00083
3951.41012,0.00044
3949.34995,0.00030
3947.28978,0.00039
3945.22960,0.00048
3943.16943,0.00053
3941.10926,0.00059
3939.04909,0.00069
3936.98892,0.00086
3934.92874,0.00087
3932.86857,0.00064
3930.80840,0.00048
3928.74823,0.00064
3926.68805,0.00095
3924.62788,0.00113
3922.56771,0.00100
3920.50754,0.00063
3918.44737,0.00031
3916.38719,0.00027
3914.32702,0.00054
3912.26685,0.00091
3910.20668,0.00106
3908.14651,0.00091
3906.08633,0.00068
3904.02616,0.00058
3901.96599,0.00064
3899.90582,0.00081
3897.84565,0.00099
3895.78547,0.00098
3893.72530,0.00094
3891.66513,0.00103
3889.60496,0.00114
3887.54478,0.00117
3885.48461,0.00107
3883.42444,0.00066
3881.36427,0.00018
3879.30410,0.00026
3877.24392,0.00091
3875.18375,0.00147
3873.12358,0.00158
3871.06341,0.00140
3869.00324,0.00125
3866.94306,0.00119
3864.88289,0.00103
3862.82272,0.00081
3860.76255,0.00066
3858.70237,0.00055
3856.64220,0.00067
3854.58203,0.00102
3852.52186,0.00109
3850.46169,0.00093
3848.40151,0.00083
3846.34134,0.00072
3844.28117,0.00059
3842.22100,0.00050
3840.16083,0.00030
3838.10065,0.00000
3836.04048,0.00007
3833.98031,0.00044
3831.92014,0.00080
3829.85997,0.00110
3827.79979,0.00120
3825.73962,0.00108
3823.67945,0.00104
3821.61928,0.00129
3819.55910,0.00161
3817.49893,0.00172
3815.43876,0.00161
3813.37859,0.00130
3811.31842,0.00088
3809.25824,0.00058
3807.19807,0.00065
3805.13790,0.00085
3803.07773,0.00081
3801.01756,0.00079
3798.95738,0.00100
3796.89721,0.00107
3794.83704,0.00094
3792.77687,0.00088
3790.71670,0.00098
3788.65652,0.00105
3786.59635,0.00099
3784.53618,0.00111
3782.47601,0.00142
3780.41583,0.00161
3778.35566,0.00160
3776.29549,0.00168
3774.23532,0.00196
3772.17515,0.00220
3770.11497,0.00206
3768.05480,0.00154
3765.99463,0.00103
3763.93446,0.00094
3761.87429,0.00108
3759.81411,0.00095
3757.75394,0.00076
3755.69377,0.00094
3753.63360,0.00140
3751.57342,0.00176
3749.51325,0.00156
3747.45308,0.00101
3745.39291,0.00089
3743.33274,0.00122
3741.27256,0.00156
3739.21239,0.00167
3737.15222,0.00120
3735.09205,0.00029
3733.03188,0.00000
3730.97170,0.00076
3728.91153,0.00171
3726.85136,0.00227
3724.79119,0.00238
3722.73102,0.00201
3720.67084,0.00160
3718.61067,0.00151
3716.55050,0.00147
3714.49033,0.00109
3712.43015,0.00058
3710.36998,0.00064
3708.30981,0.00118
3706.24964,0.00153
3704.18947,0.00141
3702.12929,0.00112
3700.06912,0.00117
3698.00895,0.00148
3695.94878,0.00167
3693.88861,0.00165
3691.82843,0.00158
3689.76826,0.00156
3687.70809,0.00178
3685.64792,0.00194
3683.58775,0.00183
3681.52757,0.00182
3679.46740,0.00202
3677.40723,0.00200
3675.34706,0.00175
3673.28688,0.00207
3671.22671,0.00265
3669.16654,0.00250
3667.10637,0.00183
3665.04620,0.00152
3662.98602,0.00171
3660.92585,0.00192
3658.86568,0.00201
3656.80551,0.00222
3654.74534,0.00228
3652.68516,0.00187
3650.62499,0.00151
3648.56482,0.00159
3646.50465,0.00177
3644.44447,0.00199
3642.38430,0.00231
3640.32413,0.00253
3638.26396,0.00273
3636.20379,0.00300
3634.14361,0.00305
3632.08344,0.00283
3630.02327,0.00283
3627.96310,0.00353
3625.90293,0.00438
3623.84275,0.00468
3621.78258,0.00447
3619.72241,0.00414
3617.66224,0.00403
3615.60207,0.00407
3613.54189,0.00400
3611.48172,0.00379
3609.42155,0.00389
3607.36138,0.00453
3605.30120,0.00508
3603.24103,0.00508
3601.18086,0.00490
3599.12069,0.00493
3597.06052,0.00493
3595.00034,0.00479
3592.94017,0.00474
3590.88000,0.00475
3588.81983,0.00466
3586.75966,0.00477
3584.69948,0.00515
3582.63931,0.00562
3580.57914,0.00623
3578.51897,0.00682
3576.45879,0.00706
3574.39862,0.00712
3572.33845,0.00731
3570.27828,0.00758
3568.21811,0.00780
3566.15793,0.00786
3564.09776,0.00773
3562.03759,0.00762
3559.97742,0.00769
3557.91725,0.00789
3555.85707,0.00800
3553.79690,0.00796
3551.73673,0.00788
3549.67656,0.00783
3547.61639,0.00788
3545.55621,0.00830
3543.49604,0.00897
3541.43587,0.00922
3539.37570,0.00910
3537.31552,0.00918
3535.25535,0.00963
3533.19518,0.01016
3531.13501,0.01049
3529.07484,0.01053
3527.01466,0.01034
3524.95449,0.01012
3522.89432,0.01001
3520.83415,0.00998
3518.77398,0.00999
3516.71380,0.01000
3514.65363,0.01002
3512.59346,0.01018
3510.53329,0.01047
3508.47312,0.01080
3506.41294,0.01113
3504.35277,0.01145
3502.29260,0.01172
3500.23243,0.01189
3498.17225,0.01189
3496.11208,0.01192
3494.05191,0.01211
3491.99174,0.01225
3489.93157,0.01217
3487.87139,0.01198
3485.81122,0.01190
3483.75105,0.01208
3481.69088,0.01244
3479.63071,0.01274
3477.57053,0.01295
3475.51036,0.01310
3473.45019,0.01316
3471.39002,0.01325
3469.32984,0.01339
3467.26967,0.01346
3465.20950,0.01358
3463.14933,0.01365
3461.08916,0.01349
3459.02898,0.01357
3456.96881,0.01405
3454.90864,0.01424
3452.84847,0.01393
3450.78830,0.01379
3448.72812,0.01410
3446.66795,0.01442
3444.60778,0.01433
3442.54761,0.01415
3440.48744,0.01423
3438.42726,0.01450
3436.36709,0.01479
3434.30692,0.01500
3432.24675,0.01515
3430.18657,0.01535
3428.12640,0.01555
3426.06623,0.01562
3424.00606,0.01563
3421.94589,0.01580
3419.88571,0.01605
3417.82554,0.01625
3415.76537,0.01622
3413.70520,0.01605
3411.64503,0.01607
3409.58485,0.01636
3407.52468,0.01656
3405.46451,0.01665
3403.40434,0.01687
3401.34416,0.01711
3399.28399,0.01714
3397.22382,0.01713
3395.16365,0.01726
3393.10348,0.01729
3391.04330,0.01719
3388.98313,0.01722
3386.92296,0.01737
3384.86279,0.01741
3382.80262,0.01734
3380.74244,0.01734
3378.68227,0.01736
3376.62210,0.01748
3374.56193,0.01777
3372.50176,0.01797
3370.44158,0.01792
3368.38141,0.01785
3366.32124,0.01793
3364.26107,0.01799
3362.20089,0.01798
3360.14072,0.01800
3358.08055,0.01807
3356.02038,0.01812
3353.96021,0.01806
3351.90003,0.01805
3349.83986,0.01820
3347.77969,0.01838
3345.71952,0.01861
3343.65935,0.01895
3341.59917,0.01911
3339.53900,0.01905
3337.47883,0.01908
3335.41866,0.01920
3333.35849,0.01909
3331.29831,0.01877
3329.23814,0.01862
3327.17797,0.01872
3325.11780,0.01894
3323.05762,0.01923
3320.99745,0.01941
3318.93728,0.01925
3316.87711,0.01909
3314.81694,0.01922
3312.75676,0.01932
3310.69659,0.01934
3308.63642,0.01934
3306.57625,0.01926
3304.51608,0.01929
3302.45590,0.01943
3300.39573,0.01958
3298.33556,0.01968
3296.27539,0.01959
3294.21521,0.01939
3292.15504,0.01930
3290.09487,0.01947
3288.03470,0.01979
3285.97453,0.01994
3283.91435,0.01997
3281.85418,0.02008
3279.79401,0.02020
3277.73384,0.02030
3275.67367,0.02044
3273.61349,0.02057
3271.55332,0.02054
3269.49315,0.02037
3267.43298,0.02026
3265.37281,0.02032
3263.31263,0.02062
3261.25246,0.02093
3259.19229,0.02078
3257.13212,0.02029
3255.07194,0.02006
3253.01177,0.02024
3250.95160,0.02052
3248.89143,0.02053
3246.83126,0.02029
3244.77108,0.02030
3242.71091,0.02055
3240.65074,0.02053
3238.59057,0.02026
3236.53040,0.02033
3234.47022,0.02073
3232.41005,0.02092
3230.34988,0.02098
3228.28971,0.02122
3226.22954,0.02140
3224.16936,0.02117
3222.10919,0.02087
3220.04902,0.02086
3217.98885,0.02089
3215.92867,0.02089
3213.86850,0.02093
3211.80833,0.02089
3209.74816,0.02077
3207.68799,0.02062
3205.62781,0.02044
3203.56764,0.02044
3201.50747,0.02070
3199.44730,0.02087
3197.38713,0.02088
3195.32695,0.02094
3193.26678,0.02106
3191.20661,0.02117
3189.14644,0.02109
3187.08626,0.02083
3185.02609,0.02076
3182.96592,0.02099
3180.90575,0.02112
3178.84558,0.02086
3176.78540,0.02054
3174.72523,0.02047
3172.66506,0.02062
3170.60489,0.02079
3168.54472,0.02081
3166.48454,0.02071
3164.42437,0.02052
3162.36420,0.02033
3160.30403,0.02024
3158.24386,0.02030
3156.18368,0.02045
3154.12351,0.02063
3152.06334,0.02078
3150.00317,0.02071
3147.94299,0.02038
3145.88282,0.02019
3143.82265,0.02035
3141.76248,0.02056
3139.70231,0.02059
3137.64213,0.02037
3135.58196,0.02011
3133.52179,0.02014
3131.46162,0.02036
3129.40145,0.02047
3127.34127,0.02036
3125.28110,0.02011
3123.22093,0.01994
3121.16076,0.01998
3119.10058,0.02004
3117.04041,0.01986
3114.98024,0.01957
3112.92007,0.01944
3110.85990,0.01953
3108.79972,0.01963
3106.73955,0.01952
3104.67938,0.01926
3102.61921,0.01915
3100.55904,0.01925
3098.49886,0.01938
3096.43869,0.01931
3094.37852,0.01906
3092.31835,0.01891
3090.25818,0.01892
3088.19800,0.01899
3086.13783,0.01907
3084.07766,0.01905
3082.01749,0.01885
3079.95731,0.01862
3077.89714,0.01865
3075.83697,0.01878
3073.77680,0.01878
3071.71663,0.01877
3069.65645,0.01878
3067.59628,0.01880
3065.53611,0.01884
3063.47594,0.01872
3061.41577,0.01835
3059.35559,0.01794
3057.29542,0.01774
3055.23525,0.01781
3053.17508,0.01791
3051.11491,0.01778
3049.05473,0.01757
3046.99456,0.01754
3044.93439,0.01760
3042.87422,0.01752
3040.81404,0.01735
3038.75387,0.01727
3036.69370,0.01733
3034.63353,0.01736
3032.57336,0.01725
3030.51318,0.01709
3028.45301,0.01696
3026.39284,0.01683
3024.33267,0.01680
3022.27250,0.01685
3020.21232,0.01674
3018.15215,0.01643
3016.09198,0.01618
3014.03181,0.01616
3011.97163,0.01626
3009.91146,0.01630
3007.85129,0.01608
3005.79112,0.01582
3003.73095,0.01581
3001.67077,0.01583
2999.61060,0.01580
2997.55043,0.01591
2995.49026,0.01604
2993.43009,0.01600
2991.36991,0.01586
2989.30974,0.01572
2987.24957,0.01555
2985.18940,0.01538
2983.12923,0.01529
2981.06905,0.01515
2979.00888,0.01491
2976.94871,0.01467
2974.88854,0.01458
2972.82836,0.01476
2970.76819,0.01497
2968.70802,0.01487
2966.64785,0.01466
2964.58768,0.01473
2962.52750,0.01493
2960.46733,0.01497
2958.40716,0.01484
2956.34699,0.01474
2954.28682,0.01478
2952.22664,0.01477
2950.16647,0.01471
2948.10630,0.01484
2946.04613,0.01517
2943.98596,0.01533
2941.92578,0.01519
2939.86561,0.01497
2937.80544,0.01486
2935.74527,0.01484
2933.68509,0.01472
2931.62492,0.01453
2929.56475,0.01443
2927.50458,0.01445
2925.44441,0.01451
2923.38423,0.01455
2921.32406,0.01459
2919.26389,0.01463
2917.20372,0.01458
2915.14355,0.01445
2913.08337,0.01429
2911.02320,0.01423
2908.96303,0.01423
2906.90286,0.01411
2904.84268,0.01413
2902.78251,0.01433
2900.72234,0.01434
2898.66217,0.01408
2896.60200,0.01387
2894.54182,0.01384
2892.48165,0.01381
2890.42148,0.01375
2888.36131,0.01390
2886.30114,0.01415
2884.24096,0.01422
2882.18079,0.01413
2880.12062,0.01392
2878.06045,0.01379
2876.00028,0.01392
2873.94010,0.01412
2871.87993,0.01418
2869.81976,0.01395
2867.75959,0.01363
2865.69941,0.01354
2863.63924,0.01352
2861.57907,0.01342
2859.51890,0.01340
2857.45873,0.01349
2855.39855,0.01354
2853.33838,0.01350
2851.27821,0.01344
2849.21804,0.01341
2847.15787,0.01333
2845.09769,0.01324
2843.03752,0.01323
2840.97735,0.01329
2838.91718,0.01338
2836.85700,0.01334
2834.79683,0.01317
2832.73666,0.01303
2830.67649,0.01293
2828.61632,0.01278
2826.55614,0.01269
2824.49597,0.01284
2822.43580,0.01307
2820.37563,0.01305
2818.31546,0.01279
2816.25528,0.01248
2814.19511,0.01225
2812.13494,0.01225
2810.07477,0.01233
2808.01460,0.01230
2805.95442,0.01228
2803.89425,0.01225
2801.83408,0.01226
2799.77391,0.01236
2797.71373,0.01230
2795.65356,0.01225
2793.59339,0.01236
2791.53322,0.01231
2789.47305,0.01214
2787.41287,0.01223
2785.35270,0.01243
2783.29253,0.01250
2781.23236,0.01240
2779.17219,0.01218
2777.11201,0.01193
2775.05184,0.01175
2772.99167,0.01173
2770.93150,0.01188
2768.87133,0.01198
2766.81115,0.01197
2764.75098,0.01197
2762.69081,0.01193
2760.63064,0.01177
2758.57046,0.01171
2756.51029,0.01180
2754.45012,0.01184
2752.38995,0.01167
2750.32978,0.01147
2748.26960,0.01136
2746.20943,0.01127
2744.14926,0.01120
2742.08909,0.01116
2740.02892,0.01112
2737.96874,0.01111
2735.90857,0.01114
2733.84840,0.01112
2731.78823,0.01095
2729.72805,0.01070
2727.66788,0.01055
2725.60771,0.01058
2723.54754,0.01063
2721.48737,0.01062
2719.42719,0.01067
2717.36702,0.01074
2715.30685,0.01065
2713.24668,0.01049
2711.18651,0.01038
2709.12633,0.01036
2707.06616,0.01036
2705.00599,0.01031
2702.94582,0.01018
2700.88565,0.00995
2698.82547,0.00969
2696.76530,0.00960
2694.70513,0.00968
2692.64496,0.00976
2690.58478,0.00977
2688.52461,0.00988
2686.46444,0.00995
2684.40427,0.00978
2682.34410,0.00963
2680.28392,0.00959
2678.22375,0.00960
2676.16358,0.00969
2674.10341,0.00963
2672.04324,0.00940
2669.98306,0.00929
2667.92289,0.00927
2665.86272,0.00929
2663.80255,0.00924
2661.74238,0.00899
2659.68220,0.00880
2657.62203,0.00879
2655.56186,0.00881
2653.50169,0.00885
2651.44151,0.00881
2649.38134,0.00867
2647.32117,0.00848
2645.26100,0.00828
2643.20083,0.00817
2641.14065,0.00816
2639.08048,0.00813
2637.02031,0.00806
2634.96014,0.00809
2632.89997,0.00828
2630.83979,0.00834
2628.77962,0.00818
2626.71945,0.00814
2624.65928,0.00817
2622.59910,0.00803
2620.53893,0.00784
2618.47876,0.00772
2616.41859,0.00767
2614.35842,0.00782
2612.29824,0.00794
2610.23807,0.00773
2608.17790,0.00750
2606.11773,0.00737
2604.05756,0.00711
2601.99738,0.00695
2599.93721,0.00725
2597.87704,0.00764
2595.81687,0.00765
2593.75670,0.00749
2591.69652,0.00734
2589.63635,0.00728
2587.57618,0.00732
2585.51601,0.00728
2583.45583,0.00714
2581.39566,0.00707
2579.33549,0.00703
2577.27532,0.00716
2575.21515,0.00729
2573.15497,0.00688
2571.09480,0.00648
2569.03463,0.00660
2566.97446,0.00686
2564.91429,0.00692
2562.85411,0.00671
2560.79394,0.00653
2558.73377,0.00671
2556.67360,0.00686
2554.61342,0.00668
2552.55325,0.00668
2550.49308,0.00690
2548.43291,0.00704
2546.37274,0.00708
2544.31256,0.00698
2542.25239,0.00678
2540.19222,0.00676
2538.13205,0.00710
2536.07188,0.00731
2534.01170,0.00703
2531.95153,0.00668
2529.89136,0.00643
2527.83119,0.00626
2525.77102,0.00634
2523.71084,0.00650
2521.65067,0.00645
2519.59050,0.00655
2517.53033,0.00694
2515.47015,0.00715
2513.40998,0.00712
2511.34981,0.00702
2509.28964,0.00683
2507.22947,0.00673
2505.16929,0.00685
2503.10912,0.00705
2501.04895,0.00708
2498.98878,0.00696
2496.92861,0.00703
2494.86843,0.00750
2492.80826,0.00779
2490.74809,0.00734
2488.68792,0.00686
2486.62775,0.00697
2484.56757,0.00724
2482.50740,0.00736
2480.44723,0.00745
2478.38706,0.00764
2476.32688,0.00783
2474.26671,0.00770
2472.20654,0.00736
2470.14637,0.00716
2468.08620,0.00725
2466.02602,0.00762
2463.96585,0.00791
2461.90568,0.00795
2459.84551,0.00801
2457.78534,0.00798
2455.72516,0.00768
2453.66499,0.00754
2451.60482,0.00768
2449.54465,0.00775
2447.48447,0.00771
2445.42430,0.00771
2443.36413,0.00757
2441.30396,0.00727
2439.24379,0.00727
2437.18361,0.00760
2435.12344,0.00763
2433.06327,0.00739
2431.00310,0.00732
2428.94293,0.00737
2426.88275,0.00731
2424.82258,0.00738
2422.76241,0.00771
2420.70224,0.00786
2418.64207,0.00781
2416.58189,0.00769
2414.52172,0.00746
2412.46155,0.00738
2410.40138,0.00758
2408.34120,0.00787
2406.28103,0.00818
2404.22086,0.00821
2402.16069,0.00780
2400.10052,0.00746
2398.04034,0.00751
2395.98017,0.00782
2393.92000,0.00788
2391.85983,0.00770
2389.79966,0.00768
2387.73948,0.00777
2385.67931,0.00767
2383.61914,0.00739
2381.55897,0.00721
2379.49880,0.00732
2377.43862,0.00744
2375.37845,0.00733
2373.31828,0.00777
2371.25811,0.00907
2369.19793,0.01013
2367.13776,0.01049
2365.07759,0.01031
2363.01742,0.00908
2360.95725,0.00782
2358.89707,0.00710
2356.83690,0.00776
2354.77673,0.00858
2352.71656,0.00836
2350.65639,0.00872
2348.59621,0.00924
2346.53604,0.00798
2344.47587,0.00730
2342.41570,0.00724
2340.35552,0.00761
2338.29535,0.00839
2336.23518,0.00867
2334.17501,0.00832
2332.11484,0.00794
2330.05466,0.00790
2327.99449,0.00782
2325.93432,0.00785
2323.87415,0.00765
2321.81398,0.00768
2319.75380,0.00767
2317.69363,0.00774
2315.63346,0.00764
2313.57329,0.00732
2311.51312,0.00696
2309.45294,0.00692
2307.39277,0.00726
2305.33260,0.00752
2303.27243,0.00742
2301.21225,0.00720
2299.15208,0.00727
2297.09191,0.00749
2295.03174,0.00752
2292.97157,0.00723
2290.91139,0.00687
2288.85122,0.00673
2286.79105,0.00678
2284.73088,0.00671
2282.67071,0.00644
2280.61053,0.00638
2278.55036,0.00687
2276.49019,0.00750
2274.43002,0.00747
2272.36984,0.00684
2270.30967,0.00658
2268.24950,0.00691
2266.18933,0.00686
2264.12916,0.00619
2262.06898,0.00576
2260.00881,0.00577
2257.94864,0.00595
2255.88847,0.00621
2253.82830,0.00632
2251.76812,0.00604
2249.70795,0.00538
2247.64778,0.00480
2245.58761,0.00491
2243.52744,0.00566
2241.46726,0.00619
2239.40709,0.00616
2237.34692,0.00586
2235.28675,0.00564
2233.22657,0.00567
2231.16640,0.00551
2229.10623,0.00499
2227.04606,0.00481
2224.98589,0.00522
2222.92571,0.00530
2220.86554,0.00491
2218.80537,0.00454
2216.74520,0.00420
2214.68503,0.00432
2212.62485,0.00489
2210.56468,0.00522
2208.50451,0.00528
2206.44434,0.00536
2204.38417,0.00535
2202.32399,0.00488
2200.26382,0.00404
2198.20365,0.00357
2196.14348,0.00333
2194.08330,0.00324
2192.02313,0.00383
2189.96296,0.00476
2187.90279,0.00538
2185.84262,0.00441
2183.78244,0.00209
2181.72227,0.00173
2179.66210,0.00321
2177.60193,0.00336
2175.54176,0.00304
2173.48158,0.00386
2171.42141,0.00458
2169.36124,0.00490
2167.30107,0.00545
2165.24089,0.00581
2163.18072,0.00491
2161.12055,0.00299
2159.06038,0.00173
2157.00021,0.00191
2154.94003,0.00265
2152.87986,0.00326
2150.81969,0.00382
2148.75952,0.00392
2146.69935,0.00354
2144.63917,0.00323
2142.57900,0.00299
2140.51883,0.00284
2138.45866,0.00268
2136.39849,0.00210
2134.33831,0.00154
2132.27814,0.00215
2130.21797,0.00348
2128.15780,0.00418
2126.09762,0.00380
2124.03745,0.00300
2121.97728,0.00307
2119.91711,0.00359
2117.85694,0.00357
2115.79676,0.00337
2113.73659,0.00326
2111.67642,0.00325
2109.61625,0.00351
2107.55608,0.00399
2105.49590,0.00412
2103.43573,0.00362
2101.37556,0.00301
2099.31539,0.00285
2097.25521,0.00312
2095.19504,0.00334
2093.13487,0.00322
2091.07470,0.00293
2089.01453,0.00283
2086.95435,0.00321
2084.89418,0.00352
2082.83401,0.00327
2080.77384,0.00293
2078.71367,0.00281
2076.65349,0.00266
2074.59332,0.00273
2072.53315,0.00317
2070.47298,0.00355
2068.41281,0.00365
2066.35263,0.00353
2064.29246,0.00319
2062.23229,0.00261
2060.17212,0.00223
2058.11194,0.00296
2056.05177,0.00440
2053.99160,0.00479
2051.93143,0.00386
2049.87126,0.00277
2047.81108,0.00284
2045.75091,0.00447
2043.69074,0.00592
2041.63057,0.00570
2039.57040,0.00447
2037.51022,0.00325
2035.45005,0.00224
2033.38988,0.00172
2031.32971,0.00156
2029.26954,0.00133
2027.20936,0.00091
2025.14919,0.00018
2023.08902,0.00000
2021.02885,0.00090
2018.96867,0.00180
2016.90850,0.00239
2014.84833,0.00307
2012.78816,0.00312
2010.72799,0.00218
2008.66781,0.00147
2006.60764,0.00174
2004.54747,0.00197
2002.48730,0.00150
2000.42713,0.00113
1998.36695,0.00155
1996.30678,0.00239
1994.24661,0.00280
1992.18644,0.00292
1990.12626,0.00336
1988.06609,0.00316
1986.00592,0.00225
1983.94575,0.00201
1981.88558,0.00261
1979.82540,0.00295
1977.76523,0.00210
1975.70506,0.00074
1973.64489,0.00028
1971.58472,0.00072
1969.52454,0.00142
1967.46437,0.00216
1965.40420,0.00219
1963.34403,0.00112
1961.28386,0.00000
1959.22368,0.00007
1957.16351,0.00142
1955.10334,0.00280
1953.04317,0.00321
1950.98299,0.00241
1948.92282,0.00114
1946.86265,0.00103
1944.80248,0.00212
1942.74231,0.00298
1940.68213,0.00307
1938.62196,0.00270
1936.56179,0.00212
1934.50162,0.00150
1932.44145,0.00103
1930.38127,0.00112
1928.32110,0.00181
1926.26093,0.00236
1924.20076,0.00230
1922.14059,0.00196
1920.08041,0.00184
1918.02024,0.00208
1915.96007,0.00247
1913.89990,0.00289
1911.83972,0.00320
1909.77955,0.00313
1907.71938,0.00276
1905.65921,0.00271
1903.59904,0.00295
1901.53886,0.00276
1899.47869,0.00202
1897.41852,0.00150
1895.35835,0.00156
1893.29818,0.00177
1891.23800,0.00188
1889.17783,0.00199
1887.11766,0.00210
1885.05749,0.00231
1882.99731,0.00265
1880.93714,0.00288
1878.87697,0.00282
1876.81680,0.00254
1874.75663,0.00219
1872.69645,0.00191
1870.63628,0.00186
1868.57611,0.00214
1866.51594,0.00247
1864.45577,0.00251
1862.39559,0.00237
1860.33542,0.00235
1858.27525,0.00255
1856.21508,0.00268
1854.15491,0.00255
1852.09473,0.00235
1850.03456,0.00222
1847.97439,0.00203
1845.91422,0.00186
1843.85404,0.00208
1841.79387,0.00255
1839.73370,0.00276
1837.67353,0.00280
1835.61336,0.00290
1833.55318,0.00289
1831.49301,0.00269
1829.43284,0.00270
1827.37267,0.00298
1825.31250,0.00310
1823.25232,0.00311
1821.19215,0.00325
1819.13198,0.00330
1817.07181,0.00307
1815.01163,0.00281
1812.95146,0.00266
1810.89129,0.00261
1808.83112,0.00283
1806.77095,0.00323
1804.71077,0.00347
1802.65060,0.00336
1800.59043,0.00307
1798.53026,0.00291
1796.47009,0.00289
1794.40991,0.00287
1792.34974,0.00289
1790.28957,0.00297
1788.22940,0.00307
1786.16923,0.00316
1784.10905,0.00309
1782.04888,0.00286
1779.98871,0.00280
1777.92854,0.00295
1775.86836,0.00301
1773.80819,0.00291
1771.74802,0.00290
1769.68785,0.00312
1767.62768,0.00348
1765.56750,0.00374
1763.50733,0.00379
1761.44716,0.00380
1759.38699,0.00382
1757.32682,0.00383
1755.26664,0.00381
1753.20647,0.00374
1751.14630,0.00357
1749.08613,0.00333
1747.02596,0.00322
1744.96578,0.00340
1742.90561,0.00378
1740.84544,0.00412
1738.78527,0.00416
1736.72509,0.00385
1734.66492,0.00346
1732.60475,0.00342
1730.54458,0.00375
1728.48441,0.00408
1726.42423,0.00430
1724.36406,0.00450
1722.30389,0.00466
1720.24372,0.00463
1718.18355,0.00451
1716.12337,0.00462
1714.06320,0.00487
1712.00303,0.00498
1709.94286,0.00495
1707.88268,0.00490
1705.82251,0.00492
1703.76234,0.00498
1701.70217,0.00491
1699.64200,0.00475
1697.58182,0.00488
1695.52165,0.00539
1693.46148,0.00588
1691.40131,0.00603
1689.34114,0.00602
1687.28096,0.00599
1685.22079,0.00604
1683.16062,0.00635
1681.10045,0.00667
1679.04028,0.00678
1676.98010,0.00684
1674.91993,0.00684
1672.85976,0.00677
1670.79959,0.00689
1668.73941,0.00720
1666.67924,0.00736
1664.61907,0.00738
1662.55890,0.00753
1660.49873,0.00770
1658.43855,0.00763
1656.37838,0.00746
1654.31821,0.00750
1652.25804,0.00771
1650.19787,0.00763
1648.13769,0.00735
1646.07752,0.00720
1644.01735,0.00715
1641.95718,0.00709
1639.89701,0.00711
1637.83683,0.00722
1635.77666,0.00741
1633.71649,0.00748
1631.65632,0.00718
1629.59614,0.00677
1627.53597,0.00658
1625.47580,0.00668
1623.41563,0.00700
1621.35546,0.00727
1619.29528,0.00728
1617.23511,0.00721
1615.17494,0.00726
1613.11477,0.00723
1611.05460,0.00703
1608.99442,0.00681
1606.93425,0.00676
1604.87408,0.00685
1602.81391,0.00684
1600.75373,0.00667
1598.69356,0.00644
1596.63339,0.00616
1594.57322,0.00590
1592.51305,0.00574
1590.45287,0.00560
1588.39270,0.00544
1586.33253,0.00535
1584.27236,0.00533
1582.21219,0.00528
1580.15201,0.00507
1578.09184,0.00480
1576.03167,0.00464
1573.97150,0.00453
1571.91133,0.00426
1569.85115,0.00399
1567.79098,0.00399
1565.73081,0.00409
1563.67064,0.00403
1561.61046,0.00375
1559.55029,0.00330
1557.49012,0.00319
1555.42995,0.00341
1553.36978,0.00355
1551.30960,0.00343
1549.24943,0.00319
1547.18926,0.00297
1545.12909,0.00265
1543.06892,0.00218
1541.00874,0.00198
1538.94857,0.00233
1536.88840,0.00267
1534.82823,0.00274
1532.76805,0.00263
1530.70788,0.00252
1528.64771,0.00245
1526.58754,0.00234
1524.52737,0.00212
1522.46719,0.00181
1520.40702,0.00169
1518.34685,0.00189
1516.28668,0.00218
1514.22651,0.00228
1512.16633,0.00209
1510.10616,0.00163
1508.04599,0.00120
1505.98582,0.00128
1503.92565,0.00164
1501.86547,0.00175
1499.80530,0.00163
1497.74513,0.00159
1495.68496,0.00182
1493.62478,0.00206
1491.56461,0.00204
1489.50444,0.00181
1487.44427,0.00173
1485.38410,0.00185
1483.32392,0.00202
1481.26375,0.00218
1479.20358,0.00221
1477.14341,0.00203
1475.08324,0.00185
1473.02306,0.00193
1470.96289,0.00220
1468.90272,0.00236
1466.84255,0.00234
1464.78238,0.00229
1462.72220,0.00225
1460.66203,0.00202
1458.60186,0.00163
1456.54169,0.00163
1454.48151,0.00209
1452.42134,0.00240
1450.36117,0.00242
1448.30100,0.00233
1446.24083,0.00233
1444.18065,0.00244
1442.12048,0.00249
1440.06031,0.00236
1438.00014,0.00211
1435.93997,0.00199
1433.87979,0.00207
1431.81962,0.00214
1429.75945,0.00220
1427.69928,0.00232
1425.63910,0.00233
1423.57893,0.00218
1421.51876,0.00201
1419.45859,0.00206
1417.39842,0.00230
1415.33824,0.00245
1413.27807,0.00245
1411.21790,0.00245
1409.15773,0.00253
1407.09756,0.00254
1405.03738,0.00252
1402.97721,0.00254
1400.91704,0.00249
1398.85687,0.00229
1396.79670,0.00210
1394.73652,0.00214
1392.67635,0.00233
1390.61618,0.00246
1388.55601,0.00246
1386.49583,0.00247
1384.43566,0.00251
1382.37549,0.00253
1380.31532,0.00254
1378.25515,0.00252
1376.19497,0.00240
1374.13480,0.00232
1372.07463,0.00244
1370.01446,0.00264
1367.95429,0.00275
1365.89411,0.00272
1363.83394,0.00263
1361.77377,0.00259
1359.71360,0.00254
1357.65343,0.00241
1355.59325,0.00227
1353.53308,0.00231
1351.47291,0.00253
1349.41274,0.00269
1347.35256,0.00271
1345.29239,0.00270
1343.23222,0.00265
1341.17205,0.00253
1339.11188,0.00239
1337.05170,0.00229
1334.99153,0.00226
1332.93136,0.00237
1330.87119,0.00254
1328.81102,0.00262
1326.75084,0.00261
1324.69067,0.00252
1322.63050,0.00248
1320.57033,0.00258
1318.51015,0.00274
1316.44998,0.00276
1314.38981,0.00264
1312.32964,0.00257
1310.26947,0.00263
1308.20929,0.00274
1306.14912,0.00275
1304.08895,0.00270
1302.02878,0.00276
1299.96861,0.00299
1297.90843,0.00318
1295.84826,0.00325
1293.78809,0.00326
1291.72792,0.00324
1289.66775,0.00323
1287.60757,0.00328
1285.54740,0.00340
1283.48723,0.00342
1281.42706,0.00331
1279.36688,0.00319
1277.30671,0.00315
1275.24654,0.00322
1273.18637,0.00324
1271.12620,0.00317
1269.06602,0.00318
1267.00585,0.00324
1264.94568,0.00320
1262.88551,0.00318
1260.82534,0.00325
1258.76516,0.00329
1256.70499,0.00337
1254.64482,0.00346
1252.58465,0.00335
1250.52447,0.00313
1248.46430,0.00299
1246.40413,0.00296
1244.34396,0.00294
1242.28379,0.00293
1240.22361,0.00287
1238.16344,0.00275
1236.10327,0.00264
1234.04310,0.00250
1231.98293,0.00236
1229.92275,0.00241
1227.86258,0.00252
1225.80241,0.00247
1223.74224,0.00227
1221.68207,0.00204
1219.62189,0.00187
1217.56172,0.00184
1215.50155,0.00186
1213.44138,0.00184
1211.38120,0.00184
1209.32103,0.00184
1207.26086,0.00173
1205.20069,0.00166
1203.14052,0.00180
1201.08034,0.00197
1199.02017,0.00209
1196.96000,0.00230
1194.89983,0.00253
1192.83966,0.00277
1190.77948,0.00317
1188.71931,0.00359
1186.65914,0.00390
1184.59897,0.00428
1182.53880,0.00468
1180.47862,0.00506
1178.41845,0.00554
1176.35828,0.00607
1174.29811,0.00651
1172.23793,0.00689
1170.17776,0.00737
1168.11759,0.00799
1166.05742,0.00852
1163.99725,0.00878
1161.93707,0.00901
1159.87690,0.00945
1157.81673,0.00998
1155.75656,0.01037
1153.69639,0.01064
1151.63621,0.01100
1149.57604,0.01140
1147.51587,0.01166
1145.45570,0.01199
1143.39552,0.01257
1141.33535,0.01324
1139.27518,0.01383
1137.21501,0.01441
1135.15484,0.01508
1133.09466,0.01581
1131.03449,0.01651
1128.97432,0.01708
1126.91415,0.01739
1124.85398,0.01765
1122.79380,0.01804
1120.73363,0.01845
1118.67346,0.01876
1116.61329,0.01906
1114.55312,0.01966
1112.49294,0.02042
1110.43277,0.02102
1108.37260,0.02152
1106.31243,0.02192
1104.25225,0.02226
1102.19208,0.02270
1100.13191,0.02329
1098.07174,0.02387
1096.01157,0.02446
1093.95139,0.02510
1091.89122,0.02559
1089.83105,0.02601
1087.77088,0.02644
1085.71071,0.02672
1083.65053,0.02705
1081.59036,0.02764
1079.53019,0.02828
1077.47002,0.02879
1075.40985,0.02917
1073.34967,0.02945
1071.28950,0.02978
1069.22933,0.03012
1067.16916,0.03030
1065.10898,0.03040
1063.04881,0.03054
1060.98864,0.03064
1058.92847,0.03073
1056.86830,0.03071
1054.80812,0.03047
1052.74795,0.03016
1050.68778,0.02999
1048.62761,0.02995
1046.56744,0.02983
1044.50726,0.02953
1042.44709,0.02910
1040.38692,0.02865
1038.32675,0.02816
1036.26657,0.02754
1034.20640,0.02692
1032.14623,0.02640
1030.08606,0.02584
1028.02589,0.02529
1025.96571,0.02484
1023.90554,0.02433
1021.84537,0.02378
1019.78520,0.02334
1017.72503,0.02287
1015.66485,0.02239
1013.60468,0.02202
1011.54451,0.02180
1009.48434,0.02178
1007.42417,0.02182
1005.36399,0.02172
1003.30382,0.02162
1001.24365,0.02170
999.18348,0.02191
997.12330,0.02218
995.06313,0.02247
993.00296,0.02274
990.94279,0.02288
988.88262,0.02303
986.82244,0.02350
984.76227,0.02410
982.70210,0.02434
980.64193,0.02420
978.58176,0.02403
976.52158,0.02377
974.46141,0.02335
972.40124,0.02302
970.34107,0.02280
968.28089,0.02239
966.22072,0.02166
964.16055,0.02088
962.10038,0.02032
960.04021,0.01975
957.98003,0.01889
955.91986,0.01823
953.85969,0.01810
951.79952,0.01801
949.73935,0.01772
947.67917,0.01745
945.61900,0.01721
943.55883,0.01703
941.49866,0.01695
939.43849,0.01700
937.37831,0.01728
935.31814,0.01751
933.25797,0.01746
931.19780,0.01738
929.13762,0.01754
927.07745,0.01763
925.01728,0.01739
922.95711,0.01720
920.89694,0.01717
918.83676,0.01688
916.77659,0.01639
914.71642,0.01609
912.65625,0.01593
910.59608,0.01578
908.53590,0.01554
906.47573,0.01521
904.41556,0.01490
902.35539,0.01463
900.29522,0.01438
898.23504,0.01441
896.17487,0.01472
894.11470,0.01499
892.05453,0.01528
889.99435,0.01556
887.93418,0.01541
885.87401,0.01501
883.81384,0.01491
881.75367,0.01520
879.69349,0.01569
877.63332,0.01616
875.57315,0.01645
873.51298,0.01650
871.45281,0.01639
869.39263,0.01627
867.33246,0.01641
865.27229,0.01700
863.21212,0.01752
861.15194,0.01737
859.09177,0.01687
857.03160,0.01648
854.97143,0.01610
852.91126,0.01570
850.85108,0.01534
848.79091,0.01500
846.73074,0.01462
844.67057,0.01409
842.61040,0.01347
840.55022,0.01319
838.49005,0.01317
836.42988,0.01301
834.36971,0.01282
832.30954,0.01273
830.24936,0.01266
828.18919,0.01236
826.12902,0.01163
824.06885,0.01074
822.00867,0.01021
819.94850,0.01018
817.88833,0.01028
815.82816,0.01021
813.76799,0.01014
811.70781,0.01015
809.64764,0.00986
807.58747,0.00933
805.52730,0.00882
803.46713,0.00829
801.40695,0.00776
799.34678,0.00757
797.28661,0.00784
795.22644,0.00804
793.16627,0.00806
791.10609,0.00825
789.04592,0.00814
786.98575,0.00758
784.92558,0.00744
782.86540,0.00777
780.80523,0.00790
778.74506,0.00756
776.68489,0.00700
774.62472,0.00673
772.56454,0.00682
770.50437,0.00687
768.44420,0.00686
766.38403,0.00696
764.32386,0.00694
762.26368,0.00678
760.20351,0.00656
758.14334,0.00632
756.08317,0.00633
754.02299,0.00616
751.96282,0.00563
749.90265,0.00557
747.84248,0.00578
745.78231,0.00549
743.72213,0.00529
741.66196,0.00566
739.60179,0.00573
737.54162,0.00532
735.48145,0.00506
733.42127,0.00505
731.36110,0.00479
729.30093,0.00431
727.24076,0.00435
725.18059,0.00479
723.12041,0.00523
721.06024,0.00511
719.00007,0.00490
716.93990,0.00456
714.87972,0.00450
712.81955,0.00503
710.75938,0.00563
708.69921,0.00597
706.63904,0.00614
704.57886,0.00614
702.51869,0.00585
700.45852,0.00512
698.39835,0.00433
696.33818,0.00419
694.27800,0.00452
692.21783,0.00433
690.15766,0.00348
688.09749,0.00295
686.03731,0.00357
683.97714,0.00515
681.91697,0.00654
679.85680,0.00674
677.79663,0.00595
675.73645,0.00540
673.67628,0.00592
671.61611,0.00619
669.55594,0.00297
667.49577,0.00000
665.43559,0.00336
663.37542,0.00470
661.31525,0.00502
659.25508,0.00460
657.19491,0.00324
655.13473,0.00212
653.07456,0.00195
651.01439,0.00214
648.95422,0.00271
646.89404,0.00398
644.83387,0.00488
642.77370,0.00504
640.71353,0.00510
638.65336,0.00533
636.59318,0.00538
634.53301,0.00474
632.47284,0.00352
630.41267,0.00243
628.35250,0.00145
626.29232,0.00040
624.23215,0.00000
622.17198,0.00022
620.11181,0.00106
618.05164,0.00172
615.99146,0.00211
613.93129,0.00361
611.87112,0.00503
609.81095,0.00363
607.75077,0.00046
605.69060,-0.00115
603.63043,-0.00089
601.57026,-0.00063
599.51009,0.00000
