3996.73391,0.00000
3994.67373,0.00006
3992.61356,0.00001
3990.55339,0.00010
3988.49322,0.00024
3986.43305,0.00035
3984.37287,0.00032
3982.31270,0.00017
3980.25253,0.00008
3978.19236,0.00009
3976.13219,0.00015
3974.07201,0.00021
3972.01184,0.00013
3969.95167,0.00006
3967.89150,0.00024
3965.83133,0.00056
3963.77115,0.00077
3961.71098,0.00084
3959.65081,0.00085
3957.59064,0.00078
3955.53046,0.00060
3953.47029,0.00048
3951.41012,0.00049
3949.34995,0.00049
3947.28978,0.00046
3945.22960,0.00049
3943.16943,0.00045
3941.10926,0.00035
3939.04909,0.00034
3936.98892,0.00051
3934.92874,0.00085
3932.86857,0.00112
3930.80840,0.00117
3928.74823,0.00122
3926.68805,0.00136
3924.62788,0.00137
3922.56771,0.00120
3920.50754,0.00104
3918.44737,0.00087
3916.38719,0.00071
3914.32702,0.00063
3912.26685,0.00057
3910.20668,0.00068
3908.14651,0.00123
3906.08633,0.00189
3904.02616,0.00192
3901.96599,0.00126
3899.90582,0.00063
3897.84565,0.00063
3895.78547,0.00113
3893.72530,0.00138
3891.66513,0.00092
3889.60496,0.00053
3887.54478,0.00082
3885.48461,0.00130
3883.42444,0.00166
3881.36427,0.00181
3879.30410,0.00161
3877.24392,0.00150
3875.18375,0.00165
3873.12358,0.00172
3871.06341,0.00145
3869.00324,0.00109
3866.94306,0.00132
3864.88289,0.00170
3862.82272,0.00159
3860.76255,0.00147
3858.70237,0.00171
3856.64220,0.00191
3854.58203,0.00141
3852.52186,0.00035
3850.46169,0.00019
3848.40151,0.00100
3846.34134,0.00183
3844.28117,0.00224
3842.22100,0.00240
3840.16083,0.00236
3838.10065,0.00201
3836.04048,0.00170
3833.98031,0.00167
3831.92014,0.00168
3829.85997,0.00181
3827.79979,0.00208
3825.73962,0.00226
3823.67945,0.00221
3821.61928,0.00176
3819.55910,0.00129
3817.49893,0.00138
3815.43876,0.00166
3813.37859,0.00182
3811.31842,0.00191
3809.25824,0.00186
3807.19807,0.00171
3805.13790,0.00180
3803.07773,0.00209
3801.01756,0.00196
3798.95738,0.00171
3796.89721,0.00170
3794.83704,0.00168
3792.77687,0.00168
3790.71670,0.00191
3788.65652,0.00221
3786.59635,0.00227
3784.53618,0.00210
3782.47601,0.00188
3780.41583,0.00153
3778.35566,0.00132
3776.29549,0.00166
3774.23532,0.00228
3772.17515,0.00263
3770.11497,0.00242
3768.05480,0.00196
3765.99463,0.00188
3763.93446,0.00219
3761.87429,0.00249
3759.81411,0.00250
3757.75394,0.00222
3755.69377,0.00201
3753.63360,0.00183
3751.57342,0.00119
3749.51325,0.00055
3747.45308,0.00073
3745.39291,0.00092
3743.33274,0.00068
3741.27256,0.00078
3739.21239,0.00122
3737.15222,0.00163
3735.09205,0.00191
3733.03188,0.00189
3730.97170,0.00156
3728.91153,0.00143
3726.85136,0.00153
3724.79119,0.00157
3722.73102,0.00172
3720.67084,0.00183
3718.61067,0.00168
3716.55050,0.00149
3714.49033,0.00145
3712.43015,0.00130
3710.36998,0.00100
3708.30981,0.00124
3706.24964,0.00165
3704.18947,0.00182
3702.12929,0.00172
3700.06912,0.00161
3698.00895,0.00181
3695.94878,0.00219
3693.88861,0.00243
3691.82843,0.00237
3689.76826,0.00216
3687.70809,0.00202
3685.64792,0.00231
3683.58775,0.00276
3681.52757,0.00292
3679.46740,0.00293
3677.40723,0.00294
3675.34706,0.00257
3673.28688,0.00213
3671.22671,0.00214
3669.16654,0.00237
3667.10637,0.00261
3665.04620,0.00284
3662.98602,0.00300
3660.92585,0.00314
3658.86568,0.00324
3656.80551,0.00317
3654.74534,0.00320
3652.68516,0.00364
3650.62499,0.00400
3648.56482,0.00388
3646.50465,0.00378
3644.44447,0.00406
3642.38430,0.00450
3640.32413,0.00489
3638.26396,0.00515
3636.20379,0.00524
3634.14361,0.00523
3632.08344,0.00518
3630.02327,0.00506
3627.96310,0.00485
3625.90293,0.00485
3623.84275,0.00522
3621.78258,0.00575
3619.72241,0.00601
3617.66224,0.00599
3615.60207,0.00615
3613.54189,0.00657
3611.48172,0.00729
3609.42155,0.00788
3607.36138,0.00799
3605.30120,0.00787
3603.24103,0.00778
3601.18086,0.00775
3599.12069,0.00773
3597.06052,0.00773
3595.00034,0.00767
3592.94017,0.00786
3590.88000,0.00847
3588.81983,0.00922
3586.75966,0.00952
3584.69948,0.00945
3582.63931,0.00950
3580.57914,0.00987
3578.51897,0.01029
3576.45879,0.01052
3574.39862,0.01066
3572.33845,0.01097
3570.27828,0.01141
3568.21811,0.01155
3566.15793,0.01129
3564.09776,0.01112
3562.03759,0.01127
3559.97742,0.01143
3557.91725,0.01127
3555.85707,0.01111
3553.79690,0.01149
3551.73673,0.01229
3549.67656,0.01296
3547.61639,0.01308
3545.55621,0.01278
3543.49604,0.01279
3541.43587,0.01323
3539.37570,0.01361
3537.31552,0.01382
3535.25535,0.01397
3533.19518,0.01417
3531.13501,0.01456
3529.07484,0.01490
3527.01466,0.01486
3524.95449,0.01479
3522.89432,0.01493
3520.83415,0.01516
3518.77398,0.01547
3516.71380,0.01579
3514.65363,0.01599
3512.59346,0.01604
3510.53329,0.01606
3508.47312,0.01614
3506.41294,0.01626
3504.35277,0.01647
3502.29260,0.01684
3500.23243,0.01735
3498.17225,0.01760
3496.11208,0.01728
3494.05191,0.01690
3491.99174,0.01685
3489.93157,0.01694
3487.87139,0.01714
3485.81122,0.01743
3483.75105,0.01766
3481.69088,0.01784
3479.63071,0.01803
3477.57053,0.01829
3475.51036,0.01852
3473.45019,0.01848
3471.39002,0.01830
3469.32984,0.01843
3467.26967,0.01873
3465.20950,0.01884
3463.14933,0.01886
3461.08916,0.01890
3459.02898,0.01886
3456.96881,0.01875
3454.90864,0.01888
3452.84847,0.01933
3450.78830,0.01992
3448.72812,0.02038
3446.66795,0.02056
3444.60778,0.02056
3442.54761,0.02064
3440.48744,0.02087
3438.42726,0.02113
3436.36709,0.02123
3434.30692,0.02114
3432.24675,0.02100
3430.18657,0.02082
3428.12640,0.02057
3426.06623,0.02049
3424.00606,0.02069
3421.94589,0.02099
3419.88571,0.02128
3417.82554,0.02154
3415.76537,0.02177
3413.70520,0.02198
3411.64503,0.02208
3409.58485,0.02216
3407.52468,0.02232
3405.46451,0.02248
3403.40434,0.02263
3401.34416,0.02295
3399.28399,0.02326
3397.22382,0.02319
3395.16365,0.02301
3393.10348,0.02307
3391.04330,0.02325
3388.98313,0.02338
3386.92296,0.02352
3384.86279,0.02362
3382.80262,0.02351
3380.74244,0.02331
3378.68227,0.02318
3376.62210,0.02300
3374.56193,0.02281
3372.50176,0.02291
3370.44158,0.02316
3368.38141,0.02318
3366.32124,0.02324
3364.26107,0.02356
3362.20089,0.02371
3360.14072,0.02359
3358.08055,0.02360
3356.02038,0.02376
3353.96021,0.02379
3351.90003,0.02381
3349.83986,0.02388
3347.77969,0.02389
3345.71952,0.02394
3343.65935,0.02412
3341.59917,0.02424
3339.53900,0.02414
3337.47883,0.02393
3335.41866,0.02373
3333.35849,0.02365
3331.29831,0.02373
3329.23814,0.02402
3327.17797,0.02439
3325.11780,0.02463
3323.05762,0.02474
3320.99745,0.02466
3318.93728,0.02435
3316.87711,0.02423
3314.81694,0.02425
3312.75676,0.02395
3310.69659,0.02373
3308.63642,0.02400
3306.57625,0.02432
3304.51608,0.02440
3302.45590,0.02439
3300.39573,0.02446
3298.33556,0.02463
3296.27539,0.02472
3294.21521,0.02463
3292.15504,0.02457
3290.09487,0.02465
3288.03470,0.02468
3285.97453,0.02456
3283.91435,0.02438
3281.85418,0.02428
3279.79401,0.02440
3277.73384,0.02459
3275.67367,0.02470
3273.61349,0.02486
3271.55332,0.02500
3269.49315,0.02489
3267.43298,0.02468
3265.37281,0.02450
3263.31263,0.02450
3261.25246,0.02465
3259.19229,0.02467
3257.13212,0.02451
3255.07194,0.02453
3253.01177,0.02471
3250.95160,0.02460
3248.89143,0.02433
3246.83126,0.02428
3244.77108,0.02448
3242.71091,0.02466
3240.65074,0.02475
3238.59057,0.02482
3236.53040,0.02473
3234.47022,0.02467
3232.41005,0.02494
3230.34988,0.02525
3228.28971,0.02530
3226.22954,0.02510
3224.16936,0.02470
3222.10919,0.02436
3220.04902,0.02430
3217.98885,0.02464
3215.92867,0.02511
3213.86850,0.02521
3211.80833,0.02493
3209.74816,0.02466
3207.68799,0.02443
3205.62781,0.02419
3203.56764,0.02410
3201.50747,0.02410
3199.44730,0.02406
3197.38713,0.02418
3195.32695,0.02447
3193.26678,0.02461
3191.20661,0.02439
3189.14644,0.02410
3187.08626,0.02413
3185.02609,0.02420
3182.96592,0.02407
3180.90575,0.02394
3178.84558,0.02375
3176.78540,0.02358
3174.72523,0.02349
3172.66506,0.02345
3170.60489,0.02365
3168.54472,0.02389
3166.48454,0.02361
3164.42437,0.02309
3162.36420,0.02294
3160.30403,0.02311
3158.24386,0.02322
3156.18368,0.02326
3154.12351,0.02337
3152.06334,0.02343
3150.00317,0.02338
3147.94299,0.02328
3145.88282,0.02326
3143.82265,0.02328
3141.76248,0.02306
3139.70231,0.02280
3137.64213,0.02276
3135.58196,0.02273
3133.52179,0.02255
3131.46162,0.02243
3129.40145,0.02258
3127.34127,0.02276
3125.28110,0.02263
3123.22093,0.02235
3121.16076,0.02225
3119.10058,0.02210
3117.04041,0.02178
3114.98024,0.02169
3112.92007,0.02180
3110.85990,0.02172
3108.79972,0.02143
3106.73955,0.02126
3104.67938,0.02127
3102.61921,0.02127
3100.55904,0.02115
3098.49886,0.02097
3096.43869,0.02097
3094.37852,0.02124
3092.31835,0.02147
3090.25818,0.02137
3088.19800,0.02104
3086.13783,0.02083
3084.07766,0.02082
3082.01749,0.02074
3079.95731,0.02048
3077.89714,0.02022
3075.83697,0.02015
3073.77680,0.02040
3071.71663,0.02071
3069.65645,0.02076
3067.59628,0.02068
3065.53611,0.02059
3063.47594,0.02023
3061.41577,0.01971
3059.35559,0.01952
3057.29542,0.01963
3055.23525,0.01963
3053.17508,0.01943
3051.11491,0.01924
3049.05473,0.01918
3046.99456,0.01925
3044.93439,0.01939
3042.87422,0.01943
3040.81404,0.01939
3038.75387,0.01925
3036.69370,0.01893
3034.63353,0.01865
3032.57336,0.01862
3030.51318,0.01869
3028.45301,0.01868
3026.39284,0.01868
3024.33267,0.01869
3022.27250,0.01845
3020.21232,0.01809
3018.15215,0.01788
3016.09198,0.01777
3014.03181,0.01766
3011.97163,0.01752
3009.91146,0.01741
3007.85129,0.01741
3005.79112,0.01734
3003.73095,0.01716
3001.67077,0.01703
2999.61060,0.01697
2997.55043,0.01690
2995.49026,0.01681
2993.43009,0.01671
2991.36991,0.01661
2989.30974,0.01661
2987.24957,0.01674
2985.18940,0.01685
2983.12923,0.01676
2981.06905,0.01653
2979.00888,0.01634
2976.94871,0.01626
2974.88854,0.01620
2972.82836,0.01632
2970.76819,0.01661
2968.70802,0.01671
2966.64785,0.01664
2964.58768,0.01661
2962.52750,0.01659
2960.46733,0.01662
2958.40716,0.01671
2956.34699,0.01666
2954.28682,0.01644
2952.22664,0.01629
2950.16647,0.01639
2948.10630,0.01655
2946.04613,0.01648
2943.98596,0.01630
2941.92578,0.01625
2939.86561,0.01628
2937.80544,0.01636
2935.74527,0.01649
2933.68509,0.01652
2931.62492,0.01640
2929.56475,0.01618
2927.50458,0.01595
2925.44441,0.01588
2923.38423,0.01611
2921.32406,0.01635
2919.26389,0.01623
2917.20372,0.01590
2915.14355,0.01563
2913.08337,0.01558
2911.02320,0.01573
2908.96303,0.01579
2906.90286,0.01570
2904.84268,0.01557
2902.78251,0.01551
2900.72234,0.01558
2898.66217,0.01573
2896.60200,0.01587
2894.54182,0.01587
2892.48165,0.01570
2890.42148,0.01559
2888.36131,0.01559
2886.30114,0.01562
2884.24096,0.01548
2882.18079,0.01518
2880.12062,0.01507
2878.06045,0.01518
2876.00028,0.01527
2873.94010,0.01529
2871.87993,0.01534
2869.81976,0.01530
2867.75959,0.01514
2865.69941,0.01503
2863.63924,0.01492
2861.57907,0.01472
2859.51890,0.01441
2857.45873,0.01416
2855.39855,0.01426
2853.33838,0.01470
2851.27821,0.01486
2849.21804,0.01459
2847.15787,0.01432
2845.09769,0.01423
2843.03752,0.01418
2840.97735,0.01412
2838.91718,0.01409
2836.85700,0.01407
2834.79683,0.01396
2832.73666,0.01381
2830.67649,0.01365
2828.61632,0.01347
2826.55614,0.01349
2824.49597,0.01374
2822.43580,0.01377
2820.37563,0.01352
2818.31546,0.01338
2816.25528,0.01334
2814.19511,0.01311
2812.13494,0.01288
2810.07477,0.01292
2808.01460,0.01306
2805.95442,0.01303
2803.89425,0.01294
2801.83408,0.01290
2799.77391,0.01282
2797.71373,0.01273
2795.65356,0.01269
2793.59339,0.01260
2791.53322,0.01257
2789.47305,0.01280
2787.41287,0.01303
2785.35270,0.01295
2783.29253,0.01272
2781.23236,0.01258
2779.17219,0.01255
2777.11201,0.01255
2775.05184,0.01252
2772.99167,0.01244
2770.93150,0.01232
2768.87133,0.01223
2766.81115,0.01227
2764.75098,0.01241
2762.69081,0.01244
2760.63064,0.01237
2758.57046,0.01227
2756.51029,0.01216
2754.45012,0.01214
2752.38995,0.01220
2750.32978,0.01214
2748.26960,0.01194
2746.20943,0.01182
2744.14926,0.01183
2742.08909,0.01185
2740.02892,0.01185
2737.96874,0.01188
2735.90857,0.01205
2733.84840,0.01221
2731.78823,0.01209
2729.72805,0.01183
2727.66788,0.01173
2725.60771,0.01169
2723.54754,0.01163
2721.48737,0.01167
2719.42719,0.01161
2717.36702,0.01138
2715.30685,0.01120
2713.24668,0.01129
2711.18651,0.01149
2709.12633,0.01153
2707.06616,0.01149
2705.00599,0.01159
2702.94582,0.01167
2700.88565,0.01152
2698.82547,0.01118
2696.76530,0.01099
2694.70513,0.01111
2692.64496,0.01118
2690.58478,0.01104
2688.52461,0.01101
2686.46444,0.01110
2684.40427,0.01104
2682.34410,0.01091
2680.28392,0.01094
2678.22375,0.01104
2676.16358,0.01098
2674.10341,0.01078
2672.04324,0.01056
2669.98306,0.01050
2667.92289,0.01056
2665.86272,0.01057
2663.80255,0.01051
2661.74238,0.01041
2659.68220,0.01034
2657.62203,0.01033
2655.56186,0.01035
2653.50169,0.01031
2651.44151,0.01024
2649.38134,0.01028
2647.32117,0.01043
2645.26100,0.01053
2643.20083,0.01048
2641.14065,0.01038
2639.08048,0.01026
2637.02031,0.01006
2634.96014,0.00995
2632.89997,0.00997
2630.83979,0.00999
2628.77962,0.00983
2626.71945,0.00959
2624.65928,0.00964
2622.59910,0.00992
2620.53893,0.01008
2618.47876,0.01001
2616.41859,0.00970
2614.35842,0.00936
2612.29824,0.00928
2610.23807,0.00941
2608.17790,0.00941
2606.11773,0.00928
2604.05756,0.00940
2601.99738,0.00967
2599.93721,0.00956
2597.87704,0.00912
2595.81687,0.00879
2593.75670,0.00882
2591.69652,0.00898
2589.63635,0.00884
2587.57618,0.00870
2585.51601,0.00879
2583.45583,0.00880
2581.39566,0.00872
2579.33549,0.00885
2577.27532,0.00907
2575.21515,0.00917
2573.15497,0.00917
2571.09480,0.00910
2569.03463,0.00892
2566.97446,0.00876
2564.91429,0.00867
2562.85411,0.00863
2560.79394,0.00876
2558.73377,0.00884
2556.67360,0.00847
2554.61342,0.00801
2552.55325,0.00806
2550.49308,0.00832
2548.43291,0.00834
2546.37274,0.00848
2544.31256,0.00865
2542.25239,0.00849
2540.19222,0.00838
2538.13205,0.00839
2536.07188,0.00827
2534.01170,0.00826
2531.95153,0.00834
2529.89136,0.00842
2527.83119,0.00862
2525.77102,0.00876
2523.71084,0.00866
2521.65067,0.00849
2519.59050,0.00851
2517.53033,0.00860
2515.47015,0.00853
2513.40998,0.00852
2511.34981,0.00860
2509.28964,0.00854
2507.22947,0.00849
2505.16929,0.00847
2503.10912,0.00835
2501.04895,0.00834
2498.98878,0.00857
2496.92861,0.00875
2494.86843,0.00876
2492.80826,0.00862
2490.74809,0.00848
2488.68792,0.00873
2486.62775,0.00906
2484.56757,0.00900
2482.50740,0.00870
2480.44723,0.00844
2478.38706,0.00827
2476.32688,0.00823
2474.26671,0.00849
2472.20654,0.00878
2470.14637,0.00868
2468.08620,0.00854
2466.02602,0.00850
2463.96585,0.00833
2461.90568,0.00824
2459.84551,0.00823
2457.78534,0.00824
2455.72516,0.00851
2453.66499,0.00891
2451.60482,0.00897
2449.54465,0.00879
2447.48447,0.00879
2445.42430,0.00894
2443.36413,0.00885
2441.30396,0.00856
2439.24379,0.00857
2437.18361,0.00871
2435.12344,0.00867
2433.06327,0.00868
2431.00310,0.00881
2428.94293,0.00895
2426.88275,0.00898
2424.82258,0.00887
2422.76241,0.00868
2420.70224,0.00856
2418.64207,0.00868
2416.58189,0.00881
2414.52172,0.00860
2412.46155,0.00827
2410.40138,0.00806
2408.34120,0.00803
2406.28103,0.00816
2404.22086,0.00832
2402.16069,0.00832
2400.10052,0.00823
2398.04034,0.00814
2395.98017,0.00797
2393.92000,0.00778
2391.85983,0.00776
2389.79966,0.00786
2387.73948,0.00790
2385.67931,0.00784
2383.61914,0.00789
2381.55897,0.00812
2379.49880,0.00843
2377.43862,0.00855
2375.37845,0.00841
2373.31828,0.00756
2371.25811,0.00673
2369.19793,0.00735
2367.13776,0.00870
2365.07759,0.00984
2363.01742,0.01085
2360.95725,0.00891
2358.89707,0.00834
2356.83690,0.00911
2354.77673,0.00920
2352.71656,0.00860
2350.65639,0.00543
2348.59621,0.00434
2346.53604,0.01002
2344.47587,0.01193
2342.41570,0.01104
2340.35552,0.01022
2338.29535,0.00947
2336.23518,0.00915
2334.17501,0.00900
2332.11484,0.00909
2330.05466,0.00847
2327.99449,0.00819
2325.93432,0.00798
2323.87415,0.00904
2321.81398,0.00982
2319.75380,0.01019
2317.69363,0.00945
2315.63346,0.00926
2313.57329,0.00936
2311.51312,0.00909
2309.45294,0.00875
2307.39277,0.00851
2305.33260,0.00829
2303.27243,0.00793
2301.21225,0.00788
2299.15208,0.00798
2297.09191,0.00823
2295.03174,0.00861
2292.97157,0.00878
2290.91139,0.00884
2288.85122,0.00906
2286.79105,0.00912
2284.73088,0.00875
2282.67071,0.00849
2280.61053,0.00875
2278.55036,0.00903
2276.49019,0.00888
2274.43002,0.00868
2272.36984,0.00884
2270.30967,0.00885
2268.24950,0.00837
2266.18933,0.00801
2264.12916,0.00820
2262.06898,0.00864
2260.00881,0.00896
2257.94864,0.00864
2255.88847,0.00798
2253.82830,0.00788
2251.76812,0.00814
2249.70795,0.00777
2247.64778,0.00704
2245.58761,0.00730
2243.52744,0.00837
2241.46726,0.00877
2239.40709,0.00847
2237.34692,0.00846
2235.28675,0.00838
2233.22657,0.00801
2231.16640,0.00780
2229.10623,0.00737
2227.04606,0.00684
2224.98589,0.00714
2222.92571,0.00813
2220.86554,0.00838
2218.80537,0.00785
2216.74520,0.00781
2214.68503,0.00791
2212.62485,0.00751
2210.56468,0.00730
2208.50451,0.00753
2206.44434,0.00755
2204.38417,0.00728
2202.32399,0.00719
2200.26382,0.00721
2198.20365,0.00699
2196.14348,0.00659
2194.08330,0.00645
2192.02313,0.00635
2189.96296,0.00619
2187.90279,0.00710
2185.84262,0.00829
2183.78244,0.00829
2181.72227,0.00828
2179.66210,0.00889
2177.60193,0.00865
2175.54176,0.00729
2173.48158,0.00624
2171.42141,0.00570
2169.36124,0.00549
2167.30107,0.00659
2165.24089,0.00820
2163.18072,0.00762
2161.12055,0.00549
2159.06038,0.00488
2157.00021,0.00511
2154.94003,0.00386
2152.87986,0.00257
2150.81969,0.00284
2148.75952,0.00384
2146.69935,0.00470
2144.63917,0.00484
2142.57900,0.00444
2140.51883,0.00472
2138.45866,0.00530
2136.39849,0.00454
2134.33831,0.00373
2132.27814,0.00425
2130.21797,0.00487
2128.15780,0.00525
2126.09762,0.00565
2124.03745,0.00572
2121.97728,0.00556
2119.91711,0.00571
2117.85694,0.00600
2115.79676,0.00603
2113.73659,0.00606
2111.67642,0.00602
2109.61625,0.00584
2107.55608,0.00584
2105.49590,0.00611
2103.43573,0.00665
2101.37556,0.00733
2099.31539,0.00737
2097.25521,0.00662
2095.19504,0.00581
2093.13487,0.00553
2091.07470,0.00571
2089.01453,0.00581
2086.95435,0.00584
2084.89418,0.00629
2082.83401,0.00693
2080.77384,0.00721
2078.71367,0.00714
2076.65349,0.00711
2074.59332,0.00720
2072.53315,0.00684
2070.47298,0.00578
2068.41281,0.00510
2066.35263,0.00552
2064.29246,0.00654
2062.23229,0.00714
2060.17212,0.00657
2058.11194,0.00552
2056.05177,0.00514
2053.99160,0.00550
2051.93143,0.00555
2049.87126,0.00476
2047.81108,0.00415
2045.75091,0.00481
2043.69074,0.00577
2041.63057,0.00585
2039.57040,0.00585
2037.51022,0.00601
2035.45005,0.00567
2033.38988,0.00531
2031.32971,0.00549
2029.26954,0.00566
2027.20936,0.00584
2025.14919,0.00592
2023.08902,0.00531
2021.02885,0.00454
2018.96867,0.00380
2016.90850,0.00361
2014.84833,0.00499
2012.78816,0.00678
2010.72799,0.00705
2008.66781,0.00592
2006.60764,0.00484
2004.54747,0.00459
2002.48730,0.00515
2000.42713,0.00595
1998.36695,0.00635
1996.30678,0.00614
1994.24661,0.00571
1992.18644,0.00542
1990.12626,0.00523
1988.06609,0.00539
1986.00592,0.00579
1983.94575,0.00606
1981.88558,0.00615
1979.82540,0.00553
1977.76523,0.00409
1975.70506,0.00318
1973.64489,0.00304
1971.58472,0.00258
1969.52454,0.00229
1967.46437,0.00301
1965.40420,0.00354
1963.34403,0.00310
1961.28386,0.00258
1959.22368,0.00278
1957.16351,0.00363
1955.10334,0.00434
1953.04317,0.00469
1950.98299,0.00520
1948.92282,0.00556
1946.86265,0.00529
1944.80248,0.00476
1942.74231,0.00420
1940.68213,0.00369
1938.62196,0.00366
1936.56179,0.00412
1934.50162,0.00443
1932.44145,0.00440
1930.38127,0.00443
1928.32110,0.00459
1926.26093,0.00474
1924.20076,0.00500
1922.14059,0.00525
1920.08041,0.00510
1918.02024,0.00486
1915.96007,0.00486
1913.89990,0.00468
1911.83972,0.00427
1909.77955,0.00411
1907.71938,0.00420
1905.65921,0.00443
1903.59904,0.00486
1901.53886,0.00522
1899.47869,0.00528
1897.41852,0.00517
1895.35835,0.00526
1893.29818,0.00552
1891.23800,0.00549
1889.17783,0.00516
1887.11766,0.00509
1885.05749,0.00524
1882.99731,0.00518
1880.93714,0.00500
1878.87697,0.00506
1876.81680,0.00532
1874.75663,0.00544
1872.69645,0.00532
1870.63628,0.00510
1868.57611,0.00485
1866.51594,0.00471
1864.45577,0.00480
1862.39559,0.00497
1860.33542,0.00510
1858.27525,0.00520
1856.21508,0.00529
1854.15491,0.00527
1852.09473,0.00517
1850.03456,0.00513
1847.97439,0.00502
1845.91422,0.00476
1843.85404,0.00458
1841.79387,0.00470
1839.73370,0.00504
1837.67353,0.00535
1835.61336,0.00548
1833.55318,0.00541
1831.49301,0.00529
1829.43284,0.00529
1827.37267,0.00536
1825.31250,0.00532
1823.25232,0.00526
1821.19215,0.00526
1819.13198,0.00522
1817.07181,0.00520
1815.01163,0.00524
1812.95146,0.00520
1810.89129,0.00502
1808.83112,0.00490
1806.77095,0.00500
1804.71077,0.00523
1802.65060,0.00534
1800.59043,0.00520
1798.53026,0.00502
1796.47009,0.00510
1794.40991,0.00548
1792.34974,0.00575
1790.28957,0.00574
1788.22940,0.00565
1786.16923,0.00555
1784.10905,0.00541
1782.04888,0.00526
1779.98871,0.00518
1777.92854,0.00523
1775.86836,0.00516
1773.80819,0.00484
1771.74802,0.00469
1769.68785,0.00501
1767.62768,0.00539
1765.56750,0.00559
1763.50733,0.00571
1761.44716,0.00587
1759.38699,0.00600
1757.32682,0.00612
1755.26664,0.00622
1753.20647,0.00621
1751.14630,0.00609
1749.08613,0.00608
1747.02596,0.00632
1744.96578,0.00668
1742.90561,0.00694
1740.84544,0.00706
1738.78527,0.00729
1736.72509,0.00766
1734.66492,0.00798
1732.60475,0.00825
1730.54458,0.00854
1728.48441,0.00887
1726.42423,0.00921
1724.36406,0.00948
1722.30389,0.00961
1720.24372,0.00956
1718.18355,0.00941
1716.12337,0.00951
1714.06320,0.00980
1712.00303,0.00999
1709.94286,0.01003
1707.88268,0.00994
1705.82251,0.00988
1703.76234,0.00996
1701.70217,0.01011
1699.64200,0.01026
1697.58182,0.01049
1695.52165,0.01079
1693.46148,0.01101
1691.40131,0.01110
1689.34114,0.01116
1687.28096,0.01129
1685.22079,0.01140
1683.16062,0.01149
1681.10045,0.01167
1679.04028,0.01187
1676.98010,0.01194
1674.91993,0.01188
1672.85976,0.01183
1670.79959,0.01186
1668.73941,0.01206
1666.67924,0.01236
1664.61907,0.01263
1662.55890,0.01286
1660.49873,0.01306
1658.43855,0.01313
1656.37838,0.01298
1654.31821,0.01268
1652.25804,0.01252
1650.19787,0.01243
1648.13769,0.01242
1646.07752,0.01284
1644.01735,0.01343
1641.95718,0.01367
1639.89701,0.01362
1637.83683,0.01351
1635.77666,0.01343
1633.71649,0.01345
1631.65632,0.01351
1629.59614,0.01357
1627.53597,0.01368
1625.47580,0.01382
1623.41563,0.01387
1621.35546,0.01371
1619.29528,0.01336
1617.23511,0.01309
1615.17494,0.01318
1613.11477,0.01343
1611.05460,0.01349
1608.99442,0.01339
1606.93425,0.01333
1604.87408,0.01331
1602.81391,0.01328
1600.75373,0.01319
1598.69356,0.01295
1596.63339,0.01259
1594.57322,0.01227
1592.51305,0.01207
1590.45287,0.01185
1588.39270,0.01146
1586.33253,0.01099
1584.27236,0.01063
1582.21219,0.01035
1580.15201,0.01003
1578.09184,0.00972
1576.03167,0.00946
1573.97150,0.00921
1571.91133,0.00898
1569.85115,0.00880
1567.79098,0.00865
1565.73081,0.00856
1563.67064,0.00851
1561.61046,0.00830
1559.55029,0.00787
1557.49012,0.00771
1555.42995,0.00790
1553.36978,0.00792
1551.30960,0.00767
1549.24943,0.00735
1547.18926,0.00700
1545.12909,0.00650
1543.06892,0.00591
1541.00874,0.00561
1538.94857,0.00591
1536.88840,0.00636
1534.82823,0.00650
1532.76805,0.00637
1530.70788,0.00627
1528.64771,0.00626
1526.58754,0.00625
1524.52737,0.00624
1522.46719,0.00616
1520.40702,0.00597
1518.34685,0.00585
1516.28668,0.00595
1514.22651,0.00614
1512.16633,0.00614
1510.10616,0.00582
1508.04599,0.00554
1505.98582,0.00581
1503.92565,0.00620
1501.86547,0.00627
1499.80530,0.00615
1497.74513,0.00606
1495.68496,0.00613
1493.62478,0.00613
1491.56461,0.00594
1489.50444,0.00582
1487.44427,0.00594
1485.38410,0.00610
1483.32392,0.00611
1481.26375,0.00596
1479.20358,0.00582
1477.14341,0.00582
1475.08324,0.00589
1473.02306,0.00606
1470.96289,0.00638
1468.90272,0.00662
1466.84255,0.00680
1464.78238,0.00710
1462.72220,0.00743
1460.66203,0.00754
1458.60186,0.00752
1456.54169,0.00767
1454.48151,0.00796
1452.42134,0.00805
1450.36117,0.00795
1448.30100,0.00790
1446.24083,0.00797
1444.18065,0.00803
1442.12048,0.00800
1440.06031,0.00786
1438.00014,0.00761
1435.93997,0.00738
1433.87979,0.00727
1431.81962,0.00724
1429.75945,0.00721
1427.69928,0.00714
1425.63910,0.00709
1423.57893,0.00715
1421.51876,0.00725
1419.45859,0.00729
1417.39842,0.00735
1415.33824,0.00738
1413.27807,0.00732
1411.21790,0.00732
1409.15773,0.00748
1407.09756,0.00766
1405.03738,0.00774
1402.97721,0.00776
1400.91704,0.00774
1398.85687,0.00760
1396.79670,0.00740
1394.73652,0.00742
1392.67635,0.00774
1390.61618,0.00802
1388.55601,0.00808
1386.49583,0.00809
1384.43566,0.00824
1382.37549,0.00847
1380.31532,0.00870
1378.25515,0.00891
1376.19497,0.00909
1374.13480,0.00918
1372.07463,0.00922
1370.01446,0.00926
1367.95429,0.00929
1365.89411,0.00926
1363.83394,0.00917
1361.77377,0.00913
1359.71360,0.00923
1357.65343,0.00939
1355.59325,0.00941
1353.53308,0.00931
1351.47291,0.00916
1349.41274,0.00907
1347.35256,0.00911
1345.29239,0.00924
1343.23222,0.00930
1341.17205,0.00919
1339.11188,0.00898
1337.05170,0.00883
1334.99153,0.00876
1332.93136,0.00871
1330.87119,0.00869
1328.81102,0.00868
1326.75084,0.00857
1324.69067,0.00839
1322.63050,0.00821
1320.57033,0.00803
1318.51015,0.00792
1316.44998,0.00788
1314.38981,0.00773
1312.32964,0.00749
1310.26947,0.00728
1308.20929,0.00718
1306.14912,0.00717
1304.08895,0.00713
1302.02878,0.00713
1299.96861,0.00717
1297.90843,0.00709
1295.84826,0.00690
1293.78809,0.00683
1291.72792,0.00698
1289.66775,0.00715
1287.60757,0.00721
1285.54740,0.00718
1283.48723,0.00710
1281.42706,0.00707
1279.36688,0.00714
1277.30671,0.00726
1275.24654,0.00738
1273.18637,0.00745
1271.12620,0.00747
1269.06602,0.00750
1267.00585,0.00752
1264.94568,0.00749
1262.88551,0.00743
1260.82534,0.00743
1258.76516,0.00745
1256.70499,0.00746
1254.64482,0.00746
1252.58465,0.00749
1250.52447,0.00757
1248.46430,0.00762
1246.40413,0.00757
1244.34396,0.00749
1242.28379,0.00747
1240.22361,0.00746
1238.16344,0.00749
1236.10327,0.00766
1234.04310,0.00785
1231.98293,0.00793
1229.92275,0.00793
1227.86258,0.00796
1225.80241,0.00806
1223.74224,0.00810
1221.68207,0.00805
1219.62189,0.00806
1217.56172,0.00812
1215.50155,0.00810
1213.44138,0.00806
1211.38120,0.00805
1209.32103,0.00804
1207.26086,0.00797
1205.20069,0.00792
1203.14052,0.00790
1201.08034,0.00780
1199.02017,0.00753
1196.96000,0.00736
1194.89983,0.00751
1192.83966,0.00769
1190.77948,0.00773
1188.71931,0.00758
1186.65914,0.00738
1184.59897,0.00744
1182.53880,0.00765
1180.47862,0.00786
1178.41845,0.00816
1176.35828,0.00856
1174.29811,0.00901
1172.23793,0.00939
1170.17776,0.00963
1168.11759,0.00984
1166.05742,0.01011
1163.99725,0.01037
1161.93707,0.01073
1159.87690,0.01124
1157.81673,0.01160
1155.75656,0.01175
1153.69639,0.01198
1151.63621,0.01238
1149.57604,0.01282
1147.51587,0.01316
1145.45570,0.01347
1143.39552,0.01390
1141.33535,0.01438
1139.27518,0.01488
1137.21501,0.01540
1135.15484,0.01590
1133.09466,0.01646
1131.03449,0.01697
1128.97432,0.01733
1126.91415,0.01774
1124.85398,0.01824
1122.79380,0.01873
1120.73363,0.01924
1118.67346,0.01976
1116.61329,0.02018
1114.55312,0.02072
1112.49294,0.02140
1110.43277,0.02198
1108.37260,0.02254
1106.31243,0.02319
1104.25225,0.02389
1102.19208,0.02456
1100.13191,0.02520
1098.07174,0.02593
1096.01157,0.02676
1093.95139,0.02752
1091.89122,0.02813
1089.83105,0.02864
1087.77088,0.02909
1085.71071,0.02949
1083.65053,0.02989
1081.59036,0.03032
1079.53019,0.03081
1077.47002,0.03125
1075.40985,0.03154
1073.34967,0.03187
1071.28950,0.03228
1069.22933,0.03250
1067.16916,0.03264
1065.10898,0.03281
1063.04881,0.03293
1060.98864,0.03307
1058.92847,0.03331
1056.86830,0.03349
1054.80812,0.03345
1052.74795,0.03331
1050.68778,0.03319
1048.62761,0.03318
1046.56744,0.03317
1044.50726,0.03283
1042.44709,0.03217
1040.38692,0.03166
1038.32675,0.03142
1036.26657,0.03112
1034.20640,0.03061
1032.14623,0.02982
1030.08606,0.02910
1028.02589,0.02881
1025.96571,0.02860
1023.90554,0.02809
1021.84537,0.02751
1019.78520,0.02699
1017.72503,0.02653
1015.66485,0.02621
1013.60468,0.02585
1011.54451,0.02542
1009.48434,0.02524
1007.42417,0.02516
1005.36399,0.02490
1003.30382,0.02458
1001.24365,0.02425
999.18348,0.02403
997.12330,0.02405
995.06313,0.02426
993.00296,0.02459
990.94279,0.02496
988.88262,0.02523
986.82244,0.02540
984.76227,0.02541
982.70210,0.02514
980.64193,0.02466
978.58176,0.02425
976.52158,0.02395
974.46141,0.02350
972.40124,0.02289
970.34107,0.02221
968.28089,0.02140
966.22072,0.02041
964.16055,0.01947
962.10038,0.01879
960.04021,0.01815
957.98003,0.01745
955.91986,0.01700
953.85969,0.01673
951.79952,0.01638
949.73935,0.01617
947.67917,0.01621
945.61900,0.01616
943.55883,0.01588
941.49866,0.01569
939.43849,0.01572
937.37831,0.01566
935.31814,0.01541
933.25797,0.01508
931.19780,0.01483
929.13762,0.01468
927.07745,0.01465
925.01728,0.01473
922.95711,0.01449
920.89694,0.01404
918.83676,0.01379
916.77659,0.01356
914.71642,0.01334
912.65625,0.01322
910.59608,0.01284
908.53590,0.01243
906.47573,0.01233
904.41556,0.01220
902.35539,0.01193
900.29522,0.01176
898.23504,0.01169
896.17487,0.01160
894.11470,0.01168
892.05453,0.01192
889.99435,0.01216
887.93418,0.01250
885.87401,0.01284
883.81384,0.01303
881.75367,0.01311
879.69349,0.01333
877.63332,0.01381
875.57315,0.01416
873.51298,0.01411
871.45281,0.01399
869.39263,0.01384
867.33246,0.01373
865.27229,0.01396
863.21212,0.01424
861.15194,0.01427
859.09177,0.01418
857.03160,0.01410
854.97143,0.01393
852.91126,0.01369
850.85108,0.01342
848.79091,0.01289
846.73074,0.01249
844.67057,0.01257
842.61040,0.01271
840.55022,0.01260
838.49005,0.01223
836.42988,0.01192
834.36971,0.01169
832.30954,0.01124
830.24936,0.01086
828.18919,0.01064
826.12902,0.01045
824.06885,0.01038
822.00867,0.01037
819.94850,0.01012
817.88833,0.00970
815.82816,0.00963
813.76799,0.00989
811.70781,0.00994
809.64764,0.00985
807.58747,0.00984
805.52730,0.00975
803.46713,0.00968
801.40695,0.00966
799.34678,0.00971
797.28661,0.00997
795.22644,0.01004
793.16627,0.00973
791.10609,0.00961
789.04592,0.00975
786.98575,0.00970
784.92558,0.00955
782.86540,0.00955
780.80523,0.00953
778.74506,0.00925
776.68489,0.00879
774.62472,0.00847
772.56454,0.00855
770.50437,0.00885
768.44420,0.00915
766.38403,0.00941
764.32386,0.00955
762.26368,0.00948
760.20351,0.00930
758.14334,0.00922
756.08317,0.00923
754.02299,0.00917
751.96282,0.00895
749.90265,0.00869
747.84248,0.00867
745.78231,0.00889
743.72213,0.00891
741.66196,0.00875
739.60179,0.00868
737.54162,0.00883
735.48145,0.00923
733.42127,0.00925
731.36110,0.00870
729.30093,0.00809
727.24076,0.00753
725.18059,0.00720
723.12041,0.00729
721.06024,0.00821
719.00007,0.00835
716.93990,0.00844
714.87972,0.00864
712.81955,0.00840
710.75938,0.00813
708.69921,0.00814
706.63904,0.00816
704.57886,0.00796
702.51869,0.00778
700.45852,0.00773
698.39835,0.00767
696.33818,0.00769
694.27800,0.00770
692.21783,0.00741
690.15766,0.00700
688.09749,0.00709
686.03731,0.00767
683.97714,0.00804
681.91697,0.00764
679.85680,0.00677
677.79663,0.00625
675.73645,0.00615
673.67628,0.00521
671.61611,0.00409
669.55594,0.01017
667.49577,0.01472
665.43559,0.00442
663.37542,0.00375
661.31525,0.00545
659.25508,0.00608
657.19491,0.00671
655.13473,0.00754
653.07456,0.00820
651.01439,0.00859
648.95422,0.00833
646.89404,0.00720
644.83387,0.00701
642.77370,0.00757
640.71353,0.00776
638.65336,0.00713
636.59318,0.00615
634.53301,0.00570
632.47284,0.00546
630.41267,0.00448
628.35250,0.00379
626.29232,0.00453
624.23215,0.00605
622.17198,0.00733
620.11181,0.00729
618.05164,0.00576
615.99146,0.00504
613.93129,0.00547
611.87112,0.00537
609.81095,0.00451
607.75077,0.00267
605.69060,0.00078
603.63043,0.00000
601.57026,0.00028
599.51009,0.00000
