3996.73391,0.00062
3994.67373,0.00064
3992.61356,0.00062
3990.55339,0.00050
3988.49322,0.00045
3986.43305,0.00043
3984.37287,0.00034
3982.31270,0.00034
3980.25253,0.00038
3978.19236,0.00022
3976.13219,0.00000
3974.07201,0.00000
3972.01184,0.00019
3969.95167,0.00054
3967.89150,0.00094
3965.83133,0.00104
3963.77115,0.00084
3961.71098,0.00073
3959.65081,0.00062
3957.59064,0.00039
3955.53046,0.00036
3953.47029,0.00050
3951.41012,0.00052
3949.34995,0.00054
3947.28978,0.00060
3945.22960,0.00039
3943.16943,0.00018
3941.10926,0.00040
3939.04909,0.00061
3936.98892,0.00058
3934.92874,0.00045
3932.86857,0.00032
3930.80840,0.00040
3928.74823,0.00069
3926.68805,0.00098
3924.62788,0.00104
3922.56771,0.00077
3920.50754,0.00062
3918.44737,0.00086
3916.38719,0.00113
3914.32702,0.00107
3912.26685,0.00091
3910.20668,0.00091
3908.14651,0.00096
3906.08633,0.00086
3904.02616,0.00057
3901.96599,0.00015
3899.90582,0.00002
3897.84565,0.00042
3895.78547,0.00089
3893.72530,0.00111
3891.66513,0.00111
3889.60496,0.00087
3887.54478,0.00044
3885.48461,0.00010
3883.42444,0.00009
3881.36427,0.00045
3879.30410,0.00097
3877.24392,0.00112
3875.18375,0.00084
3873.12358,0.00045
3871.06341,0.00037
3869.00324,0.00075
3866.94306,0.00106
3864.88289,0.00091
3862.82272,0.00058
3860.76255,0.00045
3858.70237,0.00062
3856.64220,0.00084
3854.58203,0.00098
3852.52186,0.00123
3850.46169,0.00134
3848.40151,0.00123
3846.34134,0.00121
3844.28117,0.00118
3842.22100,0.00084
3840.16083,0.00052
3838.10065,0.00070
3836.04048,0.00096
3833.98031,0.00085
3831.92014,0.00065
3829.85997,0.00072
3827.79979,0.00086
3825.73962,0.00079
3823.67945,0.00054
3821.61928,0.00053
3819.55910,0.00105
3817.49893,0.00150
3815.43876,0.00142
3813.37859,0.00109
3811.31842,0.00095
3809.25824,0.00111
3807.19807,0.00129
3805.13790,0.00095
3803.07773,0.00032
3801.01756,0.00039
3798.95738,0.00122
3796.89721,0.00183
3794.83704,0.00181
3792.77687,0.00131
3790.71670,0.00068
3788.65652,0.00037
3786.59635,0.00036
3784.53618,0.00038
3782.47601,0.00046
3780.41583,0.00078
3778.35566,0.00111
3776.29549,0.00120
3774.23532,0.00118
3772.17515,0.00107
3770.11497,0.00083
3768.05480,0.00070
3765.99463,0.00074
3763.93446,0.00095
3761.87429,0.00139
3759.81411,0.00182
3757.75394,0.00181
3755.69377,0.00136
3753.63360,0.00094
3751.57342,0.00077
3749.51325,0.00069
3747.45308,0.00058
3745.39291,0.00078
3743.33274,0.00139
3741.27256,0.00178
3739.21239,0.00160
3737.15222,0.00083
3735.09205,0.00020
3733.03188,0.00057
3730.97170,0.00117
3728.91153,0.00121
3726.85136,0.00113
3724.79119,0.00121
3722.73102,0.00112
3720.67084,0.00106
3718.61067,0.00129
3716.55050,0.00182
3714.49033,0.00224
3712.43015,0.00205
3710.36998,0.00173
3708.30981,0.00172
3706.24964,0.00169
3704.18947,0.00142
3702.12929,0.00124
3700.06912,0.00141
3698.00895,0.00173
3695.94878,0.00178
3693.88861,0.00133
3691.82843,0.00086
3689.76826,0.00105
3687.70809,0.00175
3685.64792,0.00193
3683.58775,0.00180
3681.52757,0.00215
3679.46740,0.00295
3677.40723,0.00328
3675.34706,0.00273
3673.28688,0.00190
3671.22671,0.00155
3669.16654,0.00211
3667.10637,0.00293
3665.04620,0.00323
3662.98602,0.00322
3660.92585,0.00309
3658.86568,0.00294
3656.80551,0.00317
3654.74534,0.00381
3652.68516,0.00442
3650.62499,0.00487
3648.56482,0.00524
3646.50465,0.00552
3644.44447,0.00578
3642.38430,0.00614
3640.32413,0.00650
3638.26396,0.00664
3636.20379,0.00668
3634.14361,0.00687
3632.08344,0.00720
3630.02327,0.00743
3627.96310,0.00759
3625.90293,0.00780
3623.84275,0.00807
3621.78258,0.00826
3619.72241,0.00838
3617.66224,0.00873
3615.60207,0.00937
3613.54189,0.01019
3611.48172,0.01090
3609.42155,0.01137
3607.36138,0.01160
3605.30120,0.01157
3603.24103,0.01156
3601.18086,0.01190
3599.12069,0.01263
3597.06052,0.01319
3595.00034,0.01340
3592.94017,0.01343
3590.88000,0.01343
3588.81983,0.01360
3586.75966,0.01424
3584.69948,0.01508
3582.63931,0.01584
3580.57914,0.01637
3578.51897,0.01643
3576.45879,0.01632
3574.39862,0.01649
3572.33845,0.01684
3570.27828,0.01709
3568.21811,0.01722
3566.15793,0.01766
3564.09776,0.01872
3562.03759,0.01982
3559.97742,0.02024
3557.91725,0.02003
3555.85707,0.01996
3553.79690,0.02050
3551.73673,0.02125
3549.67656,0.02164
3547.61639,0.02178
3545.55621,0.02202
3543.49604,0.02234
3541.43587,0.02254
3539.37570,0.02251
3537.31552,0.02239
3535.25535,0.02253
3533.19518,0.02306
3531.13501,0.02373
3529.07484,0.02440
3527.01466,0.02506
3524.95449,0.02564
3522.89432,0.02617
3520.83415,0.02654
3518.77398,0.02671
3516.71380,0.02683
3514.65363,0.02696
3512.59346,0.02714
3510.53329,0.02744
3508.47312,0.02773
3506.41294,0.02793
3504.35277,0.02823
3502.29260,0.02868
3500.23243,0.02905
3498.17225,0.02929
3496.11208,0.02945
3494.05191,0.02974
3491.99174,0.03021
3489.93157,0.03047
3487.87139,0.03033
3485.81122,0.03021
3483.75105,0.03045
3481.69088,0.03077
3479.63071,0.03094
3477.57053,0.03120
3475.51036,0.03163
3473.45019,0.03199
3471.39002,0.03223
3469.32984,0.03263
3467.26967,0.03310
3465.20950,0.03333
3463.14933,0.03338
3461.08916,0.03345
3459.02898,0.03368
3456.96881,0.03407
3454.90864,0.03458
3452.84847,0.03513
3450.78830,0.03529
3448.72812,0.03489
3446.66795,0.03476
3444.60778,0.03534
3442.54761,0.03599
3440.48744,0.03622
3438.42726,0.03623
3436.36709,0.03636
3434.30692,0.03652
3432.24675,0.03654
3430.18657,0.03666
3428.12640,0.03715
3426.06623,0.03775
3424.00606,0.03799
3421.94589,0.03790
3419.88571,0.03792
3417.82554,0.03818
3415.76537,0.03847
3413.70520,0.03869
3411.64503,0.03865
3409.58485,0.03866
3407.52468,0.03889
3405.46451,0.03897
3403.40434,0.03891
3401.34416,0.03907
3399.28399,0.03952
3397.22382,0.03984
3395.16365,0.03985
3393.10348,0.03997
3391.04330,0.04036
3388.98313,0.04044
3386.92296,0.04020
3384.86279,0.04026
3382.80262,0.04049
3380.74244,0.04055
3378.68227,0.04071
3376.62210,0.04085
3374.56193,0.04073
3372.50176,0.04068
3370.44158,0.04094
3368.38141,0.04113
3366.32124,0.04102
3364.26107,0.04074
3362.20089,0.04047
3360.14072,0.04035
3358.08055,0.04053
3356.02038,0.04088
3353.96021,0.04112
3351.90003,0.04120
3349.83986,0.04124
3347.77969,0.04134
3345.71952,0.04142
3343.65935,0.04129
3341.59917,0.04097
3339.53900,0.04085
3337.47883,0.04109
3335.41866,0.04139
3333.35849,0.04141
3331.29831,0.04115
3329.23814,0.04100
3327.17797,0.04116
3325.11780,0.04145
3323.05762,0.04165
3320.99745,0.04175
3318.93728,0.04172
3316.87711,0.04163
3314.81694,0.04164
3312.75676,0.04155
3310.69659,0.04124
3308.63642,0.04093
3306.57625,0.04082
3304.51608,0.04103
3302.45590,0.04133
3300.39573,0.04145
3298.33556,0.04151
3296.27539,0.04157
3294.21521,0.04157
3292.15504,0.04156
3290.09487,0.04160
3288.03470,0.04157
3285.97453,0.04148
3283.91435,0.04136
3281.85418,0.04121
3279.79401,0.04121
3277.73384,0.04138
3275.67367,0.04138
3273.61349,0.04117
3271.55332,0.04110
3269.49315,0.04124
3267.43298,0.04124
3265.37281,0.04102
3263.31263,0.04085
3261.25246,0.04077
3259.19229,0.04063
3257.13212,0.04042
3255.07194,0.04041
3253.01177,0.04068
3250.95160,0.04093
3248.89143,0.04089
3246.83126,0.04072
3244.77108,0.04081
3242.71091,0.04095
3240.65074,0.04080
3238.59057,0.04063
3236.53040,0.04058
3234.47022,0.04046
3232.41005,0.04030
3230.34988,0.04011
3228.28971,0.03994
3226.22954,0.04008
3224.16936,0.04035
3222.10919,0.04031
3220.04902,0.04002
3217.98885,0.03986
3215.92867,0.03991
3213.86850,0.03990
3211.80833,0.03981
3209.74816,0.03977
3207.68799,0.03968
3205.62781,0.03945
3203.56764,0.03927
3201.50747,0.03925
3199.44730,0.03920
3197.38713,0.03899
3195.32695,0.03894
3193.26678,0.03916
3191.20661,0.03918
3189.14644,0.03887
3187.08626,0.03849
3185.02609,0.03824
3182.96592,0.03821
3180.90575,0.03831
3178.84558,0.03833
3176.78540,0.03817
3174.72523,0.03781
3172.66506,0.03737
3170.60489,0.03706
3168.54472,0.03697
3166.48454,0.03703
3164.42437,0.03707
3162.36420,0.03700
3160.30403,0.03684
3158.24386,0.03654
3156.18368,0.03621
3154.12351,0.03605
3152.06334,0.03598
3150.00317,0.03595
3147.94299,0.03593
3145.88282,0.03582
3143.82265,0.03556
3141.76248,0.03530
3139.70231,0.03517
3137.64213,0.03509
3135.58196,0.03486
3133.52179,0.03458
3131.46162,0.03450
3129.40145,0.03448
3127.34127,0.03432
3125.28110,0.03409
3123.22093,0.03402
3121.16076,0.03410
3119.10058,0.03399
3117.04041,0.03364
3114.98024,0.03336
3112.92007,0.03311
3110.85990,0.03298
3108.79972,0.03300
3106.73955,0.03286
3104.67938,0.03247
3102.61921,0.03196
3100.55904,0.03164
3098.49886,0.03178
3096.43869,0.03203
3094.37852,0.03196
3092.31835,0.03171
3090.25818,0.03147
3088.19800,0.03115
3086.13783,0.03088
3084.07766,0.03090
3082.01749,0.03094
3079.95731,0.03079
3077.89714,0.03066
3075.83697,0.03060
3073.77680,0.03055
3071.71663,0.03055
3069.65645,0.03056
3067.59628,0.03042
3065.53611,0.03001
3063.47594,0.02948
3061.41577,0.02915
3059.35559,0.02909
3057.29542,0.02900
3055.23525,0.02862
3053.17508,0.02816
3051.11491,0.02794
3049.05473,0.02790
3046.99456,0.02779
3044.93439,0.02753
3042.87422,0.02740
3040.81404,0.02742
3038.75387,0.02730
3036.69370,0.02703
3034.63353,0.02683
3032.57336,0.02677
3030.51318,0.02672
3028.45301,0.02660
3026.39284,0.02643
3024.33267,0.02615
3022.27250,0.02588
3020.21232,0.02576
3018.15215,0.02570
3016.09198,0.02559
3014.03181,0.02544
3011.97163,0.02522
3009.91146,0.02481
3007.85129,0.02439
3005.79112,0.02427
3003.73095,0.02439
3001.67077,0.02435
2999.61060,0.02397
2997.55043,0.02357
2995.49026,0.02350
2993.43009,0.02358
2991.36991,0.02342
2989.30974,0.02310
2987.24957,0.02293
2985.18940,0.02300
2983.12923,0.02302
2981.06905,0.02284
2979.00888,0.02276
2976.94871,0.02276
2974.88854,0.02263
2972.82836,0.02241
2970.76819,0.02227
2968.70802,0.02230
2966.64785,0.02253
2964.58768,0.02283
2962.52750,0.02289
2960.46733,0.02274
2958.40716,0.02269
2956.34699,0.02277
2954.28682,0.02274
2952.22664,0.02258
2950.16647,0.02263
2948.10630,0.02290
2946.04613,0.02310
2943.98596,0.02318
2941.92578,0.02312
2939.86561,0.02300
2937.80544,0.02291
2935.74527,0.02270
2933.68509,0.02243
2931.62492,0.02234
2929.56475,0.02233
2927.50458,0.02216
2925.44441,0.02193
2923.38423,0.02177
2921.32406,0.02167
2919.26389,0.02166
2917.20372,0.02174
2915.14355,0.02186
2913.08337,0.02196
2911.02320,0.02171
2908.96303,0.02122
2906.90286,0.02102
2904.84268,0.02103
2902.78251,0.02086
2900.72234,0.02063
2898.66217,0.02053
2896.60200,0.02050
2894.54182,0.02052
2892.48165,0.02069
2890.42148,0.02076
2888.36131,0.02062
2886.30114,0.02054
2884.24096,0.02053
2882.18079,0.02049
2880.12062,0.02059
2878.06045,0.02064
2876.00028,0.02034
2873.94010,0.01992
2871.87993,0.01968
2869.81976,0.01966
2867.75959,0.01961
2865.69941,0.01935
2863.63924,0.01914
2861.57907,0.01923
2859.51890,0.01939
2857.45873,0.01931
2855.39855,0.01918
2853.33838,0.01913
2851.27821,0.01890
2849.21804,0.01855
2847.15787,0.01837
2845.09769,0.01829
2843.03752,0.01819
2840.97735,0.01804
2838.91718,0.01790
2836.85700,0.01781
2834.79683,0.01776
2832.73666,0.01777
2830.67649,0.01773
2828.61632,0.01756
2826.55614,0.01735
2824.49597,0.01722
2822.43580,0.01725
2820.37563,0.01724
2818.31546,0.01701
2816.25528,0.01671
2814.19511,0.01642
2812.13494,0.01605
2810.07477,0.01575
2808.01460,0.01575
2805.95442,0.01598
2803.89425,0.01601
2801.83408,0.01587
2799.77391,0.01589
2797.71373,0.01597
2795.65356,0.01597
2793.59339,0.01590
2791.53322,0.01577
2789.47305,0.01560
2787.41287,0.01543
2785.35270,0.01533
2783.29253,0.01520
2781.23236,0.01514
2779.17219,0.01532
2777.11201,0.01554
2775.05184,0.01546
2772.99167,0.01507
2770.93150,0.01474
2768.87133,0.01459
2766.81115,0.01459
2764.75098,0.01465
2762.69081,0.01461
2760.63064,0.01446
2758.57046,0.01436
2756.51029,0.01437
2754.45012,0.01433
2752.38995,0.01438
2750.32978,0.01462
2748.26960,0.01466
2746.20943,0.01441
2744.14926,0.01418
2742.08909,0.01407
2740.02892,0.01404
2737.96874,0.01403
2735.90857,0.01405
2733.84840,0.01402
2731.78823,0.01397
2729.72805,0.01384
2727.66788,0.01356
2725.60771,0.01343
2723.54754,0.01353
2721.48737,0.01356
2719.42719,0.01350
2717.36702,0.01353
2715.30685,0.01353
2713.24668,0.01335
2711.18651,0.01316
2709.12633,0.01307
2707.06616,0.01298
2705.00599,0.01292
2702.94582,0.01278
2700.88565,0.01260
2698.82547,0.01257
2696.76530,0.01255
2694.70513,0.01243
2692.64496,0.01225
2690.58478,0.01215
2688.52461,0.01217
2686.46444,0.01213
2684.40427,0.01206
2682.34410,0.01214
2680.28392,0.01234
2678.22375,0.01238
2676.16358,0.01215
2674.10341,0.01176
2672.04324,0.01151
2669.98306,0.01151
2667.92289,0.01150
2665.86272,0.01147
2663.80255,0.01153
2661.74238,0.01153
2659.68220,0.01146
2657.62203,0.01145
2655.56186,0.01151
2653.50169,0.01158
2651.44151,0.01154
2649.38134,0.01137
2647.32117,0.01118
2645.26100,0.01100
2643.20083,0.01087
2641.14065,0.01088
2639.08048,0.01096
2637.02031,0.01100
2634.96014,0.01101
2632.89997,0.01098
2630.83979,0.01084
2628.77962,0.01052
2626.71945,0.01005
2624.65928,0.00965
2622.59910,0.00953
2620.53893,0.00956
2618.47876,0.00957
2616.41859,0.00956
2614.35842,0.00955
2612.29824,0.00957
2610.23807,0.00959
2608.17790,0.00952
2606.11773,0.00941
2604.05756,0.00938
2601.99738,0.00951
2599.93721,0.00959
2597.87704,0.00931
2595.81687,0.00895
2593.75670,0.00899
2591.69652,0.00925
2589.63635,0.00913
2587.57618,0.00868
2585.51601,0.00844
2583.45583,0.00860
2581.39566,0.00896
2579.33549,0.00904
2577.27532,0.00864
2575.21515,0.00823
2573.15497,0.00803
2571.09480,0.00787
2569.03463,0.00793
2566.97446,0.00836
2564.91429,0.00874
2562.85411,0.00874
2560.79394,0.00842
2558.73377,0.00817
2556.67360,0.00818
2554.61342,0.00816
2552.55325,0.00810
2550.49308,0.00828
2548.43291,0.00863
2546.37274,0.00874
2544.31256,0.00847
2542.25239,0.00819
2540.19222,0.00800
2538.13205,0.00793
2536.07188,0.00812
2534.01170,0.00838
2531.95153,0.00839
2529.89136,0.00808
2527.83119,0.00788
2525.77102,0.00791
2523.71084,0.00769
2521.65067,0.00760
2519.59050,0.00811
2517.53033,0.00859
2515.47015,0.00847
2513.40998,0.00804
2511.34981,0.00799
2509.28964,0.00821
2507.22947,0.00832
2505.16929,0.00849
2503.10912,0.00859
2501.04895,0.00839
2498.98878,0.00807
2496.92861,0.00785
2494.86843,0.00790
2492.80826,0.00830
2490.74809,0.00863
2488.68792,0.00850
2486.62775,0.00830
2484.56757,0.00843
2482.50740,0.00865
2480.44723,0.00866
2478.38706,0.00848
2476.32688,0.00827
2474.26671,0.00814
2472.20654,0.00833
2470.14637,0.00879
2468.08620,0.00890
2466.02602,0.00877
2463.96585,0.00894
2461.90568,0.00914
2459.84551,0.00904
2457.78534,0.00861
2455.72516,0.00817
2453.66499,0.00805
2451.60482,0.00818
2449.54465,0.00848
2447.48447,0.00883
2445.42430,0.00899
2443.36413,0.00892
2441.30396,0.00881
2439.24379,0.00872
2437.18361,0.00859
2435.12344,0.00854
2433.06327,0.00851
2431.00310,0.00838
2428.94293,0.00840
2426.88275,0.00859
2424.82258,0.00855
2422.76241,0.00852
2420.70224,0.00884
2418.64207,0.00920
2416.58189,0.00928
2414.52172,0.00924
2412.46155,0.00938
2410.40138,0.00941
2408.34120,0.00898
2406.28103,0.00845
2404.22086,0.00821
2402.16069,0.00825
2400.10052,0.00835
2398.04034,0.00851
2395.98017,0.00871
2393.92000,0.00884
2391.85983,0.00882
2389.79966,0.00878
2387.73948,0.00887
2385.67931,0.00903
2383.61914,0.00892
2381.55897,0.00845
2379.49880,0.00791
2377.43862,0.00777
2375.37845,0.00788
2373.31828,0.00830
2371.25811,0.00901
2369.19793,0.00936
2367.13776,0.00934
2365.07759,0.00784
2363.01742,0.00412
2360.95725,0.00302
2358.89707,0.00304
2356.83690,0.00390
2354.77673,0.00575
2352.71656,0.00783
2350.65639,0.01167
2348.59621,0.01266
2346.53604,0.00728
2344.47587,0.00563
2342.41570,0.00666
2340.35552,0.00709
2338.29535,0.00722
2336.23518,0.00745
2334.17501,0.00861
2332.11484,0.00972
2330.05466,0.01032
2327.99449,0.00999
2325.93432,0.01016
2323.87415,0.00975
2321.81398,0.00885
2319.75380,0.00771
2317.69363,0.00797
2315.63346,0.00815
2313.57329,0.00802
2311.51312,0.00829
2309.45294,0.00881
2307.39277,0.00908
2305.33260,0.00889
2303.27243,0.00862
2301.21225,0.00866
2299.15208,0.00913
2297.09191,0.00927
2295.03174,0.00893
2292.97157,0.00862
2290.91139,0.00834
2288.85122,0.00800
2286.79105,0.00796
2284.73088,0.00825
2282.67071,0.00834
2280.61053,0.00800
2278.55036,0.00765
2276.49019,0.00758
2274.43002,0.00766
2272.36984,0.00761
2270.30967,0.00740
2268.24950,0.00713
2266.18933,0.00691
2264.12916,0.00688
2262.06898,0.00694
2260.00881,0.00683
2257.94864,0.00684
2255.88847,0.00696
2253.82830,0.00700
2251.76812,0.00673
2249.70795,0.00569
2247.64778,0.00469
2245.58761,0.00494
2243.52744,0.00560
2241.46726,0.00618
2239.40709,0.00657
2237.34692,0.00629
2235.28675,0.00571
2233.22657,0.00568
2231.16640,0.00647
2229.10623,0.00716
2227.04606,0.00698
2224.98589,0.00682
2222.92571,0.00722
2220.86554,0.00747
2218.80537,0.00693
2216.74520,0.00591
2214.68503,0.00558
2212.62485,0.00595
2210.56468,0.00621
2208.50451,0.00601
2206.44434,0.00565
2204.38417,0.00640
2202.32399,0.00756
2200.26382,0.00713
2198.20365,0.00590
2196.14348,0.00539
2194.08330,0.00559
2192.02313,0.00591
2189.96296,0.00575
2187.90279,0.00522
2185.84262,0.00483
2183.78244,0.00494
2181.72227,0.00585
2179.66210,0.00672
2177.60193,0.00639
2175.54176,0.00507
2173.48158,0.00375
2171.42141,0.00317
2169.36124,0.00371
2167.30107,0.00491
2165.24089,0.00550
2163.18072,0.00534
2161.12055,0.00502
2159.06038,0.00371
2157.00021,0.00162
2154.94003,0.00057
2152.87986,0.00085
2150.81969,0.00145
2148.75952,0.00195
2146.69935,0.00250
2144.63917,0.00309
2142.57900,0.00381
2140.51883,0.00458
2138.45866,0.00466
2136.39849,0.00393
2134.33831,0.00337
2132.27814,0.00326
2130.21797,0.00303
2128.15780,0.00267
2126.09762,0.00296
2124.03745,0.00396
2121.97728,0.00478
2119.91711,0.00497
2117.85694,0.00502
2115.79676,0.00538
2113.73659,0.00567
2111.67642,0.00582
2109.61625,0.00588
2107.55608,0.00556
2105.49590,0.00491
2103.43573,0.00447
2101.37556,0.00450
2099.31539,0.00428
2097.25521,0.00394
2095.19504,0.00429
2093.13487,0.00509
2091.07470,0.00541
2089.01453,0.00491
2086.95435,0.00416
2084.89418,0.00386
2082.83401,0.00393
2080.77384,0.00394
2078.71367,0.00395
2076.65349,0.00414
2074.59332,0.00438
2072.53315,0.00443
2070.47298,0.00449
2068.41281,0.00460
2066.35263,0.00474
2064.29246,0.00498
2062.23229,0.00490
2060.17212,0.00485
2058.11194,0.00527
2056.05177,0.00543
2053.99160,0.00532
2051.93143,0.00539
2049.87126,0.00496
2047.81108,0.00341
2045.75091,0.00169
2043.69074,0.00146
2041.63057,0.00222
2039.57040,0.00326
2037.51022,0.00458
2035.45005,0.00480
2033.38988,0.00390
2031.32971,0.00348
2029.26954,0.00300
2027.20936,0.00229
2025.14919,0.00276
2023.08902,0.00337
2021.02885,0.00267
2018.96867,0.00200
2016.90850,0.00245
2014.84833,0.00317
2012.78816,0.00310
2010.72799,0.00255
2008.66781,0.00249
2006.60764,0.00250
2004.54747,0.00228
2002.48730,0.00274
2000.42713,0.00348
1998.36695,0.00330
1996.30678,0.00201
1994.24661,0.00104
1992.18644,0.00175
1990.12626,0.00296
1988.06609,0.00331
1986.00592,0.00346
1983.94575,0.00396
1981.88558,0.00415
1979.82540,0.00309
1977.76523,0.00118
1975.70506,0.00000
1973.64489,0.00031
1971.58472,0.00149
1969.52454,0.00234
1967.46437,0.00293
1965.40420,0.00341
1963.34403,0.00300
1961.28386,0.00216
1959.22368,0.00187
1957.16351,0.00190
1955.10334,0.00161
1953.04317,0.00136
1950.98299,0.00197
1948.92282,0.00289
1946.86265,0.00315
1944.80248,0.00291
1942.74231,0.00280
1940.68213,0.00320
1938.62196,0.00390
1936.56179,0.00432
1934.50162,0.00426
1932.44145,0.00407
1930.38127,0.00378
1928.32110,0.00318
1926.26093,0.00276
1924.20076,0.00296
1922.14059,0.00337
1920.08041,0.00353
1918.02024,0.00350
1915.96007,0.00354
1913.89990,0.00377
1911.83972,0.00388
1909.77955,0.00364
1907.71938,0.00351
1905.65921,0.00361
1903.59904,0.00363
1901.53886,0.00362
1899.47869,0.00363
1897.41852,0.00368
1895.35835,0.00392
1893.29818,0.00415
1891.23800,0.00408
1889.17783,0.00387
1887.11766,0.00367
1885.05749,0.00349
1882.99731,0.00348
1880.93714,0.00361
1878.87697,0.00373
1876.81680,0.00373
1874.75663,0.00358
1872.69645,0.00321
1870.63628,0.00291
1868.57611,0.00320
1866.51594,0.00394
1864.45577,0.00442
1862.39559,0.00444
1860.33542,0.00437
1858.27525,0.00440
1856.21508,0.00430
1854.15491,0.00385
1852.09473,0.00340
1850.03456,0.00331
1847.97439,0.00343
1845.91422,0.00356
1843.85404,0.00375
1841.79387,0.00404
1839.73370,0.00438
1837.67353,0.00477
1835.61336,0.00496
1833.55318,0.00462
1831.49301,0.00398
1829.43284,0.00378
1827.37267,0.00422
1825.31250,0.00476
1823.25232,0.00500
1821.19215,0.00488
1819.13198,0.00454
1817.07181,0.00435
1815.01163,0.00439
1812.95146,0.00441
1810.89129,0.00438
1808.83112,0.00438
1806.77095,0.00438
1804.71077,0.00444
1802.65060,0.00467
1800.59043,0.00499
1798.53026,0.00513
1796.47009,0.00497
1794.40991,0.00470
1792.34974,0.00457
1790.28957,0.00462
1788.22940,0.00457
1786.16923,0.00448
1784.10905,0.00461
1782.04888,0.00487
1779.98871,0.00513
1777.92854,0.00525
1775.86836,0.00514
1773.80819,0.00491
1771.74802,0.00491
1769.68785,0.00521
1767.62768,0.00554
1765.56750,0.00571
1763.50733,0.00572
1761.44716,0.00563
1759.38699,0.00561
1757.32682,0.00571
1755.26664,0.00579
1753.20647,0.00575
1751.14630,0.00580
1749.08613,0.00619
1747.02596,0.00671
1744.96578,0.00705
1742.90561,0.00721
1740.84544,0.00740
1738.78527,0.00761
1736.72509,0.00762
1734.66492,0.00758
1732.60475,0.00781
1730.54458,0.00802
1728.48441,0.00802
1726.42423,0.00797
1724.36406,0.00805
1722.30389,0.00816
1720.24372,0.00819
1718.18355,0.00842
1716.12337,0.00900
1714.06320,0.00944
1712.00303,0.00954
1709.94286,0.00949
1707.88268,0.00951
1705.82251,0.00971
1703.76234,0.01001
1701.70217,0.01022
1699.64200,0.01041
1697.58182,0.01071
1695.52165,0.01109
1693.46148,0.01145
1691.40131,0.01172
1689.34114,0.01195
1687.28096,0.01211
1685.22079,0.01254
1683.16062,0.01355
1681.10045,0.01426
1679.04028,0.01437
1676.98010,0.01445
1674.91993,0.01494
1672.85976,0.01566
1670.79959,0.01632
1668.73941,0.01678
1666.67924,0.01682
1664.61907,0.01672
1662.55890,0.01704
1660.49873,0.01769
1658.43855,0.01805
1656.37838,0.01794
1654.31821,0.01785
1652.25804,0.01825
1650.19787,0.01838
1648.13769,0.01823
1646.07752,0.01850
1644.01735,0.01894
1641.95718,0.01905
1639.89701,0.01880
1637.83683,0.01845
1635.77666,0.01846
1633.71649,0.01878
1631.65632,0.01889
1629.59614,0.01874
1627.53597,0.01845
1625.47580,0.01822
1623.41563,0.01819
1621.35546,0.01823
1619.29528,0.01815
1617.23511,0.01809
1615.17494,0.01803
1613.11477,0.01781
1611.05460,0.01762
1608.99442,0.01760
1606.93425,0.01761
1604.87408,0.01745
1602.81391,0.01711
1600.75373,0.01666
1598.69356,0.01623
1596.63339,0.01591
1594.57322,0.01559
1592.51305,0.01513
1590.45287,0.01457
1588.39270,0.01406
1586.33253,0.01366
1584.27236,0.01334
1582.21219,0.01300
1580.15201,0.01254
1578.09184,0.01208
1576.03167,0.01193
1573.97150,0.01189
1571.91133,0.01149
1569.85115,0.01102
1567.79098,0.01086
1565.73081,0.01071
1563.67064,0.01028
1561.61046,0.00971
1559.55029,0.00944
1557.49012,0.00961
1555.42995,0.00963
1553.36978,0.00945
1551.30960,0.00922
1549.24943,0.00901
1547.18926,0.00867
1545.12909,0.00801
1543.06892,0.00733
1541.00874,0.00743
1538.94857,0.00820
1536.88840,0.00837
1534.82823,0.00798
1532.76805,0.00758
1530.70788,0.00721
1528.64771,0.00681
1526.58754,0.00650
1524.52737,0.00637
1522.46719,0.00654
1520.40702,0.00676
1518.34685,0.00660
1516.28668,0.00637
1514.22651,0.00642
1512.16633,0.00642
1510.10616,0.00614
1508.04599,0.00590
1505.98582,0.00610
1503.92565,0.00630
1501.86547,0.00621
1499.80530,0.00608
1497.74513,0.00610
1495.68496,0.00618
1493.62478,0.00606
1491.56461,0.00580
1489.50444,0.00570
1487.44427,0.00591
1485.38410,0.00620
1483.32392,0.00632
1481.26375,0.00630
1479.20358,0.00627
1477.14341,0.00627
1475.08324,0.00632
1473.02306,0.00662
1470.96289,0.00719
1468.90272,0.00760
1466.84255,0.00776
1464.78238,0.00784
1462.72220,0.00786
1460.66203,0.00775
1458.60186,0.00781
1456.54169,0.00819
1454.48151,0.00845
1452.42134,0.00843
1450.36117,0.00826
1448.30100,0.00804
1446.24083,0.00792
1444.18065,0.00795
1442.12048,0.00805
1440.06031,0.00811
1438.00014,0.00822
1435.93997,0.00855
1433.87979,0.00878
1431.81962,0.00875
1429.75945,0.00875
1427.69928,0.00884
1425.63910,0.00888
1423.57893,0.00893
1421.51876,0.00911
1419.45859,0.00948
1417.39842,0.00987
1415.33824,0.00996
1413.27807,0.00981
1411.21790,0.00966
1409.15773,0.00959
1407.09756,0.00953
1405.03738,0.00945
1402.97721,0.00929
1400.91704,0.00907
1398.85687,0.00897
1396.79670,0.00898
1394.73652,0.00892
1392.67635,0.00877
1390.61618,0.00855
1388.55601,0.00843
1386.49583,0.00851
1384.43566,0.00864
1382.37549,0.00866
1380.31532,0.00861
1378.25515,0.00858
1376.19497,0.00860
1374.13480,0.00868
1372.07463,0.00866
1370.01446,0.00850
1367.95429,0.00835
1365.89411,0.00826
1363.83394,0.00821
1361.77377,0.00819
1359.71360,0.00803
1357.65343,0.00773
1355.59325,0.00754
1353.53308,0.00752
1351.47291,0.00745
1349.41274,0.00726
1347.35256,0.00709
1345.29239,0.00704
1343.23222,0.00710
1341.17205,0.00714
1339.11188,0.00710
1337.05170,0.00701
1334.99153,0.00688
1332.93136,0.00676
1330.87119,0.00676
1328.81102,0.00682
1326.75084,0.00686
1324.69067,0.00695
1322.63050,0.00701
1320.57033,0.00690
1318.51015,0.00675
1316.44998,0.00679
1314.38981,0.00693
1312.32964,0.00702
1310.26947,0.00696
1308.20929,0.00684
1306.14912,0.00682
1304.08895,0.00686
1302.02878,0.00687
1299.96861,0.00689
1297.90843,0.00693
1295.84826,0.00698
1293.78809,0.00705
1291.72792,0.00710
1289.66775,0.00716
1287.60757,0.00722
1285.54740,0.00718
1283.48723,0.00712
1281.42706,0.00714
1279.36688,0.00722
1277.30671,0.00729
1275.24654,0.00740
1273.18637,0.00756
1271.12620,0.00765
1269.06602,0.00766
1267.00585,0.00770
1264.94568,0.00788
1262.88551,0.00806
1260.82534,0.00802
1258.76516,0.00781
1256.70499,0.00757
1254.64482,0.00742
1252.58465,0.00746
1250.52447,0.00768
1248.46430,0.00788
1246.40413,0.00790
1244.34396,0.00772
1242.28379,0.00747
1240.22361,0.00722
1238.16344,0.00698
1236.10327,0.00686
1234.04310,0.00680
1231.98293,0.00673
1229.92275,0.00674
1227.86258,0.00674
1225.80241,0.00654
1223.74224,0.00618
1221.68207,0.00593
1219.62189,0.00593
1217.56172,0.00590
1215.50155,0.00573
1213.44138,0.00551
1211.38120,0.00529
1209.32103,0.00516
1207.26086,0.00522
1205.20069,0.00531
1203.14052,0.00530
1201.08034,0.00523
1199.02017,0.00519
1196.96000,0.00520
1194.89983,0.00521
1192.83966,0.00521
1190.77948,0.00532
1188.71931,0.00560
1186.65914,0.00594
1184.59897,0.00623
1182.53880,0.00660
1180.47862,0.00720
1178.41845,0.00787
1176.35828,0.00842
1174.29811,0.00890
1172.23793,0.00941
1170.17776,0.01003
1168.11759,0.01069
1166.05742,0.01143
1163.99725,0.01229
1161.93707,0.01308
1159.87690,0.01357
1157.81673,0.01385
1155.75656,0.01419
1153.69639,0.01474
1151.63621,0.01538
1149.57604,0.01601
1147.51587,0.01669
1145.45570,0.01734
1143.39552,0.01784
1141.33535,0.01827
1139.27518,0.01883
1137.21501,0.01955
1135.15484,0.02028
1133.09466,0.02088
1131.03449,0.02153
1128.97432,0.02232
1126.91415,0.02320
1124.85398,0.02410
1122.79380,0.02482
1120.73363,0.02541
1118.67346,0.02615
1116.61329,0.02697
1114.55312,0.02780
1112.49294,0.02872
1110.43277,0.02963
1108.37260,0.03059
1106.31243,0.03166
1104.25225,0.03262
1102.19208,0.03340
1100.13191,0.03415
1098.07174,0.03505
1096.01157,0.03608
1093.95139,0.03702
1091.89122,0.03790
1089.83105,0.03876
1087.77088,0.03950
1085.71071,0.04030
1083.65053,0.04112
1081.59036,0.04171
1079.53019,0.04216
1077.47002,0.04270
1075.40985,0.04337
1073.34967,0.04396
1071.28950,0.04410
1069.22933,0.04398
1067.16916,0.04415
1065.10898,0.04440
1063.04881,0.04422
1060.98864,0.04381
1058.92847,0.04336
1056.86830,0.04292
1054.80812,0.04266
1052.74795,0.04252
1050.68778,0.04229
1048.62761,0.04179
1046.56744,0.04111
1044.50726,0.04038
1042.44709,0.03959
1040.38692,0.03888
1038.32675,0.03829
1036.26657,0.03767
1034.20640,0.03699
1032.14623,0.03626
1030.08606,0.03540
1028.02589,0.03440
1025.96571,0.03350
1023.90554,0.03276
1021.84537,0.03202
1019.78520,0.03126
1017.72503,0.03072
1015.66485,0.03018
1013.60468,0.02932
1011.54451,0.02834
1009.48434,0.02757
1007.42417,0.02715
1005.36399,0.02708
1003.30382,0.02703
1001.24365,0.02684
999.18348,0.02686
997.12330,0.02722
995.06313,0.02769
993.00296,0.02820
990.94279,0.02863
988.88262,0.02888
986.82244,0.02890
984.76227,0.02872
982.70210,0.02851
980.64193,0.02822
978.58176,0.02768
976.52158,0.02688
974.46141,0.02584
972.40124,0.02460
970.34107,0.02334
968.28089,0.02224
966.22072,0.02141
964.16055,0.02068
962.10038,0.01987
960.04021,0.01904
957.98003,0.01828
955.91986,0.01764
953.85969,0.01707
951.79952,0.01636
949.73935,0.01561
947.67917,0.01506
945.61900,0.01481
943.55883,0.01476
941.49866,0.01485
939.43849,0.01493
937.37831,0.01480
935.31814,0.01443
933.25797,0.01411
931.19780,0.01393
929.13762,0.01363
927.07745,0.01334
925.01728,0.01326
922.95711,0.01307
920.89694,0.01260
918.83676,0.01200
916.77659,0.01149
914.71642,0.01122
912.65625,0.01110
910.59608,0.01088
908.53590,0.01072
906.47573,0.01080
904.41556,0.01085
902.35539,0.01079
900.29522,0.01075
898.23504,0.01077
896.17487,0.01097
894.11470,0.01123
892.05453,0.01130
889.99435,0.01124
887.93418,0.01108
885.87401,0.01098
883.81384,0.01130
881.75367,0.01181
879.69349,0.01241
877.63332,0.01316
875.57315,0.01368
873.51298,0.01383
871.45281,0.01362
869.39263,0.01340
867.33246,0.01376
865.27229,0.01418
863.21212,0.01396
861.15194,0.01364
859.09177,0.01374
857.03160,0.01405
854.97143,0.01435
852.91126,0.01428
850.85108,0.01374
848.79091,0.01323
846.73074,0.01308
844.67057,0.01301
842.61040,0.01261
840.55022,0.01195
838.49005,0.01127
836.42988,0.01065
834.36971,0.01019
832.30954,0.01003
830.24936,0.01003
828.18919,0.01004
826.12902,0.01000
824.06885,0.00983
822.00867,0.00949
819.94850,0.00920
817.88833,0.00922
815.82816,0.00942
813.76799,0.00949
811.70781,0.00932
809.64764,0.00896
807.58747,0.00863
805.52730,0.00857
803.46713,0.00861
801.40695,0.00859
799.34678,0.00842
797.28661,0.00819
795.22644,0.00832
793.16627,0.00850
791.10609,0.00821
789.04592,0.00799
786.98575,0.00841
784.92558,0.00881
782.86540,0.00847
780.80523,0.00770
778.74506,0.00751
776.68489,0.00795
774.62472,0.00785
772.56454,0.00729
770.50437,0.00736
768.44420,0.00803
766.38403,0.00828
764.32386,0.00795
762.26368,0.00770
760.20351,0.00782
758.14334,0.00805
756.08317,0.00807
754.02299,0.00783
751.96282,0.00711
749.90265,0.00653
747.84248,0.00694
745.78231,0.00748
743.72213,0.00716
741.66196,0.00654
739.60179,0.00668
737.54162,0.00726
735.48145,0.00737
733.42127,0.00728
731.36110,0.00754
729.30093,0.00792
727.24076,0.00822
725.18059,0.00830
723.12041,0.00870
721.06024,0.00873
719.00007,0.00915
716.93990,0.00920
714.87972,0.00876
712.81955,0.00845
710.75938,0.00823
708.69921,0.00807
706.63904,0.00803
704.57886,0.00814
702.51869,0.00836
700.45852,0.00861
698.39835,0.00860
696.33818,0.00815
694.27800,0.00773
692.21783,0.00769
690.15766,0.00782
688.09749,0.00838
686.03731,0.00964
683.97714,0.01057
681.91697,0.01028
679.85680,0.00970
677.79663,0.00981
675.73645,0.01018
673.67628,0.01114
671.61611,0.01183
669.55594,0.00481
667.49577,0.00000
665.43559,0.01006
663.37542,0.01149
661.31525,0.01041
659.25508,0.01017
657.19491,0.01009
655.13473,0.00982
653.07456,0.00887
651.01439,0.00748
648.95422,0.00665
646.89404,0.00689
644.83387,0.00696
642.77370,0.00689
640.71353,0.00696
638.65336,0.00655
636.59318,0.00535
634.53301,0.00450
632.47284,0.00452
630.41267,0.00470
628.35250,0.00427
626.29232,0.00371
624.23215,0.00414
622.17198,0.00366
620.11181,0.00183
618.05164,0.00280
615.99146,0.00604
613.93129,0.00688
611.87112,0.00551
609.81095,0.00298
607.75077,0.00050
605.69060,0.00000
603.63043,0.00008
601.57026,0.00073
599.51009,0.00000
