3996.73391,0.00059
3994.67373,0.00073
3992.61356,0.00102
3990.55339,0.00099
3988.49322,0.00072
3986.43305,0.00063
3984.37287,0.00071
3982.31270,0.00063
3980.25253,0.00044
3978.19236,0.00057
3976.13219,0.00093
3974.07201,0.00097
3972.01184,0.00056
3969.95167,0.00015
3967.89150,0.00000
3965.83133,0.00002
3963.77115,0.00017
3961.71098,0.00040
3959.65081,0.00057
3957.59064,0.00072
3955.53046,0.00098
3953.47029,0.00123
3951.41012,0.00137
3949.34995,0.00154
3947.28978,0.00169
3945.22960,0.00148
3943.16943,0.00099
3941.10926,0.00070
3939.04909,0.00071
3936.98892,0.00090
3934.92874,0.00115
3932.86857,0.00142
3930.80840,0.00150
3928.74823,0.00101
3926.68805,0.00036
3924.62788,0.00027
3922.56771,0.00047
3920.50754,0.00046
3918.44737,0.00042
3916.38719,0.00053
3914.32702,0.00072
3912.26685,0.00097
3910.20668,0.00113
3908.14651,0.00107
3906.08633,0.00101
3904.02616,0.00116
3901.96599,0.00138
3899.90582,0.00135
3897.84565,0.00114
3895.78547,0.00092
3893.72530,0.00074
3891.66513,0.00060
3889.60496,0.00047
3887.54478,0.00045
3885.48461,0.00081
3883.42444,0.00126
3881.36427,0.00122
3879.30410,0.00089
3877.24392,0.00060
3875.18375,0.00045
3873.12358,0.00064
3871.06341,0.00109
3869.00324,0.00127
3866.94306,0.00108
3864.88289,0.00093
3862.82272,0.00104
3860.76255,0.00128
3858.70237,0.00143
3856.64220,0.00148
3854.58203,0.00137
3852.52186,0.00105
3850.46169,0.00082
3848.40151,0.00065
3846.34134,0.00038
3844.28117,0.00009
3842.22100,0.00000
3840.16083,0.00023
3838.10065,0.00064
3836.04048,0.00094
3833.98031,0.00098
3831.92014,0.00089
3829.85997,0.00088
3827.79979,0.00108
3825.73962,0.00117
3823.67945,0.00086
3821.61928,0.00038
3819.55910,0.00017
3817.49893,0.00032
3815.43876,0.00067
3813.37859,0.00106
3811.31842,0.00148
3809.25824,0.00176
3807.19807,0.00150
3805.13790,0.00088
3803.07773,0.00047
3801.01756,0.00050
3798.95738,0.00078
3796.89721,0.00113
3794.83704,0.00133
3792.77687,0.00115
3790.71670,0.00088
3788.65652,0.00097
3786.59635,0.00115
3784.53618,0.00108
3782.47601,0.00103
3780.41583,0.00104
3778.35566,0.00089
3776.29549,0.00079
3774.23532,0.00093
3772.17515,0.00117
3770.11497,0.00130
3768.05480,0.00117
3765.99463,0.00098
3763.93446,0.00106
3761.87429,0.00152
3759.81411,0.00194
3757.75394,0.00180
3755.69377,0.00154
3753.63360,0.00186
3751.57342,0.00255
3749.51325,0.00279
3747.45308,0.00239
3745.39291,0.00181
3743.33274,0.00131
3741.27256,0.00105
3739.21239,0.00106
3737.15222,0.00118
3735.09205,0.00119
3733.03188,0.00118
3730.97170,0.00123
3728.91153,0.00106
3726.85136,0.00090
3724.79119,0.00105
3722.73102,0.00107
3720.67084,0.00096
3718.61067,0.00121
3716.55050,0.00171
3714.49033,0.00180
3712.43015,0.00146
3710.36998,0.00127
3708.30981,0.00124
3706.24964,0.00129
3704.18947,0.00129
3702.12929,0.00139
3700.06912,0.00171
3698.00895,0.00180
3695.94878,0.00154
3693.88861,0.00130
3691.82843,0.00148
3689.76826,0.00196
3687.70809,0.00233
3685.64792,0.00222
3683.58775,0.00180
3681.52757,0.00151
3679.46740,0.00157
3677.40723,0.00184
3675.34706,0.00211
3673.28688,0.00223
3671.22671,0.00229
3669.16654,0.00248
3667.10637,0.00294
3665.04620,0.00346
3662.98602,0.00365
3660.92585,0.00346
3658.86568,0.00339
3656.80551,0.00370
3654.74534,0.00415
3652.68516,0.00445
3650.62499,0.00443
3648.56482,0.00413
3646.50465,0.00382
3644.44447,0.00386
3642.38430,0.00437
3640.32413,0.00499
3638.26396,0.00545
3636.20379,0.00586
3634.14361,0.00635
3632.08344,0.00675
3630.02327,0.00693
3627.96310,0.00718
3625.90293,0.00761
3623.84275,0.00805
3621.78258,0.00828
3619.72241,0.00827
3617.66224,0.00828
3615.60207,0.00844
3613.54189,0.00882
3611.48172,0.00936
3609.42155,0.00982
3607.36138,0.01001
3605.30120,0.01001
3603.24103,0.01027
3601.18086,0.01112
3599.12069,0.01213
3597.06052,0.01249
3595.00034,0.01254
3592.94017,0.01284
3590.88000,0.01325
3588.81983,0.01345
3586.75966,0.01336
3584.69948,0.01317
3582.63931,0.01324
3580.57914,0.01368
3578.51897,0.01432
3576.45879,0.01497
3574.39862,0.01543
3572.33845,0.01544
3570.27828,0.01503
3568.21811,0.01486
3566.15793,0.01555
3564.09776,0.01650
3562.03759,0.01689
3559.97742,0.01693
3557.91725,0.01700
3555.85707,0.01723
3553.79690,0.01757
3551.73673,0.01782
3549.67656,0.01803
3547.61639,0.01823
3545.55621,0.01836
3543.49604,0.01859
3541.43587,0.01897
3539.37570,0.01938
3537.31552,0.01990
3535.25535,0.02057
3533.19518,0.02103
3531.13501,0.02113
3529.07484,0.02119
3527.01466,0.02150
3524.95449,0.02180
3522.89432,0.02186
3520.83415,0.02183
3518.77398,0.02199
3516.71380,0.02233
3514.65363,0.02272
3512.59346,0.02316
3510.53329,0.02365
3508.47312,0.02411
3506.41294,0.02446
3504.35277,0.02461
3502.29260,0.02470
3500.23243,0.02501
3498.17225,0.02532
3496.11208,0.02537
3494.05191,0.02535
3491.99174,0.02552
3489.93157,0.02598
3487.87139,0.02657
3485.81122,0.02693
3483.75105,0.02708
3481.69088,0.02742
3479.63071,0.02805
3477.57053,0.02851
3475.51036,0.02840
3473.45019,0.02811
3471.39002,0.02801
3469.32984,0.02811
3467.26967,0.02858
3465.20950,0.02926
3463.14933,0.02964
3461.08916,0.02977
3459.02898,0.02989
3456.96881,0.03008
3454.90864,0.03020
3452.84847,0.03028
3450.78830,0.03051
3448.72812,0.03066
3446.66795,0.03053
3444.60778,0.03057
3442.54761,0.03094
3440.48744,0.03117
3438.42726,0.03096
3436.36709,0.03072
3434.30692,0.03092
3432.24675,0.03135
3430.18657,0.03189
3428.12640,0.03244
3426.06623,0.03255
3424.00606,0.03219
3421.94589,0.03195
3419.88571,0.03217
3417.82554,0.03253
3415.76537,0.03284
3413.70520,0.03311
3411.64503,0.03341
3409.58485,0.03374
3407.52468,0.03382
3405.46451,0.03368
3403.40434,0.03366
3401.34416,0.03372
3399.28399,0.03399
3397.22382,0.03442
3395.16365,0.03452
3393.10348,0.03419
3391.04330,0.03375
3388.98313,0.03352
3386.92296,0.03370
3384.86279,0.03416
3382.80262,0.03449
3380.74244,0.03456
3378.68227,0.03461
3376.62210,0.03476
3374.56193,0.03485
3372.50176,0.03488
3370.44158,0.03482
3368.38141,0.03473
3366.32124,0.03483
3364.26107,0.03503
3362.20089,0.03512
3360.14072,0.03522
3358.08055,0.03529
3356.02038,0.03528
3353.96021,0.03560
3351.90003,0.03619
3349.83986,0.03648
3347.77969,0.03604
3345.71952,0.03524
3343.65935,0.03507
3341.59917,0.03549
3339.53900,0.03571
3337.47883,0.03568
3335.41866,0.03572
3333.35849,0.03590
3331.29831,0.03600
3329.23814,0.03593
3327.17797,0.03593
3325.11780,0.03617
3323.05762,0.03632
3320.99745,0.03600
3318.93728,0.03566
3316.87711,0.03591
3314.81694,0.03633
3312.75676,0.03647
3310.69659,0.03645
3308.63642,0.03633
3306.57625,0.03610
3304.51608,0.03579
3302.45590,0.03563
3300.39573,0.03588
3298.33556,0.03632
3296.27539,0.03641
3294.21521,0.03623
3292.15504,0.03625
3290.09487,0.03633
3288.03470,0.03615
3285.97453,0.03601
3283.91435,0.03617
3281.85418,0.03624
3279.79401,0.03588
3277.73384,0.03548
3275.67367,0.03564
3273.61349,0.03612
3271.55332,0.03632
3269.49315,0.03620
3267.43298,0.03603
3265.37281,0.03612
3263.31263,0.03646
3261.25246,0.03653
3259.19229,0.03630
3257.13212,0.03629
3255.07194,0.03634
3253.01177,0.03593
3250.95160,0.03531
3248.89143,0.03519
3246.83126,0.03567
3244.77108,0.03625
3242.71091,0.03647
3240.65074,0.03633
3238.59057,0.03605
3236.53040,0.03588
3234.47022,0.03591
3232.41005,0.03596
3230.34988,0.03574
3228.28971,0.03548
3226.22954,0.03562
3224.16936,0.03599
3222.10919,0.03614
3220.04902,0.03592
3217.98885,0.03550
3215.92867,0.03532
3213.86850,0.03559
3211.80833,0.03591
3209.74816,0.03578
3207.68799,0.03521
3205.62781,0.03469
3203.56764,0.03470
3201.50747,0.03502
3199.44730,0.03513
3197.38713,0.03493
3195.32695,0.03463
3193.26678,0.03437
3191.20661,0.03449
3189.14644,0.03503
3187.08626,0.03531
3185.02609,0.03501
3182.96592,0.03462
3180.90575,0.03438
3178.84558,0.03426
3176.78540,0.03424
3174.72523,0.03414
3172.66506,0.03395
3170.60489,0.03382
3168.54472,0.03380
3166.48454,0.03389
3164.42437,0.03395
3162.36420,0.03377
3160.30403,0.03346
3158.24386,0.03320
3156.18368,0.03303
3154.12351,0.03314
3152.06334,0.03340
3150.00317,0.03328
3147.94299,0.03289
3145.88282,0.03271
3143.82265,0.03262
3141.76248,0.03249
3139.70231,0.03249
3137.64213,0.03243
3135.58196,0.03220
3133.52179,0.03202
3131.46162,0.03187
3129.40145,0.03165
3127.34127,0.03145
3125.28110,0.03139
3123.22093,0.03135
3121.16076,0.03101
3119.10058,0.03056
3117.04041,0.03051
3114.98024,0.03083
3112.92007,0.03096
3110.85990,0.03085
3108.79972,0.03069
3106.73955,0.03038
3104.67938,0.03007
3102.61921,0.03003
3100.55904,0.03014
3098.49886,0.03014
3096.43869,0.02992
3094.37852,0.02972
3092.31835,0.02968
3090.25818,0.02957
3088.19800,0.02934
3086.13783,0.02916
3084.07766,0.02910
3082.01749,0.02916
3079.95731,0.02918
3077.89714,0.02899
3075.83697,0.02884
3073.77680,0.02891
3071.71663,0.02895
3069.65645,0.02871
3067.59628,0.02830
3065.53611,0.02802
3063.47594,0.02780
3061.41577,0.02743
3059.35559,0.02708
3057.29542,0.02712
3055.23525,0.02743
3053.17508,0.02755
3051.11491,0.02746
3049.05473,0.02729
3046.99456,0.02699
3044.93439,0.02656
3042.87422,0.02620
3040.81404,0.02597
3038.75387,0.02573
3036.69370,0.02548
3034.63353,0.02538
3032.57336,0.02537
3030.51318,0.02537
3028.45301,0.02537
3026.39284,0.02539
3024.33267,0.02543
3022.27250,0.02530
3020.21232,0.02496
3018.15215,0.02451
3016.09198,0.02409
3014.03181,0.02394
3011.97163,0.02385
3009.91146,0.02359
3007.85129,0.02345
3005.79112,0.02351
3003.73095,0.02347
3001.67077,0.02332
2999.61060,0.02323
2997.55043,0.02318
2995.49026,0.02301
2993.43009,0.02271
2991.36991,0.02251
2989.30974,0.02246
2987.24957,0.02242
2985.18940,0.02240
2983.12923,0.02227
2981.06905,0.02199
2979.00888,0.02182
2976.94871,0.02184
2974.88854,0.02197
2972.82836,0.02214
2970.76819,0.02224
2968.70802,0.02214
2966.64785,0.02188
2964.58768,0.02165
2962.52750,0.02155
2960.46733,0.02150
2958.40716,0.02146
2956.34699,0.02143
2954.28682,0.02139
2952.22664,0.02124
2950.16647,0.02105
2948.10630,0.02120
2946.04613,0.02154
2943.98596,0.02161
2941.92578,0.02146
2939.86561,0.02134
2937.80544,0.02116
2935.74527,0.02089
2933.68509,0.02090
2931.62492,0.02116
2929.56475,0.02118
2927.50458,0.02087
2925.44441,0.02059
2923.38423,0.02049
2921.32406,0.02051
2919.26389,0.02044
2917.20372,0.02017
2915.14355,0.02002
2913.08337,0.02021
2911.02320,0.02044
2908.96303,0.02039
2906.90286,0.02013
2904.84268,0.01992
2902.78251,0.01964
2900.72234,0.01928
2898.66217,0.01921
2896.60200,0.01929
2894.54182,0.01915
2892.48165,0.01887
2890.42148,0.01865
2888.36131,0.01861
2886.30114,0.01867
2884.24096,0.01873
2882.18079,0.01867
2880.12062,0.01844
2878.06045,0.01831
2876.00028,0.01836
2873.94010,0.01850
2871.87993,0.01857
2869.81976,0.01846
2867.75959,0.01818
2865.69941,0.01778
2863.63924,0.01744
2861.57907,0.01743
2859.51890,0.01765
2857.45873,0.01769
2855.39855,0.01749
2853.33838,0.01740
2851.27821,0.01738
2849.21804,0.01728
2847.15787,0.01723
2845.09769,0.01722
2843.03752,0.01713
2840.97735,0.01695
2838.91718,0.01682
2836.85700,0.01669
2834.79683,0.01651
2832.73666,0.01636
2830.67649,0.01629
2828.61632,0.01616
2826.55614,0.01587
2824.49597,0.01556
2822.43580,0.01542
2820.37563,0.01539
2818.31546,0.01535
2816.25528,0.01528
2814.19511,0.01529
2812.13494,0.01544
2810.07477,0.01541
2808.01460,0.01519
2805.95442,0.01509
2803.89425,0.01505
2801.83408,0.01492
2799.77391,0.01474
2797.71373,0.01462
2795.65356,0.01461
2793.59339,0.01481
2791.53322,0.01505
2789.47305,0.01501
2787.41287,0.01480
2785.35270,0.01460
2783.29253,0.01448
2781.23236,0.01442
2779.17219,0.01416
2777.11201,0.01388
2775.05184,0.01395
2772.99167,0.01400
2770.93150,0.01368
2768.87133,0.01334
2766.81115,0.01326
2764.75098,0.01321
2762.69081,0.01308
2760.63064,0.01315
2758.57046,0.01330
2756.51029,0.01320
2754.45012,0.01296
2752.38995,0.01286
2750.32978,0.01279
2748.26960,0.01270
2746.20943,0.01281
2744.14926,0.01299
2742.08909,0.01296
2740.02892,0.01280
2737.96874,0.01260
2735.90857,0.01246
2733.84840,0.01253
2731.78823,0.01271
2729.72805,0.01271
2727.66788,0.01255
2725.60771,0.01243
2723.54754,0.01239
2721.48737,0.01234
2719.42719,0.01214
2717.36702,0.01184
2715.30685,0.01174
2713.24668,0.01189
2711.18651,0.01195
2709.12633,0.01181
2707.06616,0.01167
2705.00599,0.01165
2702.94582,0.01163
2700.88565,0.01164
2698.82547,0.01159
2696.76530,0.01126
2694.70513,0.01101
2692.64496,0.01112
2690.58478,0.01127
2688.52461,0.01122
2686.46444,0.01101
2684.40427,0.01071
2682.34410,0.01052
2680.28392,0.01070
2678.22375,0.01094
2676.16358,0.01083
2674.10341,0.01060
2672.04324,0.01061
2669.98306,0.01076
2667.92289,0.01069
2665.86272,0.01037
2663.80255,0.01016
2661.74238,0.01018
2659.68220,0.01032
2657.62203,0.01025
2655.56186,0.00989
2653.50169,0.00977
2651.44151,0.01006
2649.38134,0.01017
2647.32117,0.00983
2645.26100,0.00954
2643.20083,0.00944
2641.14065,0.00922
2639.08048,0.00900
2637.02031,0.00904
2634.96014,0.00903
2632.89997,0.00881
2630.83979,0.00865
2628.77962,0.00870
2626.71945,0.00889
2624.65928,0.00907
2622.59910,0.00907
2620.53893,0.00868
2618.47876,0.00810
2616.41859,0.00794
2614.35842,0.00809
2612.29824,0.00813
2610.23807,0.00829
2608.17790,0.00852
2606.11773,0.00826
2604.05756,0.00785
2601.99738,0.00781
2599.93721,0.00796
2597.87704,0.00816
2595.81687,0.00828
2593.75670,0.00817
2591.69652,0.00803
2589.63635,0.00777
2587.57618,0.00750
2585.51601,0.00754
2583.45583,0.00775
2581.39566,0.00775
2579.33549,0.00772
2577.27532,0.00797
2575.21515,0.00810
2573.15497,0.00779
2571.09480,0.00760
2569.03463,0.00801
2566.97446,0.00840
2564.91429,0.00839
2562.85411,0.00833
2560.79394,0.00823
2558.73377,0.00800
2556.67360,0.00759
2554.61342,0.00706
2552.55325,0.00694
2550.49308,0.00733
2548.43291,0.00771
2546.37274,0.00804
2544.31256,0.00830
2542.25239,0.00829
2540.19222,0.00818
2538.13205,0.00811
2536.07188,0.00794
2534.01170,0.00778
2531.95153,0.00782
2529.89136,0.00785
2527.83119,0.00781
2525.77102,0.00775
2523.71084,0.00747
2521.65067,0.00697
2519.59050,0.00680
2517.53033,0.00721
2515.47015,0.00750
2513.40998,0.00730
2511.34981,0.00698
2509.28964,0.00705
2507.22947,0.00730
2505.16929,0.00743
2503.10912,0.00781
2501.04895,0.00822
2498.98878,0.00818
2496.92861,0.00811
2494.86843,0.00830
2492.80826,0.00817
2490.74809,0.00775
2488.68792,0.00769
2486.62775,0.00793
2484.56757,0.00817
2482.50740,0.00820
2480.44723,0.00804
2478.38706,0.00795
2476.32688,0.00789
2474.26671,0.00777
2472.20654,0.00769
2470.14637,0.00774
2468.08620,0.00770
2466.02602,0.00723
2463.96585,0.00679
2461.90568,0.00704
2459.84551,0.00757
2457.78534,0.00778
2455.72516,0.00782
2453.66499,0.00773
2451.60482,0.00741
2449.54465,0.00747
2447.48447,0.00774
2445.42430,0.00756
2443.36413,0.00739
2441.30396,0.00766
2439.24379,0.00792
2437.18361,0.00772
2435.12344,0.00749
2433.06327,0.00779
2431.00310,0.00842
2428.94293,0.00873
2426.88275,0.00828
2424.82258,0.00766
2422.76241,0.00747
2420.70224,0.00754
2418.64207,0.00758
2416.58189,0.00750
2414.52172,0.00736
2412.46155,0.00737
2410.40138,0.00777
2408.34120,0.00821
2406.28103,0.00815
2404.22086,0.00771
2402.16069,0.00741
2400.10052,0.00744
2398.04034,0.00761
2395.98017,0.00783
2393.92000,0.00807
2391.85983,0.00820
2389.79966,0.00824
2387.73948,0.00820
2385.67931,0.00816
2383.61914,0.00825
2381.55897,0.00841
2379.49880,0.00843
2377.43862,0.00844
2375.37845,0.00824
2373.31828,0.00789
2371.25811,0.00765
2369.19793,0.00756
2367.13776,0.00781
2365.07759,0.00766
2363.01742,0.00633
2360.95725,0.00659
2358.89707,0.00675
2356.83690,0.00753
2354.77673,0.00819
2352.71656,0.00840
2350.65639,0.01097
2348.59621,0.01224
2346.53604,0.00792
2344.47587,0.00643
2342.41570,0.00694
2340.35552,0.00762
2338.29535,0.00870
2336.23518,0.00878
2334.17501,0.00774
2332.11484,0.00633
2330.05466,0.00655
2327.99449,0.00814
2325.93432,0.01039
2323.87415,0.01070
2321.81398,0.00977
2319.75380,0.00868
2317.69363,0.00888
2315.63346,0.00881
2313.57329,0.00835
2311.51312,0.00831
2309.45294,0.00858
2307.39277,0.00873
2305.33260,0.00874
2303.27243,0.00876
2301.21225,0.00846
2299.15208,0.00810
2297.09191,0.00783
2295.03174,0.00776
2292.97157,0.00784
2290.91139,0.00786
2288.85122,0.00778
2286.79105,0.00770
2284.73088,0.00762
2282.67071,0.00755
2280.61053,0.00748
2278.55036,0.00718
2276.49019,0.00659
2274.43002,0.00627
2272.36984,0.00646
2270.30967,0.00657
2268.24950,0.00622
2266.18933,0.00613
2264.12916,0.00667
2262.06898,0.00710
2260.00881,0.00686
2257.94864,0.00633
2255.88847,0.00612
2253.82830,0.00637
2251.76812,0.00640
2249.70795,0.00634
2247.64778,0.00688
2245.58761,0.00707
2243.52744,0.00594
2241.46726,0.00442
2239.40709,0.00417
2237.34692,0.00527
2235.28675,0.00609
2233.22657,0.00622
2231.16640,0.00637
2229.10623,0.00668
2227.04606,0.00668
2224.98589,0.00629
2222.92571,0.00599
2220.86554,0.00561
2218.80537,0.00484
2216.74520,0.00443
2214.68503,0.00544
2212.62485,0.00670
2210.56468,0.00686
2208.50451,0.00693
2206.44434,0.00744
2204.38417,0.00747
2202.32399,0.00676
2200.26382,0.00579
2198.20365,0.00529
2196.14348,0.00558
2194.08330,0.00634
2192.02313,0.00731
2189.96296,0.00734
2187.90279,0.00622
2185.84262,0.00597
2183.78244,0.00640
2181.72227,0.00550
2179.66210,0.00344
2177.60193,0.00179
2175.54176,0.00203
2173.48158,0.00417
2171.42141,0.00639
2169.36124,0.00667
2167.30107,0.00493
2165.24089,0.00347
2163.18072,0.00257
2161.12055,0.00112
2159.06038,0.00005
2157.00021,0.00025
2154.94003,0.00145
2152.87986,0.00219
2150.81969,0.00243
2148.75952,0.00314
2146.69935,0.00417
2144.63917,0.00480
2142.57900,0.00464
2140.51883,0.00446
2138.45866,0.00435
2136.39849,0.00357
2134.33831,0.00283
2132.27814,0.00279
2130.21797,0.00294
2128.15780,0.00356
2126.09762,0.00479
2124.03745,0.00534
2121.97728,0.00484
2119.91711,0.00446
2117.85694,0.00439
2115.79676,0.00428
2113.73659,0.00423
2111.67642,0.00430
2109.61625,0.00483
2107.55608,0.00567
2105.49590,0.00585
2103.43573,0.00534
2101.37556,0.00491
2099.31539,0.00475
2097.25521,0.00462
2095.19504,0.00422
2093.13487,0.00332
2091.07470,0.00278
2089.01453,0.00291
2086.95435,0.00320
2084.89418,0.00391
2082.83401,0.00465
2080.77384,0.00446
2078.71367,0.00391
2076.65349,0.00430
2074.59332,0.00528
2072.53315,0.00532
2070.47298,0.00460
2068.41281,0.00434
2066.35263,0.00410
2064.29246,0.00327
2062.23229,0.00248
2060.17212,0.00233
2058.11194,0.00320
2056.05177,0.00410
2053.99160,0.00386
2051.93143,0.00322
2049.87126,0.00252
2047.81108,0.00197
2045.75091,0.00214
2043.69074,0.00210
2041.63057,0.00141
2039.57040,0.00163
2037.51022,0.00294
2035.45005,0.00324
2033.38988,0.00191
2031.32971,0.00055
2029.26954,0.00036
2027.20936,0.00062
2025.14919,0.00033
2023.08902,0.00005
2021.02885,0.00034
2018.96867,0.00072
2016.90850,0.00058
2014.84833,0.00046
2012.78816,0.00060
2010.72799,0.00076
2008.66781,0.00151
2006.60764,0.00230
2004.54747,0.00183
2002.48730,0.00109
2000.42713,0.00159
1998.36695,0.00217
1996.30678,0.00156
1994.24661,0.00100
1992.18644,0.00141
1990.12626,0.00184
1988.06609,0.00144
1986.00592,0.00110
1983.94575,0.00180
1981.88558,0.00224
1979.82540,0.00113
1977.76523,0.00016
1975.70506,0.00103
1973.64489,0.00236
1971.58472,0.00247
1969.52454,0.00249
1967.46437,0.00320
1965.40420,0.00296
1963.34403,0.00156
1961.28386,0.00046
1959.22368,0.00031
1957.16351,0.00083
1955.10334,0.00095
1953.04317,0.00021
1950.98299,0.00004
1948.92282,0.00089
1946.86265,0.00131
1944.80248,0.00092
1942.74231,0.00057
1940.68213,0.00068
1938.62196,0.00074
1936.56179,0.00032
1934.50162,0.00013
1932.44145,0.00111
1930.38127,0.00259
1928.32110,0.00308
1926.26093,0.00260
1924.20076,0.00188
1922.14059,0.00125
1920.08041,0.00130
1918.02024,0.00190
1915.96007,0.00206
1913.89990,0.00159
1911.83972,0.00097
1909.77955,0.00058
1907.71938,0.00065
1905.65921,0.00086
1903.59904,0.00089
1901.53886,0.00091
1899.47869,0.00112
1897.41852,0.00149
1895.35835,0.00186
1893.29818,0.00208
1891.23800,0.00204
1889.17783,0.00177
1887.11766,0.00162
1885.05749,0.00186
1882.99731,0.00213
1880.93714,0.00200
1878.87697,0.00161
1876.81680,0.00147
1874.75663,0.00166
1872.69645,0.00174
1870.63628,0.00159
1868.57611,0.00158
1866.51594,0.00172
1864.45577,0.00168
1862.39559,0.00158
1860.33542,0.00160
1858.27525,0.00151
1856.21508,0.00126
1854.15491,0.00119
1852.09473,0.00135
1850.03456,0.00146
1847.97439,0.00125
1845.91422,0.00072
1843.85404,0.00035
1841.79387,0.00073
1839.73370,0.00144
1837.67353,0.00182
1835.61336,0.00186
1833.55318,0.00185
1831.49301,0.00184
1829.43284,0.00170
1827.37267,0.00146
1825.31250,0.00137
1823.25232,0.00147
1821.19215,0.00156
1819.13198,0.00152
1817.07181,0.00152
1815.01163,0.00168
1812.95146,0.00198
1810.89129,0.00221
1808.83112,0.00217
1806.77095,0.00191
1804.71077,0.00173
1802.65060,0.00169
1800.59043,0.00169
1798.53026,0.00167
1796.47009,0.00155
1794.40991,0.00133
1792.34974,0.00135
1790.28957,0.00177
1788.22940,0.00216
1786.16923,0.00228
1784.10905,0.00229
1782.04888,0.00231
1779.98871,0.00219
1777.92854,0.00207
1775.86836,0.00222
1773.80819,0.00253
1771.74802,0.00268
1769.68785,0.00269
1767.62768,0.00258
1765.56750,0.00232
1763.50733,0.00219
1761.44716,0.00238
1759.38699,0.00260
1757.32682,0.00263
1755.26664,0.00275
1753.20647,0.00308
1751.14630,0.00330
1749.08613,0.00329
1747.02596,0.00326
1744.96578,0.00328
1742.90561,0.00329
1740.84544,0.00320
1738.78527,0.00308
1736.72509,0.00301
1734.66492,0.00312
1732.60475,0.00355
1730.54458,0.00392
1728.48441,0.00413
1726.42423,0.00443
1724.36406,0.00477
1722.30389,0.00484
1720.24372,0.00460
1718.18355,0.00444
1716.12337,0.00466
1714.06320,0.00501
1712.00303,0.00520
1709.94286,0.00531
1707.88268,0.00545
1705.82251,0.00566
1703.76234,0.00581
1701.70217,0.00586
1699.64200,0.00599
1697.58182,0.00629
1695.52165,0.00676
1693.46148,0.00733
1691.40131,0.00778
1689.34114,0.00806
1687.28096,0.00823
1685.22079,0.00829
1683.16062,0.00858
1681.10045,0.00920
1679.04028,0.00964
1676.98010,0.00975
1674.91993,0.01003
1672.85976,0.01069
1670.79959,0.01129
1668.73941,0.01165
1666.67924,0.01190
1664.61907,0.01215
1662.55890,0.01247
1660.49873,0.01287
1658.43855,0.01331
1656.37838,0.01358
1654.31821,0.01345
1652.25804,0.01309
1650.19787,0.01300
1648.13769,0.01308
1646.07752,0.01329
1644.01735,0.01368
1641.95718,0.01400
1639.89701,0.01400
1637.83683,0.01362
1635.77666,0.01313
1633.71649,0.01312
1631.65632,0.01346
1629.59614,0.01363
1627.53597,0.01344
1625.47580,0.01302
1623.41563,0.01259
1621.35546,0.01235
1619.29528,0.01226
1617.23511,0.01213
1615.17494,0.01201
1613.11477,0.01193
1611.05460,0.01182
1608.99442,0.01166
1606.93425,0.01147
1604.87408,0.01124
1602.81391,0.01102
1600.75373,0.01079
1598.69356,0.01046
1596.63339,0.01000
1594.57322,0.00952
1592.51305,0.00922
1590.45287,0.00902
1588.39270,0.00871
1586.33253,0.00833
1584.27236,0.00803
1582.21219,0.00775
1580.15201,0.00745
1578.09184,0.00721
1576.03167,0.00704
1573.97150,0.00687
1571.91133,0.00668
1569.85115,0.00652
1567.79098,0.00634
1565.73081,0.00615
1563.67064,0.00605
1561.61046,0.00596
1559.55029,0.00553
1557.49012,0.00498
1555.42995,0.00486
1553.36978,0.00486
1551.30960,0.00480
1549.24943,0.00467
1547.18926,0.00448
1545.12909,0.00428
1543.06892,0.00414
1541.00874,0.00394
1538.94857,0.00375
1536.88840,0.00380
1534.82823,0.00381
1532.76805,0.00355
1530.70788,0.00338
1528.64771,0.00353
1526.58754,0.00373
1524.52737,0.00367
1522.46719,0.00316
1520.40702,0.00235
1518.34685,0.00179
1516.28668,0.00180
1514.22651,0.00208
1512.16633,0.00230
1510.10616,0.00229
1508.04599,0.00185
1505.98582,0.00138
1503.92565,0.00147
1501.86547,0.00168
1499.80530,0.00174
1497.74513,0.00183
1495.68496,0.00199
1493.62478,0.00202
1491.56461,0.00188
1489.50444,0.00173
1487.44427,0.00179
1485.38410,0.00204
1483.32392,0.00224
1481.26375,0.00225
1479.20358,0.00219
1477.14341,0.00219
1475.08324,0.00230
1473.02306,0.00250
1470.96289,0.00265
1468.90272,0.00263
1466.84255,0.00253
1464.78238,0.00245
1462.72220,0.00241
1460.66203,0.00239
1458.60186,0.00236
1456.54169,0.00242
1454.48151,0.00259
1452.42134,0.00271
1450.36117,0.00278
1448.30100,0.00281
1446.24083,0.00275
1444.18065,0.00270
1442.12048,0.00269
1440.06031,0.00268
1438.00014,0.00264
1435.93997,0.00256
1433.87979,0.00248
1431.81962,0.00244
1429.75945,0.00253
1427.69928,0.00276
1425.63910,0.00299
1423.57893,0.00310
1421.51876,0.00302
1419.45859,0.00294
1417.39842,0.00314
1415.33824,0.00344
1413.27807,0.00350
1411.21790,0.00342
1409.15773,0.00335
1407.09756,0.00328
1405.03738,0.00318
1402.97721,0.00304
1400.91704,0.00289
1398.85687,0.00282
1396.79670,0.00285
1394.73652,0.00285
1392.67635,0.00279
1390.61618,0.00275
1388.55601,0.00266
1386.49583,0.00255
1384.43566,0.00252
1382.37549,0.00255
1380.31532,0.00259
1378.25515,0.00262
1376.19497,0.00260
1374.13480,0.00250
1372.07463,0.00239
1370.01446,0.00234
1367.95429,0.00240
1365.89411,0.00248
1363.83394,0.00236
1361.77377,0.00204
1359.71360,0.00178
1357.65343,0.00166
1355.59325,0.00160
1353.53308,0.00160
1351.47291,0.00169
1349.41274,0.00175
1347.35256,0.00169
1345.29239,0.00166
1343.23222,0.00179
1341.17205,0.00186
1339.11188,0.00165
1337.05170,0.00142
1334.99153,0.00142
1332.93136,0.00151
1330.87119,0.00148
1328.81102,0.00136
1326.75084,0.00131
1324.69067,0.00135
1322.63050,0.00141
1320.57033,0.00142
1318.51015,0.00139
1316.44998,0.00141
1314.38981,0.00147
1312.32964,0.00144
1310.26947,0.00128
1308.20929,0.00121
1306.14912,0.00131
1304.08895,0.00146
1302.02878,0.00149
1299.96861,0.00139
1297.90843,0.00134
1295.84826,0.00145
1293.78809,0.00151
1291.72792,0.00135
1289.66775,0.00123
1287.60757,0.00130
1285.54740,0.00142
1283.48723,0.00152
1281.42706,0.00169
1279.36688,0.00185
1277.30671,0.00186
1275.24654,0.00182
1273.18637,0.00182
1271.12620,0.00180
1269.06602,0.00184
1267.00585,0.00195
1264.94568,0.00199
1262.88551,0.00196
1260.82534,0.00193
1258.76516,0.00197
1256.70499,0.00212
1254.64482,0.00224
1252.58465,0.00217
1250.52447,0.00196
1248.46430,0.00184
1246.40413,0.00192
1244.34396,0.00204
1242.28379,0.00196
1240.22361,0.00176
1238.16344,0.00159
1236.10327,0.00153
1234.04310,0.00150
1231.98293,0.00135
1229.92275,0.00114
1227.86258,0.00112
1225.80241,0.00116
1223.74224,0.00103
1221.68207,0.00080
1219.62189,0.00062
1217.56172,0.00045
1215.50155,0.00040
1213.44138,0.00052
1211.38120,0.00049
1209.32103,0.00029
1207.26086,0.00019
1205.20069,0.00016
1203.14052,0.00007
1201.08034,0.00011
1199.02017,0.00025
1196.96000,0.00028
1194.89983,0.00020
1192.83966,0.00020
1190.77948,0.00034
1188.71931,0.00040
1186.65914,0.00044
1184.59897,0.00063
1182.53880,0.00103
1180.47862,0.00145
1178.41845,0.00167
1176.35828,0.00188
1174.29811,0.00227
1172.23793,0.00271
1170.17776,0.00303
1168.11759,0.00330
1166.05742,0.00371
1163.99725,0.00436
1161.93707,0.00510
1159.87690,0.00558
1157.81673,0.00584
1155.75656,0.00620
1153.69639,0.00673
1151.63621,0.00708
1149.57604,0.00723
1147.51587,0.00747
1145.45570,0.00784
1143.39552,0.00836
1141.33535,0.00903
1139.27518,0.00960
1137.21501,0.00987
1135.15484,0.01023
1133.09466,0.01074
1131.03449,0.01114
1128.97432,0.01150
1126.91415,0.01198
1124.85398,0.01256
1122.79380,0.01319
1120.73363,0.01386
1118.67346,0.01466
1116.61329,0.01536
1114.55312,0.01585
1112.49294,0.01649
1110.43277,0.01735
1108.37260,0.01824
1106.31243,0.01899
1104.25225,0.01967
1102.19208,0.02052
1100.13191,0.02135
1098.07174,0.02214
1096.01157,0.02303
1093.95139,0.02373
1091.89122,0.02423
1089.83105,0.02476
1087.77088,0.02527
1085.71071,0.02572
1083.65053,0.02622
1081.59036,0.02687
1079.53019,0.02757
1077.47002,0.02819
1075.40985,0.02872
1073.34967,0.02915
1071.28950,0.02943
1069.22933,0.02962
1067.16916,0.02974
1065.10898,0.02967
1063.04881,0.02958
1060.98864,0.02956
1058.92847,0.02944
1056.86830,0.02941
1054.80812,0.02944
1052.74795,0.02920
1050.68778,0.02880
1048.62761,0.02852
1046.56744,0.02816
1044.50726,0.02744
1042.44709,0.02660
1040.38692,0.02597
1038.32675,0.02562
1036.26657,0.02528
1034.20640,0.02467
1032.14623,0.02384
1030.08606,0.02318
1028.02589,0.02288
1025.96571,0.02258
1023.90554,0.02208
1021.84537,0.02149
1019.78520,0.02080
1017.72503,0.02003
1015.66485,0.01942
1013.60468,0.01904
1011.54451,0.01861
1009.48434,0.01804
1007.42417,0.01770
1005.36399,0.01767
1003.30382,0.01751
1001.24365,0.01715
999.18348,0.01718
997.12330,0.01778
995.06313,0.01857
993.00296,0.01933
990.94279,0.01990
988.88262,0.02022
986.82244,0.02044
984.76227,0.02056
982.70210,0.02046
980.64193,0.02022
978.58176,0.01994
976.52158,0.01937
974.46141,0.01847
972.40124,0.01762
970.34107,0.01689
968.28089,0.01609
966.22072,0.01534
964.16055,0.01454
962.10038,0.01363
960.04021,0.01282
957.98003,0.01204
955.91986,0.01133
953.85969,0.01075
951.79952,0.01033
949.73935,0.01023
947.67917,0.01002
945.61900,0.00961
943.55883,0.00948
941.49866,0.00932
939.43849,0.00883
937.37831,0.00841
935.31814,0.00842
933.25797,0.00862
931.19780,0.00843
929.13762,0.00791
927.07745,0.00756
925.01728,0.00755
922.95711,0.00765
920.89694,0.00738
918.83676,0.00667
916.77659,0.00620
914.71642,0.00633
912.65625,0.00646
910.59608,0.00624
908.53590,0.00592
906.47573,0.00576
904.41556,0.00582
902.35539,0.00584
900.29522,0.00563
898.23504,0.00538
896.17487,0.00526
894.11470,0.00543
892.05453,0.00573
889.99435,0.00568
887.93418,0.00530
885.87401,0.00510
883.81384,0.00551
881.75367,0.00624
879.69349,0.00663
877.63332,0.00681
875.57315,0.00707
873.51298,0.00723
871.45281,0.00732
869.39263,0.00764
867.33246,0.00825
865.27229,0.00886
863.21212,0.00900
861.15194,0.00876
859.09177,0.00848
857.03160,0.00813
854.97143,0.00783
852.91126,0.00746
850.85108,0.00692
848.79091,0.00673
846.73074,0.00687
844.67057,0.00696
842.61040,0.00698
840.55022,0.00687
838.49005,0.00671
836.42988,0.00681
834.36971,0.00698
832.30954,0.00683
830.24936,0.00642
828.18919,0.00585
826.12902,0.00493
824.06885,0.00392
822.00867,0.00348
819.94850,0.00373
817.88833,0.00418
815.82816,0.00441
813.76799,0.00443
811.70781,0.00424
809.64764,0.00393
807.58747,0.00371
805.52730,0.00348
803.46713,0.00312
801.40695,0.00274
799.34678,0.00246
797.28661,0.00232
795.22644,0.00232
793.16627,0.00239
791.10609,0.00248
789.04592,0.00239
786.98575,0.00229
784.92558,0.00260
782.86540,0.00321
780.80523,0.00338
778.74506,0.00305
776.68489,0.00275
774.62472,0.00258
772.56454,0.00232
770.50437,0.00196
768.44420,0.00209
766.38403,0.00259
764.32386,0.00270
762.26368,0.00248
760.20351,0.00238
758.14334,0.00227
756.08317,0.00206
754.02299,0.00206
751.96282,0.00238
749.90265,0.00287
747.84248,0.00326
745.78231,0.00317
743.72213,0.00251
741.66196,0.00189
739.60179,0.00165
737.54162,0.00176
735.48145,0.00227
733.42127,0.00258
731.36110,0.00227
729.30093,0.00199
727.24076,0.00220
725.18059,0.00267
723.12041,0.00320
721.06024,0.00293
719.00007,0.00317
716.93990,0.00373
714.87972,0.00415
712.81955,0.00425
710.75938,0.00413
708.69921,0.00420
706.63904,0.00447
704.57886,0.00451
702.51869,0.00409
700.45852,0.00370
698.39835,0.00361
696.33818,0.00356
694.27800,0.00352
692.21783,0.00354
690.15766,0.00358
688.09749,0.00362
686.03731,0.00368
683.97714,0.00387
681.91697,0.00410
679.85680,0.00420
677.79663,0.00443
675.73645,0.00513
673.67628,0.00723
671.61611,0.01023
669.55594,0.00606
667.49577,0.00062
665.43559,0.00756
663.37542,0.00675
661.31525,0.00540
659.25508,0.00575
657.19491,0.00601
655.13473,0.00604
653.07456,0.00620
651.01439,0.00621
648.95422,0.00592
646.89404,0.00576
644.83387,0.00482
642.77370,0.00317
640.71353,0.00208
638.65336,0.00249
636.59318,0.00380
634.53301,0.00514
632.47284,0.00659
630.41267,0.00784
628.35250,0.00703
626.29232,0.00334
624.23215,0.00009
622.17198,0.00000
620.11181,0.00255
618.05164,0.00550
615.99146,0.00660
613.93129,0.00504
611.87112,0.00188
609.81095,0.00005
607.75077,0.00199
605.69060,0.00501
603.63043,0.00499
601.57026,0.00248
599.51009,0.00000
