3996.73391,0.00095
3994.67373,0.00102
3992.61356,0.00070
3990.55339,0.00035
3988.49322,0.00014
3986.43305,0.00000
3984.37287,0.00015
3982.31270,0.00042
3980.25253,0.00046
3978.19236,0.00060
3976.13219,0.00105
3974.07201,0.00134
3972.01184,0.00102
3969.95167,0.00058
3967.89150,0.00061
3965.83133,0.00091
3963.77115,0.00104
3961.71098,0.00103
3959.65081,0.00100
3957.59064,0.00103
3955.53046,0.00117
3953.47029,0.00126
3951.41012,0.00130
3949.34995,0.00143
3947.28978,0.00152
3945.22960,0.00149
3943.16943,0.00147
3941.10926,0.00135
3939.04909,0.00099
3936.98892,0.00073
3934.92874,0.00082
3932.86857,0.00109
3930.80840,0.00118
3928.74823,0.00105
3926.68805,0.00095
3924.62788,0.00108
3922.56771,0.00133
3920.50754,0.00137
3918.44737,0.00109
3916.38719,0.00088
3914.32702,0.00074
3912.26685,0.00056
3910.20668,0.00058
3908.14651,0.00091
3906.08633,0.00123
3904.02616,0.00110
3901.96599,0.00057
3899.90582,0.00021
3897.84565,0.00033
3895.78547,0.00069
3893.72530,0.00096
3891.66513,0.00098
3889.60496,0.00080
3887.54478,0.00057
3885.48461,0.00055
3883.42444,0.00086
3881.36427,0.00129
3879.30410,0.00156
3877.24392,0.00174
3875.18375,0.00187
3873.12358,0.00175
3871.06341,0.00123
3869.00324,0.00058
3866.94306,0.00020
3864.88289,0.00017
3862.82272,0.00028
3860.76255,0.00031
3858.70237,0.00026
3856.64220,0.00019
3854.58203,0.00029
3852.52186,0.00075
3850.46169,0.00092
3848.40151,0.00066
3846.34134,0.00044
3844.28117,0.00043
3842.22100,0.00048
3840.16083,0.00050
3838.10065,0.00040
3836.04048,0.00040
3833.98031,0.00065
3831.92014,0.00091
3829.85997,0.00105
3827.79979,0.00105
3825.73962,0.00088
3823.67945,0.00058
3821.61928,0.00047
3819.55910,0.00088
3817.49893,0.00144
3815.43876,0.00155
3813.37859,0.00133
3811.31842,0.00121
3809.25824,0.00127
3807.19807,0.00144
3805.13790,0.00147
3803.07773,0.00125
3801.01756,0.00114
3798.95738,0.00133
3796.89721,0.00160
3794.83704,0.00173
3792.77687,0.00174
3790.71670,0.00156
3788.65652,0.00123
3786.59635,0.00123
3784.53618,0.00155
3782.47601,0.00165
3780.41583,0.00160
3778.35566,0.00169
3776.29549,0.00174
3774.23532,0.00168
3772.17515,0.00159
3770.11497,0.00130
3768.05480,0.00089
3765.99463,0.00090
3763.93446,0.00145
3761.87429,0.00203
3759.81411,0.00232
3757.75394,0.00213
3755.69377,0.00148
3753.63360,0.00070
3751.57342,0.00040
3749.51325,0.00084
3747.45308,0.00153
3745.39291,0.00245
3743.33274,0.00326
3741.27256,0.00334
3739.21239,0.00288
3737.15222,0.00201
3735.09205,0.00082
3733.03188,0.00011
3730.97170,0.00049
3728.91153,0.00127
3726.85136,0.00183
3724.79119,0.00199
3722.73102,0.00186
3720.67084,0.00189
3718.61067,0.00211
3716.55050,0.00209
3714.49033,0.00160
3712.43015,0.00114
3710.36998,0.00151
3708.30981,0.00216
3706.24964,0.00253
3704.18947,0.00249
3702.12929,0.00210
3700.06912,0.00169
3698.00895,0.00168
3695.94878,0.00190
3693.88861,0.00200
3691.82843,0.00207
3689.76826,0.00204
3687.70809,0.00207
3685.64792,0.00226
3683.58775,0.00250
3681.52757,0.00248
3679.46740,0.00216
3677.40723,0.00176
3675.34706,0.00161
3673.28688,0.00175
3671.22671,0.00202
3669.16654,0.00231
3667.10637,0.00255
3665.04620,0.00280
3662.98602,0.00319
3660.92585,0.00373
3658.86568,0.00423
3656.80551,0.00450
3654.74534,0.00465
3652.68516,0.00511
3650.62499,0.00580
3648.56482,0.00587
3646.50465,0.00551
3644.44447,0.00546
3642.38430,0.00557
3640.32413,0.00571
3638.26396,0.00604
3636.20379,0.00653
3634.14361,0.00672
3632.08344,0.00641
3630.02327,0.00611
3627.96310,0.00663
3625.90293,0.00757
3623.84275,0.00816
3621.78258,0.00824
3619.72241,0.00803
3617.66224,0.00816
3615.60207,0.00893
3613.54189,0.00997
3611.48172,0.01068
3609.42155,0.01108
3607.36138,0.01134
3605.30120,0.01150
3603.24103,0.01171
3601.18086,0.01199
3599.12069,0.01264
3597.06052,0.01358
3595.00034,0.01426
3592.94017,0.01455
3590.88000,0.01486
3588.81983,0.01510
3586.75966,0.01531
3584.69948,0.01562
3582.63931,0.01581
3580.57914,0.01583
3578.51897,0.01606
3576.45879,0.01665
3574.39862,0.01740
3572.33845,0.01812
3570.27828,0.01865
3568.21811,0.01861
3566.15793,0.01796
3564.09776,0.01767
3562.03759,0.01818
3559.97742,0.01903
3557.91725,0.01989
3555.85707,0.02070
3553.79690,0.02111
3551.73673,0.02081
3549.67656,0.02039
3547.61639,0.02057
3545.55621,0.02129
3543.49604,0.02209
3541.43587,0.02265
3539.37570,0.02294
3537.31552,0.02327
3535.25535,0.02384
3533.19518,0.02443
3531.13501,0.02482
3529.07484,0.02487
3527.01466,0.02460
3524.95449,0.02453
3522.89432,0.02508
3520.83415,0.02575
3518.77398,0.02584
3516.71380,0.02569
3514.65363,0.02587
3512.59346,0.02636
3510.53329,0.02688
3508.47312,0.02729
3506.41294,0.02770
3504.35277,0.02827
3502.29260,0.02889
3500.23243,0.02923
3498.17225,0.02930
3496.11208,0.02935
3494.05191,0.02957
3491.99174,0.02998
3489.93157,0.03041
3487.87139,0.03064
3485.81122,0.03079
3483.75105,0.03111
3481.69088,0.03162
3479.63071,0.03206
3477.57053,0.03221
3475.51036,0.03213
3473.45019,0.03203
3471.39002,0.03214
3469.32984,0.03249
3467.26967,0.03301
3465.20950,0.03360
3463.14933,0.03410
3461.08916,0.03448
3459.02898,0.03479
3456.96881,0.03494
3454.90864,0.03498
3452.84847,0.03491
3450.78830,0.03480
3448.72812,0.03489
3446.66795,0.03517
3444.60778,0.03546
3442.54761,0.03581
3440.48744,0.03629
3438.42726,0.03677
3436.36709,0.03702
3434.30692,0.03713
3432.24675,0.03727
3430.18657,0.03736
3428.12640,0.03747
3426.06623,0.03769
3424.00606,0.03793
3421.94589,0.03817
3419.88571,0.03837
3417.82554,0.03855
3415.76537,0.03878
3413.70520,0.03905
3411.64503,0.03930
3409.58485,0.03944
3407.52468,0.03926
3405.46451,0.03900
3403.40434,0.03922
3401.34416,0.03994
3399.28399,0.04052
3397.22382,0.04057
3395.16365,0.04044
3393.10348,0.04042
3391.04330,0.04036
3388.98313,0.04019
3386.92296,0.04001
3384.86279,0.03997
3382.80262,0.04029
3380.74244,0.04087
3378.68227,0.04113
3376.62210,0.04109
3374.56193,0.04118
3372.50176,0.04136
3370.44158,0.04142
3368.38141,0.04145
3366.32124,0.04153
3364.26107,0.04146
3362.20089,0.04128
3360.14072,0.04136
3358.08055,0.04169
3356.02038,0.04193
3353.96021,0.04200
3351.90003,0.04198
3349.83986,0.04169
3347.77969,0.04119
3345.71952,0.04100
3343.65935,0.04124
3341.59917,0.04151
3339.53900,0.04166
3337.47883,0.04187
3335.41866,0.04210
3333.35849,0.04219
3331.29831,0.04193
3329.23814,0.04159
3327.17797,0.04171
3325.11780,0.04211
3323.05762,0.04235
3320.99745,0.04238
3318.93728,0.04226
3316.87711,0.04203
3314.81694,0.04176
3312.75676,0.04147
3310.69659,0.04135
3308.63642,0.04144
3306.57625,0.04155
3304.51608,0.04191
3302.45590,0.04246
3300.39573,0.04268
3298.33556,0.04255
3296.27539,0.04232
3294.21521,0.04194
3292.15504,0.04165
3290.09487,0.04152
3288.03470,0.04149
3285.97453,0.04200
3283.91435,0.04271
3281.85418,0.04262
3279.79401,0.04208
3277.73384,0.04209
3275.67367,0.04247
3273.61349,0.04251
3271.55332,0.04230
3269.49315,0.04219
3267.43298,0.04214
3265.37281,0.04206
3263.31263,0.04190
3261.25246,0.04189
3259.19229,0.04222
3257.13212,0.04236
3255.07194,0.04198
3253.01177,0.04154
3250.95160,0.04166
3248.89143,0.04209
3246.83126,0.04209
3244.77108,0.04161
3242.71091,0.04135
3240.65074,0.04151
3238.59057,0.04177
3236.53040,0.04197
3234.47022,0.04190
3232.41005,0.04170
3230.34988,0.04166
3228.28971,0.04177
3226.22954,0.04178
3224.16936,0.04162
3222.10919,0.04133
3220.04902,0.04091
3217.98885,0.04070
3215.92867,0.04092
3213.86850,0.04120
3211.80833,0.04121
3209.74816,0.04106
3207.68799,0.04092
3205.62781,0.04091
3203.56764,0.04085
3201.50747,0.04073
3199.44730,0.04090
3197.38713,0.04094
3195.32695,0.04034
3193.26678,0.03966
3191.20661,0.03955
3189.14644,0.03986
3187.08626,0.04019
3185.02609,0.04035
3182.96592,0.04020
3180.90575,0.03966
3178.84558,0.03898
3176.78540,0.03857
3174.72523,0.03856
3172.66506,0.03883
3170.60489,0.03913
3168.54472,0.03935
3166.48454,0.03944
3164.42437,0.03921
3162.36420,0.03863
3160.30403,0.03816
3158.24386,0.03819
3156.18368,0.03831
3154.12351,0.03816
3152.06334,0.03789
3150.00317,0.03769
3147.94299,0.03779
3145.88282,0.03812
3143.82265,0.03794
3141.76248,0.03718
3139.70231,0.03667
3137.64213,0.03660
3135.58196,0.03665
3133.52179,0.03660
3131.46162,0.03634
3129.40145,0.03615
3127.34127,0.03622
3125.28110,0.03630
3123.22093,0.03614
3121.16076,0.03579
3119.10058,0.03535
3117.04041,0.03494
3114.98024,0.03478
3112.92007,0.03487
3110.85990,0.03499
3108.79972,0.03487
3106.73955,0.03439
3104.67938,0.03386
3102.61921,0.03355
3100.55904,0.03351
3098.49886,0.03380
3096.43869,0.03419
3094.37852,0.03413
3092.31835,0.03370
3090.25818,0.03328
3088.19800,0.03301
3086.13783,0.03289
3084.07766,0.03272
3082.01749,0.03246
3079.95731,0.03230
3077.89714,0.03217
3075.83697,0.03187
3073.77680,0.03166
3071.71663,0.03180
3069.65645,0.03203
3067.59628,0.03192
3065.53611,0.03154
3063.47594,0.03130
3061.41577,0.03124
3059.35559,0.03113
3057.29542,0.03089
3055.23525,0.03059
3053.17508,0.03040
3051.11491,0.03025
3049.05473,0.03007
3046.99456,0.02992
3044.93439,0.02967
3042.87422,0.02933
3040.81404,0.02917
3038.75387,0.02924
3036.69370,0.02933
3034.63353,0.02923
3032.57336,0.02886
3030.51318,0.02851
3028.45301,0.02837
3026.39284,0.02810
3024.33267,0.02764
3022.27250,0.02731
3020.21232,0.02723
3018.15215,0.02722
3016.09198,0.02692
3014.03181,0.02653
3011.97163,0.02649
3009.91146,0.02657
3007.85129,0.02643
3005.79112,0.02612
3003.73095,0.02594
3001.67077,0.02597
2999.61060,0.02597
2997.55043,0.02601
2995.49026,0.02611
2993.43009,0.02602
2991.36991,0.02576
2989.30974,0.02539
2987.24957,0.02489
2985.18940,0.02453
2983.12923,0.02453
2981.06905,0.02461
2979.00888,0.02457
2976.94871,0.02459
2974.88854,0.02465
2972.82836,0.02459
2970.76819,0.02449
2968.70802,0.02439
2966.64785,0.02417
2964.58768,0.02388
2962.52750,0.02387
2960.46733,0.02406
2958.40716,0.02424
2956.34699,0.02439
2954.28682,0.02428
2952.22664,0.02398
2950.16647,0.02385
2948.10630,0.02390
2946.04613,0.02399
2943.98596,0.02405
2941.92578,0.02409
2939.86561,0.02409
2937.80544,0.02402
2935.74527,0.02401
2933.68509,0.02425
2931.62492,0.02451
2929.56475,0.02435
2927.50458,0.02399
2925.44441,0.02390
2923.38423,0.02397
2921.32406,0.02392
2919.26389,0.02372
2917.20372,0.02351
2915.14355,0.02316
2913.08337,0.02264
2911.02320,0.02242
2908.96303,0.02263
2906.90286,0.02278
2904.84268,0.02259
2902.78251,0.02221
2900.72234,0.02192
2898.66217,0.02183
2896.60200,0.02186
2894.54182,0.02185
2892.48165,0.02180
2890.42148,0.02182
2888.36131,0.02188
2886.30114,0.02186
2884.24096,0.02172
2882.18079,0.02161
2880.12062,0.02155
2878.06045,0.02147
2876.00028,0.02142
2873.94010,0.02143
2871.87993,0.02145
2869.81976,0.02135
2867.75959,0.02106
2865.69941,0.02079
2863.63924,0.02083
2861.57907,0.02098
2859.51890,0.02085
2857.45873,0.02058
2855.39855,0.02031
2853.33838,0.02006
2851.27821,0.01989
2849.21804,0.01978
2847.15787,0.01957
2845.09769,0.01947
2843.03752,0.01958
2840.97735,0.01946
2838.91718,0.01912
2836.85700,0.01902
2834.79683,0.01904
2832.73666,0.01893
2830.67649,0.01885
2828.61632,0.01883
2826.55614,0.01877
2824.49597,0.01871
2822.43580,0.01855
2820.37563,0.01826
2818.31546,0.01804
2816.25528,0.01797
2814.19511,0.01787
2812.13494,0.01770
2810.07477,0.01761
2808.01460,0.01753
2805.95442,0.01740
2803.89425,0.01745
2801.83408,0.01753
2799.77391,0.01740
2797.71373,0.01728
2795.65356,0.01726
2793.59339,0.01713
2791.53322,0.01696
2789.47305,0.01683
2787.41287,0.01661
2785.35270,0.01641
2783.29253,0.01650
2781.23236,0.01680
2779.17219,0.01688
2777.11201,0.01673
2775.05184,0.01664
2772.99167,0.01661
2770.93150,0.01652
2768.87133,0.01645
2766.81115,0.01636
2764.75098,0.01609
2762.69081,0.01574
2760.63064,0.01555
2758.57046,0.01543
2756.51029,0.01536
2754.45012,0.01536
2752.38995,0.01531
2750.32978,0.01514
2748.26960,0.01493
2746.20943,0.01487
2744.14926,0.01494
2742.08909,0.01500
2740.02892,0.01509
2737.96874,0.01522
2735.90857,0.01521
2733.84840,0.01506
2731.78823,0.01487
2729.72805,0.01463
2727.66788,0.01454
2725.60771,0.01466
2723.54754,0.01469
2721.48737,0.01460
2719.42719,0.01464
2717.36702,0.01465
2715.30685,0.01447
2713.24668,0.01431
2711.18651,0.01428
2709.12633,0.01427
2707.06616,0.01415
2705.00599,0.01389
2702.94582,0.01360
2700.88565,0.01337
2698.82547,0.01331
2696.76530,0.01338
2694.70513,0.01337
2692.64496,0.01327
2690.58478,0.01326
2688.52461,0.01347
2686.46444,0.01356
2684.40427,0.01334
2682.34410,0.01306
2680.28392,0.01286
2678.22375,0.01269
2676.16358,0.01250
2674.10341,0.01242
2672.04324,0.01262
2669.98306,0.01288
2667.92289,0.01280
2665.86272,0.01244
2663.80255,0.01216
2661.74238,0.01213
2659.68220,0.01232
2657.62203,0.01256
2655.56186,0.01253
2653.50169,0.01225
2651.44151,0.01208
2649.38134,0.01204
2647.32117,0.01178
2645.26100,0.01142
2643.20083,0.01139
2641.14065,0.01146
2639.08048,0.01134
2637.02031,0.01127
2634.96014,0.01137
2632.89997,0.01155
2630.83979,0.01153
2628.77962,0.01115
2626.71945,0.01104
2624.65928,0.01122
2622.59910,0.01126
2620.53893,0.01109
2618.47876,0.01057
2616.41859,0.01007
2614.35842,0.01017
2612.29824,0.01045
2610.23807,0.01051
2608.17790,0.01057
2606.11773,0.01039
2604.05756,0.00991
2601.99738,0.00968
2599.93721,0.00974
2597.87704,0.00964
2595.81687,0.00944
2593.75670,0.00955
2591.69652,0.00984
2589.63635,0.00985
2587.57618,0.00957
2585.51601,0.00939
2583.45583,0.00949
2581.39566,0.00955
2579.33549,0.00938
2577.27532,0.00927
2575.21515,0.00932
2573.15497,0.00939
2571.09480,0.00939
2569.03463,0.00930
2566.97446,0.00933
2564.91429,0.00967
2562.85411,0.01002
2560.79394,0.00995
2558.73377,0.00984
2556.67360,0.00999
2554.61342,0.00998
2552.55325,0.01001
2550.49308,0.01005
2548.43291,0.00970
2546.37274,0.00924
2544.31256,0.00892
2542.25239,0.00868
2540.19222,0.00856
2538.13205,0.00882
2536.07188,0.00920
2534.01170,0.00930
2531.95153,0.00944
2529.89136,0.00960
2527.83119,0.00946
2525.77102,0.00928
2523.71084,0.00925
2521.65067,0.00919
2519.59050,0.00915
2517.53033,0.00915
2515.47015,0.00903
2513.40998,0.00902
2511.34981,0.00932
2509.28964,0.00944
2507.22947,0.00941
2505.16929,0.00954
2503.10912,0.00948
2501.04895,0.00917
2498.98878,0.00893
2496.92861,0.00880
2494.86843,0.00869
2492.80826,0.00879
2490.74809,0.00924
2488.68792,0.00966
2486.62775,0.00975
2484.56757,0.00943
2482.50740,0.00908
2480.44723,0.00919
2478.38706,0.00940
2476.32688,0.00920
2474.26671,0.00887
2472.20654,0.00876
2470.14637,0.00880
2468.08620,0.00900
2466.02602,0.00923
2463.96585,0.00914
2461.90568,0.00898
2459.84551,0.00908
2457.78534,0.00917
2455.72516,0.00931
2453.66499,0.00965
2451.60482,0.00992
2449.54465,0.01013
2447.48447,0.01022
2445.42430,0.01011
2443.36413,0.00981
2441.30396,0.00933
2439.24379,0.00918
2437.18361,0.00981
2435.12344,0.01066
2433.06327,0.01066
2431.00310,0.00994
2428.94293,0.00925
2426.88275,0.00877
2424.82258,0.00857
2422.76241,0.00874
2420.70224,0.00915
2418.64207,0.00946
2416.58189,0.00931
2414.52172,0.00887
2412.46155,0.00872
2410.40138,0.00894
2408.34120,0.00905
2406.28103,0.00902
2404.22086,0.00916
2402.16069,0.00932
2400.10052,0.00931
2398.04034,0.00943
2395.98017,0.00948
2393.92000,0.00934
2391.85983,0.00927
2389.79966,0.00941
2387.73948,0.00962
2385.67931,0.00992
2383.61914,0.01011
2381.55897,0.01000
2379.49880,0.00988
2377.43862,0.01009
2375.37845,0.00979
2373.31828,0.00903
2371.25811,0.00845
2369.19793,0.00796
2367.13776,0.00793
2365.07759,0.00803
2363.01742,0.00653
2360.95725,0.00764
2358.89707,0.00926
2356.83690,0.00957
2354.77673,0.00923
2352.71656,0.00988
2350.65639,0.01310
2348.59621,0.01432
2346.53604,0.00912
2344.47587,0.00772
2342.41570,0.00863
2340.35552,0.00944
2338.29535,0.01019
2336.23518,0.01031
2334.17501,0.01023
2332.11484,0.01004
2330.05466,0.01016
2327.99449,0.01018
2325.93432,0.01145
2323.87415,0.01166
2321.81398,0.01114
2319.75380,0.01006
2317.69363,0.01012
2315.63346,0.00986
2313.57329,0.00945
2311.51312,0.00951
2309.45294,0.00962
2307.39277,0.00989
2305.33260,0.01024
2303.27243,0.01038
2301.21225,0.01010
2299.15208,0.00983
2297.09191,0.00963
2295.03174,0.00964
2292.97157,0.00971
2290.91139,0.00942
2288.85122,0.00916
2286.79105,0.00927
2284.73088,0.00947
2282.67071,0.00949
2280.61053,0.00934
2278.55036,0.00917
2276.49019,0.00909
2274.43002,0.00899
2272.36984,0.00849
2270.30967,0.00769
2268.24950,0.00734
2266.18933,0.00774
2264.12916,0.00823
2262.06898,0.00846
2260.00881,0.00834
2257.94864,0.00758
2255.88847,0.00694
2253.82830,0.00759
2251.76812,0.00865
2249.70795,0.00863
2247.64778,0.00794
2245.58761,0.00800
2243.52744,0.00815
2241.46726,0.00750
2239.40709,0.00660
2237.34692,0.00621
2235.28675,0.00676
2233.22657,0.00729
2231.16640,0.00697
2229.10623,0.00711
2227.04606,0.00757
2224.98589,0.00700
2222.92571,0.00597
2220.86554,0.00569
2218.80537,0.00637
2216.74520,0.00705
2214.68503,0.00705
2212.62485,0.00701
2210.56468,0.00718
2208.50451,0.00685
2206.44434,0.00665
2204.38417,0.00722
2202.32399,0.00725
2200.26382,0.00672
2198.20365,0.00686
2196.14348,0.00691
2194.08330,0.00630
2192.02313,0.00619
2189.96296,0.00665
2187.90279,0.00655
2185.84262,0.00508
2183.78244,0.00368
2181.72227,0.00490
2179.66210,0.00706
2177.60193,0.00683
2175.54176,0.00522
2173.48158,0.00508
2171.42141,0.00657
2169.36124,0.00720
2167.30107,0.00603
2165.24089,0.00552
2163.18072,0.00658
2161.12055,0.00648
2159.06038,0.00343
2157.00021,0.00080
2154.94003,0.00157
2152.87986,0.00341
2150.81969,0.00453
2148.75952,0.00518
2146.69935,0.00499
2144.63917,0.00481
2142.57900,0.00591
2140.51883,0.00626
2138.45866,0.00482
2136.39849,0.00428
2134.33831,0.00541
2132.27814,0.00615
2130.21797,0.00588
2128.15780,0.00524
2126.09762,0.00509
2124.03745,0.00585
2121.97728,0.00635
2119.91711,0.00614
2117.85694,0.00615
2115.79676,0.00659
2113.73659,0.00663
2111.67642,0.00578
2109.61625,0.00505
2107.55608,0.00506
2105.49590,0.00528
2103.43573,0.00542
2101.37556,0.00541
2099.31539,0.00508
2097.25521,0.00459
2095.19504,0.00459
2093.13487,0.00521
2091.07470,0.00574
2089.01453,0.00612
2086.95435,0.00640
2084.89418,0.00636
2082.83401,0.00600
2080.77384,0.00548
2078.71367,0.00534
2076.65349,0.00566
2074.59332,0.00576
2072.53315,0.00558
2070.47298,0.00578
2068.41281,0.00609
2066.35263,0.00587
2064.29246,0.00541
2062.23229,0.00538
2060.17212,0.00578
2058.11194,0.00597
2056.05177,0.00602
2053.99160,0.00660
2051.93143,0.00707
2049.87126,0.00633
2047.81108,0.00515
2045.75091,0.00489
2043.69074,0.00474
2041.63057,0.00407
2039.57040,0.00354
2037.51022,0.00320
2035.45005,0.00367
2033.38988,0.00528
2031.32971,0.00637
2029.26954,0.00535
2027.20936,0.00273
2025.14919,0.00086
2023.08902,0.00140
2021.02885,0.00252
2018.96867,0.00216
2016.90850,0.00155
2014.84833,0.00192
2012.78816,0.00252
2010.72799,0.00299
2008.66781,0.00403
2006.60764,0.00524
2004.54747,0.00546
2002.48730,0.00507
2000.42713,0.00487
1998.36695,0.00440
1996.30678,0.00318
1994.24661,0.00218
1992.18644,0.00234
1990.12626,0.00286
1988.06609,0.00317
1986.00592,0.00364
1983.94575,0.00398
1981.88558,0.00417
1979.82540,0.00458
1977.76523,0.00457
1975.70506,0.00386
1973.64489,0.00334
1971.58472,0.00319
1969.52454,0.00309
1967.46437,0.00315
1965.40420,0.00313
1963.34403,0.00296
1961.28386,0.00305
1959.22368,0.00350
1957.16351,0.00391
1955.10334,0.00349
1953.04317,0.00202
1950.98299,0.00089
1948.92282,0.00119
1946.86265,0.00239
1944.80248,0.00328
1942.74231,0.00299
1940.68213,0.00231
1938.62196,0.00251
1936.56179,0.00307
1934.50162,0.00318
1932.44145,0.00316
1930.38127,0.00289
1928.32110,0.00202
1926.26093,0.00161
1924.20076,0.00222
1922.14059,0.00297
1920.08041,0.00330
1918.02024,0.00348
1915.96007,0.00382
1913.89990,0.00422
1911.83972,0.00442
1909.77955,0.00454
1907.71938,0.00458
1905.65921,0.00424
1903.59904,0.00367
1901.53886,0.00327
1899.47869,0.00314
1897.41852,0.00331
1895.35835,0.00357
1893.29818,0.00377
1891.23800,0.00400
1889.17783,0.00411
1887.11766,0.00386
1885.05749,0.00351
1882.99731,0.00350
1880.93714,0.00383
1878.87697,0.00408
1876.81680,0.00398
1874.75663,0.00364
1872.69645,0.00323
1870.63628,0.00295
1868.57611,0.00293
1866.51594,0.00306
1864.45577,0.00303
1862.39559,0.00295
1860.33542,0.00329
1858.27525,0.00381
1856.21508,0.00383
1854.15491,0.00350
1852.09473,0.00331
1850.03456,0.00312
1847.97439,0.00280
1845.91422,0.00253
1843.85404,0.00248
1841.79387,0.00261
1839.73370,0.00289
1837.67353,0.00325
1835.61336,0.00342
1833.55318,0.00328
1831.49301,0.00306
1829.43284,0.00300
1827.37267,0.00304
1825.31250,0.00315
1823.25232,0.00333
1821.19215,0.00333
1819.13198,0.00309
1817.07181,0.00292
1815.01163,0.00308
1812.95146,0.00335
1810.89129,0.00338
1808.83112,0.00335
1806.77095,0.00355
1804.71077,0.00374
1802.65060,0.00364
1800.59043,0.00334
1798.53026,0.00305
1796.47009,0.00278
1794.40991,0.00251
1792.34974,0.00242
1790.28957,0.00262
1788.22940,0.00302
1786.16923,0.00334
1784.10905,0.00341
1782.04888,0.00350
1779.98871,0.00387
1777.92854,0.00420
1775.86836,0.00410
1773.80819,0.00364
1771.74802,0.00325
1769.68785,0.00329
1767.62768,0.00362
1765.56750,0.00399
1763.50733,0.00411
1761.44716,0.00398
1759.38699,0.00401
1757.32682,0.00434
1755.26664,0.00463
1753.20647,0.00474
1751.14630,0.00473
1749.08613,0.00464
1747.02596,0.00469
1744.96578,0.00498
1742.90561,0.00524
1740.84544,0.00544
1738.78527,0.00564
1736.72509,0.00556
1734.66492,0.00535
1732.60475,0.00553
1730.54458,0.00583
1728.48441,0.00594
1726.42423,0.00599
1724.36406,0.00609
1722.30389,0.00606
1720.24372,0.00576
1718.18355,0.00537
1716.12337,0.00553
1714.06320,0.00631
1712.00303,0.00699
1709.94286,0.00730
1707.88268,0.00738
1705.82251,0.00743
1703.76234,0.00753
1701.70217,0.00772
1699.64200,0.00817
1697.58182,0.00884
1695.52165,0.00945
1693.46148,0.00983
1691.40131,0.01005
1689.34114,0.01027
1687.28096,0.01067
1685.22079,0.01133
1683.16062,0.01184
1681.10045,0.01191
1679.04028,0.01194
1676.98010,0.01219
1674.91993,0.01259
1672.85976,0.01299
1670.79959,0.01335
1668.73941,0.01380
1666.67924,0.01436
1664.61907,0.01492
1662.55890,0.01544
1660.49873,0.01583
1658.43855,0.01603
1656.37838,0.01607
1654.31821,0.01599
1652.25804,0.01594
1650.19787,0.01610
1648.13769,0.01623
1646.07752,0.01635
1644.01735,0.01665
1641.95718,0.01702
1639.89701,0.01730
1637.83683,0.01724
1635.77666,0.01676
1633.71649,0.01640
1631.65632,0.01633
1629.59614,0.01620
1627.53597,0.01597
1625.47580,0.01577
1623.41563,0.01562
1621.35546,0.01554
1619.29528,0.01551
1617.23511,0.01545
1615.17494,0.01544
1613.11477,0.01548
1611.05460,0.01532
1608.99442,0.01484
1606.93425,0.01436
1604.87408,0.01412
1602.81391,0.01401
1600.75373,0.01388
1598.69356,0.01361
1596.63339,0.01316
1594.57322,0.01268
1592.51305,0.01220
1590.45287,0.01174
1588.39270,0.01136
1586.33253,0.01105
1584.27236,0.01076
1582.21219,0.01052
1580.15201,0.01026
1578.09184,0.00988
1576.03167,0.00953
1573.97150,0.00938
1571.91133,0.00922
1569.85115,0.00886
1567.79098,0.00844
1565.73081,0.00823
1563.67064,0.00806
1561.61046,0.00750
1559.55029,0.00674
1557.49012,0.00659
1555.42995,0.00677
1553.36978,0.00671
1551.30960,0.00645
1549.24943,0.00623
1547.18926,0.00613
1545.12909,0.00598
1543.06892,0.00574
1541.00874,0.00556
1538.94857,0.00552
1536.88840,0.00546
1534.82823,0.00517
1532.76805,0.00481
1530.70788,0.00462
1528.64771,0.00454
1526.58754,0.00446
1524.52737,0.00440
1522.46719,0.00425
1520.40702,0.00403
1518.34685,0.00387
1516.28668,0.00373
1514.22651,0.00370
1512.16633,0.00389
1510.10616,0.00411
1508.04599,0.00398
1505.98582,0.00367
1503.92565,0.00364
1501.86547,0.00379
1499.80530,0.00381
1497.74513,0.00359
1495.68496,0.00334
1493.62478,0.00332
1491.56461,0.00339
1489.50444,0.00340
1487.44427,0.00343
1485.38410,0.00346
1483.32392,0.00338
1481.26375,0.00329
1479.20358,0.00339
1477.14341,0.00365
1475.08324,0.00389
1473.02306,0.00401
1470.96289,0.00418
1468.90272,0.00435
1466.84255,0.00439
1464.78238,0.00445
1462.72220,0.00458
1460.66203,0.00457
1458.60186,0.00453
1456.54169,0.00472
1454.48151,0.00497
1452.42134,0.00502
1450.36117,0.00489
1448.30100,0.00477
1446.24083,0.00491
1444.18065,0.00519
1442.12048,0.00531
1440.06031,0.00524
1438.00014,0.00514
1435.93997,0.00516
1433.87979,0.00527
1431.81962,0.00537
1429.75945,0.00548
1427.69928,0.00565
1425.63910,0.00580
1423.57893,0.00593
1421.51876,0.00606
1419.45859,0.00616
1417.39842,0.00624
1415.33824,0.00628
1413.27807,0.00630
1411.21790,0.00629
1409.15773,0.00629
1407.09756,0.00628
1405.03738,0.00619
1402.97721,0.00601
1400.91704,0.00577
1398.85687,0.00550
1396.79670,0.00527
1394.73652,0.00519
1392.67635,0.00524
1390.61618,0.00528
1388.55601,0.00525
1386.49583,0.00522
1384.43566,0.00522
1382.37549,0.00523
1380.31532,0.00528
1378.25515,0.00542
1376.19497,0.00558
1374.13480,0.00559
1372.07463,0.00548
1370.01446,0.00536
1367.95429,0.00530
1365.89411,0.00524
1363.83394,0.00512
1361.77377,0.00491
1359.71360,0.00468
1357.65343,0.00452
1355.59325,0.00439
1353.53308,0.00415
1351.47291,0.00394
1349.41274,0.00393
1347.35256,0.00399
1345.29239,0.00406
1343.23222,0.00420
1341.17205,0.00427
1339.11188,0.00414
1337.05170,0.00402
1334.99153,0.00403
1332.93136,0.00401
1330.87119,0.00389
1328.81102,0.00376
1326.75084,0.00367
1324.69067,0.00366
1322.63050,0.00372
1320.57033,0.00375
1318.51015,0.00368
1316.44998,0.00362
1314.38981,0.00362
1312.32964,0.00364
1310.26947,0.00362
1308.20929,0.00354
1306.14912,0.00345
1304.08895,0.00344
1302.02878,0.00346
1299.96861,0.00344
1297.90843,0.00344
1295.84826,0.00345
1293.78809,0.00342
1291.72792,0.00344
1289.66775,0.00356
1287.60757,0.00373
1285.54740,0.00385
1283.48723,0.00385
1281.42706,0.00378
1279.36688,0.00383
1277.30671,0.00405
1275.24654,0.00424
1273.18637,0.00432
1271.12620,0.00429
1269.06602,0.00424
1267.00585,0.00426
1264.94568,0.00431
1262.88551,0.00431
1260.82534,0.00425
1258.76516,0.00428
1256.70499,0.00446
1254.64482,0.00455
1252.58465,0.00448
1250.52447,0.00434
1248.46430,0.00423
1246.40413,0.00425
1244.34396,0.00421
1242.28379,0.00398
1240.22361,0.00372
1238.16344,0.00370
1236.10327,0.00381
1234.04310,0.00378
1231.98293,0.00353
1229.92275,0.00333
1227.86258,0.00325
1225.80241,0.00307
1223.74224,0.00277
1221.68207,0.00245
1219.62189,0.00223
1217.56172,0.00211
1215.50155,0.00203
1213.44138,0.00203
1211.38120,0.00209
1209.32103,0.00203
1207.26086,0.00173
1205.20069,0.00147
1203.14052,0.00143
1201.08034,0.00156
1199.02017,0.00164
1196.96000,0.00146
1194.89983,0.00123
1192.83966,0.00134
1190.77948,0.00182
1188.71931,0.00224
1186.65914,0.00226
1184.59897,0.00213
1182.53880,0.00231
1180.47862,0.00288
1178.41845,0.00364
1176.35828,0.00438
1174.29811,0.00491
1172.23793,0.00528
1170.17776,0.00573
1168.11759,0.00631
1166.05742,0.00702
1163.99725,0.00768
1161.93707,0.00816
1159.87690,0.00863
1157.81673,0.00919
1155.75656,0.00982
1153.69639,0.01050
1151.63621,0.01110
1149.57604,0.01157
1147.51587,0.01210
1145.45570,0.01272
1143.39552,0.01324
1141.33535,0.01370
1139.27518,0.01433
1137.21501,0.01522
1135.15484,0.01607
1133.09466,0.01660
1131.03449,0.01707
1128.97432,0.01766
1126.91415,0.01841
1124.85398,0.01932
1122.79380,0.02005
1120.73363,0.02052
1118.67346,0.02122
1116.61329,0.02227
1114.55312,0.02330
1112.49294,0.02420
1110.43277,0.02529
1108.37260,0.02658
1106.31243,0.02763
1104.25225,0.02834
1102.19208,0.02918
1100.13191,0.03030
1098.07174,0.03134
1096.01157,0.03216
1093.95139,0.03298
1091.89122,0.03393
1089.83105,0.03503
1087.77088,0.03609
1085.71071,0.03686
1083.65053,0.03737
1081.59036,0.03799
1079.53019,0.03881
1077.47002,0.03967
1075.40985,0.04040
1073.34967,0.04080
1071.28950,0.04102
1069.22933,0.04127
1067.16916,0.04147
1065.10898,0.04157
1063.04881,0.04168
1060.98864,0.04183
1058.92847,0.04168
1056.86830,0.04107
1054.80812,0.04025
1052.74795,0.03980
1050.68778,0.03966
1048.62761,0.03920
1046.56744,0.03845
1044.50726,0.03784
1042.44709,0.03728
1040.38692,0.03646
1038.32675,0.03555
1036.26657,0.03479
1034.20640,0.03413
1032.14623,0.03334
1030.08606,0.03236
1028.02589,0.03150
1025.96571,0.03095
1023.90554,0.03046
1021.84537,0.02994
1019.78520,0.02925
1017.72503,0.02834
1015.66485,0.02751
1013.60468,0.02690
1011.54451,0.02623
1009.48434,0.02558
1007.42417,0.02520
1005.36399,0.02484
1003.30382,0.02446
1001.24365,0.02440
999.18348,0.02470
997.12330,0.02519
995.06313,0.02578
993.00296,0.02632
990.94279,0.02667
988.88262,0.02687
986.82244,0.02706
984.76227,0.02715
982.70210,0.02696
980.64193,0.02652
978.58176,0.02601
976.52158,0.02539
974.46141,0.02442
972.40124,0.02307
970.34107,0.02146
968.28089,0.02004
966.22072,0.01910
964.16055,0.01826
962.10038,0.01738
960.04021,0.01654
957.98003,0.01561
955.91986,0.01466
953.85969,0.01381
951.79952,0.01314
949.73935,0.01275
947.67917,0.01235
945.61900,0.01179
943.55883,0.01146
941.49866,0.01135
939.43849,0.01128
937.37831,0.01125
935.31814,0.01123
933.25797,0.01117
931.19780,0.01094
929.13762,0.01069
927.07745,0.01038
925.01728,0.01005
922.95711,0.00982
920.89694,0.00958
918.83676,0.00936
916.77659,0.00899
914.71642,0.00824
912.65625,0.00750
910.59608,0.00716
908.53590,0.00684
906.47573,0.00637
904.41556,0.00611
902.35539,0.00605
900.29522,0.00587
898.23504,0.00571
896.17487,0.00593
894.11470,0.00640
892.05453,0.00679
889.99435,0.00701
887.93418,0.00725
885.87401,0.00773
883.81384,0.00813
881.75367,0.00836
879.69349,0.00870
877.63332,0.00894
875.57315,0.00894
873.51298,0.00928
871.45281,0.00980
869.39263,0.01008
867.33246,0.01023
865.27229,0.01020
863.21212,0.00980
861.15194,0.00923
859.09177,0.00910
857.03160,0.00961
854.97143,0.01007
852.91126,0.00973
850.85108,0.00883
848.79091,0.00817
846.73074,0.00806
844.67057,0.00805
842.61040,0.00791
840.55022,0.00796
838.49005,0.00812
836.42988,0.00776
834.36971,0.00698
832.30954,0.00660
830.24936,0.00649
828.18919,0.00598
826.12902,0.00543
824.06885,0.00544
822.00867,0.00555
819.94850,0.00543
817.88833,0.00540
815.82816,0.00542
813.76799,0.00552
811.70781,0.00555
809.64764,0.00508
807.58747,0.00448
805.52730,0.00438
803.46713,0.00449
801.40695,0.00426
799.34678,0.00382
797.28661,0.00363
795.22644,0.00355
793.16627,0.00328
791.10609,0.00286
789.04592,0.00255
786.98575,0.00261
784.92558,0.00313
782.86540,0.00367
780.80523,0.00397
778.74506,0.00427
776.68489,0.00444
774.62472,0.00431
772.56454,0.00401
770.50437,0.00392
768.44420,0.00420
766.38403,0.00427
764.32386,0.00405
762.26368,0.00378
760.20351,0.00353
758.14334,0.00361
756.08317,0.00357
754.02299,0.00286
751.96282,0.00222
749.90265,0.00238
747.84248,0.00282
745.78231,0.00305
743.72213,0.00291
741.66196,0.00224
739.60179,0.00155
737.54162,0.00173
735.48145,0.00253
733.42127,0.00301
731.36110,0.00314
729.30093,0.00310
727.24076,0.00281
725.18059,0.00270
723.12041,0.00313
721.06024,0.00318
719.00007,0.00385
716.93990,0.00444
714.87972,0.00473
712.81955,0.00506
710.75938,0.00534
708.69921,0.00527
706.63904,0.00479
704.57886,0.00424
702.51869,0.00404
700.45852,0.00444
698.39835,0.00522
696.33818,0.00590
694.27800,0.00608
692.21783,0.00570
690.15766,0.00521
688.09749,0.00520
686.03731,0.00513
683.97714,0.00434
681.91697,0.00391
679.85680,0.00485
677.79663,0.00565
675.73645,0.00522
673.67628,0.00615
671.61611,0.00975
669.55594,0.00732
667.49577,0.00146
665.43559,0.00771
663.37542,0.00539
661.31525,0.00351
659.25508,0.00459
657.19491,0.00591
655.13473,0.00589
653.07456,0.00523
651.01439,0.00527
648.95422,0.00581
646.89404,0.00617
644.83387,0.00523
642.77370,0.00432
640.71353,0.00465
638.65336,0.00594
636.59318,0.00717
634.53301,0.00691
632.47284,0.00461
630.41267,0.00219
628.35250,0.00147
626.29232,0.00190
624.23215,0.00322
622.17198,0.00504
620.11181,0.00473
618.05164,0.00217
615.99146,0.00019
613.93129,0.00056
611.87112,0.00236
609.81095,0.00284
607.75077,0.00127
605.69060,0.00000
603.63043,0.00029
601.57026,0.00138
599.51009,0.00000
