3996.73391,-0.01395
3994.67373,-0.01400
3992.61356,-0.01404
3990.55339,-0.01416
3988.49322,-0.01419
3986.43305,-0.01400
3984.37287,-0.01386
3982.31270,-0.01398
3980.25253,-0.01405
3978.19236,-0.01406
3976.13219,-0.01416
3974.07201,-0.01411
3972.01184,-0.01399
3969.95167,-0.01402
3967.89150,-0.01404
3965.83133,-0.01401
3963.77115,-0.01409
3961.71098,-0.01406
3959.65081,-0.01388
3957.59064,-0.01382
3955.53046,-0.01375
3953.47029,-0.01353
3951.41012,-0.01360
3949.34995,-0.01404
3947.28978,-0.01414
3945.22960,-0.01404
3943.16943,-0.01425
3941.10926,-0.01431
3939.04909,-0.01417
3936.98892,-0.01389
3934.92874,-0.01368
3932.86857,-0.01370
3930.80840,-0.01338
3928.74823,-0.01274
3926.68805,-0.01273
3924.62788,-0.01316
3922.56771,-0.01306
3920.50754,-0.01292
3918.44737,-0.01315
3916.38719,-0.01331
3914.32702,-0.01334
3912.26685,-0.01361
3910.20668,-0.01350
3908.14651,-0.01280
3906.08633,-0.01257
3904.02616,-0.01284
3901.96599,-0.01305
3899.90582,-0.01348
3897.84565,-0.01331
3895.78547,-0.01271
3893.72530,-0.01317
3891.66513,-0.01412
3889.60496,-0.01380
3887.54478,-0.01365
3885.48461,-0.01384
3883.42444,-0.01317
3881.36427,-0.01328
3879.30410,-0.01319
3877.24392,-0.01249
3875.18375,-0.01257
3873.12358,-0.01276
3871.06341,-0.01359
3869.00324,-0.01381
3866.94306,-0.01297
3864.88289,-0.01303
3862.82272,-0.01303
3860.76255,-0.01246
3858.70237,-0.01173
3856.64220,-0.01210
3854.58203,-0.01447
3852.52186,-0.01554
3850.46169,-0.01395
3848.40151,-0.01264
3846.34134,-0.01224
3844.28117,-0.01217
3842.22100,-0.01205
3840.16083,-0.01266
3838.10065,-0.01359
3836.04048,-0.01344
3833.98031,-0.01316
3831.92014,-0.01338
3829.85997,-0.01336
3827.79979,-0.01315
3825.73962,-0.01229
3823.67945,-0.01193
3821.61928,-0.01295
3819.55910,-0.01280
3817.49893,-0.01319
3815.43876,-0.01406
3813.37859,-0.01340
3811.31842,-0.01282
3809.25824,-0.01330
3807.19807,-0.01372
3805.13790,-0.01265
3803.07773,-0.01249
3801.01756,-0.01285
3798.95738,-0.01221
3796.89721,-0.01249
3794.83704,-0.01277
3792.77687,-0.01271
3790.71670,-0.01272
3788.65652,-0.01273
3786.59635,-0.01301
3784.53618,-0.01304
3782.47601,-0.01282
3780.41583,-0.01330
3778.35566,-0.01344
3776.29549,-0.01271
3774.23532,-0.01208
3772.17515,-0.01226
3770.11497,-0.01290
3768.05480,-0.01287
3765.99463,-0.01262
3763.93446,-0.01210
3761.87429,-0.01218
3759.81411,-0.01303
3757.75394,-0.01268
3755.69377,-0.01142
3753.63360,-0.01163
3751.57342,-0.01316
3749.51325,-0.01292
3747.45308,-0.01206
3745.39291,-0.01372
3743.33274,-0.01427
3741.27256,-0.01243
3739.21239,-0.01133
3737.15222,-0.01157
3735.09205,-0.01206
3733.03188,-0.01219
3730.97170,-0.01201
3728.91153,-0.01203
3726.85136,-0.01263
3724.79119,-0.01267
3722.73102,-0.01234
3720.67084,-0.01229
3718.61067,-0.01243
3716.55050,-0.01229
3714.49033,-0.01251
3712.43015,-0.01350
3710.36998,-0.01371
3708.30981,-0.01274
3706.24964,-0.01189
3704.18947,-0.01209
3702.12929,-0.01266
3700.06912,-0.01232
3698.00895,-0.01178
3695.94878,-0.01139
3693.88861,-0.01089
3691.82843,-0.01124
3689.76826,-0.01246
3687.70809,-0.01265
3685.64792,-0.01178
3683.58775,-0.01122
3681.52757,-0.01089
3679.46740,-0.01062
3677.40723,-0.01137
3675.34706,-0.01217
3673.28688,-0.01133
3671.22671,-0.01216
3669.16654,-0.01302
3667.10637,-0.01182
3665.04620,-0.01106
3662.98602,-0.01107
3660.92585,-0.01103
3658.86568,-0.01138
3656.80551,-0.01195
3654.74534,-0.01085
3652.68516,-0.00984
3650.62499,-0.01087
3648.56482,-0.01156
3646.50465,-0.01069
3644.44447,-0.00974
3642.38430,-0.00952
3640.32413,-0.00934
3638.26396,-0.00913
3636.20379,-0.00894
3634.14361,-0.00831
3632.08344,-0.00763
3630.02327,-0.00865
3627.96310,-0.00928
3625.90293,-0.00805
3623.84275,-0.00726
3621.78258,-0.00757
3619.72241,-0.00809
3617.66224,-0.00739
3615.60207,-0.00651
3613.54189,-0.00646
3611.48172,-0.00648
3609.42155,-0.00674
3607.36138,-0.00661
3605.30120,-0.00572
3603.24103,-0.00547
3601.18086,-0.00568
3599.12069,-0.00527
3597.06052,-0.00494
3595.00034,-0.00522
3592.94017,-0.00511
3590.88000,-0.00461
3588.81983,-0.00471
3586.75966,-0.00464
3584.69948,-0.00385
3582.63931,-0.00328
3580.57914,-0.00310
3578.51897,-0.00322
3576.45879,-0.00355
3574.39862,-0.00338
3572.33845,-0.00238
3570.27828,-0.00168
3568.21811,-0.00211
3566.15793,-0.00227
3564.09776,-0.00159
3562.03759,-0.00134
3559.97742,-0.00155
3557.91725,-0.00168
3555.85707,-0.00155
3553.79690,-0.00118
3551.73673,-0.00045
3549.67656,0.00027
3547.61639,0.00017
3545.55621,-0.00021
3543.49604,0.00005
3541.43587,0.00062
3539.37570,0.00090
3537.31552,0.00085
3535.25535,0.00080
3533.19518,0.00099
3531.13501,0.00128
3529.07484,0.00156
3527.01466,0.00191
3524.95449,0.00222
3522.89432,0.00232
3520.83415,0.00246
3518.77398,0.00266
3516.71380,0.00277
3514.65363,0.00274
3512.59346,0.00274
3510.53329,0.00299
3508.47312,0.00354
3506.41294,0.00388
3504.35277,0.00375
3502.29260,0.00408
3500.23243,0.00489
3498.17225,0.00522
3496.11208,0.00499
3494.05191,0.00479
3491.99174,0.00478
3489.93157,0.00485
3487.87139,0.00515
3485.81122,0.00548
3483.75105,0.00543
3481.69088,0.00540
3479.63071,0.00578
3477.57053,0.00613
3475.51036,0.00631
3473.45019,0.00656
3471.39002,0.00689
3469.32984,0.00722
3467.26967,0.00753
3465.20950,0.00759
3463.14933,0.00739
3461.08916,0.00733
3459.02898,0.00735
3456.96881,0.00721
3454.90864,0.00731
3452.84847,0.00779
3450.78830,0.00841
3448.72812,0.00877
3446.66795,0.00897
3444.60778,0.00921
3442.54761,0.00932
3440.48744,0.00960
3438.42726,0.00992
3436.36709,0.00996
3434.30692,0.00979
3432.24675,0.00959
3430.18657,0.00950
3428.12640,0.00937
3426.06623,0.00932
3424.00606,0.00965
3421.94589,0.01012
3419.88571,0.01048
3417.82554,0.01051
3415.76537,0.01029
3413.70520,0.01030
3411.64503,0.01046
3409.58485,0.01062
3407.52468,0.01096
3405.46451,0.01137
3403.40434,0.01157
3401.34416,0.01159
3399.28399,0.01159
3397.22382,0.01150
3395.16365,0.01144
3393.10348,0.01165
3391.04330,0.01209
3388.98313,0.01229
3386.92296,0.01233
3384.86279,0.01250
3382.80262,0.01257
3380.74244,0.01245
3378.68227,0.01241
3376.62210,0.01222
3374.56193,0.01192
3372.50176,0.01210
3370.44158,0.01256
3368.38141,0.01270
3366.32124,0.01278
3364.26107,0.01299
3362.20089,0.01304
3360.14072,0.01304
3358.08055,0.01312
3356.02038,0.01308
3353.96021,0.01303
3351.90003,0.01328
3349.83986,0.01362
3347.77969,0.01364
3345.71952,0.01354
3343.65935,0.01362
3341.59917,0.01366
3339.53900,0.01351
3337.47883,0.01338
3335.41866,0.01330
3333.35849,0.01335
3331.29831,0.01367
3329.23814,0.01412
3327.17797,0.01441
3325.11780,0.01456
3323.05762,0.01459
3320.99745,0.01445
3318.93728,0.01418
3316.87711,0.01412
3314.81694,0.01444
3312.75676,0.01461
3310.69659,0.01438
3308.63642,0.01428
3306.57625,0.01445
3304.51608,0.01454
3302.45590,0.01450
3300.39573,0.01464
3298.33556,0.01494
3296.27539,0.01510
3294.21521,0.01497
3292.15504,0.01479
3290.09487,0.01484
3288.03470,0.01485
3285.97453,0.01457
3283.91435,0.01436
3281.85418,0.01456
3279.79401,0.01498
3277.73384,0.01503
3275.67367,0.01473
3273.61349,0.01478
3271.55332,0.01526
3269.49315,0.01546
3267.43298,0.01518
3265.37281,0.01488
3263.31263,0.01491
3261.25246,0.01510
3259.19229,0.01521
3257.13212,0.01529
3255.07194,0.01536
3253.01177,0.01532
3250.95160,0.01513
3248.89143,0.01492
3246.83126,0.01484
3244.77108,0.01498
3242.71091,0.01520
3240.65074,0.01517
3238.59057,0.01512
3236.53040,0.01541
3234.47022,0.01576
3232.41005,0.01590
3230.34988,0.01587
3228.28971,0.01569
3226.22954,0.01549
3224.16936,0.01555
3222.10919,0.01560
3220.04902,0.01537
3217.98885,0.01538
3215.92867,0.01560
3213.86850,0.01564
3211.80833,0.01559
3209.74816,0.01542
3207.68799,0.01512
3205.62781,0.01489
3203.56764,0.01498
3201.50747,0.01513
3199.44730,0.01502
3197.38713,0.01501
3195.32695,0.01523
3193.26678,0.01532
3191.20661,0.01518
3189.14644,0.01513
3187.08626,0.01522
3185.02609,0.01489
3182.96592,0.01436
3180.90575,0.01429
3178.84558,0.01439
3176.78540,0.01444
3174.72523,0.01451
3172.66506,0.01434
3170.60489,0.01404
3168.54472,0.01399
3166.48454,0.01406
3164.42437,0.01409
3162.36420,0.01432
3160.30403,0.01456
3158.24386,0.01447
3156.18368,0.01423
3154.12351,0.01421
3152.06334,0.01434
3150.00317,0.01426
3147.94299,0.01394
3145.88282,0.01366
3143.82265,0.01364
3141.76248,0.01376
3139.70231,0.01381
3137.64213,0.01383
3135.58196,0.01386
3133.52179,0.01379
3131.46162,0.01367
3129.40145,0.01353
3127.34127,0.01343
3125.28110,0.01326
3123.22093,0.01293
3121.16076,0.01281
3119.10058,0.01288
3117.04041,0.01279
3114.98024,0.01280
3112.92007,0.01301
3110.85990,0.01300
3108.79972,0.01261
3106.73955,0.01217
3104.67938,0.01204
3102.61921,0.01209
3100.55904,0.01203
3098.49886,0.01192
3096.43869,0.01194
3094.37852,0.01207
3092.31835,0.01207
3090.25818,0.01194
3088.19800,0.01169
3086.13783,0.01144
3084.07766,0.01133
3082.01749,0.01115
3079.95731,0.01088
3077.89714,0.01079
3075.83697,0.01091
3073.77680,0.01112
3071.71663,0.01128
3069.65645,0.01111
3067.59628,0.01084
3065.53611,0.01078
3063.47594,0.01066
3061.41577,0.01035
3059.35559,0.01019
3057.29542,0.01025
3055.23525,0.01030
3053.17508,0.01023
3051.11491,0.01008
3049.05473,0.00999
3046.99456,0.01007
3044.93439,0.01015
3042.87422,0.01005
3040.81404,0.00988
3038.75387,0.00963
3036.69370,0.00930
3034.63353,0.00916
3032.57336,0.00923
3030.51318,0.00925
3028.45301,0.00905
3026.39284,0.00894
3024.33267,0.00909
3022.27250,0.00910
3020.21232,0.00884
3018.15215,0.00853
3016.09198,0.00836
3014.03181,0.00833
3011.97163,0.00821
3009.91146,0.00796
3007.85129,0.00770
3005.79112,0.00756
3003.73095,0.00753
3001.67077,0.00758
2999.61060,0.00767
2997.55043,0.00762
2995.49026,0.00739
2993.43009,0.00720
2991.36991,0.00717
2989.30974,0.00728
2987.24957,0.00733
2985.18940,0.00712
2983.12923,0.00682
2981.06905,0.00671
2979.00888,0.00678
2976.94871,0.00684
2974.88854,0.00681
2972.82836,0.00686
2970.76819,0.00697
2968.70802,0.00695
2966.64785,0.00692
2964.58768,0.00703
2962.52750,0.00705
2960.46733,0.00697
2958.40716,0.00697
2956.34699,0.00700
2954.28682,0.00701
2952.22664,0.00702
2950.16647,0.00707
2948.10630,0.00714
2946.04613,0.00712
2943.98596,0.00710
2941.92578,0.00711
2939.86561,0.00697
2937.80544,0.00675
2935.74527,0.00667
2933.68509,0.00672
2931.62492,0.00672
2929.56475,0.00659
2927.50458,0.00650
2925.44441,0.00656
2923.38423,0.00663
2921.32406,0.00667
2919.26389,0.00666
2917.20372,0.00658
2915.14355,0.00648
2913.08337,0.00636
2911.02320,0.00625
2908.96303,0.00611
2906.90286,0.00592
2904.84268,0.00582
2902.78251,0.00585
2900.72234,0.00597
2898.66217,0.00614
2896.60200,0.00623
2894.54182,0.00620
2892.48165,0.00611
2890.42148,0.00608
2888.36131,0.00623
2886.30114,0.00637
2884.24096,0.00613
2882.18079,0.00572
2880.12062,0.00557
2878.06045,0.00570
2876.00028,0.00587
2873.94010,0.00589
2871.87993,0.00582
2869.81976,0.00566
2867.75959,0.00545
2865.69941,0.00538
2863.63924,0.00558
2861.57907,0.00577
2859.51890,0.00560
2857.45873,0.00514
2855.39855,0.00495
2853.33838,0.00522
2851.27821,0.00540
2849.21804,0.00524
2847.15787,0.00498
2845.09769,0.00476
2843.03752,0.00460
2840.97735,0.00461
2838.91718,0.00475
2836.85700,0.00480
2834.79683,0.00472
2832.73666,0.00457
2830.67649,0.00436
2828.61632,0.00428
2826.55614,0.00448
2824.49597,0.00467
2822.43580,0.00458
2820.37563,0.00442
2818.31546,0.00444
2816.25528,0.00441
2814.19511,0.00417
2812.13494,0.00400
2810.07477,0.00409
2808.01460,0.00413
2805.95442,0.00388
2803.89425,0.00377
2801.83408,0.00392
2799.77391,0.00398
2797.71373,0.00399
2795.65356,0.00407
2793.59339,0.00411
2791.53322,0.00402
2789.47305,0.00391
2787.41287,0.00386
2785.35270,0.00374
2783.29253,0.00356
2781.23236,0.00347
2779.17219,0.00341
2777.11201,0.00337
2775.05184,0.00339
2772.99167,0.00337
2770.93150,0.00330
2768.87133,0.00330
2766.81115,0.00341
2764.75098,0.00344
2762.69081,0.00326
2760.63064,0.00318
2758.57046,0.00326
2756.51029,0.00321
2754.45012,0.00311
2752.38995,0.00308
2750.32978,0.00301
2748.26960,0.00299
2746.20943,0.00297
2744.14926,0.00292
2742.08909,0.00297
2740.02892,0.00302
2737.96874,0.00294
2735.90857,0.00283
2733.84840,0.00277
2731.78823,0.00271
2729.72805,0.00257
2727.66788,0.00256
2725.60771,0.00267
2723.54754,0.00261
2721.48737,0.00241
2719.42719,0.00224
2717.36702,0.00211
2715.30685,0.00203
2713.24668,0.00209
2711.18651,0.00220
2709.12633,0.00228
2707.06616,0.00234
2705.00599,0.00244
2702.94582,0.00243
2700.88565,0.00216
2698.82547,0.00183
2696.76530,0.00172
2694.70513,0.00174
2692.64496,0.00166
2690.58478,0.00154
2688.52461,0.00154
2686.46444,0.00154
2684.40427,0.00149
2682.34410,0.00153
2680.28392,0.00159
2678.22375,0.00153
2676.16358,0.00142
2674.10341,0.00137
2672.04324,0.00122
2669.98306,0.00100
2667.92289,0.00102
2665.86272,0.00118
2663.80255,0.00119
2661.74238,0.00113
2659.68220,0.00124
2657.62203,0.00138
2655.56186,0.00135
2653.50169,0.00130
2651.44151,0.00124
2649.38134,0.00114
2647.32117,0.00104
2645.26100,0.00102
2643.20083,0.00104
2641.14065,0.00101
2639.08048,0.00089
2637.02031,0.00068
2634.96014,0.00049
2632.89997,0.00046
2630.83979,0.00053
2628.77962,0.00049
2626.71945,0.00031
2624.65928,0.00025
2622.59910,0.00030
2620.53893,0.00034
2618.47876,0.00044
2616.41859,0.00063
2614.35842,0.00068
2612.29824,0.00036
2610.23807,-0.00001
2608.17790,-0.00011
2606.11773,-0.00005
2604.05756,0.00016
2601.99738,0.00037
2599.93721,0.00022
2597.87704,-0.00012
2595.81687,-0.00028
2593.75670,-0.00023
2591.69652,-0.00031
2589.63635,-0.00074
2587.57618,-0.00095
2585.51601,-0.00069
2583.45583,-0.00052
2581.39566,-0.00047
2579.33549,-0.00020
2577.27532,0.00009
2575.21515,0.00001
2573.15497,-0.00022
2571.09480,-0.00030
2569.03463,-0.00038
2566.97446,-0.00054
2564.91429,-0.00059
2562.85411,-0.00045
2560.79394,-0.00011
2558.73377,0.00010
2556.67360,-0.00006
2554.61342,-0.00031
2552.55325,-0.00036
2550.49308,-0.00026
2548.43291,-0.00001
2546.37274,0.00029
2544.31256,0.00022
2542.25239,-0.00030
2540.19222,-0.00057
2538.13205,-0.00047
2536.07188,-0.00040
2534.01170,-0.00029
2531.95153,0.00005
2529.89136,0.00023
2527.83119,0.00001
2525.77102,-0.00021
2523.71084,-0.00026
2521.65067,-0.00031
2519.59050,-0.00011
2517.53033,0.00032
2515.47015,0.00043
2513.40998,0.00018
2511.34981,-0.00012
2509.28964,-0.00012
2507.22947,0.00034
2505.16929,0.00068
2503.10912,0.00047
2501.04895,0.00018
2498.98878,0.00022
2496.92861,0.00037
2494.86843,0.00032
2492.80826,0.00011
2490.74809,0.00003
2488.68792,0.00036
2486.62775,0.00053
2484.56757,0.00028
2482.50740,0.00017
2480.44723,0.00033
2478.38706,0.00056
2476.32688,0.00075
2474.26671,0.00102
2472.20654,0.00124
2470.14637,0.00104
2468.08620,0.00087
2466.02602,0.00094
2463.96585,0.00088
2461.90568,0.00086
2459.84551,0.00092
2457.78534,0.00088
2455.72516,0.00087
2453.66499,0.00094
2451.60482,0.00103
2449.54465,0.00103
2447.48447,0.00107
2445.42430,0.00143
2443.36413,0.00166
2441.30396,0.00135
2439.24379,0.00113
2437.18361,0.00115
2435.12344,0.00112
2433.06327,0.00112
2431.00310,0.00108
2428.94293,0.00110
2426.88275,0.00119
2424.82258,0.00098
2422.76241,0.00070
2420.70224,0.00080
2418.64207,0.00110
2416.58189,0.00125
2414.52172,0.00133
2412.46155,0.00142
2410.40138,0.00132
2408.34120,0.00108
2406.28103,0.00107
2404.22086,0.00119
2402.16069,0.00101
2400.10052,0.00074
2398.04034,0.00079
2395.98017,0.00115
2393.92000,0.00135
2391.85983,0.00119
2389.79966,0.00103
2387.73948,0.00118
2385.67931,0.00147
2383.61914,0.00167
2381.55897,0.00177
2379.49880,0.00179
2377.43862,0.00179
2375.37845,0.00149
2373.31828,0.00079
2371.25811,0.00016
2369.19793,-0.00008
2367.13776,0.00037
2365.07759,0.00204
2363.01742,0.00381
2360.95725,0.00453
2358.89707,0.00351
2356.83690,0.00261
2354.77673,0.00204
2352.71656,0.00153
2350.65639,0.00226
2348.59621,0.00271
2346.53604,0.00130
2344.47587,0.00133
2342.41570,0.00203
2340.35552,0.00273
2338.29535,0.00300
2336.23518,0.00167
2334.17501,0.00015
2332.11484,0.00001
2330.05466,0.00114
2327.99449,0.00223
2325.93432,0.00304
2323.87415,0.00310
2321.81398,0.00303
2319.75380,0.00314
2317.69363,0.00342
2315.63346,0.00315
2313.57329,0.00253
2311.51312,0.00203
2309.45294,0.00184
2307.39277,0.00194
2305.33260,0.00200
2303.27243,0.00186
2301.21225,0.00161
2299.15208,0.00157
2297.09191,0.00155
2295.03174,0.00140
2292.97157,0.00135
2290.91139,0.00162
2288.85122,0.00221
2286.79105,0.00269
2284.73088,0.00265
2282.67071,0.00226
2280.61053,0.00189
2278.55036,0.00162
2276.49019,0.00138
2274.43002,0.00128
2272.36984,0.00133
2270.30967,0.00141
2268.24950,0.00143
2266.18933,0.00161
2264.12916,0.00222
2262.06898,0.00281
2260.00881,0.00267
2257.94864,0.00189
2255.88847,0.00114
2253.82830,0.00109
2251.76812,0.00139
2249.70795,0.00107
2247.64778,0.00016
2245.58761,-0.00016
2243.52744,0.00037
2241.46726,0.00075
2239.40709,0.00067
2237.34692,0.00045
2235.28675,0.00004
2233.22657,0.00004
2231.16640,0.00046
2229.10623,0.00047
2227.04606,0.00060
2224.98589,0.00107
2222.92571,0.00105
2220.86554,0.00040
2218.80537,-0.00025
2216.74520,-0.00041
2214.68503,-0.00025
2212.62485,-0.00028
2210.56468,-0.00065
2208.50451,-0.00103
2206.44434,-0.00118
2204.38417,-0.00114
2202.32399,-0.00072
2200.26382,-0.00003
2198.20365,0.00004
2196.14348,-0.00041
2194.08330,-0.00015
2192.02313,0.00073
2189.96296,0.00151
2187.90279,0.00197
2185.84262,0.00198
2183.78244,0.00113
2181.72227,-0.00038
2179.66210,-0.00077
2177.60193,-0.00030
2175.54176,-0.00059
2173.48158,-0.00161
2171.42141,-0.00266
2169.36124,-0.00271
2167.30107,-0.00165
2165.24089,-0.00102
2163.18072,-0.00224
2161.12055,-0.00445
2159.06038,-0.00425
2157.00021,-0.00195
2154.94003,-0.00134
2152.87986,-0.00228
2150.81969,-0.00313
2148.75952,-0.00356
2146.69935,-0.00402
2144.63917,-0.00462
2142.57900,-0.00442
2140.51883,-0.00353
2138.45866,-0.00242
2136.39849,-0.00185
2134.33831,-0.00208
2132.27814,-0.00210
2130.21797,-0.00188
2128.15780,-0.00174
2126.09762,-0.00184
2124.03745,-0.00206
2121.97728,-0.00193
2119.91711,-0.00162
2117.85694,-0.00157
2115.79676,-0.00167
2113.73659,-0.00168
2111.67642,-0.00181
2109.61625,-0.00192
2107.55608,-0.00164
2105.49590,-0.00101
2103.43573,-0.00025
2101.37556,0.00023
2099.31539,0.00008
2097.25521,-0.00050
2095.19504,-0.00112
2093.13487,-0.00148
2091.07470,-0.00155
2089.01453,-0.00139
2086.95435,-0.00092
2084.89418,-0.00027
2082.83401,-0.00002
2080.77384,-0.00019
2078.71367,-0.00009
2076.65349,0.00013
2074.59332,0.00004
2072.53315,-0.00025
2070.47298,-0.00067
2068.41281,-0.00089
2066.35263,-0.00093
2064.29246,-0.00106
2062.23229,-0.00113
2060.17212,-0.00121
2058.11194,-0.00143
2056.05177,-0.00167
2053.99160,-0.00172
2051.93143,-0.00180
2049.87126,-0.00197
2047.81108,-0.00141
2045.75091,0.00013
2043.69074,0.00114
2041.63057,0.00096
2039.57040,0.00079
2037.51022,0.00043
2035.45005,-0.00059
2033.38988,-0.00111
2031.32971,-0.00095
2029.26954,-0.00104
2027.20936,-0.00138
2025.14919,-0.00157
2023.08902,-0.00123
2021.02885,-0.00128
2018.96867,-0.00312
2016.90850,-0.00444
2014.84833,-0.00289
2012.78816,-0.00135
2010.72799,-0.00201
2008.66781,-0.00292
2006.60764,-0.00250
2004.54747,-0.00222
2002.48730,-0.00296
2000.42713,-0.00286
1998.36695,-0.00102
1996.30678,0.00087
1994.24661,0.00098
1992.18644,-0.00040
1990.12626,-0.00152
1988.06609,-0.00163
1986.00592,-0.00057
1983.94575,0.00048
1981.88558,0.00037
1979.82540,-0.00051
1977.76523,-0.00141
1975.70506,-0.00207
1973.64489,-0.00275
1971.58472,-0.00341
1969.52454,-0.00397
1967.46437,-0.00391
1965.40420,-0.00319
1963.34403,-0.00324
1961.28386,-0.00363
1959.22368,-0.00309
1957.16351,-0.00238
1955.10334,-0.00238
1953.04317,-0.00245
1950.98299,-0.00201
1948.92282,-0.00114
1946.86265,-0.00020
1944.80248,0.00003
1942.74231,-0.00050
1940.68213,-0.00075
1938.62196,-0.00103
1936.56179,-0.00123
1934.50162,-0.00075
1932.44145,-0.00029
1930.38127,-0.00039
1928.32110,-0.00055
1926.26093,-0.00047
1924.20076,-0.00053
1922.14059,-0.00028
1920.08041,-0.00017
1918.02024,-0.00079
1915.96007,-0.00085
1913.89990,-0.00049
1911.83972,-0.00034
1909.77955,-0.00034
1907.71938,-0.00011
1905.65921,0.00036
1903.59904,0.00073
1901.53886,0.00084
1899.47869,0.00070
1897.41852,0.00056
1895.35835,0.00089
1893.29818,0.00145
1891.23800,0.00115
1889.17783,0.00072
1887.11766,0.00108
1885.05749,0.00121
1882.99731,0.00090
1880.93714,0.00071
1878.87697,0.00086
1876.81680,0.00117
1874.75663,0.00152
1872.69645,0.00172
1870.63628,0.00122
1868.57611,0.00078
1866.51594,0.00135
1864.45577,0.00185
1862.39559,0.00164
1860.33542,0.00141
1858.27525,0.00154
1856.21508,0.00182
1854.15491,0.00199
1852.09473,0.00210
1850.03456,0.00232
1847.97439,0.00250
1845.91422,0.00201
1843.85404,0.00153
1841.79387,0.00226
1839.73370,0.00276
1837.67353,0.00255
1835.61336,0.00251
1833.55318,0.00263
1831.49301,0.00216
1829.43284,0.00180
1827.37267,0.00223
1825.31250,0.00236
1823.25232,0.00250
1821.19215,0.00263
1819.13198,0.00241
1817.07181,0.00228
1815.01163,0.00249
1812.95146,0.00240
1810.89129,0.00211
1808.83112,0.00243
1806.77095,0.00316
1804.71077,0.00364
1802.65060,0.00349
1800.59043,0.00320
1798.53026,0.00353
1796.47009,0.00408
1794.40991,0.00389
1792.34974,0.00331
1790.28957,0.00380
1788.22940,0.00427
1786.16923,0.00379
1784.10905,0.00339
1782.04888,0.00331
1779.98871,0.00349
1777.92854,0.00417
1775.86836,0.00438
1773.80819,0.00366
1771.74802,0.00347
1769.68785,0.00424
1767.62768,0.00456
1765.56750,0.00471
1763.50733,0.00434
1761.44716,0.00421
1759.38699,0.00477
1757.32682,0.00498
1755.26664,0.00562
1753.20647,0.00585
1751.14630,0.00517
1749.08613,0.00521
1747.02596,0.00592
1744.96578,0.00634
1742.90561,0.00629
1740.84544,0.00616
1738.78527,0.00699
1736.72509,0.00740
1734.66492,0.00598
1732.60475,0.00614
1730.54458,0.00722
1728.48441,0.00755
1726.42423,0.00769
1724.36406,0.00780
1722.30389,0.00843
1720.24372,0.00838
1718.18355,0.00728
1716.12337,0.00749
1714.06320,0.00848
1712.00303,0.00887
1709.94286,0.00874
1707.88268,0.00836
1705.82251,0.00855
1703.76234,0.00966
1701.70217,0.00936
1699.64200,0.00914
1697.58182,0.00980
1695.52165,0.00964
1693.46148,0.01051
1691.40131,0.01084
1689.34114,0.01090
1687.28096,0.01100
1685.22079,0.00965
1683.16062,0.00990
1681.10045,0.01185
1679.04028,0.01244
1676.98010,0.01164
1674.91993,0.01132
1672.85976,0.01214
1670.79959,0.01172
1668.73941,0.01167
1666.67924,0.01290
1664.61907,0.01275
1662.55890,0.01203
1660.49873,0.01289
1658.43855,0.01412
1656.37838,0.01374
1654.31821,0.01137
1652.25804,0.01203
1650.19787,0.01465
1648.13769,0.01334
1646.07752,0.01202
1644.01735,0.01339
1641.95718,0.01431
1639.89701,0.01414
1637.83683,0.01282
1635.77666,0.01150
1633.71649,0.01276
1631.65632,0.01386
1629.59614,0.01335
1627.53597,0.01316
1625.47580,0.01325
1623.41563,0.01298
1621.35546,0.01360
1619.29528,0.01328
1617.23511,0.01169
1615.17494,0.01217
1613.11477,0.01329
1611.05460,0.01299
1608.99442,0.01244
1606.93425,0.01247
1604.87408,0.01256
1602.81391,0.01237
1600.75373,0.01219
1598.69356,0.01196
1596.63339,0.01151
1594.57322,0.01119
1592.51305,0.01116
1590.45287,0.01110
1588.39270,0.01080
1586.33253,0.01038
1584.27236,0.01006
1582.21219,0.01015
1580.15201,0.01035
1578.09184,0.00948
1576.03167,0.00879
1573.97150,0.01018
1571.91133,0.01026
1569.85115,0.00882
1567.79098,0.00902
1565.73081,0.00983
1563.67064,0.01054
1561.61046,0.00951
1559.55029,0.00658
1557.49012,0.00802
1555.42995,0.01035
1553.36978,0.01032
1551.30960,0.00942
1549.24943,0.00902
1547.18926,0.00928
1545.12909,0.00896
1543.06892,0.00811
1541.00874,0.00687
1538.94857,0.00792
1536.88840,0.01026
1534.82823,0.00949
1532.76805,0.00821
1530.70788,0.00877
1528.64771,0.00874
1526.58754,0.00858
1524.52737,0.00905
1522.46719,0.00869
1520.40702,0.00883
1518.34685,0.00917
1516.28668,0.00873
1514.22651,0.00896
1512.16633,0.00933
1510.10616,0.00883
1508.04599,0.00671
1505.98582,0.00654
1503.92565,0.00894
1501.86547,0.00947
1499.80530,0.00818
1497.74513,0.00722
1495.68496,0.00802
1493.62478,0.00922
1491.56461,0.00864
1489.50444,0.00782
1487.44427,0.00835
1485.38410,0.00892
1483.32392,0.00872
1481.26375,0.00845
1479.20358,0.00876
1477.14341,0.00887
1475.08324,0.00836
1473.02306,0.00781
1470.96289,0.00886
1468.90272,0.01010
1466.84255,0.00957
1464.78238,0.00913
1462.72220,0.01040
1460.66203,0.01095
1458.60186,0.00949
1456.54169,0.00909
1454.48151,0.01071
1452.42134,0.01110
1450.36117,0.01029
1448.30100,0.00960
1446.24083,0.00975
1444.18065,0.01011
1442.12048,0.01026
1440.06031,0.01019
1438.00014,0.00926
1435.93997,0.00914
1433.87979,0.01031
1431.81962,0.01027
1429.75945,0.00987
1427.69928,0.01034
1425.63910,0.01064
1423.57893,0.01084
1421.51876,0.01076
1419.45859,0.00998
1417.39842,0.01034
1415.33824,0.01101
1413.27807,0.01074
1411.21790,0.01031
1409.15773,0.01032
1407.09756,0.01028
1405.03738,0.01034
1402.97721,0.01099
1400.91704,0.01113
1398.85687,0.01077
1396.79670,0.01066
1394.73652,0.01062
1392.67635,0.01122
1390.61618,0.01150
1388.55601,0.01090
1386.49583,0.01078
1384.43566,0.01132
1382.37549,0.01151
1380.31532,0.01151
1378.25515,0.01162
1376.19497,0.01150
1374.13480,0.01137
1372.07463,0.01182
1370.01446,0.01203
1367.95429,0.01202
1365.89411,0.01208
1363.83394,0.01177
1361.77377,0.01173
1359.71360,0.01206
1357.65343,0.01204
1355.59325,0.01182
1353.53308,0.01180
1351.47291,0.01183
1349.41274,0.01179
1347.35256,0.01190
1345.29239,0.01228
1343.23222,0.01254
1341.17205,0.01224
1339.11188,0.01195
1337.05170,0.01225
1334.99153,0.01242
1332.93136,0.01222
1330.87119,0.01202
1328.81102,0.01200
1326.75084,0.01207
1324.69067,0.01224
1322.63050,0.01240
1320.57033,0.01232
1318.51015,0.01225
1316.44998,0.01238
1314.38981,0.01243
1312.32964,0.01249
1310.26947,0.01260
1308.20929,0.01260
1306.14912,0.01265
1304.08895,0.01269
1302.02878,0.01268
1299.96861,0.01272
1297.90843,0.01278
1295.84826,0.01279
1293.78809,0.01290
1291.72792,0.01316
1289.66775,0.01340
1287.60757,0.01352
1285.54740,0.01351
1283.48723,0.01333
1281.42706,0.01329
1279.36688,0.01349
1277.30671,0.01363
1275.24654,0.01364
1273.18637,0.01361
1271.12620,0.01366
1269.06602,0.01383
1267.00585,0.01398
1264.94568,0.01393
1262.88551,0.01369
1260.82534,0.01353
1258.76516,0.01369
1256.70499,0.01394
1254.64482,0.01397
1252.58465,0.01379
1250.52447,0.01361
1248.46430,0.01358
1246.40413,0.01366
1244.34396,0.01370
1242.28379,0.01367
1240.22361,0.01363
1238.16344,0.01353
1236.10327,0.01353
1234.04310,0.01370
1231.98293,0.01384
1229.92275,0.01383
1227.86258,0.01380
1225.80241,0.01387
1223.74224,0.01393
1221.68207,0.01389
1219.62189,0.01386
1217.56172,0.01385
1215.50155,0.01395
1213.44138,0.01414
1211.38120,0.01420
1209.32103,0.01411
1207.26086,0.01405
1205.20069,0.01404
1203.14052,0.01413
1201.08034,0.01431
1199.02017,0.01443
1196.96000,0.01454
1194.89983,0.01482
1192.83966,0.01523
1190.77948,0.01558
1188.71931,0.01589
1186.65914,0.01630
1184.59897,0.01669
1182.53880,0.01701
1180.47862,0.01743
1178.41845,0.01795
1176.35828,0.01850
1174.29811,0.01917
1172.23793,0.01985
1170.17776,0.02038
1168.11759,0.02083
1166.05742,0.02125
1163.99725,0.02167
1161.93707,0.02223
1159.87690,0.02286
1157.81673,0.02343
1155.75656,0.02399
1153.69639,0.02455
1151.63621,0.02503
1149.57604,0.02548
1147.51587,0.02599
1145.45570,0.02654
1143.39552,0.02713
1141.33535,0.02778
1139.27518,0.02852
1137.21501,0.02923
1135.15484,0.02980
1133.09466,0.03033
1131.03449,0.03098
1128.97432,0.03173
1126.91415,0.03240
1124.85398,0.03298
1122.79380,0.03344
1120.73363,0.03392
1118.67346,0.03464
1116.61329,0.03536
1114.55312,0.03593
1112.49294,0.03658
1110.43277,0.03734
1108.37260,0.03802
1106.31243,0.03858
1104.25225,0.03915
1102.19208,0.03977
1100.13191,0.04035
1098.07174,0.04091
1096.01157,0.04161
1093.95139,0.04242
1091.89122,0.04307
1089.83105,0.04361
1087.77088,0.04424
1085.71071,0.04484
1083.65053,0.04525
1081.59036,0.04561
1079.53019,0.04606
1077.47002,0.04648
1075.40985,0.04678
1073.34967,0.04713
1071.28950,0.04748
1069.22933,0.04761
1067.16916,0.04762
1065.10898,0.04768
1063.04881,0.04768
1060.98864,0.04760
1058.92847,0.04760
1056.86830,0.04758
1054.80812,0.04736
1052.74795,0.04709
1050.68778,0.04683
1048.62761,0.04643
1046.56744,0.04590
1044.50726,0.04524
1042.44709,0.04446
1040.38692,0.04380
1038.32675,0.04333
1036.26657,0.04279
1034.20640,0.04210
1032.14623,0.04138
1030.08606,0.04085
1028.02589,0.04048
1025.96571,0.04004
1023.90554,0.03944
1021.84537,0.03885
1019.78520,0.03834
1017.72503,0.03783
1015.66485,0.03743
1013.60468,0.03713
1011.54451,0.03680
1009.48434,0.03667
1007.42417,0.03677
1005.36399,0.03678
1003.30382,0.03669
1001.24365,0.03671
999.18348,0.03688
997.12330,0.03727
995.06313,0.03786
993.00296,0.03849
990.94279,0.03893
988.88262,0.03929
986.82244,0.03965
984.76227,0.03977
982.70210,0.03959
980.64193,0.03941
978.58176,0.03928
976.52158,0.03895
974.46141,0.03833
972.40124,0.03752
970.34107,0.03690
968.28089,0.03654
966.22072,0.03603
964.16055,0.03527
962.10038,0.03449
960.04021,0.03366
957.98003,0.03299
955.91986,0.03269
953.85969,0.03257
951.79952,0.03243
949.73935,0.03228
947.67917,0.03205
945.61900,0.03177
943.55883,0.03162
941.49866,0.03168
939.43849,0.03167
937.37831,0.03151
935.31814,0.03152
933.25797,0.03161
931.19780,0.03150
929.13762,0.03136
927.07745,0.03133
925.01728,0.03140
922.95711,0.03135
920.89694,0.03107
918.83676,0.03085
916.77659,0.03071
914.71642,0.03050
912.65625,0.03029
910.59608,0.02998
908.53590,0.02985
906.47573,0.02999
904.41556,0.02991
902.35539,0.02955
900.29522,0.02937
898.23504,0.02934
896.17487,0.02927
894.11470,0.02936
892.05453,0.02971
889.99435,0.03008
887.93418,0.03029
885.87401,0.03030
883.81384,0.03025
881.75367,0.03038
879.69349,0.03085
877.63332,0.03153
875.57315,0.03212
873.51298,0.03250
871.45281,0.03263
869.39263,0.03242
867.33246,0.03207
865.27229,0.03189
863.21212,0.03200
861.15194,0.03224
859.09177,0.03226
857.03160,0.03203
854.97143,0.03174
852.91126,0.03135
850.85108,0.03089
848.79091,0.03059
846.73074,0.03051
844.67057,0.03046
842.61040,0.03036
840.55022,0.03024
838.49005,0.02994
836.42988,0.02959
834.36971,0.02924
832.30954,0.02861
830.24936,0.02792
828.18919,0.02739
826.12902,0.02696
824.06885,0.02695
822.00867,0.02738
819.94850,0.02766
817.88833,0.02735
815.82816,0.02652
813.76799,0.02581
811.70781,0.02571
809.64764,0.02600
807.58747,0.02624
805.52730,0.02610
803.46713,0.02585
801.40695,0.02599
799.34678,0.02618
797.28661,0.02595
795.22644,0.02548
793.16627,0.02526
791.10609,0.02544
789.04592,0.02566
786.98575,0.02568
784.92558,0.02561
782.86540,0.02542
780.80523,0.02518
778.74506,0.02503
776.68489,0.02488
774.62472,0.02468
772.56454,0.02449
770.50437,0.02442
768.44420,0.02436
766.38403,0.02455
764.32386,0.02489
762.26368,0.02489
760.20351,0.02482
758.14334,0.02479
756.08317,0.02449
754.02299,0.02429
751.96282,0.02441
749.90265,0.02438
747.84248,0.02454
745.78231,0.02507
743.72213,0.02502
741.66196,0.02441
739.60179,0.02390
737.54162,0.02363
735.48145,0.02382
733.42127,0.02436
731.36110,0.02452
729.30093,0.02382
727.24076,0.02295
725.18059,0.02257
723.12041,0.02288
721.06024,0.02330
719.00007,0.02389
716.93990,0.02410
714.87972,0.02395
712.81955,0.02410
710.75938,0.02472
708.69921,0.02544
706.63904,0.02582
704.57886,0.02589
702.51869,0.02598
700.45852,0.02618
698.39835,0.02616
696.33818,0.02588
694.27800,0.02557
692.21783,0.02515
690.15766,0.02470
688.09749,0.02479
686.03731,0.02552
683.97714,0.02584
681.91697,0.02497
679.85680,0.02388
677.79663,0.02380
675.73645,0.02470
673.67628,0.02632
671.61611,0.02790
669.55594,0.02628
667.49577,0.02387
665.43559,0.02592
663.37542,0.02519
661.31525,0.02439
659.25508,0.02489
657.19491,0.02580
655.13473,0.02632
653.07456,0.02667
651.01439,0.02668
648.95422,0.02583
646.89404,0.02521
644.83387,0.02574
642.77370,0.02683
640.71353,0.02737
638.65336,0.02725
636.59318,0.02695
634.53301,0.02710
632.47284,0.02742
630.41267,0.02709
628.35250,0.02644
626.29232,0.02632
624.23215,0.02684
622.17198,0.02776
620.11181,0.02793
618.05164,0.02674
615.99146,0.02555
613.93129,0.02541
611.87112,0.02519
609.81095,0.02444
607.75077,0.02384
605.69060,0.02371
603.63043,0.02438
601.57026,0.02577
599.51009,0.02704
