3996.73391,0.00130
3994.67373,0.00123
3992.61356,0.00107
3990.55339,0.00061
3988.49322,0.00038
3986.43305,0.00073
3984.37287,0.00113
3982.31270,0.00118
3980.25253,0.00108
3978.19236,0.00114
3976.13219,0.00125
3974.07201,0.00092
3972.01184,0.00027
3969.95167,0.00000
3967.89150,0.00022
3965.83133,0.00050
3963.77115,0.00068
3961.71098,0.00071
3959.65081,0.00049
3957.59064,0.00037
3955.53046,0.00059
3953.47029,0.00077
3951.41012,0.00088
3949.34995,0.00130
3947.28978,0.00166
3945.22960,0.00131
3943.16943,0.00069
3941.10926,0.00045
3939.04909,0.00046
3936.98892,0.00061
3934.92874,0.00095
3932.86857,0.00132
3930.80840,0.00137
3928.74823,0.00090
3926.68805,0.00029
3924.62788,0.00005
3922.56771,0.00011
3920.50754,0.00043
3918.44737,0.00090
3916.38719,0.00101
3914.32702,0.00072
3912.26685,0.00055
3910.20668,0.00053
3908.14651,0.00048
3906.08633,0.00072
3904.02616,0.00132
3901.96599,0.00171
3899.90582,0.00149
3897.84565,0.00099
3895.78547,0.00074
3893.72530,0.00084
3891.66513,0.00098
3889.60496,0.00095
3887.54478,0.00097
3885.48461,0.00120
3883.42444,0.00131
3881.36427,0.00107
3879.30410,0.00074
3877.24392,0.00063
3875.18375,0.00074
3873.12358,0.00098
3871.06341,0.00130
3869.00324,0.00161
3866.94306,0.00174
3864.88289,0.00170
3862.82272,0.00150
3860.76255,0.00117
3858.70237,0.00098
3856.64220,0.00127
3854.58203,0.00172
3852.52186,0.00144
3850.46169,0.00063
3848.40151,0.00015
3846.34134,0.00014
3844.28117,0.00033
3842.22100,0.00042
3840.16083,0.00034
3838.10065,0.00043
3836.04048,0.00089
3833.98031,0.00122
3831.92014,0.00125
3829.85997,0.00129
3827.79979,0.00144
3825.73962,0.00146
3823.67945,0.00117
3821.61928,0.00063
3819.55910,0.00017
3817.49893,0.00000
3815.43876,0.00001
3813.37859,0.00017
3811.31842,0.00052
3809.25824,0.00084
3807.19807,0.00089
3805.13790,0.00071
3803.07773,0.00060
3801.01756,0.00067
3798.95738,0.00078
3796.89721,0.00086
3794.83704,0.00087
3792.77687,0.00079
3790.71670,0.00073
3788.65652,0.00083
3786.59635,0.00100
3784.53618,0.00119
3782.47601,0.00127
3780.41583,0.00108
3778.35566,0.00092
3776.29549,0.00098
3774.23532,0.00102
3772.17515,0.00094
3770.11497,0.00093
3768.05480,0.00113
3765.99463,0.00147
3763.93446,0.00180
3761.87429,0.00196
3759.81411,0.00177
3757.75394,0.00125
3755.69377,0.00093
3753.63360,0.00122
3751.57342,0.00171
3749.51325,0.00177
3747.45308,0.00162
3745.39291,0.00175
3743.33274,0.00194
3741.27256,0.00185
3739.21239,0.00179
3737.15222,0.00188
3735.09205,0.00172
3733.03188,0.00116
3730.97170,0.00079
3728.91153,0.00095
3726.85136,0.00135
3724.79119,0.00148
3722.73102,0.00123
3720.67084,0.00093
3718.61067,0.00088
3716.55050,0.00106
3714.49033,0.00142
3712.43015,0.00184
3710.36998,0.00185
3708.30981,0.00145
3706.24964,0.00130
3704.18947,0.00156
3702.12929,0.00190
3700.06912,0.00197
3698.00895,0.00158
3695.94878,0.00104
3693.88861,0.00085
3691.82843,0.00116
3689.76826,0.00160
3687.70809,0.00173
3685.64792,0.00173
3683.58775,0.00170
3681.52757,0.00169
3679.46740,0.00193
3677.40723,0.00236
3675.34706,0.00244
3673.28688,0.00217
3671.22671,0.00205
3669.16654,0.00238
3667.10637,0.00299
3665.04620,0.00348
3662.98602,0.00357
3660.92585,0.00338
3658.86568,0.00318
3656.80551,0.00318
3654.74534,0.00340
3652.68516,0.00371
3650.62499,0.00413
3648.56482,0.00458
3646.50465,0.00466
3644.44447,0.00476
3642.38430,0.00552
3640.32413,0.00664
3638.26396,0.00743
3636.20379,0.00778
3634.14361,0.00788
3632.08344,0.00809
3630.02327,0.00876
3627.96310,0.00953
3625.90293,0.00977
3623.84275,0.00983
3621.78258,0.01019
3619.72241,0.01068
3617.66224,0.01095
3615.60207,0.01115
3613.54189,0.01181
3611.48172,0.01288
3609.42155,0.01361
3607.36138,0.01385
3605.30120,0.01397
3603.24103,0.01404
3601.18086,0.01436
3599.12069,0.01499
3597.06052,0.01548
3595.00034,0.01595
3592.94017,0.01681
3590.88000,0.01767
3588.81983,0.01815
3586.75966,0.01824
3584.69948,0.01808
3582.63931,0.01795
3580.57914,0.01831
3578.51897,0.01904
3576.45879,0.01978
3574.39862,0.02050
3572.33845,0.02100
3570.27828,0.02099
3568.21811,0.02095
3566.15793,0.02161
3564.09776,0.02255
3562.03759,0.02309
3559.97742,0.02329
3557.91725,0.02352
3555.85707,0.02389
3553.79690,0.02422
3551.73673,0.02443
3549.67656,0.02479
3547.61639,0.02548
3545.55621,0.02607
3543.49604,0.02626
3541.43587,0.02636
3539.37570,0.02679
3537.31552,0.02760
3535.25535,0.02859
3533.19518,0.02944
3531.13501,0.02987
3529.07484,0.03009
3527.01466,0.03045
3524.95449,0.03093
3522.89432,0.03137
3520.83415,0.03173
3518.77398,0.03214
3516.71380,0.03256
3514.65363,0.03285
3512.59346,0.03310
3510.53329,0.03340
3508.47312,0.03390
3506.41294,0.03466
3504.35277,0.03530
3502.29260,0.03547
3500.23243,0.03540
3498.17225,0.03556
3496.11208,0.03606
3494.05191,0.03662
3491.99174,0.03691
3489.93157,0.03725
3487.87139,0.03802
3485.81122,0.03858
3483.75105,0.03855
3481.69088,0.03865
3479.63071,0.03932
3477.57053,0.04009
3475.51036,0.04040
3473.45019,0.04006
3471.39002,0.03959
3469.32984,0.03988
3467.26967,0.04109
3465.20950,0.04211
3463.14933,0.04226
3461.08916,0.04215
3459.02898,0.04234
3456.96881,0.04269
3454.90864,0.04296
3452.84847,0.04334
3450.78830,0.04394
3448.72812,0.04449
3446.66795,0.04468
3444.60778,0.04463
3442.54761,0.04480
3440.48744,0.04527
3438.42726,0.04551
3436.36709,0.04529
3434.30692,0.04516
3432.24675,0.04573
3430.18657,0.04687
3428.12640,0.04775
3426.06623,0.04790
3424.00606,0.04770
3421.94589,0.04785
3419.88571,0.04839
3417.82554,0.04885
3415.76537,0.04906
3413.70520,0.04910
3411.64503,0.04915
3409.58485,0.04939
3407.52468,0.04970
3405.46451,0.04990
3403.40434,0.04994
3401.34416,0.04985
3399.28399,0.05004
3397.22382,0.05053
3395.16365,0.05084
3393.10348,0.05106
3391.04330,0.05130
3388.98313,0.05131
3386.92296,0.05115
3384.86279,0.05108
3382.80262,0.05112
3380.74244,0.05130
3378.68227,0.05163
3376.62210,0.05181
3374.56193,0.05182
3372.50176,0.05216
3370.44158,0.05275
3368.38141,0.05284
3366.32124,0.05245
3364.26107,0.05226
3362.20089,0.05259
3360.14072,0.05319
3358.08055,0.05358
3356.02038,0.05351
3353.96021,0.05348
3351.90003,0.05378
3349.83986,0.05386
3347.77969,0.05356
3345.71952,0.05332
3343.65935,0.05336
3341.59917,0.05355
3339.53900,0.05374
3337.47883,0.05389
3335.41866,0.05386
3333.35849,0.05357
3331.29831,0.05342
3329.23814,0.05375
3327.17797,0.05430
3325.11780,0.05462
3323.05762,0.05447
3320.99745,0.05408
3318.93728,0.05398
3316.87711,0.05418
3314.81694,0.05437
3312.75676,0.05449
3310.69659,0.05462
3308.63642,0.05481
3306.57625,0.05490
3304.51608,0.05477
3302.45590,0.05464
3300.39573,0.05484
3298.33556,0.05522
3296.27539,0.05514
3294.21521,0.05474
3292.15504,0.05483
3290.09487,0.05517
3288.03470,0.05511
3285.97453,0.05493
3283.91435,0.05512
3281.85418,0.05528
3279.79401,0.05500
3277.73384,0.05483
3275.67367,0.05522
3273.61349,0.05574
3271.55332,0.05583
3269.49315,0.05572
3267.43298,0.05587
3265.37281,0.05612
3263.31263,0.05632
3261.25246,0.05630
3259.19229,0.05594
3257.13212,0.05563
3255.07194,0.05559
3253.01177,0.05559
3250.95160,0.05551
3248.89143,0.05541
3246.83126,0.05563
3244.77108,0.05603
3242.71091,0.05606
3240.65074,0.05592
3238.59057,0.05594
3236.53040,0.05599
3234.47022,0.05583
3232.41005,0.05552
3230.34988,0.05541
3228.28971,0.05553
3226.22954,0.05568
3224.16936,0.05563
3222.10919,0.05537
3220.04902,0.05507
3217.98885,0.05482
3215.92867,0.05473
3213.86850,0.05486
3211.80833,0.05498
3209.74816,0.05504
3207.68799,0.05493
3205.62781,0.05456
3203.56764,0.05432
3201.50747,0.05434
3199.44730,0.05433
3197.38713,0.05416
3195.32695,0.05404
3193.26678,0.05411
3191.20661,0.05424
3189.14644,0.05417
3187.08626,0.05376
3185.02609,0.05344
3182.96592,0.05353
3180.90575,0.05363
3178.84558,0.05335
3176.78540,0.05300
3174.72523,0.05308
3172.66506,0.05343
3170.60489,0.05351
3168.54472,0.05329
3166.48454,0.05296
3164.42437,0.05242
3162.36420,0.05186
3160.30403,0.05190
3158.24386,0.05222
3156.18368,0.05209
3154.12351,0.05188
3152.06334,0.05193
3150.00317,0.05167
3147.94299,0.05093
3145.88282,0.05032
3143.82265,0.05020
3141.76248,0.05039
3139.70231,0.05060
3137.64213,0.05048
3135.58196,0.05013
3133.52179,0.04990
3131.46162,0.04983
3129.40145,0.04971
3127.34127,0.04940
3125.28110,0.04907
3123.22093,0.04897
3121.16076,0.04884
3119.10058,0.04838
3117.04041,0.04795
3114.98024,0.04791
3112.92007,0.04793
3110.85990,0.04775
3108.79972,0.04752
3106.73955,0.04728
3104.67938,0.04702
3102.61921,0.04688
3100.55904,0.04694
3098.49886,0.04689
3096.43869,0.04651
3094.37852,0.04608
3092.31835,0.04581
3090.25818,0.04571
3088.19800,0.04563
3086.13783,0.04537
3084.07766,0.04511
3082.01749,0.04508
3079.95731,0.04499
3077.89714,0.04473
3075.83697,0.04459
3073.77680,0.04444
3071.71663,0.04411
3069.65645,0.04362
3067.59628,0.04307
3065.53611,0.04275
3063.47594,0.04261
3061.41577,0.04234
3059.35559,0.04203
3057.29542,0.04191
3055.23525,0.04194
3053.17508,0.04185
3051.11491,0.04153
3049.05473,0.04109
3046.99456,0.04074
3044.93439,0.04053
3042.87422,0.04034
3040.81404,0.04016
3038.75387,0.04012
3036.69370,0.03996
3034.63353,0.03939
3032.57336,0.03872
3030.51318,0.03846
3028.45301,0.03853
3026.39284,0.03860
3024.33267,0.03847
3022.27250,0.03809
3020.21232,0.03762
3018.15215,0.03726
3016.09198,0.03698
3014.03181,0.03676
3011.97163,0.03641
3009.91146,0.03592
3007.85129,0.03565
3005.79112,0.03567
3003.73095,0.03568
3001.67077,0.03565
2999.61060,0.03554
2997.55043,0.03520
2995.49026,0.03486
2993.43009,0.03462
2991.36991,0.03450
2989.30974,0.03446
2987.24957,0.03426
2985.18940,0.03398
2983.12923,0.03371
2981.06905,0.03337
2979.00888,0.03323
2976.94871,0.03336
2974.88854,0.03340
2972.82836,0.03329
2970.76819,0.03310
2968.70802,0.03285
2966.64785,0.03267
2964.58768,0.03258
2962.52750,0.03248
2960.46733,0.03244
2958.40716,0.03237
2956.34699,0.03224
2954.28682,0.03213
2952.22664,0.03196
2950.16647,0.03175
2948.10630,0.03176
2946.04613,0.03191
2943.98596,0.03185
2941.92578,0.03177
2939.86561,0.03198
2937.80544,0.03210
2935.74527,0.03185
2933.68509,0.03156
2931.62492,0.03140
2929.56475,0.03142
2927.50458,0.03162
2925.44441,0.03161
2923.38423,0.03127
2921.32406,0.03098
2919.26389,0.03086
2917.20372,0.03067
2915.14355,0.03042
2913.08337,0.03028
2911.02320,0.03016
2908.96303,0.02995
2906.90286,0.02978
2904.84268,0.02961
2902.78251,0.02926
2900.72234,0.02897
2898.66217,0.02905
2896.60200,0.02926
2894.54182,0.02927
2892.48165,0.02908
2890.42148,0.02895
2888.36131,0.02892
2886.30114,0.02876
2884.24096,0.02857
2882.18079,0.02837
2880.12062,0.02805
2878.06045,0.02792
2876.00028,0.02810
2873.94010,0.02832
2871.87993,0.02827
2869.81976,0.02792
2867.75959,0.02753
2865.69941,0.02725
2863.63924,0.02717
2861.57907,0.02731
2859.51890,0.02734
2857.45873,0.02700
2855.39855,0.02661
2853.33838,0.02660
2851.27821,0.02668
2849.21804,0.02652
2847.15787,0.02626
2845.09769,0.02613
2843.03752,0.02601
2840.97735,0.02576
2838.91718,0.02548
2836.85700,0.02523
2834.79683,0.02500
2832.73666,0.02484
2830.67649,0.02460
2828.61632,0.02422
2826.55614,0.02397
2824.49597,0.02399
2822.43580,0.02413
2820.37563,0.02420
2818.31546,0.02420
2816.25528,0.02420
2814.19511,0.02413
2812.13494,0.02404
2810.07477,0.02385
2808.01460,0.02350
2805.95442,0.02325
2803.89425,0.02314
2801.83408,0.02308
2799.77391,0.02303
2797.71373,0.02301
2795.65356,0.02307
2793.59339,0.02308
2791.53322,0.02288
2789.47305,0.02261
2787.41287,0.02243
2785.35270,0.02234
2783.29253,0.02235
2781.23236,0.02241
2779.17219,0.02223
2777.11201,0.02198
2775.05184,0.02190
2772.99167,0.02167
2770.93150,0.02126
2768.87133,0.02108
2766.81115,0.02105
2764.75098,0.02088
2762.69081,0.02073
2760.63064,0.02081
2758.57046,0.02086
2756.51029,0.02067
2754.45012,0.02038
2752.38995,0.02026
2750.32978,0.02023
2748.26960,0.02011
2746.20943,0.01997
2744.14926,0.01997
2742.08909,0.02008
2740.02892,0.02008
2737.96874,0.01976
2735.90857,0.01927
2733.84840,0.01903
2731.78823,0.01916
2729.72805,0.01931
2727.66788,0.01924
2725.60771,0.01911
2723.54754,0.01902
2721.48737,0.01891
2719.42719,0.01870
2717.36702,0.01846
2715.30685,0.01832
2713.24668,0.01831
2711.18651,0.01825
2709.12633,0.01800
2707.06616,0.01779
2705.00599,0.01775
2702.94582,0.01775
2700.88565,0.01780
2698.82547,0.01777
2696.76530,0.01743
2694.70513,0.01705
2692.64496,0.01679
2690.58478,0.01654
2688.52461,0.01644
2686.46444,0.01648
2684.40427,0.01647
2682.34410,0.01640
2680.28392,0.01641
2678.22375,0.01630
2676.16358,0.01590
2674.10341,0.01556
2672.04324,0.01554
2669.98306,0.01565
2667.92289,0.01560
2665.86272,0.01543
2663.80255,0.01525
2661.74238,0.01508
2659.68220,0.01499
2657.62203,0.01486
2655.56186,0.01453
2653.50169,0.01438
2651.44151,0.01461
2649.38134,0.01479
2647.32117,0.01469
2645.26100,0.01438
2643.20083,0.01405
2641.14065,0.01381
2639.08048,0.01365
2637.02031,0.01346
2634.96014,0.01315
2632.89997,0.01290
2630.83979,0.01285
2628.77962,0.01290
2626.71945,0.01293
2624.65928,0.01285
2622.59910,0.01274
2620.53893,0.01242
2618.47876,0.01199
2616.41859,0.01197
2614.35842,0.01221
2612.29824,0.01234
2610.23807,0.01240
2608.17790,0.01227
2606.11773,0.01192
2604.05756,0.01163
2601.99738,0.01145
2599.93721,0.01150
2597.87704,0.01175
2595.81687,0.01181
2593.75670,0.01152
2591.69652,0.01105
2589.63635,0.01077
2587.57618,0.01077
2585.51601,0.01074
2583.45583,0.01087
2581.39566,0.01106
2579.33549,0.01116
2577.27532,0.01140
2575.21515,0.01151
2573.15497,0.01139
2571.09480,0.01136
2569.03463,0.01146
2566.97446,0.01153
2564.91429,0.01146
2562.85411,0.01136
2560.79394,0.01141
2558.73377,0.01132
2556.67360,0.01091
2554.61342,0.01066
2552.55325,0.01090
2550.49308,0.01111
2548.43291,0.01082
2546.37274,0.01067
2544.31256,0.01120
2542.25239,0.01161
2540.19222,0.01144
2538.13205,0.01095
2536.07188,0.01052
2534.01170,0.01059
2531.95153,0.01102
2529.89136,0.01128
2527.83119,0.01115
2525.77102,0.01095
2523.71084,0.01077
2521.65067,0.01046
2519.59050,0.01038
2517.53033,0.01072
2515.47015,0.01105
2513.40998,0.01108
2511.34981,0.01101
2509.28964,0.01111
2507.22947,0.01146
2505.16929,0.01201
2503.10912,0.01237
2501.04895,0.01211
2498.98878,0.01151
2496.92861,0.01113
2494.86843,0.01121
2492.80826,0.01133
2490.74809,0.01133
2488.68792,0.01144
2486.62775,0.01155
2484.56757,0.01162
2482.50740,0.01160
2480.44723,0.01166
2478.38706,0.01188
2476.32688,0.01184
2474.26671,0.01150
2472.20654,0.01121
2470.14637,0.01138
2468.08620,0.01186
2466.02602,0.01204
2463.96585,0.01201
2461.90568,0.01210
2459.84551,0.01185
2457.78534,0.01125
2455.72516,0.01121
2453.66499,0.01154
2451.60482,0.01169
2449.54465,0.01197
2447.48447,0.01220
2445.42430,0.01197
2443.36413,0.01176
2441.30396,0.01181
2439.24379,0.01177
2437.18361,0.01172
2435.12344,0.01207
2433.06327,0.01266
2431.00310,0.01309
2428.94293,0.01307
2426.88275,0.01250
2424.82258,0.01177
2422.76241,0.01129
2420.70224,0.01127
2418.64207,0.01168
2416.58189,0.01194
2414.52172,0.01192
2412.46155,0.01212
2410.40138,0.01259
2408.34120,0.01291
2406.28103,0.01274
2404.22086,0.01219
2402.16069,0.01178
2400.10052,0.01173
2398.04034,0.01185
2395.98017,0.01213
2393.92000,0.01238
2391.85983,0.01252
2389.79966,0.01255
2387.73948,0.01240
2385.67931,0.01220
2383.61914,0.01214
2381.55897,0.01217
2379.49880,0.01206
2377.43862,0.01162
2375.37845,0.01090
2373.31828,0.00996
2371.25811,0.00973
2369.19793,0.01112
2367.13776,0.01230
2365.07759,0.01149
2363.01742,0.00998
2360.95725,0.00870
2358.89707,0.00944
2356.83690,0.01122
2354.77673,0.01163
2352.71656,0.01077
2350.65639,0.00957
2348.59621,0.00940
2346.53604,0.01054
2344.47587,0.00965
2342.41570,0.00826
2340.35552,0.00843
2338.29535,0.00942
2336.23518,0.01000
2334.17501,0.00960
2332.11484,0.00909
2330.05466,0.00953
2327.99449,0.01079
2325.93432,0.01147
2323.87415,0.01159
2321.81398,0.01133
2319.75380,0.01111
2317.69363,0.01073
2315.63346,0.01040
2313.57329,0.01006
2311.51312,0.00995
2309.45294,0.01037
2307.39277,0.01097
2305.33260,0.01120
2303.27243,0.01106
2301.21225,0.01107
2299.15208,0.01126
2297.09191,0.01130
2295.03174,0.01095
2292.97157,0.01054
2290.91139,0.01054
2288.85122,0.01076
2286.79105,0.01068
2284.73088,0.01030
2282.67071,0.01001
2280.61053,0.00998
2278.55036,0.00986
2276.49019,0.00940
2274.43002,0.00908
2272.36984,0.00926
2270.30967,0.00941
2268.24950,0.00907
2266.18933,0.00880
2264.12916,0.00878
2262.06898,0.00839
2260.00881,0.00797
2257.94864,0.00819
2255.88847,0.00867
2253.82830,0.00898
2251.76812,0.00901
2249.70795,0.00854
2247.64778,0.00785
2245.58761,0.00761
2243.52744,0.00736
2241.46726,0.00634
2239.40709,0.00578
2237.34692,0.00655
2235.28675,0.00733
2233.22657,0.00783
2231.16640,0.00836
2229.10623,0.00865
2227.04606,0.00882
2224.98589,0.00858
2222.92571,0.00807
2220.86554,0.00778
2218.80537,0.00710
2216.74520,0.00594
2214.68503,0.00536
2212.62485,0.00597
2210.56468,0.00753
2208.50451,0.00883
2206.44434,0.00889
2204.38417,0.00788
2202.32399,0.00650
2200.26382,0.00541
2198.20365,0.00531
2196.14348,0.00678
2194.08330,0.00849
2192.02313,0.00885
2189.96296,0.00791
2187.90279,0.00653
2185.84262,0.00574
2183.78244,0.00557
2181.72227,0.00569
2179.66210,0.00567
2177.60193,0.00473
2175.54176,0.00421
2173.48158,0.00509
2171.42141,0.00565
2169.36124,0.00577
2167.30107,0.00648
2165.24089,0.00715
2163.18072,0.00649
2161.12055,0.00431
2159.06038,0.00206
2157.00021,0.00146
2154.94003,0.00240
2152.87986,0.00394
2150.81969,0.00539
2148.75952,0.00545
2146.69935,0.00414
2144.63917,0.00305
2142.57900,0.00278
2140.51883,0.00306
2138.45866,0.00337
2136.39849,0.00371
2134.33831,0.00413
2132.27814,0.00412
2130.21797,0.00392
2128.15780,0.00438
2126.09762,0.00548
2124.03745,0.00607
2121.97728,0.00577
2119.91711,0.00538
2117.85694,0.00521
2115.79676,0.00508
2113.73659,0.00483
2111.67642,0.00451
2109.61625,0.00485
2107.55608,0.00559
2105.49590,0.00565
2103.43573,0.00534
2101.37556,0.00518
2099.31539,0.00501
2097.25521,0.00487
2095.19504,0.00483
2093.13487,0.00469
2091.07470,0.00453
2089.01453,0.00454
2086.95435,0.00444
2084.89418,0.00464
2082.83401,0.00559
2080.77384,0.00597
2078.71367,0.00496
2076.65349,0.00424
2074.59332,0.00467
2072.53315,0.00465
2070.47298,0.00411
2068.41281,0.00448
2066.35263,0.00499
2064.29246,0.00447
2062.23229,0.00365
2060.17212,0.00307
2058.11194,0.00310
2056.05177,0.00361
2053.99160,0.00368
2051.93143,0.00349
2049.87126,0.00313
2047.81108,0.00272
2045.75091,0.00284
2043.69074,0.00319
2041.63057,0.00336
2039.57040,0.00310
2037.51022,0.00252
2035.45005,0.00196
2033.38988,0.00163
2031.32971,0.00160
2029.26954,0.00115
2027.20936,0.00016
2025.14919,0.00000
2023.08902,0.00127
2021.02885,0.00286
2018.96867,0.00307
2016.90850,0.00170
2014.84833,0.00057
2012.78816,0.00059
2010.72799,0.00122
2008.66781,0.00198
2006.60764,0.00224
2004.54747,0.00147
2002.48730,0.00053
2000.42713,0.00072
1998.36695,0.00167
1996.30678,0.00246
1994.24661,0.00282
1992.18644,0.00271
1990.12626,0.00252
1988.06609,0.00205
1986.00592,0.00127
1983.94575,0.00146
1981.88558,0.00213
1979.82540,0.00168
1977.76523,0.00112
1975.70506,0.00173
1973.64489,0.00188
1971.58472,0.00095
1969.52454,0.00065
1967.46437,0.00111
1965.40420,0.00145
1963.34403,0.00191
1961.28386,0.00250
1959.22368,0.00240
1957.16351,0.00155
1955.10334,0.00068
1953.04317,0.00027
1950.98299,0.00062
1948.92282,0.00160
1946.86265,0.00251
1944.80248,0.00275
1942.74231,0.00247
1940.68213,0.00217
1938.62196,0.00177
1936.56179,0.00120
1934.50162,0.00087
1932.44145,0.00106
1930.38127,0.00146
1928.32110,0.00151
1926.26093,0.00127
1924.20076,0.00103
1922.14059,0.00105
1920.08041,0.00193
1918.02024,0.00322
1915.96007,0.00346
1913.89990,0.00271
1911.83972,0.00219
1909.77955,0.00207
1907.71938,0.00191
1905.65921,0.00168
1903.59904,0.00173
1901.53886,0.00214
1899.47869,0.00258
1897.41852,0.00272
1895.35835,0.00267
1893.29818,0.00255
1891.23800,0.00241
1889.17783,0.00241
1887.11766,0.00273
1885.05749,0.00309
1882.99731,0.00304
1880.93714,0.00254
1878.87697,0.00203
1876.81680,0.00200
1874.75663,0.00246
1872.69645,0.00283
1870.63628,0.00276
1868.57611,0.00254
1866.51594,0.00259
1864.45577,0.00281
1862.39559,0.00297
1860.33542,0.00295
1858.27525,0.00269
1856.21508,0.00248
1854.15491,0.00264
1852.09473,0.00301
1850.03456,0.00318
1847.97439,0.00301
1845.91422,0.00258
1843.85404,0.00210
1841.79387,0.00196
1839.73370,0.00230
1837.67353,0.00269
1835.61336,0.00282
1833.55318,0.00293
1831.49301,0.00302
1829.43284,0.00291
1827.37267,0.00289
1825.31250,0.00317
1823.25232,0.00332
1821.19215,0.00315
1819.13198,0.00287
1817.07181,0.00276
1815.01163,0.00293
1812.95146,0.00319
1810.89129,0.00341
1808.83112,0.00357
1806.77095,0.00363
1804.71077,0.00362
1802.65060,0.00360
1800.59043,0.00358
1798.53026,0.00355
1796.47009,0.00351
1794.40991,0.00357
1792.34974,0.00379
1790.28957,0.00397
1788.22940,0.00401
1786.16923,0.00407
1784.10905,0.00425
1782.04888,0.00440
1779.98871,0.00433
1777.92854,0.00415
1775.86836,0.00421
1773.80819,0.00454
1771.74802,0.00478
1769.68785,0.00477
1767.62768,0.00457
1765.56750,0.00429
1763.50733,0.00411
1761.44716,0.00417
1759.38699,0.00429
1757.32682,0.00436
1755.26664,0.00455
1753.20647,0.00487
1751.14630,0.00515
1749.08613,0.00538
1747.02596,0.00564
1744.96578,0.00581
1742.90561,0.00577
1740.84544,0.00565
1738.78527,0.00556
1736.72509,0.00545
1734.66492,0.00560
1732.60475,0.00631
1730.54458,0.00694
1728.48441,0.00707
1726.42423,0.00710
1724.36406,0.00723
1722.30389,0.00727
1720.24372,0.00721
1718.18355,0.00730
1716.12337,0.00763
1714.06320,0.00812
1712.00303,0.00855
1709.94286,0.00881
1707.88268,0.00890
1705.82251,0.00901
1703.76234,0.00924
1701.70217,0.00948
1699.64200,0.00971
1697.58182,0.01008
1695.52165,0.01054
1693.46148,0.01101
1691.40131,0.01147
1689.34114,0.01195
1687.28096,0.01241
1685.22079,0.01287
1683.16062,0.01340
1681.10045,0.01385
1679.04028,0.01414
1676.98010,0.01447
1674.91993,0.01502
1672.85976,0.01558
1670.79959,0.01588
1668.73941,0.01610
1666.67924,0.01643
1664.61907,0.01679
1662.55890,0.01707
1660.49873,0.01725
1658.43855,0.01744
1656.37838,0.01779
1654.31821,0.01820
1652.25804,0.01815
1650.19787,0.01769
1648.13769,0.01742
1646.07752,0.01757
1644.01735,0.01780
1641.95718,0.01767
1639.89701,0.01732
1637.83683,0.01703
1635.77666,0.01679
1633.71649,0.01662
1631.65632,0.01655
1629.59614,0.01637
1627.53597,0.01606
1625.47580,0.01579
1623.41563,0.01558
1621.35546,0.01531
1619.29528,0.01496
1617.23511,0.01457
1615.17494,0.01426
1613.11477,0.01412
1611.05460,0.01411
1608.99442,0.01402
1606.93425,0.01374
1604.87408,0.01340
1602.81391,0.01307
1600.75373,0.01267
1598.69356,0.01218
1596.63339,0.01164
1594.57322,0.01116
1592.51305,0.01087
1590.45287,0.01062
1588.39270,0.01022
1586.33253,0.00970
1584.27236,0.00926
1582.21219,0.00895
1580.15201,0.00873
1578.09184,0.00852
1576.03167,0.00819
1573.97150,0.00777
1571.91133,0.00752
1569.85115,0.00740
1567.79098,0.00713
1565.73081,0.00661
1563.67064,0.00612
1561.61046,0.00596
1559.55029,0.00589
1557.49012,0.00561
1555.42995,0.00528
1553.36978,0.00511
1551.30960,0.00515
1549.24943,0.00512
1547.18926,0.00488
1545.12909,0.00471
1543.06892,0.00484
1541.00874,0.00499
1538.94857,0.00469
1536.88840,0.00434
1534.82823,0.00422
1532.76805,0.00399
1530.70788,0.00362
1528.64771,0.00343
1526.58754,0.00350
1524.52737,0.00369
1522.46719,0.00372
1520.40702,0.00334
1518.34685,0.00285
1516.28668,0.00256
1514.22651,0.00238
1512.16633,0.00225
1510.10616,0.00228
1508.04599,0.00242
1505.98582,0.00242
1503.92565,0.00218
1501.86547,0.00191
1499.80530,0.00177
1497.74513,0.00180
1495.68496,0.00194
1493.62478,0.00204
1491.56461,0.00208
1489.50444,0.00201
1487.44427,0.00183
1485.38410,0.00183
1483.32392,0.00202
1481.26375,0.00212
1479.20358,0.00214
1477.14341,0.00226
1475.08324,0.00251
1473.02306,0.00278
1470.96289,0.00290
1468.90272,0.00277
1466.84255,0.00265
1464.78238,0.00263
1462.72220,0.00255
1460.66203,0.00240
1458.60186,0.00234
1456.54169,0.00242
1454.48151,0.00252
1452.42134,0.00256
1450.36117,0.00266
1448.30100,0.00281
1446.24083,0.00274
1444.18065,0.00249
1442.12048,0.00240
1440.06031,0.00247
1438.00014,0.00255
1435.93997,0.00257
1433.87979,0.00248
1431.81962,0.00237
1429.75945,0.00240
1427.69928,0.00249
1425.63910,0.00259
1423.57893,0.00274
1421.51876,0.00291
1419.45859,0.00301
1417.39842,0.00308
1415.33824,0.00307
1413.27807,0.00296
1411.21790,0.00283
1409.15773,0.00270
1407.09756,0.00253
1405.03738,0.00239
1402.97721,0.00240
1400.91704,0.00247
1398.85687,0.00255
1396.79670,0.00263
1394.73652,0.00256
1392.67635,0.00237
1390.61618,0.00223
1388.55601,0.00217
1386.49583,0.00219
1384.43566,0.00220
1382.37549,0.00214
1380.31532,0.00212
1378.25515,0.00219
1376.19497,0.00229
1374.13480,0.00236
1372.07463,0.00236
1370.01446,0.00230
1367.95429,0.00229
1365.89411,0.00229
1363.83394,0.00215
1361.77377,0.00187
1359.71360,0.00168
1357.65343,0.00163
1355.59325,0.00163
1353.53308,0.00157
1351.47291,0.00150
1349.41274,0.00142
1347.35256,0.00132
1345.29239,0.00128
1343.23222,0.00150
1341.17205,0.00182
1339.11188,0.00186
1337.05170,0.00162
1334.99153,0.00142
1332.93136,0.00143
1330.87119,0.00154
1328.81102,0.00155
1326.75084,0.00142
1324.69067,0.00130
1322.63050,0.00135
1320.57033,0.00160
1318.51015,0.00180
1316.44998,0.00186
1314.38981,0.00189
1312.32964,0.00190
1310.26947,0.00183
1308.20929,0.00174
1306.14912,0.00170
1304.08895,0.00171
1302.02878,0.00176
1299.96861,0.00172
1297.90843,0.00171
1295.84826,0.00186
1293.78809,0.00197
1291.72792,0.00199
1289.66775,0.00207
1287.60757,0.00222
1285.54740,0.00235
1283.48723,0.00242
1281.42706,0.00246
1279.36688,0.00250
1277.30671,0.00253
1275.24654,0.00258
1273.18637,0.00268
1271.12620,0.00277
1269.06602,0.00286
1267.00585,0.00296
1264.94568,0.00303
1262.88551,0.00312
1260.82534,0.00316
1258.76516,0.00307
1256.70499,0.00295
1254.64482,0.00292
1252.58465,0.00281
1250.52447,0.00262
1248.46430,0.00263
1246.40413,0.00277
1244.34396,0.00275
1242.28379,0.00251
1240.22361,0.00221
1238.16344,0.00203
1236.10327,0.00192
1234.04310,0.00177
1231.98293,0.00155
1229.92275,0.00137
1227.86258,0.00132
1225.80241,0.00128
1223.74224,0.00108
1221.68207,0.00077
1219.62189,0.00055
1217.56172,0.00038
1215.50155,0.00031
1213.44138,0.00039
1211.38120,0.00032
1209.32103,0.00004
1207.26086,0.00000
1205.20069,0.00019
1203.14052,0.00026
1201.08034,0.00032
1199.02017,0.00056
1196.96000,0.00074
1194.89983,0.00070
1192.83966,0.00079
1190.77948,0.00127
1188.71931,0.00179
1186.65914,0.00217
1184.59897,0.00272
1182.53880,0.00339
1180.47862,0.00390
1178.41845,0.00437
1176.35828,0.00508
1174.29811,0.00609
1172.23793,0.00712
1170.17776,0.00791
1168.11759,0.00856
1166.05742,0.00935
1163.99725,0.01035
1161.93707,0.01131
1159.87690,0.01202
1157.81673,0.01272
1155.75656,0.01360
1153.69639,0.01448
1151.63621,0.01534
1149.57604,0.01624
1147.51587,0.01704
1145.45570,0.01780
1143.39552,0.01882
1141.33535,0.02010
1139.27518,0.02129
1137.21501,0.02229
1135.15484,0.02337
1133.09466,0.02465
1131.03449,0.02597
1128.97432,0.02733
1126.91415,0.02871
1124.85398,0.02991
1122.79380,0.03095
1120.73363,0.03212
1118.67346,0.03347
1116.61329,0.03488
1114.55312,0.03626
1112.49294,0.03760
1110.43277,0.03892
1108.37260,0.04020
1106.31243,0.04145
1104.25225,0.04273
1102.19208,0.04409
1100.13191,0.04542
1098.07174,0.04668
1096.01157,0.04790
1093.95139,0.04908
1091.89122,0.05019
1089.83105,0.05117
1087.77088,0.05197
1085.71071,0.05265
1083.65053,0.05348
1081.59036,0.05457
1079.53019,0.05558
1077.47002,0.05637
1075.40985,0.05711
1073.34967,0.05784
1071.28950,0.05829
1069.22933,0.05838
1067.16916,0.05831
1065.10898,0.05812
1063.04881,0.05781
1060.98864,0.05740
1058.92847,0.05690
1056.86830,0.05646
1054.80812,0.05591
1052.74795,0.05497
1050.68778,0.05382
1048.62761,0.05266
1046.56744,0.05141
1044.50726,0.05001
1042.44709,0.04872
1040.38692,0.04753
1038.32675,0.04619
1036.26657,0.04477
1034.20640,0.04347
1032.14623,0.04206
1030.08606,0.04040
1028.02589,0.03891
1025.96571,0.03787
1023.90554,0.03700
1021.84537,0.03600
1019.78520,0.03487
1017.72503,0.03381
1015.66485,0.03299
1013.60468,0.03238
1011.54451,0.03186
1009.48434,0.03146
1007.42417,0.03133
1005.36399,0.03145
1003.30382,0.03171
1001.24365,0.03203
999.18348,0.03257
997.12330,0.03342
995.06313,0.03441
993.00296,0.03545
990.94279,0.03643
988.88262,0.03725
986.82244,0.03793
984.76227,0.03852
982.70210,0.03872
980.64193,0.03836
978.58176,0.03767
976.52158,0.03674
974.46141,0.03561
972.40124,0.03421
970.34107,0.03253
968.28089,0.03087
966.22072,0.02946
964.16055,0.02806
962.10038,0.02660
960.04021,0.02535
957.98003,0.02441
955.91986,0.02336
953.85969,0.02198
951.79952,0.02092
949.73935,0.02057
947.67917,0.02023
945.61900,0.01966
943.55883,0.01926
941.49866,0.01908
939.43849,0.01889
937.37831,0.01858
935.31814,0.01836
933.25797,0.01829
931.19780,0.01809
929.13762,0.01782
927.07745,0.01767
925.01728,0.01757
922.95711,0.01735
920.89694,0.01692
918.83676,0.01639
916.77659,0.01597
914.71642,0.01558
912.65625,0.01507
910.59608,0.01465
908.53590,0.01443
906.47573,0.01421
904.41556,0.01398
902.35539,0.01377
900.29522,0.01347
898.23504,0.01323
896.17487,0.01316
894.11470,0.01329
892.05453,0.01353
889.99435,0.01367
887.93418,0.01376
885.87401,0.01392
883.81384,0.01437
881.75367,0.01511
879.69349,0.01570
877.63332,0.01598
875.57315,0.01624
873.51298,0.01674
871.45281,0.01744
869.39263,0.01815
867.33246,0.01869
865.27229,0.01902
863.21212,0.01891
861.15194,0.01829
859.09177,0.01766
857.03160,0.01727
854.97143,0.01707
852.91126,0.01676
850.85108,0.01612
848.79091,0.01564
846.73074,0.01565
844.67057,0.01560
842.61040,0.01492
840.55022,0.01372
838.49005,0.01300
836.42988,0.01302
834.36971,0.01278
832.30954,0.01190
830.24936,0.01077
828.18919,0.00993
826.12902,0.00958
824.06885,0.00900
822.00867,0.00794
819.94850,0.00724
817.88833,0.00743
815.82816,0.00774
813.76799,0.00732
811.70781,0.00675
809.64764,0.00645
807.58747,0.00583
805.52730,0.00494
803.46713,0.00435
801.40695,0.00442
799.34678,0.00484
797.28661,0.00478
795.22644,0.00427
793.16627,0.00396
791.10609,0.00404
789.04592,0.00405
786.98575,0.00359
784.92558,0.00344
782.86540,0.00406
780.80523,0.00445
778.74506,0.00415
776.68489,0.00392
774.62472,0.00398
772.56454,0.00359
770.50437,0.00258
768.44420,0.00203
766.38403,0.00233
764.32386,0.00256
762.26368,0.00225
760.20351,0.00203
758.14334,0.00184
756.08317,0.00121
754.02299,0.00050
751.96282,0.00029
749.90265,0.00090
747.84248,0.00190
745.78231,0.00222
743.72213,0.00164
741.66196,0.00133
739.60179,0.00156
737.54162,0.00195
735.48145,0.00267
733.42127,0.00303
731.36110,0.00240
729.30093,0.00142
727.24076,0.00085
725.18059,0.00105
723.12041,0.00159
721.06024,0.00205
719.00007,0.00196
716.93990,0.00169
714.87972,0.00155
712.81955,0.00131
710.75938,0.00105
708.69921,0.00124
706.63904,0.00199
704.57886,0.00276
702.51869,0.00276
700.45852,0.00192
698.39835,0.00110
696.33818,0.00095
694.27800,0.00119
692.21783,0.00121
690.15766,0.00082
688.09749,0.00054
686.03731,0.00040
683.97714,0.00014
681.91697,0.00028
679.85680,0.00060
677.79663,0.00043
675.73645,0.00043
673.67628,0.00054
671.61611,0.00008
669.55594,0.00152
667.49577,0.00312
665.43559,0.00054
663.37542,0.00093
661.31525,0.00210
659.25508,0.00258
657.19491,0.00210
655.13473,0.00169
653.07456,0.00203
651.01439,0.00212
648.95422,0.00169
646.89404,0.00133
644.83387,0.00104
642.77370,0.00041
640.71353,0.00000
638.65336,0.00052
636.59318,0.00184
634.53301,0.00317
632.47284,0.00386
630.41267,0.00338
628.35250,0.00159
626.29232,-0.00041
624.23215,-0.00101
622.17198,-0.00074
620.11181,0.00012
618.05164,0.00200
615.99146,0.00358
613.93129,0.00311
611.87112,0.00111
609.81095,0.00064
607.75077,0.00322
605.69060,0.00567
603.63043,0.00509
601.57026,0.00266
599.51009,0.00000
