3996.73391,0.00027
3994.67373,0.00025
3992.61356,0.00031
3990.55339,0.00029
3988.49322,0.00032
3986.43305,0.00051
3984.37287,0.00064
3982.31270,0.00058
3980.25253,0.00040
3978.19236,0.00032
3976.13219,0.00038
3974.07201,0.00037
3972.01184,0.00027
3969.95167,0.00029
3967.89150,0.00047
3965.83133,0.00061
3963.77115,0.00056
3961.71098,0.00032
3959.65081,0.00007
3957.59064,0.00000
3955.53046,0.00009
3953.47029,0.00020
3951.41012,0.00026
3949.34995,0.00031
3947.28978,0.00039
3945.22960,0.00040
3943.16943,0.00034
3941.10926,0.00037
3939.04909,0.00055
3936.98892,0.00065
3934.92874,0.00055
3932.86857,0.00049
3930.80840,0.00056
3928.74823,0.00057
3926.68805,0.00060
3924.62788,0.00076
3922.56771,0.00086
3920.50754,0.00077
3918.44737,0.00064
3916.38719,0.00056
3914.32702,0.00054
3912.26685,0.00054
3910.20668,0.00049
3908.14651,0.00027
3906.08633,0.00003
3904.02616,0.00001
3901.96599,0.00016
3899.90582,0.00026
3897.84565,0.00033
3895.78547,0.00045
3893.72530,0.00054
3891.66513,0.00056
3889.60496,0.00048
3887.54478,0.00038
3885.48461,0.00037
3883.42444,0.00051
3881.36427,0.00061
3879.30410,0.00059
3877.24392,0.00067
3875.18375,0.00086
3873.12358,0.00089
3871.06341,0.00083
3869.00324,0.00085
3866.94306,0.00093
3864.88289,0.00105
3862.82272,0.00110
3860.76255,0.00102
3858.70237,0.00104
3856.64220,0.00138
3854.58203,0.00182
3852.52186,0.00175
3850.46169,0.00135
3848.40151,0.00118
3846.34134,0.00129
3844.28117,0.00157
3842.22100,0.00200
3840.16083,0.00211
3838.10065,0.00153
3836.04048,0.00091
3833.98031,0.00083
3831.92014,0.00090
3829.85997,0.00077
3827.79979,0.00057
3825.73962,0.00062
3823.67945,0.00087
3821.61928,0.00098
3819.55910,0.00122
3817.49893,0.00178
3815.43876,0.00196
3813.37859,0.00168
3811.31842,0.00161
3809.25824,0.00175
3807.19807,0.00160
3805.13790,0.00125
3803.07773,0.00113
3801.01756,0.00119
3798.95738,0.00119
3796.89721,0.00114
3794.83704,0.00099
3792.77687,0.00076
3790.71670,0.00047
3788.65652,0.00015
3786.59635,0.00004
3784.53618,0.00032
3782.47601,0.00086
3780.41583,0.00131
3778.35566,0.00143
3776.29549,0.00131
3774.23532,0.00124
3772.17515,0.00126
3770.11497,0.00129
3768.05480,0.00129
3765.99463,0.00128
3763.93446,0.00138
3761.87429,0.00163
3759.81411,0.00169
3757.75394,0.00143
3755.69377,0.00132
3753.63360,0.00153
3751.57342,0.00154
3749.51325,0.00126
3747.45308,0.00136
3745.39291,0.00147
3743.33274,0.00101
3741.27256,0.00061
3739.21239,0.00067
3737.15222,0.00079
3735.09205,0.00069
3733.03188,0.00060
3730.97170,0.00086
3728.91153,0.00129
3726.85136,0.00144
3724.79119,0.00120
3722.73102,0.00090
3720.67084,0.00085
3718.61067,0.00115
3716.55050,0.00158
3714.49033,0.00172
3712.43015,0.00154
3710.36998,0.00134
3708.30981,0.00130
3706.24964,0.00143
3704.18947,0.00145
3702.12929,0.00114
3700.06912,0.00098
3698.00895,0.00138
3695.94878,0.00193
3693.88861,0.00209
3691.82843,0.00179
3689.76826,0.00145
3687.70809,0.00146
3685.64792,0.00162
3683.58775,0.00186
3681.52757,0.00223
3679.46740,0.00260
3677.40723,0.00276
3675.34706,0.00262
3673.28688,0.00255
3671.22671,0.00280
3669.16654,0.00303
3667.10637,0.00301
3665.04620,0.00309
3662.98602,0.00337
3660.92585,0.00348
3658.86568,0.00319
3656.80551,0.00295
3654.74534,0.00327
3652.68516,0.00387
3650.62499,0.00419
3648.56482,0.00422
3646.50465,0.00432
3644.44447,0.00471
3642.38430,0.00538
3640.32413,0.00596
3638.26396,0.00621
3636.20379,0.00633
3634.14361,0.00655
3632.08344,0.00680
3630.02327,0.00696
3627.96310,0.00719
3625.90293,0.00762
3623.84275,0.00801
3621.78258,0.00810
3619.72241,0.00792
3617.66224,0.00793
3615.60207,0.00847
3613.54189,0.00922
3611.48172,0.00982
3609.42155,0.01013
3607.36138,0.01038
3605.30120,0.01101
3603.24103,0.01179
3601.18086,0.01221
3599.12069,0.01244
3597.06052,0.01295
3595.00034,0.01356
3592.94017,0.01399
3590.88000,0.01438
3588.81983,0.01467
3586.75966,0.01463
3584.69948,0.01463
3582.63931,0.01497
3580.57914,0.01547
3578.51897,0.01602
3576.45879,0.01651
3574.39862,0.01676
3572.33845,0.01691
3570.27828,0.01708
3568.21811,0.01716
3566.15793,0.01716
3564.09776,0.01744
3562.03759,0.01805
3559.97742,0.01872
3557.91725,0.01925
3555.85707,0.01973
3553.79690,0.02031
3551.73673,0.02093
3549.67656,0.02132
3547.61639,0.02137
3545.55621,0.02123
3543.49604,0.02131
3541.43587,0.02167
3539.37570,0.02203
3537.31552,0.02231
3535.25535,0.02267
3533.19518,0.02317
3531.13501,0.02367
3529.07484,0.02408
3527.01466,0.02449
3524.95449,0.02494
3522.89432,0.02530
3520.83415,0.02553
3518.77398,0.02578
3516.71380,0.02612
3514.65363,0.02658
3512.59346,0.02710
3510.53329,0.02743
3508.47312,0.02757
3506.41294,0.02785
3504.35277,0.02818
3502.29260,0.02828
3500.23243,0.02837
3498.17225,0.02866
3496.11208,0.02903
3494.05191,0.02944
3491.99174,0.02981
3489.93157,0.03017
3487.87139,0.03053
3485.81122,0.03076
3483.75105,0.03092
3481.69088,0.03118
3479.63071,0.03153
3477.57053,0.03186
3475.51036,0.03220
3473.45019,0.03260
3471.39002,0.03285
3469.32984,0.03305
3467.26967,0.03331
3465.20950,0.03350
3463.14933,0.03347
3461.08916,0.03339
3459.02898,0.03356
3456.96881,0.03388
3454.90864,0.03412
3452.84847,0.03445
3450.78830,0.03493
3448.72812,0.03539
3446.66795,0.03572
3444.60778,0.03588
3442.54761,0.03584
3440.48744,0.03585
3438.42726,0.03598
3436.36709,0.03612
3434.30692,0.03640
3432.24675,0.03671
3430.18657,0.03684
3428.12640,0.03694
3426.06623,0.03711
3424.00606,0.03720
3421.94589,0.03733
3419.88571,0.03762
3417.82554,0.03785
3415.76537,0.03805
3413.70520,0.03838
3411.64503,0.03870
3409.58485,0.03892
3407.52468,0.03897
3405.46451,0.03902
3403.40434,0.03922
3401.34416,0.03936
3399.28399,0.03938
3397.22382,0.03938
3395.16365,0.03937
3393.10348,0.03932
3391.04330,0.03940
3388.98313,0.03977
3386.92296,0.04027
3384.86279,0.04057
3382.80262,0.04064
3380.74244,0.04068
3378.68227,0.04075
3376.62210,0.04080
3374.56193,0.04079
3372.50176,0.04091
3370.44158,0.04129
3368.38141,0.04157
3366.32124,0.04156
3364.26107,0.04148
3362.20089,0.04152
3360.14072,0.04157
3358.08055,0.04154
3356.02038,0.04160
3353.96021,0.04182
3351.90003,0.04204
3349.83986,0.04204
3347.77969,0.04187
3345.71952,0.04170
3343.65935,0.04169
3341.59917,0.04198
3339.53900,0.04237
3337.47883,0.04250
3335.41866,0.04233
3333.35849,0.04217
3331.29831,0.04234
3329.23814,0.04266
3327.17797,0.04252
3325.11780,0.04200
3323.05762,0.04190
3320.99745,0.04227
3318.93728,0.04252
3316.87711,0.04260
3314.81694,0.04266
3312.75676,0.04256
3310.69659,0.04243
3308.63642,0.04246
3306.57625,0.04256
3304.51608,0.04266
3302.45590,0.04275
3300.39573,0.04276
3298.33556,0.04274
3296.27539,0.04282
3294.21521,0.04296
3292.15504,0.04294
3290.09487,0.04288
3288.03470,0.04292
3285.97453,0.04287
3283.91435,0.04278
3281.85418,0.04286
3279.79401,0.04305
3277.73384,0.04326
3275.67367,0.04343
3273.61349,0.04332
3271.55332,0.04304
3269.49315,0.04292
3267.43298,0.04288
3265.37281,0.04287
3263.31263,0.04301
3261.25246,0.04314
3259.19229,0.04315
3257.13212,0.04309
3255.07194,0.04300
3253.01177,0.04298
3250.95160,0.04310
3248.89143,0.04332
3246.83126,0.04349
3244.77108,0.04350
3242.71091,0.04338
3240.65074,0.04318
3238.59057,0.04297
3236.53040,0.04283
3234.47022,0.04283
3232.41005,0.04295
3230.34988,0.04302
3228.28971,0.04293
3226.22954,0.04284
3224.16936,0.04278
3222.10919,0.04250
3220.04902,0.04203
3217.98885,0.04183
3215.92867,0.04201
3213.86850,0.04227
3211.80833,0.04238
3209.74816,0.04227
3207.68799,0.04205
3205.62781,0.04179
3203.56764,0.04159
3201.50747,0.04161
3199.44730,0.04176
3197.38713,0.04168
3195.32695,0.04136
3193.26678,0.04115
3191.20661,0.04121
3189.14644,0.04130
3187.08626,0.04125
3185.02609,0.04108
3182.96592,0.04080
3180.90575,0.04047
3178.84558,0.04031
3176.78540,0.04037
3174.72523,0.04039
3172.66506,0.04023
3170.60489,0.04009
3168.54472,0.04008
3166.48454,0.04004
3164.42437,0.03989
3162.36420,0.03968
3160.30403,0.03948
3158.24386,0.03941
3156.18368,0.03938
3154.12351,0.03931
3152.06334,0.03929
3150.00317,0.03919
3147.94299,0.03884
3145.88282,0.03849
3143.82265,0.03830
3141.76248,0.03815
3139.70231,0.03796
3137.64213,0.03778
3135.58196,0.03765
3133.52179,0.03753
3131.46162,0.03737
3129.40145,0.03725
3127.34127,0.03712
3125.28110,0.03696
3123.22093,0.03682
3121.16076,0.03661
3119.10058,0.03632
3117.04041,0.03614
3114.98024,0.03621
3112.92007,0.03638
3110.85990,0.03638
3108.79972,0.03614
3106.73955,0.03578
3104.67938,0.03538
3102.61921,0.03494
3100.55904,0.03467
3098.49886,0.03461
3096.43869,0.03458
3094.37852,0.03452
3092.31835,0.03453
3090.25818,0.03449
3088.19800,0.03427
3086.13783,0.03398
3084.07766,0.03371
3082.01749,0.03338
3079.95731,0.03314
3077.89714,0.03311
3075.83697,0.03314
3073.77680,0.03314
3071.71663,0.03311
3069.65645,0.03298
3067.59628,0.03268
3065.53611,0.03234
3063.47594,0.03206
3061.41577,0.03186
3059.35559,0.03165
3057.29542,0.03135
3055.23525,0.03123
3053.17508,0.03130
3051.11491,0.03112
3049.05473,0.03075
3046.99456,0.03042
3044.93439,0.03011
3042.87422,0.02995
3040.81404,0.02982
3038.75387,0.02962
3036.69370,0.02944
3034.63353,0.02928
3032.57336,0.02922
3030.51318,0.02918
3028.45301,0.02898
3026.39284,0.02880
3024.33267,0.02864
3022.27250,0.02838
3020.21232,0.02813
3018.15215,0.02799
3016.09198,0.02780
3014.03181,0.02757
3011.97163,0.02743
3009.91146,0.02733
3007.85129,0.02712
3005.79112,0.02679
3003.73095,0.02651
3001.67077,0.02626
2999.61060,0.02595
2997.55043,0.02582
2995.49026,0.02603
2993.43009,0.02620
2991.36991,0.02623
2989.30974,0.02619
2987.24957,0.02601
2985.18940,0.02570
2983.12923,0.02539
2981.06905,0.02526
2979.00888,0.02537
2976.94871,0.02553
2974.88854,0.02544
2972.82836,0.02524
2970.76819,0.02523
2968.70802,0.02538
2966.64785,0.02551
2964.58768,0.02552
2962.52750,0.02541
2960.46733,0.02532
2958.40716,0.02526
2956.34699,0.02525
2954.28682,0.02529
2952.22664,0.02525
2950.16647,0.02515
2948.10630,0.02518
2946.04613,0.02523
2943.98596,0.02525
2941.92578,0.02541
2939.86561,0.02563
2937.80544,0.02569
2935.74527,0.02566
2933.68509,0.02562
2931.62492,0.02548
2929.56475,0.02542
2927.50458,0.02547
2925.44441,0.02551
2923.38423,0.02540
2921.32406,0.02513
2919.26389,0.02499
2917.20372,0.02495
2915.14355,0.02468
2913.08337,0.02424
2911.02320,0.02390
2908.96303,0.02370
2906.90286,0.02363
2904.84268,0.02359
2902.78251,0.02357
2900.72234,0.02357
2898.66217,0.02351
2896.60200,0.02344
2894.54182,0.02335
2892.48165,0.02315
2890.42148,0.02293
2888.36131,0.02288
2886.30114,0.02301
2884.24096,0.02310
2882.18079,0.02300
2880.12062,0.02280
2878.06045,0.02269
2876.00028,0.02272
2873.94010,0.02271
2871.87993,0.02244
2869.81976,0.02208
2867.75959,0.02181
2865.69941,0.02159
2863.63924,0.02145
2861.57907,0.02123
2859.51890,0.02103
2857.45873,0.02103
2855.39855,0.02115
2853.33838,0.02127
2851.27821,0.02131
2849.21804,0.02119
2847.15787,0.02095
2845.09769,0.02063
2843.03752,0.02049
2840.97735,0.02052
2838.91718,0.02042
2836.85700,0.02021
2834.79683,0.01990
2832.73666,0.01960
2830.67649,0.01948
2828.61632,0.01942
2826.55614,0.01929
2824.49597,0.01903
2822.43580,0.01877
2820.37563,0.01881
2818.31546,0.01903
2816.25528,0.01901
2814.19511,0.01878
2812.13494,0.01859
2810.07477,0.01849
2808.01460,0.01841
2805.95442,0.01835
2803.89425,0.01824
2801.83408,0.01807
2799.77391,0.01799
2797.71373,0.01805
2795.65356,0.01806
2793.59339,0.01789
2791.53322,0.01770
2789.47305,0.01760
2787.41287,0.01747
2785.35270,0.01728
2783.29253,0.01723
2781.23236,0.01733
2779.17219,0.01736
2777.11201,0.01726
2775.05184,0.01714
2772.99167,0.01699
2770.93150,0.01679
2768.87133,0.01653
2766.81115,0.01633
2764.75098,0.01638
2762.69081,0.01649
2760.63064,0.01640
2758.57046,0.01620
2756.51029,0.01609
2754.45012,0.01604
2752.38995,0.01605
2750.32978,0.01605
2748.26960,0.01596
2746.20943,0.01587
2744.14926,0.01588
2742.08909,0.01586
2740.02892,0.01575
2737.96874,0.01568
2735.90857,0.01565
2733.84840,0.01557
2731.78823,0.01544
2729.72805,0.01526
2727.66788,0.01508
2725.60771,0.01495
2723.54754,0.01504
2721.48737,0.01521
2719.42719,0.01514
2717.36702,0.01488
2715.30685,0.01468
2713.24668,0.01463
2711.18651,0.01471
2709.12633,0.01473
2707.06616,0.01463
2705.00599,0.01455
2702.94582,0.01446
2700.88565,0.01427
2698.82547,0.01409
2696.76530,0.01392
2694.70513,0.01379
2692.64496,0.01382
2690.58478,0.01384
2688.52461,0.01379
2686.46444,0.01372
2684.40427,0.01359
2682.34410,0.01343
2680.28392,0.01334
2678.22375,0.01328
2676.16358,0.01317
2674.10341,0.01302
2672.04324,0.01291
2669.98306,0.01268
2667.92289,0.01240
2665.86272,0.01241
2663.80255,0.01270
2661.74238,0.01280
2659.68220,0.01266
2657.62203,0.01247
2655.56186,0.01238
2653.50169,0.01241
2651.44151,0.01234
2649.38134,0.01217
2647.32117,0.01212
2645.26100,0.01209
2643.20083,0.01201
2641.14065,0.01192
2639.08048,0.01175
2637.02031,0.01158
2634.96014,0.01150
2632.89997,0.01144
2630.83979,0.01132
2628.77962,0.01116
2626.71945,0.01101
2624.65928,0.01087
2622.59910,0.01073
2620.53893,0.01063
2618.47876,0.01070
2616.41859,0.01091
2614.35842,0.01085
2612.29824,0.01054
2610.23807,0.01038
2608.17790,0.01025
2606.11773,0.01000
2604.05756,0.00987
2601.99738,0.00989
2599.93721,0.00983
2597.87704,0.00962
2595.81687,0.00938
2593.75670,0.00924
2591.69652,0.00944
2589.63635,0.00977
2587.57618,0.00981
2585.51601,0.00983
2583.45583,0.00992
2581.39566,0.00972
2579.33549,0.00935
2577.27532,0.00907
2575.21515,0.00878
2573.15497,0.00871
2571.09480,0.00913
2569.03463,0.00954
2566.97446,0.00951
2564.91429,0.00915
2562.85411,0.00873
2560.79394,0.00858
2558.73377,0.00873
2556.67360,0.00878
2554.61342,0.00861
2552.55325,0.00851
2550.49308,0.00860
2548.43291,0.00867
2546.37274,0.00862
2544.31256,0.00873
2542.25239,0.00899
2540.19222,0.00907
2538.13205,0.00891
2536.07188,0.00879
2534.01170,0.00895
2531.95153,0.00927
2529.89136,0.00935
2527.83119,0.00915
2525.77102,0.00888
2523.71084,0.00875
2521.65067,0.00883
2519.59050,0.00883
2517.53033,0.00860
2515.47015,0.00835
2513.40998,0.00826
2511.34981,0.00836
2509.28964,0.00843
2507.22947,0.00835
2505.16929,0.00837
2503.10912,0.00855
2501.04895,0.00869
2498.98878,0.00882
2496.92861,0.00891
2494.86843,0.00880
2492.80826,0.00862
2490.74809,0.00862
2488.68792,0.00873
2486.62775,0.00885
2484.56757,0.00888
2482.50740,0.00893
2480.44723,0.00910
2478.38706,0.00910
2476.32688,0.00906
2474.26671,0.00915
2472.20654,0.00917
2470.14637,0.00909
2468.08620,0.00898
2466.02602,0.00898
2463.96585,0.00922
2461.90568,0.00947
2459.84551,0.00939
2457.78534,0.00929
2455.72516,0.00940
2453.66499,0.00938
2451.60482,0.00920
2449.54465,0.00920
2447.48447,0.00941
2445.42430,0.00946
2443.36413,0.00913
2441.30396,0.00875
2439.24379,0.00858
2437.18361,0.00881
2435.12344,0.00916
2433.06327,0.00924
2431.00310,0.00935
2428.94293,0.00949
2426.88275,0.00923
2424.82258,0.00884
2422.76241,0.00876
2420.70224,0.00889
2418.64207,0.00900
2416.58189,0.00902
2414.52172,0.00880
2412.46155,0.00854
2410.40138,0.00862
2408.34120,0.00895
2406.28103,0.00912
2404.22086,0.00903
2402.16069,0.00896
2400.10052,0.00899
2398.04034,0.00884
2395.98017,0.00865
2393.92000,0.00857
2391.85983,0.00851
2389.79966,0.00847
2387.73948,0.00857
2385.67931,0.00871
2383.61914,0.00860
2381.55897,0.00826
2379.49880,0.00799
2377.43862,0.00805
2375.37845,0.00859
2373.31828,0.00922
2371.25811,0.00906
2369.19793,0.00738
2367.13776,0.00489
2365.07759,0.00372
2363.01742,0.00376
2360.95725,0.00315
2358.89707,0.00327
2356.83690,0.00524
2354.77673,0.00704
2352.71656,0.00751
2350.65639,0.00731
2348.59621,0.00722
2346.53604,0.00721
2344.47587,0.00697
2342.41570,0.00682
2340.35552,0.00734
2338.29535,0.00829
2336.23518,0.00864
2334.17501,0.00784
2332.11484,0.00653
2330.05466,0.00612
2327.99449,0.00700
2325.93432,0.00800
2323.87415,0.00812
2321.81398,0.00779
2319.75380,0.00791
2317.69363,0.00852
2315.63346,0.00891
2313.57329,0.00867
2311.51312,0.00814
2309.45294,0.00782
2307.39277,0.00792
2305.33260,0.00826
2303.27243,0.00857
2301.21225,0.00871
2299.15208,0.00859
2297.09191,0.00829
2295.03174,0.00813
2292.97157,0.00800
2290.91139,0.00760
2288.85122,0.00724
2286.79105,0.00740
2284.73088,0.00791
2282.67071,0.00825
2280.61053,0.00818
2278.55036,0.00799
2276.49019,0.00792
2274.43002,0.00776
2272.36984,0.00767
2270.30967,0.00793
2268.24950,0.00795
2266.18933,0.00752
2264.12916,0.00721
2262.06898,0.00706
2260.00881,0.00677
2257.94864,0.00664
2255.88847,0.00686
2253.82830,0.00718
2251.76812,0.00717
2249.70795,0.00693
2247.64778,0.00709
2245.58761,0.00732
2243.52744,0.00713
2241.46726,0.00717
2239.40709,0.00745
2237.34692,0.00738
2235.28675,0.00708
2233.22657,0.00665
2231.16640,0.00624
2229.10623,0.00618
2227.04606,0.00646
2224.98589,0.00671
2222.92571,0.00651
2220.86554,0.00616
2218.80537,0.00606
2216.74520,0.00603
2214.68503,0.00618
2212.62485,0.00648
2210.56468,0.00646
2208.50451,0.00622
2206.44434,0.00586
2204.38417,0.00564
2202.32399,0.00554
2200.26382,0.00501
2198.20365,0.00482
2196.14348,0.00560
2194.08330,0.00628
2192.02313,0.00627
2189.96296,0.00609
2187.90279,0.00624
2185.84262,0.00660
2183.78244,0.00634
2181.72227,0.00551
2179.66210,0.00525
2177.60193,0.00591
2175.54176,0.00665
2173.48158,0.00673
2171.42141,0.00589
2169.36124,0.00442
2167.30107,0.00389
2165.24089,0.00526
2163.18072,0.00591
2161.12055,0.00413
2159.06038,0.00306
2157.00021,0.00383
2154.94003,0.00401
2152.87986,0.00342
2150.81969,0.00315
2148.75952,0.00326
2146.69935,0.00365
2144.63917,0.00424
2142.57900,0.00490
2140.51883,0.00561
2138.45866,0.00549
2136.39849,0.00437
2134.33831,0.00365
2132.27814,0.00368
2130.21797,0.00377
2128.15780,0.00396
2126.09762,0.00439
2124.03745,0.00454
2121.97728,0.00432
2119.91711,0.00452
2117.85694,0.00506
2115.79676,0.00495
2113.73659,0.00435
2111.67642,0.00428
2109.61625,0.00478
2107.55608,0.00530
2105.49590,0.00557
2103.43573,0.00535
2101.37556,0.00492
2099.31539,0.00472
2097.25521,0.00472
2095.19504,0.00490
2093.13487,0.00513
2091.07470,0.00515
2089.01453,0.00522
2086.95435,0.00541
2084.89418,0.00531
2082.83401,0.00508
2080.77384,0.00487
2078.71367,0.00423
2076.65349,0.00373
2074.59332,0.00419
2072.53315,0.00498
2070.47298,0.00529
2068.41281,0.00507
2066.35263,0.00450
2064.29246,0.00396
2062.23229,0.00389
2060.17212,0.00396
2058.11194,0.00357
2056.05177,0.00322
2053.99160,0.00373
2051.93143,0.00445
2049.87126,0.00444
2047.81108,0.00397
2045.75091,0.00353
2043.69074,0.00321
2041.63057,0.00295
2039.57040,0.00264
2037.51022,0.00249
2035.45005,0.00249
2033.38988,0.00236
2031.32971,0.00193
2029.26954,0.00127
2027.20936,0.00071
2025.14919,0.00051
2023.08902,0.00117
2021.02885,0.00257
2018.96867,0.00349
2016.90850,0.00378
2014.84833,0.00408
2012.78816,0.00454
2010.72799,0.00467
2008.66781,0.00389
2006.60764,0.00270
2004.54747,0.00181
2002.48730,0.00139
2000.42713,0.00170
1998.36695,0.00236
1996.30678,0.00287
1994.24661,0.00313
1992.18644,0.00307
1990.12626,0.00308
1988.06609,0.00344
1986.00592,0.00367
1983.94575,0.00339
1981.88558,0.00281
1979.82540,0.00202
1977.76523,0.00139
1975.70506,0.00174
1973.64489,0.00232
1971.58472,0.00193
1969.52454,0.00107
1967.46437,0.00057
1965.40420,0.00079
1963.34403,0.00166
1961.28386,0.00222
1959.22368,0.00205
1957.16351,0.00168
1955.10334,0.00127
1953.04317,0.00113
1950.98299,0.00157
1948.92282,0.00192
1946.86265,0.00203
1944.80248,0.00250
1942.74231,0.00289
1940.68213,0.00260
1938.62196,0.00186
1936.56179,0.00115
1934.50162,0.00113
1932.44145,0.00205
1930.38127,0.00280
1928.32110,0.00254
1926.26093,0.00195
1924.20076,0.00188
1922.14059,0.00220
1920.08041,0.00227
1918.02024,0.00193
1915.96007,0.00161
1913.89990,0.00165
1911.83972,0.00193
1909.77955,0.00216
1907.71938,0.00221
1905.65921,0.00213
1903.59904,0.00214
1901.53886,0.00239
1899.47869,0.00258
1897.41852,0.00238
1895.35835,0.00208
1893.29818,0.00206
1891.23800,0.00237
1889.17783,0.00271
1887.11766,0.00266
1885.05749,0.00215
1882.99731,0.00163
1880.93714,0.00158
1878.87697,0.00187
1876.81680,0.00203
1874.75663,0.00198
1872.69645,0.00201
1870.63628,0.00212
1868.57611,0.00201
1866.51594,0.00179
1864.45577,0.00189
1862.39559,0.00219
1860.33542,0.00227
1858.27525,0.00197
1856.21508,0.00160
1854.15491,0.00166
1852.09473,0.00213
1850.03456,0.00249
1847.97439,0.00245
1845.91422,0.00221
1843.85404,0.00206
1841.79387,0.00201
1839.73370,0.00202
1837.67353,0.00207
1835.61336,0.00220
1833.55318,0.00226
1831.49301,0.00209
1829.43284,0.00192
1827.37267,0.00214
1825.31250,0.00256
1823.25232,0.00269
1821.19215,0.00248
1819.13198,0.00226
1817.07181,0.00219
1815.01163,0.00216
1812.95146,0.00204
1810.89129,0.00198
1808.83112,0.00208
1806.77095,0.00222
1804.71077,0.00230
1802.65060,0.00230
1800.59043,0.00212
1798.53026,0.00185
1796.47009,0.00167
1794.40991,0.00165
1792.34974,0.00181
1790.28957,0.00221
1788.22940,0.00256
1786.16923,0.00251
1784.10905,0.00223
1782.04888,0.00217
1779.98871,0.00233
1777.92854,0.00250
1775.86836,0.00257
1773.80819,0.00256
1771.74802,0.00253
1769.68785,0.00257
1767.62768,0.00273
1765.56750,0.00292
1763.50733,0.00310
1761.44716,0.00322
1759.38699,0.00328
1757.32682,0.00331
1755.26664,0.00351
1753.20647,0.00396
1751.14630,0.00435
1749.08613,0.00441
1747.02596,0.00442
1744.96578,0.00456
1742.90561,0.00472
1740.84544,0.00487
1738.78527,0.00511
1736.72509,0.00534
1734.66492,0.00531
1732.60475,0.00518
1730.54458,0.00538
1728.48441,0.00570
1726.42423,0.00585
1724.36406,0.00590
1722.30389,0.00609
1720.24372,0.00646
1718.18355,0.00666
1716.12337,0.00649
1714.06320,0.00643
1712.00303,0.00664
1709.94286,0.00683
1707.88268,0.00688
1705.82251,0.00693
1703.76234,0.00718
1701.70217,0.00754
1699.64200,0.00779
1697.58182,0.00796
1695.52165,0.00828
1693.46148,0.00879
1691.40131,0.00925
1689.34114,0.00952
1687.28096,0.00982
1685.22079,0.01025
1683.16062,0.01077
1681.10045,0.01136
1679.04028,0.01200
1676.98010,0.01260
1674.91993,0.01300
1672.85976,0.01317
1670.79959,0.01334
1668.73941,0.01366
1666.67924,0.01417
1664.61907,0.01474
1662.55890,0.01521
1660.49873,0.01561
1658.43855,0.01611
1656.37838,0.01656
1654.31821,0.01667
1652.25804,0.01653
1650.19787,0.01665
1648.13769,0.01680
1646.07752,0.01685
1644.01735,0.01707
1641.95718,0.01735
1639.89701,0.01750
1637.83683,0.01733
1635.77666,0.01683
1633.71649,0.01662
1631.65632,0.01690
1629.59614,0.01714
1627.53597,0.01707
1625.47580,0.01694
1623.41563,0.01697
1621.35546,0.01713
1619.29528,0.01715
1617.23511,0.01682
1615.17494,0.01642
1613.11477,0.01634
1611.05460,0.01636
1608.99442,0.01627
1606.93425,0.01610
1604.87408,0.01587
1602.81391,0.01560
1600.75373,0.01539
1598.69356,0.01520
1596.63339,0.01489
1594.57322,0.01444
1592.51305,0.01399
1590.45287,0.01352
1588.39270,0.01292
1586.33253,0.01231
1584.27236,0.01185
1582.21219,0.01152
1580.15201,0.01123
1578.09184,0.01081
1576.03167,0.01008
1573.97150,0.00943
1571.91133,0.00910
1569.85115,0.00874
1567.79098,0.00831
1565.73081,0.00811
1563.67064,0.00808
1561.61046,0.00797
1559.55029,0.00727
1557.49012,0.00631
1555.42995,0.00612
1553.36978,0.00626
1551.30960,0.00625
1549.24943,0.00613
1547.18926,0.00603
1545.12909,0.00591
1543.06892,0.00566
1541.00874,0.00527
1538.94857,0.00490
1536.88840,0.00481
1534.82823,0.00481
1532.76805,0.00466
1530.70788,0.00455
1528.64771,0.00451
1526.58754,0.00437
1524.52737,0.00410
1522.46719,0.00385
1520.40702,0.00375
1518.34685,0.00364
1516.28668,0.00333
1514.22651,0.00306
1512.16633,0.00296
1510.10616,0.00273
1508.04599,0.00232
1505.98582,0.00229
1503.92565,0.00269
1501.86547,0.00290
1499.80530,0.00285
1497.74513,0.00273
1495.68496,0.00268
1493.62478,0.00277
1491.56461,0.00287
1489.50444,0.00282
1487.44427,0.00275
1485.38410,0.00288
1483.32392,0.00310
1481.26375,0.00327
1479.20358,0.00336
1477.14341,0.00343
1475.08324,0.00349
1473.02306,0.00366
1470.96289,0.00402
1468.90272,0.00443
1466.84255,0.00468
1464.78238,0.00476
1462.72220,0.00498
1460.66203,0.00532
1458.60186,0.00544
1456.54169,0.00536
1454.48151,0.00551
1452.42134,0.00574
1450.36117,0.00580
1448.30100,0.00573
1446.24083,0.00569
1444.18065,0.00573
1442.12048,0.00580
1440.06031,0.00590
1438.00014,0.00595
1435.93997,0.00591
1433.87979,0.00594
1431.81962,0.00616
1429.75945,0.00649
1427.69928,0.00679
1425.63910,0.00700
1423.57893,0.00718
1421.51876,0.00736
1419.45859,0.00745
1417.39842,0.00751
1415.33824,0.00762
1413.27807,0.00762
1411.21790,0.00746
1409.15773,0.00741
1407.09756,0.00744
1405.03738,0.00734
1402.97721,0.00716
1400.91704,0.00693
1398.85687,0.00651
1396.79670,0.00602
1394.73652,0.00579
1392.67635,0.00595
1390.61618,0.00623
1388.55601,0.00634
1386.49583,0.00627
1384.43566,0.00624
1382.37549,0.00635
1380.31532,0.00650
1378.25515,0.00653
1376.19497,0.00641
1374.13480,0.00621
1372.07463,0.00608
1370.01446,0.00609
1367.95429,0.00615
1365.89411,0.00613
1363.83394,0.00590
1361.77377,0.00557
1359.71360,0.00536
1357.65343,0.00531
1355.59325,0.00524
1353.53308,0.00501
1351.47291,0.00472
1349.41274,0.00454
1347.35256,0.00452
1345.29239,0.00459
1343.23222,0.00465
1341.17205,0.00456
1339.11188,0.00432
1337.05170,0.00416
1334.99153,0.00421
1332.93136,0.00431
1330.87119,0.00432
1328.81102,0.00430
1326.75084,0.00431
1324.69067,0.00427
1322.63050,0.00421
1320.57033,0.00417
1318.51015,0.00417
1316.44998,0.00424
1314.38981,0.00426
1312.32964,0.00407
1310.26947,0.00388
1308.20929,0.00387
1306.14912,0.00388
1304.08895,0.00380
1302.02878,0.00379
1299.96861,0.00383
1297.90843,0.00384
1295.84826,0.00387
1293.78809,0.00395
1291.72792,0.00397
1289.66775,0.00393
1287.60757,0.00386
1285.54740,0.00379
1283.48723,0.00385
1281.42706,0.00405
1279.36688,0.00424
1277.30671,0.00440
1275.24654,0.00455
1273.18637,0.00463
1271.12620,0.00458
1269.06602,0.00450
1267.00585,0.00451
1264.94568,0.00457
1262.88551,0.00463
1260.82534,0.00470
1258.76516,0.00479
1256.70499,0.00486
1254.64482,0.00495
1252.58465,0.00495
1250.52447,0.00479
1248.46430,0.00466
1246.40413,0.00459
1244.34396,0.00449
1242.28379,0.00436
1240.22361,0.00422
1238.16344,0.00404
1236.10327,0.00385
1234.04310,0.00374
1231.98293,0.00370
1229.92275,0.00362
1227.86258,0.00343
1225.80241,0.00317
1223.74224,0.00282
1221.68207,0.00246
1219.62189,0.00219
1217.56172,0.00191
1215.50155,0.00166
1213.44138,0.00156
1211.38120,0.00148
1209.32103,0.00131
1207.26086,0.00115
1205.20069,0.00102
1203.14052,0.00091
1201.08034,0.00088
1199.02017,0.00080
1196.96000,0.00072
1194.89983,0.00076
1192.83966,0.00092
1190.77948,0.00107
1188.71931,0.00113
1186.65914,0.00127
1184.59897,0.00164
1182.53880,0.00210
1180.47862,0.00261
1178.41845,0.00326
1176.35828,0.00395
1174.29811,0.00463
1172.23793,0.00533
1170.17776,0.00596
1168.11759,0.00652
1166.05742,0.00713
1163.99725,0.00781
1161.93707,0.00841
1159.87690,0.00892
1157.81673,0.00944
1155.75656,0.01004
1153.69639,0.01068
1151.63621,0.01129
1149.57604,0.01188
1147.51587,0.01251
1145.45570,0.01309
1143.39552,0.01366
1141.33535,0.01432
1139.27518,0.01495
1137.21501,0.01548
1135.15484,0.01605
1133.09466,0.01682
1131.03449,0.01769
1128.97432,0.01845
1126.91415,0.01912
1124.85398,0.01987
1122.79380,0.02066
1120.73363,0.02136
1118.67346,0.02202
1116.61329,0.02277
1114.55312,0.02369
1112.49294,0.02461
1110.43277,0.02549
1108.37260,0.02647
1106.31243,0.02748
1104.25225,0.02848
1102.19208,0.02948
1100.13191,0.03057
1098.07174,0.03169
1096.01157,0.03253
1093.95139,0.03318
1091.89122,0.03401
1089.83105,0.03503
1087.77088,0.03595
1085.71071,0.03678
1083.65053,0.03767
1081.59036,0.03862
1079.53019,0.03957
1077.47002,0.04044
1075.40985,0.04107
1073.34967,0.04152
1071.28950,0.04191
1069.22933,0.04228
1067.16916,0.04262
1065.10898,0.04287
1063.04881,0.04304
1060.98864,0.04321
1058.92847,0.04317
1056.86830,0.04281
1054.80812,0.04250
1052.74795,0.04238
1050.68778,0.04219
1048.62761,0.04183
1046.56744,0.04134
1044.50726,0.04083
1042.44709,0.04037
1040.38692,0.03985
1038.32675,0.03924
1036.26657,0.03866
1034.20640,0.03807
1032.14623,0.03735
1030.08606,0.03648
1028.02589,0.03567
1025.96571,0.03507
1023.90554,0.03454
1021.84537,0.03387
1019.78520,0.03302
1017.72503,0.03218
1015.66485,0.03143
1013.60468,0.03077
1011.54451,0.03017
1009.48434,0.02953
1007.42417,0.02882
1005.36399,0.02807
1003.30382,0.02745
1001.24365,0.02725
999.18348,0.02746
997.12330,0.02781
995.06313,0.02816
993.00296,0.02855
990.94279,0.02890
988.88262,0.02924
986.82244,0.02959
984.76227,0.02974
982.70210,0.02956
980.64193,0.02910
978.58176,0.02835
976.52158,0.02739
974.46141,0.02636
972.40124,0.02528
970.34107,0.02403
968.28089,0.02262
966.22072,0.02140
964.16055,0.02045
962.10038,0.01945
960.04021,0.01831
957.98003,0.01721
955.91986,0.01622
953.85969,0.01535
951.79952,0.01462
949.73935,0.01396
947.67917,0.01339
945.61900,0.01301
943.55883,0.01268
941.49866,0.01231
939.43849,0.01197
937.37831,0.01158
935.31814,0.01107
933.25797,0.01065
931.19780,0.01040
929.13762,0.01023
927.07745,0.01003
925.01728,0.00974
922.95711,0.00956
920.89694,0.00947
918.83676,0.00907
916.77659,0.00831
914.71642,0.00759
912.65625,0.00711
910.59608,0.00693
908.53590,0.00700
906.47573,0.00694
904.41556,0.00674
902.35539,0.00665
900.29522,0.00665
898.23504,0.00664
896.17487,0.00658
894.11470,0.00649
892.05453,0.00657
889.99435,0.00683
887.93418,0.00706
885.87401,0.00722
883.81384,0.00738
881.75367,0.00766
879.69349,0.00808
877.63332,0.00842
875.57315,0.00862
873.51298,0.00903
871.45281,0.00934
869.39263,0.00901
867.33246,0.00872
865.27229,0.00891
863.21212,0.00923
861.15194,0.00932
859.09177,0.00907
857.03160,0.00889
854.97143,0.00906
852.91126,0.00911
850.85108,0.00875
848.79091,0.00827
846.73074,0.00791
844.67057,0.00766
842.61040,0.00756
840.55022,0.00749
838.49005,0.00725
836.42988,0.00701
834.36971,0.00686
832.30954,0.00652
830.24936,0.00620
828.18919,0.00595
826.12902,0.00547
824.06885,0.00497
822.00867,0.00468
819.94850,0.00454
817.88833,0.00445
815.82816,0.00436
813.76799,0.00420
811.70781,0.00412
809.64764,0.00411
807.58747,0.00396
805.52730,0.00381
803.46713,0.00380
801.40695,0.00361
799.34678,0.00319
797.28661,0.00301
795.22644,0.00306
793.16627,0.00312
791.10609,0.00308
789.04592,0.00288
786.98575,0.00261
784.92558,0.00242
782.86540,0.00244
780.80523,0.00277
778.74506,0.00304
776.68489,0.00295
774.62472,0.00260
772.56454,0.00231
770.50437,0.00240
768.44420,0.00262
766.38403,0.00276
764.32386,0.00298
762.26368,0.00308
760.20351,0.00298
758.14334,0.00270
756.08317,0.00183
754.02299,0.00104
751.96282,0.00108
749.90265,0.00128
747.84248,0.00110
745.78231,0.00084
743.72213,0.00095
741.66196,0.00143
739.60179,0.00186
737.54162,0.00174
735.48145,0.00135
733.42127,0.00131
731.36110,0.00153
729.30093,0.00159
727.24076,0.00136
725.18059,0.00129
723.12041,0.00171
721.06024,0.00224
719.00007,0.00234
716.93990,0.00196
714.87972,0.00158
712.81955,0.00153
710.75938,0.00172
708.69921,0.00194
706.63904,0.00213
704.57886,0.00251
702.51869,0.00323
700.45852,0.00355
698.39835,0.00279
696.33818,0.00154
694.27800,0.00085
692.21783,0.00076
690.15766,0.00095
688.09749,0.00134
686.03731,0.00170
683.97714,0.00157
681.91697,0.00091
679.85680,0.00039
677.79663,0.00072
675.73645,0.00181
673.67628,0.00287
671.61611,0.00320
669.55594,0.00294
667.49577,0.00282
665.43559,0.00274
663.37542,0.00236
661.31525,0.00185
659.25508,0.00151
657.19491,0.00138
655.13473,0.00130
653.07456,0.00137
651.01439,0.00186
648.95422,0.00278
646.89404,0.00362
644.83387,0.00374
642.77370,0.00307
640.71353,0.00217
638.65336,0.00167
636.59318,0.00144
634.53301,0.00087
632.47284,0.00084
630.41267,0.00231
628.35250,0.00342
626.29232,0.00240
624.23215,0.00164
622.17198,0.00155
620.11181,0.00083
618.05164,0.00038
615.99146,0.00078
613.93129,0.00117
611.87112,0.00133
609.81095,0.00197
607.75077,0.00234
605.69060,0.00122
603.63043,0.00009
601.57026,0.00000
599.51009,0.00000
