3996.73391,0.00156
3994.67373,0.00178
3992.61356,0.00162
3990.55339,0.00106
3988.49322,0.00068
3986.43305,0.00078
3984.37287,0.00081
3982.31270,0.00065
3980.25253,0.00073
3978.19236,0.00084
3976.13219,0.00082
3974.07201,0.00088
3972.01184,0.00106
3969.95167,0.00133
3967.89150,0.00159
3965.83133,0.00168
3963.77115,0.00166
3961.71098,0.00155
3959.65081,0.00136
3957.59064,0.00127
3955.53046,0.00129
3953.47029,0.00114
3951.41012,0.00062
3949.34995,0.00008
3947.28978,0.00000
3945.22960,0.00028
3943.16943,0.00048
3941.10926,0.00068
3939.04909,0.00115
3936.98892,0.00149
3934.92874,0.00113
3932.86857,0.00041
3930.80840,0.00026
3928.74823,0.00091
3926.68805,0.00162
3924.62788,0.00190
3922.56771,0.00187
3920.50754,0.00177
3918.44737,0.00160
3916.38719,0.00144
3914.32702,0.00153
3912.26685,0.00153
3910.20668,0.00101
3908.14651,0.00033
3906.08633,0.00000
3904.02616,0.00001
3901.96599,0.00028
3899.90582,0.00076
3897.84565,0.00116
3895.78547,0.00137
3893.72530,0.00139
3891.66513,0.00124
3889.60496,0.00108
3887.54478,0.00108
3885.48461,0.00139
3883.42444,0.00177
3881.36427,0.00162
3879.30410,0.00112
3877.24392,0.00108
3875.18375,0.00147
3873.12358,0.00173
3871.06341,0.00177
3869.00324,0.00184
3866.94306,0.00189
3864.88289,0.00193
3862.82272,0.00210
3860.76255,0.00208
3858.70237,0.00148
3856.64220,0.00080
3854.58203,0.00079
3852.52186,0.00139
3850.46169,0.00170
3848.40151,0.00158
3846.34134,0.00129
3844.28117,0.00107
3842.22100,0.00113
3840.16083,0.00169
3838.10065,0.00254
3836.04048,0.00280
3833.98031,0.00241
3831.92014,0.00218
3829.85997,0.00215
3827.79979,0.00193
3825.73962,0.00163
3823.67945,0.00136
3821.61928,0.00106
3819.55910,0.00105
3817.49893,0.00143
3815.43876,0.00187
3813.37859,0.00211
3811.31842,0.00213
3809.25824,0.00193
3807.19807,0.00158
3805.13790,0.00124
3803.07773,0.00092
3801.01756,0.00076
3798.95738,0.00106
3796.89721,0.00175
3794.83704,0.00230
3792.77687,0.00213
3790.71670,0.00161
3788.65652,0.00144
3786.59635,0.00161
3784.53618,0.00186
3782.47601,0.00201
3780.41583,0.00205
3778.35566,0.00210
3776.29549,0.00211
3774.23532,0.00220
3772.17515,0.00236
3770.11497,0.00251
3768.05480,0.00272
3765.99463,0.00293
3763.93446,0.00290
3761.87429,0.00254
3759.81411,0.00204
3757.75394,0.00161
3755.69377,0.00111
3753.63360,0.00059
3751.57342,0.00080
3749.51325,0.00159
3747.45308,0.00182
3745.39291,0.00196
3743.33274,0.00239
3741.27256,0.00239
3739.21239,0.00197
3737.15222,0.00139
3735.09205,0.00081
3733.03188,0.00081
3730.97170,0.00133
3728.91153,0.00176
3726.85136,0.00181
3724.79119,0.00157
3722.73102,0.00150
3720.67084,0.00183
3718.61067,0.00219
3716.55050,0.00237
3714.49033,0.00236
3712.43015,0.00216
3710.36998,0.00176
3708.30981,0.00143
3706.24964,0.00165
3704.18947,0.00231
3702.12929,0.00288
3700.06912,0.00286
3698.00895,0.00246
3695.94878,0.00203
3693.88861,0.00157
3691.82843,0.00137
3689.76826,0.00196
3687.70809,0.00290
3685.64792,0.00334
3683.58775,0.00321
3681.52757,0.00271
3679.46740,0.00231
3677.40723,0.00255
3675.34706,0.00331
3673.28688,0.00369
3671.22671,0.00343
3669.16654,0.00307
3667.10637,0.00290
3665.04620,0.00288
3662.98602,0.00294
3660.92585,0.00300
3658.86568,0.00309
3656.80551,0.00340
3654.74534,0.00378
3652.68516,0.00365
3650.62499,0.00298
3648.56482,0.00268
3646.50465,0.00346
3644.44447,0.00446
3642.38430,0.00509
3640.32413,0.00536
3638.26396,0.00506
3636.20379,0.00447
3634.14361,0.00438
3632.08344,0.00495
3630.02327,0.00573
3627.96310,0.00619
3625.90293,0.00606
3623.84275,0.00558
3621.78258,0.00505
3619.72241,0.00478
3617.66224,0.00502
3615.60207,0.00570
3613.54189,0.00669
3611.48172,0.00752
3609.42155,0.00773
3607.36138,0.00768
3605.30120,0.00780
3603.24103,0.00795
3601.18086,0.00812
3599.12069,0.00844
3597.06052,0.00882
3595.00034,0.00901
3592.94017,0.00887
3590.88000,0.00854
3588.81983,0.00847
3586.75966,0.00874
3584.69948,0.00908
3582.63931,0.00945
3580.57914,0.00977
3578.51897,0.00991
3576.45879,0.01003
3574.39862,0.01036
3572.33845,0.01077
3570.27828,0.01078
3568.21811,0.01041
3566.15793,0.01035
3564.09776,0.01071
3562.03759,0.01113
3559.97742,0.01141
3557.91725,0.01139
3555.85707,0.01123
3553.79690,0.01128
3551.73673,0.01156
3549.67656,0.01180
3547.61639,0.01172
3545.55621,0.01157
3543.49604,0.01194
3541.43587,0.01274
3539.37570,0.01341
3537.31552,0.01377
3535.25535,0.01407
3533.19518,0.01429
3531.13501,0.01422
3529.07484,0.01400
3527.01466,0.01404
3524.95449,0.01435
3522.89432,0.01455
3520.83415,0.01468
3518.77398,0.01488
3516.71380,0.01497
3514.65363,0.01481
3512.59346,0.01456
3510.53329,0.01448
3508.47312,0.01467
3506.41294,0.01512
3504.35277,0.01558
3502.29260,0.01563
3500.23243,0.01537
3498.17225,0.01546
3496.11208,0.01592
3494.05191,0.01619
3491.99174,0.01617
3489.93157,0.01624
3487.87139,0.01669
3485.81122,0.01721
3483.75105,0.01735
3481.69088,0.01746
3479.63071,0.01791
3477.57053,0.01832
3475.51036,0.01837
3473.45019,0.01816
3471.39002,0.01764
3469.32984,0.01701
3467.26967,0.01698
3465.20950,0.01750
3463.14933,0.01787
3461.08916,0.01803
3459.02898,0.01830
3456.96881,0.01864
3454.90864,0.01873
3452.84847,0.01855
3450.78830,0.01856
3448.72812,0.01889
3446.66795,0.01904
3444.60778,0.01884
3442.54761,0.01892
3440.48744,0.01934
3438.42726,0.01957
3436.36709,0.01973
3434.30692,0.01987
3432.24675,0.01974
3430.18657,0.01962
3428.12640,0.01965
3426.06623,0.01955
3424.00606,0.01934
3421.94589,0.01940
3419.88571,0.01976
3417.82554,0.02003
3415.76537,0.02010
3413.70520,0.02026
3411.64503,0.02061
3409.58485,0.02081
3407.52468,0.02071
3405.46451,0.02075
3403.40434,0.02086
3401.34416,0.02084
3399.28399,0.02098
3397.22382,0.02125
3395.16365,0.02141
3393.10348,0.02123
3391.04330,0.02099
3388.98313,0.02096
3386.92296,0.02092
3384.86279,0.02092
3382.80262,0.02109
3380.74244,0.02115
3378.68227,0.02098
3376.62210,0.02098
3374.56193,0.02138
3372.50176,0.02183
3370.44158,0.02188
3368.38141,0.02153
3366.32124,0.02138
3364.26107,0.02169
3362.20089,0.02186
3360.14072,0.02168
3358.08055,0.02174
3356.02038,0.02205
3353.96021,0.02209
3351.90003,0.02189
3349.83986,0.02178
3347.77969,0.02168
3345.71952,0.02157
3343.65935,0.02166
3341.59917,0.02169
3339.53900,0.02145
3337.47883,0.02135
3335.41866,0.02163
3333.35849,0.02202
3331.29831,0.02229
3329.23814,0.02232
3327.17797,0.02222
3325.11780,0.02208
3323.05762,0.02190
3320.99745,0.02172
3318.93728,0.02180
3316.87711,0.02216
3314.81694,0.02228
3312.75676,0.02197
3310.69659,0.02168
3308.63642,0.02186
3306.57625,0.02223
3304.51608,0.02220
3302.45590,0.02185
3300.39573,0.02161
3298.33556,0.02157
3296.27539,0.02175
3294.21521,0.02207
3292.15504,0.02212
3290.09487,0.02181
3288.03470,0.02166
3285.97453,0.02181
3283.91435,0.02174
3281.85418,0.02142
3279.79401,0.02132
3277.73384,0.02160
3275.67367,0.02206
3273.61349,0.02228
3271.55332,0.02216
3269.49315,0.02189
3267.43298,0.02175
3265.37281,0.02180
3263.31263,0.02184
3261.25246,0.02176
3259.19229,0.02159
3257.13212,0.02138
3255.07194,0.02128
3253.01177,0.02132
3250.95160,0.02139
3248.89143,0.02142
3246.83126,0.02148
3244.77108,0.02162
3242.71091,0.02175
3240.65074,0.02168
3238.59057,0.02146
3236.53040,0.02142
3234.47022,0.02175
3232.41005,0.02218
3230.34988,0.02218
3228.28971,0.02170
3226.22954,0.02126
3224.16936,0.02102
3222.10919,0.02086
3220.04902,0.02095
3217.98885,0.02126
3215.92867,0.02141
3213.86850,0.02128
3211.80833,0.02124
3209.74816,0.02131
3207.68799,0.02121
3205.62781,0.02100
3203.56764,0.02087
3201.50747,0.02090
3199.44730,0.02103
3197.38713,0.02119
3195.32695,0.02118
3193.26678,0.02093
3191.20661,0.02076
3189.14644,0.02067
3187.08626,0.02047
3185.02609,0.02019
3182.96592,0.02000
3180.90575,0.01989
3178.84558,0.01987
3176.78540,0.02004
3174.72523,0.02028
3172.66506,0.02024
3170.60489,0.02004
3168.54472,0.02000
3166.48454,0.01985
3164.42437,0.01946
3162.36420,0.01933
3160.30403,0.01940
3158.24386,0.01941
3156.18368,0.01934
3154.12351,0.01916
3152.06334,0.01901
3150.00317,0.01911
3147.94299,0.01944
3145.88282,0.01976
3143.82265,0.01986
3141.76248,0.01981
3139.70231,0.01955
3137.64213,0.01917
3135.58196,0.01900
3133.52179,0.01886
3131.46162,0.01859
3129.40145,0.01846
3127.34127,0.01843
3125.28110,0.01833
3123.22093,0.01832
3121.16076,0.01844
3119.10058,0.01844
3117.04041,0.01825
3114.98024,0.01791
3112.92007,0.01757
3110.85990,0.01751
3108.79972,0.01762
3106.73955,0.01762
3104.67938,0.01765
3102.61921,0.01790
3100.55904,0.01810
3098.49886,0.01801
3096.43869,0.01785
3094.37852,0.01773
3092.31835,0.01769
3090.25818,0.01766
3088.19800,0.01730
3086.13783,0.01686
3084.07766,0.01683
3082.01749,0.01706
3079.95731,0.01715
3077.89714,0.01704
3075.83697,0.01690
3073.77680,0.01687
3071.71663,0.01696
3069.65645,0.01706
3067.59628,0.01707
3065.53611,0.01685
3063.47594,0.01645
3061.41577,0.01615
3059.35559,0.01603
3057.29542,0.01591
3055.23525,0.01573
3053.17508,0.01555
3051.11491,0.01553
3049.05473,0.01577
3046.99456,0.01600
3044.93439,0.01599
3042.87422,0.01578
3040.81404,0.01542
3038.75387,0.01515
3036.69370,0.01516
3034.63353,0.01528
3032.57336,0.01523
3030.51318,0.01506
3028.45301,0.01502
3026.39284,0.01501
3024.33267,0.01489
3022.27250,0.01479
3020.21232,0.01467
3018.15215,0.01461
3016.09198,0.01464
3014.03181,0.01460
3011.97163,0.01446
3009.91146,0.01432
3007.85129,0.01427
3005.79112,0.01426
3003.73095,0.01414
3001.67077,0.01394
2999.61060,0.01377
2997.55043,0.01368
2995.49026,0.01374
2993.43009,0.01399
2991.36991,0.01414
2989.30974,0.01405
2987.24957,0.01404
2985.18940,0.01417
2983.12923,0.01416
2981.06905,0.01399
2979.00888,0.01378
2976.94871,0.01359
2974.88854,0.01335
2972.82836,0.01320
2970.76819,0.01342
2968.70802,0.01378
2966.64785,0.01389
2964.58768,0.01368
2962.52750,0.01345
2960.46733,0.01353
2958.40716,0.01378
2956.34699,0.01380
2954.28682,0.01373
2952.22664,0.01371
2950.16647,0.01359
2948.10630,0.01342
2946.04613,0.01343
2943.98596,0.01352
2941.92578,0.01350
2939.86561,0.01359
2937.80544,0.01377
2935.74527,0.01372
2933.68509,0.01357
2931.62492,0.01360
2929.56475,0.01369
2927.50458,0.01367
2925.44441,0.01373
2923.38423,0.01395
2921.32406,0.01405
2919.26389,0.01387
2917.20372,0.01361
2915.14355,0.01343
2913.08337,0.01330
2911.02320,0.01307
2908.96303,0.01291
2906.90286,0.01301
2904.84268,0.01305
2902.78251,0.01287
2900.72234,0.01277
2898.66217,0.01278
2896.60200,0.01265
2894.54182,0.01242
2892.48165,0.01246
2890.42148,0.01267
2888.36131,0.01271
2886.30114,0.01257
2884.24096,0.01245
2882.18079,0.01249
2880.12062,0.01266
2878.06045,0.01260
2876.00028,0.01233
2873.94010,0.01223
2871.87993,0.01236
2869.81976,0.01233
2867.75959,0.01207
2865.69941,0.01188
2863.63924,0.01195
2861.57907,0.01218
2859.51890,0.01229
2857.45873,0.01216
2855.39855,0.01192
2853.33838,0.01165
2851.27821,0.01140
2849.21804,0.01130
2847.15787,0.01143
2845.09769,0.01160
2843.03752,0.01164
2840.97735,0.01156
2838.91718,0.01141
2836.85700,0.01131
2834.79683,0.01134
2832.73666,0.01134
2830.67649,0.01109
2828.61632,0.01080
2826.55614,0.01079
2824.49597,0.01093
2822.43580,0.01090
2820.37563,0.01071
2818.31546,0.01062
2816.25528,0.01057
2814.19511,0.01057
2812.13494,0.01071
2810.07477,0.01078
2808.01460,0.01064
2805.95442,0.01036
2803.89425,0.01015
2801.83408,0.01017
2799.77391,0.01025
2797.71373,0.01029
2795.65356,0.01043
2793.59339,0.01053
2791.53322,0.01042
2789.47305,0.01026
2787.41287,0.01018
2785.35270,0.01024
2783.29253,0.01030
2781.23236,0.01009
2779.17219,0.00992
2777.11201,0.01004
2775.05184,0.01021
2772.99167,0.01033
2770.93150,0.01038
2768.87133,0.01035
2766.81115,0.01026
2764.75098,0.01013
2762.69081,0.00994
2760.63064,0.00969
2758.57046,0.00951
2756.51029,0.00951
2754.45012,0.00962
2752.38995,0.00973
2750.32978,0.00971
2748.26960,0.00956
2746.20943,0.00944
2744.14926,0.00952
2742.08909,0.00965
2740.02892,0.00964
2737.96874,0.00964
2735.90857,0.00969
2733.84840,0.00966
2731.78823,0.00954
2729.72805,0.00945
2727.66788,0.00950
2725.60771,0.00961
2723.54754,0.00966
2721.48737,0.00970
2719.42719,0.00977
2717.36702,0.00977
2715.30685,0.00966
2713.24668,0.00967
2711.18651,0.00975
2709.12633,0.00971
2707.06616,0.00971
2705.00599,0.00975
2702.94582,0.00947
2700.88565,0.00906
2698.82547,0.00893
2696.76530,0.00905
2694.70513,0.00923
2692.64496,0.00931
2690.58478,0.00920
2688.52461,0.00908
2686.46444,0.00914
2684.40427,0.00919
2682.34410,0.00909
2680.28392,0.00902
2678.22375,0.00898
2676.16358,0.00890
2674.10341,0.00880
2672.04324,0.00865
2669.98306,0.00856
2667.92289,0.00869
2665.86272,0.00890
2663.80255,0.00903
2661.74238,0.00909
2659.68220,0.00906
2657.62203,0.00893
2655.56186,0.00872
2653.50169,0.00866
2651.44151,0.00876
2649.38134,0.00886
2647.32117,0.00897
2645.26100,0.00896
2643.20083,0.00879
2641.14065,0.00869
2639.08048,0.00859
2637.02031,0.00835
2634.96014,0.00813
2632.89997,0.00813
2630.83979,0.00836
2628.77962,0.00849
2626.71945,0.00826
2624.65928,0.00799
2622.59910,0.00805
2620.53893,0.00833
2618.47876,0.00847
2616.41859,0.00829
2614.35842,0.00806
2612.29824,0.00806
2610.23807,0.00804
2608.17790,0.00784
2606.11773,0.00773
2604.05756,0.00790
2601.99738,0.00814
2599.93721,0.00819
2597.87704,0.00793
2595.81687,0.00769
2593.75670,0.00787
2591.69652,0.00805
2589.63635,0.00798
2587.57618,0.00795
2585.51601,0.00808
2583.45583,0.00830
2581.39566,0.00832
2579.33549,0.00798
2577.27532,0.00772
2575.21515,0.00777
2573.15497,0.00788
2571.09480,0.00786
2569.03463,0.00767
2566.97446,0.00740
2564.91429,0.00730
2562.85411,0.00756
2560.79394,0.00792
2558.73377,0.00767
2556.67360,0.00709
2554.61342,0.00715
2552.55325,0.00762
2550.49308,0.00774
2548.43291,0.00755
2546.37274,0.00741
2544.31256,0.00736
2542.25239,0.00719
2540.19222,0.00701
2538.13205,0.00709
2536.07188,0.00751
2534.01170,0.00792
2531.95153,0.00783
2529.89136,0.00731
2527.83119,0.00675
2525.77102,0.00672
2523.71084,0.00738
2521.65067,0.00813
2519.59050,0.00854
2517.53033,0.00851
2515.47015,0.00806
2513.40998,0.00752
2511.34981,0.00731
2509.28964,0.00761
2507.22947,0.00814
2505.16929,0.00842
2503.10912,0.00838
2501.04895,0.00824
2498.98878,0.00797
2496.92861,0.00757
2494.86843,0.00750
2492.80826,0.00792
2490.74809,0.00812
2488.68792,0.00794
2486.62775,0.00793
2484.56757,0.00793
2482.50740,0.00775
2480.44723,0.00765
2478.38706,0.00758
2476.32688,0.00746
2474.26671,0.00732
2472.20654,0.00729
2470.14637,0.00773
2468.08620,0.00829
2466.02602,0.00828
2463.96585,0.00777
2461.90568,0.00743
2459.84551,0.00751
2457.78534,0.00774
2455.72516,0.00786
2453.66499,0.00784
2451.60482,0.00753
2449.54465,0.00698
2447.48447,0.00690
2445.42430,0.00729
2443.36413,0.00755
2441.30396,0.00763
2439.24379,0.00768
2437.18361,0.00782
2435.12344,0.00806
2433.06327,0.00818
2431.00310,0.00826
2428.94293,0.00845
2426.88275,0.00835
2424.82258,0.00807
2422.76241,0.00803
2420.70224,0.00785
2418.64207,0.00740
2416.58189,0.00714
2414.52172,0.00726
2412.46155,0.00767
2410.40138,0.00801
2408.34120,0.00799
2406.28103,0.00792
2404.22086,0.00818
2402.16069,0.00839
2400.10052,0.00810
2398.04034,0.00775
2395.98017,0.00750
2393.92000,0.00721
2391.85983,0.00691
2389.79966,0.00678
2387.73948,0.00683
2385.67931,0.00697
2383.61914,0.00710
2381.55897,0.00720
2379.49880,0.00741
2377.43862,0.00767
2375.37845,0.00749
2373.31828,0.00684
2371.25811,0.00623
2369.19793,0.00596
2367.13776,0.00680
2365.07759,0.00850
2363.01742,0.00811
2360.95725,0.00400
2358.89707,0.00020
2356.83690,0.00144
2354.77673,0.00531
2352.71656,0.00725
2350.65639,0.00743
2348.59621,0.00798
2346.53604,0.00908
2344.47587,0.00965
2342.41570,0.00921
2340.35552,0.00820
2338.29535,0.00772
2336.23518,0.00801
2334.17501,0.00795
2332.11484,0.00744
2330.05466,0.00761
2327.99449,0.00870
2325.93432,0.00954
2323.87415,0.00911
2321.81398,0.00790
2319.75380,0.00736
2317.69363,0.00801
2315.63346,0.00891
2313.57329,0.00908
2311.51312,0.00861
2309.45294,0.00820
2307.39277,0.00792
2305.33260,0.00748
2303.27243,0.00709
2301.21225,0.00709
2299.15208,0.00742
2297.09191,0.00786
2295.03174,0.00805
2292.97157,0.00781
2290.91139,0.00752
2288.85122,0.00758
2286.79105,0.00788
2284.73088,0.00812
2282.67071,0.00829
2280.61053,0.00842
2278.55036,0.00831
2276.49019,0.00771
2274.43002,0.00700
2272.36984,0.00702
2270.30967,0.00768
2268.24950,0.00794
2266.18933,0.00750
2264.12916,0.00698
2262.06898,0.00687
2260.00881,0.00675
2257.94864,0.00659
2255.88847,0.00719
2253.82830,0.00825
2251.76812,0.00852
2249.70795,0.00785
2247.64778,0.00693
2245.58761,0.00643
2243.52744,0.00666
2241.46726,0.00687
2239.40709,0.00670
2237.34692,0.00664
2235.28675,0.00655
2233.22657,0.00648
2231.16640,0.00625
2229.10623,0.00555
2227.04606,0.00495
2224.98589,0.00485
2222.92571,0.00529
2220.86554,0.00558
2218.80537,0.00537
2216.74520,0.00555
2214.68503,0.00614
2212.62485,0.00650
2210.56468,0.00593
2208.50451,0.00504
2206.44434,0.00574
2204.38417,0.00717
2202.32399,0.00765
2200.26382,0.00770
2198.20365,0.00777
2196.14348,0.00776
2194.08330,0.00746
2192.02313,0.00692
2189.96296,0.00607
2187.90279,0.00470
2185.84262,0.00392
2183.78244,0.00421
2181.72227,0.00498
2179.66210,0.00569
2177.60193,0.00566
2175.54176,0.00558
2173.48158,0.00580
2171.42141,0.00512
2169.36124,0.00473
2167.30107,0.00578
2165.24089,0.00658
2163.18072,0.00662
2161.12055,0.00575
2159.06038,0.00426
2157.00021,0.00461
2154.94003,0.00564
2152.87986,0.00490
2150.81969,0.00429
2148.75952,0.00523
2146.69935,0.00586
2144.63917,0.00512
2142.57900,0.00363
2140.51883,0.00275
2138.45866,0.00325
2136.39849,0.00404
2134.33831,0.00406
2132.27814,0.00354
2130.21797,0.00323
2128.15780,0.00343
2126.09762,0.00407
2124.03745,0.00523
2121.97728,0.00638
2119.91711,0.00598
2117.85694,0.00462
2115.79676,0.00479
2113.73659,0.00585
2111.67642,0.00610
2109.61625,0.00601
2107.55608,0.00557
2105.49590,0.00499
2103.43573,0.00547
2101.37556,0.00654
2099.31539,0.00674
2097.25521,0.00618
2095.19504,0.00576
2093.13487,0.00568
2091.07470,0.00551
2089.01453,0.00507
2086.95435,0.00436
2084.89418,0.00379
2082.83401,0.00393
2080.77384,0.00465
2078.71367,0.00515
2076.65349,0.00464
2074.59332,0.00342
2072.53315,0.00275
2070.47298,0.00314
2068.41281,0.00433
2066.35263,0.00590
2064.29246,0.00676
2062.23229,0.00618
2060.17212,0.00501
2058.11194,0.00433
2056.05177,0.00432
2053.99160,0.00504
2051.93143,0.00634
2049.87126,0.00705
2047.81108,0.00623
2045.75091,0.00471
2043.69074,0.00375
2041.63057,0.00363
2039.57040,0.00432
2037.51022,0.00512
2035.45005,0.00490
2033.38988,0.00379
2031.32971,0.00243
2029.26954,0.00157
2027.20936,0.00230
2025.14919,0.00380
2023.08902,0.00456
2021.02885,0.00506
2018.96867,0.00597
2016.90850,0.00661
2014.84833,0.00622
2012.78816,0.00514
2010.72799,0.00404
2008.66781,0.00328
2006.60764,0.00308
2004.54747,0.00368
2002.48730,0.00442
2000.42713,0.00464
1998.36695,0.00473
1996.30678,0.00500
1994.24661,0.00531
1992.18644,0.00567
1990.12626,0.00601
1988.06609,0.00548
1986.00592,0.00453
1983.94575,0.00449
1981.88558,0.00458
1979.82540,0.00388
1977.76523,0.00278
1975.70506,0.00215
1973.64489,0.00191
1971.58472,0.00160
1969.52454,0.00186
1967.46437,0.00191
1965.40420,0.00095
1963.34403,0.00025
1961.28386,0.00033
1959.22368,0.00075
1957.16351,0.00140
1955.10334,0.00216
1953.04317,0.00247
1950.98299,0.00222
1948.92282,0.00231
1946.86265,0.00282
1944.80248,0.00285
1942.74231,0.00265
1940.68213,0.00302
1938.62196,0.00360
1936.56179,0.00357
1934.50162,0.00297
1932.44145,0.00248
1930.38127,0.00227
1928.32110,0.00230
1926.26093,0.00240
1924.20076,0.00215
1922.14059,0.00174
1920.08041,0.00201
1918.02024,0.00275
1915.96007,0.00288
1913.89990,0.00244
1911.83972,0.00211
1909.77955,0.00218
1907.71938,0.00256
1905.65921,0.00290
1903.59904,0.00292
1901.53886,0.00260
1899.47869,0.00234
1897.41852,0.00246
1895.35835,0.00273
1893.29818,0.00288
1891.23800,0.00291
1889.17783,0.00294
1887.11766,0.00287
1885.05749,0.00273
1882.99731,0.00276
1880.93714,0.00297
1878.87697,0.00302
1876.81680,0.00282
1874.75663,0.00255
1872.69645,0.00213
1870.63628,0.00167
1868.57611,0.00171
1866.51594,0.00222
1864.45577,0.00249
1862.39559,0.00237
1860.33542,0.00243
1858.27525,0.00290
1856.21508,0.00327
1854.15491,0.00325
1852.09473,0.00293
1850.03456,0.00249
1847.97439,0.00220
1845.91422,0.00209
1843.85404,0.00193
1841.79387,0.00175
1839.73370,0.00189
1837.67353,0.00225
1835.61336,0.00246
1833.55318,0.00257
1831.49301,0.00268
1829.43284,0.00263
1827.37267,0.00237
1825.31250,0.00201
1823.25232,0.00181
1821.19215,0.00199
1819.13198,0.00225
1817.07181,0.00219
1815.01163,0.00202
1812.95146,0.00196
1810.89129,0.00201
1808.83112,0.00213
1806.77095,0.00214
1804.71077,0.00203
1802.65060,0.00192
1800.59043,0.00180
1798.53026,0.00185
1796.47009,0.00206
1794.40991,0.00214
1792.34974,0.00198
1790.28957,0.00182
1788.22940,0.00186
1786.16923,0.00196
1784.10905,0.00199
1782.04888,0.00208
1779.98871,0.00228
1777.92854,0.00243
1775.86836,0.00234
1773.80819,0.00202
1771.74802,0.00175
1769.68785,0.00179
1767.62768,0.00201
1765.56750,0.00223
1763.50733,0.00229
1761.44716,0.00218
1759.38699,0.00217
1757.32682,0.00244
1755.26664,0.00282
1753.20647,0.00301
1751.14630,0.00290
1749.08613,0.00278
1747.02596,0.00295
1744.96578,0.00321
1742.90561,0.00344
1740.84544,0.00365
1738.78527,0.00370
1736.72509,0.00352
1734.66492,0.00346
1732.60475,0.00374
1730.54458,0.00400
1728.48441,0.00411
1726.42423,0.00419
1724.36406,0.00436
1722.30389,0.00477
1720.24372,0.00525
1718.18355,0.00536
1716.12337,0.00489
1714.06320,0.00438
1712.00303,0.00428
1709.94286,0.00443
1707.88268,0.00462
1705.82251,0.00487
1703.76234,0.00517
1701.70217,0.00533
1699.64200,0.00529
1697.58182,0.00534
1695.52165,0.00557
1693.46148,0.00569
1691.40131,0.00567
1689.34114,0.00568
1687.28096,0.00579
1685.22079,0.00597
1683.16062,0.00631
1681.10045,0.00672
1679.04028,0.00695
1676.98010,0.00684
1674.91993,0.00659
1672.85976,0.00660
1670.79959,0.00697
1668.73941,0.00746
1666.67924,0.00778
1664.61907,0.00797
1662.55890,0.00832
1660.49873,0.00876
1658.43855,0.00887
1656.37838,0.00867
1654.31821,0.00860
1652.25804,0.00892
1650.19787,0.00911
1648.13769,0.00915
1646.07752,0.00924
1644.01735,0.00927
1641.95718,0.00919
1639.89701,0.00905
1637.83683,0.00885
1635.77666,0.00879
1633.71649,0.00896
1631.65632,0.00900
1629.59614,0.00881
1627.53597,0.00853
1625.47580,0.00828
1623.41563,0.00819
1621.35546,0.00826
1619.29528,0.00840
1617.23511,0.00857
1615.17494,0.00869
1613.11477,0.00867
1611.05460,0.00854
1608.99442,0.00829
1606.93425,0.00799
1604.87408,0.00778
1602.81391,0.00758
1600.75373,0.00729
1598.69356,0.00694
1596.63339,0.00662
1594.57322,0.00643
1592.51305,0.00634
1590.45287,0.00615
1588.39270,0.00581
1586.33253,0.00555
1584.27236,0.00542
1582.21219,0.00522
1580.15201,0.00487
1578.09184,0.00454
1576.03167,0.00438
1573.97150,0.00429
1571.91133,0.00410
1569.85115,0.00385
1567.79098,0.00362
1565.73081,0.00345
1563.67064,0.00322
1561.61046,0.00286
1559.55029,0.00258
1557.49012,0.00273
1555.42995,0.00285
1553.36978,0.00267
1551.30960,0.00249
1549.24943,0.00249
1547.18926,0.00241
1545.12909,0.00207
1543.06892,0.00179
1541.00874,0.00183
1538.94857,0.00202
1536.88840,0.00220
1534.82823,0.00236
1532.76805,0.00235
1530.70788,0.00209
1528.64771,0.00173
1526.58754,0.00142
1524.52737,0.00112
1522.46719,0.00092
1520.40702,0.00095
1518.34685,0.00105
1516.28668,0.00109
1514.22651,0.00111
1512.16633,0.00110
1510.10616,0.00110
1508.04599,0.00118
1505.98582,0.00146
1503.92565,0.00165
1501.86547,0.00160
1499.80530,0.00144
1497.74513,0.00125
1495.68496,0.00107
1493.62478,0.00092
1491.56461,0.00079
1489.50444,0.00080
1487.44427,0.00093
1485.38410,0.00098
1483.32392,0.00102
1481.26375,0.00115
1479.20358,0.00125
1477.14341,0.00118
1475.08324,0.00109
1473.02306,0.00125
1470.96289,0.00161
1468.90272,0.00171
1466.84255,0.00163
1464.78238,0.00179
1462.72220,0.00210
1460.66203,0.00214
1458.60186,0.00191
1456.54169,0.00183
1454.48151,0.00205
1452.42134,0.00234
1450.36117,0.00250
1448.30100,0.00254
1446.24083,0.00262
1444.18065,0.00274
1442.12048,0.00269
1440.06031,0.00246
1438.00014,0.00222
1435.93997,0.00216
1433.87979,0.00217
1431.81962,0.00208
1429.75945,0.00201
1427.69928,0.00197
1425.63910,0.00190
1423.57893,0.00194
1421.51876,0.00211
1419.45859,0.00222
1417.39842,0.00226
1415.33824,0.00232
1413.27807,0.00243
1411.21790,0.00250
1409.15773,0.00247
1407.09756,0.00231
1405.03738,0.00212
1402.97721,0.00204
1400.91704,0.00198
1398.85687,0.00187
1396.79670,0.00185
1394.73652,0.00203
1392.67635,0.00226
1390.61618,0.00235
1388.55601,0.00229
1386.49583,0.00226
1384.43566,0.00231
1382.37549,0.00237
1380.31532,0.00244
1378.25515,0.00250
1376.19497,0.00251
1374.13480,0.00253
1372.07463,0.00257
1370.01446,0.00261
1367.95429,0.00264
1365.89411,0.00261
1363.83394,0.00255
1361.77377,0.00260
1359.71360,0.00268
1357.65343,0.00259
1355.59325,0.00231
1353.53308,0.00202
1351.47291,0.00194
1349.41274,0.00206
1347.35256,0.00210
1345.29239,0.00200
1343.23222,0.00188
1341.17205,0.00179
1339.11188,0.00186
1337.05170,0.00216
1334.99153,0.00242
1332.93136,0.00239
1330.87119,0.00216
1328.81102,0.00193
1326.75084,0.00184
1324.69067,0.00190
1322.63050,0.00195
1320.57033,0.00180
1318.51015,0.00153
1316.44998,0.00137
1314.38981,0.00127
1312.32964,0.00115
1310.26947,0.00107
1308.20929,0.00100
1306.14912,0.00096
1304.08895,0.00103
1302.02878,0.00109
1299.96861,0.00101
1297.90843,0.00092
1295.84826,0.00086
1293.78809,0.00079
1291.72792,0.00079
1289.66775,0.00085
1287.60757,0.00093
1285.54740,0.00097
1283.48723,0.00088
1281.42706,0.00073
1279.36688,0.00070
1277.30671,0.00074
1275.24654,0.00073
1273.18637,0.00072
1271.12620,0.00080
1269.06602,0.00100
1267.00585,0.00120
1264.94568,0.00122
1262.88551,0.00114
1260.82534,0.00120
1258.76516,0.00136
1256.70499,0.00129
1254.64482,0.00111
1252.58465,0.00107
1250.52447,0.00105
1248.46430,0.00090
1246.40413,0.00075
1244.34396,0.00087
1242.28379,0.00123
1240.22361,0.00138
1238.16344,0.00112
1236.10327,0.00085
1234.04310,0.00093
1231.98293,0.00124
1229.92275,0.00145
1227.86258,0.00143
1225.80241,0.00126
1223.74224,0.00115
1221.68207,0.00117
1219.62189,0.00120
1217.56172,0.00120
1215.50155,0.00116
1213.44138,0.00113
1211.38120,0.00116
1209.32103,0.00120
1207.26086,0.00118
1205.20069,0.00100
1203.14052,0.00067
1201.08034,0.00057
1199.02017,0.00076
1196.96000,0.00081
1194.89983,0.00058
1192.83966,0.00041
1190.77948,0.00050
1188.71931,0.00075
1186.65914,0.00101
1184.59897,0.00108
1182.53880,0.00106
1180.47862,0.00111
1178.41845,0.00132
1176.35828,0.00159
1174.29811,0.00183
1172.23793,0.00211
1170.17776,0.00245
1168.11759,0.00274
1166.05742,0.00297
1163.99725,0.00323
1161.93707,0.00355
1159.87690,0.00374
1157.81673,0.00382
1155.75656,0.00404
1153.69639,0.00437
1151.63621,0.00470
1149.57604,0.00501
1147.51587,0.00517
1145.45570,0.00537
1143.39552,0.00570
1141.33535,0.00606
1139.27518,0.00646
1137.21501,0.00674
1135.15484,0.00685
1133.09466,0.00704
1131.03449,0.00741
1128.97432,0.00779
1126.91415,0.00809
1124.85398,0.00825
1122.79380,0.00839
1120.73363,0.00878
1118.67346,0.00947
1116.61329,0.01012
1114.55312,0.01058
1112.49294,0.01087
1110.43277,0.01116
1108.37260,0.01163
1106.31243,0.01232
1104.25225,0.01317
1102.19208,0.01405
1100.13191,0.01464
1098.07174,0.01490
1096.01157,0.01517
1093.95139,0.01559
1091.89122,0.01606
1089.83105,0.01664
1087.77088,0.01725
1085.71071,0.01771
1083.65053,0.01807
1081.59036,0.01847
1079.53019,0.01894
1077.47002,0.01940
1075.40985,0.01978
1073.34967,0.02002
1071.28950,0.02001
1069.22933,0.01988
1067.16916,0.02002
1065.10898,0.02028
1063.04881,0.02032
1060.98864,0.02019
1058.92847,0.02002
1056.86830,0.01997
1054.80812,0.02002
1052.74795,0.02003
1050.68778,0.02007
1048.62761,0.02003
1046.56744,0.01973
1044.50726,0.01945
1042.44709,0.01933
1040.38692,0.01903
1038.32675,0.01853
1036.26657,0.01816
1034.20640,0.01793
1032.14623,0.01763
1030.08606,0.01725
1028.02589,0.01680
1025.96571,0.01631
1023.90554,0.01587
1021.84537,0.01544
1019.78520,0.01501
1017.72503,0.01465
1015.66485,0.01428
1013.60468,0.01377
1011.54451,0.01338
1009.48434,0.01319
1007.42417,0.01288
1005.36399,0.01244
1003.30382,0.01201
1001.24365,0.01183
999.18348,0.01200
997.12330,0.01232
995.06313,0.01259
993.00296,0.01271
990.94279,0.01276
988.88262,0.01287
986.82244,0.01281
984.76227,0.01250
982.70210,0.01235
980.64193,0.01243
978.58176,0.01225
976.52158,0.01181
974.46141,0.01141
972.40124,0.01072
970.34107,0.00957
968.28089,0.00856
966.22072,0.00816
964.16055,0.00793
962.10038,0.00744
960.04021,0.00677
957.98003,0.00615
955.91986,0.00585
953.85969,0.00567
951.79952,0.00546
949.73935,0.00533
947.67917,0.00527
945.61900,0.00514
943.55883,0.00482
941.49866,0.00457
939.43849,0.00462
937.37831,0.00472
935.31814,0.00469
933.25797,0.00472
931.19780,0.00484
929.13762,0.00470
927.07745,0.00439
925.01728,0.00425
922.95711,0.00423
920.89694,0.00411
918.83676,0.00385
916.77659,0.00357
914.71642,0.00336
912.65625,0.00334
910.59608,0.00330
908.53590,0.00294
906.47573,0.00257
904.41556,0.00248
902.35539,0.00263
900.29522,0.00270
898.23504,0.00249
896.17487,0.00257
894.11470,0.00282
892.05453,0.00274
889.99435,0.00282
887.93418,0.00308
885.87401,0.00302
883.81384,0.00313
881.75367,0.00342
879.69349,0.00340
877.63332,0.00345
875.57315,0.00370
873.51298,0.00388
871.45281,0.00404
869.39263,0.00407
867.33246,0.00406
865.27229,0.00416
863.21212,0.00422
861.15194,0.00424
859.09177,0.00411
857.03160,0.00396
854.97143,0.00424
852.91126,0.00447
850.85108,0.00414
848.79091,0.00361
846.73074,0.00314
844.67057,0.00300
842.61040,0.00329
840.55022,0.00353
838.49005,0.00339
836.42988,0.00312
834.36971,0.00290
832.30954,0.00256
830.24936,0.00218
828.18919,0.00213
826.12902,0.00238
824.06885,0.00226
822.00867,0.00168
819.94850,0.00133
817.88833,0.00136
815.82816,0.00130
813.76799,0.00118
811.70781,0.00168
809.64764,0.00233
807.58747,0.00214
805.52730,0.00156
803.46713,0.00136
801.40695,0.00130
799.34678,0.00102
797.28661,0.00084
795.22644,0.00110
793.16627,0.00138
791.10609,0.00150
789.04592,0.00149
786.98575,0.00135
784.92558,0.00125
782.86540,0.00116
780.80523,0.00144
778.74506,0.00182
776.68489,0.00173
774.62472,0.00162
772.56454,0.00157
770.50437,0.00143
768.44420,0.00184
766.38403,0.00271
764.32386,0.00279
762.26368,0.00188
760.20351,0.00108
758.14334,0.00126
756.08317,0.00185
754.02299,0.00161
751.96282,0.00086
749.90265,0.00060
747.84248,0.00093
745.78231,0.00144
743.72213,0.00171
741.66196,0.00179
739.60179,0.00224
737.54162,0.00281
735.48145,0.00256
733.42127,0.00184
731.36110,0.00145
729.30093,0.00119
727.24076,0.00119
725.18059,0.00166
723.12041,0.00202
721.06024,0.00217
719.00007,0.00237
716.93990,0.00259
714.87972,0.00262
712.81955,0.00251
710.75938,0.00245
708.69921,0.00240
706.63904,0.00223
704.57886,0.00203
702.51869,0.00200
700.45852,0.00198
698.39835,0.00171
696.33818,0.00167
694.27800,0.00212
692.21783,0.00252
690.15766,0.00265
688.09749,0.00269
686.03731,0.00253
683.97714,0.00198
681.91697,0.00153
679.85680,0.00193
677.79663,0.00286
675.73645,0.00345
673.67628,0.00335
671.61611,0.00278
669.55594,0.00229
667.49577,0.00242
665.43559,0.00325
663.37542,0.00406
661.31525,0.00410
659.25508,0.00320
657.19491,0.00170
655.13473,0.00041
653.07456,0.00047
651.01439,0.00190
648.95422,0.00372
646.89404,0.00490
644.83387,0.00516
642.77370,0.00457
640.71353,0.00316
638.65336,0.00200
636.59318,0.00227
634.53301,0.00363
632.47284,0.00438
630.41267,0.00357
628.35250,0.00252
626.29232,0.00215
624.23215,0.00129
622.17198,0.00112
620.11181,0.00198
618.05164,0.00285
615.99146,0.00349
613.93129,0.00250
611.87112,0.00042
609.81095,0.00000
607.75077,0.00201
605.69060,0.00270
603.63043,0.00125
601.57026,0.00048
599.51009,0.00000
