3996.73391,0.00079
3994.67373,0.00076
3992.61356,0.00079
3990.55339,0.00080
3988.49322,0.00066
3986.43305,0.00052
3984.37287,0.00037
3982.31270,0.00014
3980.25253,0.00009
3978.19236,0.00032
3976.13219,0.00064
3974.07201,0.00082
3972.01184,0.00060
3969.95167,0.00015
3967.89150,0.00000
3965.83133,0.00024
3963.77115,0.00058
3961.71098,0.00076
3959.65081,0.00068
3957.59064,0.00050
3955.53046,0.00043
3953.47029,0.00050
3951.41012,0.00049
3949.34995,0.00041
3947.28978,0.00055
3945.22960,0.00077
3943.16943,0.00072
3941.10926,0.00048
3939.04909,0.00040
3936.98892,0.00051
3934.92874,0.00059
3932.86857,0.00056
3930.80840,0.00074
3928.74823,0.00112
3926.68805,0.00122
3924.62788,0.00077
3922.56771,0.00038
3920.50754,0.00053
3918.44737,0.00065
3916.38719,0.00029
3914.32702,0.00005
3912.26685,0.00031
3910.20668,0.00066
3908.14651,0.00081
3906.08633,0.00082
3904.02616,0.00066
3901.96599,0.00023
3899.90582,0.00000
3897.84565,0.00040
3895.78547,0.00094
3893.72530,0.00092
3891.66513,0.00053
3889.60496,0.00061
3887.54478,0.00124
3885.48461,0.00158
3883.42444,0.00139
3881.36427,0.00100
3879.30410,0.00056
3877.24392,0.00040
3875.18375,0.00063
3873.12358,0.00092
3871.06341,0.00107
3869.00324,0.00107
3866.94306,0.00109
3864.88289,0.00116
3862.82272,0.00120
3860.76255,0.00125
3858.70237,0.00133
3856.64220,0.00133
3854.58203,0.00104
3852.52186,0.00061
3850.46169,0.00064
3848.40151,0.00092
3846.34134,0.00106
3844.28117,0.00104
3842.22100,0.00093
3840.16083,0.00100
3838.10065,0.00128
3836.04048,0.00132
3833.98031,0.00106
3831.92014,0.00099
3829.85997,0.00128
3827.79979,0.00163
3825.73962,0.00162
3823.67945,0.00128
3821.61928,0.00100
3819.55910,0.00114
3817.49893,0.00141
3815.43876,0.00121
3813.37859,0.00084
3811.31842,0.00075
3809.25824,0.00083
3807.19807,0.00105
3805.13790,0.00128
3803.07773,0.00104
3801.01756,0.00035
3798.95738,0.00000
3796.89721,0.00004
3794.83704,0.00015
3792.77687,0.00053
3790.71670,0.00112
3788.65652,0.00136
3786.59635,0.00121
3784.53618,0.00115
3782.47601,0.00122
3780.41583,0.00119
3778.35566,0.00107
3776.29549,0.00105
3774.23532,0.00124
3772.17515,0.00163
3770.11497,0.00187
3768.05480,0.00159
3765.99463,0.00095
3763.93446,0.00055
3761.87429,0.00067
3759.81411,0.00088
3757.75394,0.00100
3755.69377,0.00137
3753.63360,0.00172
3751.57342,0.00141
3749.51325,0.00101
3747.45308,0.00141
3745.39291,0.00222
3743.33274,0.00246
3741.27256,0.00192
3739.21239,0.00138
3737.15222,0.00141
3735.09205,0.00169
3733.03188,0.00160
3730.97170,0.00153
3728.91153,0.00179
3726.85136,0.00196
3724.79119,0.00177
3722.73102,0.00139
3720.67084,0.00103
3718.61067,0.00092
3716.55050,0.00116
3714.49033,0.00143
3712.43015,0.00144
3710.36998,0.00135
3708.30981,0.00143
3706.24964,0.00131
3704.18947,0.00081
3702.12929,0.00029
3700.06912,0.00017
3698.00895,0.00052
3695.94878,0.00101
3693.88861,0.00150
3691.82843,0.00181
3689.76826,0.00175
3687.70809,0.00138
3685.64792,0.00108
3683.58775,0.00111
3681.52757,0.00149
3679.46740,0.00177
3677.40723,0.00173
3675.34706,0.00172
3673.28688,0.00195
3671.22671,0.00205
3669.16654,0.00183
3667.10637,0.00178
3665.04620,0.00208
3662.98602,0.00250
3660.92585,0.00295
3658.86568,0.00322
3656.80551,0.00314
3654.74534,0.00339
3652.68516,0.00458
3650.62499,0.00599
3648.56482,0.00635
3646.50465,0.00565
3644.44447,0.00540
3642.38430,0.00602
3640.32413,0.00664
3638.26396,0.00665
3636.20379,0.00642
3634.14361,0.00673
3632.08344,0.00742
3630.02327,0.00759
3627.96310,0.00729
3625.90293,0.00748
3623.84275,0.00816
3621.78258,0.00888
3619.72241,0.00932
3617.66224,0.00948
3615.60207,0.00972
3613.54189,0.01028
3611.48172,0.01107
3609.42155,0.01177
3607.36138,0.01224
3605.30120,0.01262
3603.24103,0.01300
3601.18086,0.01316
3599.12069,0.01294
3597.06052,0.01275
3595.00034,0.01304
3592.94017,0.01366
3590.88000,0.01437
3588.81983,0.01520
3586.75966,0.01579
3584.69948,0.01595
3582.63931,0.01607
3580.57914,0.01644
3578.51897,0.01712
3576.45879,0.01784
3574.39862,0.01830
3572.33845,0.01866
3570.27828,0.01916
3568.21811,0.01964
3566.15793,0.01974
3564.09776,0.01955
3562.03759,0.01958
3559.97742,0.02009
3557.91725,0.02091
3555.85707,0.02178
3553.79690,0.02260
3551.73673,0.02315
3549.67656,0.02333
3547.61639,0.02345
3545.55621,0.02381
3543.49604,0.02433
3541.43587,0.02474
3539.37570,0.02481
3537.31552,0.02478
3535.25535,0.02521
3533.19518,0.02583
3531.13501,0.02602
3529.07484,0.02610
3527.01466,0.02652
3524.95449,0.02713
3522.89432,0.02770
3520.83415,0.02809
3518.77398,0.02838
3516.71380,0.02880
3514.65363,0.02933
3512.59346,0.02965
3510.53329,0.02972
3508.47312,0.02997
3506.41294,0.03063
3504.35277,0.03137
3502.29260,0.03187
3500.23243,0.03220
3498.17225,0.03257
3496.11208,0.03307
3494.05191,0.03352
3491.99174,0.03373
3489.93157,0.03384
3487.87139,0.03398
3485.81122,0.03412
3483.75105,0.03441
3481.69088,0.03476
3479.63071,0.03498
3477.57053,0.03519
3475.51036,0.03554
3473.45019,0.03607
3471.39002,0.03645
3469.32984,0.03645
3467.26967,0.03658
3465.20950,0.03707
3463.14933,0.03742
3461.08916,0.03762
3459.02898,0.03793
3456.96881,0.03824
3454.90864,0.03853
3452.84847,0.03892
3450.78830,0.03940
3448.72812,0.03976
3446.66795,0.03978
3444.60778,0.03971
3442.54761,0.03978
3440.48744,0.04008
3438.42726,0.04072
3436.36709,0.04150
3434.30692,0.04201
3432.24675,0.04210
3430.18657,0.04200
3428.12640,0.04199
3426.06623,0.04226
3424.00606,0.04272
3421.94589,0.04296
3419.88571,0.04285
3417.82554,0.04288
3415.76537,0.04325
3413.70520,0.04378
3411.64503,0.04411
3409.58485,0.04410
3407.52468,0.04406
3405.46451,0.04420
3403.40434,0.04439
3401.34416,0.04445
3399.28399,0.04443
3397.22382,0.04455
3395.16365,0.04491
3393.10348,0.04524
3391.04330,0.04552
3388.98313,0.04600
3386.92296,0.04644
3384.86279,0.04640
3382.80262,0.04630
3380.74244,0.04659
3378.68227,0.04687
3376.62210,0.04681
3374.56193,0.04671
3372.50176,0.04698
3370.44158,0.04750
3368.38141,0.04785
3366.32124,0.04800
3364.26107,0.04816
3362.20089,0.04833
3360.14072,0.04836
3358.08055,0.04825
3356.02038,0.04826
3353.96021,0.04815
3351.90003,0.04784
3349.83986,0.04777
3347.77969,0.04790
3345.71952,0.04803
3343.65935,0.04825
3341.59917,0.04844
3339.53900,0.04869
3337.47883,0.04906
3335.41866,0.04904
3333.35849,0.04867
3331.29831,0.04855
3329.23814,0.04878
3327.17797,0.04896
3325.11780,0.04893
3323.05762,0.04881
3320.99745,0.04876
3318.93728,0.04877
3316.87711,0.04875
3314.81694,0.04905
3312.75676,0.04961
3310.69659,0.04988
3308.63642,0.04992
3306.57625,0.04986
3304.51608,0.04965
3302.45590,0.04955
3300.39573,0.04969
3298.33556,0.04968
3296.27539,0.04955
3294.21521,0.04964
3292.15504,0.04983
3290.09487,0.04993
3288.03470,0.04985
3285.97453,0.04959
3283.91435,0.04950
3281.85418,0.04966
3279.79401,0.04968
3277.73384,0.04969
3275.67367,0.04986
3273.61349,0.04999
3271.55332,0.05011
3269.49315,0.05031
3267.43298,0.05043
3265.37281,0.05027
3263.31263,0.05017
3261.25246,0.05038
3259.19229,0.05052
3257.13212,0.05035
3255.07194,0.05013
3253.01177,0.05005
3250.95160,0.05007
3248.89143,0.05006
3246.83126,0.04996
3244.77108,0.04980
3242.71091,0.04985
3240.65074,0.05021
3238.59057,0.05050
3236.53040,0.05040
3234.47022,0.05015
3232.41005,0.05007
3230.34988,0.05016
3228.28971,0.05032
3226.22954,0.05026
3224.16936,0.04994
3222.10919,0.04989
3220.04902,0.05011
3217.98885,0.05017
3215.92867,0.05021
3213.86850,0.05030
3211.80833,0.05024
3209.74816,0.05008
3207.68799,0.04994
3205.62781,0.04993
3203.56764,0.05001
3201.50747,0.04997
3199.44730,0.04983
3197.38713,0.04967
3195.32695,0.04939
3193.26678,0.04901
3191.20661,0.04875
3189.14644,0.04871
3187.08626,0.04866
3185.02609,0.04853
3182.96592,0.04854
3180.90575,0.04874
3178.84558,0.04893
3176.78540,0.04884
3174.72523,0.04844
3172.66506,0.04804
3170.60489,0.04770
3168.54472,0.04737
3166.48454,0.04726
3164.42437,0.04733
3162.36420,0.04714
3160.30403,0.04681
3158.24386,0.04667
3156.18368,0.04655
3154.12351,0.04629
3152.06334,0.04613
3150.00317,0.04624
3147.94299,0.04630
3145.88282,0.04602
3143.82265,0.04571
3141.76248,0.04560
3139.70231,0.04555
3137.64213,0.04544
3135.58196,0.04518
3133.52179,0.04495
3131.46162,0.04500
3129.40145,0.04510
3127.34127,0.04487
3125.28110,0.04436
3123.22093,0.04402
3121.16076,0.04400
3119.10058,0.04400
3117.04041,0.04385
3114.98024,0.04354
3112.92007,0.04312
3110.85990,0.04299
3108.79972,0.04313
3106.73955,0.04293
3104.67938,0.04233
3102.61921,0.04178
3100.55904,0.04169
3098.49886,0.04190
3096.43869,0.04187
3094.37852,0.04153
3092.31835,0.04116
3090.25818,0.04092
3088.19800,0.04080
3086.13783,0.04075
3084.07766,0.04065
3082.01749,0.04030
3079.95731,0.03986
3077.89714,0.03976
3075.83697,0.03978
3073.77680,0.03949
3071.71663,0.03905
3069.65645,0.03873
3067.59628,0.03853
3065.53611,0.03831
3063.47594,0.03796
3061.41577,0.03769
3059.35559,0.03763
3057.29542,0.03748
3055.23525,0.03723
3053.17508,0.03723
3051.11491,0.03722
3049.05473,0.03688
3046.99456,0.03646
3044.93439,0.03618
3042.87422,0.03599
3040.81404,0.03581
3038.75387,0.03569
3036.69370,0.03554
3034.63353,0.03536
3032.57336,0.03525
3030.51318,0.03511
3028.45301,0.03480
3026.39284,0.03457
3024.33267,0.03451
3022.27250,0.03423
3020.21232,0.03355
3018.15215,0.03298
3016.09198,0.03300
3014.03181,0.03317
3011.97163,0.03294
3009.91146,0.03253
3007.85129,0.03226
3005.79112,0.03203
3003.73095,0.03174
3001.67077,0.03166
2999.61060,0.03183
2997.55043,0.03190
2995.49026,0.03154
2993.43009,0.03108
2991.36991,0.03103
2989.30974,0.03107
2987.24957,0.03078
2985.18940,0.03043
2983.12923,0.03039
2981.06905,0.03049
2979.00888,0.03058
2976.94871,0.03042
2974.88854,0.02982
2972.82836,0.02936
2970.76819,0.02940
2968.70802,0.02954
2966.64785,0.02948
2964.58768,0.02931
2962.52750,0.02928
2960.46733,0.02933
2958.40716,0.02920
2956.34699,0.02910
2954.28682,0.02911
2952.22664,0.02913
2950.16647,0.02922
2948.10630,0.02916
2946.04613,0.02889
2943.98596,0.02879
2941.92578,0.02895
2939.86561,0.02915
2937.80544,0.02922
2935.74527,0.02903
2933.68509,0.02875
2931.62492,0.02850
2929.56475,0.02817
2927.50458,0.02798
2925.44441,0.02798
2923.38423,0.02800
2921.32406,0.02789
2919.26389,0.02763
2917.20372,0.02746
2915.14355,0.02741
2913.08337,0.02721
2911.02320,0.02694
2908.96303,0.02678
2906.90286,0.02677
2904.84268,0.02688
2902.78251,0.02689
2900.72234,0.02670
2898.66217,0.02645
2896.60200,0.02623
2894.54182,0.02599
2892.48165,0.02571
2890.42148,0.02553
2888.36131,0.02557
2886.30114,0.02571
2884.24096,0.02576
2882.18079,0.02571
2880.12062,0.02566
2878.06045,0.02563
2876.00028,0.02557
2873.94010,0.02557
2871.87993,0.02548
2869.81976,0.02521
2867.75959,0.02504
2865.69941,0.02502
2863.63924,0.02500
2861.57907,0.02479
2859.51890,0.02457
2857.45873,0.02452
2855.39855,0.02455
2853.33838,0.02447
2851.27821,0.02431
2849.21804,0.02417
2847.15787,0.02397
2845.09769,0.02381
2843.03752,0.02357
2840.97735,0.02309
2838.91718,0.02288
2836.85700,0.02301
2834.79683,0.02294
2832.73666,0.02261
2830.67649,0.02242
2828.61632,0.02242
2826.55614,0.02240
2824.49597,0.02229
2822.43580,0.02214
2820.37563,0.02203
2818.31546,0.02199
2816.25528,0.02181
2814.19511,0.02154
2812.13494,0.02158
2810.07477,0.02178
2808.01460,0.02176
2805.95442,0.02166
2803.89425,0.02168
2801.83408,0.02157
2799.77391,0.02120
2797.71373,0.02081
2795.65356,0.02071
2793.59339,0.02075
2791.53322,0.02067
2789.47305,0.02053
2787.41287,0.02032
2785.35270,0.02017
2783.29253,0.02018
2781.23236,0.02025
2779.17219,0.02018
2777.11201,0.02001
2775.05184,0.01979
2772.99167,0.01949
2770.93150,0.01935
2768.87133,0.01941
2766.81115,0.01940
2764.75098,0.01930
2762.69081,0.01923
2760.63064,0.01906
2758.57046,0.01875
2756.51029,0.01848
2754.45012,0.01844
2752.38995,0.01855
2750.32978,0.01852
2748.26960,0.01842
2746.20943,0.01842
2744.14926,0.01836
2742.08909,0.01821
2740.02892,0.01812
2737.96874,0.01815
2735.90857,0.01812
2733.84840,0.01774
2731.78823,0.01731
2729.72805,0.01725
2727.66788,0.01735
2725.60771,0.01731
2723.54754,0.01725
2721.48737,0.01715
2719.42719,0.01702
2717.36702,0.01692
2715.30685,0.01689
2713.24668,0.01702
2711.18651,0.01708
2709.12633,0.01682
2707.06616,0.01654
2705.00599,0.01651
2702.94582,0.01658
2700.88565,0.01651
2698.82547,0.01623
2696.76530,0.01590
2694.70513,0.01565
2692.64496,0.01543
2690.58478,0.01526
2688.52461,0.01520
2686.46444,0.01520
2684.40427,0.01506
2682.34410,0.01481
2680.28392,0.01466
2678.22375,0.01464
2676.16358,0.01472
2674.10341,0.01471
2672.04324,0.01442
2669.98306,0.01418
2667.92289,0.01413
2665.86272,0.01406
2663.80255,0.01391
2661.74238,0.01374
2659.68220,0.01354
2657.62203,0.01343
2655.56186,0.01346
2653.50169,0.01345
2651.44151,0.01334
2649.38134,0.01313
2647.32117,0.01279
2645.26100,0.01233
2643.20083,0.01206
2641.14065,0.01226
2639.08048,0.01267
2637.02031,0.01277
2634.96014,0.01250
2632.89997,0.01214
2630.83979,0.01189
2628.77962,0.01184
2626.71945,0.01194
2624.65928,0.01193
2622.59910,0.01170
2620.53893,0.01144
2618.47876,0.01121
2616.41859,0.01093
2614.35842,0.01080
2612.29824,0.01091
2610.23807,0.01098
2608.17790,0.01093
2606.11773,0.01113
2604.05756,0.01135
2601.99738,0.01100
2599.93721,0.01037
2597.87704,0.01008
2595.81687,0.01025
2593.75670,0.01053
2591.69652,0.01058
2589.63635,0.01035
2587.57618,0.00994
2585.51601,0.00941
2583.45583,0.00910
2581.39566,0.00951
2579.33549,0.01009
2577.27532,0.01020
2575.21515,0.01026
2573.15497,0.01054
2571.09480,0.01063
2569.03463,0.01039
2566.97446,0.01023
2564.91429,0.01026
2562.85411,0.01040
2560.79394,0.01025
2558.73377,0.00962
2556.67360,0.00925
2554.61342,0.00943
2552.55325,0.00976
2550.49308,0.00990
2548.43291,0.00966
2546.37274,0.00928
2544.31256,0.00923
2542.25239,0.00937
2540.19222,0.00932
2538.13205,0.00950
2536.07188,0.00997
2534.01170,0.00987
2531.95153,0.00934
2529.89136,0.00906
2527.83119,0.00899
2525.77102,0.00905
2523.71084,0.00930
2521.65067,0.00970
2519.59050,0.01013
2517.53033,0.01028
2515.47015,0.00996
2513.40998,0.00954
2511.34981,0.00952
2509.28964,0.00977
2507.22947,0.00985
2505.16929,0.00968
2503.10912,0.00950
2501.04895,0.00976
2498.98878,0.01030
2496.92861,0.01032
2494.86843,0.01001
2492.80826,0.01025
2490.74809,0.01094
2488.68792,0.01119
2486.62775,0.01082
2484.56757,0.01035
2482.50740,0.01009
2480.44723,0.00997
2478.38706,0.00985
2476.32688,0.00972
2474.26671,0.00972
2472.20654,0.01001
2470.14637,0.01044
2468.08620,0.01065
2466.02602,0.01077
2463.96585,0.01110
2461.90568,0.01133
2459.84551,0.01115
2457.78534,0.01085
2455.72516,0.01085
2453.66499,0.01099
2451.60482,0.01096
2449.54465,0.01082
2447.48447,0.01098
2445.42430,0.01135
2443.36413,0.01131
2441.30396,0.01092
2439.24379,0.01061
2437.18361,0.01057
2435.12344,0.01098
2433.06327,0.01161
2431.00310,0.01179
2428.94293,0.01146
2426.88275,0.01123
2424.82258,0.01135
2422.76241,0.01128
2420.70224,0.01082
2418.64207,0.01033
2416.58189,0.01007
2414.52172,0.01025
2412.46155,0.01056
2410.40138,0.01059
2408.34120,0.01055
2406.28103,0.01062
2404.22086,0.01054
2402.16069,0.01034
2400.10052,0.01012
2398.04034,0.00983
2395.98017,0.00993
2393.92000,0.01021
2391.85983,0.01034
2389.79966,0.01052
2387.73948,0.01081
2385.67931,0.01105
2383.61914,0.01121
2381.55897,0.01118
2379.49880,0.01088
2377.43862,0.01023
2375.37845,0.00937
2373.31828,0.00865
2371.25811,0.00835
2369.19793,0.00856
2367.13776,0.00920
2365.07759,0.01071
2363.01742,0.01309
2360.95725,0.01389
2358.89707,0.01309
2356.83690,0.01229
2354.77673,0.01169
2352.71656,0.01048
2350.65639,0.00926
2348.59621,0.00956
2346.53604,0.01113
2344.47587,0.01049
2342.41570,0.00961
2340.35552,0.00989
2338.29535,0.00989
2336.23518,0.00950
2334.17501,0.00973
2332.11484,0.01041
2330.05466,0.01055
2327.99449,0.01052
2325.93432,0.01027
2323.87415,0.01048
2321.81398,0.01101
2319.75380,0.01131
2317.69363,0.01120
2315.63346,0.01131
2313.57329,0.01125
2311.51312,0.01087
2309.45294,0.01032
2307.39277,0.00962
2305.33260,0.00909
2303.27243,0.00894
2301.21225,0.00903
2299.15208,0.00929
2297.09191,0.00980
2295.03174,0.01007
2292.97157,0.00988
2290.91139,0.00992
2288.85122,0.01029
2286.79105,0.01015
2284.73088,0.00959
2282.67071,0.00939
2280.61053,0.00941
2278.55036,0.00924
2276.49019,0.00896
2274.43002,0.00859
2272.36984,0.00836
2270.30967,0.00851
2268.24950,0.00840
2266.18933,0.00775
2264.12916,0.00735
2262.06898,0.00755
2260.00881,0.00802
2257.94864,0.00831
2255.88847,0.00794
2253.82830,0.00704
2251.76812,0.00684
2249.70795,0.00752
2247.64778,0.00771
2245.58761,0.00729
2243.52744,0.00745
2241.46726,0.00776
2239.40709,0.00742
2237.34692,0.00693
2235.28675,0.00664
2233.22657,0.00634
2231.16640,0.00627
2229.10623,0.00671
2227.04606,0.00726
2224.98589,0.00748
2222.92571,0.00722
2220.86554,0.00646
2218.80537,0.00565
2216.74520,0.00563
2214.68503,0.00662
2212.62485,0.00769
2210.56468,0.00805
2208.50451,0.00821
2206.44434,0.00806
2204.38417,0.00684
2202.32399,0.00555
2200.26382,0.00501
2198.20365,0.00478
2196.14348,0.00483
2194.08330,0.00476
2192.02313,0.00414
2189.96296,0.00419
2187.90279,0.00540
2185.84262,0.00626
2183.78244,0.00585
2181.72227,0.00483
2179.66210,0.00382
2177.60193,0.00280
2175.54176,0.00269
2173.48158,0.00374
2171.42141,0.00442
2169.36124,0.00438
2167.30107,0.00387
2165.24089,0.00308
2163.18072,0.00348
2161.12055,0.00454
2159.06038,0.00371
2157.00021,0.00237
2154.94003,0.00290
2152.87986,0.00425
2150.81969,0.00462
2148.75952,0.00377
2146.69935,0.00268
2144.63917,0.00256
2142.57900,0.00334
2140.51883,0.00346
2138.45866,0.00272
2136.39849,0.00252
2134.33831,0.00303
2132.27814,0.00287
2130.21797,0.00195
2128.15780,0.00185
2126.09762,0.00311
2124.03745,0.00428
2121.97728,0.00435
2119.91711,0.00391
2117.85694,0.00361
2115.79676,0.00382
2113.73659,0.00435
2111.67642,0.00426
2109.61625,0.00381
2107.55608,0.00372
2105.49590,0.00366
2103.43573,0.00364
2101.37556,0.00358
2099.31539,0.00377
2097.25521,0.00467
2095.19504,0.00533
2093.13487,0.00519
2091.07470,0.00496
2089.01453,0.00521
2086.95435,0.00550
2084.89418,0.00523
2082.83401,0.00454
2080.77384,0.00410
2078.71367,0.00389
2076.65349,0.00325
2074.59332,0.00283
2072.53315,0.00349
2070.47298,0.00417
2068.41281,0.00361
2066.35263,0.00260
2064.29246,0.00230
2062.23229,0.00256
2060.17212,0.00306
2058.11194,0.00349
2056.05177,0.00347
2053.99160,0.00361
2051.93143,0.00342
2049.87126,0.00242
2047.81108,0.00212
2045.75091,0.00263
2043.69074,0.00277
2041.63057,0.00238
2039.57040,0.00249
2037.51022,0.00330
2035.45005,0.00281
2033.38988,0.00149
2031.32971,0.00130
2029.26954,0.00095
2027.20936,0.00000
2025.14919,0.00045
2023.08902,0.00219
2021.02885,0.00271
2018.96867,0.00140
2016.90850,0.00078
2014.84833,0.00155
2012.78816,0.00181
2010.72799,0.00136
2008.66781,0.00111
2006.60764,0.00131
2004.54747,0.00205
2002.48730,0.00292
2000.42713,0.00325
1998.36695,0.00266
1996.30678,0.00149
1994.24661,0.00091
1992.18644,0.00163
1990.12626,0.00280
1988.06609,0.00358
1986.00592,0.00420
1983.94575,0.00418
1981.88558,0.00289
1979.82540,0.00154
1977.76523,0.00116
1975.70506,0.00109
1973.64489,0.00160
1971.58472,0.00285
1969.52454,0.00317
1967.46437,0.00218
1965.40420,0.00118
1963.34403,0.00059
1961.28386,0.00015
1959.22368,0.00015
1957.16351,0.00050
1955.10334,0.00080
1953.04317,0.00082
1950.98299,0.00050
1948.92282,0.00032
1946.86265,0.00023
1944.80248,0.00000
1942.74231,0.00010
1940.68213,0.00084
1938.62196,0.00170
1936.56179,0.00226
1934.50162,0.00223
1932.44145,0.00143
1930.38127,0.00063
1928.32110,0.00088
1926.26093,0.00166
1924.20076,0.00199
1922.14059,0.00191
1920.08041,0.00176
1918.02024,0.00183
1915.96007,0.00217
1913.89990,0.00227
1911.83972,0.00205
1909.77955,0.00209
1907.71938,0.00234
1905.65921,0.00221
1903.59904,0.00177
1901.53886,0.00154
1899.47869,0.00171
1897.41852,0.00195
1895.35835,0.00207
1893.29818,0.00231
1891.23800,0.00269
1889.17783,0.00284
1887.11766,0.00273
1885.05749,0.00272
1882.99731,0.00281
1880.93714,0.00286
1878.87697,0.00302
1876.81680,0.00316
1874.75663,0.00298
1872.69645,0.00263
1870.63628,0.00234
1868.57611,0.00215
1866.51594,0.00216
1864.45577,0.00228
1862.39559,0.00238
1860.33542,0.00249
1858.27525,0.00269
1856.21508,0.00290
1854.15491,0.00296
1852.09473,0.00286
1850.03456,0.00272
1847.97439,0.00273
1845.91422,0.00282
1843.85404,0.00283
1841.79387,0.00280
1839.73370,0.00273
1837.67353,0.00264
1835.61336,0.00273
1833.55318,0.00300
1831.49301,0.00312
1829.43284,0.00295
1827.37267,0.00276
1825.31250,0.00281
1823.25232,0.00292
1821.19215,0.00281
1819.13198,0.00255
1817.07181,0.00252
1815.01163,0.00273
1812.95146,0.00289
1810.89129,0.00291
1808.83112,0.00293
1806.77095,0.00308
1804.71077,0.00328
1802.65060,0.00338
1800.59043,0.00338
1798.53026,0.00336
1796.47009,0.00318
1794.40991,0.00286
1792.34974,0.00275
1790.28957,0.00311
1788.22940,0.00359
1786.16923,0.00375
1784.10905,0.00374
1782.04888,0.00383
1779.98871,0.00388
1777.92854,0.00371
1775.86836,0.00343
1773.80819,0.00326
1771.74802,0.00329
1769.68785,0.00350
1767.62768,0.00375
1765.56750,0.00395
1763.50733,0.00404
1761.44716,0.00405
1759.38699,0.00416
1757.32682,0.00451
1755.26664,0.00489
1753.20647,0.00508
1751.14630,0.00518
1749.08613,0.00526
1747.02596,0.00535
1744.96578,0.00561
1742.90561,0.00599
1740.84544,0.00611
1738.78527,0.00585
1736.72509,0.00553
1734.66492,0.00549
1732.60475,0.00575
1730.54458,0.00604
1728.48441,0.00638
1726.42423,0.00683
1724.36406,0.00721
1722.30389,0.00739
1720.24372,0.00758
1718.18355,0.00786
1716.12337,0.00795
1714.06320,0.00803
1712.00303,0.00835
1709.94286,0.00870
1707.88268,0.00890
1705.82251,0.00912
1703.76234,0.00946
1701.70217,0.00972
1699.64200,0.00987
1697.58182,0.01013
1695.52165,0.01057
1693.46148,0.01100
1691.40131,0.01130
1689.34114,0.01168
1687.28096,0.01219
1685.22079,0.01264
1683.16062,0.01301
1681.10045,0.01341
1679.04028,0.01380
1676.98010,0.01410
1674.91993,0.01419
1672.85976,0.01424
1670.79959,0.01476
1668.73941,0.01566
1666.67924,0.01611
1664.61907,0.01610
1662.55890,0.01616
1660.49873,0.01640
1658.43855,0.01662
1656.37838,0.01687
1654.31821,0.01719
1652.25804,0.01733
1650.19787,0.01721
1648.13769,0.01708
1646.07752,0.01711
1644.01735,0.01725
1641.95718,0.01728
1639.89701,0.01716
1637.83683,0.01691
1635.77666,0.01661
1633.71649,0.01651
1631.65632,0.01660
1629.59614,0.01652
1627.53597,0.01622
1625.47580,0.01596
1623.41563,0.01576
1621.35546,0.01555
1619.29528,0.01539
1617.23511,0.01516
1615.17494,0.01480
1613.11477,0.01454
1611.05460,0.01445
1608.99442,0.01437
1606.93425,0.01416
1604.87408,0.01383
1602.81391,0.01341
1600.75373,0.01294
1598.69356,0.01250
1596.63339,0.01208
1594.57322,0.01173
1592.51305,0.01138
1590.45287,0.01091
1588.39270,0.01044
1586.33253,0.01011
1584.27236,0.00981
1582.21219,0.00945
1580.15201,0.00916
1578.09184,0.00885
1576.03167,0.00832
1573.97150,0.00782
1571.91133,0.00760
1569.85115,0.00735
1567.79098,0.00698
1565.73081,0.00674
1563.67064,0.00666
1561.61046,0.00657
1559.55029,0.00615
1557.49012,0.00543
1555.42995,0.00503
1553.36978,0.00488
1551.30960,0.00477
1549.24943,0.00465
1547.18926,0.00453
1545.12909,0.00442
1543.06892,0.00436
1541.00874,0.00431
1538.94857,0.00401
1536.88840,0.00360
1534.82823,0.00335
1532.76805,0.00325
1530.70788,0.00316
1528.64771,0.00298
1526.58754,0.00281
1524.52737,0.00279
1522.46719,0.00280
1520.40702,0.00259
1518.34685,0.00214
1516.28668,0.00170
1514.22651,0.00156
1512.16633,0.00160
1510.10616,0.00156
1508.04599,0.00136
1505.98582,0.00110
1503.92565,0.00110
1501.86547,0.00128
1499.80530,0.00138
1497.74513,0.00136
1495.68496,0.00139
1493.62478,0.00146
1491.56461,0.00145
1489.50444,0.00139
1487.44427,0.00138
1485.38410,0.00140
1483.32392,0.00140
1481.26375,0.00145
1479.20358,0.00168
1477.14341,0.00197
1475.08324,0.00203
1473.02306,0.00195
1470.96289,0.00206
1468.90272,0.00218
1466.84255,0.00210
1464.78238,0.00208
1462.72220,0.00236
1460.66203,0.00262
1458.60186,0.00257
1456.54169,0.00250
1454.48151,0.00273
1452.42134,0.00287
1450.36117,0.00268
1448.30100,0.00244
1446.24083,0.00247
1444.18065,0.00265
1442.12048,0.00275
1440.06031,0.00277
1438.00014,0.00264
1435.93997,0.00239
1433.87979,0.00224
1431.81962,0.00233
1429.75945,0.00253
1427.69928,0.00274
1425.63910,0.00296
1423.57893,0.00325
1421.51876,0.00352
1419.45859,0.00350
1417.39842,0.00327
1415.33824,0.00328
1413.27807,0.00347
1411.21790,0.00348
1409.15773,0.00330
1407.09756,0.00311
1405.03738,0.00298
1402.97721,0.00292
1400.91704,0.00294
1398.85687,0.00291
1396.79670,0.00268
1394.73652,0.00233
1392.67635,0.00215
1390.61618,0.00229
1388.55601,0.00252
1386.49583,0.00266
1384.43566,0.00270
1382.37549,0.00273
1380.31532,0.00286
1378.25515,0.00301
1376.19497,0.00301
1374.13480,0.00291
1372.07463,0.00280
1370.01446,0.00264
1367.95429,0.00251
1365.89411,0.00251
1363.83394,0.00249
1361.77377,0.00224
1359.71360,0.00190
1357.65343,0.00172
1355.59325,0.00168
1353.53308,0.00164
1351.47291,0.00164
1349.41274,0.00168
1347.35256,0.00165
1345.29239,0.00155
1343.23222,0.00154
1341.17205,0.00174
1339.11188,0.00195
1337.05170,0.00196
1334.99153,0.00187
1332.93136,0.00182
1330.87119,0.00184
1328.81102,0.00185
1326.75084,0.00179
1324.69067,0.00171
1322.63050,0.00175
1320.57033,0.00184
1318.51015,0.00186
1316.44998,0.00191
1314.38981,0.00197
1312.32964,0.00186
1310.26947,0.00164
1308.20929,0.00150
1306.14912,0.00156
1304.08895,0.00181
1302.02878,0.00206
1299.96861,0.00217
1297.90843,0.00216
1295.84826,0.00215
1293.78809,0.00228
1291.72792,0.00257
1289.66775,0.00290
1287.60757,0.00310
1285.54740,0.00304
1283.48723,0.00288
1281.42706,0.00287
1279.36688,0.00308
1277.30671,0.00338
1275.24654,0.00351
1273.18637,0.00341
1271.12620,0.00333
1269.06602,0.00337
1267.00585,0.00338
1264.94568,0.00332
1262.88551,0.00332
1260.82534,0.00332
1258.76516,0.00326
1256.70499,0.00332
1254.64482,0.00346
1252.58465,0.00346
1250.52447,0.00330
1248.46430,0.00310
1246.40413,0.00293
1244.34396,0.00275
1242.28379,0.00247
1240.22361,0.00217
1238.16344,0.00211
1236.10327,0.00225
1234.04310,0.00228
1231.98293,0.00210
1229.92275,0.00183
1227.86258,0.00158
1225.80241,0.00132
1223.74224,0.00104
1221.68207,0.00079
1219.62189,0.00064
1217.56172,0.00049
1215.50155,0.00035
1213.44138,0.00030
1211.38120,0.00028
1209.32103,0.00014
1207.26086,0.00000
1205.20069,0.00004
1203.14052,0.00028
1201.08034,0.00056
1199.02017,0.00074
1196.96000,0.00078
1194.89983,0.00079
1192.83966,0.00099
1190.77948,0.00137
1188.71931,0.00175
1186.65914,0.00226
1184.59897,0.00302
1182.53880,0.00382
1180.47862,0.00459
1178.41845,0.00551
1176.35828,0.00660
1174.29811,0.00767
1172.23793,0.00858
1170.17776,0.00939
1168.11759,0.01029
1166.05742,0.01132
1163.99725,0.01239
1161.93707,0.01340
1159.87690,0.01434
1157.81673,0.01526
1155.75656,0.01622
1153.69639,0.01721
1151.63621,0.01818
1149.57604,0.01928
1147.51587,0.02054
1145.45570,0.02191
1143.39552,0.02327
1141.33535,0.02448
1139.27518,0.02553
1137.21501,0.02660
1135.15484,0.02773
1133.09466,0.02902
1131.03449,0.03055
1128.97432,0.03214
1126.91415,0.03347
1124.85398,0.03488
1122.79380,0.03660
1120.73363,0.03802
1118.67346,0.03909
1116.61329,0.04036
1114.55312,0.04190
1112.49294,0.04344
1110.43277,0.04474
1108.37260,0.04584
1106.31243,0.04721
1104.25225,0.04887
1102.19208,0.05043
1100.13191,0.05169
1098.07174,0.05281
1096.01157,0.05404
1093.95139,0.05542
1091.89122,0.05672
1089.83105,0.05778
1087.77088,0.05869
1085.71071,0.05961
1083.65053,0.06062
1081.59036,0.06155
1079.53019,0.06236
1077.47002,0.06315
1075.40985,0.06386
1073.34967,0.06447
1071.28950,0.06500
1069.22933,0.06533
1067.16916,0.06526
1065.10898,0.06498
1063.04881,0.06484
1060.98864,0.06462
1058.92847,0.06408
1056.86830,0.06330
1054.80812,0.06240
1052.74795,0.06153
1050.68778,0.06068
1048.62761,0.05960
1046.56744,0.05805
1044.50726,0.05624
1042.44709,0.05459
1040.38692,0.05315
1038.32675,0.05173
1036.26657,0.05038
1034.20640,0.04897
1032.14623,0.04734
1030.08606,0.04588
1028.02589,0.04477
1025.96571,0.04378
1023.90554,0.04284
1021.84537,0.04182
1019.78520,0.04072
1017.72503,0.03977
1015.66485,0.03880
1013.60468,0.03762
1011.54451,0.03684
1009.48434,0.03681
1007.42417,0.03692
1005.36399,0.03685
1003.30382,0.03697
1001.24365,0.03755
999.18348,0.03835
997.12330,0.03923
995.06313,0.04045
993.00296,0.04179
990.94279,0.04267
988.88262,0.04320
986.82244,0.04374
984.76227,0.04423
982.70210,0.04447
980.64193,0.04421
978.58176,0.04350
976.52158,0.04262
974.46141,0.04167
972.40124,0.04045
970.34107,0.03880
968.28089,0.03708
966.22072,0.03549
964.16055,0.03377
962.10038,0.03195
960.04021,0.03034
957.98003,0.02911
955.91986,0.02803
953.85969,0.02687
951.79952,0.02587
949.73935,0.02525
947.67917,0.02471
945.61900,0.02410
943.55883,0.02349
941.49866,0.02299
939.43849,0.02267
937.37831,0.02256
935.31814,0.02244
933.25797,0.02212
931.19780,0.02168
929.13762,0.02134
927.07745,0.02136
925.01728,0.02145
922.95711,0.02126
920.89694,0.02062
918.83676,0.01961
916.77659,0.01870
914.71642,0.01803
912.65625,0.01749
910.59608,0.01709
908.53590,0.01679
906.47573,0.01648
904.41556,0.01616
902.35539,0.01600
900.29522,0.01614
898.23504,0.01641
896.17487,0.01642
894.11470,0.01634
892.05453,0.01661
889.99435,0.01685
887.93418,0.01696
885.87401,0.01765
883.81384,0.01875
881.75367,0.01935
879.69349,0.01945
877.63332,0.01967
875.57315,0.02020
873.51298,0.02097
871.45281,0.02178
869.39263,0.02231
867.33246,0.02235
865.27229,0.02196
863.21212,0.02164
861.15194,0.02180
859.09177,0.02204
857.03160,0.02190
854.97143,0.02167
852.91126,0.02146
850.85108,0.02085
848.79091,0.01999
846.73074,0.01923
844.67057,0.01821
842.61040,0.01699
840.55022,0.01627
838.49005,0.01612
836.42988,0.01594
834.36971,0.01554
832.30954,0.01469
830.24936,0.01337
828.18919,0.01234
826.12902,0.01180
824.06885,0.01144
822.00867,0.01111
819.94850,0.01072
817.88833,0.01020
815.82816,0.00951
813.76799,0.00868
811.70781,0.00814
809.64764,0.00838
807.58747,0.00886
805.52730,0.00876
803.46713,0.00825
801.40695,0.00763
799.34678,0.00713
797.28661,0.00703
795.22644,0.00689
793.16627,0.00648
791.10609,0.00619
789.04592,0.00571
786.98575,0.00480
784.92558,0.00436
782.86540,0.00464
780.80523,0.00488
778.74506,0.00523
776.68489,0.00596
774.62472,0.00623
772.56454,0.00558
770.50437,0.00496
768.44420,0.00491
766.38403,0.00494
764.32386,0.00461
762.26368,0.00379
760.20351,0.00305
758.14334,0.00305
756.08317,0.00367
754.02299,0.00431
751.96282,0.00427
749.90265,0.00350
747.84248,0.00293
745.78231,0.00314
743.72213,0.00370
741.66196,0.00383
739.60179,0.00309
737.54162,0.00220
735.48145,0.00225
733.42127,0.00322
731.36110,0.00366
729.30093,0.00300
727.24076,0.00250
725.18059,0.00287
723.12041,0.00379
721.06024,0.00492
719.00007,0.00526
716.93990,0.00459
714.87972,0.00369
712.81955,0.00301
710.75938,0.00247
708.69921,0.00229
706.63904,0.00275
704.57886,0.00350
702.51869,0.00379
700.45852,0.00335
698.39835,0.00293
696.33818,0.00327
694.27800,0.00396
692.21783,0.00411
690.15766,0.00311
688.09749,0.00151
686.03731,0.00055
683.97714,0.00024
681.91697,0.00000
679.85680,0.00027
677.79663,0.00136
675.73645,0.00239
673.67628,0.00235
671.61611,0.00135
669.55594,0.00218
667.49577,0.00347
665.43559,0.00138
663.37542,0.00253
661.31525,0.00450
659.25508,0.00539
657.19491,0.00428
655.13473,0.00287
653.07456,0.00293
651.01439,0.00343
648.95422,0.00352
646.89404,0.00354
644.83387,0.00347
642.77370,0.00339
640.71353,0.00353
638.65336,0.00324
636.59318,0.00248
634.53301,0.00191
632.47284,0.00171
630.41267,0.00164
628.35250,0.00150
626.29232,0.00153
624.23215,0.00242
622.17198,0.00351
620.11181,0.00399
618.05164,0.00381
615.99146,0.00270
613.93129,0.00059
611.87112,0.00000
609.81095,0.00227
607.75077,0.00414
605.69060,0.00245
603.63043,-0.00058
601.57026,-0.00115
599.51009,0.00000
