3996.73391,0.00017
3994.67373,0.00030
3992.61356,0.00038
3990.55339,0.00041
3988.49322,0.00035
3986.43305,0.00028
3984.37287,0.00030
3982.31270,0.00038
3980.25253,0.00037
3978.19236,0.00031
3976.13219,0.00024
3974.07201,0.00009
3972.01184,0.00003
3969.95167,0.00032
3967.89150,0.00081
3965.83133,0.00101
3963.77115,0.00083
3961.71098,0.00064
3959.65081,0.00059
3957.59064,0.00049
3955.53046,0.00033
3953.47029,0.00024
3951.41012,0.00012
3949.34995,0.00000
3947.28978,0.00004
3945.22960,0.00020
3943.16943,0.00034
3941.10926,0.00031
3939.04909,0.00017
3936.98892,0.00023
3934.92874,0.00046
3932.86857,0.00054
3930.80840,0.00054
3928.74823,0.00066
3926.68805,0.00084
3924.62788,0.00077
3922.56771,0.00054
3920.50754,0.00051
3918.44737,0.00062
3916.38719,0.00066
3914.32702,0.00058
3912.26685,0.00047
3910.20668,0.00054
3908.14651,0.00089
3906.08633,0.00118
3904.02616,0.00107
3901.96599,0.00064
3899.90582,0.00034
3897.84565,0.00053
3895.78547,0.00112
3893.72530,0.00155
3891.66513,0.00136
3889.60496,0.00086
3887.54478,0.00077
3885.48461,0.00104
3883.42444,0.00131
3881.36427,0.00131
3879.30410,0.00097
3877.24392,0.00065
3875.18375,0.00056
3873.12358,0.00067
3871.06341,0.00077
3869.00324,0.00059
3866.94306,0.00034
3864.88289,0.00024
3862.82272,0.00017
3860.76255,0.00036
3858.70237,0.00101
3856.64220,0.00167
3854.58203,0.00158
3852.52186,0.00080
3850.46169,0.00053
3848.40151,0.00094
3846.34134,0.00144
3844.28117,0.00151
3842.22100,0.00096
3840.16083,0.00047
3838.10065,0.00058
3836.04048,0.00095
3833.98031,0.00105
3831.92014,0.00097
3829.85997,0.00101
3827.79979,0.00102
3825.73962,0.00091
3823.67945,0.00086
3821.61928,0.00066
3819.55910,0.00046
3817.49893,0.00057
3815.43876,0.00065
3813.37859,0.00066
3811.31842,0.00085
3809.25824,0.00110
3807.19807,0.00118
3805.13790,0.00113
3803.07773,0.00110
3801.01756,0.00133
3798.95738,0.00185
3796.89721,0.00211
3794.83704,0.00169
3792.77687,0.00099
3790.71670,0.00062
3788.65652,0.00072
3786.59635,0.00095
3784.53618,0.00102
3782.47601,0.00118
3780.41583,0.00148
3778.35566,0.00150
3776.29549,0.00125
3774.23532,0.00109
3772.17515,0.00103
3770.11497,0.00101
3768.05480,0.00128
3765.99463,0.00171
3763.93446,0.00184
3761.87429,0.00179
3759.81411,0.00181
3757.75394,0.00172
3755.69377,0.00150
3753.63360,0.00131
3751.57342,0.00124
3749.51325,0.00112
3747.45308,0.00062
3745.39291,0.00003
3743.33274,0.00014
3741.27256,0.00094
3739.21239,0.00152
3737.15222,0.00161
3735.09205,0.00146
3733.03188,0.00126
3730.97170,0.00106
3728.91153,0.00102
3726.85136,0.00109
3724.79119,0.00108
3722.73102,0.00106
3720.67084,0.00120
3718.61067,0.00144
3716.55050,0.00167
3714.49033,0.00190
3712.43015,0.00192
3710.36998,0.00160
3708.30981,0.00145
3706.24964,0.00157
3704.18947,0.00160
3702.12929,0.00144
3700.06912,0.00141
3698.00895,0.00156
3695.94878,0.00170
3693.88861,0.00183
3691.82843,0.00194
3689.76826,0.00201
3687.70809,0.00204
3685.64792,0.00193
3683.58775,0.00199
3681.52757,0.00252
3679.46740,0.00323
3677.40723,0.00341
3675.34706,0.00280
3673.28688,0.00217
3671.22671,0.00216
3669.16654,0.00251
3667.10637,0.00286
3665.04620,0.00320
3662.98602,0.00353
3660.92585,0.00368
3658.86568,0.00363
3656.80551,0.00366
3654.74534,0.00410
3652.68516,0.00490
3650.62499,0.00564
3648.56482,0.00580
3646.50465,0.00556
3644.44447,0.00564
3642.38430,0.00609
3640.32413,0.00647
3638.26396,0.00659
3636.20379,0.00676
3634.14361,0.00732
3632.08344,0.00811
3630.02327,0.00874
3627.96310,0.00902
3625.90293,0.00897
3623.84275,0.00883
3621.78258,0.00899
3619.72241,0.00952
3617.66224,0.01012
3615.60207,0.01065
3613.54189,0.01105
3611.48172,0.01154
3609.42155,0.01232
3607.36138,0.01290
3605.30120,0.01296
3603.24103,0.01304
3601.18086,0.01354
3599.12069,0.01404
3597.06052,0.01400
3595.00034,0.01375
3592.94017,0.01388
3590.88000,0.01425
3588.81983,0.01465
3586.75966,0.01526
3584.69948,0.01614
3582.63931,0.01699
3580.57914,0.01742
3578.51897,0.01754
3576.45879,0.01766
3574.39862,0.01784
3572.33845,0.01826
3570.27828,0.01911
3568.21811,0.01992
3566.15793,0.02024
3564.09776,0.02049
3562.03759,0.02098
3559.97742,0.02133
3557.91725,0.02134
3555.85707,0.02151
3553.79690,0.02207
3551.73673,0.02256
3549.67656,0.02274
3547.61639,0.02295
3545.55621,0.02346
3543.49604,0.02410
3541.43587,0.02461
3539.37570,0.02494
3537.31552,0.02515
3535.25535,0.02546
3533.19518,0.02585
3531.13501,0.02618
3529.07484,0.02661
3527.01466,0.02724
3524.95449,0.02792
3522.89432,0.02863
3520.83415,0.02917
3518.77398,0.02933
3516.71380,0.02933
3514.65363,0.02936
3512.59346,0.02943
3510.53329,0.02961
3508.47312,0.02988
3506.41294,0.03014
3504.35277,0.03044
3502.29260,0.03099
3500.23243,0.03168
3498.17225,0.03212
3496.11208,0.03233
3494.05191,0.03267
3491.99174,0.03306
3489.93157,0.03318
3487.87139,0.03314
3485.81122,0.03344
3483.75105,0.03408
3481.69088,0.03449
3479.63071,0.03443
3477.57053,0.03435
3475.51036,0.03469
3473.45019,0.03521
3471.39002,0.03558
3469.32984,0.03587
3467.26967,0.03610
3465.20950,0.03620
3463.14933,0.03622
3461.08916,0.03623
3459.02898,0.03642
3456.96881,0.03703
3454.90864,0.03786
3452.84847,0.03839
3450.78830,0.03843
3448.72812,0.03834
3446.66795,0.03860
3444.60778,0.03904
3442.54761,0.03934
3440.48744,0.03964
3438.42726,0.04002
3436.36709,0.04037
3434.30692,0.04047
3432.24675,0.04028
3430.18657,0.04021
3428.12640,0.04049
3426.06623,0.04074
3424.00606,0.04082
3421.94589,0.04105
3419.88571,0.04141
3417.82554,0.04165
3415.76537,0.04185
3413.70520,0.04210
3411.64503,0.04214
3409.58485,0.04209
3407.52468,0.04223
3405.46451,0.04240
3403.40434,0.04261
3401.34416,0.04291
3399.28399,0.04320
3397.22382,0.04336
3395.16365,0.04347
3393.10348,0.04388
3391.04330,0.04446
3388.98313,0.04454
3386.92296,0.04422
3384.86279,0.04410
3382.80262,0.04412
3380.74244,0.04397
3378.68227,0.04404
3376.62210,0.04432
3374.56193,0.04443
3372.50176,0.04459
3370.44158,0.04496
3368.38141,0.04508
3366.32124,0.04479
3364.26107,0.04439
3362.20089,0.04421
3360.14072,0.04438
3358.08055,0.04468
3356.02038,0.04490
3353.96021,0.04507
3351.90003,0.04516
3349.83986,0.04513
3347.77969,0.04518
3345.71952,0.04543
3343.65935,0.04554
3341.59917,0.04534
3339.53900,0.04513
3337.47883,0.04520
3335.41866,0.04549
3333.35849,0.04565
3331.29831,0.04564
3329.23814,0.04558
3327.17797,0.04544
3325.11780,0.04544
3323.05762,0.04567
3320.99745,0.04581
3318.93728,0.04562
3316.87711,0.04534
3314.81694,0.04540
3312.75676,0.04570
3310.69659,0.04579
3308.63642,0.04566
3306.57625,0.04555
3304.51608,0.04558
3302.45590,0.04563
3300.39573,0.04557
3298.33556,0.04544
3296.27539,0.04525
3294.21521,0.04498
3292.15504,0.04489
3290.09487,0.04514
3288.03470,0.04545
3285.97453,0.04558
3283.91435,0.04558
3281.85418,0.04546
3279.79401,0.04533
3277.73384,0.04534
3275.67367,0.04553
3273.61349,0.04576
3271.55332,0.04585
3269.49315,0.04579
3267.43298,0.04566
3265.37281,0.04567
3263.31263,0.04590
3261.25246,0.04614
3259.19229,0.04610
3257.13212,0.04576
3255.07194,0.04555
3253.01177,0.04569
3250.95160,0.04585
3248.89143,0.04570
3246.83126,0.04544
3244.77108,0.04551
3242.71091,0.04563
3240.65074,0.04532
3238.59057,0.04492
3236.53040,0.04472
3234.47022,0.04459
3232.41005,0.04451
3230.34988,0.04443
3228.28971,0.04441
3226.22954,0.04468
3224.16936,0.04493
3222.10919,0.04472
3220.04902,0.04440
3217.98885,0.04435
3215.92867,0.04445
3213.86850,0.04449
3211.80833,0.04445
3209.74816,0.04429
3207.68799,0.04414
3205.62781,0.04402
3203.56764,0.04371
3201.50747,0.04327
3199.44730,0.04282
3197.38713,0.04262
3195.32695,0.04292
3193.26678,0.04330
3191.20661,0.04325
3189.14644,0.04291
3187.08626,0.04252
3185.02609,0.04225
3182.96592,0.04231
3180.90575,0.04232
3178.84558,0.04202
3176.78540,0.04169
3174.72523,0.04156
3172.66506,0.04159
3170.60489,0.04148
3168.54472,0.04105
3166.48454,0.04067
3164.42437,0.04065
3162.36420,0.04072
3160.30403,0.04061
3158.24386,0.04032
3156.18368,0.04005
3154.12351,0.04000
3152.06334,0.04012
3150.00317,0.04023
3147.94299,0.04026
3145.88282,0.04006
3143.82265,0.03969
3141.76248,0.03938
3139.70231,0.03916
3137.64213,0.03884
3135.58196,0.03843
3133.52179,0.03826
3131.46162,0.03838
3129.40145,0.03839
3127.34127,0.03819
3125.28110,0.03805
3123.22093,0.03803
3121.16076,0.03785
3119.10058,0.03740
3117.04041,0.03699
3114.98024,0.03691
3112.92007,0.03700
3110.85990,0.03697
3108.79972,0.03662
3106.73955,0.03606
3104.67938,0.03567
3102.61921,0.03541
3100.55904,0.03513
3098.49886,0.03498
3096.43869,0.03496
3094.37852,0.03486
3092.31835,0.03473
3090.25818,0.03467
3088.19800,0.03449
3086.13783,0.03419
3084.07766,0.03399
3082.01749,0.03386
3079.95731,0.03377
3077.89714,0.03375
3075.83697,0.03365
3073.77680,0.03348
3071.71663,0.03336
3069.65645,0.03318
3067.59628,0.03294
3065.53611,0.03262
3063.47594,0.03221
3061.41577,0.03191
3059.35559,0.03183
3057.29542,0.03168
3055.23525,0.03130
3053.17508,0.03095
3051.11491,0.03074
3049.05473,0.03060
3046.99456,0.03049
3044.93439,0.03025
3042.87422,0.03004
3040.81404,0.03002
3038.75387,0.02991
3036.69370,0.02957
3034.63353,0.02928
3032.57336,0.02924
3030.51318,0.02920
3028.45301,0.02896
3026.39284,0.02867
3024.33267,0.02849
3022.27250,0.02830
3020.21232,0.02810
3018.15215,0.02799
3016.09198,0.02774
3014.03181,0.02735
3011.97163,0.02705
3009.91146,0.02677
3007.85129,0.02656
3005.79112,0.02657
3003.73095,0.02661
3001.67077,0.02650
2999.61060,0.02633
2997.55043,0.02614
2995.49026,0.02593
2993.43009,0.02582
2991.36991,0.02585
2989.30974,0.02571
2987.24957,0.02540
2985.18940,0.02521
2983.12923,0.02497
2981.06905,0.02461
2979.00888,0.02457
2976.94871,0.02476
2974.88854,0.02462
2972.82836,0.02424
2970.76819,0.02412
2968.70802,0.02427
2966.64785,0.02448
2964.58768,0.02470
2962.52750,0.02478
2960.46733,0.02470
2958.40716,0.02467
2956.34699,0.02475
2954.28682,0.02482
2952.22664,0.02483
2950.16647,0.02478
2948.10630,0.02470
2946.04613,0.02474
2943.98596,0.02488
2941.92578,0.02491
2939.86561,0.02492
2937.80544,0.02493
2935.74527,0.02478
2933.68509,0.02455
2931.62492,0.02453
2929.56475,0.02463
2927.50458,0.02447
2925.44441,0.02430
2923.38423,0.02425
2921.32406,0.02404
2919.26389,0.02371
2917.20372,0.02354
2915.14355,0.02360
2913.08337,0.02368
2911.02320,0.02341
2908.96303,0.02291
2906.90286,0.02269
2904.84268,0.02264
2902.78251,0.02245
2900.72234,0.02225
2898.66217,0.02219
2896.60200,0.02219
2894.54182,0.02220
2892.48165,0.02216
2890.42148,0.02196
2888.36131,0.02181
2886.30114,0.02197
2884.24096,0.02218
2882.18079,0.02213
2880.12062,0.02201
2878.06045,0.02191
2876.00028,0.02173
2873.94010,0.02149
2871.87993,0.02130
2869.81976,0.02127
2867.75959,0.02120
2865.69941,0.02086
2863.63924,0.02047
2861.57907,0.02038
2859.51890,0.02043
2857.45873,0.02033
2855.39855,0.02020
2853.33838,0.02008
2851.27821,0.01985
2849.21804,0.01967
2847.15787,0.01974
2845.09769,0.01977
2843.03752,0.01956
2840.97735,0.01930
2838.91718,0.01912
2836.85700,0.01894
2834.79683,0.01878
2832.73666,0.01866
2830.67649,0.01857
2828.61632,0.01849
2826.55614,0.01845
2824.49597,0.01837
2822.43580,0.01825
2820.37563,0.01819
2818.31546,0.01810
2816.25528,0.01777
2814.19511,0.01730
2812.13494,0.01697
2810.07477,0.01678
2808.01460,0.01658
2805.95442,0.01651
2803.89425,0.01658
2801.83408,0.01655
2799.77391,0.01659
2797.71373,0.01678
2795.65356,0.01685
2793.59339,0.01670
2791.53322,0.01648
2789.47305,0.01636
2787.41287,0.01629
2785.35270,0.01615
2783.29253,0.01601
2781.23236,0.01590
2779.17219,0.01593
2777.11201,0.01607
2775.05184,0.01605
2772.99167,0.01581
2770.93150,0.01554
2768.87133,0.01536
2766.81115,0.01543
2764.75098,0.01565
2762.69081,0.01565
2760.63064,0.01533
2758.57046,0.01501
2756.51029,0.01486
2754.45012,0.01477
2752.38995,0.01472
2750.32978,0.01474
2748.26960,0.01479
2746.20943,0.01481
2744.14926,0.01479
2742.08909,0.01468
2740.02892,0.01442
2737.96874,0.01414
2735.90857,0.01403
2733.84840,0.01399
2731.78823,0.01403
2729.72805,0.01412
2727.66788,0.01402
2725.60771,0.01385
2723.54754,0.01382
2721.48737,0.01376
2719.42719,0.01364
2717.36702,0.01361
2715.30685,0.01354
2713.24668,0.01340
2711.18651,0.01337
2709.12633,0.01338
2707.06616,0.01329
2705.00599,0.01313
2702.94582,0.01279
2700.88565,0.01244
2698.82547,0.01237
2696.76530,0.01242
2694.70513,0.01231
2692.64496,0.01214
2690.58478,0.01216
2688.52461,0.01229
2686.46444,0.01224
2684.40427,0.01202
2682.34410,0.01191
2680.28392,0.01192
2678.22375,0.01189
2676.16358,0.01179
2674.10341,0.01163
2672.04324,0.01155
2669.98306,0.01155
2667.92289,0.01149
2665.86272,0.01138
2663.80255,0.01132
2661.74238,0.01126
2659.68220,0.01117
2657.62203,0.01115
2655.56186,0.01122
2653.50169,0.01119
2651.44151,0.01105
2649.38134,0.01093
2647.32117,0.01083
2645.26100,0.01075
2643.20083,0.01071
2641.14065,0.01069
2639.08048,0.01064
2637.02031,0.01058
2634.96014,0.01053
2632.89997,0.01032
2630.83979,0.01009
2628.77962,0.01004
2626.71945,0.00986
2624.65928,0.00950
2622.59910,0.00934
2620.53893,0.00931
2618.47876,0.00924
2616.41859,0.00918
2614.35842,0.00909
2612.29824,0.00905
2610.23807,0.00922
2608.17790,0.00931
2606.11773,0.00914
2604.05756,0.00896
2601.99738,0.00893
2599.93721,0.00885
2597.87704,0.00862
2595.81687,0.00852
2593.75670,0.00869
2591.69652,0.00879
2589.63635,0.00854
2587.57618,0.00824
2585.51601,0.00808
2583.45583,0.00788
2581.39566,0.00772
2579.33549,0.00769
2577.27532,0.00761
2575.21515,0.00761
2573.15497,0.00773
2571.09480,0.00781
2569.03463,0.00790
2566.97446,0.00821
2564.91429,0.00862
2562.85411,0.00865
2560.79394,0.00819
2558.73377,0.00767
2556.67360,0.00736
2554.61342,0.00728
2552.55325,0.00749
2550.49308,0.00771
2548.43291,0.00769
2546.37274,0.00774
2544.31256,0.00796
2542.25239,0.00792
2540.19222,0.00786
2538.13205,0.00795
2536.07188,0.00785
2534.01170,0.00777
2531.95153,0.00785
2529.89136,0.00784
2527.83119,0.00781
2525.77102,0.00784
2523.71084,0.00777
2521.65067,0.00769
2519.59050,0.00773
2517.53033,0.00773
2515.47015,0.00764
2513.40998,0.00768
2511.34981,0.00800
2509.28964,0.00818
2507.22947,0.00801
2505.16929,0.00799
2503.10912,0.00807
2501.04895,0.00789
2498.98878,0.00775
2496.92861,0.00776
2494.86843,0.00771
2492.80826,0.00781
2490.74809,0.00820
2488.68792,0.00849
2486.62775,0.00844
2484.56757,0.00837
2482.50740,0.00854
2480.44723,0.00871
2478.38706,0.00864
2476.32688,0.00844
2474.26671,0.00827
2472.20654,0.00821
2470.14637,0.00832
2468.08620,0.00838
2466.02602,0.00818
2463.96585,0.00821
2461.90568,0.00856
2459.84551,0.00868
2457.78534,0.00844
2455.72516,0.00817
2453.66499,0.00820
2451.60482,0.00832
2449.54465,0.00825
2447.48447,0.00834
2445.42430,0.00881
2443.36413,0.00911
2441.30396,0.00888
2439.24379,0.00840
2437.18361,0.00813
2435.12344,0.00817
2433.06327,0.00824
2431.00310,0.00830
2428.94293,0.00857
2426.88275,0.00888
2424.82258,0.00893
2422.76241,0.00876
2420.70224,0.00863
2418.64207,0.00866
2416.58189,0.00873
2414.52172,0.00864
2412.46155,0.00847
2410.40138,0.00849
2408.34120,0.00859
2406.28103,0.00854
2404.22086,0.00855
2402.16069,0.00865
2400.10052,0.00844
2398.04034,0.00820
2395.98017,0.00813
2393.92000,0.00811
2391.85983,0.00806
2389.79966,0.00804
2387.73948,0.00802
2385.67931,0.00802
2383.61914,0.00815
2381.55897,0.00827
2379.49880,0.00819
2377.43862,0.00811
2375.37845,0.00835
2373.31828,0.00848
2371.25811,0.00805
2369.19793,0.00773
2367.13776,0.00722
2365.07759,0.00512
2363.01742,0.00243
2360.95725,0.00119
2358.89707,0.00243
2356.83690,0.00427
2354.77673,0.00582
2352.71656,0.00697
2350.65639,0.00691
2348.59621,0.00684
2346.53604,0.00793
2344.47587,0.00725
2342.41570,0.00630
2340.35552,0.00600
2338.29535,0.00558
2336.23518,0.00587
2334.17501,0.00692
2332.11484,0.00749
2330.05466,0.00710
2327.99449,0.00704
2325.93432,0.00784
2323.87415,0.00913
2321.81398,0.00905
2319.75380,0.00788
2317.69363,0.00695
2315.63346,0.00683
2313.57329,0.00695
2311.51312,0.00722
2309.45294,0.00758
2307.39277,0.00785
2305.33260,0.00813
2303.27243,0.00846
2301.21225,0.00857
2299.15208,0.00830
2297.09191,0.00807
2295.03174,0.00805
2292.97157,0.00796
2290.91139,0.00774
2288.85122,0.00766
2286.79105,0.00781
2284.73088,0.00786
2282.67071,0.00754
2280.61053,0.00698
2278.55036,0.00660
2276.49019,0.00669
2274.43002,0.00695
2272.36984,0.00681
2270.30967,0.00637
2268.24950,0.00627
2266.18933,0.00645
2264.12916,0.00646
2262.06898,0.00640
2260.00881,0.00634
2257.94864,0.00626
2255.88847,0.00627
2253.82830,0.00628
2251.76812,0.00595
2249.70795,0.00505
2247.64778,0.00431
2245.58761,0.00457
2243.52744,0.00525
2241.46726,0.00568
2239.40709,0.00576
2237.34692,0.00589
2235.28675,0.00598
2233.22657,0.00583
2231.16640,0.00642
2229.10623,0.00743
2227.04606,0.00722
2224.98589,0.00645
2222.92571,0.00626
2220.86554,0.00637
2218.80537,0.00620
2216.74520,0.00535
2214.68503,0.00431
2212.62485,0.00398
2210.56468,0.00434
2208.50451,0.00462
2206.44434,0.00446
2204.38417,0.00447
2202.32399,0.00469
2200.26382,0.00507
2198.20365,0.00604
2196.14348,0.00669
2194.08330,0.00630
2192.02313,0.00572
2189.96296,0.00532
2187.90279,0.00467
2185.84262,0.00425
2183.78244,0.00484
2181.72227,0.00576
2179.66210,0.00587
2177.60193,0.00504
2175.54176,0.00401
2173.48158,0.00328
2171.42141,0.00336
2169.36124,0.00445
2167.30107,0.00599
2165.24089,0.00700
2163.18072,0.00628
2161.12055,0.00433
2159.06038,0.00268
2157.00021,0.00163
2154.94003,0.00144
2152.87986,0.00166
2150.81969,0.00102
2148.75952,0.00023
2146.69935,0.00056
2144.63917,0.00142
2142.57900,0.00184
2140.51883,0.00202
2138.45866,0.00236
2136.39849,0.00218
2134.33831,0.00173
2132.27814,0.00205
2130.21797,0.00253
2128.15780,0.00238
2126.09762,0.00233
2124.03745,0.00290
2121.97728,0.00321
2119.91711,0.00307
2117.85694,0.00321
2115.79676,0.00385
2113.73659,0.00437
2111.67642,0.00450
2109.61625,0.00446
2107.55608,0.00404
2105.49590,0.00340
2103.43573,0.00341
2101.37556,0.00395
2099.31539,0.00406
2097.25521,0.00367
2095.19504,0.00342
2093.13487,0.00364
2091.07470,0.00387
2089.01453,0.00387
2086.95435,0.00379
2084.89418,0.00358
2082.83401,0.00327
2080.77384,0.00294
2078.71367,0.00285
2076.65349,0.00332
2074.59332,0.00408
2072.53315,0.00450
2070.47298,0.00445
2068.41281,0.00415
2066.35263,0.00409
2064.29246,0.00443
2062.23229,0.00446
2060.17212,0.00401
2058.11194,0.00374
2056.05177,0.00376
2053.99160,0.00380
2051.93143,0.00383
2049.87126,0.00395
2047.81108,0.00399
2045.75091,0.00347
2043.69074,0.00267
2041.63057,0.00275
2039.57040,0.00412
2037.51022,0.00535
2035.45005,0.00487
2033.38988,0.00328
2031.32971,0.00235
2029.26954,0.00233
2027.20936,0.00243
2025.14919,0.00261
2023.08902,0.00281
2021.02885,0.00291
2018.96867,0.00319
2016.90850,0.00358
2014.84833,0.00374
2012.78816,0.00373
2010.72799,0.00288
2008.66781,0.00091
2006.60764,0.00026
2004.54747,0.00164
2002.48730,0.00236
2000.42713,0.00178
1998.36695,0.00165
1996.30678,0.00208
1994.24661,0.00238
1992.18644,0.00259
1990.12626,0.00260
1988.06609,0.00229
1986.00592,0.00206
1983.94575,0.00226
1981.88558,0.00219
1979.82540,0.00124
1977.76523,0.00028
1975.70506,0.00025
1973.64489,0.00063
1971.58472,0.00078
1969.52454,0.00070
1967.46437,0.00099
1965.40420,0.00181
1963.34403,0.00212
1961.28386,0.00162
1959.22368,0.00140
1957.16351,0.00193
1955.10334,0.00217
1953.04317,0.00157
1950.98299,0.00112
1948.92282,0.00169
1946.86265,0.00252
1944.80248,0.00284
1942.74231,0.00287
1940.68213,0.00268
1938.62196,0.00255
1936.56179,0.00269
1934.50162,0.00275
1932.44145,0.00277
1930.38127,0.00276
1928.32110,0.00219
1926.26093,0.00137
1924.20076,0.00112
1922.14059,0.00144
1920.08041,0.00180
1918.02024,0.00175
1915.96007,0.00146
1913.89990,0.00166
1911.83972,0.00230
1909.77955,0.00272
1907.71938,0.00262
1905.65921,0.00231
1903.59904,0.00236
1901.53886,0.00251
1899.47869,0.00227
1897.41852,0.00186
1895.35835,0.00157
1893.29818,0.00142
1891.23800,0.00159
1889.17783,0.00200
1887.11766,0.00219
1885.05749,0.00217
1882.99731,0.00234
1880.93714,0.00261
1878.87697,0.00262
1876.81680,0.00229
1874.75663,0.00199
1872.69645,0.00204
1870.63628,0.00237
1868.57611,0.00276
1866.51594,0.00297
1864.45577,0.00289
1862.39559,0.00262
1860.33542,0.00235
1858.27525,0.00224
1856.21508,0.00219
1854.15491,0.00196
1852.09473,0.00169
1850.03456,0.00166
1847.97439,0.00198
1845.91422,0.00249
1843.85404,0.00270
1841.79387,0.00247
1839.73370,0.00227
1837.67353,0.00230
1835.61336,0.00240
1833.55318,0.00234
1831.49301,0.00210
1829.43284,0.00197
1827.37267,0.00210
1825.31250,0.00232
1823.25232,0.00237
1821.19215,0.00222
1819.13198,0.00208
1817.07181,0.00216
1815.01163,0.00238
1812.95146,0.00254
1810.89129,0.00250
1808.83112,0.00231
1806.77095,0.00220
1804.71077,0.00224
1802.65060,0.00238
1800.59043,0.00251
1798.53026,0.00256
1796.47009,0.00247
1794.40991,0.00237
1792.34974,0.00247
1790.28957,0.00258
1788.22940,0.00249
1786.16923,0.00247
1784.10905,0.00259
1782.04888,0.00264
1779.98871,0.00264
1777.92854,0.00263
1775.86836,0.00257
1773.80819,0.00247
1771.74802,0.00244
1769.68785,0.00268
1767.62768,0.00308
1765.56750,0.00342
1763.50733,0.00360
1761.44716,0.00364
1759.38699,0.00367
1757.32682,0.00376
1755.26664,0.00387
1753.20647,0.00399
1751.14630,0.00416
1749.08613,0.00434
1747.02596,0.00448
1744.96578,0.00459
1742.90561,0.00475
1740.84544,0.00494
1738.78527,0.00517
1736.72509,0.00544
1734.66492,0.00567
1732.60475,0.00584
1730.54458,0.00590
1728.48441,0.00591
1726.42423,0.00599
1724.36406,0.00616
1722.30389,0.00629
1720.24372,0.00639
1718.18355,0.00688
1716.12337,0.00763
1714.06320,0.00792
1712.00303,0.00777
1709.94286,0.00764
1707.88268,0.00774
1705.82251,0.00805
1703.76234,0.00837
1701.70217,0.00873
1699.64200,0.00937
1697.58182,0.00995
1695.52165,0.01015
1693.46148,0.01015
1691.40131,0.01014
1689.34114,0.01020
1687.28096,0.01037
1685.22079,0.01098
1683.16062,0.01213
1681.10045,0.01296
1679.04028,0.01317
1676.98010,0.01324
1674.91993,0.01356
1672.85976,0.01402
1670.79959,0.01450
1668.73941,0.01503
1666.67924,0.01542
1664.61907,0.01573
1662.55890,0.01625
1660.49873,0.01672
1658.43855,0.01678
1656.37838,0.01661
1654.31821,0.01668
1652.25804,0.01709
1650.19787,0.01706
1648.13769,0.01677
1646.07752,0.01696
1644.01735,0.01736
1641.95718,0.01747
1639.89701,0.01730
1637.83683,0.01710
1635.77666,0.01720
1633.71649,0.01747
1631.65632,0.01745
1629.59614,0.01720
1627.53597,0.01687
1625.47580,0.01662
1623.41563,0.01653
1621.35546,0.01647
1619.29528,0.01635
1617.23511,0.01634
1615.17494,0.01636
1613.11477,0.01619
1611.05460,0.01593
1608.99442,0.01577
1606.93425,0.01569
1604.87408,0.01554
1602.81391,0.01518
1600.75373,0.01465
1598.69356,0.01414
1596.63339,0.01371
1594.57322,0.01322
1592.51305,0.01260
1590.45287,0.01198
1588.39270,0.01151
1586.33253,0.01117
1584.27236,0.01081
1582.21219,0.01037
1580.15201,0.00986
1578.09184,0.00939
1576.03167,0.00909
1573.97150,0.00875
1571.91133,0.00825
1569.85115,0.00782
1567.79098,0.00763
1565.73081,0.00747
1563.67064,0.00717
1561.61046,0.00676
1559.55029,0.00642
1557.49012,0.00635
1555.42995,0.00621
1553.36978,0.00587
1551.30960,0.00548
1549.24943,0.00513
1547.18926,0.00489
1545.12909,0.00471
1543.06892,0.00444
1541.00874,0.00420
1538.94857,0.00419
1536.88840,0.00420
1534.82823,0.00409
1532.76805,0.00389
1530.70788,0.00357
1528.64771,0.00317
1526.58754,0.00287
1524.52737,0.00277
1522.46719,0.00284
1520.40702,0.00291
1518.34685,0.00286
1516.28668,0.00271
1514.22651,0.00243
1512.16633,0.00214
1510.10616,0.00200
1508.04599,0.00203
1505.98582,0.00205
1503.92565,0.00189
1501.86547,0.00164
1499.80530,0.00145
1497.74513,0.00144
1495.68496,0.00153
1493.62478,0.00152
1491.56461,0.00145
1489.50444,0.00157
1487.44427,0.00182
1485.38410,0.00189
1483.32392,0.00181
1481.26375,0.00178
1479.20358,0.00185
1477.14341,0.00199
1475.08324,0.00223
1473.02306,0.00267
1470.96289,0.00316
1468.90272,0.00339
1466.84255,0.00342
1464.78238,0.00345
1462.72220,0.00348
1460.66203,0.00344
1458.60186,0.00361
1456.54169,0.00412
1454.48151,0.00442
1452.42134,0.00424
1450.36117,0.00388
1448.30100,0.00364
1446.24083,0.00360
1444.18065,0.00366
1442.12048,0.00373
1440.06031,0.00377
1438.00014,0.00391
1435.93997,0.00420
1433.87979,0.00435
1431.81962,0.00429
1429.75945,0.00423
1427.69928,0.00432
1425.63910,0.00454
1423.57893,0.00478
1421.51876,0.00495
1419.45859,0.00522
1417.39842,0.00555
1415.33824,0.00561
1413.27807,0.00546
1411.21790,0.00538
1409.15773,0.00536
1407.09756,0.00534
1405.03738,0.00538
1402.97721,0.00536
1400.91704,0.00521
1398.85687,0.00506
1396.79670,0.00498
1394.73652,0.00489
1392.67635,0.00477
1390.61618,0.00467
1388.55601,0.00466
1386.49583,0.00469
1384.43566,0.00460
1382.37549,0.00442
1380.31532,0.00434
1378.25515,0.00438
1376.19497,0.00452
1374.13480,0.00468
1372.07463,0.00470
1370.01446,0.00453
1367.95429,0.00432
1365.89411,0.00416
1363.83394,0.00404
1361.77377,0.00389
1359.71360,0.00368
1357.65343,0.00344
1355.59325,0.00324
1353.53308,0.00308
1351.47291,0.00295
1349.41274,0.00291
1347.35256,0.00291
1345.29239,0.00287
1343.23222,0.00282
1341.17205,0.00283
1339.11188,0.00284
1337.05170,0.00276
1334.99153,0.00258
1332.93136,0.00242
1330.87119,0.00236
1328.81102,0.00232
1326.75084,0.00232
1324.69067,0.00242
1322.63050,0.00243
1320.57033,0.00221
1318.51015,0.00207
1316.44998,0.00227
1314.38981,0.00262
1312.32964,0.00278
1310.26947,0.00270
1308.20929,0.00248
1306.14912,0.00234
1304.08895,0.00244
1302.02878,0.00261
1299.96861,0.00263
1297.90843,0.00256
1295.84826,0.00249
1293.78809,0.00249
1291.72792,0.00265
1289.66775,0.00287
1287.60757,0.00299
1285.54740,0.00301
1283.48723,0.00300
1281.42706,0.00299
1279.36688,0.00302
1277.30671,0.00305
1275.24654,0.00308
1273.18637,0.00314
1271.12620,0.00320
1269.06602,0.00326
1267.00585,0.00341
1264.94568,0.00364
1262.88551,0.00372
1260.82534,0.00358
1258.76516,0.00344
1256.70499,0.00342
1254.64482,0.00341
1252.58465,0.00345
1250.52447,0.00356
1248.46430,0.00368
1246.40413,0.00367
1244.34396,0.00344
1242.28379,0.00321
1240.22361,0.00309
1238.16344,0.00293
1236.10327,0.00266
1234.04310,0.00239
1231.98293,0.00214
1229.92275,0.00201
1227.86258,0.00204
1225.80241,0.00199
1223.74224,0.00172
1221.68207,0.00140
1219.62189,0.00120
1217.56172,0.00108
1215.50155,0.00099
1213.44138,0.00082
1211.38120,0.00060
1209.32103,0.00050
1207.26086,0.00045
1205.20069,0.00035
1203.14052,0.00031
1201.08034,0.00036
1199.02017,0.00036
1196.96000,0.00040
1194.89983,0.00051
1192.83966,0.00068
1190.77948,0.00101
1188.71931,0.00141
1186.65914,0.00187
1184.59897,0.00241
1182.53880,0.00289
1180.47862,0.00346
1178.41845,0.00430
1176.35828,0.00518
1174.29811,0.00597
1172.23793,0.00678
1170.17776,0.00762
1168.11759,0.00843
1166.05742,0.00927
1163.99725,0.01020
1161.93707,0.01113
1159.87690,0.01191
1157.81673,0.01255
1155.75656,0.01322
1153.69639,0.01397
1151.63621,0.01476
1149.57604,0.01568
1147.51587,0.01662
1145.45570,0.01736
1143.39552,0.01796
1141.33535,0.01856
1139.27518,0.01936
1137.21501,0.02045
1135.15484,0.02162
1133.09466,0.02267
1131.03449,0.02371
1128.97432,0.02478
1126.91415,0.02580
1124.85398,0.02680
1122.79380,0.02781
1120.73363,0.02872
1118.67346,0.02969
1116.61329,0.03083
1114.55312,0.03200
1112.49294,0.03312
1110.43277,0.03424
1108.37260,0.03548
1106.31243,0.03675
1104.25225,0.03777
1102.19208,0.03858
1100.13191,0.03954
1098.07174,0.04074
1096.01157,0.04193
1093.95139,0.04292
1091.89122,0.04395
1089.83105,0.04509
1087.77088,0.04612
1085.71071,0.04691
1083.65053,0.04752
1081.59036,0.04811
1079.53019,0.04882
1077.47002,0.04961
1075.40985,0.05034
1073.34967,0.05087
1071.28950,0.05101
1069.22933,0.05084
1067.16916,0.05090
1065.10898,0.05115
1063.04881,0.05105
1060.98864,0.05052
1058.92847,0.04991
1056.86830,0.04949
1054.80812,0.04913
1052.74795,0.04854
1050.68778,0.04789
1048.62761,0.04745
1046.56744,0.04687
1044.50726,0.04603
1042.44709,0.04511
1040.38692,0.04412
1038.32675,0.04302
1036.26657,0.04199
1034.20640,0.04122
1032.14623,0.04038
1030.08606,0.03915
1028.02589,0.03785
1025.96571,0.03684
1023.90554,0.03596
1021.84537,0.03500
1019.78520,0.03414
1017.72503,0.03347
1015.66485,0.03269
1013.60468,0.03171
1011.54451,0.03079
1009.48434,0.03009
1007.42417,0.02954
1005.36399,0.02916
1003.30382,0.02907
1001.24365,0.02918
999.18348,0.02957
997.12330,0.03017
995.06313,0.03081
993.00296,0.03142
990.94279,0.03187
988.88262,0.03216
986.82244,0.03220
984.76227,0.03199
982.70210,0.03174
980.64193,0.03149
978.58176,0.03109
976.52158,0.03030
974.46141,0.02902
972.40124,0.02757
970.34107,0.02621
968.28089,0.02486
966.22072,0.02359
964.16055,0.02252
962.10038,0.02154
960.04021,0.02055
957.98003,0.01947
955.91986,0.01841
953.85969,0.01740
951.79952,0.01631
949.73935,0.01538
947.67917,0.01492
945.61900,0.01471
943.55883,0.01437
941.49866,0.01413
939.43849,0.01396
937.37831,0.01362
935.31814,0.01309
933.25797,0.01273
931.19780,0.01282
929.13762,0.01295
927.07745,0.01270
925.01728,0.01239
922.95711,0.01224
920.89694,0.01203
918.83676,0.01161
916.77659,0.01098
914.71642,0.01028
912.65625,0.00960
910.59608,0.00894
908.53590,0.00869
906.47573,0.00890
904.41556,0.00911
902.35539,0.00918
900.29522,0.00918
898.23504,0.00917
896.17487,0.00914
894.11470,0.00913
892.05453,0.00894
889.99435,0.00878
887.93418,0.00908
885.87401,0.00959
883.81384,0.00993
881.75367,0.01042
879.69349,0.01139
877.63332,0.01222
875.57315,0.01248
873.51298,0.01264
871.45281,0.01265
869.39263,0.01240
867.33246,0.01241
865.27229,0.01270
863.21212,0.01285
861.15194,0.01274
859.09177,0.01252
857.03160,0.01241
854.97143,0.01235
852.91126,0.01212
850.85108,0.01180
848.79091,0.01141
846.73074,0.01097
844.67057,0.01086
842.61040,0.01089
840.55022,0.01048
838.49005,0.00960
836.42988,0.00882
834.36971,0.00836
832.30954,0.00795
830.24936,0.00757
828.18919,0.00733
826.12902,0.00700
824.06885,0.00654
822.00867,0.00632
819.94850,0.00647
817.88833,0.00643
815.82816,0.00600
813.76799,0.00556
811.70781,0.00505
809.64764,0.00459
807.58747,0.00462
805.52730,0.00488
803.46713,0.00497
801.40695,0.00476
799.34678,0.00422
797.28661,0.00365
795.22644,0.00361
793.16627,0.00399
791.10609,0.00421
789.04592,0.00432
786.98575,0.00443
784.92558,0.00412
782.86540,0.00352
780.80523,0.00313
778.74506,0.00321
776.68489,0.00360
774.62472,0.00373
772.56454,0.00366
770.50437,0.00384
768.44420,0.00396
766.38403,0.00352
764.32386,0.00289
762.26368,0.00277
760.20351,0.00297
758.14334,0.00264
756.08317,0.00173
754.02299,0.00143
751.96282,0.00190
749.90265,0.00226
747.84248,0.00244
745.78231,0.00272
743.72213,0.00271
741.66196,0.00217
739.60179,0.00182
737.54162,0.00195
735.48145,0.00227
733.42127,0.00269
731.36110,0.00302
729.30093,0.00292
727.24076,0.00275
725.18059,0.00293
723.12041,0.00319
721.06024,0.00369
719.00007,0.00389
716.93990,0.00387
714.87972,0.00388
712.81955,0.00380
710.75938,0.00351
708.69921,0.00318
706.63904,0.00303
704.57886,0.00297
702.51869,0.00283
700.45852,0.00272
698.39835,0.00258
696.33818,0.00231
694.27800,0.00221
692.21783,0.00241
690.15766,0.00255
688.09749,0.00255
686.03731,0.00265
683.97714,0.00285
681.91697,0.00310
679.85680,0.00341
677.79663,0.00353
675.73645,0.00328
673.67628,0.00251
671.61611,0.00128
669.55594,0.00179
667.49577,0.00242
665.43559,0.00042
663.37542,0.00211
661.31525,0.00386
659.25508,0.00399
657.19491,0.00296
655.13473,0.00153
653.07456,0.00036
651.01439,0.00000
648.95422,0.00055
646.89404,0.00148
644.83387,0.00239
642.77370,0.00317
640.71353,0.00384
638.65336,0.00363
636.59318,0.00251
634.53301,0.00217
632.47284,0.00278
630.41267,0.00307
628.35250,0.00263
626.29232,0.00153
624.23215,0.00041
622.17198,0.00013
620.11181,0.00028
618.05164,0.00115
615.99146,0.00235
613.93129,0.00182
611.87112,0.00051
609.81095,0.00056
607.75077,0.00151
605.69060,0.00172
603.63043,0.00107
601.57026,0.00060
599.51009,0.00000
