3996.73391,0.00002
3994.67373,-0.00014
3992.61356,-0.00033
3990.55339,-0.00032
3988.49322,-0.00013
3986.43305,0.00000
3984.37287,0.00001
3982.31270,-0.00007
3980.25253,-0.00010
3978.19236,0.00006
3976.13219,0.00024
3974.07201,0.00027
3972.01184,0.00020
3969.95167,0.00024
3967.89150,0.00037
3965.83133,0.00037
3963.77115,0.00040
3961.71098,0.00076
3959.65081,0.00104
3957.59064,0.00079
3955.53046,0.00026
3953.47029,0.00000
3951.41012,0.00005
3949.34995,0.00014
3947.28978,0.00028
3945.22960,0.00046
3943.16943,0.00049
3941.10926,0.00031
3939.04909,0.00010
3936.98892,-0.00001
3934.92874,-0.00000
3932.86857,0.00008
3930.80840,0.00025
3928.74823,0.00036
3926.68805,0.00032
3924.62788,0.00029
3922.56771,0.00033
3920.50754,0.00050
3918.44737,0.00092
3916.38719,0.00131
3914.32702,0.00126
3912.26685,0.00085
3910.20668,0.00043
3908.14651,0.00021
3906.08633,0.00013
3904.02616,0.00018
3901.96599,0.00056
3899.90582,0.00110
3897.84565,0.00123
3895.78547,0.00096
3893.72530,0.00076
3891.66513,0.00095
3889.60496,0.00134
3887.54478,0.00146
3885.48461,0.00135
3883.42444,0.00133
3881.36427,0.00128
3879.30410,0.00094
3877.24392,0.00052
3875.18375,0.00039
3873.12358,0.00047
3871.06341,0.00041
3869.00324,0.00027
3866.94306,0.00044
3864.88289,0.00082
3862.82272,0.00094
3860.76255,0.00075
3858.70237,0.00059
3856.64220,0.00083
3854.58203,0.00134
3852.52186,0.00153
3850.46169,0.00120
3848.40151,0.00085
3846.34134,0.00079
3844.28117,0.00104
3842.22100,0.00116
3840.16083,0.00076
3838.10065,0.00050
3836.04048,0.00081
3833.98031,0.00103
3831.92014,0.00089
3829.85997,0.00067
3827.79979,0.00068
3825.73962,0.00109
3823.67945,0.00168
3821.61928,0.00166
3819.55910,0.00097
3817.49893,0.00067
3815.43876,0.00094
3813.37859,0.00116
3811.31842,0.00115
3809.25824,0.00113
3807.19807,0.00131
3805.13790,0.00148
3803.07773,0.00135
3801.01756,0.00107
3798.95738,0.00091
3796.89721,0.00097
3794.83704,0.00110
3792.77687,0.00117
3790.71670,0.00127
3788.65652,0.00135
3786.59635,0.00122
3784.53618,0.00095
3782.47601,0.00063
3780.41583,0.00025
3778.35566,0.00000
3776.29549,0.00000
3774.23532,0.00042
3772.17515,0.00119
3770.11497,0.00169
3768.05480,0.00138
3765.99463,0.00084
3763.93446,0.00079
3761.87429,0.00125
3759.81411,0.00165
3757.75394,0.00149
3755.69377,0.00114
3753.63360,0.00123
3751.57342,0.00139
3749.51325,0.00101
3747.45308,0.00053
3745.39291,0.00032
3743.33274,0.00048
3741.27256,0.00115
3739.21239,0.00177
3737.15222,0.00182
3735.09205,0.00143
3733.03188,0.00096
3730.97170,0.00053
3728.91153,0.00037
3726.85136,0.00044
3724.79119,0.00052
3722.73102,0.00091
3720.67084,0.00151
3718.61067,0.00152
3716.55050,0.00097
3714.49033,0.00060
3712.43015,0.00062
3710.36998,0.00073
3708.30981,0.00086
3706.24964,0.00084
3704.18947,0.00057
3702.12929,0.00034
3700.06912,0.00042
3698.00895,0.00072
3695.94878,0.00088
3693.88861,0.00079
3691.82843,0.00078
3689.76826,0.00109
3687.70809,0.00136
3685.64792,0.00123
3683.58775,0.00085
3681.52757,0.00051
3679.46740,0.00032
3677.40723,0.00037
3675.34706,0.00088
3673.28688,0.00182
3671.22671,0.00270
3669.16654,0.00281
3667.10637,0.00216
3665.04620,0.00169
3662.98602,0.00170
3660.92585,0.00193
3658.86568,0.00199
3656.80551,0.00175
3654.74534,0.00168
3652.68516,0.00198
3650.62499,0.00235
3648.56482,0.00264
3646.50465,0.00269
3644.44447,0.00254
3642.38430,0.00258
3640.32413,0.00310
3638.26396,0.00402
3636.20379,0.00475
3634.14361,0.00476
3632.08344,0.00423
3630.02327,0.00381
3627.96310,0.00394
3625.90293,0.00435
3623.84275,0.00464
3621.78258,0.00497
3619.72241,0.00566
3617.66224,0.00642
3615.60207,0.00681
3613.54189,0.00722
3611.48172,0.00786
3609.42155,0.00836
3607.36138,0.00849
3605.30120,0.00838
3603.24103,0.00829
3601.18086,0.00834
3599.12069,0.00840
3597.06052,0.00850
3595.00034,0.00872
3592.94017,0.00892
3590.88000,0.00906
3588.81983,0.00935
3586.75966,0.00988
3584.69948,0.01059
3582.63931,0.01130
3580.57914,0.01173
3578.51897,0.01182
3576.45879,0.01201
3574.39862,0.01263
3572.33845,0.01338
3570.27828,0.01392
3568.21811,0.01409
3566.15793,0.01393
3564.09776,0.01394
3562.03759,0.01444
3559.97742,0.01524
3557.91725,0.01589
3555.85707,0.01614
3553.79690,0.01630
3551.73673,0.01696
3549.67656,0.01802
3547.61639,0.01870
3545.55621,0.01876
3543.49604,0.01876
3541.43587,0.01912
3539.37570,0.01957
3537.31552,0.01980
3535.25535,0.02004
3533.19518,0.02043
3531.13501,0.02081
3529.07484,0.02131
3527.01466,0.02215
3524.95449,0.02313
3522.89432,0.02364
3520.83415,0.02359
3518.77398,0.02363
3516.71380,0.02402
3514.65363,0.02444
3512.59346,0.02481
3510.53329,0.02523
3508.47312,0.02572
3506.41294,0.02621
3504.35277,0.02671
3502.29260,0.02720
3500.23243,0.02746
3498.17225,0.02762
3496.11208,0.02808
3494.05191,0.02873
3491.99174,0.02923
3489.93157,0.02956
3487.87139,0.02972
3485.81122,0.02976
3483.75105,0.03006
3481.69088,0.03070
3479.63071,0.03132
3477.57053,0.03172
3475.51036,0.03208
3473.45019,0.03267
3471.39002,0.03347
3469.32984,0.03406
3467.26967,0.03418
3465.20950,0.03418
3463.14933,0.03436
3461.08916,0.03481
3459.02898,0.03538
3456.96881,0.03585
3454.90864,0.03616
3452.84847,0.03637
3450.78830,0.03658
3448.72812,0.03685
3446.66795,0.03739
3444.60778,0.03819
3442.54761,0.03886
3440.48744,0.03939
3438.42726,0.03981
3436.36709,0.04002
3434.30692,0.04019
3432.24675,0.04061
3430.18657,0.04106
3428.12640,0.04111
3426.06623,0.04088
3424.00606,0.04083
3421.94589,0.04118
3419.88571,0.04171
3417.82554,0.04229
3415.76537,0.04274
3413.70520,0.04306
3411.64503,0.04351
3409.58485,0.04410
3407.52468,0.04460
3405.46451,0.04477
3403.40434,0.04481
3401.34416,0.04493
3399.28399,0.04531
3397.22382,0.04600
3395.16365,0.04665
3393.10348,0.04702
3391.04330,0.04715
3388.98313,0.04708
3386.92296,0.04711
3384.86279,0.04751
3382.80262,0.04797
3380.74244,0.04809
3378.68227,0.04796
3376.62210,0.04796
3374.56193,0.04816
3372.50176,0.04846
3370.44158,0.04875
3368.38141,0.04892
3366.32124,0.04910
3364.26107,0.04949
3362.20089,0.04993
3360.14072,0.05013
3358.08055,0.05020
3356.02038,0.05033
3353.96021,0.05041
3351.90003,0.05057
3349.83986,0.05102
3347.77969,0.05142
3345.71952,0.05156
3343.65935,0.05169
3341.59917,0.05191
3339.53900,0.05213
3337.47883,0.05230
3335.41866,0.05254
3333.35849,0.05277
3331.29831,0.05280
3329.23814,0.05269
3327.17797,0.05258
3325.11780,0.05256
3323.05762,0.05276
3320.99745,0.05300
3318.93728,0.05292
3316.87711,0.05265
3314.81694,0.05250
3312.75676,0.05264
3310.69659,0.05313
3308.63642,0.05364
3306.57625,0.05375
3304.51608,0.05353
3302.45590,0.05336
3300.39573,0.05358
3298.33556,0.05418
3296.27539,0.05480
3294.21521,0.05507
3292.15504,0.05483
3290.09487,0.05451
3288.03470,0.05456
3285.97453,0.05475
3283.91435,0.05475
3281.85418,0.05457
3279.79401,0.05436
3277.73384,0.05419
3275.67367,0.05411
3273.61349,0.05411
3271.55332,0.05421
3269.49315,0.05434
3267.43298,0.05430
3265.37281,0.05406
3263.31263,0.05402
3261.25246,0.05406
3259.19229,0.05377
3257.13212,0.05336
3255.07194,0.05313
3253.01177,0.05297
3250.95160,0.05273
3248.89143,0.05251
3246.83126,0.05252
3244.77108,0.05258
3242.71091,0.05227
3240.65074,0.05178
3238.59057,0.05160
3236.53040,0.05175
3234.47022,0.05196
3232.41005,0.05214
3230.34988,0.05221
3228.28971,0.05198
3226.22954,0.05149
3224.16936,0.05105
3222.10919,0.05079
3220.04902,0.05067
3217.98885,0.05073
3215.92867,0.05093
3213.86850,0.05081
3211.80833,0.05023
3209.74816,0.04971
3207.68799,0.04957
3205.62781,0.04957
3203.56764,0.04946
3201.50747,0.04932
3199.44730,0.04917
3197.38713,0.04886
3195.32695,0.04858
3193.26678,0.04842
3191.20661,0.04825
3189.14644,0.04823
3187.08626,0.04829
3185.02609,0.04820
3182.96592,0.04811
3180.90575,0.04789
3178.84558,0.04734
3176.78540,0.04671
3174.72523,0.04625
3172.66506,0.04605
3170.60489,0.04608
3168.54472,0.04602
3166.48454,0.04554
3164.42437,0.04496
3162.36420,0.04474
3160.30403,0.04468
3158.24386,0.04451
3156.18368,0.04442
3154.12351,0.04444
3152.06334,0.04425
3150.00317,0.04384
3147.94299,0.04357
3145.88282,0.04362
3143.82265,0.04363
3141.76248,0.04317
3139.70231,0.04258
3137.64213,0.04235
3135.58196,0.04232
3133.52179,0.04208
3131.46162,0.04167
3129.40145,0.04132
3127.34127,0.04100
3125.28110,0.04075
3123.22093,0.04069
3121.16076,0.04068
3119.10058,0.04045
3117.04041,0.04011
3114.98024,0.04003
3112.92007,0.04007
3110.85990,0.03992
3108.79972,0.03961
3106.73955,0.03925
3104.67938,0.03880
3102.61921,0.03828
3100.55904,0.03800
3098.49886,0.03793
3096.43869,0.03765
3094.37852,0.03719
3092.31835,0.03694
3090.25818,0.03700
3088.19800,0.03716
3086.13783,0.03725
3084.07766,0.03716
3082.01749,0.03689
3079.95731,0.03660
3077.89714,0.03631
3075.83697,0.03599
3073.77680,0.03570
3071.71663,0.03544
3069.65645,0.03524
3067.59628,0.03516
3065.53611,0.03509
3063.47594,0.03497
3061.41577,0.03487
3059.35559,0.03473
3057.29542,0.03449
3055.23525,0.03420
3053.17508,0.03401
3051.11491,0.03388
3049.05473,0.03358
3046.99456,0.03307
3044.93439,0.03263
3042.87422,0.03251
3040.81404,0.03254
3038.75387,0.03233
3036.69370,0.03195
3034.63353,0.03163
3032.57336,0.03135
3030.51318,0.03105
3028.45301,0.03082
3026.39284,0.03055
3024.33267,0.03025
3022.27250,0.03012
3020.21232,0.03012
3018.15215,0.03015
3016.09198,0.03013
3014.03181,0.02998
3011.97163,0.02977
3009.91146,0.02966
3007.85129,0.02955
3005.79112,0.02930
3003.73095,0.02902
3001.67077,0.02876
2999.61060,0.02845
2997.55043,0.02819
2995.49026,0.02823
2993.43009,0.02857
2991.36991,0.02880
2989.30974,0.02868
2987.24957,0.02848
2985.18940,0.02860
2983.12923,0.02902
2981.06905,0.02950
2979.00888,0.02981
2976.94871,0.03005
2974.88854,0.03055
2972.82836,0.03133
2970.76819,0.03211
2968.70802,0.03281
2966.64785,0.03364
2964.58768,0.03470
2962.52750,0.03572
2960.46733,0.03668
2958.40716,0.03793
2956.34699,0.03922
2954.28682,0.04012
2952.22664,0.04082
2950.16647,0.04162
2948.10630,0.04279
2946.04613,0.04436
2943.98596,0.04605
2941.92578,0.04793
2939.86561,0.05012
2937.80544,0.05244
2935.74527,0.05479
2933.68509,0.05725
2931.62492,0.05980
2929.56475,0.06215
2927.50458,0.06406
2925.44441,0.06576
2923.38423,0.06737
2921.32406,0.06862
2919.26389,0.06930
2917.20372,0.06893
2915.14355,0.06712
2913.08337,0.06413
2911.02320,0.06066
2908.96303,0.05757
2906.90286,0.05518
2904.84268,0.05323
2902.78251,0.05164
2900.72234,0.05036
2898.66217,0.04913
2896.60200,0.04793
2894.54182,0.04687
2892.48165,0.04591
2890.42148,0.04491
2888.36131,0.04388
2886.30114,0.04292
2884.24096,0.04206
2882.18079,0.04128
2880.12062,0.04055
2878.06045,0.04003
2876.00028,0.03983
2873.94010,0.03999
2871.87993,0.04044
2869.81976,0.04095
2867.75959,0.04144
2865.69941,0.04225
2863.63924,0.04360
2861.57907,0.04530
2859.51890,0.04716
2857.45873,0.04913
2855.39855,0.05118
2853.33838,0.05325
2851.27821,0.05472
2849.21804,0.05434
2847.15787,0.05161
2845.09769,0.04750
2843.03752,0.04326
2840.97735,0.03973
2838.91718,0.03730
2836.85700,0.03546
2834.79683,0.03385
2832.73666,0.03271
2830.67649,0.03195
2828.61632,0.03119
2826.55614,0.03032
2824.49597,0.02960
2822.43580,0.02913
2820.37563,0.02877
2818.31546,0.02861
2816.25528,0.02852
2814.19511,0.02815
2812.13494,0.02773
2810.07477,0.02749
2808.01460,0.02723
2805.95442,0.02679
2803.89425,0.02627
2801.83408,0.02595
2799.77391,0.02591
2797.71373,0.02587
2795.65356,0.02575
2793.59339,0.02545
2791.53322,0.02512
2789.47305,0.02495
2787.41287,0.02471
2785.35270,0.02437
2783.29253,0.02418
2781.23236,0.02417
2779.17219,0.02415
2777.11201,0.02409
2775.05184,0.02404
2772.99167,0.02394
2770.93150,0.02378
2768.87133,0.02347
2766.81115,0.02321
2764.75098,0.02318
2762.69081,0.02319
2760.63064,0.02315
2758.57046,0.02305
2756.51029,0.02282
2754.45012,0.02260
2752.38995,0.02244
2750.32978,0.02232
2748.26960,0.02234
2746.20943,0.02245
2744.14926,0.02243
2742.08909,0.02224
2740.02892,0.02203
2737.96874,0.02200
2735.90857,0.02209
2733.84840,0.02204
2731.78823,0.02200
2729.72805,0.02206
2727.66788,0.02204
2725.60771,0.02189
2723.54754,0.02164
2721.48737,0.02136
2719.42719,0.02123
2717.36702,0.02125
2715.30685,0.02126
2713.24668,0.02117
2711.18651,0.02108
2709.12633,0.02113
2707.06616,0.02107
2705.00599,0.02092
2702.94582,0.02090
2700.88565,0.02087
2698.82547,0.02066
2696.76530,0.02048
2694.70513,0.02043
2692.64496,0.02040
2690.58478,0.02034
2688.52461,0.02021
2686.46444,0.02000
2684.40427,0.01989
2682.34410,0.01988
2680.28392,0.01978
2678.22375,0.01961
2676.16358,0.01960
2674.10341,0.01964
2672.04324,0.01950
2669.98306,0.01935
2667.92289,0.01931
2665.86272,0.01917
2663.80255,0.01909
2661.74238,0.01912
2659.68220,0.01905
2657.62203,0.01900
2655.56186,0.01895
2653.50169,0.01875
2651.44151,0.01858
2649.38134,0.01851
2647.32117,0.01846
2645.26100,0.01844
2643.20083,0.01839
2641.14065,0.01836
2639.08048,0.01856
2637.02031,0.01877
2634.96014,0.01850
2632.89997,0.01799
2630.83979,0.01775
2628.77962,0.01773
2626.71945,0.01767
2624.65928,0.01746
2622.59910,0.01714
2620.53893,0.01691
2618.47876,0.01683
2616.41859,0.01680
2614.35842,0.01671
2612.29824,0.01654
2610.23807,0.01636
2608.17790,0.01632
2606.11773,0.01640
2604.05756,0.01649
2601.99738,0.01640
2599.93721,0.01619
2597.87704,0.01612
2595.81687,0.01621
2593.75670,0.01615
2591.69652,0.01598
2589.63635,0.01600
2587.57618,0.01617
2585.51601,0.01620
2583.45583,0.01600
2581.39566,0.01570
2579.33549,0.01539
2577.27532,0.01517
2575.21515,0.01501
2573.15497,0.01487
2571.09480,0.01481
2569.03463,0.01480
2566.97446,0.01470
2564.91429,0.01450
2562.85411,0.01417
2560.79394,0.01382
2558.73377,0.01376
2556.67360,0.01387
2554.61342,0.01396
2552.55325,0.01411
2550.49308,0.01427
2548.43291,0.01424
2546.37274,0.01397
2544.31256,0.01382
2542.25239,0.01397
2540.19222,0.01404
2538.13205,0.01405
2536.07188,0.01413
2534.01170,0.01416
2531.95153,0.01407
2529.89136,0.01367
2527.83119,0.01307
2525.77102,0.01269
2523.71084,0.01270
2521.65067,0.01292
2519.59050,0.01284
2517.53033,0.01249
2515.47015,0.01232
2513.40998,0.01245
2511.34981,0.01267
2509.28964,0.01275
2507.22947,0.01269
2505.16929,0.01261
2503.10912,0.01268
2501.04895,0.01290
2498.98878,0.01302
2496.92861,0.01271
2494.86843,0.01236
2492.80826,0.01249
2490.74809,0.01266
2488.68792,0.01228
2486.62775,0.01169
2484.56757,0.01150
2482.50740,0.01171
2480.44723,0.01197
2478.38706,0.01198
2476.32688,0.01181
2474.26671,0.01163
2472.20654,0.01136
2470.14637,0.01113
2468.08620,0.01121
2466.02602,0.01131
2463.96585,0.01128
2461.90568,0.01131
2459.84551,0.01124
2457.78534,0.01094
2455.72516,0.01064
2453.66499,0.01083
2451.60482,0.01149
2449.54465,0.01176
2447.48447,0.01152
2445.42430,0.01129
2443.36413,0.01103
2441.30396,0.01085
2439.24379,0.01096
2437.18361,0.01111
2435.12344,0.01102
2433.06327,0.01060
2431.00310,0.01014
2428.94293,0.00980
2426.88275,0.00958
2424.82258,0.00972
2422.76241,0.01009
2420.70224,0.01012
2418.64207,0.00979
2416.58189,0.00965
2414.52172,0.00971
2412.46155,0.00971
2410.40138,0.00975
2408.34120,0.00969
2406.28103,0.00944
2404.22086,0.00923
2402.16069,0.00909
2400.10052,0.00910
2398.04034,0.00918
2395.98017,0.00912
2393.92000,0.00901
2391.85983,0.00902
2389.79966,0.00913
2387.73948,0.00926
2385.67931,0.00931
2383.61914,0.00941
2381.55897,0.00960
2379.49880,0.00964
2377.43862,0.00951
2375.37845,0.00929
2373.31828,0.00900
2371.25811,0.00868
2369.19793,0.00833
2367.13776,0.00820
2365.07759,0.00853
2363.01742,0.00886
2360.95725,0.00897
2358.89707,0.00930
2356.83690,0.00988
2354.77673,0.01008
2352.71656,0.00956
2350.65639,0.00888
2348.59621,0.00872
2346.53604,0.00887
2344.47587,0.00885
2342.41570,0.00866
2340.35552,0.00838
2338.29535,0.00798
2336.23518,0.00759
2334.17501,0.00737
2332.11484,0.00753
2330.05466,0.00815
2327.99449,0.00867
2325.93432,0.00876
2323.87415,0.00875
2321.81398,0.00885
2319.75380,0.00898
2317.69363,0.00901
2315.63346,0.00878
2313.57329,0.00840
2311.51312,0.00838
2309.45294,0.00875
2307.39277,0.00887
2305.33260,0.00862
2303.27243,0.00847
2301.21225,0.00840
2299.15208,0.00819
2297.09191,0.00800
2295.03174,0.00798
2292.97157,0.00803
2290.91139,0.00812
2288.85122,0.00826
2286.79105,0.00827
2284.73088,0.00799
2282.67071,0.00761
2280.61053,0.00744
2278.55036,0.00754
2276.49019,0.00778
2274.43002,0.00773
2272.36984,0.00733
2270.30967,0.00699
2268.24950,0.00681
2266.18933,0.00688
2264.12916,0.00731
2262.06898,0.00760
2260.00881,0.00731
2257.94864,0.00658
2255.88847,0.00588
2253.82830,0.00570
2251.76812,0.00589
2249.70795,0.00601
2247.64778,0.00597
2245.58761,0.00597
2243.52744,0.00628
2241.46726,0.00679
2239.40709,0.00686
2237.34692,0.00646
2235.28675,0.00605
2233.22657,0.00555
2231.16640,0.00471
2229.10623,0.00428
2227.04606,0.00454
2224.98589,0.00481
2222.92571,0.00540
2220.86554,0.00606
2218.80537,0.00607
2216.74520,0.00626
2214.68503,0.00696
2212.62485,0.00719
2210.56468,0.00635
2208.50451,0.00502
2206.44434,0.00417
2204.38417,0.00396
2202.32399,0.00423
2200.26382,0.00489
2198.20365,0.00565
2196.14348,0.00573
2194.08330,0.00529
2192.02313,0.00516
2189.96296,0.00470
2187.90279,0.00425
2185.84262,0.00518
2183.78244,0.00608
2181.72227,0.00540
2179.66210,0.00401
2177.60193,0.00291
2175.54176,0.00244
2173.48158,0.00255
2171.42141,0.00330
2169.36124,0.00427
2167.30107,0.00492
2165.24089,0.00503
2163.18072,0.00375
2161.12055,0.00190
2159.06038,0.00132
2157.00021,0.00112
2154.94003,0.00019
2152.87986,0.00000
2150.81969,0.00152
2148.75952,0.00322
2146.69935,0.00402
2144.63917,0.00444
2142.57900,0.00470
2140.51883,0.00449
2138.45866,0.00396
2136.39849,0.00306
2134.33831,0.00197
2132.27814,0.00219
2130.21797,0.00366
2128.15780,0.00469
2126.09762,0.00484
2124.03745,0.00481
2121.97728,0.00482
2119.91711,0.00453
2117.85694,0.00420
2115.79676,0.00455
2113.73659,0.00513
2111.67642,0.00503
2109.61625,0.00469
2107.55608,0.00449
2105.49590,0.00406
2103.43573,0.00404
2101.37556,0.00448
2099.31539,0.00451
2097.25521,0.00440
2095.19504,0.00449
2093.13487,0.00483
2091.07470,0.00542
2089.01453,0.00567
2086.95435,0.00527
2084.89418,0.00474
2082.83401,0.00472
2080.77384,0.00502
2078.71367,0.00498
2076.65349,0.00472
2074.59332,0.00486
2072.53315,0.00518
2070.47298,0.00470
2068.41281,0.00375
2066.35263,0.00337
2064.29246,0.00353
2062.23229,0.00403
2060.17212,0.00467
2058.11194,0.00478
2056.05177,0.00413
2053.99160,0.00353
2051.93143,0.00389
2049.87126,0.00471
2047.81108,0.00496
2045.75091,0.00413
2043.69074,0.00275
2041.63057,0.00188
2039.57040,0.00184
2037.51022,0.00228
2035.45005,0.00279
2033.38988,0.00312
2031.32971,0.00320
2029.26954,0.00310
2027.20936,0.00247
2025.14919,0.00145
2023.08902,0.00123
2021.02885,0.00149
2018.96867,0.00123
2016.90850,0.00142
2014.84833,0.00239
2012.78816,0.00318
2010.72799,0.00341
2008.66781,0.00335
2006.60764,0.00359
2004.54747,0.00406
2002.48730,0.00406
2000.42713,0.00299
1998.36695,0.00160
1996.30678,0.00165
1994.24661,0.00254
1992.18644,0.00273
1990.12626,0.00311
1988.06609,0.00391
1986.00592,0.00369
1983.94575,0.00288
1981.88558,0.00280
1979.82540,0.00261
1977.76523,0.00144
1975.70506,0.00033
1973.64489,0.00000
1971.58472,0.00056
1969.52454,0.00160
1967.46437,0.00204
1965.40420,0.00136
1963.34403,0.00105
1961.28386,0.00192
1959.22368,0.00225
1957.16351,0.00176
1955.10334,0.00188
1953.04317,0.00272
1950.98299,0.00324
1948.92282,0.00238
1946.86265,0.00082
1944.80248,0.00059
1942.74231,0.00201
1940.68213,0.00319
1938.62196,0.00318
1936.56179,0.00260
1934.50162,0.00213
1932.44145,0.00205
1930.38127,0.00240
1928.32110,0.00280
1926.26093,0.00260
1924.20076,0.00180
1922.14059,0.00128
1920.08041,0.00161
1918.02024,0.00217
1915.96007,0.00226
1913.89990,0.00213
1911.83972,0.00236
1909.77955,0.00284
1907.71938,0.00296
1905.65921,0.00252
1903.59904,0.00199
1901.53886,0.00172
1899.47869,0.00161
1897.41852,0.00151
1895.35835,0.00142
1893.29818,0.00151
1891.23800,0.00174
1889.17783,0.00180
1887.11766,0.00154
1885.05749,0.00119
1882.99731,0.00114
1880.93714,0.00157
1878.87697,0.00203
1876.81680,0.00200
1874.75663,0.00170
1872.69645,0.00171
1870.63628,0.00180
1868.57611,0.00140
1866.51594,0.00074
1864.45577,0.00043
1862.39559,0.00044
1860.33542,0.00048
1858.27525,0.00049
1856.21508,0.00055
1854.15491,0.00060
1852.09473,0.00055
1850.03456,0.00053
1847.97439,0.00067
1845.91422,0.00073
1843.85404,0.00064
1841.79387,0.00068
1839.73370,0.00075
1837.67353,0.00066
1835.61336,0.00055
1833.55318,0.00056
1831.49301,0.00058
1829.43284,0.00053
1827.37267,0.00047
1825.31250,0.00037
1823.25232,0.00034
1821.19215,0.00052
1819.13198,0.00063
1817.07181,0.00042
1815.01163,0.00012
1812.95146,0.00000
1810.89129,-0.00004
1808.83112,-0.00007
1806.77095,-0.00005
1804.71077,-0.00002
1802.65060,-0.00013
1800.59043,-0.00028
1798.53026,-0.00030
1796.47009,-0.00023
1794.40991,-0.00020
1792.34974,-0.00020
1790.28957,-0.00005
1788.22940,0.00021
1786.16923,0.00028
1784.10905,0.00012
1782.04888,0.00000
1779.98871,0.00001
1777.92854,0.00011
1775.86836,0.00013
1773.80819,0.00027
1771.74802,0.00067
1769.68785,0.00104
1767.62768,0.00129
1765.56750,0.00149
1763.50733,0.00179
1761.44716,0.00235
1759.38699,0.00321
1757.32682,0.00443
1755.26664,0.00576
1753.20647,0.00685
1751.14630,0.00827
1749.08613,0.01061
1747.02596,0.01342
1744.96578,0.01633
1742.90561,0.01978
1740.84544,0.02413
1738.78527,0.02871
1736.72509,0.03251
1734.66492,0.03589
1732.60475,0.03885
1730.54458,0.04029
1728.48441,0.04052
1726.42423,0.04017
1724.36406,0.03960
1722.30389,0.03914
1720.24372,0.03881
1718.18355,0.03841
1716.12337,0.03811
1714.06320,0.03803
1712.00303,0.03788
1709.94286,0.03740
1707.88268,0.03671
1705.82251,0.03599
1703.76234,0.03536
1701.70217,0.03468
1699.64200,0.03390
1697.58182,0.03334
1695.52165,0.03293
1693.46148,0.03244
1691.40131,0.03195
1689.34114,0.03165
1687.28096,0.03160
1685.22079,0.03152
1683.16062,0.03124
1681.10045,0.03106
1679.04028,0.03105
1676.98010,0.03108
1674.91993,0.03116
1672.85976,0.03138
1670.79959,0.03196
1668.73941,0.03311
1666.67924,0.03433
1664.61907,0.03540
1662.55890,0.03682
1660.49873,0.03849
1658.43855,0.03977
1656.37838,0.04067
1654.31821,0.04158
1652.25804,0.04257
1650.19787,0.04312
1648.13769,0.04334
1646.07752,0.04381
1644.01735,0.04449
1641.95718,0.04494
1639.89701,0.04517
1637.83683,0.04554
1635.77666,0.04627
1633.71649,0.04691
1631.65632,0.04716
1629.59614,0.04741
1627.53597,0.04782
1625.47580,0.04819
1623.41563,0.04854
1621.35546,0.04906
1619.29528,0.04963
1617.23511,0.05018
1615.17494,0.05078
1613.11477,0.05142
1611.05460,0.05200
1608.99442,0.05243
1606.93425,0.05266
1604.87408,0.05262
1602.81391,0.05218
1600.75373,0.05126
1598.69356,0.04995
1596.63339,0.04837
1594.57322,0.04672
1592.51305,0.04514
1590.45287,0.04352
1588.39270,0.04172
1586.33253,0.03987
1584.27236,0.03819
1582.21219,0.03674
1580.15201,0.03541
1578.09184,0.03392
1576.03167,0.03215
1573.97150,0.03064
1571.91133,0.02954
1569.85115,0.02837
1567.79098,0.02725
1565.73081,0.02650
1563.67064,0.02604
1561.61046,0.02570
1559.55029,0.02503
1557.49012,0.02419
1555.42995,0.02422
1553.36978,0.02488
1551.30960,0.02557
1549.24943,0.02611
1547.18926,0.02647
1545.12909,0.02657
1543.06892,0.02630
1541.00874,0.02601
1538.94857,0.02650
1536.88840,0.02725
1534.82823,0.02740
1532.76805,0.02686
1530.70788,0.02605
1528.64771,0.02517
1526.58754,0.02413
1524.52737,0.02310
1522.46719,0.02227
1520.40702,0.02186
1518.34685,0.02202
1516.28668,0.02249
1514.22651,0.02271
1512.16633,0.02226
1510.10616,0.02119
1508.04599,0.01933
1505.98582,0.01691
1503.92565,0.01540
1501.86547,0.01463
1499.80530,0.01373
1497.74513,0.01230
1495.68496,0.01059
1493.62478,0.00928
1491.56461,0.00828
1489.50444,0.00703
1487.44427,0.00570
1485.38410,0.00494
1483.32392,0.00486
1481.26375,0.00531
1479.20358,0.00608
1477.14341,0.00705
1475.08324,0.00851
1473.02306,0.01104
1470.96289,0.01431
1468.90272,0.01707
1466.84255,0.01931
1464.78238,0.02141
1462.72220,0.02294
1460.66203,0.02370
1458.60186,0.02466
1456.54169,0.02659
1454.48151,0.02850
1452.42134,0.02977
1450.36117,0.03084
1448.30100,0.03203
1446.24083,0.03313
1444.18065,0.03378
1442.12048,0.03390
1440.06031,0.03349
1438.00014,0.03247
1435.93997,0.03097
1433.87979,0.02945
1431.81962,0.02795
1429.75945,0.02643
1427.69928,0.02528
1425.63910,0.02467
1423.57893,0.02429
1421.51876,0.02396
1419.45859,0.02372
1417.39842,0.02369
1415.33824,0.02369
1413.27807,0.02345
1411.21790,0.02303
1409.15773,0.02261
1407.09756,0.02227
1405.03738,0.02209
1402.97721,0.02216
1400.91704,0.02229
1398.85687,0.02244
1396.79670,0.02269
1394.73652,0.02308
1392.67635,0.02353
1390.61618,0.02393
1388.55601,0.02440
1386.49583,0.02510
1384.43566,0.02601
1382.37549,0.02701
1380.31532,0.02808
1378.25515,0.02915
1376.19497,0.03002
1374.13480,0.03076
1372.07463,0.03143
1370.01446,0.03198
1367.95429,0.03238
1365.89411,0.03260
1363.83394,0.03267
1361.77377,0.03273
1359.71360,0.03288
1357.65343,0.03310
1355.59325,0.03333
1353.53308,0.03360
1351.47291,0.03399
1349.41274,0.03450
1347.35256,0.03498
1345.29239,0.03535
1343.23222,0.03574
1341.17205,0.03625
1339.11188,0.03692
1337.05170,0.03769
1334.99153,0.03841
1332.93136,0.03907
1330.87119,0.03977
1328.81102,0.04057
1326.75084,0.04153
1324.69067,0.04254
1322.63050,0.04332
1320.57033,0.04377
1318.51015,0.04416
1316.44998,0.04460
1314.38981,0.04481
1312.32964,0.04462
1310.26947,0.04411
1308.20929,0.04319
1306.14912,0.04177
1304.08895,0.03990
1302.02878,0.03780
1299.96861,0.03567
1297.90843,0.03357
1295.84826,0.03158
1293.78809,0.02975
1291.72792,0.02819
1289.66775,0.02704
1287.60757,0.02621
1285.54740,0.02559
1283.48723,0.02520
1281.42706,0.02496
1279.36688,0.02473
1277.30671,0.02452
1275.24654,0.02454
1273.18637,0.02497
1271.12620,0.02559
1269.06602,0.02615
1267.00585,0.02661
1264.94568,0.02707
1262.88551,0.02763
1260.82534,0.02822
1258.76516,0.02880
1256.70499,0.02952
1254.64482,0.03028
1252.58465,0.03084
1250.52447,0.03132
1248.46430,0.03204
1246.40413,0.03295
1244.34396,0.03373
1242.28379,0.03436
1240.22361,0.03505
1238.16344,0.03596
1236.10327,0.03703
1234.04310,0.03803
1231.98293,0.03897
1229.92275,0.03997
1227.86258,0.04088
1225.80241,0.04159
1223.74224,0.04239
1221.68207,0.04323
1219.62189,0.04397
1217.56172,0.04479
1215.50155,0.04573
1213.44138,0.04653
1211.38120,0.04720
1209.32103,0.04810
1207.26086,0.04917
1205.20069,0.04991
1203.14052,0.05038
1201.08034,0.05106
1199.02017,0.05191
1196.96000,0.05241
1194.89983,0.05256
1192.83966,0.05267
1190.77948,0.05261
1188.71931,0.05221
1186.65914,0.05164
1184.59897,0.05117
1182.53880,0.05074
1180.47862,0.05033
1178.41845,0.05021
1176.35828,0.05037
1174.29811,0.05051
1172.23793,0.05057
1170.17776,0.05066
1168.11759,0.05075
1166.05742,0.05068
1163.99725,0.05034
1161.93707,0.04971
1159.87690,0.04871
1157.81673,0.04729
1155.75656,0.04565
1153.69639,0.04416
1151.63621,0.04302
1149.57604,0.04200
1147.51587,0.04087
1145.45570,0.03972
1143.39552,0.03851
1141.33535,0.03699
1139.27518,0.03550
1137.21501,0.03436
1135.15484,0.03332
1133.09466,0.03257
1131.03449,0.03258
1128.97432,0.03319
1126.91415,0.03403
1124.85398,0.03496
1122.79380,0.03622
1120.73363,0.03793
1118.67346,0.03981
1116.61329,0.04183
1114.55312,0.04431
1112.49294,0.04716
1110.43277,0.04993
1108.37260,0.05264
1106.31243,0.05550
1104.25225,0.05805
1102.19208,0.05999
1100.13191,0.06151
1098.07174,0.06291
1096.01157,0.06445
1093.95139,0.06588
1091.89122,0.06704
1089.83105,0.06831
1087.77088,0.07000
1085.71071,0.07226
1083.65053,0.07486
1081.59036,0.07717
1079.53019,0.07910
1077.47002,0.08116
1075.40985,0.08309
1073.34967,0.08443
1071.28950,0.08544
1069.22933,0.08647
1067.16916,0.08764
1065.10898,0.08882
1063.04881,0.08985
1060.98864,0.09081
1058.92847,0.09183
1056.86830,0.09296
1054.80812,0.09399
1052.74795,0.09485
1050.68778,0.09592
1048.62761,0.09725
1046.56744,0.09858
1044.50726,0.10004
1042.44709,0.10165
1040.38692,0.10330
1038.32675,0.10527
1036.26657,0.10760
1034.20640,0.10994
1032.14623,0.11199
1030.08606,0.11361
1028.02589,0.11481
1025.96571,0.11585
1023.90554,0.11693
1021.84537,0.11778
1019.78520,0.11810
1017.72503,0.11789
1015.66485,0.11728
1013.60468,0.11640
1011.54451,0.11514
1009.48434,0.11355
1007.42417,0.11155
1005.36399,0.10886
1003.30382,0.10578
1001.24365,0.10279
999.18348,0.10002
997.12330,0.09720
995.06313,0.09426
993.00296,0.09146
990.94279,0.08875
988.88262,0.08584
986.82244,0.08253
984.76227,0.07899
982.70210,0.07534
980.64193,0.07170
978.58176,0.06835
976.52158,0.06534
974.46141,0.06264
972.40124,0.06031
970.34107,0.05821
968.28089,0.05622
966.22072,0.05450
964.16055,0.05316
962.10038,0.05185
960.04021,0.05017
957.98003,0.04807
955.91986,0.04588
953.85969,0.04367
951.79952,0.04127
949.73935,0.03879
947.67917,0.03649
945.61900,0.03436
943.55883,0.03232
941.49866,0.03046
939.43849,0.02883
937.37831,0.02757
935.31814,0.02668
933.25797,0.02594
931.19780,0.02523
929.13762,0.02451
927.07745,0.02390
925.01728,0.02315
922.95711,0.02188
920.89694,0.02043
918.83676,0.01911
916.77659,0.01788
914.71642,0.01680
912.65625,0.01577
910.59608,0.01449
908.53590,0.01276
906.47573,0.01096
904.41556,0.00998
902.35539,0.00995
900.29522,0.01002
898.23504,0.00971
896.17487,0.00959
894.11470,0.00999
892.05453,0.01025
889.99435,0.01009
887.93418,0.00968
885.87401,0.00896
883.81384,0.00840
881.75367,0.00846
879.69349,0.00875
877.63332,0.00893
875.57315,0.00903
873.51298,0.00918
871.45281,0.00943
869.39263,0.00948
867.33246,0.00923
865.27229,0.00859
863.21212,0.00742
861.15194,0.00604
859.09177,0.00467
857.03160,0.00320
854.97143,0.00177
852.91126,0.00074
850.85108,0.00025
848.79091,0.00000
846.73074,-0.00019
844.67057,-0.00019
842.61040,-0.00007
840.55022,0.00019
838.49005,0.00070
836.42988,0.00139
834.36971,0.00220
832.30954,0.00284
830.24936,0.00291
828.18919,0.00246
826.12902,0.00222
824.06885,0.00227
822.00867,0.00214
819.94850,0.00202
817.88833,0.00177
815.82816,0.00134
813.76799,0.00145
811.70781,0.00205
809.64764,0.00253
807.58747,0.00257
805.52730,0.00184
803.46713,0.00087
801.40695,0.00030
799.34678,0.00000
797.28661,-0.00048
795.22644,-0.00083
793.16627,-0.00122
791.10609,-0.00137
789.04592,-0.00081
786.98575,0.00040
784.92558,0.00149
782.86540,0.00192
780.80523,0.00178
778.74506,0.00162
776.68489,0.00187
774.62472,0.00214
772.56454,0.00201
770.50437,0.00216
768.44420,0.00368
766.38403,0.00624
764.32386,0.00899
762.26368,0.01178
760.20351,0.01412
758.14334,0.01520
756.08317,0.01523
754.02299,0.01480
751.96282,0.01392
749.90265,0.01279
747.84248,0.01125
745.78231,0.00947
743.72213,0.00859
741.66196,0.00818
739.60179,0.00750
737.54162,0.00696
735.48145,0.00659
733.42127,0.00652
731.36110,0.00689
729.30093,0.00704
727.24076,0.00655
725.18059,0.00585
723.12041,0.00548
721.06024,0.00562
719.00007,0.00562
716.93990,0.00528
714.87972,0.00506
712.81955,0.00472
710.75938,0.00372
708.69921,0.00286
706.63904,0.00300
704.57886,0.00337
702.51869,0.00330
700.45852,0.00309
698.39835,0.00288
696.33818,0.00261
694.27800,0.00213
692.21783,0.00125
690.15766,0.00058
688.09749,0.00059
686.03731,0.00080
683.97714,0.00072
681.91697,0.00071
679.85680,0.00121
677.79663,0.00205
675.73645,0.00249
673.67628,0.00191
671.61611,0.00106
669.55594,0.00162
667.49577,0.00354
665.43559,0.00472
663.37542,0.00449
661.31525,0.00364
659.25508,0.00319
657.19491,0.00332
655.13473,0.00337
653.07456,0.00310
651.01439,0.00261
648.95422,0.00193
646.89404,0.00101
644.83387,0.00000
642.77370,-0.00079
640.71353,-0.00055
638.65336,0.00067
636.59318,0.00231
634.53301,0.00337
632.47284,0.00291
630.41267,0.00159
628.35250,0.00112
626.29232,0.00161
624.23215,0.00087
622.17198,-0.00000
620.11181,0.00165
618.05164,0.00468
615.99146,0.00743
613.93129,0.00854
611.87112,0.00606
609.81095,0.00250
607.75077,0.00100
605.69060,0.00052
603.63043,0.00052
601.57026,0.00104
599.51009,0.00000
