3996.73391,0.00067
3994.67373,0.00032
3992.61356,0.00019
3990.55339,0.00044
3988.49322,0.00065
3986.43305,0.00038
3984.37287,0.00000
3982.31270,0.00008
3980.25253,0.00044
3978.19236,0.00069
3976.13219,0.00085
3974.07201,0.00099
3972.01184,0.00090
3969.95167,0.00060
3967.89150,0.00055
3965.83133,0.00091
3963.77115,0.00115
3961.71098,0.00103
3959.65081,0.00099
3957.59064,0.00115
3955.53046,0.00121
3953.47029,0.00111
3951.41012,0.00091
3949.34995,0.00066
3947.28978,0.00045
3945.22960,0.00036
3943.16943,0.00039
3941.10926,0.00045
3939.04909,0.00049
3936.98892,0.00063
3934.92874,0.00088
3932.86857,0.00113
3930.80840,0.00117
3928.74823,0.00108
3926.68805,0.00102
3924.62788,0.00095
3922.56771,0.00087
3920.50754,0.00084
3918.44737,0.00093
3916.38719,0.00115
3914.32702,0.00131
3912.26685,0.00132
3910.20668,0.00126
3908.14651,0.00119
3906.08633,0.00118
3904.02616,0.00132
3901.96599,0.00145
3899.90582,0.00130
3897.84565,0.00106
3895.78547,0.00108
3893.72530,0.00122
3891.66513,0.00116
3889.60496,0.00093
3887.54478,0.00074
3885.48461,0.00069
3883.42444,0.00080
3881.36427,0.00091
3879.30410,0.00084
3877.24392,0.00062
3875.18375,0.00049
3873.12358,0.00055
3871.06341,0.00068
3869.00324,0.00080
3866.94306,0.00102
3864.88289,0.00128
3862.82272,0.00135
3860.76255,0.00108
3858.70237,0.00073
3856.64220,0.00077
3854.58203,0.00121
3852.52186,0.00143
3850.46169,0.00109
3848.40151,0.00053
3846.34134,0.00029
3844.28117,0.00067
3842.22100,0.00137
3840.16083,0.00174
3838.10065,0.00178
3836.04048,0.00190
3833.98031,0.00179
3831.92014,0.00143
3829.85997,0.00130
3827.79979,0.00128
3825.73962,0.00123
3823.67945,0.00146
3821.61928,0.00173
3819.55910,0.00149
3817.49893,0.00107
3815.43876,0.00079
3813.37859,0.00061
3811.31842,0.00049
3809.25824,0.00050
3807.19807,0.00074
3805.13790,0.00105
3803.07773,0.00127
3801.01756,0.00135
3798.95738,0.00130
3796.89721,0.00119
3794.83704,0.00103
3792.77687,0.00096
3790.71670,0.00101
3788.65652,0.00096
3786.59635,0.00078
3784.53618,0.00068
3782.47601,0.00066
3780.41583,0.00052
3778.35566,0.00024
3776.29549,0.00000
3774.23532,0.00011
3772.17515,0.00067
3770.11497,0.00113
3768.05480,0.00109
3765.99463,0.00096
3763.93446,0.00098
3761.87429,0.00097
3759.81411,0.00084
3757.75394,0.00074
3755.69377,0.00090
3753.63360,0.00128
3751.57342,0.00176
3749.51325,0.00210
3747.45308,0.00185
3745.39291,0.00084
3743.33274,0.00001
3741.27256,0.00022
3739.21239,0.00062
3737.15222,0.00083
3735.09205,0.00118
3733.03188,0.00115
3730.97170,0.00048
3728.91153,0.00000
3726.85136,0.00015
3724.79119,0.00088
3722.73102,0.00171
3720.67084,0.00183
3718.61067,0.00102
3716.55050,0.00013
3714.49033,0.00000
3712.43015,0.00072
3710.36998,0.00161
3708.30981,0.00191
3706.24964,0.00150
3704.18947,0.00075
3702.12929,0.00034
3700.06912,0.00063
3698.00895,0.00101
3695.94878,0.00097
3693.88861,0.00077
3691.82843,0.00076
3689.76826,0.00080
3687.70809,0.00063
3685.64792,0.00049
3683.58775,0.00051
3681.52757,0.00067
3679.46740,0.00080
3677.40723,0.00062
3675.34706,0.00041
3673.28688,0.00087
3671.22671,0.00176
3669.16654,0.00215
3667.10637,0.00174
3665.04620,0.00134
3662.98602,0.00147
3660.92585,0.00177
3658.86568,0.00183
3656.80551,0.00170
3654.74534,0.00156
3652.68516,0.00162
3650.62499,0.00228
3648.56482,0.00319
3646.50465,0.00326
3644.44447,0.00291
3642.38430,0.00285
3640.32413,0.00307
3638.26396,0.00354
3636.20379,0.00418
3634.14361,0.00440
3632.08344,0.00395
3630.02327,0.00352
3627.96310,0.00381
3625.90293,0.00438
3623.84275,0.00472
3621.78258,0.00503
3619.72241,0.00551
3617.66224,0.00609
3615.60207,0.00666
3613.54189,0.00720
3611.48172,0.00757
3609.42155,0.00759
3607.36138,0.00729
3605.30120,0.00703
3603.24103,0.00721
3601.18086,0.00765
3599.12069,0.00801
3597.06052,0.00836
3595.00034,0.00859
3592.94017,0.00847
3590.88000,0.00846
3588.81983,0.00895
3586.75966,0.00961
3584.69948,0.01021
3582.63931,0.01074
3580.57914,0.01095
3578.51897,0.01081
3576.45879,0.01090
3574.39862,0.01155
3572.33845,0.01240
3570.27828,0.01304
3568.21811,0.01333
3566.15793,0.01323
3564.09776,0.01318
3562.03759,0.01365
3559.97742,0.01431
3557.91725,0.01463
3555.85707,0.01481
3553.79690,0.01534
3551.73673,0.01609
3549.67656,0.01653
3547.61639,0.01664
3545.55621,0.01679
3543.49604,0.01713
3541.43587,0.01760
3539.37570,0.01810
3537.31552,0.01854
3535.25535,0.01894
3533.19518,0.01929
3531.13501,0.01953
3529.07484,0.01980
3527.01466,0.02027
3524.95449,0.02088
3522.89432,0.02131
3520.83415,0.02156
3518.77398,0.02194
3516.71380,0.02241
3514.65363,0.02279
3512.59346,0.02308
3510.53329,0.02345
3508.47312,0.02401
3506.41294,0.02462
3504.35277,0.02511
3502.29260,0.02537
3500.23243,0.02544
3498.17225,0.02566
3496.11208,0.02614
3494.05191,0.02653
3491.99174,0.02667
3489.93157,0.02670
3487.87139,0.02684
3485.81122,0.02742
3483.75105,0.02834
3481.69088,0.02902
3479.63071,0.02918
3477.57053,0.02932
3475.51036,0.02978
3473.45019,0.03041
3471.39002,0.03110
3469.32984,0.03153
3467.26967,0.03150
3465.20950,0.03153
3463.14933,0.03202
3461.08916,0.03266
3459.02898,0.03309
3456.96881,0.03337
3454.90864,0.03376
3452.84847,0.03421
3450.78830,0.03466
3448.72812,0.03510
3446.66795,0.03556
3444.60778,0.03615
3442.54761,0.03678
3440.48744,0.03727
3438.42726,0.03770
3436.36709,0.03807
3434.30692,0.03827
3432.24675,0.03848
3430.18657,0.03879
3428.12640,0.03886
3426.06623,0.03854
3424.00606,0.03839
3421.94589,0.03890
3419.88571,0.03970
3417.82554,0.04022
3415.76537,0.04040
3413.70520,0.04068
3411.64503,0.04144
3409.58485,0.04238
3407.52468,0.04285
3405.46451,0.04277
3403.40434,0.04278
3401.34416,0.04329
3399.28399,0.04394
3397.22382,0.04439
3395.16365,0.04454
3393.10348,0.04459
3391.04330,0.04457
3388.98313,0.04451
3386.92296,0.04468
3384.86279,0.04506
3382.80262,0.04551
3380.74244,0.04591
3378.68227,0.04608
3376.62210,0.04607
3374.56193,0.04613
3372.50176,0.04636
3370.44158,0.04662
3368.38141,0.04681
3366.32124,0.04702
3364.26107,0.04717
3362.20089,0.04728
3360.14072,0.04756
3358.08055,0.04792
3356.02038,0.04819
3353.96021,0.04843
3351.90003,0.04859
3349.83986,0.04872
3347.77969,0.04893
3345.71952,0.04916
3343.65935,0.04939
3341.59917,0.04960
3339.53900,0.04976
3337.47883,0.04998
3335.41866,0.05038
3333.35849,0.05089
3331.29831,0.05117
3329.23814,0.05114
3327.17797,0.05110
3325.11780,0.05110
3323.05762,0.05104
3320.99745,0.05107
3318.93728,0.05103
3316.87711,0.05083
3314.81694,0.05084
3312.75676,0.05113
3310.69659,0.05153
3308.63642,0.05203
3306.57625,0.05245
3304.51608,0.05240
3302.45590,0.05196
3300.39573,0.05177
3298.33556,0.05214
3296.27539,0.05262
3294.21521,0.05288
3292.15504,0.05295
3290.09487,0.05299
3288.03470,0.05306
3285.97453,0.05305
3283.91435,0.05293
3281.85418,0.05282
3279.79401,0.05275
3277.73384,0.05263
3275.67367,0.05246
3273.61349,0.05243
3271.55332,0.05272
3269.49315,0.05306
3267.43298,0.05308
3265.37281,0.05278
3263.31263,0.05248
3261.25246,0.05237
3259.19229,0.05230
3257.13212,0.05203
3255.07194,0.05177
3253.01177,0.05174
3250.95160,0.05156
3248.89143,0.05109
3246.83126,0.05070
3244.77108,0.05066
3242.71091,0.05071
3240.65074,0.05054
3238.59057,0.05021
3236.53040,0.05012
3234.47022,0.05037
3232.41005,0.05050
3230.34988,0.05022
3228.28971,0.04968
3226.22954,0.04916
3224.16936,0.04881
3222.10919,0.04852
3220.04902,0.04835
3217.98885,0.04847
3215.92867,0.04866
3213.86850,0.04852
3211.80833,0.04806
3209.74816,0.04769
3207.68799,0.04761
3205.62781,0.04751
3203.56764,0.04719
3201.50747,0.04684
3199.44730,0.04666
3197.38713,0.04657
3195.32695,0.04652
3193.26678,0.04653
3191.20661,0.04651
3189.14644,0.04653
3187.08626,0.04645
3185.02609,0.04622
3182.96592,0.04614
3180.90575,0.04595
3178.84558,0.04523
3176.78540,0.04444
3174.72523,0.04408
3172.66506,0.04408
3170.60489,0.04416
3168.54472,0.04404
3166.48454,0.04360
3164.42437,0.04317
3162.36420,0.04303
3160.30403,0.04296
3158.24386,0.04272
3156.18368,0.04239
3154.12351,0.04216
3152.06334,0.04200
3150.00317,0.04174
3147.94299,0.04144
3145.88282,0.04120
3143.82265,0.04089
3141.76248,0.04045
3139.70231,0.04008
3137.64213,0.03995
3135.58196,0.03979
3133.52179,0.03950
3131.46162,0.03930
3129.40145,0.03915
3127.34127,0.03880
3125.28110,0.03834
3123.22093,0.03806
3121.16076,0.03798
3119.10058,0.03778
3117.04041,0.03740
3114.98024,0.03723
3112.92007,0.03730
3110.85990,0.03724
3108.79972,0.03702
3106.73955,0.03675
3104.67938,0.03636
3102.61921,0.03587
3100.55904,0.03547
3098.49886,0.03532
3096.43869,0.03527
3094.37852,0.03510
3092.31835,0.03485
3090.25818,0.03467
3088.19800,0.03464
3086.13783,0.03466
3084.07766,0.03452
3082.01749,0.03415
3079.95731,0.03382
3077.89714,0.03371
3075.83697,0.03364
3073.77680,0.03348
3071.71663,0.03338
3069.65645,0.03321
3067.59628,0.03284
3065.53611,0.03251
3063.47594,0.03236
3061.41577,0.03225
3059.35559,0.03199
3057.29542,0.03175
3055.23525,0.03165
3053.17508,0.03157
3051.11491,0.03135
3049.05473,0.03103
3046.99456,0.03065
3044.93439,0.03032
3042.87422,0.03009
3040.81404,0.02987
3038.75387,0.02967
3036.69370,0.02955
3034.63353,0.02937
3032.57336,0.02898
3030.51318,0.02855
3028.45301,0.02828
3026.39284,0.02810
3024.33267,0.02794
3022.27250,0.02783
3020.21232,0.02777
3018.15215,0.02769
3016.09198,0.02766
3014.03181,0.02752
3011.97163,0.02720
3009.91146,0.02688
3007.85129,0.02661
3005.79112,0.02633
3003.73095,0.02609
3001.67077,0.02594
2999.61060,0.02590
2997.55043,0.02588
2995.49026,0.02587
2993.43009,0.02602
2991.36991,0.02619
2989.30974,0.02609
2987.24957,0.02588
2985.18940,0.02593
2983.12923,0.02627
2981.06905,0.02666
2979.00888,0.02699
2976.94871,0.02743
2974.88854,0.02795
2972.82836,0.02841
2970.76819,0.02892
2968.70802,0.02968
2966.64785,0.03070
2964.58768,0.03171
2962.52750,0.03233
2960.46733,0.03285
2958.40716,0.03384
2956.34699,0.03499
2954.28682,0.03580
2952.22664,0.03649
2950.16647,0.03740
2948.10630,0.03858
2946.04613,0.03979
2943.98596,0.04097
2941.92578,0.04242
2939.86561,0.04418
2937.80544,0.04604
2935.74527,0.04807
2933.68509,0.05018
2931.62492,0.05228
2929.56475,0.05441
2927.50458,0.05636
2925.44441,0.05805
2923.38423,0.05974
2921.32406,0.06137
2919.26389,0.06255
2917.20372,0.06267
2915.14355,0.06117
2913.08337,0.05825
2911.02320,0.05492
2908.96303,0.05208
2906.90286,0.04992
2904.84268,0.04818
2902.78251,0.04670
2900.72234,0.04541
2898.66217,0.04429
2896.60200,0.04331
2894.54182,0.04250
2892.48165,0.04183
2890.42148,0.04105
2888.36131,0.03997
2886.30114,0.03893
2884.24096,0.03828
2882.18079,0.03777
2880.12062,0.03718
2878.06045,0.03664
2876.00028,0.03637
2873.94010,0.03652
2871.87993,0.03682
2869.81976,0.03707
2867.75959,0.03757
2865.69941,0.03845
2863.63924,0.03950
2861.57907,0.04074
2859.51890,0.04229
2857.45873,0.04400
2855.39855,0.04585
2853.33838,0.04791
2851.27821,0.04961
2849.21804,0.04960
2847.15787,0.04717
2845.09769,0.04332
2843.03752,0.03946
2840.97735,0.03633
2838.91718,0.03415
2836.85700,0.03260
2834.79683,0.03139
2832.73666,0.03052
2830.67649,0.02982
2828.61632,0.02903
2826.55614,0.02816
2824.49597,0.02750
2822.43580,0.02698
2820.37563,0.02660
2818.31546,0.02638
2816.25528,0.02614
2814.19511,0.02579
2812.13494,0.02545
2810.07477,0.02524
2808.01460,0.02500
2805.95442,0.02463
2803.89425,0.02435
2801.83408,0.02421
2799.77391,0.02402
2797.71373,0.02364
2795.65356,0.02330
2793.59339,0.02312
2791.53322,0.02303
2789.47305,0.02289
2787.41287,0.02260
2785.35270,0.02234
2783.29253,0.02221
2781.23236,0.02202
2779.17219,0.02178
2777.11201,0.02179
2775.05184,0.02191
2772.99167,0.02182
2770.93150,0.02159
2768.87133,0.02130
2766.81115,0.02112
2764.75098,0.02114
2762.69081,0.02115
2760.63064,0.02111
2758.57046,0.02106
2756.51029,0.02090
2754.45012,0.02066
2752.38995,0.02048
2750.32978,0.02050
2748.26960,0.02068
2746.20943,0.02078
2744.14926,0.02064
2742.08909,0.02049
2740.02892,0.02042
2737.96874,0.02031
2735.90857,0.02011
2733.84840,0.01984
2731.78823,0.01969
2729.72805,0.01984
2727.66788,0.02004
2725.60771,0.02010
2723.54754,0.02004
2721.48737,0.01989
2719.42719,0.01978
2717.36702,0.01967
2715.30685,0.01945
2713.24668,0.01917
2711.18651,0.01900
2709.12633,0.01905
2707.06616,0.01909
2705.00599,0.01903
2702.94582,0.01904
2700.88565,0.01904
2698.82547,0.01886
2696.76530,0.01858
2694.70513,0.01837
2692.64496,0.01835
2690.58478,0.01847
2688.52461,0.01848
2686.46444,0.01836
2684.40427,0.01820
2682.34410,0.01800
2680.28392,0.01789
2678.22375,0.01798
2676.16358,0.01809
2674.10341,0.01802
2672.04324,0.01780
2669.98306,0.01758
2667.92289,0.01753
2665.86272,0.01757
2663.80255,0.01760
2661.74238,0.01751
2659.68220,0.01729
2657.62203,0.01717
2655.56186,0.01731
2653.50169,0.01741
2651.44151,0.01724
2649.38134,0.01706
2647.32117,0.01699
2645.26100,0.01687
2643.20083,0.01671
2641.14065,0.01670
2639.08048,0.01688
2637.02031,0.01697
2634.96014,0.01672
2632.89997,0.01638
2630.83979,0.01622
2628.77962,0.01615
2626.71945,0.01591
2624.65928,0.01556
2622.59910,0.01542
2620.53893,0.01545
2618.47876,0.01556
2616.41859,0.01567
2614.35842,0.01559
2612.29824,0.01536
2610.23807,0.01518
2608.17790,0.01518
2606.11773,0.01507
2604.05756,0.01477
2601.99738,0.01472
2599.93721,0.01485
2597.87704,0.01467
2595.81687,0.01434
2593.75670,0.01415
2591.69652,0.01398
2589.63635,0.01378
2587.57618,0.01367
2585.51601,0.01363
2583.45583,0.01383
2581.39566,0.01425
2579.33549,0.01441
2577.27532,0.01421
2575.21515,0.01400
2573.15497,0.01385
2571.09480,0.01357
2569.03463,0.01325
2566.97446,0.01315
2564.91429,0.01319
2562.85411,0.01318
2560.79394,0.01301
2558.73377,0.01276
2556.67360,0.01272
2554.61342,0.01307
2552.55325,0.01343
2550.49308,0.01343
2548.43291,0.01321
2546.37274,0.01287
2544.31256,0.01258
2542.25239,0.01243
2540.19222,0.01227
2538.13205,0.01232
2536.07188,0.01251
2534.01170,0.01246
2531.95153,0.01227
2529.89136,0.01198
2527.83119,0.01163
2525.77102,0.01149
2523.71084,0.01158
2521.65067,0.01186
2519.59050,0.01199
2517.53033,0.01182
2515.47015,0.01180
2513.40998,0.01188
2511.34981,0.01177
2509.28964,0.01167
2507.22947,0.01158
2505.16929,0.01130
2503.10912,0.01110
2501.04895,0.01114
2498.98878,0.01119
2496.92861,0.01102
2494.86843,0.01091
2492.80826,0.01112
2490.74809,0.01109
2488.68792,0.01060
2486.62775,0.01024
2484.56757,0.01014
2482.50740,0.01015
2480.44723,0.01036
2478.38706,0.01072
2476.32688,0.01086
2474.26671,0.01049
2472.20654,0.00987
2470.14637,0.00964
2468.08620,0.01004
2466.02602,0.01042
2463.96585,0.01017
2461.90568,0.00990
2459.84551,0.00986
2457.78534,0.00957
2455.72516,0.00929
2453.66499,0.00942
2451.60482,0.00979
2449.54465,0.00994
2447.48447,0.00972
2445.42430,0.00941
2443.36413,0.00914
2441.30396,0.00915
2439.24379,0.00958
2437.18361,0.01000
2435.12344,0.00997
2433.06327,0.00951
2431.00310,0.00915
2428.94293,0.00913
2426.88275,0.00921
2424.82258,0.00929
2422.76241,0.00942
2420.70224,0.00946
2418.64207,0.00921
2416.58189,0.00876
2414.52172,0.00843
2412.46155,0.00828
2410.40138,0.00839
2408.34120,0.00874
2406.28103,0.00897
2404.22086,0.00894
2402.16069,0.00873
2400.10052,0.00850
2398.04034,0.00832
2395.98017,0.00801
2393.92000,0.00774
2391.85983,0.00797
2389.79966,0.00844
2387.73948,0.00859
2385.67931,0.00846
2383.61914,0.00852
2381.55897,0.00883
2379.49880,0.00893
2377.43862,0.00856
2375.37845,0.00798
2373.31828,0.00755
2371.25811,0.00771
2369.19793,0.00873
2367.13776,0.00984
2365.07759,0.00975
2363.01742,0.00834
2360.95725,0.00673
2358.89707,0.00595
2356.83690,0.00610
2354.77673,0.00640
2352.71656,0.00658
2350.65639,0.00698
2348.59621,0.00741
2346.53604,0.00755
2344.47587,0.00776
2342.41570,0.00835
2340.35552,0.00832
2338.29535,0.00735
2336.23518,0.00668
2334.17501,0.00691
2332.11484,0.00724
2330.05466,0.00703
2327.99449,0.00658
2325.93432,0.00645
2323.87415,0.00681
2321.81398,0.00739
2319.75380,0.00803
2317.69363,0.00850
2315.63346,0.00839
2313.57329,0.00787
2311.51312,0.00753
2309.45294,0.00749
2307.39277,0.00753
2305.33260,0.00748
2303.27243,0.00740
2301.21225,0.00752
2299.15208,0.00770
2297.09191,0.00751
2295.03174,0.00702
2292.97157,0.00676
2290.91139,0.00693
2288.85122,0.00717
2286.79105,0.00717
2284.73088,0.00709
2282.67071,0.00718
2280.61053,0.00734
2278.55036,0.00733
2276.49019,0.00721
2274.43002,0.00694
2272.36984,0.00651
2270.30967,0.00624
2268.24950,0.00608
2266.18933,0.00567
2264.12916,0.00502
2262.06898,0.00454
2260.00881,0.00453
2257.94864,0.00499
2255.88847,0.00546
2253.82830,0.00551
2251.76812,0.00561
2249.70795,0.00593
2247.64778,0.00594
2245.58761,0.00568
2243.52744,0.00531
2241.46726,0.00490
2239.40709,0.00516
2237.34692,0.00611
2235.28675,0.00685
2233.22657,0.00672
2231.16640,0.00567
2229.10623,0.00454
2227.04606,0.00376
2224.98589,0.00331
2222.92571,0.00385
2220.86554,0.00491
2218.80537,0.00530
2216.74520,0.00564
2214.68503,0.00630
2212.62485,0.00569
2210.56468,0.00391
2208.50451,0.00309
2206.44434,0.00356
2204.38417,0.00397
2202.32399,0.00393
2200.26382,0.00425
2198.20365,0.00493
2196.14348,0.00504
2194.08330,0.00489
2192.02313,0.00517
2189.96296,0.00561
2187.90279,0.00601
2185.84262,0.00629
2183.78244,0.00578
2181.72227,0.00418
2179.66210,0.00266
2177.60193,0.00185
2175.54176,0.00120
2173.48158,0.00128
2171.42141,0.00252
2169.36124,0.00362
2167.30107,0.00441
2165.24089,0.00485
2163.18072,0.00379
2161.12055,0.00221
2159.06038,0.00171
2157.00021,0.00173
2154.94003,0.00094
2152.87986,0.00000
2150.81969,0.00077
2148.75952,0.00221
2146.69935,0.00243
2144.63917,0.00249
2142.57900,0.00286
2140.51883,0.00259
2138.45866,0.00218
2136.39849,0.00201
2134.33831,0.00200
2132.27814,0.00272
2130.21797,0.00370
2128.15780,0.00404
2126.09762,0.00395
2124.03745,0.00403
2121.97728,0.00435
2119.91711,0.00463
2117.85694,0.00504
2115.79676,0.00525
2113.73659,0.00472
2111.67642,0.00399
2109.61625,0.00375
2107.55608,0.00395
2105.49590,0.00415
2103.43573,0.00423
2101.37556,0.00422
2099.31539,0.00425
2097.25521,0.00434
2095.19504,0.00466
2093.13487,0.00538
2091.07470,0.00576
2089.01453,0.00545
2086.95435,0.00499
2084.89418,0.00452
2082.83401,0.00443
2080.77384,0.00480
2078.71367,0.00475
2076.65349,0.00442
2074.59332,0.00454
2072.53315,0.00449
2070.47298,0.00375
2068.41281,0.00332
2066.35263,0.00337
2064.29246,0.00305
2062.23229,0.00263
2060.17212,0.00276
2058.11194,0.00327
2056.05177,0.00348
2053.99160,0.00376
2051.93143,0.00461
2049.87126,0.00527
2047.81108,0.00516
2045.75091,0.00387
2043.69074,0.00157
2041.63057,0.00052
2039.57040,0.00195
2037.51022,0.00359
2035.45005,0.00372
2033.38988,0.00324
2031.32971,0.00293
2029.26954,0.00234
2027.20936,0.00154
2025.14919,0.00144
2023.08902,0.00206
2021.02885,0.00235
2018.96867,0.00222
2016.90850,0.00182
2014.84833,0.00139
2012.78816,0.00180
2010.72799,0.00261
2008.66781,0.00302
2006.60764,0.00345
2004.54747,0.00409
2002.48730,0.00445
2000.42713,0.00409
1998.36695,0.00314
1996.30678,0.00244
1994.24661,0.00183
1992.18644,0.00104
1990.12626,0.00119
1988.06609,0.00198
1986.00592,0.00179
1983.94575,0.00143
1981.88558,0.00297
1979.82540,0.00489
1977.76523,0.00480
1975.70506,0.00395
1973.64489,0.00357
1971.58472,0.00318
1969.52454,0.00251
1967.46437,0.00165
1965.40420,0.00108
1963.34403,0.00155
1961.28386,0.00242
1959.22368,0.00250
1957.16351,0.00227
1955.10334,0.00220
1953.04317,0.00237
1950.98299,0.00272
1948.92282,0.00241
1946.86265,0.00131
1944.80248,0.00080
1942.74231,0.00151
1940.68213,0.00223
1938.62196,0.00237
1936.56179,0.00229
1934.50162,0.00211
1932.44145,0.00190
1930.38127,0.00177
1928.32110,0.00185
1926.26093,0.00206
1924.20076,0.00184
1922.14059,0.00100
1920.08041,0.00040
1918.02024,0.00054
1915.96007,0.00088
1913.89990,0.00119
1911.83972,0.00159
1909.77955,0.00205
1907.71938,0.00237
1905.65921,0.00243
1903.59904,0.00229
1901.53886,0.00209
1899.47869,0.00188
1897.41852,0.00153
1895.35835,0.00100
1893.29818,0.00071
1891.23800,0.00097
1889.17783,0.00139
1887.11766,0.00143
1885.05749,0.00114
1882.99731,0.00093
1880.93714,0.00100
1878.87697,0.00124
1876.81680,0.00125
1874.75663,0.00121
1872.69645,0.00158
1870.63628,0.00198
1868.57611,0.00172
1866.51594,0.00107
1864.45577,0.00076
1862.39559,0.00087
1860.33542,0.00100
1858.27525,0.00094
1856.21508,0.00085
1854.15491,0.00081
1852.09473,0.00078
1850.03456,0.00080
1847.97439,0.00080
1845.91422,0.00061
1843.85404,0.00041
1841.79387,0.00052
1839.73370,0.00069
1837.67353,0.00065
1835.61336,0.00049
1833.55318,0.00034
1831.49301,0.00028
1829.43284,0.00024
1827.37267,0.00014
1825.31250,0.00000
1823.25232,0.00005
1821.19215,0.00033
1819.13198,0.00052
1817.07181,0.00043
1815.01163,0.00027
1812.95146,0.00018
1810.89129,0.00004
1808.83112,-0.00014
1806.77095,-0.00020
1804.71077,-0.00008
1802.65060,0.00009
1800.59043,0.00011
1798.53026,-0.00003
1796.47009,-0.00016
1794.40991,-0.00019
1792.34974,-0.00014
1790.28957,0.00004
1788.22940,0.00029
1786.16923,0.00037
1784.10905,0.00022
1782.04888,0.00000
1779.98871,-0.00014
1777.92854,-0.00007
1775.86836,-0.00001
1773.80819,-0.00004
1771.74802,-0.00010
1769.68785,-0.00007
1767.62768,0.00013
1765.56750,0.00039
1763.50733,0.00074
1761.44716,0.00130
1759.38699,0.00201
1757.32682,0.00292
1755.26664,0.00399
1753.20647,0.00511
1751.14630,0.00659
1749.08613,0.00861
1747.02596,0.01081
1744.96578,0.01317
1742.90561,0.01610
1740.84544,0.01968
1738.78527,0.02339
1736.72509,0.02649
1734.66492,0.02918
1732.60475,0.03149
1730.54458,0.03267
1728.48441,0.03290
1726.42423,0.03266
1724.36406,0.03220
1722.30389,0.03186
1720.24372,0.03189
1718.18355,0.03205
1716.12337,0.03190
1714.06320,0.03141
1712.00303,0.03089
1709.94286,0.03052
1707.88268,0.03031
1705.82251,0.02999
1703.76234,0.02944
1701.70217,0.02890
1699.64200,0.02837
1697.58182,0.02785
1695.52165,0.02745
1693.46148,0.02712
1691.40131,0.02691
1689.34114,0.02702
1687.28096,0.02750
1685.22079,0.02795
1683.16062,0.02808
1681.10045,0.02824
1679.04028,0.02851
1676.98010,0.02876
1674.91993,0.02911
1672.85976,0.02963
1670.79959,0.03031
1668.73941,0.03129
1666.67924,0.03239
1664.61907,0.03357
1662.55890,0.03520
1660.49873,0.03712
1658.43855,0.03873
1656.37838,0.03992
1654.31821,0.04109
1652.25804,0.04244
1650.19787,0.04338
1648.13769,0.04366
1646.07752,0.04359
1644.01735,0.04363
1641.95718,0.04387
1639.89701,0.04429
1637.83683,0.04500
1635.77666,0.04575
1633.71649,0.04591
1631.65632,0.04576
1629.59614,0.04583
1627.53597,0.04618
1625.47580,0.04650
1623.41563,0.04665
1621.35546,0.04682
1619.29528,0.04714
1617.23511,0.04738
1615.17494,0.04748
1613.11477,0.04768
1611.05460,0.04802
1608.99442,0.04829
1606.93425,0.04834
1604.87408,0.04816
1602.81391,0.04768
1600.75373,0.04677
1598.69356,0.04553
1596.63339,0.04418
1594.57322,0.04278
1592.51305,0.04140
1590.45287,0.03998
1588.39270,0.03839
1586.33253,0.03675
1584.27236,0.03523
1582.21219,0.03385
1580.15201,0.03264
1578.09184,0.03146
1576.03167,0.02994
1573.97150,0.02847
1571.91133,0.02744
1569.85115,0.02644
1567.79098,0.02551
1565.73081,0.02497
1563.67064,0.02469
1561.61046,0.02467
1559.55029,0.02483
1557.49012,0.02485
1555.42995,0.02491
1553.36978,0.02516
1551.30960,0.02557
1549.24943,0.02600
1547.18926,0.02647
1545.12909,0.02698
1543.06892,0.02713
1541.00874,0.02675
1538.94857,0.02651
1536.88840,0.02667
1534.82823,0.02653
1532.76805,0.02576
1530.70788,0.02495
1528.64771,0.02442
1526.58754,0.02388
1524.52737,0.02332
1522.46719,0.02281
1520.40702,0.02237
1518.34685,0.02235
1516.28668,0.02257
1514.22651,0.02253
1512.16633,0.02219
1510.10616,0.02160
1508.04599,0.02010
1505.98582,0.01742
1503.92565,0.01553
1501.86547,0.01467
1499.80530,0.01380
1497.74513,0.01245
1495.68496,0.01087
1493.62478,0.00964
1491.56461,0.00868
1489.50444,0.00748
1487.44427,0.00618
1485.38410,0.00540
1483.32392,0.00528
1481.26375,0.00560
1479.20358,0.00626
1477.14341,0.00736
1475.08324,0.00910
1473.02306,0.01153
1470.96289,0.01409
1468.90272,0.01627
1466.84255,0.01830
1464.78238,0.02024
1462.72220,0.02166
1460.66203,0.02274
1458.60186,0.02417
1456.54169,0.02580
1454.48151,0.02677
1452.42134,0.02746
1450.36117,0.02839
1448.30100,0.02947
1446.24083,0.03030
1444.18065,0.03069
1442.12048,0.03074
1440.06031,0.03053
1438.00014,0.02989
1435.93997,0.02881
1433.87979,0.02770
1431.81962,0.02671
1429.75945,0.02569
1427.69928,0.02478
1425.63910,0.02410
1423.57893,0.02362
1421.51876,0.02341
1419.45859,0.02350
1417.39842,0.02358
1415.33824,0.02339
1413.27807,0.02304
1411.21790,0.02268
1409.15773,0.02236
1407.09756,0.02217
1405.03738,0.02214
1402.97721,0.02223
1400.91704,0.02226
1398.85687,0.02219
1396.79670,0.02214
1394.73652,0.02224
1392.67635,0.02260
1390.61618,0.02314
1388.55601,0.02370
1386.49583,0.02428
1384.43566,0.02499
1382.37549,0.02588
1380.31532,0.02686
1378.25515,0.02783
1376.19497,0.02871
1374.13480,0.02943
1372.07463,0.03005
1370.01446,0.03058
1367.95429,0.03082
1365.89411,0.03084
1363.83394,0.03088
1361.77377,0.03087
1359.71360,0.03082
1357.65343,0.03091
1355.59325,0.03108
1353.53308,0.03123
1351.47291,0.03140
1349.41274,0.03169
1347.35256,0.03211
1345.29239,0.03251
1343.23222,0.03289
1341.17205,0.03329
1339.11188,0.03364
1337.05170,0.03393
1334.99153,0.03438
1332.93136,0.03500
1330.87119,0.03558
1328.81102,0.03614
1326.75084,0.03682
1324.69067,0.03762
1322.63050,0.03834
1320.57033,0.03888
1318.51015,0.03925
1316.44998,0.03946
1314.38981,0.03940
1312.32964,0.03898
1310.26947,0.03831
1308.20929,0.03739
1306.14912,0.03612
1304.08895,0.03448
1302.02878,0.03266
1299.96861,0.03095
1297.90843,0.02943
1295.84826,0.02797
1293.78809,0.02659
1291.72792,0.02541
1289.66775,0.02452
1287.60757,0.02386
1285.54740,0.02349
1283.48723,0.02334
1281.42706,0.02318
1279.36688,0.02306
1277.30671,0.02309
1275.24654,0.02331
1273.18637,0.02378
1271.12620,0.02441
1269.06602,0.02507
1267.00585,0.02566
1264.94568,0.02622
1262.88551,0.02681
1260.82534,0.02743
1258.76516,0.02804
1256.70499,0.02862
1254.64482,0.02922
1252.58465,0.02979
1250.52447,0.03045
1248.46430,0.03134
1246.40413,0.03229
1244.34396,0.03310
1242.28379,0.03370
1240.22361,0.03417
1238.16344,0.03482
1236.10327,0.03571
1234.04310,0.03648
1231.98293,0.03692
1229.92275,0.03739
1227.86258,0.03796
1225.80241,0.03841
1223.74224,0.03889
1221.68207,0.03944
1219.62189,0.03989
1217.56172,0.04023
1215.50155,0.04056
1213.44138,0.04093
1211.38120,0.04133
1209.32103,0.04187
1207.26086,0.04254
1205.20069,0.04299
1203.14052,0.04321
1201.08034,0.04340
1199.02017,0.04358
1196.96000,0.04370
1194.89983,0.04373
1192.83966,0.04369
1190.77948,0.04349
1188.71931,0.04290
1186.65914,0.04203
1184.59897,0.04126
1182.53880,0.04080
1180.47862,0.04056
1178.41845,0.04038
1176.35828,0.04035
1174.29811,0.04053
1172.23793,0.04086
1170.17776,0.04132
1168.11759,0.04177
1166.05742,0.04197
1163.99725,0.04189
1161.93707,0.04162
1159.87690,0.04112
1157.81673,0.04025
1155.75656,0.03915
1153.69639,0.03821
1151.63621,0.03751
1149.57604,0.03670
1147.51587,0.03573
1145.45570,0.03478
1143.39552,0.03377
1141.33535,0.03266
1139.27518,0.03161
1137.21501,0.03079
1135.15484,0.03017
1133.09466,0.02986
1131.03449,0.02999
1128.97432,0.03053
1126.91415,0.03142
1124.85398,0.03249
1122.79380,0.03371
1120.73363,0.03528
1118.67346,0.03705
1116.61329,0.03900
1114.55312,0.04139
1112.49294,0.04406
1110.43277,0.04665
1108.37260,0.04916
1106.31243,0.05167
1104.25225,0.05388
1102.19208,0.05560
1100.13191,0.05699
1098.07174,0.05816
1096.01157,0.05921
1093.95139,0.06035
1091.89122,0.06158
1089.83105,0.06280
1087.77088,0.06436
1085.71071,0.06651
1083.65053,0.06890
1081.59036,0.07113
1079.53019,0.07320
1077.47002,0.07500
1075.40985,0.07645
1073.34967,0.07779
1071.28950,0.07916
1069.22933,0.08044
1067.16916,0.08162
1065.10898,0.08278
1063.04881,0.08392
1060.98864,0.08502
1058.92847,0.08625
1056.86830,0.08773
1054.80812,0.08906
1052.74795,0.09020
1050.68778,0.09159
1048.62761,0.09323
1046.56744,0.09472
1044.50726,0.09615
1042.44709,0.09778
1040.38692,0.09967
1038.32675,0.10164
1036.26657,0.10351
1034.20640,0.10533
1032.14623,0.10686
1030.08606,0.10805
1028.02589,0.10927
1025.96571,0.11019
1023.90554,0.11057
1021.84537,0.11052
1019.78520,0.11011
1017.72503,0.10958
1015.66485,0.10901
1013.60468,0.10803
1011.54451,0.10651
1009.48434,0.10462
1007.42417,0.10244
1005.36399,0.09992
1003.30382,0.09736
1001.24365,0.09483
999.18348,0.09227
997.12330,0.08971
995.06313,0.08707
993.00296,0.08446
990.94279,0.08211
988.88262,0.07978
986.82244,0.07703
984.76227,0.07392
982.70210,0.07058
980.64193,0.06716
978.58176,0.06399
976.52158,0.06104
974.46141,0.05811
972.40124,0.05545
970.34107,0.05306
968.28089,0.05075
966.22072,0.04888
964.16055,0.04754
962.10038,0.04613
960.04021,0.04420
957.98003,0.04197
955.91986,0.03965
953.85969,0.03729
951.79952,0.03496
949.73935,0.03267
947.67917,0.03058
945.61900,0.02861
943.55883,0.02663
941.49866,0.02501
939.43849,0.02386
937.37831,0.02295
935.31814,0.02220
933.25797,0.02147
931.19780,0.02072
929.13762,0.02022
927.07745,0.01995
925.01728,0.01945
922.95711,0.01851
920.89694,0.01740
918.83676,0.01628
916.77659,0.01511
914.71642,0.01387
912.65625,0.01254
910.59608,0.01143
908.53590,0.01063
906.47573,0.00962
904.41556,0.00840
902.35539,0.00750
900.29522,0.00725
898.23504,0.00751
896.17487,0.00790
894.11470,0.00820
892.05453,0.00822
889.99435,0.00793
887.93418,0.00751
885.87401,0.00710
883.81384,0.00678
881.75367,0.00653
879.69349,0.00633
877.63332,0.00643
875.57315,0.00685
873.51298,0.00729
871.45281,0.00763
869.39263,0.00774
867.33246,0.00765
865.27229,0.00729
863.21212,0.00652
861.15194,0.00532
859.09177,0.00366
857.03160,0.00206
854.97143,0.00115
852.91126,0.00074
850.85108,0.00043
848.79091,0.00019
846.73074,0.00000
844.67057,-0.00003
842.61040,0.00028
840.55022,0.00071
838.49005,0.00108
836.42988,0.00143
834.36971,0.00179
832.30954,0.00216
830.24936,0.00225
828.18919,0.00213
826.12902,0.00254
824.06885,0.00297
822.00867,0.00265
819.94850,0.00225
817.88833,0.00208
815.82816,0.00189
813.76799,0.00196
811.70781,0.00226
809.64764,0.00234
807.58747,0.00230
805.52730,0.00187
803.46713,0.00076
801.40695,0.00000
799.34678,-0.00034
797.28661,-0.00066
795.22644,-0.00124
793.16627,-0.00173
791.10609,-0.00166
789.04592,-0.00088
786.98575,0.00010
784.92558,0.00112
782.86540,0.00193
780.80523,0.00191
778.74506,0.00148
776.68489,0.00136
774.62472,0.00153
772.56454,0.00182
770.50437,0.00261
768.44420,0.00405
766.38403,0.00552
764.32386,0.00665
762.26368,0.00769
760.20351,0.00880
758.14334,0.00968
756.08317,0.00993
754.02299,0.00958
751.96282,0.00918
749.90265,0.00901
747.84248,0.00826
745.78231,0.00643
743.72213,0.00508
741.66196,0.00477
739.60179,0.00411
737.54162,0.00322
735.48145,0.00304
733.42127,0.00338
731.36110,0.00390
729.30093,0.00462
727.24076,0.00516
725.18059,0.00505
723.12041,0.00488
721.06024,0.00520
719.00007,0.00565
716.93990,0.00577
714.87972,0.00582
712.81955,0.00550
710.75938,0.00432
708.69921,0.00308
706.63904,0.00274
704.57886,0.00320
702.51869,0.00377
700.45852,0.00387
698.39835,0.00366
696.33818,0.00332
694.27800,0.00228
692.21783,0.00065
690.15766,0.00000
688.09749,0.00063
686.03731,0.00140
683.97714,0.00149
681.91697,0.00107
679.85680,0.00058
677.79663,0.00049
675.73645,0.00041
673.67628,-0.00049
671.61611,-0.00133
669.55594,-0.00057
667.49577,0.00146
665.43559,0.00254
663.37542,0.00195
661.31525,0.00051
659.25508,-0.00019
657.19491,0.00016
655.13473,0.00024
653.07456,-0.00020
651.01439,-0.00019
648.95422,0.00000
646.89404,-0.00066
644.83387,-0.00178
642.77370,-0.00309
640.71353,-0.00384
638.65336,-0.00285
636.59318,-0.00107
634.53301,-0.00050
632.47284,-0.00110
630.41267,-0.00103
628.35250,0.00015
626.29232,0.00071
624.23215,0.00038
622.17198,-0.00011
620.11181,-0.00155
618.05164,-0.00266
615.99146,-0.00106
613.93129,0.00099
611.87112,-0.00020
609.81095,-0.00275
607.75077,-0.00377
605.69060,-0.00313
603.63043,-0.00114
601.57026,0.00074
599.51009,0.00000
