3996.73391,0.00054
3994.67373,0.00032
3992.61356,0.00004
3990.55339,0.00000
3988.49322,0.00029
3986.43305,0.00062
3984.37287,0.00076
3982.31270,0.00070
3980.25253,0.00056
3978.19236,0.00055
3976.13219,0.00069
3974.07201,0.00083
3972.01184,0.00079
3969.95167,0.00055
3967.89150,0.00043
3965.83133,0.00061
3963.77115,0.00083
3961.71098,0.00074
3959.65081,0.00051
3957.59064,0.00050
3955.53046,0.00069
3953.47029,0.00092
3951.41012,0.00108
3949.34995,0.00110
3947.28978,0.00111
3945.22960,0.00124
3943.16943,0.00131
3941.10926,0.00106
3939.04909,0.00084
3936.98892,0.00089
3934.92874,0.00097
3932.86857,0.00093
3930.80840,0.00091
3928.74823,0.00086
3926.68805,0.00074
3924.62788,0.00076
3922.56771,0.00099
3920.50754,0.00120
3918.44737,0.00128
3916.38719,0.00117
3914.32702,0.00098
3912.26685,0.00098
3910.20668,0.00128
3908.14651,0.00155
3906.08633,0.00146
3904.02616,0.00107
3901.96599,0.00073
3899.90582,0.00060
3897.84565,0.00061
3895.78547,0.00069
3893.72530,0.00084
3891.66513,0.00104
3889.60496,0.00121
3887.54478,0.00137
3885.48461,0.00159
3883.42444,0.00174
3881.36427,0.00177
3879.30410,0.00183
3877.24392,0.00186
3875.18375,0.00161
3873.12358,0.00106
3871.06341,0.00060
3869.00324,0.00053
3866.94306,0.00075
3864.88289,0.00099
3862.82272,0.00103
3860.76255,0.00073
3858.70237,0.00032
3856.64220,0.00009
3854.58203,0.00027
3852.52186,0.00093
3850.46169,0.00142
3848.40151,0.00146
3846.34134,0.00142
3844.28117,0.00149
3842.22100,0.00147
3840.16083,0.00133
3838.10065,0.00134
3836.04048,0.00144
3833.98031,0.00153
3831.92014,0.00153
3829.85997,0.00130
3827.79979,0.00090
3825.73962,0.00054
3823.67945,0.00030
3821.61928,0.00043
3819.55910,0.00123
3817.49893,0.00210
3815.43876,0.00213
3813.37859,0.00149
3811.31842,0.00099
3809.25824,0.00086
3807.19807,0.00106
3805.13790,0.00150
3803.07773,0.00176
3801.01756,0.00159
3798.95738,0.00128
3796.89721,0.00116
3794.83704,0.00123
3792.77687,0.00132
3790.71670,0.00124
3788.65652,0.00105
3786.59635,0.00100
3784.53618,0.00113
3782.47601,0.00121
3780.41583,0.00122
3778.35566,0.00124
3776.29549,0.00115
3774.23532,0.00103
3772.17515,0.00119
3770.11497,0.00156
3768.05480,0.00174
3765.99463,0.00174
3763.93446,0.00176
3761.87429,0.00158
3759.81411,0.00115
3757.75394,0.00089
3755.69377,0.00101
3753.63360,0.00122
3751.57342,0.00134
3749.51325,0.00121
3747.45308,0.00062
3745.39291,0.00000
3743.33274,0.00028
3741.27256,0.00112
3739.21239,0.00144
3737.15222,0.00120
3735.09205,0.00096
3733.03188,0.00087
3730.97170,0.00080
3728.91153,0.00082
3726.85136,0.00083
3724.79119,0.00078
3722.73102,0.00109
3720.67084,0.00184
3718.61067,0.00212
3716.55050,0.00164
3714.49033,0.00113
3712.43015,0.00107
3710.36998,0.00121
3708.30981,0.00113
3706.24964,0.00095
3704.18947,0.00081
3702.12929,0.00060
3700.06912,0.00047
3698.00895,0.00063
3695.94878,0.00097
3693.88861,0.00123
3691.82843,0.00142
3689.76826,0.00174
3687.70809,0.00198
3685.64792,0.00191
3683.58775,0.00175
3681.52757,0.00157
3679.46740,0.00133
3677.40723,0.00128
3675.34706,0.00177
3673.28688,0.00234
3671.22671,0.00224
3669.16654,0.00188
3667.10637,0.00176
3665.04620,0.00172
3662.98602,0.00184
3660.92585,0.00215
3658.86568,0.00229
3656.80551,0.00240
3654.74534,0.00270
3652.68516,0.00302
3650.62499,0.00327
3648.56482,0.00355
3646.50465,0.00384
3644.44447,0.00403
3642.38430,0.00426
3640.32413,0.00465
3638.26396,0.00485
3636.20379,0.00459
3634.14361,0.00435
3632.08344,0.00460
3630.02327,0.00497
3627.96310,0.00488
3625.90293,0.00447
3623.84275,0.00425
3621.78258,0.00442
3619.72241,0.00494
3617.66224,0.00564
3615.60207,0.00627
3613.54189,0.00655
3611.48172,0.00630
3609.42155,0.00593
3607.36138,0.00611
3605.30120,0.00676
3603.24103,0.00728
3601.18086,0.00758
3599.12069,0.00794
3597.06052,0.00848
3595.00034,0.00881
3592.94017,0.00880
3590.88000,0.00896
3588.81983,0.00955
3586.75966,0.01034
3584.69948,0.01088
3582.63931,0.01108
3580.57914,0.01125
3578.51897,0.01166
3576.45879,0.01227
3574.39862,0.01273
3572.33845,0.01280
3570.27828,0.01259
3568.21811,0.01262
3566.15793,0.01327
3564.09776,0.01414
3562.03759,0.01479
3559.97742,0.01507
3557.91725,0.01509
3555.85707,0.01512
3553.79690,0.01527
3551.73673,0.01578
3549.67656,0.01666
3547.61639,0.01747
3545.55621,0.01781
3543.49604,0.01786
3541.43587,0.01805
3539.37570,0.01846
3537.31552,0.01878
3535.25535,0.01897
3533.19518,0.01930
3531.13501,0.01986
3529.07484,0.02060
3527.01466,0.02132
3524.95449,0.02162
3522.89432,0.02172
3520.83415,0.02200
3518.77398,0.02231
3516.71380,0.02262
3514.65363,0.02310
3512.59346,0.02355
3510.53329,0.02374
3508.47312,0.02405
3506.41294,0.02471
3504.35277,0.02534
3502.29260,0.02574
3500.23243,0.02624
3498.17225,0.02706
3496.11208,0.02789
3494.05191,0.02841
3491.99174,0.02876
3489.93157,0.02912
3487.87139,0.02922
3485.81122,0.02899
3483.75105,0.02895
3481.69088,0.02926
3479.63071,0.02959
3477.57053,0.02969
3475.51036,0.02984
3473.45019,0.03043
3471.39002,0.03106
3469.32984,0.03143
3467.26967,0.03176
3465.20950,0.03219
3463.14933,0.03274
3461.08916,0.03336
3459.02898,0.03387
3456.96881,0.03417
3454.90864,0.03426
3452.84847,0.03424
3450.78830,0.03443
3448.72812,0.03497
3446.66795,0.03563
3444.60778,0.03616
3442.54761,0.03647
3440.48744,0.03675
3438.42726,0.03718
3436.36709,0.03753
3434.30692,0.03779
3432.24675,0.03822
3430.18657,0.03890
3428.12640,0.03948
3426.06623,0.03954
3424.00606,0.03928
3421.94589,0.03928
3419.88571,0.03965
3417.82554,0.04012
3415.76537,0.04064
3413.70520,0.04135
3411.64503,0.04193
3409.58485,0.04221
3407.52468,0.04251
3405.46451,0.04280
3403.40434,0.04303
3401.34416,0.04324
3399.28399,0.04314
3397.22382,0.04305
3395.16365,0.04338
3393.10348,0.04369
3391.04330,0.04379
3388.98313,0.04420
3386.92296,0.04485
3384.86279,0.04529
3382.80262,0.04555
3380.74244,0.04575
3378.68227,0.04581
3376.62210,0.04583
3374.56193,0.04604
3372.50176,0.04635
3370.44158,0.04651
3368.38141,0.04659
3366.32124,0.04685
3364.26107,0.04734
3362.20089,0.04778
3360.14072,0.04786
3358.08055,0.04770
3356.02038,0.04790
3353.96021,0.04837
3351.90003,0.04835
3349.83986,0.04806
3347.77969,0.04831
3345.71952,0.04873
3343.65935,0.04875
3341.59917,0.04881
3339.53900,0.04927
3337.47883,0.04977
3335.41866,0.05000
3333.35849,0.05001
3331.29831,0.04985
3329.23814,0.04966
3327.17797,0.04975
3325.11780,0.05004
3323.05762,0.05025
3320.99745,0.05018
3318.93728,0.05008
3316.87711,0.05026
3314.81694,0.05038
3312.75676,0.05044
3310.69659,0.05075
3308.63642,0.05109
3306.57625,0.05130
3304.51608,0.05150
3302.45590,0.05164
3300.39573,0.05179
3298.33556,0.05196
3296.27539,0.05194
3294.21521,0.05179
3292.15504,0.05168
3290.09487,0.05160
3288.03470,0.05164
3285.97453,0.05171
3283.91435,0.05150
3281.85418,0.05132
3279.79401,0.05146
3277.73384,0.05138
3275.67367,0.05114
3273.61349,0.05155
3271.55332,0.05227
3269.49315,0.05254
3267.43298,0.05232
3265.37281,0.05172
3263.31263,0.05115
3261.25246,0.05108
3259.19229,0.05111
3257.13212,0.05076
3255.07194,0.05023
3253.01177,0.04980
3250.95160,0.04979
3248.89143,0.05010
3246.83126,0.05017
3244.77108,0.05010
3242.71091,0.05020
3240.65074,0.05013
3238.59057,0.04980
3236.53040,0.04946
3234.47022,0.04909
3232.41005,0.04870
3230.34988,0.04851
3228.28971,0.04860
3226.22954,0.04878
3224.16936,0.04871
3222.10919,0.04831
3220.04902,0.04776
3217.98885,0.04736
3215.92867,0.04744
3213.86850,0.04797
3211.80833,0.04841
3209.74816,0.04828
3207.68799,0.04778
3205.62781,0.04741
3203.56764,0.04727
3201.50747,0.04728
3199.44730,0.04726
3197.38713,0.04693
3195.32695,0.04635
3193.26678,0.04591
3191.20661,0.04572
3189.14644,0.04551
3187.08626,0.04522
3185.02609,0.04495
3182.96592,0.04477
3180.90575,0.04465
3178.84558,0.04455
3176.78540,0.04453
3174.72523,0.04440
3172.66506,0.04404
3170.60489,0.04359
3168.54472,0.04323
3166.48454,0.04302
3164.42437,0.04290
3162.36420,0.04276
3160.30403,0.04263
3158.24386,0.04247
3156.18368,0.04222
3154.12351,0.04191
3152.06334,0.04169
3150.00317,0.04150
3147.94299,0.04121
3145.88282,0.04089
3143.82265,0.04055
3141.76248,0.04029
3139.70231,0.04029
3137.64213,0.04026
3135.58196,0.03985
3133.52179,0.03931
3131.46162,0.03889
3129.40145,0.03857
3127.34127,0.03846
3125.28110,0.03858
3123.22093,0.03867
3121.16076,0.03859
3119.10058,0.03840
3117.04041,0.03818
3114.98024,0.03780
3112.92007,0.03735
3110.85990,0.03706
3108.79972,0.03684
3106.73955,0.03665
3104.67938,0.03658
3102.61921,0.03660
3100.55904,0.03660
3098.49886,0.03638
3096.43869,0.03599
3094.37852,0.03575
3092.31835,0.03575
3090.25818,0.03569
3088.19800,0.03543
3086.13783,0.03507
3084.07766,0.03473
3082.01749,0.03457
3079.95731,0.03460
3077.89714,0.03453
3075.83697,0.03428
3073.77680,0.03400
3071.71663,0.03363
3069.65645,0.03325
3067.59628,0.03313
3065.53611,0.03320
3063.47594,0.03314
3061.41577,0.03284
3059.35559,0.03238
3057.29542,0.03211
3055.23525,0.03216
3053.17508,0.03221
3051.11491,0.03194
3049.05473,0.03152
3046.99456,0.03137
3044.93439,0.03139
3042.87422,0.03117
3040.81404,0.03071
3038.75387,0.03032
3036.69370,0.03010
3034.63353,0.02986
3032.57336,0.02955
3030.51318,0.02938
3028.45301,0.02934
3026.39284,0.02927
3024.33267,0.02914
3022.27250,0.02888
3020.21232,0.02865
3018.15215,0.02857
3016.09198,0.02852
3014.03181,0.02827
3011.97163,0.02802
3009.91146,0.02806
3007.85129,0.02815
3005.79112,0.02800
3003.73095,0.02769
3001.67077,0.02749
2999.61060,0.02753
2997.55043,0.02758
2995.49026,0.02747
2993.43009,0.02726
2991.36991,0.02711
2989.30974,0.02719
2987.24957,0.02741
2985.18940,0.02752
2983.12923,0.02768
2981.06905,0.02811
2979.00888,0.02859
2976.94871,0.02897
2974.88854,0.02946
2972.82836,0.02998
2970.76819,0.03036
2968.70802,0.03083
2966.64785,0.03179
2964.58768,0.03301
2962.52750,0.03415
2960.46733,0.03528
2958.40716,0.03639
2956.34699,0.03732
2954.28682,0.03811
2952.22664,0.03909
2950.16647,0.04026
2948.10630,0.04129
2946.04613,0.04252
2943.98596,0.04416
2941.92578,0.04580
2939.86561,0.04752
2937.80544,0.04962
2935.74527,0.05196
2933.68509,0.05425
2931.62492,0.05635
2929.56475,0.05832
2927.50458,0.06019
2925.44441,0.06198
2923.38423,0.06358
2921.32406,0.06491
2919.26389,0.06580
2917.20372,0.06575
2915.14355,0.06430
2913.08337,0.06147
2911.02320,0.05813
2908.96303,0.05533
2906.90286,0.05326
2904.84268,0.05155
2902.78251,0.04996
2900.72234,0.04862
2898.66217,0.04772
2896.60200,0.04684
2894.54182,0.04570
2892.48165,0.04452
2890.42148,0.04351
2888.36131,0.04267
2886.30114,0.04176
2884.24096,0.04087
2882.18079,0.04035
2880.12062,0.03998
2878.06045,0.03950
2876.00028,0.03922
2873.94010,0.03934
2871.87993,0.03967
2869.81976,0.03993
2867.75959,0.04021
2865.69941,0.04085
2863.63924,0.04199
2861.57907,0.04348
2859.51890,0.04527
2857.45873,0.04738
2855.39855,0.04956
2853.33838,0.05154
2851.27821,0.05290
2849.21804,0.05258
2847.15787,0.04989
2845.09769,0.04579
2843.03752,0.04196
2840.97735,0.03915
2838.91718,0.03695
2836.85700,0.03501
2834.79683,0.03348
2832.73666,0.03232
2830.67649,0.03139
2828.61632,0.03067
2826.55614,0.03000
2824.49597,0.02939
2822.43580,0.02891
2820.37563,0.02853
2818.31546,0.02809
2816.25528,0.02775
2814.19511,0.02760
2812.13494,0.02740
2810.07477,0.02712
2808.01460,0.02680
2805.95442,0.02637
2803.89425,0.02596
2801.83408,0.02569
2799.77391,0.02545
2797.71373,0.02520
2795.65356,0.02503
2793.59339,0.02491
2791.53322,0.02473
2789.47305,0.02456
2787.41287,0.02436
2785.35270,0.02411
2783.29253,0.02397
2781.23236,0.02385
2779.17219,0.02366
2777.11201,0.02351
2775.05184,0.02346
2772.99167,0.02347
2770.93150,0.02336
2768.87133,0.02302
2766.81115,0.02269
2764.75098,0.02261
2762.69081,0.02282
2760.63064,0.02295
2758.57046,0.02278
2756.51029,0.02260
2754.45012,0.02259
2752.38995,0.02255
2750.32978,0.02240
2748.26960,0.02229
2746.20943,0.02220
2744.14926,0.02210
2742.08909,0.02204
2740.02892,0.02206
2737.96874,0.02214
2735.90857,0.02209
2733.84840,0.02186
2731.78823,0.02169
2729.72805,0.02164
2727.66788,0.02160
2725.60771,0.02156
2723.54754,0.02154
2721.48737,0.02144
2719.42719,0.02115
2717.36702,0.02096
2715.30685,0.02111
2713.24668,0.02137
2711.18651,0.02141
2709.12633,0.02114
2707.06616,0.02081
2705.00599,0.02079
2702.94582,0.02088
2700.88565,0.02067
2698.82547,0.02026
2696.76530,0.02001
2694.70513,0.01999
2692.64496,0.02015
2690.58478,0.02034
2688.52461,0.02042
2686.46444,0.02046
2684.40427,0.02049
2682.34410,0.02038
2680.28392,0.02015
2678.22375,0.01999
2676.16358,0.02002
2674.10341,0.01998
2672.04324,0.01976
2669.98306,0.01959
2667.92289,0.01942
2665.86272,0.01919
2663.80255,0.01921
2661.74238,0.01942
2659.68220,0.01941
2657.62203,0.01921
2655.56186,0.01904
2653.50169,0.01879
2651.44151,0.01846
2649.38134,0.01836
2647.32117,0.01838
2645.26100,0.01829
2643.20083,0.01816
2641.14065,0.01811
2639.08048,0.01808
2637.02031,0.01795
2634.96014,0.01792
2632.89997,0.01801
2630.83979,0.01772
2628.77962,0.01724
2626.71945,0.01715
2624.65928,0.01718
2622.59910,0.01691
2620.53893,0.01668
2618.47876,0.01673
2616.41859,0.01690
2614.35842,0.01692
2612.29824,0.01674
2610.23807,0.01673
2608.17790,0.01681
2606.11773,0.01666
2604.05756,0.01644
2601.99738,0.01614
2599.93721,0.01577
2597.87704,0.01556
2595.81687,0.01536
2593.75670,0.01518
2591.69652,0.01531
2589.63635,0.01544
2587.57618,0.01515
2585.51601,0.01476
2583.45583,0.01485
2581.39566,0.01532
2579.33549,0.01564
2577.27532,0.01567
2575.21515,0.01533
2573.15497,0.01470
2571.09480,0.01437
2569.03463,0.01462
2566.97446,0.01506
2564.91429,0.01520
2562.85411,0.01478
2560.79394,0.01426
2558.73377,0.01415
2556.67360,0.01409
2554.61342,0.01413
2552.55325,0.01451
2550.49308,0.01462
2548.43291,0.01433
2546.37274,0.01425
2544.31256,0.01426
2542.25239,0.01392
2540.19222,0.01358
2538.13205,0.01367
2536.07188,0.01384
2534.01170,0.01372
2531.95153,0.01370
2529.89136,0.01380
2527.83119,0.01366
2525.77102,0.01331
2523.71084,0.01302
2521.65067,0.01308
2519.59050,0.01339
2517.53033,0.01363
2515.47015,0.01355
2513.40998,0.01321
2511.34981,0.01311
2509.28964,0.01329
2507.22947,0.01315
2505.16929,0.01285
2503.10912,0.01299
2501.04895,0.01321
2498.98878,0.01294
2496.92861,0.01247
2494.86843,0.01239
2492.80826,0.01248
2490.74809,0.01228
2488.68792,0.01219
2486.62775,0.01233
2484.56757,0.01241
2482.50740,0.01234
2480.44723,0.01213
2478.38706,0.01192
2476.32688,0.01189
2474.26671,0.01193
2472.20654,0.01192
2470.14637,0.01182
2468.08620,0.01152
2466.02602,0.01136
2463.96585,0.01147
2461.90568,0.01157
2459.84551,0.01148
2457.78534,0.01145
2455.72516,0.01170
2453.66499,0.01181
2451.60482,0.01181
2449.54465,0.01167
2447.48447,0.01105
2445.42430,0.01048
2443.36413,0.01044
2441.30396,0.01063
2439.24379,0.01101
2437.18361,0.01161
2435.12344,0.01181
2433.06327,0.01136
2431.00310,0.01093
2428.94293,0.01092
2426.88275,0.01098
2424.82258,0.01092
2422.76241,0.01086
2420.70224,0.01088
2418.64207,0.01091
2416.58189,0.01098
2414.52172,0.01109
2412.46155,0.01102
2410.40138,0.01084
2408.34120,0.01068
2406.28103,0.01038
2404.22086,0.01000
2402.16069,0.00991
2400.10052,0.01017
2398.04034,0.01045
2395.98017,0.01041
2393.92000,0.01012
2391.85983,0.00995
2389.79966,0.01003
2387.73948,0.01018
2385.67931,0.01017
2383.61914,0.01000
2381.55897,0.01000
2379.49880,0.01031
2377.43862,0.01048
2375.37845,0.01026
2373.31828,0.01006
2371.25811,0.01026
2369.19793,0.01061
2367.13776,0.01063
2365.07759,0.01021
2363.01742,0.00947
2360.95725,0.00899
2358.89707,0.00934
2356.83690,0.01004
2354.77673,0.01059
2352.71656,0.01108
2350.65639,0.01132
2348.59621,0.01118
2346.53604,0.01067
2344.47587,0.00982
2342.41570,0.00916
2340.35552,0.00951
2338.29535,0.01072
2336.23518,0.01185
2334.17501,0.01226
2332.11484,0.01200
2330.05466,0.01145
2327.99449,0.01098
2325.93432,0.01069
2323.87415,0.01065
2321.81398,0.01087
2319.75380,0.01071
2317.69363,0.00976
2315.63346,0.00883
2313.57329,0.00857
2311.51312,0.00879
2309.45294,0.00895
2307.39277,0.00897
2305.33260,0.00922
2303.27243,0.00960
2301.21225,0.00974
2299.15208,0.00967
2297.09191,0.00952
2295.03174,0.00919
2292.97157,0.00875
2290.91139,0.00861
2288.85122,0.00905
2286.79105,0.00958
2284.73088,0.00954
2282.67071,0.00919
2280.61053,0.00907
2278.55036,0.00894
2276.49019,0.00843
2274.43002,0.00787
2272.36984,0.00777
2270.30967,0.00783
2268.24950,0.00772
2266.18933,0.00784
2264.12916,0.00816
2262.06898,0.00812
2260.00881,0.00753
2257.94864,0.00694
2255.88847,0.00701
2253.82830,0.00732
2251.76812,0.00717
2249.70795,0.00681
2247.64778,0.00688
2245.58761,0.00756
2243.52744,0.00790
2241.46726,0.00727
2239.40709,0.00668
2237.34692,0.00678
2235.28675,0.00711
2233.22657,0.00745
2231.16640,0.00754
2229.10623,0.00756
2227.04606,0.00791
2224.98589,0.00817
2222.92571,0.00817
2220.86554,0.00819
2218.80537,0.00805
2216.74520,0.00733
2214.68503,0.00639
2212.62485,0.00563
2210.56468,0.00465
2208.50451,0.00395
2206.44434,0.00394
2204.38417,0.00450
2202.32399,0.00603
2200.26382,0.00746
2198.20365,0.00775
2196.14348,0.00741
2194.08330,0.00698
2192.02313,0.00653
2189.96296,0.00611
2187.90279,0.00630
2185.84262,0.00698
2183.78244,0.00653
2181.72227,0.00515
2179.66210,0.00497
2177.60193,0.00534
2175.54176,0.00459
2173.48158,0.00362
2171.42141,0.00372
2169.36124,0.00474
2167.30107,0.00559
2165.24089,0.00515
2163.18072,0.00359
2161.12055,0.00171
2159.06038,0.00033
2157.00021,0.00050
2154.94003,0.00137
2152.87986,0.00167
2150.81969,0.00199
2148.75952,0.00347
2146.69935,0.00520
2144.63917,0.00579
2142.57900,0.00545
2140.51883,0.00475
2138.45866,0.00427
2136.39849,0.00405
2134.33831,0.00434
2132.27814,0.00523
2130.21797,0.00605
2128.15780,0.00642
2126.09762,0.00641
2124.03745,0.00631
2121.97728,0.00625
2119.91711,0.00602
2117.85694,0.00579
2115.79676,0.00593
2113.73659,0.00630
2111.67642,0.00615
2109.61625,0.00569
2107.55608,0.00576
2105.49590,0.00608
2103.43573,0.00615
2101.37556,0.00615
2099.31539,0.00615
2097.25521,0.00608
2095.19504,0.00632
2093.13487,0.00675
2091.07470,0.00629
2089.01453,0.00505
2086.95435,0.00446
2084.89418,0.00479
2082.83401,0.00524
2080.77384,0.00577
2078.71367,0.00622
2076.65349,0.00597
2074.59332,0.00535
2072.53315,0.00518
2070.47298,0.00541
2068.41281,0.00549
2066.35263,0.00549
2064.29246,0.00556
2062.23229,0.00558
2060.17212,0.00537
2058.11194,0.00509
2056.05177,0.00533
2053.99160,0.00584
2051.93143,0.00571
2049.87126,0.00480
2047.81108,0.00405
2045.75091,0.00378
2043.69074,0.00331
2041.63057,0.00321
2039.57040,0.00414
2037.51022,0.00496
2035.45005,0.00445
2033.38988,0.00263
2031.32971,0.00069
2029.26954,0.00000
2027.20936,0.00078
2025.14919,0.00240
2023.08902,0.00390
2021.02885,0.00407
2018.96867,0.00234
2016.90850,0.00057
2014.84833,0.00092
2012.78816,0.00262
2010.72799,0.00328
2008.66781,0.00235
2006.60764,0.00194
2004.54747,0.00272
2002.48730,0.00329
2000.42713,0.00391
1998.36695,0.00485
1996.30678,0.00477
1994.24661,0.00380
1992.18644,0.00340
1990.12626,0.00359
1988.06609,0.00382
1986.00592,0.00424
1983.94575,0.00453
1981.88558,0.00431
1979.82540,0.00329
1977.76523,0.00190
1975.70506,0.00210
1973.64489,0.00362
1971.58472,0.00406
1969.52454,0.00294
1967.46437,0.00173
1965.40420,0.00147
1963.34403,0.00189
1961.28386,0.00226
1959.22368,0.00228
1957.16351,0.00227
1955.10334,0.00243
1953.04317,0.00253
1950.98299,0.00229
1948.92282,0.00163
1946.86265,0.00095
1944.80248,0.00123
1942.74231,0.00249
1940.68213,0.00309
1938.62196,0.00268
1936.56179,0.00247
1934.50162,0.00274
1932.44145,0.00255
1930.38127,0.00175
1928.32110,0.00122
1926.26093,0.00119
1924.20076,0.00139
1922.14059,0.00178
1920.08041,0.00216
1918.02024,0.00239
1915.96007,0.00241
1913.89990,0.00231
1911.83972,0.00222
1909.77955,0.00222
1907.71938,0.00234
1905.65921,0.00235
1903.59904,0.00198
1901.53886,0.00146
1899.47869,0.00138
1897.41852,0.00177
1895.35835,0.00216
1893.29818,0.00232
1891.23800,0.00232
1889.17783,0.00219
1887.11766,0.00188
1885.05749,0.00136
1882.99731,0.00091
1880.93714,0.00082
1878.87697,0.00095
1876.81680,0.00109
1874.75663,0.00107
1872.69645,0.00094
1870.63628,0.00099
1868.57611,0.00129
1866.51594,0.00159
1864.45577,0.00164
1862.39559,0.00144
1860.33542,0.00125
1858.27525,0.00132
1856.21508,0.00163
1854.15491,0.00187
1852.09473,0.00175
1850.03456,0.00129
1847.97439,0.00074
1845.91422,0.00033
1843.85404,0.00005
1841.79387,0.00000
1839.73370,0.00019
1837.67353,0.00040
1835.61336,0.00047
1833.55318,0.00052
1831.49301,0.00052
1829.43284,0.00039
1827.37267,0.00018
1825.31250,0.00000
1823.25232,-0.00002
1821.19215,0.00004
1819.13198,-0.00000
1817.07181,-0.00000
1815.01163,0.00014
1812.95146,0.00025
1810.89129,0.00028
1808.83112,0.00029
1806.77095,0.00027
1804.71077,0.00009
1802.65060,-0.00021
1800.59043,-0.00030
1798.53026,-0.00011
1796.47009,0.00001
1794.40991,0.00003
1792.34974,0.00011
1790.28957,0.00010
1788.22940,-0.00003
1786.16923,-0.00008
1784.10905,0.00005
1782.04888,0.00023
1779.98871,0.00025
1777.92854,0.00013
1775.86836,0.00000
1773.80819,-0.00010
1771.74802,0.00002
1769.68785,0.00030
1767.62768,0.00059
1765.56750,0.00081
1763.50733,0.00105
1761.44716,0.00155
1759.38699,0.00230
1757.32682,0.00318
1755.26664,0.00411
1753.20647,0.00513
1751.14630,0.00667
1749.08613,0.00889
1747.02596,0.01128
1744.96578,0.01384
1742.90561,0.01707
1740.84544,0.02101
1738.78527,0.02504
1736.72509,0.02849
1734.66492,0.03168
1732.60475,0.03439
1730.54458,0.03570
1728.48441,0.03619
1726.42423,0.03641
1724.36406,0.03622
1722.30389,0.03571
1720.24372,0.03525
1718.18355,0.03500
1716.12337,0.03489
1714.06320,0.03485
1712.00303,0.03489
1709.94286,0.03482
1707.88268,0.03437
1705.82251,0.03354
1703.76234,0.03266
1701.70217,0.03183
1699.64200,0.03082
1697.58182,0.02991
1695.52165,0.02937
1693.46148,0.02920
1691.40131,0.02916
1689.34114,0.02904
1687.28096,0.02880
1685.22079,0.02856
1683.16062,0.02833
1681.10045,0.02811
1679.04028,0.02801
1676.98010,0.02818
1674.91993,0.02869
1672.85976,0.02930
1670.79959,0.02977
1668.73941,0.03018
1666.67924,0.03072
1664.61907,0.03162
1662.55890,0.03298
1660.49873,0.03454
1658.43855,0.03590
1656.37838,0.03691
1654.31821,0.03760
1652.25804,0.03817
1650.19787,0.03871
1648.13769,0.03923
1646.07752,0.03965
1644.01735,0.03978
1641.95718,0.03983
1639.89701,0.03999
1637.83683,0.04032
1635.77666,0.04101
1633.71649,0.04195
1631.65632,0.04263
1629.59614,0.04299
1627.53597,0.04324
1625.47580,0.04335
1623.41563,0.04336
1621.35546,0.04358
1619.29528,0.04425
1617.23511,0.04516
1615.17494,0.04595
1613.11477,0.04655
1611.05460,0.04708
1608.99442,0.04763
1606.93425,0.04803
1604.87408,0.04807
1602.81391,0.04765
1600.75373,0.04689
1598.69356,0.04600
1596.63339,0.04492
1594.57322,0.04344
1592.51305,0.04171
1590.45287,0.04004
1588.39270,0.03851
1586.33253,0.03701
1584.27236,0.03550
1582.21219,0.03400
1580.15201,0.03258
1578.09184,0.03111
1576.03167,0.02939
1573.97150,0.02790
1571.91133,0.02689
1569.85115,0.02586
1567.79098,0.02480
1565.73081,0.02411
1563.67064,0.02372
1561.61046,0.02329
1559.55029,0.02277
1557.49012,0.02266
1555.42995,0.02310
1553.36978,0.02346
1551.30960,0.02366
1549.24943,0.02392
1547.18926,0.02425
1545.12909,0.02455
1543.06892,0.02463
1541.00874,0.02439
1538.94857,0.02408
1536.88840,0.02402
1534.82823,0.02388
1532.76805,0.02337
1530.70788,0.02278
1528.64771,0.02230
1526.58754,0.02166
1524.52737,0.02088
1522.46719,0.02041
1520.40702,0.02048
1518.34685,0.02091
1516.28668,0.02124
1514.22651,0.02117
1512.16633,0.02066
1510.10616,0.01966
1508.04599,0.01802
1505.98582,0.01632
1503.92565,0.01552
1501.86547,0.01500
1499.80530,0.01412
1497.74513,0.01288
1495.68496,0.01163
1493.62478,0.01060
1491.56461,0.00955
1489.50444,0.00828
1487.44427,0.00721
1485.38410,0.00681
1483.32392,0.00696
1481.26375,0.00741
1479.20358,0.00804
1477.14341,0.00898
1475.08324,0.01071
1473.02306,0.01353
1470.96289,0.01665
1468.90272,0.01916
1466.84255,0.02142
1464.78238,0.02369
1462.72220,0.02539
1460.66203,0.02644
1458.60186,0.02779
1456.54169,0.02974
1454.48151,0.03113
1452.42134,0.03192
1450.36117,0.03272
1448.30100,0.03361
1446.24083,0.03432
1444.18065,0.03475
1442.12048,0.03486
1440.06031,0.03453
1438.00014,0.03359
1435.93997,0.03223
1433.87979,0.03106
1431.81962,0.03015
1429.75945,0.02918
1427.69928,0.02826
1425.63910,0.02766
1423.57893,0.02744
1421.51876,0.02744
1419.45859,0.02739
1417.39842,0.02728
1415.33824,0.02722
1413.27807,0.02705
1411.21790,0.02664
1409.15773,0.02625
1407.09756,0.02599
1405.03738,0.02574
1402.97721,0.02545
1400.91704,0.02516
1398.85687,0.02496
1396.79670,0.02501
1394.73652,0.02532
1392.67635,0.02577
1390.61618,0.02624
1388.55601,0.02678
1386.49583,0.02739
1384.43566,0.02793
1382.37549,0.02848
1380.31532,0.02929
1378.25515,0.03034
1376.19497,0.03141
1374.13480,0.03236
1372.07463,0.03308
1370.01446,0.03341
1367.95429,0.03349
1365.89411,0.03355
1363.83394,0.03358
1361.77377,0.03347
1359.71360,0.03343
1357.65343,0.03361
1355.59325,0.03386
1353.53308,0.03402
1351.47291,0.03412
1349.41274,0.03434
1347.35256,0.03471
1345.29239,0.03516
1343.23222,0.03562
1341.17205,0.03607
1339.11188,0.03643
1337.05170,0.03678
1334.99153,0.03727
1332.93136,0.03785
1330.87119,0.03840
1328.81102,0.03893
1326.75084,0.03960
1324.69067,0.04035
1322.63050,0.04104
1320.57033,0.04164
1318.51015,0.04206
1316.44998,0.04220
1314.38981,0.04209
1312.32964,0.04179
1310.26947,0.04122
1308.20929,0.04029
1306.14912,0.03907
1304.08895,0.03761
1302.02878,0.03574
1299.96861,0.03363
1297.90843,0.03165
1295.84826,0.02993
1293.78809,0.02846
1291.72792,0.02725
1289.66775,0.02637
1287.60757,0.02579
1285.54740,0.02544
1283.48723,0.02522
1281.42706,0.02506
1279.36688,0.02501
1277.30671,0.02521
1275.24654,0.02552
1273.18637,0.02577
1271.12620,0.02618
1269.06602,0.02692
1267.00585,0.02766
1264.94568,0.02823
1262.88551,0.02879
1260.82534,0.02949
1258.76516,0.03021
1256.70499,0.03080
1254.64482,0.03132
1252.58465,0.03184
1250.52447,0.03242
1248.46430,0.03308
1246.40413,0.03381
1244.34396,0.03461
1242.28379,0.03539
1240.22361,0.03610
1238.16344,0.03674
1236.10327,0.03736
1234.04310,0.03802
1231.98293,0.03866
1229.92275,0.03942
1227.86258,0.04026
1225.80241,0.04090
1223.74224,0.04149
1221.68207,0.04212
1219.62189,0.04258
1217.56172,0.04294
1215.50155,0.04338
1213.44138,0.04393
1211.38120,0.04454
1209.32103,0.04512
1207.26086,0.04577
1205.20069,0.04656
1203.14052,0.04721
1201.08034,0.04766
1199.02017,0.04816
1196.96000,0.04860
1194.89983,0.04867
1192.83966,0.04838
1190.77948,0.04791
1188.71931,0.04730
1186.65914,0.04654
1184.59897,0.04574
1182.53880,0.04513
1180.47862,0.04470
1178.41845,0.04433
1176.35828,0.04419
1174.29811,0.04442
1172.23793,0.04484
1170.17776,0.04526
1168.11759,0.04538
1166.05742,0.04509
1163.99725,0.04458
1161.93707,0.04402
1159.87690,0.04344
1157.81673,0.04275
1155.75656,0.04191
1153.69639,0.04085
1151.63621,0.03953
1149.57604,0.03818
1147.51587,0.03705
1145.45570,0.03608
1143.39552,0.03513
1141.33535,0.03410
1139.27518,0.03298
1137.21501,0.03218
1135.15484,0.03172
1133.09466,0.03134
1131.03449,0.03129
1128.97432,0.03174
1126.91415,0.03247
1124.85398,0.03338
1122.79380,0.03460
1120.73363,0.03613
1118.67346,0.03798
1116.61329,0.04010
1114.55312,0.04225
1112.49294,0.04439
1110.43277,0.04666
1108.37260,0.04894
1106.31243,0.05132
1104.25225,0.05377
1102.19208,0.05581
1100.13191,0.05730
1098.07174,0.05839
1096.01157,0.05937
1093.95139,0.06054
1091.89122,0.06193
1089.83105,0.06347
1087.77088,0.06511
1085.71071,0.06676
1083.65053,0.06858
1081.59036,0.07063
1079.53019,0.07272
1077.47002,0.07467
1075.40985,0.07636
1073.34967,0.07769
1071.28950,0.07886
1069.22933,0.08007
1067.16916,0.08102
1065.10898,0.08165
1063.04881,0.08258
1060.98864,0.08378
1058.92847,0.08487
1056.86830,0.08593
1054.80812,0.08719
1052.74795,0.08863
1050.68778,0.08978
1048.62761,0.09063
1046.56744,0.09181
1044.50726,0.09348
1042.44709,0.09529
1040.38692,0.09713
1038.32675,0.09904
1036.26657,0.10094
1034.20640,0.10261
1032.14623,0.10411
1030.08606,0.10549
1028.02589,0.10664
1025.96571,0.10760
1023.90554,0.10835
1021.84537,0.10886
1019.78520,0.10907
1017.72503,0.10882
1015.66485,0.10818
1013.60468,0.10721
1011.54451,0.10576
1009.48434,0.10388
1007.42417,0.10174
1005.36399,0.09938
1003.30382,0.09675
1001.24365,0.09394
999.18348,0.09117
997.12330,0.08851
995.06313,0.08597
993.00296,0.08346
990.94279,0.08104
988.88262,0.07864
986.82244,0.07608
984.76227,0.07330
982.70210,0.07023
980.64193,0.06706
978.58176,0.06389
976.52158,0.06079
974.46141,0.05800
972.40124,0.05558
970.34107,0.05354
968.28089,0.05176
966.22072,0.05014
964.16055,0.04865
962.10038,0.04704
960.04021,0.04510
957.98003,0.04297
955.91986,0.04073
953.85969,0.03865
951.79952,0.03667
949.73935,0.03438
947.67917,0.03210
945.61900,0.03020
943.55883,0.02842
941.49866,0.02663
939.43849,0.02508
937.37831,0.02403
935.31814,0.02339
933.25797,0.02276
931.19780,0.02193
929.13762,0.02103
927.07745,0.02009
925.01728,0.01921
922.95711,0.01849
920.89694,0.01779
918.83676,0.01679
916.77659,0.01544
914.71642,0.01408
912.65625,0.01284
910.59608,0.01135
908.53590,0.00985
906.47573,0.00890
904.41556,0.00818
902.35539,0.00759
900.29522,0.00748
898.23504,0.00771
896.17487,0.00768
894.11470,0.00717
892.05453,0.00686
889.99435,0.00705
887.93418,0.00699
885.87401,0.00642
883.81384,0.00586
881.75367,0.00576
879.69349,0.00624
877.63332,0.00734
875.57315,0.00897
873.51298,0.01053
871.45281,0.01129
869.39263,0.01086
867.33246,0.00939
865.27229,0.00761
863.21212,0.00601
861.15194,0.00467
859.09177,0.00373
857.03160,0.00292
854.97143,0.00198
852.91126,0.00124
850.85108,0.00074
848.79091,0.00026
846.73074,0.00000
844.67057,0.00013
842.61040,0.00053
840.55022,0.00074
838.49005,0.00083
836.42988,0.00134
834.36971,0.00188
832.30954,0.00203
830.24936,0.00224
828.18919,0.00254
826.12902,0.00232
824.06885,0.00192
822.00867,0.00215
819.94850,0.00258
817.88833,0.00288
815.82816,0.00332
813.76799,0.00387
811.70781,0.00402
809.64764,0.00313
807.58747,0.00191
805.52730,0.00142
803.46713,0.00129
801.40695,0.00105
799.34678,0.00060
797.28661,0.00000
795.22644,-0.00053
793.16627,-0.00038
791.10609,0.00009
789.04592,0.00086
786.98575,0.00179
784.92558,0.00231
782.86540,0.00233
780.80523,0.00221
778.74506,0.00233
776.68489,0.00229
774.62472,0.00176
772.56454,0.00174
770.50437,0.00288
768.44420,0.00440
766.38403,0.00539
764.32386,0.00642
762.26368,0.00829
760.20351,0.01018
758.14334,0.01131
756.08317,0.01168
754.02299,0.01110
751.96282,0.00979
749.90265,0.00858
747.84248,0.00755
745.78231,0.00620
743.72213,0.00505
741.66196,0.00483
739.60179,0.00511
737.54162,0.00528
735.48145,0.00515
733.42127,0.00476
731.36110,0.00450
729.30093,0.00482
727.24076,0.00548
725.18059,0.00595
723.12041,0.00638
721.06024,0.00701
719.00007,0.00755
716.93990,0.00717
714.87972,0.00577
712.81955,0.00437
710.75938,0.00403
708.69921,0.00463
706.63904,0.00489
704.57886,0.00459
702.51869,0.00452
700.45852,0.00452
698.39835,0.00428
696.33818,0.00399
694.27800,0.00336
692.21783,0.00210
690.15766,0.00071
688.09749,0.00000
686.03731,-0.00015
683.97714,-0.00020
681.91697,-0.00033
679.85680,-0.00055
677.79663,-0.00041
675.73645,0.00024
673.67628,0.00069
671.61611,0.00108
669.55594,0.00208
667.49577,0.00235
665.43559,0.00123
663.37542,0.00083
661.31525,0.00169
659.25508,0.00247
657.19491,0.00224
655.13473,0.00122
653.07456,-0.00005
651.01439,-0.00062
648.95422,0.00000
646.89404,0.00045
644.83387,0.00007
642.77370,-0.00040
640.71353,-0.00051
638.65336,-0.00090
636.59318,-0.00180
634.53301,-0.00287
632.47284,-0.00327
630.41267,-0.00195
628.35250,0.00048
626.29232,0.00114
624.23215,-0.00130
622.17198,-0.00364
620.11181,-0.00419
618.05164,-0.00307
615.99146,-0.00108
613.93129,0.00073
611.87112,0.00163
609.81095,0.00127
607.75077,0.00029
605.69060,-0.00252
603.63043,-0.00587
601.57026,-0.00465
599.51009,0.00000
