3996.73391,0.00050
3994.67373,0.00040
3992.61356,0.00039
3990.55339,0.00029
3988.49322,0.00016
3986.43305,0.00025
3984.37287,0.00047
3982.31270,0.00053
3980.25253,0.00040
3978.19236,0.00023
3976.13219,0.00011
3974.07201,0.00010
3972.01184,0.00026
3969.95167,0.00047
3967.89150,0.00059
3965.83133,0.00066
3963.77115,0.00074
3961.71098,0.00078
3959.65081,0.00076
3957.59064,0.00066
3955.53046,0.00047
3953.47029,0.00030
3951.41012,0.00015
3949.34995,0.00000
3947.28978,0.00001
3945.22960,0.00022
3943.16943,0.00044
3941.10926,0.00053
3939.04909,0.00051
3936.98892,0.00050
3934.92874,0.00061
3932.86857,0.00083
3930.80840,0.00098
3928.74823,0.00103
3926.68805,0.00108
3924.62788,0.00115
3922.56771,0.00118
3920.50754,0.00114
3918.44737,0.00097
3916.38719,0.00078
3914.32702,0.00076
3912.26685,0.00083
3910.20668,0.00077
3908.14651,0.00067
3906.08633,0.00082
3904.02616,0.00107
3901.96599,0.00099
3899.90582,0.00076
3897.84565,0.00076
3895.78547,0.00097
3893.72530,0.00118
3891.66513,0.00116
3889.60496,0.00093
3887.54478,0.00085
3885.48461,0.00098
3883.42444,0.00111
3881.36427,0.00103
3879.30410,0.00081
3877.24392,0.00083
3875.18375,0.00096
3873.12358,0.00096
3871.06341,0.00095
3869.00324,0.00079
3866.94306,0.00044
3864.88289,0.00020
3862.82272,0.00031
3860.76255,0.00070
3858.70237,0.00111
3856.64220,0.00136
3854.58203,0.00121
3852.52186,0.00063
3850.46169,0.00037
3848.40151,0.00060
3846.34134,0.00089
3844.28117,0.00093
3842.22100,0.00078
3840.16083,0.00065
3838.10065,0.00065
3836.04048,0.00075
3833.98031,0.00083
3831.92014,0.00076
3829.85997,0.00071
3827.79979,0.00087
3825.73962,0.00122
3823.67945,0.00150
3821.61928,0.00127
3819.55910,0.00079
3817.49893,0.00071
3815.43876,0.00079
3813.37859,0.00084
3811.31842,0.00106
3809.25824,0.00134
3807.19807,0.00126
3805.13790,0.00085
3803.07773,0.00049
3801.01756,0.00024
3798.95738,0.00013
3796.89721,0.00020
3794.83704,0.00037
3792.77687,0.00065
3790.71670,0.00098
3788.65652,0.00108
3786.59635,0.00093
3784.53618,0.00086
3782.47601,0.00103
3780.41583,0.00124
3778.35566,0.00127
3776.29549,0.00106
3774.23532,0.00075
3772.17515,0.00070
3770.11497,0.00111
3768.05480,0.00133
3765.99463,0.00105
3763.93446,0.00098
3761.87429,0.00136
3759.81411,0.00140
3757.75394,0.00093
3755.69377,0.00091
3753.63360,0.00153
3751.57342,0.00186
3749.51325,0.00132
3747.45308,0.00062
3745.39291,0.00018
3743.33274,0.00018
3741.27256,0.00079
3739.21239,0.00167
3737.15222,0.00261
3735.09205,0.00301
3733.03188,0.00230
3730.97170,0.00139
3728.91153,0.00122
3726.85136,0.00138
3724.79119,0.00130
3722.73102,0.00123
3720.67084,0.00122
3718.61067,0.00109
3716.55050,0.00102
3714.49033,0.00123
3712.43015,0.00136
3710.36998,0.00115
3708.30981,0.00114
3706.24964,0.00130
3704.18947,0.00132
3702.12929,0.00107
3700.06912,0.00078
3698.00895,0.00075
3695.94878,0.00079
3693.88861,0.00088
3691.82843,0.00108
3689.76826,0.00118
3687.70809,0.00100
3685.64792,0.00096
3683.58775,0.00137
3681.52757,0.00219
3679.46740,0.00282
3677.40723,0.00277
3675.34706,0.00228
3673.28688,0.00213
3671.22671,0.00229
3669.16654,0.00214
3667.10637,0.00187
3665.04620,0.00210
3662.98602,0.00261
3660.92585,0.00282
3658.86568,0.00277
3656.80551,0.00294
3654.74534,0.00343
3652.68516,0.00392
3650.62499,0.00436
3648.56482,0.00473
3646.50465,0.00477
3644.44447,0.00460
3642.38430,0.00448
3640.32413,0.00460
3638.26396,0.00512
3636.20379,0.00580
3634.14361,0.00625
3632.08344,0.00653
3630.02327,0.00680
3627.96310,0.00697
3625.90293,0.00741
3623.84275,0.00803
3621.78258,0.00842
3619.72241,0.00854
3617.66224,0.00843
3615.60207,0.00828
3613.54189,0.00846
3611.48172,0.00918
3609.42155,0.00993
3607.36138,0.01019
3605.30120,0.01023
3603.24103,0.01050
3601.18086,0.01098
3599.12069,0.01143
3597.06052,0.01202
3595.00034,0.01292
3592.94017,0.01382
3590.88000,0.01422
3588.81983,0.01414
3586.75966,0.01385
3584.69948,0.01389
3582.63931,0.01438
3580.57914,0.01497
3578.51897,0.01557
3576.45879,0.01623
3574.39862,0.01684
3572.33845,0.01737
3570.27828,0.01787
3568.21811,0.01838
3566.15793,0.01905
3564.09776,0.01968
3562.03759,0.01999
3559.97742,0.02022
3557.91725,0.02075
3555.85707,0.02159
3553.79690,0.02234
3551.73673,0.02278
3549.67656,0.02316
3547.61639,0.02370
3545.55621,0.02430
3543.49604,0.02487
3541.43587,0.02538
3539.37570,0.02593
3537.31552,0.02670
3535.25535,0.02754
3533.19518,0.02811
3531.13501,0.02844
3529.07484,0.02885
3527.01466,0.02956
3524.95449,0.03043
3522.89432,0.03117
3520.83415,0.03159
3518.77398,0.03169
3516.71380,0.03182
3514.65363,0.03236
3512.59346,0.03316
3510.53329,0.03369
3508.47312,0.03397
3506.41294,0.03443
3504.35277,0.03514
3502.29260,0.03585
3500.23243,0.03645
3498.17225,0.03701
3496.11208,0.03756
3494.05191,0.03818
3491.99174,0.03888
3489.93157,0.03954
3487.87139,0.04004
3485.81122,0.04049
3483.75105,0.04112
3481.69088,0.04192
3479.63071,0.04246
3477.57053,0.04267
3475.51036,0.04294
3473.45019,0.04339
3471.39002,0.04402
3469.32984,0.04488
3467.26967,0.04570
3465.20950,0.04625
3463.14933,0.04663
3461.08916,0.04700
3459.02898,0.04727
3456.96881,0.04749
3454.90864,0.04795
3452.84847,0.04861
3450.78830,0.04928
3448.72812,0.04983
3446.66795,0.05027
3444.60778,0.05078
3442.54761,0.05144
3440.48744,0.05220
3438.42726,0.05277
3436.36709,0.05312
3434.30692,0.05359
3432.24675,0.05413
3430.18657,0.05438
3428.12640,0.05446
3426.06623,0.05475
3424.00606,0.05535
3421.94589,0.05598
3419.88571,0.05649
3417.82554,0.05691
3415.76537,0.05729
3413.70520,0.05769
3411.64503,0.05823
3409.58485,0.05882
3407.52468,0.05912
3405.46451,0.05923
3403.40434,0.05960
3401.34416,0.06015
3399.28399,0.06060
3397.22382,0.06112
3395.16365,0.06178
3393.10348,0.06223
3391.04330,0.06244
3388.98313,0.06261
3386.92296,0.06275
3384.86279,0.06298
3382.80262,0.06335
3380.74244,0.06369
3378.68227,0.06394
3376.62210,0.06423
3374.56193,0.06473
3372.50176,0.06528
3370.44158,0.06546
3368.38141,0.06545
3366.32124,0.06569
3364.26107,0.06621
3362.20089,0.06669
3360.14072,0.06687
3358.08055,0.06702
3356.02038,0.06732
3353.96021,0.06761
3351.90003,0.06794
3349.83986,0.06831
3347.77969,0.06854
3345.71952,0.06856
3343.65935,0.06841
3341.59917,0.06846
3339.53900,0.06888
3337.47883,0.06939
3335.41866,0.06965
3333.35849,0.06968
3331.29831,0.06964
3329.23814,0.06972
3327.17797,0.06996
3325.11780,0.07018
3323.05762,0.07028
3320.99745,0.07033
3318.93728,0.07049
3316.87711,0.07075
3314.81694,0.07090
3312.75676,0.07096
3310.69659,0.07109
3308.63642,0.07127
3306.57625,0.07135
3304.51608,0.07131
3302.45590,0.07135
3300.39573,0.07153
3298.33556,0.07166
3296.27539,0.07175
3294.21521,0.07184
3292.15504,0.07195
3290.09487,0.07215
3288.03470,0.07236
3285.97453,0.07248
3283.91435,0.07248
3281.85418,0.07231
3279.79401,0.07210
3277.73384,0.07202
3275.67367,0.07212
3273.61349,0.07224
3271.55332,0.07223
3269.49315,0.07204
3267.43298,0.07192
3265.37281,0.07204
3263.31263,0.07213
3261.25246,0.07207
3259.19229,0.07199
3257.13212,0.07192
3255.07194,0.07182
3253.01177,0.07172
3250.95160,0.07161
3248.89143,0.07146
3246.83126,0.07128
3244.77108,0.07101
3242.71091,0.07065
3240.65074,0.07023
3238.59057,0.06986
3236.53040,0.06958
3234.47022,0.06937
3232.41005,0.06922
3230.34988,0.06912
3228.28971,0.06908
3226.22954,0.06899
3224.16936,0.06885
3222.10919,0.06868
3220.04902,0.06845
3217.98885,0.06822
3215.92867,0.06797
3213.86850,0.06768
3211.80833,0.06739
3209.74816,0.06720
3207.68799,0.06713
3205.62781,0.06713
3203.56764,0.06718
3201.50747,0.06708
3199.44730,0.06670
3197.38713,0.06623
3195.32695,0.06587
3193.26678,0.06543
3191.20661,0.06485
3189.14644,0.06449
3187.08626,0.06436
3185.02609,0.06419
3182.96592,0.06398
3180.90575,0.06376
3178.84558,0.06356
3176.78540,0.06332
3174.72523,0.06300
3172.66506,0.06276
3170.60489,0.06252
3168.54472,0.06208
3166.48454,0.06152
3164.42437,0.06101
3162.36420,0.06071
3160.30403,0.06063
3158.24386,0.06057
3156.18368,0.06033
3154.12351,0.05987
3152.06334,0.05922
3150.00317,0.05861
3147.94299,0.05840
3145.88282,0.05846
3143.82265,0.05835
3141.76248,0.05781
3139.70231,0.05710
3137.64213,0.05663
3135.58196,0.05642
3133.52179,0.05630
3131.46162,0.05609
3129.40145,0.05575
3127.34127,0.05545
3125.28110,0.05540
3123.22093,0.05538
3121.16076,0.05505
3119.10058,0.05444
3117.04041,0.05375
3114.98024,0.05329
3112.92007,0.05314
3110.85990,0.05293
3108.79972,0.05248
3106.73955,0.05201
3104.67938,0.05172
3102.61921,0.05147
3100.55904,0.05115
3098.49886,0.05098
3096.43869,0.05088
3094.37852,0.05068
3092.31835,0.05039
3090.25818,0.04993
3088.19800,0.04950
3086.13783,0.04943
3084.07766,0.04946
3082.01749,0.04928
3079.95731,0.04892
3077.89714,0.04847
3075.83697,0.04800
3073.77680,0.04770
3071.71663,0.04766
3069.65645,0.04762
3067.59628,0.04729
3065.53611,0.04668
3063.47594,0.04609
3061.41577,0.04570
3059.35559,0.04535
3057.29542,0.04497
3055.23525,0.04472
3053.17508,0.04460
3051.11491,0.04438
3049.05473,0.04402
3046.99456,0.04372
3044.93439,0.04341
3042.87422,0.04298
3040.81404,0.04256
3038.75387,0.04221
3036.69370,0.04191
3034.63353,0.04165
3032.57336,0.04135
3030.51318,0.04092
3028.45301,0.04046
3026.39284,0.04022
3024.33267,0.04007
3022.27250,0.03970
3020.21232,0.03938
3018.15215,0.03931
3016.09198,0.03916
3014.03181,0.03894
3011.97163,0.03874
3009.91146,0.03851
3007.85129,0.03831
3005.79112,0.03802
3003.73095,0.03759
3001.67077,0.03729
2999.61060,0.03717
2997.55043,0.03707
2995.49026,0.03698
2993.43009,0.03690
2991.36991,0.03674
2989.30974,0.03663
2987.24957,0.03686
2985.18940,0.03733
2983.12923,0.03773
2981.06905,0.03806
2979.00888,0.03849
2976.94871,0.03901
2974.88854,0.03954
2972.82836,0.04029
2970.76819,0.04136
2968.70802,0.04245
2966.64785,0.04343
2964.58768,0.04466
2962.52750,0.04609
2960.46733,0.04752
2958.40716,0.04895
2956.34699,0.05032
2954.28682,0.05177
2952.22664,0.05333
2950.16647,0.05484
2948.10630,0.05646
2946.04613,0.05844
2943.98596,0.06071
2941.92578,0.06315
2939.86561,0.06594
2937.80544,0.06917
2935.74527,0.07243
2933.68509,0.07553
2931.62492,0.07861
2929.56475,0.08162
2927.50458,0.08436
2925.44441,0.08683
2923.38423,0.08910
2921.32406,0.09128
2919.26389,0.09303
2917.20372,0.09305
2915.14355,0.09016
2913.08337,0.08503
2911.02320,0.07974
2908.96303,0.07551
2906.90286,0.07213
2904.84268,0.06939
2902.78251,0.06725
2900.72234,0.06536
2898.66217,0.06366
2896.60200,0.06223
2894.54182,0.06079
2892.48165,0.05926
2890.42148,0.05784
2888.36131,0.05656
2886.30114,0.05542
2884.24096,0.05439
2882.18079,0.05341
2880.12062,0.05260
2878.06045,0.05208
2876.00028,0.05192
2873.94010,0.05205
2871.87993,0.05231
2869.81976,0.05264
2867.75959,0.05334
2865.69941,0.05450
2863.63924,0.05609
2861.57907,0.05834
2859.51890,0.06107
2857.45873,0.06387
2855.39855,0.06683
2853.33838,0.06996
2851.27821,0.07253
2849.21804,0.07273
2847.15787,0.06894
2845.09769,0.06237
2843.03752,0.05600
2840.97735,0.05127
2838.91718,0.04788
2836.85700,0.04531
2834.79683,0.04333
2832.73666,0.04174
2830.67649,0.04035
2828.61632,0.03914
2826.55614,0.03823
2824.49597,0.03768
2822.43580,0.03737
2820.37563,0.03696
2818.31546,0.03630
2816.25528,0.03566
2814.19511,0.03523
2812.13494,0.03478
2810.07477,0.03425
2808.01460,0.03378
2805.95442,0.03338
2803.89425,0.03305
2801.83408,0.03278
2799.77391,0.03256
2797.71373,0.03233
2795.65356,0.03196
2793.59339,0.03152
2791.53322,0.03118
2789.47305,0.03104
2787.41287,0.03103
2785.35270,0.03094
2783.29253,0.03064
2781.23236,0.03031
2779.17219,0.03020
2777.11201,0.03021
2775.05184,0.03006
2772.99167,0.02981
2770.93150,0.02965
2768.87133,0.02944
2766.81115,0.02907
2764.75098,0.02884
2762.69081,0.02890
2760.63064,0.02903
2758.57046,0.02898
2756.51029,0.02869
2754.45012,0.02847
2752.38995,0.02843
2750.32978,0.02829
2748.26960,0.02804
2746.20943,0.02789
2744.14926,0.02778
2742.08909,0.02770
2740.02892,0.02775
2737.96874,0.02780
2735.90857,0.02767
2733.84840,0.02747
2731.78823,0.02739
2729.72805,0.02745
2727.66788,0.02754
2725.60771,0.02750
2723.54754,0.02731
2721.48737,0.02715
2719.42719,0.02703
2717.36702,0.02693
2715.30685,0.02688
2713.24668,0.02681
2711.18651,0.02679
2709.12633,0.02675
2707.06616,0.02652
2705.00599,0.02630
2702.94582,0.02619
2700.88565,0.02608
2698.82547,0.02590
2696.76530,0.02576
2694.70513,0.02572
2692.64496,0.02567
2690.58478,0.02564
2688.52461,0.02566
2686.46444,0.02550
2684.40427,0.02514
2682.34410,0.02492
2680.28392,0.02497
2678.22375,0.02500
2676.16358,0.02478
2674.10341,0.02450
2672.04324,0.02441
2669.98306,0.02439
2667.92289,0.02432
2665.86272,0.02428
2663.80255,0.02418
2661.74238,0.02401
2659.68220,0.02388
2657.62203,0.02381
2655.56186,0.02369
2653.50169,0.02348
2651.44151,0.02330
2649.38134,0.02317
2647.32117,0.02299
2645.26100,0.02269
2643.20083,0.02251
2641.14065,0.02261
2639.08048,0.02267
2637.02031,0.02251
2634.96014,0.02236
2632.89997,0.02229
2630.83979,0.02212
2628.77962,0.02180
2626.71945,0.02155
2624.65928,0.02142
2622.59910,0.02121
2620.53893,0.02092
2618.47876,0.02071
2616.41859,0.02065
2614.35842,0.02064
2612.29824,0.02050
2610.23807,0.02031
2608.17790,0.02022
2606.11773,0.02018
2604.05756,0.02013
2601.99738,0.01983
2599.93721,0.01938
2597.87704,0.01920
2595.81687,0.01936
2593.75670,0.01951
2591.69652,0.01935
2589.63635,0.01907
2587.57618,0.01896
2585.51601,0.01899
2583.45583,0.01909
2581.39566,0.01912
2579.33549,0.01903
2577.27532,0.01894
2575.21515,0.01891
2573.15497,0.01890
2571.09480,0.01872
2569.03463,0.01833
2566.97446,0.01810
2564.91429,0.01803
2562.85411,0.01771
2560.79394,0.01736
2558.73377,0.01736
2556.67360,0.01742
2554.61342,0.01721
2552.55325,0.01697
2550.49308,0.01700
2548.43291,0.01721
2546.37274,0.01723
2544.31256,0.01686
2542.25239,0.01640
2540.19222,0.01614
2538.13205,0.01607
2536.07188,0.01608
2534.01170,0.01616
2531.95153,0.01634
2529.89136,0.01638
2527.83119,0.01594
2525.77102,0.01537
2523.71084,0.01523
2521.65067,0.01542
2519.59050,0.01561
2517.53033,0.01566
2515.47015,0.01537
2513.40998,0.01489
2511.34981,0.01466
2509.28964,0.01465
2507.22947,0.01461
2505.16929,0.01464
2503.10912,0.01487
2501.04895,0.01508
2498.98878,0.01495
2496.92861,0.01465
2494.86843,0.01469
2492.80826,0.01479
2490.74809,0.01465
2488.68792,0.01453
2486.62775,0.01437
2484.56757,0.01405
2482.50740,0.01386
2480.44723,0.01397
2478.38706,0.01408
2476.32688,0.01393
2474.26671,0.01367
2472.20654,0.01358
2470.14637,0.01372
2468.08620,0.01381
2466.02602,0.01363
2463.96585,0.01328
2461.90568,0.01305
2459.84551,0.01308
2457.78534,0.01326
2455.72516,0.01340
2453.66499,0.01352
2451.60482,0.01351
2449.54465,0.01304
2447.48447,0.01232
2445.42430,0.01196
2443.36413,0.01222
2441.30396,0.01270
2439.24379,0.01279
2437.18361,0.01254
2435.12344,0.01248
2433.06327,0.01243
2431.00310,0.01206
2428.94293,0.01162
2426.88275,0.01141
2424.82258,0.01147
2422.76241,0.01162
2420.70224,0.01186
2418.64207,0.01216
2416.58189,0.01216
2414.52172,0.01178
2412.46155,0.01144
2410.40138,0.01144
2408.34120,0.01159
2406.28103,0.01156
2404.22086,0.01127
2402.16069,0.01085
2400.10052,0.01049
2398.04034,0.01049
2395.98017,0.01058
2393.92000,0.01056
2391.85983,0.01040
2389.79966,0.01026
2387.73948,0.01020
2385.67931,0.01007
2383.61914,0.01004
2381.55897,0.01030
2379.49880,0.01055
2377.43862,0.01057
2375.37845,0.01101
2373.31828,0.01143
2371.25811,0.01137
2369.19793,0.01168
2367.13776,0.01186
2365.07759,0.01115
2363.01742,0.01030
2360.95725,0.00823
2358.89707,0.00853
2356.83690,0.00973
2354.77673,0.00988
2352.71656,0.00978
2350.65639,0.00768
2348.59621,0.00714
2346.53604,0.01177
2344.47587,0.01306
2342.41570,0.01241
2340.35552,0.01208
2338.29535,0.01147
2336.23518,0.01065
2334.17501,0.00932
2332.11484,0.00886
2330.05466,0.00941
2327.99449,0.01081
2325.93432,0.01165
2323.87415,0.01235
2321.81398,0.01197
2319.75380,0.01103
2317.69363,0.00955
2315.63346,0.00937
2313.57329,0.01000
2311.51312,0.00998
2309.45294,0.00933
2307.39277,0.00875
2305.33260,0.00863
2303.27243,0.00883
2301.21225,0.00912
2299.15208,0.00901
2297.09191,0.00896
2295.03174,0.00929
2292.97157,0.00960
2290.91139,0.00971
2288.85122,0.00959
2286.79105,0.00918
2284.73088,0.00871
2282.67071,0.00839
2280.61053,0.00819
2278.55036,0.00814
2276.49019,0.00834
2274.43002,0.00853
2272.36984,0.00841
2270.30967,0.00786
2268.24950,0.00722
2266.18933,0.00715
2264.12916,0.00760
2262.06898,0.00786
2260.00881,0.00771
2257.94864,0.00736
2255.88847,0.00708
2253.82830,0.00697
2251.76812,0.00712
2249.70795,0.00745
2247.64778,0.00758
2245.58761,0.00744
2243.52744,0.00734
2241.46726,0.00721
2239.40709,0.00713
2237.34692,0.00739
2235.28675,0.00745
2233.22657,0.00688
2231.16640,0.00635
2229.10623,0.00630
2227.04606,0.00634
2224.98589,0.00617
2222.92571,0.00582
2220.86554,0.00551
2218.80537,0.00542
2216.74520,0.00550
2214.68503,0.00580
2212.62485,0.00669
2210.56468,0.00754
2208.50451,0.00726
2206.44434,0.00616
2204.38417,0.00536
2202.32399,0.00529
2200.26382,0.00551
2198.20365,0.00525
2196.14348,0.00459
2194.08330,0.00489
2192.02313,0.00598
2189.96296,0.00649
2187.90279,0.00615
2185.84262,0.00543
2183.78244,0.00513
2181.72227,0.00469
2179.66210,0.00356
2177.60193,0.00273
2175.54176,0.00269
2173.48158,0.00328
2171.42141,0.00477
2169.36124,0.00648
2167.30107,0.00700
2165.24089,0.00662
2163.18072,0.00629
2161.12055,0.00521
2159.06038,0.00275
2157.00021,0.00161
2154.94003,0.00280
2152.87986,0.00443
2150.81969,0.00490
2148.75952,0.00377
2146.69935,0.00297
2144.63917,0.00333
2142.57900,0.00346
2140.51883,0.00359
2138.45866,0.00420
2136.39849,0.00424
2134.33831,0.00384
2132.27814,0.00423
2130.21797,0.00512
2128.15780,0.00565
2126.09762,0.00591
2124.03745,0.00603
2121.97728,0.00584
2119.91711,0.00559
2117.85694,0.00558
2115.79676,0.00565
2113.73659,0.00558
2111.67642,0.00548
2109.61625,0.00538
2107.55608,0.00539
2105.49590,0.00556
2103.43573,0.00557
2101.37556,0.00553
2099.31539,0.00572
2097.25521,0.00581
2095.19504,0.00562
2093.13487,0.00530
2091.07470,0.00483
2089.01453,0.00441
2086.95435,0.00444
2084.89418,0.00494
2082.83401,0.00571
2080.77384,0.00652
2078.71367,0.00675
2076.65349,0.00625
2074.59332,0.00586
2072.53315,0.00605
2070.47298,0.00624
2068.41281,0.00609
2066.35263,0.00626
2064.29246,0.00657
2062.23229,0.00618
2060.17212,0.00559
2058.11194,0.00543
2056.05177,0.00530
2053.99160,0.00500
2051.93143,0.00446
2049.87126,0.00375
2047.81108,0.00366
2045.75091,0.00413
2043.69074,0.00430
2041.63057,0.00424
2039.57040,0.00459
2037.51022,0.00519
2035.45005,0.00482
2033.38988,0.00308
2031.32971,0.00182
2029.26954,0.00221
2027.20936,0.00351
2025.14919,0.00434
2023.08902,0.00408
2021.02885,0.00353
2018.96867,0.00305
2016.90850,0.00252
2014.84833,0.00229
2012.78816,0.00214
2010.72799,0.00191
2008.66781,0.00172
2006.60764,0.00165
2004.54747,0.00219
2002.48730,0.00296
2000.42713,0.00322
1998.36695,0.00315
1996.30678,0.00293
1994.24661,0.00278
1992.18644,0.00343
1990.12626,0.00484
1988.06609,0.00568
1986.00592,0.00530
1983.94575,0.00509
1981.88558,0.00570
1979.82540,0.00539
1977.76523,0.00385
1975.70506,0.00276
1973.64489,0.00260
1971.58472,0.00244
1969.52454,0.00193
1967.46437,0.00184
1965.40420,0.00216
1963.34403,0.00256
1961.28386,0.00299
1959.22368,0.00305
1957.16351,0.00296
1955.10334,0.00328
1953.04317,0.00366
1950.98299,0.00381
1948.92282,0.00383
1946.86265,0.00338
1944.80248,0.00246
1942.74231,0.00210
1940.68213,0.00286
1938.62196,0.00361
1936.56179,0.00367
1934.50162,0.00348
1932.44145,0.00312
1930.38127,0.00240
1928.32110,0.00190
1926.26093,0.00222
1924.20076,0.00290
1922.14059,0.00323
1920.08041,0.00324
1918.02024,0.00321
1915.96007,0.00321
1913.89990,0.00331
1911.83972,0.00347
1909.77955,0.00317
1907.71938,0.00249
1905.65921,0.00226
1903.59904,0.00248
1901.53886,0.00253
1899.47869,0.00244
1897.41852,0.00248
1895.35835,0.00276
1893.29818,0.00322
1891.23800,0.00347
1889.17783,0.00334
1887.11766,0.00313
1885.05749,0.00303
1882.99731,0.00309
1880.93714,0.00335
1878.87697,0.00348
1876.81680,0.00316
1874.75663,0.00256
1872.69645,0.00208
1870.63628,0.00187
1868.57611,0.00201
1866.51594,0.00239
1864.45577,0.00255
1862.39559,0.00243
1860.33542,0.00237
1858.27525,0.00257
1856.21508,0.00271
1854.15491,0.00249
1852.09473,0.00217
1850.03456,0.00219
1847.97439,0.00245
1845.91422,0.00262
1843.85404,0.00255
1841.79387,0.00233
1839.73370,0.00225
1837.67353,0.00240
1835.61336,0.00249
1833.55318,0.00237
1831.49301,0.00220
1829.43284,0.00209
1827.37267,0.00200
1825.31250,0.00195
1823.25232,0.00187
1821.19215,0.00181
1819.13198,0.00185
1817.07181,0.00198
1815.01163,0.00201
1812.95146,0.00202
1810.89129,0.00205
1808.83112,0.00202
1806.77095,0.00196
1804.71077,0.00190
1802.65060,0.00182
1800.59043,0.00177
1798.53026,0.00174
1796.47009,0.00170
1794.40991,0.00163
1792.34974,0.00158
1790.28957,0.00157
1788.22940,0.00159
1786.16923,0.00162
1784.10905,0.00170
1782.04888,0.00185
1779.98871,0.00184
1777.92854,0.00176
1775.86836,0.00170
1773.80819,0.00172
1771.74802,0.00188
1769.68785,0.00227
1767.62768,0.00277
1765.56750,0.00323
1763.50733,0.00384
1761.44716,0.00480
1759.38699,0.00595
1757.32682,0.00713
1755.26664,0.00834
1753.20647,0.00970
1751.14630,0.01157
1749.08613,0.01409
1747.02596,0.01701
1744.96578,0.02041
1742.90561,0.02461
1740.84544,0.02971
1738.78527,0.03505
1736.72509,0.03970
1734.66492,0.04405
1732.60475,0.04787
1730.54458,0.04969
1728.48441,0.05000
1726.42423,0.04976
1724.36406,0.04924
1722.30389,0.04852
1720.24372,0.04777
1718.18355,0.04722
1716.12337,0.04711
1714.06320,0.04711
1712.00303,0.04680
1709.94286,0.04619
1707.88268,0.04541
1705.82251,0.04445
1703.76234,0.04344
1701.70217,0.04250
1699.64200,0.04140
1697.58182,0.04015
1695.52165,0.03909
1693.46148,0.03843
1691.40131,0.03798
1689.34114,0.03760
1687.28096,0.03735
1685.22079,0.03718
1683.16062,0.03694
1681.10045,0.03668
1679.04028,0.03648
1676.98010,0.03635
1674.91993,0.03641
1672.85976,0.03678
1670.79959,0.03745
1668.73941,0.03829
1666.67924,0.03915
1664.61907,0.04013
1662.55890,0.04154
1660.49873,0.04316
1658.43855,0.04452
1656.37838,0.04554
1654.31821,0.04658
1652.25804,0.04773
1650.19787,0.04838
1648.13769,0.04871
1646.07752,0.04908
1644.01735,0.04936
1641.95718,0.04957
1639.89701,0.04984
1637.83683,0.05028
1635.77666,0.05107
1633.71649,0.05203
1631.65632,0.05280
1629.59614,0.05353
1627.53597,0.05433
1625.47580,0.05512
1623.41563,0.05599
1621.35546,0.05697
1619.29528,0.05802
1617.23511,0.05917
1615.17494,0.06024
1613.11477,0.06108
1611.05460,0.06192
1608.99442,0.06274
1606.93425,0.06320
1604.87408,0.06311
1602.81391,0.06249
1600.75373,0.06140
1598.69356,0.05999
1596.63339,0.05835
1594.57322,0.05644
1592.51305,0.05421
1590.45287,0.05185
1588.39270,0.04947
1586.33253,0.04703
1584.27236,0.04448
1582.21219,0.04205
1580.15201,0.04000
1578.09184,0.03816
1576.03167,0.03604
1573.97150,0.03401
1571.91133,0.03247
1569.85115,0.03109
1567.79098,0.02984
1565.73081,0.02892
1563.67064,0.02829
1561.61046,0.02790
1559.55029,0.02750
1557.49012,0.02708
1555.42995,0.02707
1553.36978,0.02734
1551.30960,0.02758
1549.24943,0.02768
1547.18926,0.02767
1545.12909,0.02760
1543.06892,0.02746
1541.00874,0.02721
1538.94857,0.02706
1536.88840,0.02713
1534.82823,0.02706
1532.76805,0.02663
1530.70788,0.02600
1528.64771,0.02526
1526.58754,0.02439
1524.52737,0.02356
1522.46719,0.02298
1520.40702,0.02269
1518.34685,0.02270
1516.28668,0.02287
1514.22651,0.02284
1512.16633,0.02237
1510.10616,0.02136
1508.04599,0.01950
1505.98582,0.01704
1503.92565,0.01532
1501.86547,0.01418
1499.80530,0.01301
1497.74513,0.01159
1495.68496,0.01006
1493.62478,0.00879
1491.56461,0.00772
1489.50444,0.00657
1487.44427,0.00550
1485.38410,0.00482
1483.32392,0.00461
1481.26375,0.00485
1479.20358,0.00557
1477.14341,0.00702
1475.08324,0.00964
1473.02306,0.01350
1470.96289,0.01753
1468.90272,0.02069
1466.84255,0.02344
1464.78238,0.02625
1462.72220,0.02845
1460.66203,0.02968
1458.60186,0.03105
1456.54169,0.03346
1454.48151,0.03565
1452.42134,0.03695
1450.36117,0.03802
1448.30100,0.03928
1446.24083,0.04054
1444.18065,0.04138
1442.12048,0.04163
1440.06031,0.04118
1438.00014,0.03987
1435.93997,0.03778
1433.87979,0.03572
1431.81962,0.03399
1429.75945,0.03233
1427.69928,0.03082
1425.63910,0.02974
1423.57893,0.02911
1421.51876,0.02891
1419.45859,0.02900
1417.39842,0.02907
1415.33824,0.02888
1413.27807,0.02858
1411.21790,0.02824
1409.15773,0.02785
1407.09756,0.02749
1405.03738,0.02731
1402.97721,0.02735
1400.91704,0.02750
1398.85687,0.02770
1396.79670,0.02799
1394.73652,0.02844
1392.67635,0.02901
1390.61618,0.02962
1388.55601,0.03029
1386.49583,0.03115
1384.43566,0.03218
1382.37549,0.03333
1380.31532,0.03467
1378.25515,0.03607
1376.19497,0.03735
1374.13480,0.03848
1372.07463,0.03942
1370.01446,0.04011
1367.95429,0.04060
1365.89411,0.04095
1363.83394,0.04120
1361.77377,0.04142
1359.71360,0.04167
1357.65343,0.04195
1355.59325,0.04232
1353.53308,0.04283
1351.47291,0.04346
1349.41274,0.04410
1347.35256,0.04462
1345.29239,0.04498
1343.23222,0.04531
1341.17205,0.04575
1339.11188,0.04633
1337.05170,0.04702
1334.99153,0.04776
1332.93136,0.04858
1330.87119,0.04943
1328.81102,0.05023
1326.75084,0.05096
1324.69067,0.05165
1322.63050,0.05234
1320.57033,0.05296
1318.51015,0.05338
1316.44998,0.05353
1314.38981,0.05332
1312.32964,0.05271
1310.26947,0.05171
1308.20929,0.05031
1306.14912,0.04850
1304.08895,0.04653
1302.02878,0.04447
1299.96861,0.04222
1297.90843,0.03981
1295.84826,0.03742
1293.78809,0.03525
1291.72792,0.03350
1289.66775,0.03221
1287.60757,0.03127
1285.54740,0.03051
1283.48723,0.02992
1281.42706,0.02946
1279.36688,0.02912
1277.30671,0.02902
1275.24654,0.02907
1273.18637,0.02918
1271.12620,0.02953
1269.06602,0.03022
1267.00585,0.03107
1264.94568,0.03190
1262.88551,0.03266
1260.82534,0.03343
1258.76516,0.03421
1256.70499,0.03492
1254.64482,0.03559
1252.58465,0.03633
1250.52447,0.03721
1248.46430,0.03819
1246.40413,0.03915
1244.34396,0.04010
1242.28379,0.04106
1240.22361,0.04198
1238.16344,0.04305
1236.10327,0.04432
1234.04310,0.04558
1231.98293,0.04674
1229.92275,0.04776
1227.86258,0.04861
1225.80241,0.04945
1223.74224,0.05048
1221.68207,0.05174
1219.62189,0.05298
1217.56172,0.05405
1215.50155,0.05513
1213.44138,0.05623
1211.38120,0.05733
1209.32103,0.05856
1207.26086,0.06001
1205.20069,0.06150
1203.14052,0.06280
1201.08034,0.06401
1199.02017,0.06502
1196.96000,0.06567
1194.89983,0.06601
1192.83966,0.06595
1190.77948,0.06543
1188.71931,0.06469
1186.65914,0.06401
1184.59897,0.06336
1182.53880,0.06264
1180.47862,0.06187
1178.41845,0.06111
1176.35828,0.06047
1174.29811,0.06011
1172.23793,0.06008
1170.17776,0.06013
1168.11759,0.05996
1166.05742,0.05965
1163.99725,0.05929
1161.93707,0.05860
1159.87690,0.05761
1157.81673,0.05664
1155.75656,0.05561
1153.69639,0.05431
1151.63621,0.05295
1149.57604,0.05186
1147.51587,0.05090
1145.45570,0.04969
1143.39552,0.04811
1141.33535,0.04642
1139.27518,0.04483
1137.21501,0.04343
1135.15484,0.04247
1133.09466,0.04204
1131.03449,0.04202
1128.97432,0.04231
1126.91415,0.04295
1124.85398,0.04416
1122.79380,0.04593
1120.73363,0.04801
1118.67346,0.05033
1116.61329,0.05302
1114.55312,0.05603
1112.49294,0.05922
1110.43277,0.06273
1108.37260,0.06643
1106.31243,0.06989
1104.25225,0.07280
1102.19208,0.07529
1100.13191,0.07754
1098.07174,0.07939
1096.01157,0.08077
1093.95139,0.08208
1091.89122,0.08376
1089.83105,0.08570
1087.77088,0.08773
1085.71071,0.09009
1083.65053,0.09288
1081.59036,0.09586
1079.53019,0.09881
1077.47002,0.10158
1075.40985,0.10395
1073.34967,0.10571
1071.28950,0.10698
1069.22933,0.10813
1067.16916,0.10942
1065.10898,0.11098
1063.04881,0.11256
1060.98864,0.11391
1058.92847,0.11505
1056.86830,0.11612
1054.80812,0.11754
1052.74795,0.11950
1050.68778,0.12160
1048.62761,0.12360
1046.56744,0.12555
1044.50726,0.12742
1042.44709,0.12943
1040.38692,0.13175
1038.32675,0.13424
1036.26657,0.13683
1034.20640,0.13941
1032.14623,0.14177
1030.08606,0.14380
1028.02589,0.14547
1025.96571,0.14658
1023.90554,0.14715
1021.84537,0.14764
1019.78520,0.14812
1017.72503,0.14819
1015.66485,0.14785
1013.60468,0.14715
1011.54451,0.14578
1009.48434,0.14370
1007.42417,0.14111
1005.36399,0.13805
1003.30382,0.13463
1001.24365,0.13110
999.18348,0.12753
997.12330,0.12396
995.06313,0.12065
993.00296,0.11760
990.94279,0.11439
988.88262,0.11089
986.82244,0.10715
984.76227,0.10293
982.70210,0.09844
980.64193,0.09426
978.58176,0.09044
976.52158,0.08678
974.46141,0.08318
972.40124,0.07983
970.34107,0.07700
968.28089,0.07481
966.22072,0.07299
964.16055,0.07106
962.10038,0.06880
960.04021,0.06622
957.98003,0.06332
955.91986,0.06038
953.85969,0.05750
951.79952,0.05450
949.73935,0.05163
947.67917,0.04898
945.61900,0.04650
943.55883,0.04429
941.49866,0.04213
939.43849,0.03995
937.37831,0.03825
935.31814,0.03728
933.25797,0.03646
931.19780,0.03527
929.13762,0.03397
927.07745,0.03294
925.01728,0.03206
922.95711,0.03100
920.89694,0.02976
918.83676,0.02824
916.77659,0.02639
914.71642,0.02461
912.65625,0.02315
910.59608,0.02163
908.53590,0.02003
906.47573,0.01861
904.41556,0.01750
902.35539,0.01653
900.29522,0.01567
898.23504,0.01539
896.17487,0.01549
894.11470,0.01533
892.05453,0.01469
889.99435,0.01379
887.93418,0.01323
885.87401,0.01303
883.81384,0.01285
881.75367,0.01281
879.69349,0.01321
877.63332,0.01390
875.57315,0.01420
873.51298,0.01430
871.45281,0.01460
869.39263,0.01457
867.33246,0.01395
865.27229,0.01294
863.21212,0.01154
861.15194,0.00985
859.09177,0.00792
857.03160,0.00603
854.97143,0.00465
852.91126,0.00384
850.85108,0.00340
848.79091,0.00316
846.73074,0.00290
844.67057,0.00264
842.61040,0.00278
840.55022,0.00335
838.49005,0.00394
836.42988,0.00462
834.36971,0.00537
832.30954,0.00568
830.24936,0.00535
828.18919,0.00478
826.12902,0.00453
824.06885,0.00494
822.00867,0.00586
819.94850,0.00671
817.88833,0.00693
815.82816,0.00647
813.76799,0.00613
811.70781,0.00631
809.64764,0.00630
807.58747,0.00598
805.52730,0.00564
803.46713,0.00487
801.40695,0.00358
799.34678,0.00268
797.28661,0.00212
795.22644,0.00190
793.16627,0.00177
791.10609,0.00193
789.04592,0.00273
786.98575,0.00392
784.92558,0.00490
782.86540,0.00566
780.80523,0.00625
778.74506,0.00661
776.68489,0.00662
774.62472,0.00673
772.56454,0.00746
770.50437,0.00862
768.44420,0.01029
766.38403,0.01273
764.32386,0.01554
762.26368,0.01802
760.20351,0.01985
758.14334,0.02105
756.08317,0.02158
754.02299,0.02124
751.96282,0.01982
749.90265,0.01752
747.84248,0.01505
745.78231,0.01277
743.72213,0.01074
741.66196,0.00967
739.60179,0.00969
737.54162,0.00970
735.48145,0.00956
733.42127,0.00990
731.36110,0.01039
729.30093,0.01045
727.24076,0.00993
725.18059,0.00922
723.12041,0.00893
721.06024,0.00981
719.00007,0.00938
716.93990,0.00771
714.87972,0.00645
712.81955,0.00611
710.75938,0.00645
708.69921,0.00690
706.63904,0.00705
704.57886,0.00718
702.51869,0.00760
700.45852,0.00780
698.39835,0.00713
696.33818,0.00582
694.27800,0.00451
692.21783,0.00352
690.15766,0.00277
688.09749,0.00205
686.03731,0.00170
683.97714,0.00216
681.91697,0.00273
679.85680,0.00249
677.79663,0.00215
675.73645,0.00239
673.67628,0.00188
671.61611,0.00148
669.55594,0.00819
667.49577,0.01254
665.43559,0.00352
663.37542,0.00325
661.31525,0.00401
659.25508,0.00265
657.19491,0.00177
655.13473,0.00207
653.07456,0.00299
651.01439,0.00396
648.95422,0.00400
646.89404,0.00281
644.83387,0.00180
642.77370,0.00137
640.71353,0.00099
638.65336,0.00082
636.59318,0.00151
634.53301,0.00244
632.47284,0.00236
630.41267,0.00126
628.35250,0.00052
626.29232,0.00083
624.23215,0.00087
622.17198,0.00125
620.11181,0.00328
618.05164,0.00554
615.99146,0.00644
613.93129,0.00744
611.87112,0.00895
609.81095,0.00825
607.75077,0.00511
605.69060,0.00182
603.63043,0.00031
601.57026,0.00000
599.51009,0.00000
