3996.73391,0.00013
3994.67373,0.00004
3992.61356,0.00000
3990.55339,0.00009
3988.49322,0.00017
3986.43305,0.00014
3984.37287,0.00008
3982.31270,0.00007
3980.25253,0.00012
3978.19236,0.00027
3976.13219,0.00048
3974.07201,0.00050
3972.01184,0.00038
3969.95167,0.00036
3967.89150,0.00041
3965.83133,0.00046
3963.77115,0.00059
3961.71098,0.00070
3959.65081,0.00065
3957.59064,0.00048
3955.53046,0.00034
3953.47029,0.00029
3951.41012,0.00023
3949.34995,0.00014
3947.28978,0.00016
3945.22960,0.00037
3943.16943,0.00064
3941.10926,0.00068
3939.04909,0.00049
3936.98892,0.00043
3934.92874,0.00071
3932.86857,0.00100
3930.80840,0.00088
3928.74823,0.00058
3926.68805,0.00057
3924.62788,0.00083
3922.56771,0.00112
3920.50754,0.00133
3918.44737,0.00139
3916.38719,0.00125
3914.32702,0.00091
3912.26685,0.00050
3910.20668,0.00024
3908.14651,0.00028
3906.08633,0.00050
3904.02616,0.00057
3901.96599,0.00043
3899.90582,0.00028
3897.84565,0.00034
3895.78547,0.00055
3893.72530,0.00067
3891.66513,0.00071
3889.60496,0.00092
3887.54478,0.00123
3885.48461,0.00123
3883.42444,0.00106
3881.36427,0.00104
3879.30410,0.00092
3877.24392,0.00082
3875.18375,0.00102
3873.12358,0.00129
3871.06341,0.00114
3869.00324,0.00060
3866.94306,0.00027
3864.88289,0.00036
3862.82272,0.00064
3860.76255,0.00098
3858.70237,0.00147
3856.64220,0.00202
3854.58203,0.00201
3852.52186,0.00116
3850.46169,0.00051
3848.40151,0.00053
3846.34134,0.00083
3844.28117,0.00117
3842.22100,0.00166
3840.16083,0.00203
3838.10065,0.00184
3836.04048,0.00140
3833.98031,0.00120
3831.92014,0.00116
3829.85997,0.00112
3827.79979,0.00119
3825.73962,0.00156
3823.67945,0.00208
3821.61928,0.00220
3819.55910,0.00173
3817.49893,0.00111
3815.43876,0.00063
3813.37859,0.00050
3811.31842,0.00063
3809.25824,0.00073
3807.19807,0.00076
3805.13790,0.00086
3803.07773,0.00109
3801.01756,0.00123
3798.95738,0.00114
3796.89721,0.00095
3794.83704,0.00081
3792.77687,0.00075
3790.71670,0.00079
3788.65652,0.00101
3786.59635,0.00128
3784.53618,0.00139
3782.47601,0.00140
3780.41583,0.00143
3778.35566,0.00141
3776.29549,0.00135
3774.23532,0.00122
3772.17515,0.00112
3770.11497,0.00112
3768.05480,0.00114
3765.99463,0.00107
3763.93446,0.00100
3761.87429,0.00117
3759.81411,0.00147
3757.75394,0.00148
3755.69377,0.00124
3753.63360,0.00109
3751.57342,0.00099
3749.51325,0.00094
3747.45308,0.00124
3745.39291,0.00167
3743.33274,0.00160
3741.27256,0.00116
3739.21239,0.00089
3737.15222,0.00094
3735.09205,0.00119
3733.03188,0.00116
3730.97170,0.00094
3728.91153,0.00079
3726.85136,0.00071
3724.79119,0.00080
3722.73102,0.00104
3720.67084,0.00126
3718.61067,0.00133
3716.55050,0.00153
3714.49033,0.00162
3712.43015,0.00118
3710.36998,0.00065
3708.30981,0.00051
3706.24964,0.00074
3704.18947,0.00095
3702.12929,0.00093
3700.06912,0.00091
3698.00895,0.00127
3695.94878,0.00192
3693.88861,0.00230
3691.82843,0.00209
3689.76826,0.00145
3687.70809,0.00098
3685.64792,0.00101
3683.58775,0.00137
3681.52757,0.00166
3679.46740,0.00168
3677.40723,0.00134
3675.34706,0.00085
3673.28688,0.00083
3671.22671,0.00132
3669.16654,0.00176
3667.10637,0.00210
3665.04620,0.00260
3662.98602,0.00301
3660.92585,0.00307
3658.86568,0.00292
3656.80551,0.00276
3654.74534,0.00270
3652.68516,0.00300
3650.62499,0.00372
3648.56482,0.00436
3646.50465,0.00443
3644.44447,0.00418
3642.38430,0.00402
3640.32413,0.00403
3638.26396,0.00415
3636.20379,0.00437
3634.14361,0.00472
3632.08344,0.00523
3630.02327,0.00569
3627.96310,0.00586
3625.90293,0.00593
3623.84275,0.00634
3621.78258,0.00699
3619.72241,0.00750
3617.66224,0.00771
3615.60207,0.00762
3613.54189,0.00738
3611.48172,0.00725
3609.42155,0.00762
3607.36138,0.00835
3605.30120,0.00900
3603.24103,0.00945
3601.18086,0.00961
3599.12069,0.00958
3597.06052,0.00968
3595.00034,0.01004
3592.94017,0.01044
3590.88000,0.01084
3588.81983,0.01117
3586.75966,0.01147
3584.69948,0.01171
3582.63931,0.01189
3580.57914,0.01206
3578.51897,0.01227
3576.45879,0.01272
3574.39862,0.01360
3572.33845,0.01466
3570.27828,0.01555
3568.21811,0.01615
3566.15793,0.01637
3564.09776,0.01648
3562.03759,0.01685
3559.97742,0.01743
3557.91725,0.01805
3555.85707,0.01852
3553.79690,0.01868
3551.73673,0.01875
3549.67656,0.01896
3547.61639,0.01929
3545.55621,0.01978
3543.49604,0.02049
3541.43587,0.02126
3539.37570,0.02192
3537.31552,0.02249
3535.25535,0.02296
3533.19518,0.02342
3531.13501,0.02387
3529.07484,0.02419
3527.01466,0.02449
3524.95449,0.02506
3522.89432,0.02582
3520.83415,0.02649
3518.77398,0.02701
3516.71380,0.02750
3514.65363,0.02792
3512.59346,0.02826
3510.53329,0.02870
3508.47312,0.02930
3506.41294,0.02987
3504.35277,0.03024
3502.29260,0.03039
3500.23243,0.03064
3498.17225,0.03112
3496.11208,0.03166
3494.05191,0.03227
3491.99174,0.03297
3489.93157,0.03366
3487.87139,0.03432
3485.81122,0.03501
3483.75105,0.03547
3481.69088,0.03554
3479.63071,0.03552
3477.57053,0.03567
3475.51036,0.03604
3473.45019,0.03659
3471.39002,0.03719
3469.32984,0.03771
3467.26967,0.03813
3465.20950,0.03863
3463.14933,0.03941
3461.08916,0.04019
3459.02898,0.04069
3456.96881,0.04097
3454.90864,0.04125
3452.84847,0.04170
3450.78830,0.04227
3448.72812,0.04282
3446.66795,0.04344
3444.60778,0.04407
3442.54761,0.04454
3440.48744,0.04490
3438.42726,0.04526
3436.36709,0.04573
3434.30692,0.04616
3432.24675,0.04639
3430.18657,0.04684
3428.12640,0.04757
3426.06623,0.04806
3424.00606,0.04825
3421.94589,0.04852
3419.88571,0.04893
3417.82554,0.04931
3415.76537,0.04965
3413.70520,0.04988
3411.64503,0.04996
3409.58485,0.05014
3407.52468,0.05057
3405.46451,0.05119
3403.40434,0.05195
3401.34416,0.05251
3399.28399,0.05269
3397.22382,0.05271
3395.16365,0.05291
3393.10348,0.05337
3391.04330,0.05385
3388.98313,0.05415
3386.92296,0.05448
3384.86279,0.05487
3382.80262,0.05505
3380.74244,0.05521
3378.68227,0.05555
3376.62210,0.05572
3374.56193,0.05582
3372.50176,0.05633
3370.44158,0.05700
3368.38141,0.05726
3366.32124,0.05720
3364.26107,0.05727
3362.20089,0.05762
3360.14072,0.05802
3358.08055,0.05830
3356.02038,0.05845
3353.96021,0.05863
3351.90003,0.05903
3349.83986,0.05943
3347.77969,0.05971
3345.71952,0.06007
3343.65935,0.06042
3341.59917,0.06052
3339.53900,0.06047
3337.47883,0.06053
3335.41866,0.06083
3333.35849,0.06111
3331.29831,0.06118
3329.23814,0.06114
3327.17797,0.06118
3325.11780,0.06128
3323.05762,0.06138
3320.99745,0.06151
3318.93728,0.06159
3316.87711,0.06154
3314.81694,0.06161
3312.75676,0.06191
3310.69659,0.06228
3308.63642,0.06257
3306.57625,0.06255
3304.51608,0.06234
3302.45590,0.06243
3300.39573,0.06262
3298.33556,0.06254
3296.27539,0.06255
3294.21521,0.06288
3292.15504,0.06321
3290.09487,0.06334
3288.03470,0.06332
3285.97453,0.06317
3283.91435,0.06312
3281.85418,0.06343
3279.79401,0.06369
3277.73384,0.06349
3275.67367,0.06329
3273.61349,0.06344
3271.55332,0.06363
3269.49315,0.06354
3267.43298,0.06328
3265.37281,0.06309
3263.31263,0.06306
3261.25246,0.06316
3259.19229,0.06322
3257.13212,0.06317
3255.07194,0.06307
3253.01177,0.06295
3250.95160,0.06282
3248.89143,0.06275
3246.83126,0.06267
3244.77108,0.06243
3242.71091,0.06224
3240.65074,0.06224
3238.59057,0.06206
3236.53040,0.06148
3234.47022,0.06071
3232.41005,0.06024
3230.34988,0.06020
3228.28971,0.06011
3226.22954,0.05984
3224.16936,0.05984
3222.10919,0.06008
3220.04902,0.06007
3217.98885,0.05976
3215.92867,0.05958
3213.86850,0.05956
3211.80833,0.05947
3209.74816,0.05922
3207.68799,0.05895
3205.62781,0.05878
3203.56764,0.05850
3201.50747,0.05817
3199.44730,0.05802
3197.38713,0.05788
3195.32695,0.05765
3193.26678,0.05755
3191.20661,0.05754
3189.14644,0.05740
3187.08626,0.05704
3185.02609,0.05662
3182.96592,0.05634
3180.90575,0.05606
3178.84558,0.05571
3176.78540,0.05553
3174.72523,0.05557
3172.66506,0.05550
3170.60489,0.05494
3168.54472,0.05409
3166.48454,0.05363
3164.42437,0.05368
3162.36420,0.05378
3160.30403,0.05377
3158.24386,0.05361
3156.18368,0.05329
3154.12351,0.05296
3152.06334,0.05263
3150.00317,0.05214
3147.94299,0.05168
3145.88282,0.05146
3143.82265,0.05137
3141.76248,0.05130
3139.70231,0.05120
3137.64213,0.05089
3135.58196,0.05034
3133.52179,0.04983
3131.46162,0.04952
3129.40145,0.04926
3127.34127,0.04895
3125.28110,0.04857
3123.22093,0.04823
3121.16076,0.04808
3119.10058,0.04804
3117.04041,0.04799
3114.98024,0.04781
3112.92007,0.04745
3110.85990,0.04709
3108.79972,0.04693
3106.73955,0.04677
3104.67938,0.04635
3102.61921,0.04581
3100.55904,0.04538
3098.49886,0.04501
3096.43869,0.04465
3094.37852,0.04447
3092.31835,0.04449
3090.25818,0.04457
3088.19800,0.04454
3086.13783,0.04428
3084.07766,0.04403
3082.01749,0.04384
3079.95731,0.04356
3077.89714,0.04323
3075.83697,0.04295
3073.77680,0.04275
3071.71663,0.04253
3069.65645,0.04233
3067.59628,0.04213
3065.53611,0.04178
3063.47594,0.04147
3061.41577,0.04132
3059.35559,0.04107
3057.29542,0.04067
3055.23525,0.04034
3053.17508,0.04010
3051.11491,0.03992
3049.05473,0.03968
3046.99456,0.03923
3044.93439,0.03877
3042.87422,0.03842
3040.81404,0.03819
3038.75387,0.03802
3036.69370,0.03785
3034.63353,0.03767
3032.57336,0.03743
3030.51318,0.03719
3028.45301,0.03698
3026.39284,0.03671
3024.33267,0.03639
3022.27250,0.03614
3020.21232,0.03596
3018.15215,0.03573
3016.09198,0.03554
3014.03181,0.03555
3011.97163,0.03549
3009.91146,0.03518
3007.85129,0.03483
3005.79112,0.03454
3003.73095,0.03430
3001.67077,0.03410
2999.61060,0.03391
2997.55043,0.03373
2995.49026,0.03355
2993.43009,0.03344
2991.36991,0.03338
2989.30974,0.03340
2987.24957,0.03352
2985.18940,0.03377
2983.12923,0.03416
2981.06905,0.03464
2979.00888,0.03515
2976.94871,0.03558
2974.88854,0.03592
2972.82836,0.03642
2970.76819,0.03718
2968.70802,0.03802
2966.64785,0.03903
2964.58768,0.04029
2962.52750,0.04154
2960.46733,0.04287
2958.40716,0.04434
2956.34699,0.04572
2954.28682,0.04715
2952.22664,0.04860
2950.16647,0.04987
2948.10630,0.05118
2946.04613,0.05285
2943.98596,0.05495
2941.92578,0.05736
2939.86561,0.05993
2937.80544,0.06263
2935.74527,0.06550
2933.68509,0.06849
2931.62492,0.07146
2929.56475,0.07419
2927.50458,0.07665
2925.44441,0.07916
2923.38423,0.08176
2921.32406,0.08431
2919.26389,0.08647
2917.20372,0.08699
2915.14355,0.08446
2913.08337,0.07955
2911.02320,0.07452
2908.96303,0.07047
2906.90286,0.06732
2904.84268,0.06485
2902.78251,0.06284
2900.72234,0.06103
2898.66217,0.05941
2896.60200,0.05816
2894.54182,0.05699
2892.48165,0.05559
2890.42148,0.05405
2888.36131,0.05268
2886.30114,0.05163
2884.24096,0.05070
2882.18079,0.04975
2880.12062,0.04890
2878.06045,0.04817
2876.00028,0.04779
2873.94010,0.04803
2871.87993,0.04850
2869.81976,0.04891
2867.75959,0.04952
2865.69941,0.05067
2863.63924,0.05232
2861.57907,0.05440
2859.51890,0.05690
2857.45873,0.05955
2855.39855,0.06229
2853.33838,0.06553
2851.27821,0.06876
2849.21804,0.06962
2847.15787,0.06618
2845.09769,0.05991
2843.03752,0.05384
2840.97735,0.04919
2838.91718,0.04572
2836.85700,0.04318
2834.79683,0.04131
2832.73666,0.03987
2830.67649,0.03873
2828.61632,0.03782
2826.55614,0.03710
2824.49597,0.03654
2822.43580,0.03608
2820.37563,0.03560
2818.31546,0.03502
2816.25528,0.03444
2814.19511,0.03393
2812.13494,0.03360
2810.07477,0.03339
2808.01460,0.03302
2805.95442,0.03257
2803.89425,0.03231
2801.83408,0.03211
2799.77391,0.03180
2797.71373,0.03143
2795.65356,0.03106
2793.59339,0.03088
2791.53322,0.03083
2789.47305,0.03057
2787.41287,0.03011
2785.35270,0.02974
2783.29253,0.02955
2781.23236,0.02938
2779.17219,0.02927
2777.11201,0.02924
2775.05184,0.02912
2772.99167,0.02898
2770.93150,0.02886
2768.87133,0.02860
2766.81115,0.02835
2764.75098,0.02825
2762.69081,0.02808
2760.63064,0.02781
2758.57046,0.02770
2756.51029,0.02778
2754.45012,0.02785
2752.38995,0.02786
2750.32978,0.02783
2748.26960,0.02775
2746.20943,0.02759
2744.14926,0.02743
2742.08909,0.02733
2740.02892,0.02724
2737.96874,0.02711
2735.90857,0.02690
2733.84840,0.02671
2731.78823,0.02669
2729.72805,0.02677
2727.66788,0.02692
2725.60771,0.02706
2723.54754,0.02695
2721.48737,0.02667
2719.42719,0.02650
2717.36702,0.02647
2715.30685,0.02639
2713.24668,0.02622
2711.18651,0.02612
2709.12633,0.02620
2707.06616,0.02630
2705.00599,0.02620
2702.94582,0.02598
2700.88565,0.02586
2698.82547,0.02577
2696.76530,0.02560
2694.70513,0.02538
2692.64496,0.02524
2690.58478,0.02527
2688.52461,0.02530
2686.46444,0.02513
2684.40427,0.02496
2682.34410,0.02493
2680.28392,0.02497
2678.22375,0.02494
2676.16358,0.02473
2674.10341,0.02447
2672.04324,0.02429
2669.98306,0.02416
2667.92289,0.02410
2665.86272,0.02408
2663.80255,0.02395
2661.74238,0.02374
2659.68220,0.02367
2657.62203,0.02370
2655.56186,0.02363
2653.50169,0.02344
2651.44151,0.02333
2649.38134,0.02329
2647.32117,0.02317
2645.26100,0.02305
2643.20083,0.02294
2641.14065,0.02269
2639.08048,0.02238
2637.02031,0.02242
2634.96014,0.02274
2632.89997,0.02266
2630.83979,0.02210
2628.77962,0.02171
2626.71945,0.02168
2624.65928,0.02155
2622.59910,0.02133
2620.53893,0.02129
2618.47876,0.02131
2616.41859,0.02118
2614.35842,0.02086
2612.29824,0.02057
2610.23807,0.02050
2608.17790,0.02053
2606.11773,0.02049
2604.05756,0.02043
2601.99738,0.02045
2599.93721,0.02045
2597.87704,0.02038
2595.81687,0.02025
2593.75670,0.01998
2591.69652,0.01959
2589.63635,0.01936
2587.57618,0.01943
2585.51601,0.01952
2583.45583,0.01939
2581.39566,0.01924
2579.33549,0.01923
2577.27532,0.01931
2575.21515,0.01934
2573.15497,0.01918
2571.09480,0.01904
2569.03463,0.01911
2566.97446,0.01917
2564.91429,0.01906
2562.85411,0.01872
2560.79394,0.01851
2558.73377,0.01849
2556.67360,0.01830
2554.61342,0.01806
2552.55325,0.01799
2550.49308,0.01798
2548.43291,0.01773
2546.37274,0.01737
2544.31256,0.01732
2542.25239,0.01748
2540.19222,0.01746
2538.13205,0.01721
2536.07188,0.01710
2534.01170,0.01723
2531.95153,0.01732
2529.89136,0.01727
2527.83119,0.01721
2525.77102,0.01707
2523.71084,0.01674
2521.65067,0.01644
2519.59050,0.01652
2517.53033,0.01687
2515.47015,0.01701
2513.40998,0.01679
2511.34981,0.01658
2509.28964,0.01647
2507.22947,0.01631
2505.16929,0.01609
2503.10912,0.01604
2501.04895,0.01631
2498.98878,0.01654
2496.92861,0.01648
2494.86843,0.01618
2492.80826,0.01576
2490.74809,0.01560
2488.68792,0.01574
2486.62775,0.01567
2484.56757,0.01543
2482.50740,0.01530
2480.44723,0.01519
2478.38706,0.01505
2476.32688,0.01494
2474.26671,0.01480
2472.20654,0.01468
2470.14637,0.01470
2468.08620,0.01466
2466.02602,0.01463
2463.96585,0.01479
2461.90568,0.01486
2459.84551,0.01479
2457.78534,0.01474
2455.72516,0.01490
2453.66499,0.01508
2451.60482,0.01473
2449.54465,0.01408
2447.48447,0.01374
2445.42430,0.01368
2443.36413,0.01363
2441.30396,0.01348
2439.24379,0.01345
2437.18361,0.01356
2435.12344,0.01350
2433.06327,0.01330
2431.00310,0.01334
2428.94293,0.01366
2426.88275,0.01373
2424.82258,0.01336
2422.76241,0.01298
2420.70224,0.01290
2418.64207,0.01316
2416.58189,0.01355
2414.52172,0.01361
2412.46155,0.01322
2410.40138,0.01279
2408.34120,0.01244
2406.28103,0.01204
2404.22086,0.01188
2402.16069,0.01214
2400.10052,0.01259
2398.04034,0.01292
2395.98017,0.01286
2393.92000,0.01247
2391.85983,0.01206
2389.79966,0.01185
2387.73948,0.01193
2385.67931,0.01234
2383.61914,0.01284
2381.55897,0.01308
2379.49880,0.01298
2377.43862,0.01264
2375.37845,0.01178
2373.31828,0.01129
2371.25811,0.01121
2369.19793,0.00984
2367.13776,0.00862
2365.07759,0.00881
2363.01742,0.00830
2360.95725,0.01002
2358.89707,0.01061
2356.83690,0.00894
2354.77673,0.00739
2352.71656,0.00866
2350.65639,0.01459
2348.59621,0.01723
2346.53604,0.01093
2344.47587,0.00837
2342.41570,0.00884
2340.35552,0.00929
2338.29535,0.01048
2336.23518,0.01161
2334.17501,0.01243
2332.11484,0.01215
2330.05466,0.01193
2327.99449,0.01211
2325.93432,0.01348
2323.87415,0.01362
2321.81398,0.01269
2319.75380,0.01147
2317.69363,0.01187
2315.63346,0.01209
2313.57329,0.01188
2311.51312,0.01179
2309.45294,0.01151
2307.39277,0.01113
2305.33260,0.01102
2303.27243,0.01121
2301.21225,0.01137
2299.15208,0.01158
2297.09191,0.01150
2295.03174,0.01146
2292.97157,0.01179
2290.91139,0.01201
2288.85122,0.01200
2286.79105,0.01189
2284.73088,0.01167
2282.67071,0.01125
2280.61053,0.01073
2278.55036,0.01046
2276.49019,0.01047
2274.43002,0.01062
2272.36984,0.01074
2270.30967,0.01078
2268.24950,0.01063
2266.18933,0.01035
2264.12916,0.01020
2262.06898,0.01024
2260.00881,0.01013
2257.94864,0.00974
2255.88847,0.00928
2253.82830,0.00895
2251.76812,0.00860
2249.70795,0.00825
2247.64778,0.00827
2245.58761,0.00876
2243.52744,0.00917
2241.46726,0.00930
2239.40709,0.00957
2237.34692,0.00968
2235.28675,0.00917
2233.22657,0.00867
2231.16640,0.00861
2229.10623,0.00856
2227.04606,0.00848
2224.98589,0.00856
2222.92571,0.00844
2220.86554,0.00789
2218.80537,0.00719
2216.74520,0.00701
2214.68503,0.00749
2212.62485,0.00802
2210.56468,0.00838
2208.50451,0.00849
2206.44434,0.00845
2204.38417,0.00832
2202.32399,0.00760
2200.26382,0.00639
2198.20365,0.00596
2196.14348,0.00672
2194.08330,0.00768
2192.02313,0.00842
2189.96296,0.00841
2187.90279,0.00788
2185.84262,0.00759
2183.78244,0.00699
2181.72227,0.00607
2179.66210,0.00588
2177.60193,0.00679
2175.54176,0.00761
2173.48158,0.00758
2171.42141,0.00772
2169.36124,0.00844
2167.30107,0.00831
2165.24089,0.00728
2163.18072,0.00604
2161.12055,0.00477
2159.06038,0.00486
2157.00021,0.00564
2154.94003,0.00602
2152.87986,0.00615
2150.81969,0.00604
2148.75952,0.00648
2146.69935,0.00705
2144.63917,0.00633
2142.57900,0.00534
2140.51883,0.00510
2138.45866,0.00469
2136.39849,0.00443
2134.33831,0.00493
2132.27814,0.00572
2130.21797,0.00661
2128.15780,0.00732
2126.09762,0.00766
2124.03745,0.00791
2121.97728,0.00794
2119.91711,0.00776
2117.85694,0.00796
2115.79676,0.00830
2113.73659,0.00833
2111.67642,0.00827
2109.61625,0.00826
2107.55608,0.00821
2105.49590,0.00797
2103.43573,0.00750
2101.37556,0.00708
2099.31539,0.00695
2097.25521,0.00719
2095.19504,0.00782
2093.13487,0.00835
2091.07470,0.00809
2089.01453,0.00732
2086.95435,0.00684
2084.89418,0.00671
2082.83401,0.00671
2080.77384,0.00678
2078.71367,0.00678
2076.65349,0.00683
2074.59332,0.00689
2072.53315,0.00668
2070.47298,0.00668
2068.41281,0.00702
2066.35263,0.00716
2064.29246,0.00709
2062.23229,0.00669
2060.17212,0.00629
2058.11194,0.00658
2056.05177,0.00703
2053.99160,0.00704
2051.93143,0.00710
2049.87126,0.00740
2047.81108,0.00738
2045.75091,0.00654
2043.69074,0.00518
2041.63057,0.00422
2039.57040,0.00470
2037.51022,0.00633
2035.45005,0.00733
2033.38988,0.00682
2031.32971,0.00541
2029.26954,0.00394
2027.20936,0.00325
2025.14919,0.00364
2023.08902,0.00435
2021.02885,0.00408
2018.96867,0.00348
2016.90850,0.00402
2014.84833,0.00482
2012.78816,0.00539
2010.72799,0.00634
2008.66781,0.00703
2006.60764,0.00736
2004.54747,0.00790
2002.48730,0.00789
2000.42713,0.00697
1998.36695,0.00623
1996.30678,0.00580
1994.24661,0.00517
1992.18644,0.00486
1990.12626,0.00482
1988.06609,0.00487
1986.00592,0.00578
1983.94575,0.00725
1981.88558,0.00764
1979.82540,0.00633
1977.76523,0.00437
1975.70506,0.00302
1973.64489,0.00302
1971.58472,0.00355
1969.52454,0.00365
1967.46437,0.00428
1965.40420,0.00495
1963.34403,0.00432
1961.28386,0.00334
1959.22368,0.00298
1957.16351,0.00327
1955.10334,0.00375
1953.04317,0.00408
1950.98299,0.00455
1948.92282,0.00509
1946.86265,0.00522
1944.80248,0.00510
1942.74231,0.00509
1940.68213,0.00505
1938.62196,0.00499
1936.56179,0.00495
1934.50162,0.00477
1932.44145,0.00483
1930.38127,0.00538
1928.32110,0.00580
1926.26093,0.00576
1924.20076,0.00557
1922.14059,0.00550
1920.08041,0.00567
1918.02024,0.00575
1915.96007,0.00534
1913.89990,0.00482
1911.83972,0.00463
1909.77955,0.00465
1907.71938,0.00492
1905.65921,0.00536
1903.59904,0.00541
1901.53886,0.00495
1899.47869,0.00452
1897.41852,0.00447
1895.35835,0.00464
1893.29818,0.00478
1891.23800,0.00472
1889.17783,0.00438
1887.11766,0.00411
1885.05749,0.00425
1882.99731,0.00455
1880.93714,0.00470
1878.87697,0.00462
1876.81680,0.00445
1874.75663,0.00444
1872.69645,0.00464
1870.63628,0.00466
1868.57611,0.00431
1866.51594,0.00406
1864.45577,0.00415
1862.39559,0.00432
1860.33542,0.00433
1858.27525,0.00416
1856.21508,0.00397
1854.15491,0.00387
1852.09473,0.00389
1850.03456,0.00399
1847.97439,0.00405
1845.91422,0.00403
1843.85404,0.00389
1841.79387,0.00369
1839.73370,0.00363
1837.67353,0.00377
1835.61336,0.00401
1833.55318,0.00424
1831.49301,0.00432
1829.43284,0.00411
1827.37267,0.00378
1825.31250,0.00358
1823.25232,0.00355
1821.19215,0.00355
1819.13198,0.00351
1817.07181,0.00352
1815.01163,0.00361
1812.95146,0.00361
1810.89129,0.00343
1808.83112,0.00326
1806.77095,0.00330
1804.71077,0.00349
1802.65060,0.00358
1800.59043,0.00360
1798.53026,0.00367
1796.47009,0.00373
1794.40991,0.00369
1792.34974,0.00355
1790.28957,0.00341
1788.22940,0.00345
1786.16923,0.00354
1784.10905,0.00346
1782.04888,0.00330
1779.98871,0.00312
1777.92854,0.00309
1775.86836,0.00324
1773.80819,0.00353
1771.74802,0.00375
1769.68785,0.00385
1767.62768,0.00406
1765.56750,0.00451
1763.50733,0.00518
1761.44716,0.00602
1759.38699,0.00696
1757.32682,0.00793
1755.26664,0.00895
1753.20647,0.01011
1751.14630,0.01159
1749.08613,0.01364
1747.02596,0.01642
1744.96578,0.01999
1742.90561,0.02426
1740.84544,0.02917
1738.78527,0.03440
1736.72509,0.03908
1734.66492,0.04331
1732.60475,0.04683
1730.54458,0.04847
1728.48441,0.04867
1726.42423,0.04821
1724.36406,0.04745
1722.30389,0.04679
1720.24372,0.04641
1718.18355,0.04593
1716.12337,0.04535
1714.06320,0.04518
1712.00303,0.04522
1709.94286,0.04491
1707.88268,0.04405
1705.82251,0.04287
1703.76234,0.04186
1701.70217,0.04101
1699.64200,0.03970
1697.58182,0.03820
1695.52165,0.03720
1693.46148,0.03670
1691.40131,0.03632
1689.34114,0.03592
1687.28096,0.03560
1685.22079,0.03527
1683.16062,0.03488
1681.10045,0.03465
1679.04028,0.03460
1676.98010,0.03472
1674.91993,0.03503
1672.85976,0.03545
1670.79959,0.03606
1668.73941,0.03695
1666.67924,0.03789
1664.61907,0.03892
1662.55890,0.04033
1660.49873,0.04190
1658.43855,0.04307
1656.37838,0.04380
1654.31821,0.04461
1652.25804,0.04584
1650.19787,0.04664
1648.13769,0.04691
1646.07752,0.04723
1644.01735,0.04771
1641.95718,0.04816
1639.89701,0.04858
1637.83683,0.04909
1635.77666,0.04994
1633.71649,0.05101
1631.65632,0.05183
1629.59614,0.05242
1627.53597,0.05295
1625.47580,0.05353
1623.41563,0.05430
1621.35546,0.05520
1619.29528,0.05602
1617.23511,0.05695
1615.17494,0.05806
1613.11477,0.05900
1611.05460,0.05976
1608.99442,0.06046
1606.93425,0.06098
1604.87408,0.06102
1602.81391,0.06058
1600.75373,0.05981
1598.69356,0.05876
1596.63339,0.05736
1594.57322,0.05556
1592.51305,0.05345
1590.45287,0.05130
1588.39270,0.04924
1586.33253,0.04714
1584.27236,0.04500
1582.21219,0.04294
1580.15201,0.04111
1578.09184,0.03931
1576.03167,0.03715
1573.97150,0.03513
1571.91133,0.03370
1569.85115,0.03240
1567.79098,0.03116
1565.73081,0.03027
1563.67064,0.02961
1561.61046,0.02907
1559.55029,0.02857
1557.49012,0.02826
1555.42995,0.02825
1553.36978,0.02837
1551.30960,0.02846
1549.24943,0.02851
1547.18926,0.02851
1545.12909,0.02837
1543.06892,0.02813
1541.00874,0.02810
1538.94857,0.02829
1536.88840,0.02823
1534.82823,0.02778
1532.76805,0.02701
1530.70788,0.02621
1528.64771,0.02547
1526.58754,0.02464
1524.52737,0.02377
1522.46719,0.02326
1520.40702,0.02336
1518.34685,0.02375
1516.28668,0.02404
1514.22651,0.02394
1512.16633,0.02319
1510.10616,0.02176
1508.04599,0.01983
1505.98582,0.01806
1503.92565,0.01711
1501.86547,0.01649
1499.80530,0.01573
1497.74513,0.01453
1495.68496,0.01287
1493.62478,0.01124
1491.56461,0.00974
1489.50444,0.00829
1487.44427,0.00723
1485.38410,0.00671
1483.32392,0.00658
1481.26375,0.00682
1479.20358,0.00740
1477.14341,0.00855
1475.08324,0.01089
1473.02306,0.01461
1470.96289,0.01835
1468.90272,0.02107
1466.84255,0.02361
1464.78238,0.02648
1462.72220,0.02871
1460.66203,0.02989
1458.60186,0.03112
1456.54169,0.03319
1454.48151,0.03511
1452.42134,0.03633
1450.36117,0.03733
1448.30100,0.03846
1446.24083,0.03958
1444.18065,0.04028
1442.12048,0.04045
1440.06031,0.04012
1438.00014,0.03906
1435.93997,0.03725
1433.87979,0.03535
1431.81962,0.03369
1429.75945,0.03213
1427.69928,0.03080
1425.63910,0.02984
1423.57893,0.02924
1421.51876,0.02905
1419.45859,0.02912
1417.39842,0.02912
1415.33824,0.02888
1413.27807,0.02861
1411.21790,0.02841
1409.15773,0.02818
1407.09756,0.02789
1405.03738,0.02761
1402.97721,0.02743
1400.91704,0.02742
1398.85687,0.02768
1396.79670,0.02806
1394.73652,0.02839
1392.67635,0.02873
1390.61618,0.02922
1388.55601,0.02994
1386.49583,0.03091
1384.43566,0.03193
1382.37549,0.03294
1380.31532,0.03403
1378.25515,0.03514
1376.19497,0.03615
1374.13480,0.03714
1372.07463,0.03813
1370.01446,0.03893
1367.95429,0.03945
1365.89411,0.03971
1363.83394,0.03987
1361.77377,0.04003
1359.71360,0.04024
1357.65343,0.04057
1355.59325,0.04101
1353.53308,0.04147
1351.47291,0.04189
1349.41274,0.04227
1347.35256,0.04267
1345.29239,0.04307
1343.23222,0.04344
1341.17205,0.04386
1339.11188,0.04449
1337.05170,0.04520
1334.99153,0.04583
1332.93136,0.04653
1330.87119,0.04741
1328.81102,0.04827
1326.75084,0.04904
1324.69067,0.04986
1322.63050,0.05067
1320.57033,0.05130
1318.51015,0.05179
1316.44998,0.05216
1314.38981,0.05222
1312.32964,0.05178
1310.26947,0.05087
1308.20929,0.04957
1306.14912,0.04792
1304.08895,0.04599
1302.02878,0.04381
1299.96861,0.04150
1297.90843,0.03921
1295.84826,0.03711
1293.78809,0.03532
1291.72792,0.03388
1289.66775,0.03273
1287.60757,0.03192
1285.54740,0.03138
1283.48723,0.03093
1281.42706,0.03055
1279.36688,0.03038
1277.30671,0.03040
1275.24654,0.03052
1273.18637,0.03083
1271.12620,0.03147
1269.06602,0.03230
1267.00585,0.03308
1264.94568,0.03370
1262.88551,0.03430
1260.82534,0.03505
1258.76516,0.03587
1256.70499,0.03663
1254.64482,0.03734
1252.58465,0.03800
1250.52447,0.03872
1248.46430,0.03955
1246.40413,0.04034
1244.34396,0.04111
1242.28379,0.04202
1240.22361,0.04303
1238.16344,0.04407
1236.10327,0.04504
1234.04310,0.04600
1231.98293,0.04700
1229.92275,0.04786
1227.86258,0.04855
1225.80241,0.04937
1223.74224,0.05035
1221.68207,0.05128
1219.62189,0.05224
1217.56172,0.05330
1215.50155,0.05432
1213.44138,0.05519
1211.38120,0.05595
1209.32103,0.05697
1207.26086,0.05832
1205.20069,0.05965
1203.14052,0.06074
1201.08034,0.06174
1199.02017,0.06274
1196.96000,0.06345
1194.89983,0.06369
1192.83966,0.06348
1190.77948,0.06284
1188.71931,0.06199
1186.65914,0.06109
1184.59897,0.06017
1182.53880,0.05938
1180.47862,0.05887
1178.41845,0.05857
1176.35828,0.05838
1174.29811,0.05829
1172.23793,0.05835
1170.17776,0.05847
1168.11759,0.05856
1166.05742,0.05847
1163.99725,0.05800
1161.93707,0.05723
1159.87690,0.05624
1157.81673,0.05511
1155.75656,0.05398
1153.69639,0.05283
1151.63621,0.05159
1149.57604,0.05035
1147.51587,0.04927
1145.45570,0.04826
1143.39552,0.04707
1141.33535,0.04555
1139.27518,0.04398
1137.21501,0.04282
1135.15484,0.04211
1133.09466,0.04170
1131.03449,0.04169
1128.97432,0.04219
1126.91415,0.04311
1124.85398,0.04431
1122.79380,0.04571
1120.73363,0.04745
1118.67346,0.04978
1116.61329,0.05271
1114.55312,0.05591
1112.49294,0.05918
1110.43277,0.06253
1108.37260,0.06608
1106.31243,0.06967
1104.25225,0.07287
1102.19208,0.07533
1100.13191,0.07718
1098.07174,0.07887
1096.01157,0.08063
1093.95139,0.08239
1091.89122,0.08401
1089.83105,0.08559
1087.77088,0.08742
1085.71071,0.08947
1083.65053,0.09168
1081.59036,0.09427
1079.53019,0.09705
1077.47002,0.09939
1075.40985,0.10124
1073.34967,0.10297
1071.28950,0.10465
1069.22933,0.10611
1067.16916,0.10736
1065.10898,0.10858
1063.04881,0.10994
1060.98864,0.11141
1058.92847,0.11285
1056.86830,0.11430
1054.80812,0.11588
1052.74795,0.11769
1050.68778,0.11958
1048.62761,0.12129
1046.56744,0.12298
1044.50726,0.12488
1042.44709,0.12686
1040.38692,0.12884
1038.32675,0.13101
1036.26657,0.13337
1034.20640,0.13578
1032.14623,0.13802
1030.08606,0.13998
1028.02589,0.14147
1025.96571,0.14217
1023.90554,0.14247
1021.84537,0.14289
1019.78520,0.14312
1017.72503,0.14296
1015.66485,0.14243
1013.60468,0.14138
1011.54451,0.13978
1009.48434,0.13772
1007.42417,0.13523
1005.36399,0.13225
1003.30382,0.12908
1001.24365,0.12596
999.18348,0.12269
997.12330,0.11923
995.06313,0.11592
993.00296,0.11279
990.94279,0.10943
988.88262,0.10560
986.82244,0.10160
984.76227,0.09759
982.70210,0.09354
980.64193,0.08953
978.58176,0.08583
976.52158,0.08252
974.46141,0.07941
972.40124,0.07631
970.34107,0.07323
968.28089,0.07055
966.22072,0.06855
964.16055,0.06691
962.10038,0.06510
960.04021,0.06283
957.98003,0.06027
955.91986,0.05765
953.85969,0.05492
951.79952,0.05212
949.73935,0.04955
947.67917,0.04709
945.61900,0.04455
943.55883,0.04208
941.49866,0.03996
939.43849,0.03829
937.37831,0.03688
935.31814,0.03570
933.25797,0.03482
931.19780,0.03399
929.13762,0.03300
927.07745,0.03201
925.01728,0.03100
922.95711,0.02981
920.89694,0.02848
918.83676,0.02717
916.77659,0.02587
914.71642,0.02446
912.65625,0.02282
910.59608,0.02108
908.53590,0.01967
906.47573,0.01854
904.41556,0.01743
902.35539,0.01656
900.29522,0.01617
898.23504,0.01610
896.17487,0.01609
894.11470,0.01606
892.05453,0.01595
889.99435,0.01567
887.93418,0.01525
885.87401,0.01483
883.81384,0.01464
881.75367,0.01461
879.69349,0.01467
877.63332,0.01509
875.57315,0.01568
873.51298,0.01598
871.45281,0.01590
869.39263,0.01558
867.33246,0.01482
865.27229,0.01335
863.21212,0.01160
861.15194,0.01011
859.09177,0.00882
857.03160,0.00768
854.97143,0.00673
852.91126,0.00575
850.85108,0.00491
848.79091,0.00465
846.73074,0.00478
844.67057,0.00488
842.61040,0.00482
840.55022,0.00507
838.49005,0.00589
836.42988,0.00682
834.36971,0.00757
832.30954,0.00790
830.24936,0.00766
828.18919,0.00712
826.12902,0.00683
824.06885,0.00721
822.00867,0.00807
819.94850,0.00885
817.88833,0.00904
815.82816,0.00896
813.76799,0.00905
811.70781,0.00911
809.64764,0.00891
807.58747,0.00828
805.52730,0.00742
803.46713,0.00673
801.40695,0.00609
799.34678,0.00545
797.28661,0.00502
795.22644,0.00473
793.16627,0.00427
791.10609,0.00447
789.04592,0.00500
786.98575,0.00569
784.92558,0.00646
782.86540,0.00693
780.80523,0.00712
778.74506,0.00715
776.68489,0.00722
774.62472,0.00773
772.56454,0.00880
770.50437,0.01009
768.44420,0.01153
766.38403,0.01327
764.32386,0.01537
762.26368,0.01761
760.20351,0.01944
758.14334,0.02041
756.08317,0.02040
754.02299,0.01963
751.96282,0.01848
749.90265,0.01740
747.84248,0.01605
745.78231,0.01394
743.72213,0.01206
741.66196,0.01109
739.60179,0.01070
737.54162,0.01079
735.48145,0.01087
733.42127,0.01082
731.36110,0.01118
729.30093,0.01157
727.24076,0.01193
725.18059,0.01255
723.12041,0.01329
721.06024,0.01292
719.00007,0.01271
716.93990,0.01173
714.87972,0.01002
712.81955,0.00899
710.75938,0.00870
708.69921,0.00868
706.63904,0.00865
704.57886,0.00843
702.51869,0.00795
700.45852,0.00761
698.39835,0.00776
696.33818,0.00804
694.27800,0.00790
692.21783,0.00707
690.15766,0.00605
688.09749,0.00562
686.03731,0.00559
683.97714,0.00555
681.91697,0.00565
679.85680,0.00542
677.79663,0.00459
675.73645,0.00487
673.67628,0.00855
671.61611,0.01300
669.55594,0.00634
667.49577,0.00000
665.43559,0.01047
663.37542,0.00958
661.31525,0.00684
659.25508,0.00635
657.19491,0.00601
655.13473,0.00523
653.07456,0.00477
651.01439,0.00471
648.95422,0.00421
646.89404,0.00359
644.83387,0.00368
642.77370,0.00509
640.71353,0.00592
638.65336,0.00521
636.59318,0.00425
634.53301,0.00388
632.47284,0.00356
630.41267,0.00322
628.35250,0.00299
626.29232,0.00249
624.23215,0.00217
622.17198,0.00323
620.11181,0.00493
618.05164,0.00566
615.99146,0.00541
613.93129,0.00624
611.87112,0.00795
609.81095,0.00826
607.75077,0.00638
605.69060,0.00360
603.63043,0.00162
601.57026,0.00096
599.51009,0.00000
