3996.73391,0.00020
3994.67373,0.00025
3992.61356,0.00015
3990.55339,0.00010
3988.49322,0.00019
3986.43305,0.00025
3984.37287,0.00032
3982.31270,0.00053
3980.25253,0.00074
3978.19236,0.00078
3976.13219,0.00061
3974.07201,0.00032
3972.01184,0.00030
3969.95167,0.00055
3967.89150,0.00073
3965.83133,0.00080
3963.77115,0.00081
3961.71098,0.00065
3959.65081,0.00040
3957.59064,0.00032
3955.53046,0.00037
3953.47029,0.00025
3951.41012,0.00003
3949.34995,0.00000
3947.28978,0.00017
3945.22960,0.00038
3943.16943,0.00065
3941.10926,0.00092
3939.04909,0.00105
3936.98892,0.00110
3934.92874,0.00118
3932.86857,0.00125
3930.80840,0.00120
3928.74823,0.00108
3926.68805,0.00119
3924.62788,0.00156
3922.56771,0.00179
3920.50754,0.00163
3918.44737,0.00123
3916.38719,0.00094
3914.32702,0.00083
3912.26685,0.00073
3910.20668,0.00070
3908.14651,0.00091
3906.08633,0.00119
3904.02616,0.00128
3901.96599,0.00116
3899.90582,0.00108
3897.84565,0.00119
3895.78547,0.00120
3893.72530,0.00110
3891.66513,0.00122
3889.60496,0.00149
3887.54478,0.00154
3885.48461,0.00138
3883.42444,0.00130
3881.36427,0.00159
3879.30410,0.00209
3877.24392,0.00233
3875.18375,0.00217
3873.12358,0.00156
3871.06341,0.00067
3869.00324,0.00009
3866.94306,0.00007
3864.88289,0.00032
3862.82272,0.00069
3860.76255,0.00094
3858.70237,0.00101
3856.64220,0.00102
3854.58203,0.00100
3852.52186,0.00102
3850.46169,0.00116
3848.40151,0.00144
3846.34134,0.00170
3844.28117,0.00172
3842.22100,0.00163
3840.16083,0.00158
3838.10065,0.00146
3836.04048,0.00116
3833.98031,0.00090
3831.92014,0.00089
3829.85997,0.00113
3827.79979,0.00151
3825.73962,0.00194
3823.67945,0.00210
3821.61928,0.00185
3819.55910,0.00154
3817.49893,0.00147
3815.43876,0.00157
3813.37859,0.00150
3811.31842,0.00120
3809.25824,0.00095
3807.19807,0.00096
3805.13790,0.00106
3803.07773,0.00118
3801.01756,0.00140
3798.95738,0.00150
3796.89721,0.00137
3794.83704,0.00127
3792.77687,0.00134
3790.71670,0.00151
3788.65652,0.00166
3786.59635,0.00160
3784.53618,0.00138
3782.47601,0.00133
3780.41583,0.00156
3778.35566,0.00179
3776.29549,0.00187
3774.23532,0.00183
3772.17515,0.00162
3770.11497,0.00130
3768.05480,0.00118
3765.99463,0.00140
3763.93446,0.00160
3761.87429,0.00159
3759.81411,0.00155
3757.75394,0.00144
3755.69377,0.00120
3753.63360,0.00108
3751.57342,0.00126
3749.51325,0.00156
3747.45308,0.00161
3745.39291,0.00153
3743.33274,0.00154
3741.27256,0.00138
3739.21239,0.00096
3737.15222,0.00069
3735.09205,0.00081
3733.03188,0.00116
3730.97170,0.00147
3728.91153,0.00155
3726.85136,0.00132
3724.79119,0.00115
3722.73102,0.00135
3720.67084,0.00156
3718.61067,0.00168
3716.55050,0.00148
3714.49033,0.00082
3712.43015,0.00019
3710.36998,0.00020
3708.30981,0.00075
3706.24964,0.00104
3704.18947,0.00093
3702.12929,0.00086
3700.06912,0.00109
3698.00895,0.00147
3695.94878,0.00169
3693.88861,0.00181
3691.82843,0.00174
3689.76826,0.00151
3687.70809,0.00133
3685.64792,0.00135
3683.58775,0.00149
3681.52757,0.00157
3679.46740,0.00135
3677.40723,0.00111
3675.34706,0.00135
3673.28688,0.00180
3671.22671,0.00202
3669.16654,0.00232
3667.10637,0.00279
3665.04620,0.00309
3662.98602,0.00315
3660.92585,0.00317
3658.86568,0.00334
3656.80551,0.00362
3654.74534,0.00373
3652.68516,0.00357
3650.62499,0.00354
3648.56482,0.00403
3646.50465,0.00472
3644.44447,0.00504
3642.38430,0.00501
3640.32413,0.00494
3638.26396,0.00510
3636.20379,0.00558
3634.14361,0.00617
3632.08344,0.00657
3630.02327,0.00678
3627.96310,0.00704
3625.90293,0.00736
3623.84275,0.00753
3621.78258,0.00754
3619.72241,0.00770
3617.66224,0.00823
3615.60207,0.00870
3613.54189,0.00878
3611.48172,0.00893
3609.42155,0.00939
3607.36138,0.00999
3605.30120,0.01053
3603.24103,0.01094
3601.18086,0.01134
3599.12069,0.01153
3597.06052,0.01162
3595.00034,0.01198
3592.94017,0.01264
3590.88000,0.01321
3588.81983,0.01369
3586.75966,0.01419
3584.69948,0.01469
3582.63931,0.01514
3580.57914,0.01549
3578.51897,0.01583
3576.45879,0.01635
3574.39862,0.01702
3572.33845,0.01749
3570.27828,0.01774
3568.21811,0.01813
3566.15793,0.01878
3564.09776,0.01937
3562.03759,0.01992
3559.97742,0.02071
3557.91725,0.02153
3555.85707,0.02204
3553.79690,0.02243
3551.73673,0.02297
3549.67656,0.02341
3547.61639,0.02367
3545.55621,0.02411
3543.49604,0.02490
3541.43587,0.02574
3539.37570,0.02636
3537.31552,0.02685
3535.25535,0.02735
3533.19518,0.02789
3531.13501,0.02842
3529.07484,0.02885
3527.01466,0.02917
3524.95449,0.02967
3522.89432,0.03059
3520.83415,0.03159
3518.77398,0.03229
3516.71380,0.03281
3514.65363,0.03333
3512.59346,0.03388
3510.53329,0.03449
3508.47312,0.03507
3506.41294,0.03544
3504.35277,0.03561
3502.29260,0.03571
3500.23243,0.03601
3498.17225,0.03655
3496.11208,0.03723
3494.05191,0.03801
3491.99174,0.03881
3489.93157,0.03960
3487.87139,0.04039
3485.81122,0.04108
3483.75105,0.04162
3481.69088,0.04210
3479.63071,0.04255
3477.57053,0.04295
3475.51036,0.04344
3473.45019,0.04401
3471.39002,0.04444
3469.32984,0.04492
3467.26967,0.04549
3465.20950,0.04605
3463.14933,0.04673
3461.08916,0.04742
3459.02898,0.04784
3456.96881,0.04812
3454.90864,0.04853
3452.84847,0.04927
3450.78830,0.05017
3448.72812,0.05083
3446.66795,0.05139
3444.60778,0.05205
3442.54761,0.05269
3440.48744,0.05322
3438.42726,0.05356
3436.36709,0.05386
3434.30692,0.05425
3432.24675,0.05460
3430.18657,0.05514
3428.12640,0.05594
3426.06623,0.05641
3424.00606,0.05641
3421.94589,0.05657
3419.88571,0.05708
3417.82554,0.05765
3415.76537,0.05815
3413.70520,0.05861
3411.64503,0.05909
3409.58485,0.05958
3407.52468,0.05993
3405.46451,0.06029
3403.40434,0.06089
3401.34416,0.06151
3399.28399,0.06185
3397.22382,0.06191
3395.16365,0.06213
3393.10348,0.06276
3391.04330,0.06331
3388.98313,0.06350
3386.92296,0.06372
3384.86279,0.06413
3382.80262,0.06460
3380.74244,0.06518
3378.68227,0.06581
3376.62210,0.06624
3374.56193,0.06649
3372.50176,0.06677
3370.44158,0.06707
3368.38141,0.06727
3366.32124,0.06745
3364.26107,0.06773
3362.20089,0.06804
3360.14072,0.06831
3358.08055,0.06855
3356.02038,0.06880
3353.96021,0.06921
3351.90003,0.06987
3349.83986,0.07038
3347.77969,0.07049
3345.71952,0.07056
3343.65935,0.07090
3341.59917,0.07130
3339.53900,0.07147
3337.47883,0.07154
3335.41866,0.07167
3333.35849,0.07183
3331.29831,0.07211
3329.23814,0.07252
3327.17797,0.07276
3325.11780,0.07277
3323.05762,0.07283
3320.99745,0.07315
3318.93728,0.07343
3316.87711,0.07346
3314.81694,0.07362
3312.75676,0.07390
3310.69659,0.07418
3308.63642,0.07450
3306.57625,0.07458
3304.51608,0.07447
3302.45590,0.07472
3300.39573,0.07518
3298.33556,0.07533
3296.27539,0.07536
3294.21521,0.07551
3292.15504,0.07564
3290.09487,0.07575
3288.03470,0.07595
3285.97453,0.07609
3283.91435,0.07615
3281.85418,0.07633
3279.79401,0.07654
3277.73384,0.07657
3275.67367,0.07642
3273.61349,0.07624
3271.55332,0.07623
3269.49315,0.07629
3267.43298,0.07623
3265.37281,0.07610
3263.31263,0.07601
3261.25246,0.07584
3259.19229,0.07550
3257.13212,0.07519
3255.07194,0.07503
3253.01177,0.07499
3250.95160,0.07497
3248.89143,0.07489
3246.83126,0.07479
3244.77108,0.07458
3242.71091,0.07416
3240.65074,0.07372
3238.59057,0.07335
3236.53040,0.07298
3234.47022,0.07261
3232.41005,0.07243
3230.34988,0.07240
3228.28971,0.07227
3226.22954,0.07202
3224.16936,0.07168
3222.10919,0.07136
3220.04902,0.07126
3217.98885,0.07131
3215.92867,0.07130
3213.86850,0.07111
3211.80833,0.07075
3209.74816,0.07041
3207.68799,0.07021
3205.62781,0.07009
3203.56764,0.06990
3201.50747,0.06952
3199.44730,0.06907
3197.38713,0.06877
3195.32695,0.06854
3193.26678,0.06835
3191.20661,0.06830
3189.14644,0.06815
3187.08626,0.06773
3185.02609,0.06732
3182.96592,0.06701
3180.90575,0.06659
3178.84558,0.06621
3176.78540,0.06602
3174.72523,0.06588
3172.66506,0.06565
3170.60489,0.06512
3168.54472,0.06435
3166.48454,0.06386
3164.42437,0.06373
3162.36420,0.06349
3160.30403,0.06318
3158.24386,0.06299
3156.18368,0.06281
3154.12351,0.06257
3152.06334,0.06212
3150.00317,0.06154
3147.94299,0.06115
3145.88282,0.06088
3143.82265,0.06055
3141.76248,0.06019
3139.70231,0.05988
3137.64213,0.05963
3135.58196,0.05931
3133.52179,0.05890
3131.46162,0.05847
3129.40145,0.05797
3127.34127,0.05750
3125.28110,0.05720
3123.22093,0.05697
3121.16076,0.05678
3119.10058,0.05668
3117.04041,0.05657
3114.98024,0.05628
3112.92007,0.05577
3110.85990,0.05522
3108.79972,0.05488
3106.73955,0.05467
3104.67938,0.05431
3102.61921,0.05390
3100.55904,0.05364
3098.49886,0.05337
3096.43869,0.05292
3094.37852,0.05256
3092.31835,0.05259
3090.25818,0.05283
3088.19800,0.05281
3086.13783,0.05239
3084.07766,0.05184
3082.01749,0.05140
3079.95731,0.05110
3077.89714,0.05088
3075.83697,0.05057
3073.77680,0.05018
3071.71663,0.04992
3069.65645,0.04980
3067.59628,0.04968
3065.53611,0.04939
3063.47594,0.04902
3061.41577,0.04870
3059.35559,0.04830
3057.29542,0.04776
3055.23525,0.04734
3053.17508,0.04707
3051.11491,0.04668
3049.05473,0.04619
3046.99456,0.04578
3044.93439,0.04544
3042.87422,0.04520
3040.81404,0.04501
3038.75387,0.04480
3036.69370,0.04453
3034.63353,0.04411
3032.57336,0.04363
3030.51318,0.04329
3028.45301,0.04289
3026.39284,0.04239
3024.33267,0.04203
3022.27250,0.04192
3020.21232,0.04199
3018.15215,0.04192
3016.09198,0.04165
3014.03181,0.04155
3011.97163,0.04149
3009.91146,0.04123
3007.85129,0.04085
3005.79112,0.04039
3003.73095,0.03992
3001.67077,0.03958
2999.61060,0.03942
2997.55043,0.03928
2995.49026,0.03902
2993.43009,0.03890
2991.36991,0.03899
2989.30974,0.03903
2987.24957,0.03905
2985.18940,0.03937
2983.12923,0.04001
2981.06905,0.04052
2979.00888,0.04093
2976.94871,0.04155
2974.88854,0.04227
2972.82836,0.04298
2970.76819,0.04383
2968.70802,0.04485
2966.64785,0.04610
2964.58768,0.04743
2962.52750,0.04869
2960.46733,0.05011
2958.40716,0.05171
2956.34699,0.05321
2954.28682,0.05460
2952.22664,0.05596
2950.16647,0.05719
2948.10630,0.05847
2946.04613,0.06015
2943.98596,0.06232
2941.92578,0.06483
2939.86561,0.06760
2937.80544,0.07069
2935.74527,0.07403
2933.68509,0.07745
2931.62492,0.08069
2929.56475,0.08368
2927.50458,0.08665
2925.44441,0.08967
2923.38423,0.09249
2921.32406,0.09489
2919.26389,0.09664
2917.20372,0.09671
2915.14355,0.09389
2913.08337,0.08875
2911.02320,0.08330
2908.96303,0.07880
2906.90286,0.07529
2904.84268,0.07252
2902.78251,0.07020
2900.72234,0.06808
2898.66217,0.06623
2896.60200,0.06479
2894.54182,0.06349
2892.48165,0.06203
2890.42148,0.06054
2888.36131,0.05915
2886.30114,0.05788
2884.24096,0.05684
2882.18079,0.05603
2880.12062,0.05533
2878.06045,0.05478
2876.00028,0.05458
2873.94010,0.05471
2871.87993,0.05491
2869.81976,0.05515
2867.75959,0.05569
2865.69941,0.05672
2863.63924,0.05820
2861.57907,0.06020
2859.51890,0.06289
2857.45873,0.06601
2855.39855,0.06925
2853.33838,0.07270
2851.27821,0.07575
2849.21804,0.07626
2847.15787,0.07242
2845.09769,0.06570
2843.03752,0.05907
2840.97735,0.05382
2838.91718,0.05007
2836.85700,0.04770
2834.79683,0.04605
2832.73666,0.04458
2830.67649,0.04320
2828.61632,0.04201
2826.55614,0.04114
2824.49597,0.04052
2822.43580,0.03996
2820.37563,0.03931
2818.31546,0.03866
2816.25528,0.03804
2814.19511,0.03748
2812.13494,0.03712
2810.07477,0.03688
2808.01460,0.03650
2805.95442,0.03600
2803.89425,0.03553
2801.83408,0.03518
2799.77391,0.03493
2797.71373,0.03458
2795.65356,0.03414
2793.59339,0.03389
2791.53322,0.03389
2789.47305,0.03376
2787.41287,0.03341
2785.35270,0.03306
2783.29253,0.03282
2781.23236,0.03264
2779.17219,0.03243
2777.11201,0.03216
2775.05184,0.03190
2772.99167,0.03166
2770.93150,0.03142
2768.87133,0.03118
2766.81115,0.03103
2764.75098,0.03095
2762.69081,0.03087
2760.63064,0.03082
2758.57046,0.03076
2756.51029,0.03072
2754.45012,0.03058
2752.38995,0.03034
2750.32978,0.03024
2748.26960,0.03020
2746.20943,0.03000
2744.14926,0.02980
2742.08909,0.02976
2740.02892,0.02975
2737.96874,0.02966
2735.90857,0.02950
2733.84840,0.02931
2731.78823,0.02919
2729.72805,0.02915
2727.66788,0.02917
2725.60771,0.02917
2723.54754,0.02900
2721.48737,0.02869
2719.42719,0.02848
2717.36702,0.02840
2715.30685,0.02826
2713.24668,0.02806
2711.18651,0.02799
2709.12633,0.02802
2707.06616,0.02803
2705.00599,0.02798
2702.94582,0.02786
2700.88565,0.02768
2698.82547,0.02751
2696.76530,0.02750
2694.70513,0.02754
2692.64496,0.02735
2690.58478,0.02706
2688.52461,0.02696
2686.46444,0.02696
2684.40427,0.02694
2682.34410,0.02687
2680.28392,0.02672
2678.22375,0.02652
2676.16358,0.02637
2674.10341,0.02631
2672.04324,0.02622
2669.98306,0.02598
2667.92289,0.02567
2665.86272,0.02552
2663.80255,0.02557
2661.74238,0.02561
2659.68220,0.02546
2657.62203,0.02532
2655.56186,0.02522
2653.50169,0.02493
2651.44151,0.02465
2649.38134,0.02461
2647.32117,0.02463
2645.26100,0.02451
2643.20083,0.02433
2641.14065,0.02412
2639.08048,0.02379
2637.02031,0.02357
2634.96014,0.02362
2632.89997,0.02341
2630.83979,0.02290
2628.77962,0.02269
2626.71945,0.02275
2624.65928,0.02274
2622.59910,0.02273
2620.53893,0.02262
2618.47876,0.02234
2616.41859,0.02212
2614.35842,0.02196
2612.29824,0.02176
2610.23807,0.02149
2608.17790,0.02133
2606.11773,0.02136
2604.05756,0.02146
2601.99738,0.02151
2599.93721,0.02144
2597.87704,0.02128
2595.81687,0.02106
2593.75670,0.02076
2591.69652,0.02042
2589.63635,0.02021
2587.57618,0.02017
2585.51601,0.02015
2583.45583,0.02008
2581.39566,0.02007
2579.33549,0.02006
2577.27532,0.01989
2575.21515,0.01966
2573.15497,0.01937
2571.09480,0.01922
2569.03463,0.01934
2566.97446,0.01936
2564.91429,0.01904
2562.85411,0.01875
2560.79394,0.01890
2558.73377,0.01911
2556.67360,0.01890
2554.61342,0.01859
2552.55325,0.01846
2550.49308,0.01829
2548.43291,0.01801
2546.37274,0.01795
2544.31256,0.01813
2542.25239,0.01817
2540.19222,0.01792
2538.13205,0.01747
2536.07188,0.01723
2534.01170,0.01741
2531.95153,0.01762
2529.89136,0.01755
2527.83119,0.01731
2525.77102,0.01700
2523.71084,0.01665
2521.65067,0.01651
2519.59050,0.01658
2517.53033,0.01662
2515.47015,0.01654
2513.40998,0.01635
2511.34981,0.01616
2509.28964,0.01608
2507.22947,0.01606
2505.16929,0.01593
2503.10912,0.01581
2501.04895,0.01585
2498.98878,0.01587
2496.92861,0.01576
2494.86843,0.01552
2492.80826,0.01541
2490.74809,0.01560
2488.68792,0.01559
2486.62775,0.01507
2484.56757,0.01449
2482.50740,0.01447
2480.44723,0.01483
2478.38706,0.01490
2476.32688,0.01478
2474.26671,0.01471
2472.20654,0.01462
2470.14637,0.01456
2468.08620,0.01438
2466.02602,0.01412
2463.96585,0.01411
2461.90568,0.01419
2459.84551,0.01421
2457.78534,0.01418
2455.72516,0.01417
2453.66499,0.01424
2451.60482,0.01410
2449.54465,0.01383
2447.48447,0.01370
2445.42430,0.01360
2443.36413,0.01337
2441.30396,0.01308
2439.24379,0.01295
2437.18361,0.01305
2435.12344,0.01340
2433.06327,0.01360
2431.00310,0.01346
2428.94293,0.01325
2426.88275,0.01302
2424.82258,0.01277
2422.76241,0.01261
2420.70224,0.01268
2418.64207,0.01292
2416.58189,0.01305
2414.52172,0.01300
2412.46155,0.01273
2410.40138,0.01219
2408.34120,0.01167
2406.28103,0.01132
2404.22086,0.01122
2402.16069,0.01142
2400.10052,0.01177
2398.04034,0.01203
2395.98017,0.01192
2393.92000,0.01156
2391.85983,0.01125
2389.79966,0.01103
2387.73948,0.01088
2385.67931,0.01084
2383.61914,0.01095
2381.55897,0.01114
2379.49880,0.01119
2377.43862,0.01088
2375.37845,0.01079
2373.31828,0.01102
2371.25811,0.01150
2369.19793,0.01249
2367.13776,0.01245
2365.07759,0.01023
2363.01742,0.00831
2360.95725,0.00701
2358.89707,0.00882
2356.83690,0.01084
2354.77673,0.01202
2352.71656,0.01257
2350.65639,0.00976
2348.59621,0.00813
2346.53604,0.01250
2344.47587,0.01315
2342.41570,0.01160
2340.35552,0.01063
2338.29535,0.01053
2336.23518,0.01151
2334.17501,0.01187
2332.11484,0.01160
2330.05466,0.01128
2327.99449,0.01215
2325.93432,0.01286
2323.87415,0.01364
2321.81398,0.01320
2319.75380,0.01230
2317.69363,0.01074
2315.63346,0.01027
2313.57329,0.01056
2311.51312,0.01056
2309.45294,0.01036
2307.39277,0.01027
2305.33260,0.01042
2303.27243,0.01065
2301.21225,0.01091
2299.15208,0.01078
2297.09191,0.01055
2295.03174,0.01049
2292.97157,0.01044
2290.91139,0.01048
2288.85122,0.01072
2286.79105,0.01079
2284.73088,0.01043
2282.67071,0.00993
2280.61053,0.00967
2278.55036,0.00948
2276.49019,0.00927
2274.43002,0.00939
2272.36984,0.00982
2270.30967,0.00991
2268.24950,0.00966
2266.18933,0.00945
2264.12916,0.00926
2262.06898,0.00919
2260.00881,0.00912
2257.94864,0.00858
2255.88847,0.00792
2253.82830,0.00738
2251.76812,0.00702
2249.70795,0.00717
2247.64778,0.00773
2245.58761,0.00812
2243.52744,0.00766
2241.46726,0.00686
2239.40709,0.00684
2237.34692,0.00738
2235.28675,0.00782
2233.22657,0.00796
2231.16640,0.00757
2229.10623,0.00697
2227.04606,0.00680
2224.98589,0.00683
2222.92571,0.00675
2220.86554,0.00634
2218.80537,0.00548
2216.74520,0.00531
2214.68503,0.00620
2212.62485,0.00655
2210.56468,0.00641
2208.50451,0.00684
2206.44434,0.00731
2204.38417,0.00697
2202.32399,0.00610
2200.26382,0.00545
2198.20365,0.00520
2196.14348,0.00547
2194.08330,0.00611
2192.02313,0.00680
2189.96296,0.00674
2187.90279,0.00583
2185.84262,0.00560
2183.78244,0.00608
2181.72227,0.00585
2179.66210,0.00532
2177.60193,0.00560
2175.54176,0.00581
2173.48158,0.00541
2171.42141,0.00557
2169.36124,0.00622
2167.30107,0.00567
2165.24089,0.00436
2163.18072,0.00342
2161.12055,0.00227
2159.06038,0.00176
2157.00021,0.00254
2154.94003,0.00349
2152.87986,0.00408
2150.81969,0.00463
2148.75952,0.00476
2146.69935,0.00415
2144.63917,0.00345
2142.57900,0.00319
2140.51883,0.00327
2138.45866,0.00327
2136.39849,0.00351
2134.33831,0.00380
2132.27814,0.00420
2130.21797,0.00508
2128.15780,0.00567
2126.09762,0.00578
2124.03745,0.00594
2121.97728,0.00602
2119.91711,0.00602
2117.85694,0.00607
2115.79676,0.00628
2113.73659,0.00684
2111.67642,0.00711
2109.61625,0.00674
2107.55608,0.00656
2105.49590,0.00661
2103.43573,0.00636
2101.37556,0.00593
2099.31539,0.00543
2097.25521,0.00506
2095.19504,0.00519
2093.13487,0.00551
2091.07470,0.00542
2089.01453,0.00514
2086.95435,0.00537
2084.89418,0.00600
2082.83401,0.00623
2080.77384,0.00588
2078.71367,0.00552
2076.65349,0.00536
2074.59332,0.00518
2072.53315,0.00504
2070.47298,0.00515
2068.41281,0.00549
2066.35263,0.00587
2064.29246,0.00599
2062.23229,0.00522
2060.17212,0.00427
2058.11194,0.00472
2056.05177,0.00585
2053.99160,0.00640
2051.93143,0.00691
2049.87126,0.00713
2047.81108,0.00616
2045.75091,0.00486
2043.69074,0.00415
2041.63057,0.00383
2039.57040,0.00350
2037.51022,0.00330
2035.45005,0.00338
2033.38988,0.00328
2031.32971,0.00261
2029.26954,0.00158
2027.20936,0.00162
2025.14919,0.00308
2023.08902,0.00411
2021.02885,0.00381
2018.96867,0.00292
2016.90850,0.00260
2014.84833,0.00283
2012.78816,0.00297
2010.72799,0.00345
2008.66781,0.00393
2006.60764,0.00393
2004.54747,0.00405
2002.48730,0.00432
2000.42713,0.00452
1998.36695,0.00438
1996.30678,0.00345
1994.24661,0.00238
1992.18644,0.00236
1990.12626,0.00307
1988.06609,0.00361
1986.00592,0.00414
1983.94575,0.00486
1981.88558,0.00499
1979.82540,0.00388
1977.76523,0.00253
1975.70506,0.00202
1973.64489,0.00210
1971.58472,0.00238
1969.52454,0.00281
1967.46437,0.00370
1965.40420,0.00405
1963.34403,0.00280
1961.28386,0.00163
1959.22368,0.00200
1957.16351,0.00303
1955.10334,0.00347
1953.04317,0.00346
1950.98299,0.00349
1948.92282,0.00328
1946.86265,0.00281
1944.80248,0.00277
1942.74231,0.00324
1940.68213,0.00359
1938.62196,0.00350
1936.56179,0.00314
1934.50162,0.00272
1932.44145,0.00266
1930.38127,0.00288
1928.32110,0.00287
1926.26093,0.00295
1924.20076,0.00352
1922.14059,0.00399
1920.08041,0.00383
1918.02024,0.00339
1915.96007,0.00333
1913.89990,0.00361
1911.83972,0.00395
1909.77955,0.00428
1907.71938,0.00450
1905.65921,0.00439
1903.59904,0.00382
1901.53886,0.00313
1899.47869,0.00289
1897.41852,0.00324
1895.35835,0.00381
1893.29818,0.00405
1891.23800,0.00379
1889.17783,0.00326
1887.11766,0.00287
1885.05749,0.00286
1882.99731,0.00310
1880.93714,0.00325
1878.87697,0.00304
1876.81680,0.00269
1874.75663,0.00266
1872.69645,0.00286
1870.63628,0.00281
1868.57611,0.00246
1866.51594,0.00230
1864.45577,0.00239
1862.39559,0.00243
1860.33542,0.00243
1858.27525,0.00244
1856.21508,0.00240
1854.15491,0.00241
1852.09473,0.00264
1850.03456,0.00291
1847.97439,0.00292
1845.91422,0.00267
1843.85404,0.00233
1841.79387,0.00219
1839.73370,0.00228
1837.67353,0.00248
1835.61336,0.00260
1833.55318,0.00255
1831.49301,0.00240
1829.43284,0.00219
1827.37267,0.00189
1825.31250,0.00174
1823.25232,0.00181
1821.19215,0.00185
1819.13198,0.00171
1817.07181,0.00160
1815.01163,0.00157
1812.95146,0.00147
1810.89129,0.00133
1808.83112,0.00141
1806.77095,0.00169
1804.71077,0.00182
1802.65060,0.00174
1800.59043,0.00170
1798.53026,0.00177
1796.47009,0.00175
1794.40991,0.00168
1792.34974,0.00176
1790.28957,0.00190
1788.22940,0.00195
1786.16923,0.00191
1784.10905,0.00179
1782.04888,0.00178
1779.98871,0.00185
1777.92854,0.00180
1775.86836,0.00157
1773.80819,0.00149
1771.74802,0.00173
1769.68785,0.00205
1767.62768,0.00236
1765.56750,0.00274
1763.50733,0.00322
1761.44716,0.00393
1759.38699,0.00479
1757.32682,0.00580
1755.26664,0.00695
1753.20647,0.00815
1751.14630,0.00967
1749.08613,0.01179
1747.02596,0.01445
1744.96578,0.01765
1742.90561,0.02147
1740.84544,0.02599
1738.78527,0.03079
1736.72509,0.03496
1734.66492,0.03888
1732.60475,0.04239
1730.54458,0.04410
1728.48441,0.04454
1726.42423,0.04454
1724.36406,0.04423
1722.30389,0.04377
1720.24372,0.04334
1718.18355,0.04313
1716.12337,0.04343
1714.06320,0.04404
1712.00303,0.04440
1709.94286,0.04422
1707.88268,0.04352
1705.82251,0.04256
1703.76234,0.04167
1701.70217,0.04093
1699.64200,0.04025
1697.58182,0.03974
1695.52165,0.03961
1693.46148,0.03964
1691.40131,0.03949
1689.34114,0.03929
1687.28096,0.03902
1685.22079,0.03867
1683.16062,0.03882
1681.10045,0.03945
1679.04028,0.03994
1676.98010,0.04030
1674.91993,0.04094
1672.85976,0.04196
1670.79959,0.04334
1668.73941,0.04509
1666.67924,0.04663
1664.61907,0.04798
1662.55890,0.04983
1660.49873,0.05206
1658.43855,0.05378
1656.37838,0.05479
1654.31821,0.05586
1652.25804,0.05757
1650.19787,0.05847
1648.13769,0.05865
1646.07752,0.05932
1644.01735,0.06028
1641.95718,0.06089
1639.89701,0.06110
1637.83683,0.06137
1635.77666,0.06244
1633.71649,0.06398
1631.65632,0.06495
1629.59614,0.06559
1627.53597,0.06631
1625.47580,0.06700
1623.41563,0.06760
1621.35546,0.06808
1619.29528,0.06827
1617.23511,0.06853
1615.17494,0.06916
1613.11477,0.06968
1611.05460,0.06975
1608.99442,0.06960
1606.93425,0.06940
1604.87408,0.06900
1602.81391,0.06822
1600.75373,0.06706
1598.69356,0.06555
1596.63339,0.06367
1594.57322,0.06147
1592.51305,0.05915
1590.45287,0.05693
1588.39270,0.05476
1586.33253,0.05253
1584.27236,0.05024
1582.21219,0.04804
1580.15201,0.04604
1578.09184,0.04407
1576.03167,0.04197
1573.97150,0.04023
1571.91133,0.03901
1569.85115,0.03796
1567.79098,0.03704
1565.73081,0.03640
1563.67064,0.03583
1561.61046,0.03516
1559.55029,0.03481
1557.49012,0.03547
1555.42995,0.03625
1553.36978,0.03666
1551.30960,0.03701
1549.24943,0.03737
1547.18926,0.03752
1545.12909,0.03731
1543.06892,0.03693
1541.00874,0.03682
1538.94857,0.03720
1536.88840,0.03731
1534.82823,0.03686
1532.76805,0.03617
1530.70788,0.03547
1528.64771,0.03454
1526.58754,0.03322
1524.52737,0.03184
1522.46719,0.03100
1520.40702,0.03107
1518.34685,0.03154
1516.28668,0.03172
1514.22651,0.03134
1512.16633,0.03018
1510.10616,0.02809
1508.04599,0.02533
1505.98582,0.02300
1503.92565,0.02177
1501.86547,0.02080
1499.80530,0.01953
1497.74513,0.01788
1495.68496,0.01601
1493.62478,0.01430
1491.56461,0.01278
1489.50444,0.01141
1487.44427,0.01045
1485.38410,0.00997
1483.32392,0.00985
1481.26375,0.01009
1479.20358,0.01070
1477.14341,0.01178
1475.08324,0.01393
1473.02306,0.01766
1470.96289,0.02186
1468.90272,0.02514
1466.84255,0.02803
1464.78238,0.03107
1462.72220,0.03333
1460.66203,0.03435
1458.60186,0.03537
1456.54169,0.03757
1454.48151,0.03985
1452.42134,0.04124
1450.36117,0.04223
1448.30100,0.04327
1446.24083,0.04424
1444.18065,0.04475
1442.12048,0.04470
1440.06031,0.04411
1438.00014,0.04289
1435.93997,0.04122
1433.87979,0.03958
1431.81962,0.03804
1429.75945,0.03650
1427.69928,0.03522
1425.63910,0.03436
1423.57893,0.03380
1421.51876,0.03346
1419.45859,0.03352
1417.39842,0.03392
1415.33824,0.03409
1413.27807,0.03395
1411.21790,0.03372
1409.15773,0.03342
1407.09756,0.03318
1405.03738,0.03314
1402.97721,0.03322
1400.91704,0.03329
1398.85687,0.03347
1396.79670,0.03384
1394.73652,0.03427
1392.67635,0.03468
1390.61618,0.03509
1388.55601,0.03562
1386.49583,0.03640
1384.43566,0.03731
1382.37549,0.03826
1380.31532,0.03931
1378.25515,0.04035
1376.19497,0.04124
1374.13480,0.04201
1372.07463,0.04267
1370.01446,0.04317
1367.95429,0.04348
1365.89411,0.04351
1363.83394,0.04332
1361.77377,0.04320
1359.71360,0.04321
1357.65343,0.04333
1355.59325,0.04362
1353.53308,0.04402
1351.47291,0.04439
1349.41274,0.04472
1347.35256,0.04505
1345.29239,0.04538
1343.23222,0.04569
1341.17205,0.04605
1339.11188,0.04654
1337.05170,0.04704
1334.99153,0.04747
1332.93136,0.04801
1330.87119,0.04886
1328.81102,0.04990
1326.75084,0.05079
1324.69067,0.05138
1322.63050,0.05178
1320.57033,0.05215
1318.51015,0.05240
1316.44998,0.05240
1314.38981,0.05215
1312.32964,0.05171
1310.26947,0.05096
1308.20929,0.04971
1306.14912,0.04795
1304.08895,0.04583
1302.02878,0.04348
1299.96861,0.04118
1297.90843,0.03910
1295.84826,0.03709
1293.78809,0.03525
1291.72792,0.03384
1289.66775,0.03282
1287.60757,0.03213
1285.54740,0.03167
1283.48723,0.03131
1281.42706,0.03096
1279.36688,0.03063
1277.30671,0.03048
1275.24654,0.03057
1273.18637,0.03091
1271.12620,0.03151
1269.06602,0.03232
1267.00585,0.03316
1264.94568,0.03388
1262.88551,0.03461
1260.82534,0.03540
1258.76516,0.03620
1256.70499,0.03699
1254.64482,0.03780
1252.58465,0.03865
1250.52447,0.03955
1248.46430,0.04043
1246.40413,0.04117
1244.34396,0.04200
1242.28379,0.04304
1240.22361,0.04413
1238.16344,0.04515
1236.10327,0.04614
1234.04310,0.04713
1231.98293,0.04802
1229.92275,0.04880
1227.86258,0.04962
1225.80241,0.05052
1223.74224,0.05140
1221.68207,0.05219
1219.62189,0.05301
1217.56172,0.05388
1215.50155,0.05466
1213.44138,0.05536
1211.38120,0.05615
1209.32103,0.05708
1207.26086,0.05810
1205.20069,0.05913
1203.14052,0.05998
1201.08034,0.06072
1199.02017,0.06136
1196.96000,0.06160
1194.89983,0.06153
1192.83966,0.06127
1190.77948,0.06052
1188.71931,0.05937
1186.65914,0.05815
1184.59897,0.05707
1182.53880,0.05621
1180.47862,0.05557
1178.41845,0.05509
1176.35828,0.05467
1174.29811,0.05441
1172.23793,0.05443
1170.17776,0.05454
1168.11759,0.05459
1166.05742,0.05449
1163.99725,0.05415
1161.93707,0.05365
1159.87690,0.05302
1157.81673,0.05226
1155.75656,0.05149
1153.69639,0.05066
1151.63621,0.04975
1149.57604,0.04883
1147.51587,0.04780
1145.45570,0.04662
1143.39552,0.04538
1141.33535,0.04413
1139.27518,0.04292
1137.21501,0.04188
1135.15484,0.04107
1133.09466,0.04057
1131.03449,0.04053
1128.97432,0.04107
1126.91415,0.04216
1124.85398,0.04357
1122.79380,0.04518
1120.73363,0.04704
1118.67346,0.04927
1116.61329,0.05202
1114.55312,0.05531
1112.49294,0.05880
1110.43277,0.06226
1108.37260,0.06584
1106.31243,0.06946
1104.25225,0.07252
1102.19208,0.07480
1100.13191,0.07670
1098.07174,0.07847
1096.01157,0.08008
1093.95139,0.08166
1091.89122,0.08341
1089.83105,0.08543
1087.77088,0.08779
1085.71071,0.09060
1083.65053,0.09371
1081.59036,0.09681
1079.53019,0.09964
1077.47002,0.10198
1075.40985,0.10407
1073.34967,0.10616
1071.28950,0.10807
1069.22933,0.10956
1067.16916,0.11083
1065.10898,0.11236
1063.04881,0.11409
1060.98864,0.11564
1058.92847,0.11714
1056.86830,0.11894
1054.80812,0.12094
1052.74795,0.12290
1050.68778,0.12468
1048.62761,0.12647
1046.56744,0.12836
1044.50726,0.13016
1042.44709,0.13184
1040.38692,0.13378
1038.32675,0.13637
1036.26657,0.13939
1034.20640,0.14223
1032.14623,0.14461
1030.08606,0.14637
1028.02589,0.14755
1025.96571,0.14823
1023.90554,0.14843
1021.84537,0.14842
1019.78520,0.14830
1017.72503,0.14788
1015.66485,0.14714
1013.60468,0.14612
1011.54451,0.14451
1009.48434,0.14222
1007.42417,0.13932
1005.36399,0.13594
1003.30382,0.13253
1001.24365,0.12918
999.18348,0.12557
997.12330,0.12201
995.06313,0.11876
993.00296,0.11541
990.94279,0.11192
988.88262,0.10828
986.82244,0.10428
984.76227,0.10005
982.70210,0.09586
980.64193,0.09205
978.58176,0.08859
976.52158,0.08517
974.46141,0.08179
972.40124,0.07859
970.34107,0.07564
968.28089,0.07304
966.22072,0.07091
964.16055,0.06912
962.10038,0.06707
960.04021,0.06460
957.98003,0.06195
955.91986,0.05911
953.85969,0.05619
951.79952,0.05347
949.73935,0.05077
947.67917,0.04795
945.61900,0.04514
943.55883,0.04240
941.49866,0.04004
939.43849,0.03847
937.37831,0.03758
935.31814,0.03693
933.25797,0.03600
931.19780,0.03487
929.13762,0.03381
927.07745,0.03279
925.01728,0.03185
922.95711,0.03090
920.89694,0.02970
918.83676,0.02830
916.77659,0.02688
914.71642,0.02542
912.65625,0.02376
910.59608,0.02196
908.53590,0.02027
906.47573,0.01902
904.41556,0.01817
902.35539,0.01741
900.29522,0.01665
898.23504,0.01616
896.17487,0.01591
894.11470,0.01570
892.05453,0.01549
889.99435,0.01528
887.93418,0.01499
885.87401,0.01460
883.81384,0.01429
881.75367,0.01420
879.69349,0.01419
877.63332,0.01413
875.57315,0.01429
873.51298,0.01476
871.45281,0.01509
869.39263,0.01511
867.33246,0.01470
865.27229,0.01345
863.21212,0.01168
861.15194,0.01011
859.09177,0.00869
857.03160,0.00709
854.97143,0.00551
852.91126,0.00425
850.85108,0.00354
848.79091,0.00328
846.73074,0.00291
844.67057,0.00255
842.61040,0.00243
840.55022,0.00264
838.49005,0.00320
836.42988,0.00394
834.36971,0.00480
832.30954,0.00550
830.24936,0.00560
828.18919,0.00549
826.12902,0.00565
824.06885,0.00607
822.00867,0.00652
819.94850,0.00698
817.88833,0.00730
815.82816,0.00716
813.76799,0.00685
811.70781,0.00649
809.64764,0.00577
807.58747,0.00472
805.52730,0.00391
803.46713,0.00362
801.40695,0.00338
799.34678,0.00299
797.28661,0.00259
795.22644,0.00187
793.16627,0.00154
791.10609,0.00173
789.04592,0.00242
786.98575,0.00333
784.92558,0.00411
782.86540,0.00492
780.80523,0.00575
778.74506,0.00618
776.68489,0.00634
774.62472,0.00647
772.56454,0.00709
770.50437,0.00869
768.44420,0.01040
766.38403,0.01172
764.32386,0.01340
762.26368,0.01540
760.20351,0.01694
758.14334,0.01750
756.08317,0.01712
754.02299,0.01646
751.96282,0.01573
749.90265,0.01429
747.84248,0.01215
745.78231,0.01058
743.72213,0.01002
741.66196,0.00958
739.60179,0.00895
737.54162,0.00837
735.48145,0.00754
733.42127,0.00693
731.36110,0.00716
729.30093,0.00756
727.24076,0.00790
725.18059,0.00814
723.12041,0.00789
721.06024,0.00862
719.00007,0.00882
716.93990,0.00819
714.87972,0.00733
712.81955,0.00683
710.75938,0.00689
708.69921,0.00682
706.63904,0.00631
704.57886,0.00574
702.51869,0.00555
700.45852,0.00573
698.39835,0.00599
696.33818,0.00592
694.27800,0.00536
692.21783,0.00462
690.15766,0.00383
688.09749,0.00299
686.03731,0.00221
683.97714,0.00183
681.91697,0.00233
679.85680,0.00330
677.79663,0.00383
675.73645,0.00376
673.67628,0.00249
671.61611,0.00059
669.55594,0.00559
667.49577,0.01040
665.43559,0.00170
663.37542,0.00231
661.31525,0.00399
659.25508,0.00324
657.19491,0.00261
655.13473,0.00311
653.07456,0.00344
651.01439,0.00286
648.95422,0.00203
646.89404,0.00114
644.83387,0.00160
642.77370,0.00322
640.71353,0.00440
638.65336,0.00410
636.59318,0.00326
634.53301,0.00241
632.47284,0.00183
630.41267,0.00277
628.35250,0.00456
626.29232,0.00443
624.23215,0.00315
622.17198,0.00351
620.11181,0.00433
618.05164,0.00454
615.99146,0.00526
613.93129,0.00616
611.87112,0.00621
609.81095,0.00583
607.75077,0.00530
605.69060,0.00314
603.63043,0.00051
601.57026,0.00000
599.51009,0.00000
