3996.73391,0.00002
3994.67373,0.00013
3992.61356,0.00019
3990.55339,0.00016
3988.49322,0.00010
3986.43305,0.00002
3984.37287,0.00000
3982.31270,0.00014
3980.25253,0.00027
3978.19236,0.00029
3976.13219,0.00033
3974.07201,0.00041
3972.01184,0.00050
3969.95167,0.00051
3967.89150,0.00044
3965.83133,0.00035
3963.77115,0.00025
3961.71098,0.00014
3959.65081,0.00008
3957.59064,0.00006
3955.53046,0.00005
3953.47029,0.00013
3951.41012,0.00024
3949.34995,0.00027
3947.28978,0.00020
3945.22960,0.00018
3943.16943,0.00034
3941.10926,0.00053
3939.04909,0.00058
3936.98892,0.00061
3934.92874,0.00062
3932.86857,0.00050
3930.80840,0.00035
3928.74823,0.00038
3926.68805,0.00057
3924.62788,0.00066
3922.56771,0.00051
3920.50754,0.00030
3918.44737,0.00032
3916.38719,0.00049
3914.32702,0.00058
3912.26685,0.00059
3910.20668,0.00056
3908.14651,0.00051
3906.08633,0.00050
3904.02616,0.00054
3901.96599,0.00065
3899.90582,0.00077
3897.84565,0.00090
3895.78547,0.00100
3893.72530,0.00097
3891.66513,0.00093
3889.60496,0.00090
3887.54478,0.00081
3885.48461,0.00079
3883.42444,0.00074
3881.36427,0.00064
3879.30410,0.00069
3877.24392,0.00071
3875.18375,0.00054
3873.12358,0.00046
3871.06341,0.00067
3869.00324,0.00084
3866.94306,0.00069
3864.88289,0.00058
3862.82272,0.00081
3860.76255,0.00093
3858.70237,0.00065
3856.64220,0.00029
3854.58203,0.00029
3852.52186,0.00057
3850.46169,0.00051
3848.40151,0.00025
3846.34134,0.00008
3844.28117,0.00006
3842.22100,0.00030
3840.16083,0.00071
3838.10065,0.00093
3836.04048,0.00097
3833.98031,0.00093
3831.92014,0.00075
3829.85997,0.00061
3827.79979,0.00066
3825.73962,0.00070
3823.67945,0.00059
3821.61928,0.00043
3819.55910,0.00030
3817.49893,0.00030
3815.43876,0.00055
3813.37859,0.00070
3811.31842,0.00045
3809.25824,0.00014
3807.19807,0.00023
3805.13790,0.00070
3803.07773,0.00124
3801.01756,0.00157
3798.95738,0.00134
3796.89721,0.00086
3794.83704,0.00066
3792.77687,0.00080
3790.71670,0.00092
3788.65652,0.00082
3786.59635,0.00059
3784.53618,0.00044
3782.47601,0.00048
3780.41583,0.00064
3778.35566,0.00071
3776.29549,0.00056
3774.23532,0.00034
3772.17515,0.00038
3770.11497,0.00065
3768.05480,0.00071
3765.99463,0.00051
3763.93446,0.00035
3761.87429,0.00028
3759.81411,0.00020
3757.75394,0.00015
3755.69377,0.00021
3753.63360,0.00034
3751.57342,0.00041
3749.51325,0.00051
3747.45308,0.00071
3745.39291,0.00075
3743.33274,0.00060
3741.27256,0.00062
3739.21239,0.00090
3737.15222,0.00102
3735.09205,0.00077
3733.03188,0.00048
3730.97170,0.00043
3728.91153,0.00050
3726.85136,0.00073
3724.79119,0.00093
3722.73102,0.00064
3720.67084,0.00026
3718.61067,0.00019
3716.55050,0.00041
3714.49033,0.00044
3712.43015,0.00010
3710.36998,0.00007
3708.30981,0.00025
3706.24964,0.00026
3704.18947,0.00018
3702.12929,0.00032
3700.06912,0.00048
3698.00895,0.00054
3695.94878,0.00076
3693.88861,0.00096
3691.82843,0.00098
3689.76826,0.00077
3687.70809,0.00047
3685.64792,0.00020
3683.58775,0.00022
3681.52757,0.00047
3679.46740,0.00080
3677.40723,0.00092
3675.34706,0.00080
3673.28688,0.00078
3671.22671,0.00103
3669.16654,0.00123
3667.10637,0.00123
3665.04620,0.00116
3662.98602,0.00104
3660.92585,0.00093
3658.86568,0.00104
3656.80551,0.00134
3654.74534,0.00149
3652.68516,0.00142
3650.62499,0.00174
3648.56482,0.00260
3646.50465,0.00299
3644.44447,0.00280
3642.38430,0.00268
3640.32413,0.00263
3638.26396,0.00247
3636.20379,0.00253
3634.14361,0.00300
3632.08344,0.00373
3630.02327,0.00449
3627.96310,0.00483
3625.90293,0.00443
3623.84275,0.00414
3621.78258,0.00427
3619.72241,0.00450
3617.66224,0.00462
3615.60207,0.00473
3613.54189,0.00483
3611.48172,0.00460
3609.42155,0.00439
3607.36138,0.00469
3605.30120,0.00523
3603.24103,0.00560
3601.18086,0.00568
3599.12069,0.00579
3597.06052,0.00598
3595.00034,0.00612
3592.94017,0.00618
3590.88000,0.00643
3588.81983,0.00680
3586.75966,0.00727
3584.69948,0.00767
3582.63931,0.00780
3580.57914,0.00770
3578.51897,0.00775
3576.45879,0.00818
3574.39862,0.00867
3572.33845,0.00892
3570.27828,0.00909
3568.21811,0.00934
3566.15793,0.00966
3564.09776,0.01004
3562.03759,0.01050
3559.97742,0.01084
3557.91725,0.01105
3555.85707,0.01139
3553.79690,0.01180
3551.73673,0.01207
3549.67656,0.01234
3547.61639,0.01274
3545.55621,0.01309
3543.49604,0.01331
3541.43587,0.01353
3539.37570,0.01381
3537.31552,0.01411
3535.25535,0.01429
3533.19518,0.01454
3531.13501,0.01504
3529.07484,0.01556
3527.01466,0.01589
3524.95449,0.01616
3522.89432,0.01645
3520.83415,0.01670
3518.77398,0.01690
3516.71380,0.01703
3514.65363,0.01724
3512.59346,0.01768
3510.53329,0.01827
3508.47312,0.01886
3506.41294,0.01942
3504.35277,0.01991
3502.29260,0.02019
3500.23243,0.02015
3498.17225,0.02006
3496.11208,0.02017
3494.05191,0.02042
3491.99174,0.02083
3489.93157,0.02141
3487.87139,0.02187
3485.81122,0.02210
3483.75105,0.02241
3481.69088,0.02289
3479.63071,0.02330
3477.57053,0.02339
3475.51036,0.02328
3473.45019,0.02331
3471.39002,0.02364
3469.32984,0.02398
3467.26967,0.02426
3465.20950,0.02476
3463.14933,0.02538
3461.08916,0.02587
3459.02898,0.02618
3456.96881,0.02635
3454.90864,0.02647
3452.84847,0.02667
3450.78830,0.02702
3448.72812,0.02758
3446.66795,0.02811
3444.60778,0.02831
3442.54761,0.02838
3440.48744,0.02855
3438.42726,0.02883
3436.36709,0.02907
3434.30692,0.02921
3432.24675,0.02942
3430.18657,0.02971
3428.12640,0.03011
3426.06623,0.03061
3424.00606,0.03090
3421.94589,0.03113
3419.88571,0.03159
3417.82554,0.03220
3415.76537,0.03273
3413.70520,0.03291
3411.64503,0.03285
3409.58485,0.03294
3407.52468,0.03319
3405.46451,0.03338
3403.40434,0.03354
3401.34416,0.03380
3399.28399,0.03395
3397.22382,0.03395
3395.16365,0.03411
3393.10348,0.03443
3391.04330,0.03464
3388.98313,0.03476
3386.92296,0.03497
3384.86279,0.03515
3382.80262,0.03512
3380.74244,0.03519
3378.68227,0.03567
3376.62210,0.03629
3374.56193,0.03656
3372.50176,0.03650
3370.44158,0.03640
3368.38141,0.03660
3366.32124,0.03706
3364.26107,0.03736
3362.20089,0.03744
3360.14072,0.03741
3358.08055,0.03738
3356.02038,0.03762
3353.96021,0.03804
3351.90003,0.03844
3349.83986,0.03865
3347.77969,0.03859
3345.71952,0.03847
3343.65935,0.03867
3341.59917,0.03908
3339.53900,0.03925
3337.47883,0.03924
3335.41866,0.03934
3333.35849,0.03945
3331.29831,0.03949
3329.23814,0.03961
3327.17797,0.03974
3325.11780,0.03974
3323.05762,0.03963
3320.99745,0.03948
3318.93728,0.03933
3316.87711,0.03937
3314.81694,0.03966
3312.75676,0.03986
3310.69659,0.03988
3308.63642,0.03986
3306.57625,0.03982
3304.51608,0.04004
3302.45590,0.04056
3300.39573,0.04087
3298.33556,0.04082
3296.27539,0.04067
3294.21521,0.04053
3292.15504,0.04038
3290.09487,0.04031
3288.03470,0.04051
3285.97453,0.04081
3283.91435,0.04084
3281.85418,0.04071
3279.79401,0.04074
3277.73384,0.04096
3275.67367,0.04115
3273.61349,0.04126
3271.55332,0.04123
3269.49315,0.04095
3267.43298,0.04064
3265.37281,0.04055
3263.31263,0.04061
3261.25246,0.04067
3259.19229,0.04080
3257.13212,0.04093
3255.07194,0.04091
3253.01177,0.04072
3250.95160,0.04041
3248.89143,0.04024
3246.83126,0.04032
3244.77108,0.04032
3242.71091,0.04020
3240.65074,0.04020
3238.59057,0.04018
3236.53040,0.04002
3234.47022,0.03978
3232.41005,0.03959
3230.34988,0.03944
3228.28971,0.03934
3226.22954,0.03933
3224.16936,0.03935
3222.10919,0.03935
3220.04902,0.03931
3217.98885,0.03913
3215.92867,0.03880
3213.86850,0.03866
3211.80833,0.03878
3209.74816,0.03870
3207.68799,0.03837
3205.62781,0.03810
3203.56764,0.03804
3201.50747,0.03800
3199.44730,0.03779
3197.38713,0.03767
3195.32695,0.03785
3193.26678,0.03795
3191.20661,0.03766
3189.14644,0.03732
3187.08626,0.03721
3185.02609,0.03714
3182.96592,0.03701
3180.90575,0.03685
3178.84558,0.03668
3176.78540,0.03655
3174.72523,0.03646
3172.66506,0.03639
3170.60489,0.03626
3168.54472,0.03595
3166.48454,0.03557
3164.42437,0.03544
3162.36420,0.03533
3160.30403,0.03508
3158.24386,0.03500
3156.18368,0.03500
3154.12351,0.03486
3152.06334,0.03463
3150.00317,0.03434
3147.94299,0.03403
3145.88282,0.03376
3143.82265,0.03353
3141.76248,0.03343
3139.70231,0.03338
3137.64213,0.03320
3135.58196,0.03289
3133.52179,0.03260
3131.46162,0.03243
3129.40145,0.03238
3127.34127,0.03227
3125.28110,0.03214
3123.22093,0.03195
3121.16076,0.03161
3119.10058,0.03141
3117.04041,0.03140
3114.98024,0.03116
3112.92007,0.03070
3110.85990,0.03051
3108.79972,0.03050
3106.73955,0.03026
3104.67938,0.02998
3102.61921,0.02989
3100.55904,0.02991
3098.49886,0.02993
3096.43869,0.02993
3094.37852,0.02992
3092.31835,0.02977
3090.25818,0.02953
3088.19800,0.02924
3086.13783,0.02889
3084.07766,0.02860
3082.01749,0.02843
3079.95731,0.02835
3077.89714,0.02834
3075.83697,0.02826
3073.77680,0.02805
3071.71663,0.02780
3069.65645,0.02749
3067.59628,0.02716
3065.53611,0.02701
3063.47594,0.02704
3061.41577,0.02713
3059.35559,0.02714
3057.29542,0.02690
3055.23525,0.02646
3053.17508,0.02609
3051.11491,0.02593
3049.05473,0.02592
3046.99456,0.02592
3044.93439,0.02582
3042.87422,0.02560
3040.81404,0.02535
3038.75387,0.02523
3036.69370,0.02513
3034.63353,0.02496
3032.57336,0.02477
3030.51318,0.02454
3028.45301,0.02429
3026.39284,0.02404
3024.33267,0.02379
3022.27250,0.02364
3020.21232,0.02365
3018.15215,0.02369
3016.09198,0.02360
3014.03181,0.02341
3011.97163,0.02320
3009.91146,0.02282
3007.85129,0.02238
3005.79112,0.02213
3003.73095,0.02205
3001.67077,0.02213
2999.61060,0.02229
2997.55043,0.02232
2995.49026,0.02208
2993.43009,0.02186
2991.36991,0.02183
2989.30974,0.02182
2987.24957,0.02185
2985.18940,0.02200
2983.12923,0.02223
2981.06905,0.02245
2979.00888,0.02268
2976.94871,0.02304
2974.88854,0.02355
2972.82836,0.02409
2970.76819,0.02467
2968.70802,0.02531
2966.64785,0.02592
2964.58768,0.02664
2962.52750,0.02750
2960.46733,0.02825
2958.40716,0.02904
2956.34699,0.03010
2954.28682,0.03116
2952.22664,0.03199
2950.16647,0.03281
2948.10630,0.03382
2946.04613,0.03500
2943.98596,0.03626
2941.92578,0.03762
2939.86561,0.03921
2937.80544,0.04107
2935.74527,0.04301
2933.68509,0.04488
2931.62492,0.04670
2929.56475,0.04847
2927.50458,0.05020
2925.44441,0.05183
2923.38423,0.05336
2921.32406,0.05487
2919.26389,0.05607
2917.20372,0.05637
2915.14355,0.05509
2913.08337,0.05227
2911.02320,0.04903
2908.96303,0.04642
2906.90286,0.04457
2904.84268,0.04320
2902.78251,0.04200
2900.72234,0.04076
2898.66217,0.03959
2896.60200,0.03866
2894.54182,0.03779
2892.48165,0.03691
2890.42148,0.03606
2888.36131,0.03513
2886.30114,0.03412
2884.24096,0.03331
2882.18079,0.03277
2880.12062,0.03234
2878.06045,0.03201
2876.00028,0.03186
2873.94010,0.03191
2871.87993,0.03211
2869.81976,0.03256
2867.75959,0.03320
2865.69941,0.03388
2863.63924,0.03476
2861.57907,0.03593
2859.51890,0.03728
2857.45873,0.03883
2855.39855,0.04071
2853.33838,0.04283
2851.27821,0.04476
2849.21804,0.04529
2847.15787,0.04331
2845.09769,0.03945
2843.03752,0.03551
2840.97735,0.03253
2838.91718,0.03058
2836.85700,0.02927
2834.79683,0.02813
2832.73666,0.02705
2830.67649,0.02622
2828.61632,0.02566
2826.55614,0.02518
2824.49597,0.02460
2822.43580,0.02403
2820.37563,0.02363
2818.31546,0.02332
2816.25528,0.02291
2814.19511,0.02250
2812.13494,0.02226
2810.07477,0.02216
2808.01460,0.02200
2805.95442,0.02172
2803.89425,0.02141
2801.83408,0.02123
2799.77391,0.02113
2797.71373,0.02081
2795.65356,0.02046
2793.59339,0.02047
2791.53322,0.02071
2789.47305,0.02076
2787.41287,0.02052
2785.35270,0.02019
2783.29253,0.01995
2781.23236,0.01976
2779.17219,0.01960
2777.11201,0.01950
2775.05184,0.01942
2772.99167,0.01942
2770.93150,0.01942
2768.87133,0.01923
2766.81115,0.01900
2764.75098,0.01895
2762.69081,0.01897
2760.63064,0.01882
2758.57046,0.01861
2756.51029,0.01855
2754.45012,0.01855
2752.38995,0.01856
2750.32978,0.01850
2748.26960,0.01831
2746.20943,0.01805
2744.14926,0.01796
2742.08909,0.01810
2740.02892,0.01820
2737.96874,0.01817
2735.90857,0.01808
2733.84840,0.01795
2731.78823,0.01784
2729.72805,0.01777
2727.66788,0.01776
2725.60771,0.01782
2723.54754,0.01789
2721.48737,0.01782
2719.42719,0.01756
2717.36702,0.01733
2715.30685,0.01734
2713.24668,0.01749
2711.18651,0.01749
2709.12633,0.01724
2707.06616,0.01705
2705.00599,0.01699
2702.94582,0.01699
2700.88565,0.01699
2698.82547,0.01693
2696.76530,0.01691
2694.70513,0.01681
2692.64496,0.01664
2690.58478,0.01662
2688.52461,0.01667
2686.46444,0.01666
2684.40427,0.01662
2682.34410,0.01656
2680.28392,0.01657
2678.22375,0.01668
2676.16358,0.01667
2674.10341,0.01643
2672.04324,0.01619
2669.98306,0.01613
2667.92289,0.01610
2665.86272,0.01601
2663.80255,0.01596
2661.74238,0.01595
2659.68220,0.01584
2657.62203,0.01569
2655.56186,0.01567
2653.50169,0.01569
2651.44151,0.01556
2649.38134,0.01535
2647.32117,0.01518
2645.26100,0.01509
2643.20083,0.01524
2641.14065,0.01541
2639.08048,0.01530
2637.02031,0.01508
2634.96014,0.01487
2632.89997,0.01468
2630.83979,0.01452
2628.77962,0.01424
2626.71945,0.01400
2624.65928,0.01404
2622.59910,0.01420
2620.53893,0.01422
2618.47876,0.01400
2616.41859,0.01373
2614.35842,0.01366
2612.29824,0.01367
2610.23807,0.01360
2608.17790,0.01344
2606.11773,0.01321
2604.05756,0.01292
2601.99738,0.01266
2599.93721,0.01247
2597.87704,0.01240
2595.81687,0.01250
2593.75670,0.01262
2591.69652,0.01251
2589.63635,0.01225
2587.57618,0.01214
2585.51601,0.01224
2583.45583,0.01242
2581.39566,0.01252
2579.33549,0.01239
2577.27532,0.01218
2575.21515,0.01210
2573.15497,0.01214
2571.09480,0.01221
2569.03463,0.01221
2566.97446,0.01221
2564.91429,0.01224
2562.85411,0.01221
2560.79394,0.01211
2558.73377,0.01194
2556.67360,0.01179
2554.61342,0.01184
2552.55325,0.01181
2550.49308,0.01162
2548.43291,0.01154
2546.37274,0.01145
2544.31256,0.01126
2542.25239,0.01112
2540.19222,0.01091
2538.13205,0.01068
2536.07188,0.01079
2534.01170,0.01102
2531.95153,0.01091
2529.89136,0.01069
2527.83119,0.01068
2525.77102,0.01060
2523.71084,0.01020
2521.65067,0.00993
2519.59050,0.01025
2517.53033,0.01055
2515.47015,0.01028
2513.40998,0.01011
2511.34981,0.01026
2509.28964,0.01026
2507.22947,0.01025
2505.16929,0.01046
2503.10912,0.01043
2501.04895,0.00997
2498.98878,0.00956
2496.92861,0.00962
2494.86843,0.00984
2492.80826,0.00979
2490.74809,0.00969
2488.68792,0.00968
2486.62775,0.00968
2484.56757,0.00964
2482.50740,0.00958
2480.44723,0.00964
2478.38706,0.00985
2476.32688,0.00984
2474.26671,0.00944
2472.20654,0.00912
2470.14637,0.00921
2468.08620,0.00936
2466.02602,0.00925
2463.96585,0.00903
2461.90568,0.00884
2459.84551,0.00871
2457.78534,0.00872
2455.72516,0.00887
2453.66499,0.00900
2451.60482,0.00906
2449.54465,0.00909
2447.48447,0.00890
2445.42430,0.00852
2443.36413,0.00825
2441.30396,0.00836
2439.24379,0.00868
2437.18361,0.00885
2435.12344,0.00886
2433.06327,0.00885
2431.00310,0.00883
2428.94293,0.00878
2426.88275,0.00871
2424.82258,0.00870
2422.76241,0.00868
2420.70224,0.00846
2418.64207,0.00809
2416.58189,0.00781
2414.52172,0.00772
2412.46155,0.00767
2410.40138,0.00765
2408.34120,0.00782
2406.28103,0.00794
2404.22086,0.00782
2402.16069,0.00764
2400.10052,0.00755
2398.04034,0.00765
2395.98017,0.00778
2393.92000,0.00775
2391.85983,0.00755
2389.79966,0.00748
2387.73948,0.00770
2385.67931,0.00799
2383.61914,0.00799
2381.55897,0.00784
2379.49880,0.00772
2377.43862,0.00746
2375.37845,0.00629
2373.31828,0.00547
2371.25811,0.00589
2369.19793,0.00625
2367.13776,0.00727
2365.07759,0.00967
2363.01742,0.01083
2360.95725,0.01259
2358.89707,0.01040
2356.83690,0.00718
2354.77673,0.00544
2352.71656,0.00559
2350.65639,0.01128
2348.59621,0.01423
2346.53604,0.00691
2344.47587,0.00555
2342.41570,0.00794
2340.35552,0.00930
2338.29535,0.00981
2336.23518,0.00876
2334.17501,0.00772
2332.11484,0.00712
2330.05466,0.00770
2327.99449,0.00788
2325.93432,0.00875
2323.87415,0.00842
2321.81398,0.00793
2319.75380,0.00723
2317.69363,0.00824
2315.63346,0.00840
2313.57329,0.00747
2311.51312,0.00684
2309.45294,0.00681
2307.39277,0.00710
2305.33260,0.00717
2303.27243,0.00694
2301.21225,0.00646
2299.15208,0.00652
2297.09191,0.00679
2295.03174,0.00693
2292.97157,0.00715
2290.91139,0.00713
2288.85122,0.00665
2286.79105,0.00611
2284.73088,0.00596
2282.67071,0.00608
2280.61053,0.00595
2278.55036,0.00556
2276.49019,0.00542
2274.43002,0.00569
2272.36984,0.00603
2270.30967,0.00620
2268.24950,0.00601
2266.18933,0.00550
2264.12916,0.00506
2262.06898,0.00493
2260.00881,0.00475
2257.94864,0.00448
2255.88847,0.00424
2253.82830,0.00433
2251.76812,0.00505
2249.70795,0.00593
2247.64778,0.00617
2245.58761,0.00558
2243.52744,0.00478
2241.46726,0.00460
2239.40709,0.00508
2237.34692,0.00538
2235.28675,0.00527
2233.22657,0.00519
2231.16640,0.00508
2229.10623,0.00472
2227.04606,0.00475
2224.98589,0.00507
2222.92571,0.00471
2220.86554,0.00403
2218.80537,0.00380
2216.74520,0.00409
2214.68503,0.00441
2212.62485,0.00424
2210.56468,0.00360
2208.50451,0.00317
2206.44434,0.00332
2204.38417,0.00340
2202.32399,0.00361
2200.26382,0.00438
2198.20365,0.00470
2196.14348,0.00420
2194.08330,0.00410
2192.02313,0.00483
2189.96296,0.00537
2187.90279,0.00523
2185.84262,0.00493
2183.78244,0.00457
2181.72227,0.00422
2179.66210,0.00388
2177.60193,0.00292
2175.54176,0.00191
2173.48158,0.00247
2171.42141,0.00387
2169.36124,0.00415
2167.30107,0.00399
2165.24089,0.00446
2163.18072,0.00438
2161.12055,0.00333
2159.06038,0.00177
2157.00021,0.00020
2154.94003,0.00054
2152.87986,0.00272
2150.81969,0.00401
2148.75952,0.00343
2146.69935,0.00258
2144.63917,0.00270
2142.57900,0.00336
2140.51883,0.00347
2138.45866,0.00292
2136.39849,0.00224
2134.33831,0.00194
2132.27814,0.00239
2130.21797,0.00306
2128.15780,0.00357
2126.09762,0.00411
2124.03745,0.00429
2121.97728,0.00393
2119.91711,0.00375
2117.85694,0.00421
2115.79676,0.00475
2113.73659,0.00481
2111.67642,0.00464
2109.61625,0.00433
2107.55608,0.00389
2105.49590,0.00379
2103.43573,0.00408
2101.37556,0.00411
2099.31539,0.00372
2097.25521,0.00356
2095.19504,0.00404
2093.13487,0.00466
2091.07470,0.00475
2089.01453,0.00430
2086.95435,0.00400
2084.89418,0.00391
2082.83401,0.00355
2080.77384,0.00324
2078.71367,0.00317
2076.65349,0.00316
2074.59332,0.00319
2072.53315,0.00324
2070.47298,0.00342
2068.41281,0.00349
2066.35263,0.00333
2064.29246,0.00335
2062.23229,0.00338
2060.17212,0.00319
2058.11194,0.00302
2056.05177,0.00241
2053.99160,0.00188
2051.93143,0.00267
2049.87126,0.00378
2047.81108,0.00348
2045.75091,0.00215
2043.69074,0.00120
2041.63057,0.00109
2039.57040,0.00144
2037.51022,0.00211
2035.45005,0.00327
2033.38988,0.00384
2031.32971,0.00259
2029.26954,0.00115
2027.20936,0.00098
2025.14919,0.00109
2023.08902,0.00124
2021.02885,0.00143
2018.96867,0.00087
2016.90850,0.00043
2014.84833,0.00099
2012.78816,0.00157
2010.72799,0.00182
2008.66781,0.00219
2006.60764,0.00268
2004.54747,0.00296
2002.48730,0.00283
2000.42713,0.00243
1998.36695,0.00200
1996.30678,0.00179
1994.24661,0.00188
1992.18644,0.00188
1990.12626,0.00154
1988.06609,0.00160
1986.00592,0.00239
1983.94575,0.00248
1981.88558,0.00142
1979.82540,0.00041
1977.76523,0.00022
1975.70506,0.00067
1973.64489,0.00105
1971.58472,0.00110
1969.52454,0.00128
1967.46437,0.00170
1965.40420,0.00191
1963.34403,0.00159
1961.28386,0.00112
1959.22368,0.00111
1957.16351,0.00165
1955.10334,0.00223
1953.04317,0.00224
1950.98299,0.00208
1948.92282,0.00208
1946.86265,0.00189
1944.80248,0.00145
1942.74231,0.00106
1940.68213,0.00099
1938.62196,0.00133
1936.56179,0.00180
1934.50162,0.00182
1932.44145,0.00132
1930.38127,0.00100
1928.32110,0.00123
1926.26093,0.00159
1924.20076,0.00173
1922.14059,0.00197
1920.08041,0.00246
1918.02024,0.00274
1915.96007,0.00243
1913.89990,0.00191
1911.83972,0.00160
1909.77955,0.00144
1907.71938,0.00133
1905.65921,0.00127
1903.59904,0.00130
1901.53886,0.00141
1899.47869,0.00129
1897.41852,0.00094
1895.35835,0.00088
1893.29818,0.00125
1891.23800,0.00170
1889.17783,0.00201
1887.11766,0.00198
1885.05749,0.00171
1882.99731,0.00165
1880.93714,0.00180
1878.87697,0.00170
1876.81680,0.00126
1874.75663,0.00089
1872.69645,0.00096
1870.63628,0.00131
1868.57611,0.00137
1866.51594,0.00105
1864.45577,0.00074
1862.39559,0.00060
1860.33542,0.00064
1858.27525,0.00089
1856.21508,0.00115
1854.15491,0.00111
1852.09473,0.00085
1850.03456,0.00055
1847.97439,0.00031
1845.91422,0.00023
1843.85404,0.00024
1841.79387,0.00036
1839.73370,0.00063
1837.67353,0.00084
1835.61336,0.00068
1833.55318,0.00033
1831.49301,0.00023
1829.43284,0.00037
1827.37267,0.00043
1825.31250,0.00025
1823.25232,0.00011
1821.19215,0.00021
1819.13198,0.00035
1817.07181,0.00025
1815.01163,0.00006
1812.95146,0.00003
1810.89129,0.00015
1808.83112,0.00021
1806.77095,0.00013
1804.71077,0.00011
1802.65060,0.00014
1800.59043,0.00014
1798.53026,0.00014
1796.47009,0.00012
1794.40991,0.00003
1792.34974,0.00000
1790.28957,0.00011
1788.22940,0.00022
1786.16923,0.00023
1784.10905,0.00020
1782.04888,0.00023
1779.98871,0.00021
1777.92854,0.00019
1775.86836,0.00014
1773.80819,0.00009
1771.74802,0.00008
1769.68785,0.00008
1767.62768,0.00023
1765.56750,0.00063
1763.50733,0.00113
1761.44716,0.00152
1759.38699,0.00192
1757.32682,0.00258
1755.26664,0.00344
1753.20647,0.00432
1751.14630,0.00536
1749.08613,0.00678
1747.02596,0.00853
1744.96578,0.01065
1742.90561,0.01338
1740.84544,0.01681
1738.78527,0.02039
1736.72509,0.02335
1734.66492,0.02590
1732.60475,0.02817
1730.54458,0.02942
1728.48441,0.02967
1726.42423,0.02939
1724.36406,0.02899
1722.30389,0.02880
1720.24372,0.02894
1718.18355,0.02904
1716.12337,0.02860
1714.06320,0.02799
1712.00303,0.02771
1709.94286,0.02754
1707.88268,0.02720
1705.82251,0.02666
1703.76234,0.02611
1701.70217,0.02559
1699.64200,0.02493
1697.58182,0.02410
1695.52165,0.02316
1693.46148,0.02240
1691.40131,0.02198
1689.34114,0.02170
1687.28096,0.02150
1685.22079,0.02116
1683.16062,0.02056
1681.10045,0.02030
1679.04028,0.02037
1676.98010,0.02053
1674.91993,0.02068
1672.85976,0.02088
1670.79959,0.02117
1668.73941,0.02152
1666.67924,0.02212
1664.61907,0.02297
1662.55890,0.02383
1660.49873,0.02462
1658.43855,0.02559
1656.37838,0.02686
1654.31821,0.02797
1652.25804,0.02825
1650.19787,0.02832
1648.13769,0.02856
1646.07752,0.02852
1644.01735,0.02848
1641.95718,0.02886
1639.89701,0.02944
1637.83683,0.02991
1635.77666,0.03000
1633.71649,0.02997
1631.65632,0.03028
1629.59614,0.03080
1627.53597,0.03135
1625.47580,0.03189
1623.41563,0.03235
1621.35546,0.03285
1619.29528,0.03354
1617.23511,0.03413
1615.17494,0.03456
1613.11477,0.03520
1611.05460,0.03604
1608.99442,0.03678
1606.93425,0.03722
1604.87408,0.03733
1602.81391,0.03712
1600.75373,0.03666
1598.69356,0.03604
1596.63339,0.03522
1594.57322,0.03412
1592.51305,0.03282
1590.45287,0.03141
1588.39270,0.02994
1586.33253,0.02841
1584.27236,0.02695
1582.21219,0.02575
1580.15201,0.02480
1578.09184,0.02363
1576.03167,0.02191
1573.97150,0.02045
1571.91133,0.01964
1569.85115,0.01875
1567.79098,0.01777
1565.73081,0.01725
1563.67064,0.01711
1561.61046,0.01705
1559.55029,0.01656
1557.49012,0.01574
1555.42995,0.01557
1553.36978,0.01576
1551.30960,0.01588
1549.24943,0.01591
1547.18926,0.01603
1545.12909,0.01625
1543.06892,0.01633
1541.00874,0.01600
1538.94857,0.01541
1536.88840,0.01528
1534.82823,0.01530
1532.76805,0.01495
1530.70788,0.01453
1528.64771,0.01423
1526.58754,0.01380
1524.52737,0.01347
1522.46719,0.01350
1520.40702,0.01358
1518.34685,0.01349
1516.28668,0.01337
1514.22651,0.01338
1512.16633,0.01346
1510.10616,0.01338
1508.04599,0.01243
1505.98582,0.01015
1503.92565,0.00831
1501.86547,0.00761
1499.80530,0.00726
1497.74513,0.00654
1495.68496,0.00543
1493.62478,0.00446
1491.56461,0.00375
1489.50444,0.00302
1487.44427,0.00229
1485.38410,0.00184
1483.32392,0.00170
1481.26375,0.00182
1479.20358,0.00220
1477.14341,0.00301
1475.08324,0.00445
1473.02306,0.00652
1470.96289,0.00872
1468.90272,0.01077
1466.84255,0.01284
1464.78238,0.01480
1462.72220,0.01624
1460.66203,0.01729
1458.60186,0.01840
1456.54169,0.01947
1454.48151,0.02029
1452.42134,0.02112
1450.36117,0.02197
1448.30100,0.02273
1446.24083,0.02339
1444.18065,0.02386
1442.12048,0.02406
1440.06031,0.02397
1438.00014,0.02338
1435.93997,0.02212
1433.87979,0.02082
1431.81962,0.01984
1429.75945,0.01892
1427.69928,0.01816
1425.63910,0.01776
1423.57893,0.01760
1421.51876,0.01761
1419.45859,0.01751
1417.39842,0.01715
1415.33824,0.01691
1413.27807,0.01684
1411.21790,0.01665
1409.15773,0.01637
1407.09756,0.01617
1405.03738,0.01602
1402.97721,0.01599
1400.91704,0.01625
1398.85687,0.01670
1396.79670,0.01704
1394.73652,0.01712
1392.67635,0.01721
1390.61618,0.01759
1388.55601,0.01810
1386.49583,0.01854
1384.43566,0.01903
1382.37549,0.01968
1380.31532,0.02041
1378.25515,0.02118
1376.19497,0.02192
1374.13480,0.02250
1372.07463,0.02290
1370.01446,0.02323
1367.95429,0.02352
1365.89411,0.02380
1363.83394,0.02401
1361.77377,0.02399
1359.71360,0.02398
1357.65343,0.02422
1355.59325,0.02451
1353.53308,0.02471
1351.47291,0.02498
1349.41274,0.02540
1347.35256,0.02577
1345.29239,0.02593
1343.23222,0.02603
1341.17205,0.02626
1339.11188,0.02654
1337.05170,0.02682
1334.99153,0.02718
1332.93136,0.02764
1330.87119,0.02810
1328.81102,0.02855
1326.75084,0.02894
1324.69067,0.02938
1322.63050,0.02990
1320.57033,0.03034
1318.51015,0.03050
1316.44998,0.03037
1314.38981,0.03018
1312.32964,0.03000
1310.26947,0.02969
1308.20929,0.02896
1306.14912,0.02775
1304.08895,0.02640
1302.02878,0.02512
1299.96861,0.02377
1297.90843,0.02223
1295.84826,0.02065
1293.78809,0.01941
1291.72792,0.01854
1289.66775,0.01780
1287.60757,0.01717
1285.54740,0.01669
1283.48723,0.01634
1281.42706,0.01610
1279.36688,0.01599
1277.30671,0.01597
1275.24654,0.01607
1273.18637,0.01639
1271.12620,0.01684
1269.06602,0.01734
1267.00585,0.01789
1264.94568,0.01836
1262.88551,0.01873
1260.82534,0.01917
1258.76516,0.01971
1256.70499,0.02022
1254.64482,0.02070
1252.58465,0.02117
1250.52447,0.02164
1248.46430,0.02222
1246.40413,0.02283
1244.34396,0.02333
1242.28379,0.02376
1240.22361,0.02432
1238.16344,0.02504
1236.10327,0.02568
1234.04310,0.02613
1231.98293,0.02654
1229.92275,0.02701
1227.86258,0.02759
1225.80241,0.02821
1223.74224,0.02879
1221.68207,0.02947
1219.62189,0.03028
1217.56172,0.03099
1215.50155,0.03156
1213.44138,0.03215
1211.38120,0.03278
1209.32103,0.03345
1207.26086,0.03429
1205.20069,0.03517
1203.14052,0.03582
1201.08034,0.03632
1199.02017,0.03676
1196.96000,0.03701
1194.89983,0.03706
1192.83966,0.03691
1190.77948,0.03661
1188.71931,0.03619
1186.65914,0.03566
1184.59897,0.03513
1182.53880,0.03461
1180.47862,0.03405
1178.41845,0.03352
1176.35828,0.03329
1174.29811,0.03332
1172.23793,0.03330
1170.17776,0.03306
1168.11759,0.03275
1166.05742,0.03254
1163.99725,0.03232
1161.93707,0.03184
1159.87690,0.03110
1157.81673,0.03037
1155.75656,0.02970
1153.69639,0.02893
1151.63621,0.02818
1149.57604,0.02762
1147.51587,0.02708
1145.45570,0.02631
1143.39552,0.02533
1141.33535,0.02439
1139.27518,0.02362
1137.21501,0.02295
1135.15484,0.02229
1133.09466,0.02188
1131.03449,0.02193
1128.97432,0.02230
1126.91415,0.02278
1124.85398,0.02357
1122.79380,0.02481
1120.73363,0.02620
1118.67346,0.02758
1116.61329,0.02929
1114.55312,0.03143
1112.49294,0.03368
1110.43277,0.03573
1108.37260,0.03777
1106.31243,0.03995
1104.25225,0.04188
1102.19208,0.04338
1100.13191,0.04470
1098.07174,0.04585
1096.01157,0.04676
1093.95139,0.04768
1091.89122,0.04871
1089.83105,0.04982
1087.77088,0.05110
1085.71071,0.05260
1083.65053,0.05436
1081.59036,0.05637
1079.53019,0.05829
1077.47002,0.05995
1075.40985,0.06134
1073.34967,0.06242
1071.28950,0.06336
1069.22933,0.06423
1067.16916,0.06499
1065.10898,0.06582
1063.04881,0.06671
1060.98864,0.06760
1058.92847,0.06850
1056.86830,0.06941
1054.80812,0.07043
1052.74795,0.07169
1050.68778,0.07308
1048.62761,0.07427
1046.56744,0.07531
1044.50726,0.07654
1042.44709,0.07788
1040.38692,0.07920
1038.32675,0.08067
1036.26657,0.08225
1034.20640,0.08366
1032.14623,0.08494
1030.08606,0.08608
1028.02589,0.08679
1025.96571,0.08715
1023.90554,0.08748
1021.84537,0.08767
1019.78520,0.08770
1017.72503,0.08756
1015.66485,0.08709
1013.60468,0.08636
1011.54451,0.08546
1009.48434,0.08419
1007.42417,0.08258
1005.36399,0.08087
1003.30382,0.07909
1001.24365,0.07705
999.18348,0.07483
997.12330,0.07275
995.06313,0.07092
993.00296,0.06907
990.94279,0.06708
988.88262,0.06479
986.82244,0.06231
984.76227,0.05994
982.70210,0.05756
980.64193,0.05514
978.58176,0.05271
976.52158,0.05030
974.46141,0.04813
972.40124,0.04618
970.34107,0.04440
968.28089,0.04296
966.22072,0.04185
964.16055,0.04082
962.10038,0.03970
960.04021,0.03817
957.98003,0.03618
955.91986,0.03417
953.85969,0.03230
951.79952,0.03051
949.73935,0.02879
947.67917,0.02712
945.61900,0.02558
943.55883,0.02425
941.49866,0.02302
939.43849,0.02187
937.37831,0.02093
935.31814,0.02023
933.25797,0.01979
931.19780,0.01944
929.13762,0.01899
927.07745,0.01847
925.01728,0.01782
922.95711,0.01697
920.89694,0.01611
918.83676,0.01521
916.77659,0.01411
914.71642,0.01303
912.65625,0.01209
910.59608,0.01116
908.53590,0.01023
906.47573,0.00941
904.41556,0.00880
902.35539,0.00834
900.29522,0.00796
898.23504,0.00787
896.17487,0.00811
894.11470,0.00819
892.05453,0.00793
889.99435,0.00758
887.93418,0.00719
885.87401,0.00686
883.81384,0.00687
881.75367,0.00712
879.69349,0.00739
877.63332,0.00758
875.57315,0.00777
873.51298,0.00803
871.45281,0.00813
869.39263,0.00795
867.33246,0.00748
865.27229,0.00670
863.21212,0.00580
861.15194,0.00481
859.09177,0.00348
857.03160,0.00208
854.97143,0.00107
852.91126,0.00051
850.85108,0.00028
848.79091,0.00022
846.73074,0.00033
844.67057,0.00038
842.61040,0.00016
840.55022,0.00024
838.49005,0.00072
836.42988,0.00122
834.36971,0.00171
832.30954,0.00224
830.24936,0.00251
828.18919,0.00235
826.12902,0.00227
824.06885,0.00267
822.00867,0.00312
819.94850,0.00314
817.88833,0.00289
815.82816,0.00281
813.76799,0.00270
811.70781,0.00254
809.64764,0.00256
807.58747,0.00233
805.52730,0.00179
803.46713,0.00144
801.40695,0.00120
799.34678,0.00075
797.28661,0.00029
795.22644,0.00000
793.16627,0.00008
791.10609,0.00039
789.04592,0.00099
786.98575,0.00138
784.92558,0.00160
782.86540,0.00221
780.80523,0.00270
778.74506,0.00256
776.68489,0.00259
774.62472,0.00326
772.56454,0.00392
770.50437,0.00447
768.44420,0.00554
766.38403,0.00714
764.32386,0.00873
762.26368,0.01004
760.20351,0.01110
758.14334,0.01167
756.08317,0.01153
754.02299,0.01118
751.96282,0.01096
749.90265,0.01046
747.84248,0.00947
745.78231,0.00835
743.72213,0.00727
741.66196,0.00628
739.60179,0.00592
737.54162,0.00614
735.48145,0.00641
733.42127,0.00670
731.36110,0.00661
729.30093,0.00638
727.24076,0.00693
725.18059,0.00792
723.12041,0.00901
721.06024,0.00884
719.00007,0.00915
716.93990,0.00873
714.87972,0.00752
712.81955,0.00679
710.75938,0.00648
708.69921,0.00635
706.63904,0.00659
704.57886,0.00722
702.51869,0.00793
700.45852,0.00854
698.39835,0.00886
696.33818,0.00880
694.27800,0.00862
692.21783,0.00834
690.15766,0.00785
688.09749,0.00753
686.03731,0.00765
683.97714,0.00823
681.91697,0.00902
679.85680,0.00931
677.79663,0.00877
675.73645,0.00804
673.67628,0.00990
671.61611,0.01423
669.55594,0.00735
667.49577,0.00010
665.43559,0.01345
663.37542,0.01175
661.31525,0.00813
659.25508,0.00790
657.19491,0.00889
655.13473,0.01009
653.07456,0.01051
651.01439,0.00917
648.95422,0.00679
646.89404,0.00537
644.83387,0.00461
642.77370,0.00484
640.71353,0.00553
638.65336,0.00597
636.59318,0.00622
634.53301,0.00645
632.47284,0.00685
630.41267,0.00744
628.35250,0.00785
626.29232,0.00798
624.23215,0.00738
622.17198,0.00675
620.11181,0.00769
618.05164,0.00994
615.99146,0.01090
613.93129,0.00952
611.87112,0.00779
609.81095,0.00734
607.75077,0.00807
605.69060,0.00902
603.63043,0.00831
601.57026,0.00477
599.51009,0.00000
