3996.73391,0.00000
3994.67373,0.00028
3992.61356,0.00050
3990.55339,0.00069
3988.49322,0.00091
3986.43305,0.00121
3984.37287,0.00166
3982.31270,0.00213
3980.25253,0.00246
3978.19236,0.00258
3976.13219,0.00252
3974.07201,0.00253
3972.01184,0.00289
3969.95167,0.00342
3967.89150,0.00374
3965.83133,0.00381
3963.77115,0.00382
3961.71098,0.00395
3959.65081,0.00423
3957.59064,0.00466
3955.53046,0.00505
3953.47029,0.00522
3951.41012,0.00524
3949.34995,0.00517
3947.28978,0.00502
3945.22960,0.00493
3943.16943,0.00502
3941.10926,0.00518
3939.04909,0.00552
3936.98892,0.00580
3934.92874,0.00585
3932.86857,0.00565
3930.80840,0.00547
3928.74823,0.00561
3926.68805,0.00596
3924.62788,0.00614
3922.56771,0.00592
3920.50754,0.00550
3918.44737,0.00526
3916.38719,0.00542
3914.32702,0.00569
3912.26685,0.00573
3910.20668,0.00560
3908.14651,0.00558
3906.08633,0.00575
3904.02616,0.00593
3901.96599,0.00603
3899.90582,0.00602
3897.84565,0.00580
3895.78547,0.00562
3893.72530,0.00577
3891.66513,0.00609
3889.60496,0.00617
3887.54478,0.00597
3885.48461,0.00571
3883.42444,0.00547
3881.36427,0.00523
3879.30410,0.00509
3877.24392,0.00511
3875.18375,0.00527
3873.12358,0.00563
3871.06341,0.00605
3869.00324,0.00626
3866.94306,0.00621
3864.88289,0.00600
3862.82272,0.00592
3860.76255,0.00619
3858.70237,0.00654
3856.64220,0.00672
3854.58203,0.00677
3852.52186,0.00665
3850.46169,0.00642
3848.40151,0.00629
3846.34134,0.00628
3844.28117,0.00630
3842.22100,0.00631
3840.16083,0.00635
3838.10065,0.00644
3836.04048,0.00645
3833.98031,0.00635
3831.92014,0.00625
3829.85997,0.00620
3827.79979,0.00610
3825.73962,0.00601
3823.67945,0.00609
3821.61928,0.00631
3819.55910,0.00652
3817.49893,0.00661
3815.43876,0.00654
3813.37859,0.00644
3811.31842,0.00630
3809.25824,0.00601
3807.19807,0.00573
3805.13790,0.00583
3803.07773,0.00636
3801.01756,0.00681
3798.95738,0.00685
3796.89721,0.00673
3794.83704,0.00653
3792.77687,0.00625
3790.71670,0.00609
3788.65652,0.00606
3786.59635,0.00601
3784.53618,0.00602
3782.47601,0.00604
3780.41583,0.00584
3778.35566,0.00552
3776.29549,0.00545
3774.23532,0.00569
3772.17515,0.00589
3770.11497,0.00571
3768.05480,0.00552
3765.99463,0.00576
3763.93446,0.00616
3761.87429,0.00637
3759.81411,0.00630
3757.75394,0.00596
3755.69377,0.00552
3753.63360,0.00509
3751.57342,0.00483
3749.51325,0.00506
3747.45308,0.00556
3745.39291,0.00572
3743.33274,0.00576
3741.27256,0.00601
3739.21239,0.00620
3737.15222,0.00610
3735.09205,0.00567
3733.03188,0.00538
3730.97170,0.00550
3728.91153,0.00569
3726.85136,0.00590
3724.79119,0.00623
3722.73102,0.00651
3720.67084,0.00653
3718.61067,0.00644
3716.55050,0.00636
3714.49033,0.00622
3712.43015,0.00612
3710.36998,0.00609
3708.30981,0.00605
3706.24964,0.00588
3704.18947,0.00589
3702.12929,0.00612
3700.06912,0.00617
3698.00895,0.00594
3695.94878,0.00588
3693.88861,0.00624
3691.82843,0.00663
3689.76826,0.00673
3687.70809,0.00672
3685.64792,0.00680
3683.58775,0.00689
3681.52757,0.00695
3679.46740,0.00683
3677.40723,0.00640
3675.34706,0.00599
3673.28688,0.00601
3671.22671,0.00645
3669.16654,0.00713
3667.10637,0.00753
3665.04620,0.00749
3662.98602,0.00743
3660.92585,0.00759
3658.86568,0.00797
3656.80551,0.00831
3654.74534,0.00829
3652.68516,0.00802
3650.62499,0.00779
3648.56482,0.00774
3646.50465,0.00811
3644.44447,0.00869
3642.38430,0.00904
3640.32413,0.00919
3638.26396,0.00940
3636.20379,0.00965
3634.14361,0.01008
3632.08344,0.01079
3630.02327,0.01123
3627.96310,0.01094
3625.90293,0.01064
3623.84275,0.01080
3621.78258,0.01122
3619.72241,0.01162
3617.66224,0.01184
3615.60207,0.01204
3613.54189,0.01229
3611.48172,0.01255
3609.42155,0.01283
3607.36138,0.01298
3605.30120,0.01295
3603.24103,0.01317
3601.18086,0.01387
3599.12069,0.01453
3597.06052,0.01491
3595.00034,0.01510
3592.94017,0.01524
3590.88000,0.01551
3588.81983,0.01593
3586.75966,0.01629
3584.69948,0.01670
3582.63931,0.01727
3580.57914,0.01768
3578.51897,0.01778
3576.45879,0.01789
3574.39862,0.01829
3572.33845,0.01883
3570.27828,0.01933
3568.21811,0.01982
3566.15793,0.02038
3564.09776,0.02091
3562.03759,0.02130
3559.97742,0.02150
3557.91725,0.02176
3555.85707,0.02230
3553.79690,0.02287
3551.73673,0.02315
3549.67656,0.02327
3547.61639,0.02348
3545.55621,0.02393
3543.49604,0.02467
3541.43587,0.02546
3539.37570,0.02599
3537.31552,0.02626
3535.25535,0.02660
3533.19518,0.02721
3531.13501,0.02788
3529.07484,0.02833
3527.01466,0.02860
3524.95449,0.02880
3522.89432,0.02907
3520.83415,0.02951
3518.77398,0.02995
3516.71380,0.03022
3514.65363,0.03045
3512.59346,0.03080
3510.53329,0.03127
3508.47312,0.03182
3506.41294,0.03242
3504.35277,0.03281
3502.29260,0.03290
3500.23243,0.03317
3498.17225,0.03388
3496.11208,0.03467
3494.05191,0.03521
3491.99174,0.03551
3489.93157,0.03582
3487.87139,0.03631
3485.81122,0.03690
3483.75105,0.03722
3481.69088,0.03711
3479.63071,0.03719
3477.57053,0.03782
3475.51036,0.03844
3473.45019,0.03889
3471.39002,0.03955
3469.32984,0.04035
3467.26967,0.04088
3465.20950,0.04105
3463.14933,0.04117
3461.08916,0.04150
3459.02898,0.04202
3456.96881,0.04262
3454.90864,0.04300
3452.84847,0.04313
3450.78830,0.04340
3448.72812,0.04387
3446.66795,0.04426
3444.60778,0.04455
3442.54761,0.04490
3440.48744,0.04547
3438.42726,0.04609
3436.36709,0.04639
3434.30692,0.04658
3432.24675,0.04701
3430.18657,0.04760
3428.12640,0.04800
3426.06623,0.04812
3424.00606,0.04833
3421.94589,0.04871
3419.88571,0.04896
3417.82554,0.04910
3415.76537,0.04935
3413.70520,0.04974
3411.64503,0.05025
3409.58485,0.05076
3407.52468,0.05118
3405.46451,0.05153
3403.40434,0.05178
3401.34416,0.05200
3399.28399,0.05222
3397.22382,0.05239
3395.16365,0.05251
3393.10348,0.05264
3391.04330,0.05297
3388.98313,0.05350
3386.92296,0.05386
3384.86279,0.05389
3382.80262,0.05403
3380.74244,0.05450
3378.68227,0.05497
3376.62210,0.05522
3374.56193,0.05542
3372.50176,0.05571
3370.44158,0.05599
3368.38141,0.05612
3366.32124,0.05621
3364.26107,0.05632
3362.20089,0.05630
3360.14072,0.05623
3358.08055,0.05642
3356.02038,0.05684
3353.96021,0.05726
3351.90003,0.05761
3349.83986,0.05780
3347.77969,0.05783
3345.71952,0.05782
3343.65935,0.05800
3341.59917,0.05834
3339.53900,0.05858
3337.47883,0.05864
3335.41866,0.05862
3333.35849,0.05864
3331.29831,0.05878
3329.23814,0.05896
3327.17797,0.05893
3325.11780,0.05884
3323.05762,0.05912
3320.99745,0.05959
3318.93728,0.05969
3316.87711,0.05948
3314.81694,0.05948
3312.75676,0.05961
3310.69659,0.05957
3308.63642,0.05957
3306.57625,0.05980
3304.51608,0.06006
3302.45590,0.06015
3300.39573,0.06016
3298.33556,0.06032
3296.27539,0.06048
3294.21521,0.06045
3292.15504,0.06041
3290.09487,0.06058
3288.03470,0.06072
3285.97453,0.06059
3283.91435,0.06053
3281.85418,0.06066
3279.79401,0.06063
3277.73384,0.06059
3275.67367,0.06071
3273.61349,0.06078
3271.55332,0.06070
3269.49315,0.06053
3267.43298,0.06042
3265.37281,0.06048
3263.31263,0.06059
3261.25246,0.06051
3259.19229,0.06025
3257.13212,0.06005
3255.07194,0.06007
3253.01177,0.06022
3250.95160,0.06026
3248.89143,0.06003
3246.83126,0.05975
3244.77108,0.05950
3242.71091,0.05925
3240.65074,0.05903
3238.59057,0.05875
3236.53040,0.05849
3234.47022,0.05862
3232.41005,0.05900
3230.34988,0.05909
3228.28971,0.05881
3226.22954,0.05849
3224.16936,0.05825
3222.10919,0.05816
3220.04902,0.05815
3217.98885,0.05794
3215.92867,0.05769
3213.86850,0.05766
3211.80833,0.05757
3209.74816,0.05726
3207.68799,0.05697
3205.62781,0.05688
3203.56764,0.05677
3201.50747,0.05644
3199.44730,0.05604
3197.38713,0.05570
3195.32695,0.05554
3193.26678,0.05563
3191.20661,0.05567
3189.14644,0.05537
3187.08626,0.05510
3185.02609,0.05504
3182.96592,0.05483
3180.90575,0.05439
3178.84558,0.05396
3176.78540,0.05365
3174.72523,0.05354
3172.66506,0.05345
3170.60489,0.05318
3168.54472,0.05290
3166.48454,0.05273
3164.42437,0.05251
3162.36420,0.05229
3160.30403,0.05223
3158.24386,0.05213
3156.18368,0.05173
3154.12351,0.05128
3152.06334,0.05116
3150.00317,0.05116
3147.94299,0.05090
3145.88282,0.05047
3143.82265,0.05013
3141.76248,0.04990
3139.70231,0.04959
3137.64213,0.04924
3135.58196,0.04896
3133.52179,0.04867
3131.46162,0.04828
3129.40145,0.04797
3127.34127,0.04780
3125.28110,0.04768
3123.22093,0.04762
3121.16076,0.04759
3119.10058,0.04737
3117.04041,0.04698
3114.98024,0.04654
3112.92007,0.04611
3110.85990,0.04574
3108.79972,0.04549
3106.73955,0.04533
3104.67938,0.04516
3102.61921,0.04487
3100.55904,0.04451
3098.49886,0.04433
3096.43869,0.04436
3094.37852,0.04422
3092.31835,0.04379
3090.25818,0.04340
3088.19800,0.04324
3086.13783,0.04320
3084.07766,0.04302
3082.01749,0.04278
3079.95731,0.04270
3077.89714,0.04263
3075.83697,0.04236
3073.77680,0.04197
3071.71663,0.04165
3069.65645,0.04154
3067.59628,0.04144
3065.53611,0.04108
3063.47594,0.04046
3061.41577,0.03997
3059.35559,0.03988
3057.29542,0.03984
3055.23525,0.03963
3053.17508,0.03931
3051.11491,0.03892
3049.05473,0.03861
3046.99456,0.03850
3044.93439,0.03833
3042.87422,0.03800
3040.81404,0.03776
3038.75387,0.03757
3036.69370,0.03732
3034.63353,0.03704
3032.57336,0.03678
3030.51318,0.03659
3028.45301,0.03646
3026.39284,0.03619
3024.33267,0.03569
3022.27250,0.03527
3020.21232,0.03525
3018.15215,0.03534
3016.09198,0.03511
3014.03181,0.03467
3011.97163,0.03446
3009.91146,0.03459
3007.85129,0.03474
3005.79112,0.03456
3003.73095,0.03411
3001.67077,0.03382
2999.61060,0.03386
2997.55043,0.03382
2995.49026,0.03351
2993.43009,0.03333
2991.36991,0.03342
2989.30974,0.03359
2987.24957,0.03375
2985.18940,0.03381
2983.12923,0.03388
2981.06905,0.03423
2979.00888,0.03471
2976.94871,0.03511
2974.88854,0.03542
2972.82836,0.03573
2970.76819,0.03625
2968.70802,0.03715
2966.64785,0.03823
2964.58768,0.03920
2962.52750,0.03998
2960.46733,0.04097
2958.40716,0.04227
2956.34699,0.04341
2954.28682,0.04423
2952.22664,0.04508
2950.16647,0.04628
2948.10630,0.04788
2946.04613,0.04966
2943.98596,0.05138
2941.92578,0.05295
2939.86561,0.05474
2937.80544,0.05702
2935.74527,0.05949
2933.68509,0.06195
2931.62492,0.06434
2929.56475,0.06642
2927.50458,0.06834
2925.44441,0.07027
2923.38423,0.07203
2921.32406,0.07370
2919.26389,0.07513
2917.20372,0.07534
2915.14355,0.07349
2913.08337,0.06988
2911.02320,0.06582
2908.96303,0.06238
2906.90286,0.05974
2904.84268,0.05769
2902.78251,0.05606
2900.72234,0.05468
2898.66217,0.05345
2896.60200,0.05228
2894.54182,0.05125
2892.48165,0.05028
2890.42148,0.04922
2888.36131,0.04812
2886.30114,0.04710
2884.24096,0.04616
2882.18079,0.04539
2880.12062,0.04486
2878.06045,0.04441
2876.00028,0.04412
2873.94010,0.04413
2871.87993,0.04425
2869.81976,0.04450
2867.75959,0.04502
2865.69941,0.04587
2863.63924,0.04709
2861.57907,0.04867
2859.51890,0.05067
2857.45873,0.05302
2855.39855,0.05540
2853.33838,0.05787
2851.27821,0.06022
2849.21804,0.06087
2847.15787,0.05823
2845.09769,0.05319
2843.03752,0.04809
2840.97735,0.04414
2838.91718,0.04144
2836.85700,0.03952
2834.79683,0.03793
2832.73666,0.03665
2830.67649,0.03568
2828.61632,0.03486
2826.55614,0.03411
2824.49597,0.03346
2822.43580,0.03296
2820.37563,0.03253
2818.31546,0.03207
2816.25528,0.03163
2814.19511,0.03138
2812.13494,0.03129
2810.07477,0.03103
2808.01460,0.03048
2805.95442,0.03009
2803.89425,0.02998
2801.83408,0.02985
2799.77391,0.02971
2797.71373,0.02961
2795.65356,0.02931
2793.59339,0.02893
2791.53322,0.02875
2789.47305,0.02864
2787.41287,0.02838
2785.35270,0.02810
2783.29253,0.02800
2781.23236,0.02795
2779.17219,0.02776
2777.11201,0.02754
2775.05184,0.02750
2772.99167,0.02753
2770.93150,0.02735
2768.87133,0.02705
2766.81115,0.02694
2764.75098,0.02691
2762.69081,0.02680
2760.63064,0.02669
2758.57046,0.02662
2756.51029,0.02658
2754.45012,0.02650
2752.38995,0.02638
2750.32978,0.02632
2748.26960,0.02631
2746.20943,0.02624
2744.14926,0.02605
2742.08909,0.02583
2740.02892,0.02569
2737.96874,0.02567
2735.90857,0.02571
2733.84840,0.02570
2731.78823,0.02566
2729.72805,0.02566
2727.66788,0.02565
2725.60771,0.02555
2723.54754,0.02530
2721.48737,0.02507
2719.42719,0.02502
2717.36702,0.02501
2715.30685,0.02505
2713.24668,0.02523
2711.18651,0.02535
2709.12633,0.02520
2707.06616,0.02496
2705.00599,0.02481
2702.94582,0.02471
2700.88565,0.02459
2698.82547,0.02452
2696.76530,0.02451
2694.70513,0.02447
2692.64496,0.02440
2690.58478,0.02424
2688.52461,0.02403
2686.46444,0.02387
2684.40427,0.02380
2682.34410,0.02376
2680.28392,0.02371
2678.22375,0.02357
2676.16358,0.02341
2674.10341,0.02333
2672.04324,0.02330
2669.98306,0.02323
2667.92289,0.02315
2665.86272,0.02306
2663.80255,0.02300
2661.74238,0.02298
2659.68220,0.02298
2657.62203,0.02297
2655.56186,0.02288
2653.50169,0.02276
2651.44151,0.02263
2649.38134,0.02243
2647.32117,0.02223
2645.26100,0.02214
2643.20083,0.02213
2641.14065,0.02206
2639.08048,0.02185
2637.02031,0.02176
2634.96014,0.02177
2632.89997,0.02160
2630.83979,0.02134
2628.77962,0.02114
2626.71945,0.02106
2624.65928,0.02111
2622.59910,0.02104
2620.53893,0.02069
2618.47876,0.02021
2616.41859,0.01993
2614.35842,0.01993
2612.29824,0.01994
2610.23807,0.01974
2608.17790,0.01950
2606.11773,0.01945
2604.05756,0.01942
2601.99738,0.01936
2599.93721,0.01937
2597.87704,0.01931
2595.81687,0.01910
2593.75670,0.01897
2591.69652,0.01896
2589.63635,0.01892
2587.57618,0.01880
2585.51601,0.01878
2583.45583,0.01884
2581.39566,0.01869
2579.33549,0.01832
2577.27532,0.01803
2575.21515,0.01810
2573.15497,0.01801
2571.09480,0.01758
2569.03463,0.01759
2566.97446,0.01787
2564.91429,0.01776
2562.85411,0.01757
2560.79394,0.01760
2558.73377,0.01761
2556.67360,0.01750
2554.61342,0.01732
2552.55325,0.01724
2550.49308,0.01733
2548.43291,0.01739
2546.37274,0.01731
2544.31256,0.01716
2542.25239,0.01717
2540.19222,0.01727
2538.13205,0.01713
2536.07188,0.01692
2534.01170,0.01677
2531.95153,0.01645
2529.89136,0.01626
2527.83119,0.01630
2525.77102,0.01638
2523.71084,0.01664
2521.65067,0.01693
2519.59050,0.01695
2517.53033,0.01663
2515.47015,0.01613
2513.40998,0.01574
2511.34981,0.01565
2509.28964,0.01577
2507.22947,0.01587
2505.16929,0.01590
2503.10912,0.01583
2501.04895,0.01573
2498.98878,0.01571
2496.92861,0.01565
2494.86843,0.01552
2492.80826,0.01545
2490.74809,0.01538
2488.68792,0.01521
2486.62775,0.01489
2484.56757,0.01468
2482.50740,0.01471
2480.44723,0.01483
2478.38706,0.01497
2476.32688,0.01506
2474.26671,0.01495
2472.20654,0.01463
2470.14637,0.01432
2468.08620,0.01416
2466.02602,0.01418
2463.96585,0.01422
2461.90568,0.01416
2459.84551,0.01422
2457.78534,0.01445
2455.72516,0.01451
2453.66499,0.01424
2451.60482,0.01381
2449.54465,0.01346
2447.48447,0.01322
2445.42430,0.01309
2443.36413,0.01321
2441.30396,0.01328
2439.24379,0.01324
2437.18361,0.01339
2435.12344,0.01351
2433.06327,0.01333
2431.00310,0.01298
2428.94293,0.01287
2426.88275,0.01324
2424.82258,0.01369
2422.76241,0.01369
2420.70224,0.01329
2418.64207,0.01286
2416.58189,0.01269
2414.52172,0.01276
2412.46155,0.01296
2410.40138,0.01307
2408.34120,0.01296
2406.28103,0.01295
2404.22086,0.01311
2402.16069,0.01306
2400.10052,0.01280
2398.04034,0.01263
2395.98017,0.01253
2393.92000,0.01236
2391.85983,0.01209
2389.79966,0.01190
2387.73948,0.01194
2385.67931,0.01199
2383.61914,0.01192
2381.55897,0.01166
2379.49880,0.01120
2377.43862,0.01082
2375.37845,0.01112
2373.31828,0.01145
2371.25811,0.01115
2369.19793,0.01089
2367.13776,0.01051
2365.07759,0.00932
2363.01742,0.00802
2360.95725,0.00672
2358.89707,0.00812
2356.83690,0.01072
2354.77673,0.01277
2352.71656,0.01335
2350.65639,0.01076
2348.59621,0.00908
2346.53604,0.01194
2344.47587,0.01253
2342.41570,0.01097
2340.35552,0.00988
2338.29535,0.00979
2336.23518,0.01016
2334.17501,0.00998
2332.11484,0.00984
2330.05466,0.01021
2327.99449,0.01117
2325.93432,0.01136
2323.87415,0.01160
2321.81398,0.01194
2319.75380,0.01231
2317.69363,0.01184
2315.63346,0.01156
2313.57329,0.01143
2311.51312,0.01106
2309.45294,0.01098
2307.39277,0.01151
2305.33260,0.01191
2303.27243,0.01157
2301.21225,0.01100
2299.15208,0.01065
2297.09191,0.01064
2295.03174,0.01071
2292.97157,0.01059
2290.91139,0.01042
2288.85122,0.01044
2286.79105,0.01052
2284.73088,0.01058
2282.67071,0.01080
2280.61053,0.01114
2278.55036,0.01137
2276.49019,0.01123
2274.43002,0.01061
2272.36984,0.01005
2270.30967,0.01012
2268.24950,0.01064
2266.18933,0.01096
2264.12916,0.01087
2262.06898,0.01068
2260.00881,0.01034
2257.94864,0.00985
2255.88847,0.00945
2253.82830,0.00895
2251.76812,0.00846
2249.70795,0.00837
2247.64778,0.00848
2245.58761,0.00862
2243.52744,0.00905
2241.46726,0.00973
2239.40709,0.01031
2237.34692,0.01020
2235.28675,0.00959
2233.22657,0.00924
2231.16640,0.00900
2229.10623,0.00867
2227.04606,0.00859
2224.98589,0.00884
2222.92571,0.00909
2220.86554,0.00910
2218.80537,0.00910
2216.74520,0.00913
2214.68503,0.00869
2212.62485,0.00797
2210.56468,0.00786
2208.50451,0.00834
2206.44434,0.00874
2204.38417,0.00859
2202.32399,0.00818
2200.26382,0.00802
2198.20365,0.00801
2196.14348,0.00830
2194.08330,0.00929
2192.02313,0.01022
2189.96296,0.01022
2187.90279,0.00944
2185.84262,0.00814
2183.78244,0.00682
2181.72227,0.00676
2179.66210,0.00770
2177.60193,0.00770
2175.54176,0.00703
2173.48158,0.00718
2171.42141,0.00776
2169.36124,0.00818
2167.30107,0.00877
2165.24089,0.00898
2163.18072,0.00809
2161.12055,0.00625
2159.06038,0.00417
2157.00021,0.00324
2154.94003,0.00403
2152.87986,0.00557
2150.81969,0.00636
2148.75952,0.00598
2146.69935,0.00587
2144.63917,0.00695
2142.57900,0.00806
2140.51883,0.00854
2138.45866,0.00879
2136.39849,0.00883
2134.33831,0.00840
2132.27814,0.00763
2130.21797,0.00718
2128.15780,0.00709
2126.09762,0.00742
2124.03745,0.00837
2121.97728,0.00917
2119.91711,0.00929
2117.85694,0.00910
2115.79676,0.00888
2113.73659,0.00878
2111.67642,0.00858
2109.61625,0.00829
2107.55608,0.00828
2105.49590,0.00824
2103.43573,0.00810
2101.37556,0.00819
2099.31539,0.00843
2097.25521,0.00844
2095.19504,0.00812
2093.13487,0.00776
2091.07470,0.00766
2089.01453,0.00807
2086.95435,0.00839
2084.89418,0.00801
2082.83401,0.00772
2080.77384,0.00793
2078.71367,0.00791
2076.65349,0.00750
2074.59332,0.00726
2072.53315,0.00748
2070.47298,0.00784
2068.41281,0.00780
2066.35263,0.00741
2064.29246,0.00689
2062.23229,0.00633
2060.17212,0.00606
2058.11194,0.00600
2056.05177,0.00606
2053.99160,0.00637
2051.93143,0.00671
2049.87126,0.00676
2047.81108,0.00678
2045.75091,0.00731
2043.69074,0.00818
2041.63057,0.00830
2039.57040,0.00658
2037.51022,0.00426
2035.45005,0.00359
2033.38988,0.00400
2031.32971,0.00391
2029.26954,0.00387
2027.20936,0.00484
2025.14919,0.00578
2023.08902,0.00558
2021.02885,0.00508
2018.96867,0.00471
2016.90850,0.00418
2014.84833,0.00443
2012.78816,0.00564
2010.72799,0.00661
2008.66781,0.00643
2006.60764,0.00543
2004.54747,0.00487
2002.48730,0.00486
2000.42713,0.00508
1998.36695,0.00571
1996.30678,0.00587
1994.24661,0.00522
1992.18644,0.00500
1990.12626,0.00497
1988.06609,0.00426
1986.00592,0.00370
1983.94575,0.00404
1981.88558,0.00480
1979.82540,0.00491
1977.76523,0.00416
1975.70506,0.00379
1973.64489,0.00414
1971.58472,0.00455
1969.52454,0.00510
1967.46437,0.00547
1965.40420,0.00491
1963.34403,0.00404
1961.28386,0.00360
1959.22368,0.00357
1957.16351,0.00352
1955.10334,0.00328
1953.04317,0.00345
1950.98299,0.00404
1948.92282,0.00430
1946.86265,0.00425
1944.80248,0.00444
1942.74231,0.00462
1940.68213,0.00422
1938.62196,0.00364
1936.56179,0.00366
1934.50162,0.00402
1932.44145,0.00414
1930.38127,0.00425
1928.32110,0.00435
1926.26093,0.00429
1924.20076,0.00423
1922.14059,0.00402
1920.08041,0.00374
1918.02024,0.00373
1915.96007,0.00387
1913.89990,0.00401
1911.83972,0.00414
1909.77955,0.00408
1907.71938,0.00386
1905.65921,0.00372
1903.59904,0.00385
1901.53886,0.00418
1899.47869,0.00436
1897.41852,0.00419
1895.35835,0.00403
1893.29818,0.00422
1891.23800,0.00439
1889.17783,0.00411
1887.11766,0.00374
1885.05749,0.00371
1882.99731,0.00386
1880.93714,0.00400
1878.87697,0.00411
1876.81680,0.00413
1874.75663,0.00397
1872.69645,0.00368
1870.63628,0.00338
1868.57611,0.00326
1866.51594,0.00348
1864.45577,0.00380
1862.39559,0.00392
1860.33542,0.00388
1858.27525,0.00374
1856.21508,0.00351
1854.15491,0.00331
1852.09473,0.00324
1850.03456,0.00332
1847.97439,0.00347
1845.91422,0.00348
1843.85404,0.00319
1841.79387,0.00292
1839.73370,0.00290
1837.67353,0.00302
1835.61336,0.00316
1833.55318,0.00326
1831.49301,0.00321
1829.43284,0.00305
1827.37267,0.00291
1825.31250,0.00291
1823.25232,0.00301
1821.19215,0.00294
1819.13198,0.00272
1817.07181,0.00261
1815.01163,0.00274
1812.95146,0.00291
1810.89129,0.00292
1808.83112,0.00282
1806.77095,0.00279
1804.71077,0.00280
1802.65060,0.00277
1800.59043,0.00274
1798.53026,0.00270
1796.47009,0.00257
1794.40991,0.00249
1792.34974,0.00269
1790.28957,0.00296
1788.22940,0.00305
1786.16923,0.00300
1784.10905,0.00290
1782.04888,0.00286
1779.98871,0.00285
1777.92854,0.00289
1775.86836,0.00301
1773.80819,0.00314
1771.74802,0.00308
1769.68785,0.00305
1767.62768,0.00329
1765.56750,0.00367
1763.50733,0.00419
1761.44716,0.00503
1759.38699,0.00600
1757.32682,0.00680
1755.26664,0.00752
1753.20647,0.00841
1751.14630,0.00977
1749.08613,0.01177
1747.02596,0.01409
1744.96578,0.01661
1742.90561,0.01973
1740.84544,0.02375
1738.78527,0.02816
1736.72509,0.03195
1734.66492,0.03494
1732.60475,0.03728
1730.54458,0.03871
1728.48441,0.03921
1726.42423,0.03908
1724.36406,0.03868
1722.30389,0.03829
1720.24372,0.03798
1718.18355,0.03746
1716.12337,0.03673
1714.06320,0.03638
1712.00303,0.03650
1709.94286,0.03668
1707.88268,0.03643
1705.82251,0.03555
1703.76234,0.03458
1701.70217,0.03374
1699.64200,0.03275
1697.58182,0.03191
1695.52165,0.03117
1693.46148,0.03063
1691.40131,0.03044
1689.34114,0.03033
1687.28096,0.03013
1685.22079,0.02957
1683.16062,0.02881
1681.10045,0.02860
1679.04028,0.02887
1676.98010,0.02915
1674.91993,0.02926
1672.85976,0.02932
1670.79959,0.02953
1668.73941,0.03002
1666.67924,0.03092
1664.61907,0.03201
1662.55890,0.03300
1660.49873,0.03399
1658.43855,0.03518
1656.37838,0.03644
1654.31821,0.03717
1652.25804,0.03724
1650.19787,0.03762
1648.13769,0.03808
1646.07752,0.03812
1644.01735,0.03839
1641.95718,0.03905
1639.89701,0.03978
1637.83683,0.04030
1635.77666,0.04055
1633.71649,0.04097
1631.65632,0.04186
1629.59614,0.04286
1627.53597,0.04365
1625.47580,0.04415
1623.41563,0.04453
1621.35546,0.04521
1619.29528,0.04629
1617.23511,0.04724
1615.17494,0.04783
1613.11477,0.04851
1611.05460,0.04929
1608.99442,0.04981
1606.93425,0.05004
1604.87408,0.05011
1602.81391,0.04992
1600.75373,0.04941
1598.69356,0.04856
1596.63339,0.04727
1594.57322,0.04566
1592.51305,0.04398
1590.45287,0.04230
1588.39270,0.04061
1586.33253,0.03895
1584.27236,0.03726
1582.21219,0.03555
1580.15201,0.03404
1578.09184,0.03258
1576.03167,0.03077
1573.97150,0.02926
1571.91133,0.02840
1569.85115,0.02739
1567.79098,0.02626
1565.73081,0.02563
1563.67064,0.02542
1561.61046,0.02518
1559.55029,0.02436
1557.49012,0.02340
1555.42995,0.02335
1553.36978,0.02373
1551.30960,0.02404
1549.24943,0.02418
1547.18926,0.02434
1545.12909,0.02455
1543.06892,0.02445
1541.00874,0.02377
1538.94857,0.02311
1536.88840,0.02314
1534.82823,0.02310
1532.76805,0.02244
1530.70788,0.02175
1528.64771,0.02129
1526.58754,0.02078
1524.52737,0.02030
1522.46719,0.01986
1520.40702,0.01949
1518.34685,0.01940
1516.28668,0.01946
1514.22651,0.01956
1512.16633,0.01961
1510.10616,0.01921
1508.04599,0.01755
1505.98582,0.01491
1503.92565,0.01346
1501.86547,0.01314
1499.80530,0.01271
1497.74513,0.01150
1495.68496,0.00986
1493.62478,0.00880
1491.56461,0.00816
1489.50444,0.00727
1487.44427,0.00639
1485.38410,0.00615
1483.32392,0.00640
1481.26375,0.00678
1479.20358,0.00736
1477.14341,0.00853
1475.08324,0.01052
1473.02306,0.01314
1470.96289,0.01590
1468.90272,0.01839
1466.84255,0.02062
1464.78238,0.02262
1462.72220,0.02424
1460.66203,0.02545
1458.60186,0.02649
1456.54169,0.02776
1454.48151,0.02922
1452.42134,0.03055
1450.36117,0.03172
1448.30100,0.03276
1446.24083,0.03358
1444.18065,0.03410
1442.12048,0.03423
1440.06031,0.03394
1438.00014,0.03301
1435.93997,0.03138
1433.87979,0.02995
1431.81962,0.02890
1429.75945,0.02771
1427.69928,0.02666
1425.63910,0.02614
1423.57893,0.02594
1421.51876,0.02589
1419.45859,0.02582
1417.39842,0.02566
1415.33824,0.02558
1413.27807,0.02550
1411.21790,0.02526
1409.15773,0.02504
1407.09756,0.02495
1405.03738,0.02492
1402.97721,0.02493
1400.91704,0.02504
1398.85687,0.02519
1396.79670,0.02539
1394.73652,0.02566
1392.67635,0.02607
1390.61618,0.02664
1388.55601,0.02727
1386.49583,0.02791
1384.43566,0.02867
1382.37549,0.02960
1380.31532,0.03060
1378.25515,0.03156
1376.19497,0.03238
1374.13480,0.03307
1372.07463,0.03371
1370.01446,0.03427
1367.95429,0.03463
1365.89411,0.03482
1363.83394,0.03492
1361.77377,0.03500
1359.71360,0.03524
1357.65343,0.03558
1355.59325,0.03586
1353.53308,0.03615
1351.47291,0.03657
1349.41274,0.03701
1347.35256,0.03740
1345.29239,0.03784
1343.23222,0.03830
1341.17205,0.03864
1339.11188,0.03886
1337.05170,0.03917
1334.99153,0.03973
1332.93136,0.04038
1330.87119,0.04100
1328.81102,0.04159
1326.75084,0.04221
1324.69067,0.04289
1322.63050,0.04352
1320.57033,0.04392
1318.51015,0.04401
1316.44998,0.04388
1314.38981,0.04352
1312.32964,0.04289
1310.26947,0.04209
1308.20929,0.04111
1306.14912,0.03989
1304.08895,0.03841
1302.02878,0.03666
1299.96861,0.03475
1297.90843,0.03288
1295.84826,0.03113
1293.78809,0.02957
1291.72792,0.02836
1289.66775,0.02742
1287.60757,0.02660
1285.54740,0.02595
1283.48723,0.02556
1281.42706,0.02534
1279.36688,0.02521
1277.30671,0.02522
1275.24654,0.02539
1273.18637,0.02563
1271.12620,0.02594
1269.06602,0.02631
1267.00585,0.02677
1264.94568,0.02738
1262.88551,0.02798
1260.82534,0.02847
1258.76516,0.02899
1256.70499,0.02961
1254.64482,0.03023
1252.58465,0.03076
1250.52447,0.03123
1248.46430,0.03179
1246.40413,0.03257
1244.34396,0.03343
1242.28379,0.03422
1240.22361,0.03497
1238.16344,0.03560
1236.10327,0.03616
1234.04310,0.03685
1231.98293,0.03767
1229.92275,0.03853
1227.86258,0.03940
1225.80241,0.04029
1223.74224,0.04119
1221.68207,0.04197
1219.62189,0.04257
1217.56172,0.04326
1215.50155,0.04427
1213.44138,0.04535
1211.38120,0.04621
1209.32103,0.04699
1207.26086,0.04787
1205.20069,0.04879
1203.14052,0.04972
1201.08034,0.05064
1199.02017,0.05128
1196.96000,0.05162
1194.89983,0.05179
1192.83966,0.05177
1190.77948,0.05149
1188.71931,0.05093
1186.65914,0.05024
1184.59897,0.04958
1182.53880,0.04898
1180.47862,0.04842
1178.41845,0.04775
1176.35828,0.04703
1174.29811,0.04659
1172.23793,0.04642
1170.17776,0.04625
1168.11759,0.04601
1166.05742,0.04560
1163.99725,0.04491
1161.93707,0.04416
1159.87690,0.04360
1157.81673,0.04298
1155.75656,0.04207
1153.69639,0.04109
1151.63621,0.04023
1149.57604,0.03947
1147.51587,0.03870
1145.45570,0.03790
1143.39552,0.03708
1141.33535,0.03619
1139.27518,0.03537
1137.21501,0.03462
1135.15484,0.03389
1133.09466,0.03336
1131.03449,0.03311
1128.97432,0.03319
1126.91415,0.03371
1124.85398,0.03462
1122.79380,0.03579
1120.73363,0.03728
1118.67346,0.03907
1116.61329,0.04098
1114.55312,0.04323
1112.49294,0.04586
1110.43277,0.04834
1108.37260,0.05058
1106.31243,0.05283
1104.25225,0.05497
1102.19208,0.05692
1100.13191,0.05860
1098.07174,0.05985
1096.01157,0.06074
1093.95139,0.06166
1091.89122,0.06286
1089.83105,0.06422
1087.77088,0.06574
1085.71071,0.06758
1083.65053,0.06955
1081.59036,0.07155
1079.53019,0.07358
1077.47002,0.07546
1075.40985,0.07712
1073.34967,0.07849
1071.28950,0.07976
1069.22933,0.08116
1067.16916,0.08244
1065.10898,0.08346
1063.04881,0.08439
1060.98864,0.08532
1058.92847,0.08642
1056.86830,0.08766
1054.80812,0.08878
1052.74795,0.08995
1050.68778,0.09135
1048.62761,0.09279
1046.56744,0.09403
1044.50726,0.09514
1042.44709,0.09649
1040.38692,0.09806
1038.32675,0.09967
1036.26657,0.10134
1034.20640,0.10286
1032.14623,0.10412
1030.08606,0.10520
1028.02589,0.10584
1025.96571,0.10617
1023.90554,0.10640
1021.84537,0.10644
1019.78520,0.10628
1017.72503,0.10590
1015.66485,0.10543
1013.60468,0.10495
1011.54451,0.10394
1009.48434,0.10214
1007.42417,0.10020
1005.36399,0.09840
1003.30382,0.09644
1001.24365,0.09408
999.18348,0.09149
997.12330,0.08908
995.06313,0.08681
993.00296,0.08446
990.94279,0.08203
988.88262,0.07965
986.82244,0.07720
984.76227,0.07431
982.70210,0.07120
980.64193,0.06823
978.58176,0.06515
976.52158,0.06210
974.46141,0.05949
972.40124,0.05718
970.34107,0.05484
968.28089,0.05258
966.22072,0.05076
964.16055,0.04929
962.10038,0.04782
960.04021,0.04626
957.98003,0.04450
955.91986,0.04243
953.85969,0.04022
951.79952,0.03803
949.73935,0.03588
947.67917,0.03384
945.61900,0.03188
943.55883,0.03011
941.49866,0.02890
939.43849,0.02805
937.37831,0.02712
935.31814,0.02621
933.25797,0.02550
931.19780,0.02488
929.13762,0.02416
927.07745,0.02331
925.01728,0.02240
922.95711,0.02154
920.89694,0.02052
918.83676,0.01926
916.77659,0.01810
914.71642,0.01700
912.65625,0.01563
910.59608,0.01418
908.53590,0.01294
906.47573,0.01183
904.41556,0.01092
902.35539,0.01034
900.29522,0.00999
898.23504,0.00969
896.17487,0.00953
894.11470,0.00957
892.05453,0.00935
889.99435,0.00871
887.93418,0.00819
885.87401,0.00782
883.81384,0.00743
881.75367,0.00750
879.69349,0.00808
877.63332,0.00888
875.57315,0.00980
873.51298,0.01053
871.45281,0.01082
869.39263,0.01061
867.33246,0.01002
865.27229,0.00925
863.21212,0.00802
861.15194,0.00636
859.09177,0.00497
857.03160,0.00418
854.97143,0.00371
852.91126,0.00317
850.85108,0.00262
848.79091,0.00219
846.73074,0.00193
844.67057,0.00180
842.61040,0.00185
840.55022,0.00225
838.49005,0.00291
836.42988,0.00360
834.36971,0.00424
832.30954,0.00459
830.24936,0.00464
828.18919,0.00465
826.12902,0.00470
824.06885,0.00489
822.00867,0.00535
819.94850,0.00580
817.88833,0.00576
815.82816,0.00544
813.76799,0.00529
811.70781,0.00513
809.64764,0.00460
807.58747,0.00390
805.52730,0.00359
803.46713,0.00354
801.40695,0.00318
799.34678,0.00241
797.28661,0.00188
795.22644,0.00175
793.16627,0.00206
791.10609,0.00238
789.04592,0.00261
786.98575,0.00300
784.92558,0.00337
782.86540,0.00343
780.80523,0.00381
778.74506,0.00464
776.68489,0.00517
774.62472,0.00533
772.56454,0.00544
770.50437,0.00611
768.44420,0.00780
766.38403,0.00985
764.32386,0.01191
762.26368,0.01389
760.20351,0.01529
758.14334,0.01597
756.08317,0.01581
754.02299,0.01524
751.96282,0.01482
749.90265,0.01403
747.84248,0.01270
745.78231,0.01137
743.72213,0.01028
741.66196,0.00934
739.60179,0.00859
737.54162,0.00838
735.48145,0.00839
733.42127,0.00821
731.36110,0.00807
729.30093,0.00786
727.24076,0.00725
725.18059,0.00661
723.12041,0.00637
721.06024,0.00687
719.00007,0.00672
716.93990,0.00607
714.87972,0.00554
712.81955,0.00519
710.75938,0.00502
708.69921,0.00511
706.63904,0.00546
704.57886,0.00586
702.51869,0.00629
700.45852,0.00650
698.39835,0.00612
696.33818,0.00542
694.27800,0.00480
692.21783,0.00391
690.15766,0.00261
688.09749,0.00177
686.03731,0.00189
683.97714,0.00245
681.91697,0.00283
679.85680,0.00298
677.79663,0.00287
675.73645,0.00294
673.67628,0.00313
671.61611,0.00327
669.55594,0.00745
667.49577,0.01008
665.43559,0.00350
663.37542,0.00300
661.31525,0.00366
659.25508,0.00313
657.19491,0.00292
655.13473,0.00337
653.07456,0.00303
651.01439,0.00194
648.95422,0.00173
646.89404,0.00239
644.83387,0.00318
642.77370,0.00306
640.71353,0.00230
638.65336,0.00149
636.59318,0.00108
634.53301,0.00141
632.47284,0.00178
630.41267,0.00140
628.35250,0.00055
626.29232,0.00008
624.23215,0.00091
622.17198,0.00288
620.11181,0.00503
618.05164,0.00580
615.99146,0.00503
613.93129,0.00401
611.87112,0.00341
609.81095,0.00366
607.75077,0.00360
605.69060,0.00200
603.63043,0.00012
601.57026,0.00000
599.51009,0.00000
