3996.73391,0.00039
3994.67373,0.00049
3992.61356,0.00100
3990.55339,0.00150
3988.49322,0.00162
3986.43305,0.00158
3984.37287,0.00147
3982.31270,0.00132
3980.25253,0.00118
3978.19236,0.00085
3976.13219,0.00032
3974.07201,0.00000
3972.01184,0.00017
3969.95167,0.00043
3967.89150,0.00061
3965.83133,0.00078
3963.77115,0.00083
3961.71098,0.00075
3959.65081,0.00074
3957.59064,0.00086
3955.53046,0.00111
3953.47029,0.00134
3951.41012,0.00141
3949.34995,0.00136
3947.28978,0.00138
3945.22960,0.00146
3943.16943,0.00141
3941.10926,0.00122
3939.04909,0.00118
3936.98892,0.00124
3934.92874,0.00117
3932.86857,0.00104
3930.80840,0.00113
3928.74823,0.00146
3926.68805,0.00165
3924.62788,0.00148
3922.56771,0.00131
3920.50754,0.00119
3918.44737,0.00082
3916.38719,0.00041
3914.32702,0.00032
3912.26685,0.00051
3910.20668,0.00077
3908.14651,0.00092
3906.08633,0.00080
3904.02616,0.00038
3901.96599,0.00000
3899.90582,0.00007
3897.84565,0.00036
3895.78547,0.00043
3893.72530,0.00042
3891.66513,0.00083
3889.60496,0.00143
3887.54478,0.00157
3885.48461,0.00138
3883.42444,0.00133
3881.36427,0.00137
3879.30410,0.00143
3877.24392,0.00153
3875.18375,0.00152
3873.12358,0.00134
3871.06341,0.00117
3869.00324,0.00099
3866.94306,0.00078
3864.88289,0.00074
3862.82272,0.00075
3860.76255,0.00057
3858.70237,0.00047
3856.64220,0.00065
3854.58203,0.00074
3852.52186,0.00051
3850.46169,0.00057
3848.40151,0.00094
3846.34134,0.00125
3844.28117,0.00143
3842.22100,0.00163
3840.16083,0.00185
3838.10065,0.00189
3836.04048,0.00163
3833.98031,0.00147
3831.92014,0.00149
3829.85997,0.00148
3827.79979,0.00153
3825.73962,0.00161
3823.67945,0.00152
3821.61928,0.00131
3819.55910,0.00137
3817.49893,0.00172
3815.43876,0.00189
3813.37859,0.00168
3811.31842,0.00127
3809.25824,0.00084
3807.19807,0.00079
3805.13790,0.00131
3803.07773,0.00173
3801.01756,0.00151
3798.95738,0.00102
3796.89721,0.00064
3794.83704,0.00057
3792.77687,0.00098
3790.71670,0.00166
3788.65652,0.00204
3786.59635,0.00191
3784.53618,0.00165
3782.47601,0.00163
3780.41583,0.00164
3778.35566,0.00150
3776.29549,0.00136
3774.23532,0.00116
3772.17515,0.00093
3770.11497,0.00092
3768.05480,0.00110
3765.99463,0.00132
3763.93446,0.00145
3761.87429,0.00143
3759.81411,0.00150
3757.75394,0.00180
3755.69377,0.00206
3753.63360,0.00211
3751.57342,0.00192
3749.51325,0.00164
3747.45308,0.00182
3745.39291,0.00252
3743.33274,0.00289
3741.27256,0.00240
3739.21239,0.00143
3737.15222,0.00046
3735.09205,0.00000
3733.03188,0.00035
3730.97170,0.00111
3728.91153,0.00179
3726.85136,0.00198
3724.79119,0.00178
3722.73102,0.00173
3720.67084,0.00185
3718.61067,0.00188
3716.55050,0.00198
3714.49033,0.00220
3712.43015,0.00214
3710.36998,0.00168
3708.30981,0.00142
3706.24964,0.00147
3704.18947,0.00139
3702.12929,0.00114
3700.06912,0.00114
3698.00895,0.00150
3695.94878,0.00184
3693.88861,0.00178
3691.82843,0.00135
3689.76826,0.00109
3687.70809,0.00143
3685.64792,0.00190
3683.58775,0.00206
3681.52757,0.00205
3679.46740,0.00214
3677.40723,0.00223
3675.34706,0.00221
3673.28688,0.00234
3671.22671,0.00254
3669.16654,0.00245
3667.10637,0.00226
3665.04620,0.00226
3662.98602,0.00225
3660.92585,0.00222
3658.86568,0.00243
3656.80551,0.00285
3654.74534,0.00328
3652.68516,0.00373
3650.62499,0.00405
3648.56482,0.00397
3646.50465,0.00383
3644.44447,0.00404
3642.38430,0.00457
3640.32413,0.00529
3638.26396,0.00610
3636.20379,0.00667
3634.14361,0.00661
3632.08344,0.00629
3630.02327,0.00652
3627.96310,0.00712
3625.90293,0.00734
3623.84275,0.00726
3621.78258,0.00720
3619.72241,0.00761
3617.66224,0.00832
3615.60207,0.00847
3613.54189,0.00828
3611.48172,0.00866
3609.42155,0.00955
3607.36138,0.01039
3605.30120,0.01101
3603.24103,0.01116
3601.18086,0.01087
3599.12069,0.01073
3597.06052,0.01108
3595.00034,0.01171
3592.94017,0.01224
3590.88000,0.01236
3588.81983,0.01234
3586.75966,0.01263
3584.69948,0.01320
3582.63931,0.01385
3580.57914,0.01434
3578.51897,0.01453
3576.45879,0.01453
3574.39862,0.01450
3572.33845,0.01457
3570.27828,0.01469
3568.21811,0.01488
3566.15793,0.01552
3564.09776,0.01664
3562.03759,0.01756
3559.97742,0.01810
3557.91725,0.01860
3555.85707,0.01915
3553.79690,0.01954
3551.73673,0.01964
3549.67656,0.01952
3547.61639,0.01951
3545.55621,0.01999
3543.49604,0.02088
3541.43587,0.02159
3539.37570,0.02180
3537.31552,0.02166
3535.25535,0.02155
3533.19518,0.02179
3531.13501,0.02229
3529.07484,0.02273
3527.01466,0.02311
3524.95449,0.02362
3522.89432,0.02423
3520.83415,0.02475
3518.77398,0.02516
3516.71380,0.02541
3514.65363,0.02543
3512.59346,0.02551
3510.53329,0.02590
3508.47312,0.02644
3506.41294,0.02686
3504.35277,0.02692
3502.29260,0.02672
3500.23243,0.02664
3498.17225,0.02687
3496.11208,0.02743
3494.05191,0.02817
3491.99174,0.02886
3489.93157,0.02932
3487.87139,0.02945
3485.81122,0.02945
3483.75105,0.02959
3481.69088,0.02997
3479.63071,0.03044
3477.57053,0.03072
3475.51036,0.03091
3473.45019,0.03107
3471.39002,0.03123
3469.32984,0.03163
3467.26967,0.03216
3465.20950,0.03249
3463.14933,0.03260
3461.08916,0.03265
3459.02898,0.03296
3456.96881,0.03346
3454.90864,0.03377
3452.84847,0.03403
3450.78830,0.03458
3448.72812,0.03501
3446.66795,0.03499
3444.60778,0.03500
3442.54761,0.03526
3440.48744,0.03551
3438.42726,0.03579
3436.36709,0.03613
3434.30692,0.03628
3432.24675,0.03630
3430.18657,0.03648
3428.12640,0.03684
3426.06623,0.03718
3424.00606,0.03738
3421.94589,0.03740
3419.88571,0.03719
3417.82554,0.03694
3415.76537,0.03723
3413.70520,0.03807
3411.64503,0.03862
3409.58485,0.03862
3407.52468,0.03849
3405.46451,0.03845
3403.40434,0.03858
3401.34416,0.03886
3399.28399,0.03923
3397.22382,0.03957
3395.16365,0.03938
3393.10348,0.03906
3391.04330,0.03931
3388.98313,0.03966
3386.92296,0.03970
3384.86279,0.03978
3382.80262,0.03996
3380.74244,0.04002
3378.68227,0.04003
3376.62210,0.04023
3374.56193,0.04050
3372.50176,0.04066
3370.44158,0.04095
3368.38141,0.04145
3366.32124,0.04191
3364.26107,0.04217
3362.20089,0.04214
3360.14072,0.04194
3358.08055,0.04184
3356.02038,0.04179
3353.96021,0.04166
3351.90003,0.04167
3349.83986,0.04183
3347.77969,0.04195
3345.71952,0.04215
3343.65935,0.04251
3341.59917,0.04283
3339.53900,0.04282
3337.47883,0.04264
3335.41866,0.04264
3333.35849,0.04280
3331.29831,0.04289
3329.23814,0.04271
3327.17797,0.04228
3325.11780,0.04206
3323.05762,0.04231
3320.99745,0.04274
3318.93728,0.04314
3316.87711,0.04333
3314.81694,0.04345
3312.75676,0.04375
3310.69659,0.04374
3308.63642,0.04335
3306.57625,0.04325
3304.51608,0.04345
3302.45590,0.04342
3300.39573,0.04340
3298.33556,0.04374
3296.27539,0.04416
3294.21521,0.04438
3292.15504,0.04440
3290.09487,0.04433
3288.03470,0.04418
3285.97453,0.04411
3283.91435,0.04400
3281.85418,0.04364
3279.79401,0.04339
3277.73384,0.04347
3275.67367,0.04362
3273.61349,0.04371
3271.55332,0.04384
3269.49315,0.04393
3267.43298,0.04389
3265.37281,0.04386
3263.31263,0.04396
3261.25246,0.04422
3259.19229,0.04449
3257.13212,0.04459
3255.07194,0.04466
3253.01177,0.04478
3250.95160,0.04470
3248.89143,0.04464
3246.83126,0.04478
3244.77108,0.04486
3242.71091,0.04486
3240.65074,0.04484
3238.59057,0.04462
3236.53040,0.04421
3234.47022,0.04383
3232.41005,0.04367
3230.34988,0.04393
3228.28971,0.04443
3226.22954,0.04470
3224.16936,0.04459
3222.10919,0.04433
3220.04902,0.04426
3217.98885,0.04426
3215.92867,0.04406
3213.86850,0.04381
3211.80833,0.04368
3209.74816,0.04353
3207.68799,0.04344
3205.62781,0.04347
3203.56764,0.04347
3201.50747,0.04342
3199.44730,0.04341
3197.38713,0.04341
3195.32695,0.04344
3193.26678,0.04356
3191.20661,0.04352
3189.14644,0.04319
3187.08626,0.04285
3185.02609,0.04283
3182.96592,0.04295
3180.90575,0.04287
3178.84558,0.04243
3176.78540,0.04175
3174.72523,0.04132
3172.66506,0.04143
3170.60489,0.04169
3168.54472,0.04172
3166.48454,0.04159
3164.42437,0.04152
3162.36420,0.04157
3160.30403,0.04153
3158.24386,0.04119
3156.18368,0.04089
3154.12351,0.04099
3152.06334,0.04114
3150.00317,0.04108
3147.94299,0.04087
3145.88282,0.04062
3143.82265,0.04040
3141.76248,0.04030
3139.70231,0.04026
3137.64213,0.04009
3135.58196,0.03957
3133.52179,0.03902
3131.46162,0.03893
3129.40145,0.03902
3127.34127,0.03876
3125.28110,0.03841
3123.22093,0.03844
3121.16076,0.03867
3119.10058,0.03866
3117.04041,0.03845
3114.98024,0.03838
3112.92007,0.03834
3110.85990,0.03818
3108.79972,0.03803
3106.73955,0.03793
3104.67938,0.03782
3102.61921,0.03778
3100.55904,0.03764
3098.49886,0.03732
3096.43869,0.03704
3094.37852,0.03687
3092.31835,0.03676
3090.25818,0.03669
3088.19800,0.03660
3086.13783,0.03644
3084.07766,0.03628
3082.01749,0.03602
3079.95731,0.03573
3077.89714,0.03571
3075.83697,0.03570
3073.77680,0.03535
3071.71663,0.03485
3069.65645,0.03464
3067.59628,0.03471
3065.53611,0.03471
3063.47594,0.03461
3061.41577,0.03440
3059.35559,0.03393
3057.29542,0.03350
3055.23525,0.03336
3053.17508,0.03326
3051.11491,0.03308
3049.05473,0.03299
3046.99456,0.03298
3044.93439,0.03299
3042.87422,0.03302
3040.81404,0.03281
3038.75387,0.03243
3036.69370,0.03226
3034.63353,0.03219
3032.57336,0.03202
3030.51318,0.03185
3028.45301,0.03160
3026.39284,0.03123
3024.33267,0.03106
3022.27250,0.03102
3020.21232,0.03084
3018.15215,0.03066
3016.09198,0.03057
3014.03181,0.03049
3011.97163,0.03029
3009.91146,0.03001
3007.85129,0.02970
3005.79112,0.02934
3003.73095,0.02913
3001.67077,0.02903
2999.61060,0.02878
2997.55043,0.02853
2995.49026,0.02858
2993.43009,0.02865
2991.36991,0.02859
2989.30974,0.02853
2987.24957,0.02839
2985.18940,0.02814
2983.12923,0.02790
2981.06905,0.02793
2979.00888,0.02829
2976.94871,0.02860
2974.88854,0.02847
2972.82836,0.02798
2970.76819,0.02755
2968.70802,0.02742
2966.64785,0.02746
2964.58768,0.02758
2962.52750,0.02763
2960.46733,0.02761
2958.40716,0.02768
2956.34699,0.02773
2954.28682,0.02776
2952.22664,0.02791
2950.16647,0.02795
2948.10630,0.02788
2946.04613,0.02803
2943.98596,0.02819
2941.92578,0.02807
2939.86561,0.02798
2937.80544,0.02816
2935.74527,0.02815
2933.68509,0.02783
2931.62492,0.02777
2929.56475,0.02789
2927.50458,0.02791
2925.44441,0.02793
2923.38423,0.02796
2921.32406,0.02788
2919.26389,0.02767
2917.20372,0.02736
2915.14355,0.02719
2913.08337,0.02722
2911.02320,0.02713
2908.96303,0.02691
2906.90286,0.02684
2904.84268,0.02695
2902.78251,0.02691
2900.72234,0.02670
2898.66217,0.02656
2896.60200,0.02640
2894.54182,0.02624
2892.48165,0.02619
2890.42148,0.02621
2888.36131,0.02628
2886.30114,0.02634
2884.24096,0.02621
2882.18079,0.02591
2880.12062,0.02562
2878.06045,0.02556
2876.00028,0.02566
2873.94010,0.02564
2871.87993,0.02564
2869.81976,0.02575
2867.75959,0.02566
2865.69941,0.02535
2863.63924,0.02510
2861.57907,0.02506
2859.51890,0.02509
2857.45873,0.02502
2855.39855,0.02489
2853.33838,0.02479
2851.27821,0.02481
2849.21804,0.02480
2847.15787,0.02449
2845.09769,0.02414
2843.03752,0.02388
2840.97735,0.02365
2838.91718,0.02355
2836.85700,0.02343
2834.79683,0.02319
2832.73666,0.02304
2830.67649,0.02307
2828.61632,0.02306
2826.55614,0.02287
2824.49597,0.02255
2822.43580,0.02230
2820.37563,0.02237
2818.31546,0.02251
2816.25528,0.02242
2814.19511,0.02238
2812.13494,0.02245
2810.07477,0.02228
2808.01460,0.02182
2805.95442,0.02156
2803.89425,0.02163
2801.83408,0.02178
2799.77391,0.02188
2797.71373,0.02191
2795.65356,0.02185
2793.59339,0.02169
2791.53322,0.02158
2789.47305,0.02160
2787.41287,0.02154
2785.35270,0.02119
2783.29253,0.02082
2781.23236,0.02064
2779.17219,0.02061
2777.11201,0.02076
2775.05184,0.02086
2772.99167,0.02070
2770.93150,0.02051
2768.87133,0.02042
2766.81115,0.02034
2764.75098,0.02032
2762.69081,0.02031
2760.63064,0.02016
2758.57046,0.01994
2756.51029,0.01982
2754.45012,0.01984
2752.38995,0.01998
2750.32978,0.02011
2748.26960,0.01991
2746.20943,0.01946
2744.14926,0.01930
2742.08909,0.01951
2740.02892,0.01962
2737.96874,0.01939
2735.90857,0.01905
2733.84840,0.01886
2731.78823,0.01886
2729.72805,0.01900
2727.66788,0.01913
2725.60771,0.01917
2723.54754,0.01923
2721.48737,0.01921
2719.42719,0.01890
2717.36702,0.01850
2715.30685,0.01845
2713.24668,0.01860
2711.18651,0.01859
2709.12633,0.01838
2707.06616,0.01808
2705.00599,0.01780
2702.94582,0.01766
2700.88565,0.01764
2698.82547,0.01761
2696.76530,0.01754
2694.70513,0.01742
2692.64496,0.01741
2690.58478,0.01756
2688.52461,0.01758
2686.46444,0.01743
2684.40427,0.01713
2682.34410,0.01688
2680.28392,0.01681
2678.22375,0.01674
2676.16358,0.01660
2674.10341,0.01648
2672.04324,0.01642
2669.98306,0.01633
2667.92289,0.01611
2665.86272,0.01602
2663.80255,0.01608
2661.74238,0.01593
2659.68220,0.01561
2657.62203,0.01544
2655.56186,0.01555
2653.50169,0.01574
2651.44151,0.01576
2649.38134,0.01551
2647.32117,0.01510
2645.26100,0.01486
2643.20083,0.01484
2641.14065,0.01477
2639.08048,0.01461
2637.02031,0.01445
2634.96014,0.01433
2632.89997,0.01415
2630.83979,0.01393
2628.77962,0.01404
2626.71945,0.01439
2624.65928,0.01441
2622.59910,0.01411
2620.53893,0.01387
2618.47876,0.01367
2616.41859,0.01347
2614.35842,0.01333
2612.29824,0.01336
2610.23807,0.01346
2608.17790,0.01346
2606.11773,0.01330
2604.05756,0.01302
2601.99738,0.01295
2599.93721,0.01320
2597.87704,0.01338
2595.81687,0.01320
2593.75670,0.01292
2591.69652,0.01276
2589.63635,0.01257
2587.57618,0.01255
2585.51601,0.01276
2583.45583,0.01259
2581.39566,0.01205
2579.33549,0.01148
2577.27532,0.01103
2575.21515,0.01103
2573.15497,0.01123
2571.09480,0.01141
2569.03463,0.01178
2566.97446,0.01200
2564.91429,0.01172
2562.85411,0.01148
2560.79394,0.01160
2558.73377,0.01160
2556.67360,0.01126
2554.61342,0.01098
2552.55325,0.01112
2550.49308,0.01157
2548.43291,0.01192
2546.37274,0.01187
2544.31256,0.01170
2542.25239,0.01182
2540.19222,0.01202
2538.13205,0.01192
2536.07188,0.01157
2534.01170,0.01123
2531.95153,0.01110
2529.89136,0.01124
2527.83119,0.01147
2525.77102,0.01153
2523.71084,0.01154
2521.65067,0.01163
2519.59050,0.01156
2517.53033,0.01140
2515.47015,0.01123
2513.40998,0.01094
2511.34981,0.01096
2509.28964,0.01123
2507.22947,0.01136
2505.16929,0.01144
2503.10912,0.01156
2501.04895,0.01168
2498.98878,0.01178
2496.92861,0.01181
2494.86843,0.01174
2492.80826,0.01160
2490.74809,0.01149
2488.68792,0.01156
2486.62775,0.01180
2484.56757,0.01193
2482.50740,0.01205
2480.44723,0.01238
2478.38706,0.01279
2476.32688,0.01296
2474.26671,0.01269
2472.20654,0.01224
2470.14637,0.01208
2468.08620,0.01233
2466.02602,0.01268
2463.96585,0.01261
2461.90568,0.01241
2459.84551,0.01249
2457.78534,0.01274
2455.72516,0.01301
2453.66499,0.01311
2451.60482,0.01290
2449.54465,0.01253
2447.48447,0.01230
2445.42430,0.01220
2443.36413,0.01198
2441.30396,0.01165
2439.24379,0.01161
2437.18361,0.01196
2435.12344,0.01256
2433.06327,0.01307
2431.00310,0.01298
2428.94293,0.01266
2426.88275,0.01254
2424.82258,0.01219
2422.76241,0.01182
2420.70224,0.01171
2418.64207,0.01167
2416.58189,0.01183
2414.52172,0.01218
2412.46155,0.01262
2410.40138,0.01283
2408.34120,0.01261
2406.28103,0.01243
2404.22086,0.01256
2402.16069,0.01278
2400.10052,0.01277
2398.04034,0.01240
2395.98017,0.01224
2393.92000,0.01226
2391.85983,0.01224
2389.79966,0.01216
2387.73948,0.01215
2385.67931,0.01228
2383.61914,0.01241
2381.55897,0.01244
2379.49880,0.01245
2377.43862,0.01264
2375.37845,0.01330
2373.31828,0.01445
2371.25811,0.01597
2369.19793,0.01754
2367.13776,0.01756
2365.07759,0.01526
2363.01742,0.01325
2360.95725,0.01335
2358.89707,0.01359
2356.83690,0.01331
2354.77673,0.01425
2352.71656,0.01573
2350.65639,0.01607
2348.59621,0.01560
2346.53604,0.01528
2344.47587,0.01505
2342.41570,0.01454
2340.35552,0.01463
2338.29535,0.01566
2336.23518,0.01635
2334.17501,0.01621
2332.11484,0.01538
2330.05466,0.01451
2327.99449,0.01420
2325.93432,0.01400
2323.87415,0.01342
2321.81398,0.01266
2319.75380,0.01209
2317.69363,0.01207
2315.63346,0.01271
2313.57329,0.01324
2311.51312,0.01310
2309.45294,0.01278
2307.39277,0.01253
2305.33260,0.01226
2303.27243,0.01204
2301.21225,0.01164
2299.15208,0.01113
2297.09191,0.01108
2295.03174,0.01147
2292.97157,0.01176
2290.91139,0.01169
2288.85122,0.01148
2286.79105,0.01135
2284.73088,0.01117
2282.67071,0.01097
2280.61053,0.01087
2278.55036,0.01064
2276.49019,0.01028
2274.43002,0.01021
2272.36984,0.01045
2270.30967,0.01045
2268.24950,0.00985
2266.18933,0.00870
2264.12916,0.00753
2262.06898,0.00745
2260.00881,0.00854
2257.94864,0.00965
2255.88847,0.01013
2253.82830,0.00985
2251.76812,0.00920
2249.70795,0.00879
2247.64778,0.00853
2245.58761,0.00799
2243.52744,0.00754
2241.46726,0.00750
2239.40709,0.00734
2237.34692,0.00696
2235.28675,0.00754
2233.22657,0.00856
2231.16640,0.00842
2229.10623,0.00770
2227.04606,0.00763
2224.98589,0.00783
2222.92571,0.00768
2220.86554,0.00762
2218.80537,0.00792
2216.74520,0.00784
2214.68503,0.00705
2212.62485,0.00658
2210.56468,0.00735
2208.50451,0.00800
2206.44434,0.00683
2204.38417,0.00516
2202.32399,0.00488
2200.26382,0.00554
2198.20365,0.00601
2196.14348,0.00647
2194.08330,0.00666
2192.02313,0.00658
2189.96296,0.00727
2187.90279,0.00768
2185.84262,0.00621
2183.78244,0.00375
2181.72227,0.00358
2179.66210,0.00601
2177.60193,0.00736
2175.54176,0.00700
2173.48158,0.00677
2171.42141,0.00710
2169.36124,0.00716
2167.30107,0.00616
2165.24089,0.00556
2163.18072,0.00580
2161.12055,0.00469
2159.06038,0.00338
2157.00021,0.00454
2154.94003,0.00597
2152.87986,0.00547
2150.81969,0.00437
2148.75952,0.00356
2146.69935,0.00292
2144.63917,0.00323
2142.57900,0.00430
2140.51883,0.00498
2138.45866,0.00501
2136.39849,0.00488
2134.33831,0.00477
2132.27814,0.00486
2130.21797,0.00516
2128.15780,0.00557
2126.09762,0.00617
2124.03745,0.00645
2121.97728,0.00605
2119.91711,0.00581
2117.85694,0.00600
2115.79676,0.00624
2113.73659,0.00656
2111.67642,0.00662
2109.61625,0.00636
2107.55608,0.00609
2105.49590,0.00593
2103.43573,0.00603
2101.37556,0.00607
2099.31539,0.00550
2097.25521,0.00489
2095.19504,0.00507
2093.13487,0.00552
2091.07470,0.00578
2089.01453,0.00617
2086.95435,0.00640
2084.89418,0.00623
2082.83401,0.00609
2080.77384,0.00556
2078.71367,0.00442
2076.65349,0.00386
2074.59332,0.00467
2072.53315,0.00637
2070.47298,0.00770
2068.41281,0.00784
2066.35263,0.00689
2064.29246,0.00535
2062.23229,0.00423
2060.17212,0.00387
2058.11194,0.00381
2056.05177,0.00389
2053.99160,0.00414
2051.93143,0.00444
2049.87126,0.00485
2047.81108,0.00488
2045.75091,0.00309
2043.69074,0.00093
2041.63057,0.00132
2039.57040,0.00316
2037.51022,0.00430
2035.45005,0.00526
2033.38988,0.00670
2031.32971,0.00687
2029.26954,0.00467
2027.20936,0.00206
2025.14919,0.00050
2023.08902,0.00000
2021.02885,0.00086
2018.96867,0.00265
2016.90850,0.00396
2014.84833,0.00402
2012.78816,0.00325
2010.72799,0.00268
2008.66781,0.00230
2006.60764,0.00170
2004.54747,0.00139
2002.48730,0.00151
2000.42713,0.00215
1998.36695,0.00277
1996.30678,0.00235
1994.24661,0.00164
1992.18644,0.00199
1990.12626,0.00373
1988.06609,0.00534
1986.00592,0.00514
1983.94575,0.00423
1981.88558,0.00429
1979.82540,0.00494
1977.76523,0.00544
1975.70506,0.00612
1973.64489,0.00610
1971.58472,0.00430
1969.52454,0.00257
1967.46437,0.00219
1965.40420,0.00213
1963.34403,0.00218
1961.28386,0.00310
1959.22368,0.00414
1957.16351,0.00408
1955.10334,0.00343
1953.04317,0.00303
1950.98299,0.00310
1948.92282,0.00318
1946.86265,0.00321
1944.80248,0.00336
1942.74231,0.00313
1940.68213,0.00265
1938.62196,0.00265
1936.56179,0.00314
1934.50162,0.00348
1932.44145,0.00323
1930.38127,0.00282
1928.32110,0.00282
1926.26093,0.00302
1924.20076,0.00302
1922.14059,0.00308
1920.08041,0.00347
1918.02024,0.00379
1915.96007,0.00373
1913.89990,0.00338
1911.83972,0.00295
1909.77955,0.00285
1907.71938,0.00318
1905.65921,0.00366
1903.59904,0.00390
1901.53886,0.00371
1899.47869,0.00350
1897.41852,0.00361
1895.35835,0.00387
1893.29818,0.00401
1891.23800,0.00396
1889.17783,0.00389
1887.11766,0.00384
1885.05749,0.00344
1882.99731,0.00293
1880.93714,0.00293
1878.87697,0.00323
1876.81680,0.00336
1874.75663,0.00348
1872.69645,0.00364
1870.63628,0.00346
1868.57611,0.00289
1866.51594,0.00248
1864.45577,0.00256
1862.39559,0.00288
1860.33542,0.00315
1858.27525,0.00348
1856.21508,0.00381
1854.15491,0.00393
1852.09473,0.00385
1850.03456,0.00369
1847.97439,0.00339
1845.91422,0.00314
1843.85404,0.00328
1841.79387,0.00379
1839.73370,0.00420
1837.67353,0.00417
1835.61336,0.00370
1833.55318,0.00332
1831.49301,0.00355
1829.43284,0.00412
1827.37267,0.00427
1825.31250,0.00387
1823.25232,0.00351
1821.19215,0.00347
1819.13198,0.00361
1817.07181,0.00368
1815.01163,0.00354
1812.95146,0.00329
1810.89129,0.00323
1808.83112,0.00359
1806.77095,0.00414
1804.71077,0.00441
1802.65060,0.00435
1800.59043,0.00427
1798.53026,0.00424
1796.47009,0.00419
1794.40991,0.00407
1792.34974,0.00382
1790.28957,0.00374
1788.22940,0.00395
1786.16923,0.00406
1784.10905,0.00407
1782.04888,0.00424
1779.98871,0.00447
1777.92854,0.00452
1775.86836,0.00444
1773.80819,0.00452
1771.74802,0.00477
1769.68785,0.00468
1767.62768,0.00439
1765.56750,0.00440
1763.50733,0.00458
1761.44716,0.00478
1759.38699,0.00510
1757.32682,0.00535
1755.26664,0.00544
1753.20647,0.00554
1751.14630,0.00562
1749.08613,0.00557
1747.02596,0.00561
1744.96578,0.00592
1742.90561,0.00643
1740.84544,0.00695
1738.78527,0.00726
1736.72509,0.00729
1734.66492,0.00723
1732.60475,0.00732
1730.54458,0.00752
1728.48441,0.00764
1726.42423,0.00774
1724.36406,0.00792
1722.30389,0.00802
1720.24372,0.00789
1718.18355,0.00761
1716.12337,0.00751
1714.06320,0.00782
1712.00303,0.00810
1709.94286,0.00813
1707.88268,0.00812
1705.82251,0.00827
1703.76234,0.00859
1701.70217,0.00894
1699.64200,0.00913
1697.58182,0.00921
1695.52165,0.00956
1693.46148,0.01008
1691.40131,0.01043
1689.34114,0.01068
1687.28096,0.01099
1685.22079,0.01137
1683.16062,0.01189
1681.10045,0.01252
1679.04028,0.01308
1676.98010,0.01355
1674.91993,0.01394
1672.85976,0.01411
1670.79959,0.01426
1668.73941,0.01482
1666.67924,0.01553
1664.61907,0.01587
1662.55890,0.01599
1660.49873,0.01625
1658.43855,0.01656
1656.37838,0.01673
1654.31821,0.01697
1652.25804,0.01737
1650.19787,0.01764
1648.13769,0.01764
1646.07752,0.01746
1644.01735,0.01742
1641.95718,0.01751
1639.89701,0.01755
1637.83683,0.01758
1635.77666,0.01762
1633.71649,0.01755
1631.65632,0.01749
1629.59614,0.01756
1627.53597,0.01769
1625.47580,0.01780
1623.41563,0.01793
1621.35546,0.01811
1619.29528,0.01815
1617.23511,0.01801
1615.17494,0.01776
1613.11477,0.01745
1611.05460,0.01718
1608.99442,0.01705
1606.93425,0.01697
1604.87408,0.01675
1602.81391,0.01647
1600.75373,0.01631
1598.69356,0.01615
1596.63339,0.01587
1594.57322,0.01543
1592.51305,0.01484
1590.45287,0.01430
1588.39270,0.01392
1586.33253,0.01353
1584.27236,0.01299
1582.21219,0.01245
1580.15201,0.01200
1578.09184,0.01157
1576.03167,0.01113
1573.97150,0.01061
1571.91133,0.00997
1569.85115,0.00938
1567.79098,0.00905
1565.73081,0.00887
1563.67064,0.00865
1561.61046,0.00838
1559.55029,0.00798
1557.49012,0.00753
1555.42995,0.00731
1553.36978,0.00726
1551.30960,0.00715
1549.24943,0.00681
1547.18926,0.00630
1545.12909,0.00567
1543.06892,0.00499
1541.00874,0.00452
1538.94857,0.00450
1536.88840,0.00488
1534.82823,0.00529
1532.76805,0.00536
1530.70788,0.00503
1528.64771,0.00464
1526.58754,0.00436
1524.52737,0.00419
1522.46719,0.00406
1520.40702,0.00387
1518.34685,0.00370
1516.28668,0.00373
1514.22651,0.00376
1512.16633,0.00355
1510.10616,0.00330
1508.04599,0.00321
1505.98582,0.00326
1503.92565,0.00334
1501.86547,0.00331
1499.80530,0.00304
1497.74513,0.00272
1495.68496,0.00265
1493.62478,0.00279
1491.56461,0.00295
1489.50444,0.00322
1487.44427,0.00354
1485.38410,0.00362
1483.32392,0.00361
1481.26375,0.00371
1479.20358,0.00378
1477.14341,0.00365
1475.08324,0.00346
1473.02306,0.00365
1470.96289,0.00425
1468.90272,0.00476
1466.84255,0.00502
1464.78238,0.00515
1462.72220,0.00523
1460.66203,0.00520
1458.60186,0.00501
1456.54169,0.00495
1454.48151,0.00526
1452.42134,0.00556
1450.36117,0.00558
1448.30100,0.00542
1446.24083,0.00538
1444.18065,0.00559
1442.12048,0.00590
1440.06031,0.00603
1438.00014,0.00590
1435.93997,0.00577
1433.87979,0.00587
1431.81962,0.00608
1429.75945,0.00630
1427.69928,0.00655
1425.63910,0.00681
1423.57893,0.00705
1421.51876,0.00730
1419.45859,0.00750
1417.39842,0.00765
1415.33824,0.00777
1413.27807,0.00779
1411.21790,0.00768
1409.15773,0.00755
1407.09756,0.00743
1405.03738,0.00730
1402.97721,0.00715
1400.91704,0.00690
1398.85687,0.00656
1396.79670,0.00627
1394.73652,0.00613
1392.67635,0.00620
1390.61618,0.00635
1388.55601,0.00641
1386.49583,0.00649
1384.43566,0.00668
1382.37549,0.00686
1380.31532,0.00696
1378.25515,0.00694
1376.19497,0.00680
1374.13480,0.00666
1372.07463,0.00662
1370.01446,0.00662
1367.95429,0.00659
1365.89411,0.00650
1363.83394,0.00636
1361.77377,0.00614
1359.71360,0.00593
1357.65343,0.00589
1355.59325,0.00594
1353.53308,0.00579
1351.47291,0.00541
1349.41274,0.00513
1347.35256,0.00509
1345.29239,0.00513
1343.23222,0.00510
1341.17205,0.00496
1339.11188,0.00480
1337.05170,0.00476
1334.99153,0.00484
1332.93136,0.00488
1330.87119,0.00485
1328.81102,0.00478
1326.75084,0.00476
1324.69067,0.00486
1322.63050,0.00498
1320.57033,0.00500
1318.51015,0.00495
1316.44998,0.00489
1314.38981,0.00486
1312.32964,0.00486
1310.26947,0.00489
1308.20929,0.00488
1306.14912,0.00485
1304.08895,0.00491
1302.02878,0.00504
1299.96861,0.00507
1297.90843,0.00497
1295.84826,0.00500
1293.78809,0.00525
1291.72792,0.00541
1289.66775,0.00529
1287.60757,0.00515
1285.54740,0.00523
1283.48723,0.00545
1281.42706,0.00566
1279.36688,0.00574
1277.30671,0.00572
1275.24654,0.00567
1273.18637,0.00560
1271.12620,0.00556
1269.06602,0.00562
1267.00585,0.00565
1264.94568,0.00558
1262.88551,0.00548
1260.82534,0.00552
1258.76516,0.00571
1256.70499,0.00584
1254.64482,0.00583
1252.58465,0.00587
1250.52447,0.00590
1248.46430,0.00580
1246.40413,0.00564
1244.34396,0.00542
1242.28379,0.00513
1240.22361,0.00486
1238.16344,0.00467
1236.10327,0.00453
1234.04310,0.00439
1231.98293,0.00430
1229.92275,0.00413
1227.86258,0.00385
1225.80241,0.00360
1223.74224,0.00337
1221.68207,0.00316
1219.62189,0.00304
1217.56172,0.00293
1215.50155,0.00273
1213.44138,0.00250
1211.38120,0.00227
1209.32103,0.00206
1207.26086,0.00189
1205.20069,0.00170
1203.14052,0.00156
1201.08034,0.00163
1199.02017,0.00176
1196.96000,0.00191
1194.89983,0.00224
1192.83966,0.00265
1190.77948,0.00293
1188.71931,0.00326
1186.65914,0.00379
1184.59897,0.00449
1182.53880,0.00527
1180.47862,0.00602
1178.41845,0.00679
1176.35828,0.00759
1174.29811,0.00836
1172.23793,0.00920
1170.17776,0.01017
1168.11759,0.01108
1166.05742,0.01195
1163.99725,0.01302
1161.93707,0.01418
1159.87690,0.01521
1157.81673,0.01610
1155.75656,0.01682
1153.69639,0.01758
1151.63621,0.01852
1149.57604,0.01932
1147.51587,0.02003
1145.45570,0.02108
1143.39552,0.02228
1141.33535,0.02327
1139.27518,0.02435
1137.21501,0.02570
1135.15484,0.02693
1133.09466,0.02801
1131.03449,0.02924
1128.97432,0.03046
1126.91415,0.03136
1124.85398,0.03225
1122.79380,0.03333
1120.73363,0.03435
1118.67346,0.03530
1116.61329,0.03638
1114.55312,0.03751
1112.49294,0.03852
1110.43277,0.03952
1108.37260,0.04056
1106.31243,0.04167
1104.25225,0.04302
1102.19208,0.04443
1100.13191,0.04554
1098.07174,0.04656
1096.01157,0.04765
1093.95139,0.04872
1091.89122,0.04980
1089.83105,0.05078
1087.77088,0.05171
1085.71071,0.05267
1083.65053,0.05354
1081.59036,0.05437
1079.53019,0.05525
1077.47002,0.05605
1075.40985,0.05674
1073.34967,0.05743
1071.28950,0.05802
1069.22933,0.05835
1067.16916,0.05839
1065.10898,0.05828
1063.04881,0.05819
1060.98864,0.05820
1058.92847,0.05807
1056.86830,0.05776
1054.80812,0.05754
1052.74795,0.05727
1050.68778,0.05669
1048.62761,0.05583
1046.56744,0.05491
1044.50726,0.05395
1042.44709,0.05281
1040.38692,0.05183
1038.32675,0.05112
1036.26657,0.05041
1034.20640,0.04961
1032.14623,0.04865
1030.08606,0.04757
1028.02589,0.04636
1025.96571,0.04497
1023.90554,0.04375
1021.84537,0.04292
1019.78520,0.04194
1017.72503,0.04057
1015.66485,0.03936
1013.60468,0.03860
1011.54451,0.03801
1009.48434,0.03754
1007.42417,0.03731
1005.36399,0.03707
1003.30382,0.03674
1001.24365,0.03659
999.18348,0.03668
997.12330,0.03700
995.06313,0.03768
993.00296,0.03850
990.94279,0.03925
988.88262,0.03994
986.82244,0.04054
984.76227,0.04063
982.70210,0.04009
980.64193,0.03957
978.58176,0.03914
976.52158,0.03835
974.46141,0.03725
972.40124,0.03603
970.34107,0.03464
968.28089,0.03328
966.22072,0.03216
964.16055,0.03097
962.10038,0.02951
960.04021,0.02801
957.98003,0.02660
955.91986,0.02544
953.85969,0.02446
951.79952,0.02345
949.73935,0.02277
947.67917,0.02244
945.61900,0.02207
943.55883,0.02150
941.49866,0.02082
939.43849,0.02051
937.37831,0.02060
935.31814,0.02047
933.25797,0.01997
931.19780,0.01953
929.13762,0.01939
927.07745,0.01926
925.01728,0.01895
922.95711,0.01867
920.89694,0.01855
918.83676,0.01840
916.77659,0.01785
914.71642,0.01711
912.65625,0.01658
910.59608,0.01628
908.53590,0.01595
906.47573,0.01546
904.41556,0.01501
902.35539,0.01481
900.29522,0.01491
898.23504,0.01526
896.17487,0.01558
894.11470,0.01555
892.05453,0.01542
889.99435,0.01553
887.93418,0.01582
885.87401,0.01625
883.81384,0.01666
881.75367,0.01677
879.69349,0.01697
877.63332,0.01755
875.57315,0.01792
873.51298,0.01804
871.45281,0.01813
869.39263,0.01811
867.33246,0.01817
865.27229,0.01823
863.21212,0.01811
861.15194,0.01804
859.09177,0.01822
857.03160,0.01836
854.97143,0.01809
852.91126,0.01780
850.85108,0.01779
848.79091,0.01757
846.73074,0.01675
844.67057,0.01575
842.61040,0.01523
840.55022,0.01512
838.49005,0.01459
836.42988,0.01363
834.36971,0.01276
832.30954,0.01209
830.24936,0.01165
828.18919,0.01162
826.12902,0.01159
824.06885,0.01071
822.00867,0.00945
819.94850,0.00911
817.88833,0.00926
815.82816,0.00890
813.76799,0.00860
811.70781,0.00890
809.64764,0.00933
807.58747,0.00930
805.52730,0.00837
803.46713,0.00709
801.40695,0.00635
799.34678,0.00632
797.28661,0.00651
795.22644,0.00663
793.16627,0.00683
791.10609,0.00693
789.04592,0.00679
786.98575,0.00657
784.92558,0.00624
782.86540,0.00601
780.80523,0.00594
778.74506,0.00570
776.68489,0.00539
774.62472,0.00533
772.56454,0.00529
770.50437,0.00526
768.44420,0.00515
766.38403,0.00462
764.32386,0.00387
762.26368,0.00351
760.20351,0.00394
758.14334,0.00467
756.08317,0.00523
754.02299,0.00556
751.96282,0.00487
749.90265,0.00370
747.84248,0.00337
745.78231,0.00346
743.72213,0.00332
741.66196,0.00323
739.60179,0.00326
737.54162,0.00330
735.48145,0.00362
733.42127,0.00386
731.36110,0.00367
729.30093,0.00359
727.24076,0.00378
725.18059,0.00392
723.12041,0.00389
721.06024,0.00366
719.00007,0.00363
716.93990,0.00390
714.87972,0.00406
712.81955,0.00397
710.75938,0.00396
708.69921,0.00421
706.63904,0.00448
704.57886,0.00453
702.51869,0.00442
700.45852,0.00431
698.39835,0.00432
696.33818,0.00449
694.27800,0.00470
692.21783,0.00460
690.15766,0.00409
688.09749,0.00385
686.03731,0.00426
683.97714,0.00453
681.91697,0.00442
679.85680,0.00417
677.79663,0.00362
675.73645,0.00319
673.67628,0.00332
671.61611,0.00374
669.55594,0.00445
667.49577,0.00541
665.43559,0.00514
663.37542,0.00366
661.31525,0.00202
659.25508,0.00127
657.19491,0.00159
655.13473,0.00254
653.07456,0.00335
651.01439,0.00366
648.95422,0.00392
646.89404,0.00422
644.83387,0.00414
642.77370,0.00414
640.71353,0.00484
638.65336,0.00534
636.59318,0.00453
634.53301,0.00313
632.47284,0.00244
630.41267,0.00300
628.35250,0.00481
626.29232,0.00659
624.23215,0.00608
622.17198,0.00369
620.11181,0.00169
618.05164,0.00088
615.99146,0.00099
613.93129,0.00075
611.87112,0.00000
609.81095,0.00029
607.75077,0.00209
605.69060,0.00272
603.63043,0.00069
601.57026,-0.00145
599.51009,0.00000
