3996.73391,-0.00029
3994.67373,-0.00023
3992.61356,-0.00002
3990.55339,-0.00006
3988.49322,-0.00010
3986.43305,0.00012
3984.37287,0.00028
3982.31270,0.00027
3980.25253,0.00032
3978.19236,0.00027
3976.13219,-0.00002
3974.07201,-0.00006
3972.01184,0.00019
3969.95167,0.00026
3967.89150,0.00022
3965.83133,0.00028
3963.77115,0.00014
3961.71098,0.00000
3959.65081,0.00011
3957.59064,0.00029
3955.53046,0.00059
3953.47029,0.00079
3951.41012,0.00078
3949.34995,0.00102
3947.28978,0.00154
3945.22960,0.00144
3943.16943,0.00090
3941.10926,0.00109
3939.04909,0.00151
3936.98892,0.00149
3934.92874,0.00092
3932.86857,0.00019
3930.80840,0.00040
3928.74823,0.00140
3926.68805,0.00181
3924.62788,0.00176
3922.56771,0.00198
3920.50754,0.00168
3918.44737,0.00091
3916.38719,0.00088
3914.32702,0.00151
3912.26685,0.00176
3910.20668,0.00193
3908.14651,0.00220
3906.08633,0.00186
3904.02616,0.00139
3901.96599,0.00130
3899.90582,0.00104
3897.84565,0.00137
3895.78547,0.00184
3893.72530,0.00129
3891.66513,0.00101
3889.60496,0.00227
3887.54478,0.00267
3885.48461,0.00234
3883.42444,0.00277
3881.36427,0.00253
3879.30410,0.00302
3877.24392,0.00390
3875.18375,0.00340
3873.12358,0.00295
3871.06341,0.00264
3869.00324,0.00306
3866.94306,0.00354
3864.88289,0.00287
3862.82272,0.00305
3860.76255,0.00379
3858.70237,0.00396
3856.64220,0.00264
3854.58203,0.00000
3852.52186,0.00003
3850.46169,0.00265
3848.40151,0.00379
3846.34134,0.00334
3844.28117,0.00258
3842.22100,0.00234
3840.16083,0.00201
3838.10065,0.00189
3836.04048,0.00274
3833.98031,0.00322
3831.92014,0.00313
3829.85997,0.00338
3827.79979,0.00359
3825.73962,0.00407
3823.67945,0.00402
3821.61928,0.00326
3819.55910,0.00402
3817.49893,0.00354
3815.43876,0.00249
3813.37859,0.00333
3811.31842,0.00376
3809.25824,0.00285
3807.19807,0.00235
3805.13790,0.00343
3803.07773,0.00310
3801.01756,0.00257
3798.95738,0.00359
3796.89721,0.00348
3794.83704,0.00326
3792.77687,0.00344
3790.71670,0.00370
3788.65652,0.00391
3786.59635,0.00334
3784.53618,0.00295
3782.47601,0.00340
3780.41583,0.00322
3778.35566,0.00300
3776.29549,0.00355
3774.23532,0.00406
3772.17515,0.00407
3770.11497,0.00387
3768.05480,0.00376
3765.99463,0.00310
3763.93446,0.00306
3761.87429,0.00333
3759.81411,0.00333
3757.75394,0.00403
3755.69377,0.00457
3753.63360,0.00339
3751.57342,0.00173
3749.51325,0.00242
3747.45308,0.00356
3745.39291,0.00272
3743.33274,0.00356
3741.27256,0.00536
3739.21239,0.00484
3737.15222,0.00282
3735.09205,0.00135
3733.03188,0.00155
3730.97170,0.00291
3728.91153,0.00373
3726.85136,0.00316
3724.79119,0.00275
3722.73102,0.00276
3720.67084,0.00292
3718.61067,0.00344
3716.55050,0.00427
3714.49033,0.00417
3712.43015,0.00291
3710.36998,0.00263
3708.30981,0.00367
3706.24964,0.00410
3704.18947,0.00304
3702.12929,0.00187
3700.06912,0.00258
3698.00895,0.00396
3695.94878,0.00454
3693.88861,0.00429
3691.82843,0.00294
3689.76826,0.00154
3687.70809,0.00217
3685.64792,0.00377
3683.58775,0.00431
3681.52757,0.00432
3679.46740,0.00431
3677.40723,0.00326
3675.34706,0.00259
3673.28688,0.00409
3671.22671,0.00360
3669.16654,0.00269
3667.10637,0.00356
3665.04620,0.00386
3662.98602,0.00354
3660.92585,0.00360
3658.86568,0.00381
3656.80551,0.00426
3654.74534,0.00580
3652.68516,0.00592
3650.62499,0.00368
3648.56482,0.00270
3646.50465,0.00399
3644.44447,0.00518
3642.38430,0.00559
3640.32413,0.00620
3638.26396,0.00698
3636.20379,0.00737
3634.14361,0.00744
3632.08344,0.00731
3630.02327,0.00647
3627.96310,0.00714
3625.90293,0.00912
3623.84275,0.00946
3621.78258,0.00838
3619.72241,0.00763
3617.66224,0.00854
3615.60207,0.00922
3613.54189,0.00874
3611.48172,0.00857
3609.42155,0.00872
3607.36138,0.00970
3605.30120,0.01127
3603.24103,0.01154
3601.18086,0.01083
3599.12069,0.01083
3597.06052,0.01120
3595.00034,0.01127
3592.94017,0.01163
3590.88000,0.01177
3588.81983,0.01104
3586.75966,0.01112
3584.69948,0.01236
3582.63931,0.01292
3580.57914,0.01289
3578.51897,0.01312
3576.45879,0.01362
3574.39862,0.01415
3572.33845,0.01466
3570.27828,0.01481
3568.21811,0.01454
3566.15793,0.01493
3564.09776,0.01584
3562.03759,0.01614
3559.97742,0.01628
3557.91725,0.01672
3555.85707,0.01702
3553.79690,0.01700
3551.73673,0.01722
3549.67656,0.01757
3547.61639,0.01748
3545.55621,0.01778
3543.49604,0.01892
3541.43587,0.01968
3539.37570,0.01959
3537.31552,0.01925
3535.25535,0.01912
3533.19518,0.01916
3531.13501,0.01929
3529.07484,0.01961
3527.01466,0.02004
3524.95449,0.02048
3522.89432,0.02090
3520.83415,0.02116
3518.77398,0.02138
3516.71380,0.02195
3514.65363,0.02254
3512.59346,0.02285
3510.53329,0.02300
3508.47312,0.02327
3506.41294,0.02350
3504.35277,0.02326
3502.29260,0.02313
3500.23243,0.02339
3498.17225,0.02356
3496.11208,0.02375
3494.05191,0.02429
3491.99174,0.02495
3489.93157,0.02523
3487.87139,0.02518
3485.81122,0.02545
3483.75105,0.02585
3481.69088,0.02597
3479.63071,0.02616
3477.57053,0.02638
3475.51036,0.02661
3473.45019,0.02688
3471.39002,0.02690
3469.32984,0.02680
3467.26967,0.02689
3465.20950,0.02709
3463.14933,0.02707
3461.08916,0.02708
3459.02898,0.02750
3456.96881,0.02802
3454.90864,0.02811
3452.84847,0.02827
3450.78830,0.02899
3448.72812,0.02934
3446.66795,0.02918
3444.60778,0.02922
3442.54761,0.02928
3440.48744,0.02955
3438.42726,0.03000
3436.36709,0.03032
3434.30692,0.03047
3432.24675,0.03035
3430.18657,0.03014
3428.12640,0.03025
3426.06623,0.03062
3424.00606,0.03089
3421.94589,0.03094
3419.88571,0.03102
3417.82554,0.03119
3415.76537,0.03151
3413.70520,0.03198
3411.64503,0.03218
3409.58485,0.03215
3407.52468,0.03218
3405.46451,0.03226
3403.40434,0.03240
3401.34416,0.03260
3399.28399,0.03259
3397.22382,0.03254
3395.16365,0.03262
3393.10348,0.03263
3391.04330,0.03274
3388.98313,0.03312
3386.92296,0.03357
3384.86279,0.03379
3382.80262,0.03390
3380.74244,0.03401
3378.68227,0.03398
3376.62210,0.03398
3374.56193,0.03394
3372.50176,0.03368
3370.44158,0.03367
3368.38141,0.03416
3366.32124,0.03467
3364.26107,0.03482
3362.20089,0.03474
3360.14072,0.03472
3358.08055,0.03463
3356.02038,0.03431
3353.96021,0.03420
3351.90003,0.03439
3349.83986,0.03447
3347.77969,0.03445
3345.71952,0.03463
3343.65935,0.03502
3341.59917,0.03533
3339.53900,0.03535
3337.47883,0.03525
3335.41866,0.03527
3333.35849,0.03539
3331.29831,0.03531
3329.23814,0.03502
3327.17797,0.03486
3325.11780,0.03501
3323.05762,0.03546
3320.99745,0.03586
3318.93728,0.03579
3316.87711,0.03534
3314.81694,0.03514
3312.75676,0.03541
3310.69659,0.03568
3308.63642,0.03583
3306.57625,0.03599
3304.51608,0.03611
3302.45590,0.03626
3300.39573,0.03654
3298.33556,0.03669
3296.27539,0.03653
3294.21521,0.03632
3292.15504,0.03625
3290.09487,0.03628
3288.03470,0.03623
3285.97453,0.03620
3283.91435,0.03621
3281.85418,0.03613
3279.79401,0.03602
3277.73384,0.03592
3275.67367,0.03595
3273.61349,0.03617
3271.55332,0.03640
3269.49315,0.03643
3267.43298,0.03627
3265.37281,0.03624
3263.31263,0.03633
3261.25246,0.03630
3259.19229,0.03626
3257.13212,0.03631
3255.07194,0.03640
3253.01177,0.03639
3250.95160,0.03627
3248.89143,0.03643
3246.83126,0.03667
3244.77108,0.03664
3242.71091,0.03669
3240.65074,0.03682
3238.59057,0.03669
3236.53040,0.03638
3234.47022,0.03606
3232.41005,0.03580
3230.34988,0.03582
3228.28971,0.03610
3226.22954,0.03650
3224.16936,0.03680
3222.10919,0.03669
3220.04902,0.03629
3217.98885,0.03602
3215.92867,0.03604
3213.86850,0.03617
3211.80833,0.03617
3209.74816,0.03593
3207.68799,0.03586
3205.62781,0.03610
3203.56764,0.03622
3201.50747,0.03598
3199.44730,0.03566
3197.38713,0.03565
3195.32695,0.03579
3193.26678,0.03569
3191.20661,0.03539
3189.14644,0.03521
3187.08626,0.03520
3185.02609,0.03524
3182.96592,0.03523
3180.90575,0.03509
3178.84558,0.03478
3176.78540,0.03430
3174.72523,0.03384
3172.66506,0.03373
3170.60489,0.03398
3168.54472,0.03415
3166.48454,0.03409
3164.42437,0.03398
3162.36420,0.03397
3160.30403,0.03407
3158.24386,0.03396
3156.18368,0.03373
3154.12351,0.03366
3152.06334,0.03376
3150.00317,0.03386
3147.94299,0.03370
3145.88282,0.03334
3143.82265,0.03315
3141.76248,0.03315
3139.70231,0.03325
3137.64213,0.03345
3135.58196,0.03350
3133.52179,0.03317
3131.46162,0.03284
3129.40145,0.03276
3127.34127,0.03272
3125.28110,0.03261
3123.22093,0.03242
3121.16076,0.03216
3119.10058,0.03191
3117.04041,0.03176
3114.98024,0.03166
3112.92007,0.03153
3110.85990,0.03148
3108.79972,0.03148
3106.73955,0.03127
3104.67938,0.03108
3102.61921,0.03112
3100.55904,0.03114
3098.49886,0.03088
3096.43869,0.03047
3094.37852,0.03033
3092.31835,0.03035
3090.25818,0.03017
3088.19800,0.02989
3086.13783,0.02980
3084.07766,0.02981
3082.01749,0.02964
3079.95731,0.02944
3077.89714,0.02942
3075.83697,0.02926
3073.77680,0.02886
3071.71663,0.02860
3069.65645,0.02865
3067.59628,0.02881
3065.53611,0.02888
3063.47594,0.02887
3061.41577,0.02882
3059.35559,0.02860
3057.29542,0.02815
3055.23525,0.02774
3053.17508,0.02740
3051.11491,0.02719
3049.05473,0.02729
3046.99456,0.02744
3044.93439,0.02746
3042.87422,0.02742
3040.81404,0.02733
3038.75387,0.02721
3036.69370,0.02713
3034.63353,0.02701
3032.57336,0.02662
3030.51318,0.02619
3028.45301,0.02613
3026.39284,0.02623
3024.33267,0.02626
3022.27250,0.02616
3020.21232,0.02600
3018.15215,0.02587
3016.09198,0.02560
3014.03181,0.02531
3011.97163,0.02505
3009.91146,0.02484
3007.85129,0.02471
3005.79112,0.02458
3003.73095,0.02441
3001.67077,0.02411
2999.61060,0.02378
2997.55043,0.02375
2995.49026,0.02391
2993.43009,0.02385
2991.36991,0.02377
2989.30974,0.02394
2987.24957,0.02396
2985.18940,0.02371
2983.12923,0.02354
2981.06905,0.02359
2979.00888,0.02366
2976.94871,0.02366
2974.88854,0.02357
2972.82836,0.02317
2970.76819,0.02269
2968.70802,0.02267
2966.64785,0.02295
2964.58768,0.02312
2962.52750,0.02313
2960.46733,0.02315
2958.40716,0.02315
2956.34699,0.02309
2954.28682,0.02305
2952.22664,0.02287
2950.16647,0.02250
2948.10630,0.02244
2946.04613,0.02278
2943.98596,0.02301
2941.92578,0.02300
2939.86561,0.02301
2937.80544,0.02315
2935.74527,0.02327
2933.68509,0.02327
2931.62492,0.02325
2929.56475,0.02330
2927.50458,0.02331
2925.44441,0.02317
2923.38423,0.02305
2921.32406,0.02301
2919.26389,0.02287
2917.20372,0.02258
2915.14355,0.02235
2913.08337,0.02225
2911.02320,0.02218
2908.96303,0.02209
2906.90286,0.02197
2904.84268,0.02183
2902.78251,0.02177
2900.72234,0.02174
2898.66217,0.02161
2896.60200,0.02141
2894.54182,0.02126
2892.48165,0.02127
2890.42148,0.02139
2888.36131,0.02144
2886.30114,0.02138
2884.24096,0.02139
2882.18079,0.02145
2880.12062,0.02143
2878.06045,0.02141
2876.00028,0.02131
2873.94010,0.02107
2871.87993,0.02099
2869.81976,0.02101
2867.75959,0.02091
2865.69941,0.02076
2863.63924,0.02055
2861.57907,0.02043
2859.51890,0.02061
2857.45873,0.02074
2855.39855,0.02060
2853.33838,0.02038
2851.27821,0.02028
2849.21804,0.02012
2847.15787,0.01988
2845.09769,0.01979
2843.03752,0.01977
2840.97735,0.01972
2838.91718,0.01974
2836.85700,0.01966
2834.79683,0.01939
2832.73666,0.01921
2830.67649,0.01911
2828.61632,0.01883
2826.55614,0.01856
2824.49597,0.01855
2822.43580,0.01869
2820.37563,0.01871
2818.31546,0.01855
2816.25528,0.01840
2814.19511,0.01837
2812.13494,0.01834
2810.07477,0.01822
2808.01460,0.01807
2805.95442,0.01801
2803.89425,0.01803
2801.83408,0.01798
2799.77391,0.01791
2797.71373,0.01796
2795.65356,0.01801
2793.59339,0.01793
2791.53322,0.01776
2789.47305,0.01767
2787.41287,0.01770
2785.35270,0.01764
2783.29253,0.01744
2781.23236,0.01729
2779.17219,0.01720
2777.11201,0.01717
2775.05184,0.01714
2772.99167,0.01717
2770.93150,0.01723
2768.87133,0.01722
2766.81115,0.01716
2764.75098,0.01694
2762.69081,0.01659
2760.63064,0.01639
2758.57046,0.01633
2756.51029,0.01631
2754.45012,0.01645
2752.38995,0.01666
2750.32978,0.01664
2748.26960,0.01630
2746.20943,0.01597
2744.14926,0.01584
2742.08909,0.01581
2740.02892,0.01583
2737.96874,0.01574
2735.90857,0.01558
2733.84840,0.01561
2731.78823,0.01573
2729.72805,0.01580
2727.66788,0.01588
2725.60771,0.01602
2723.54754,0.01613
2721.48737,0.01599
2719.42719,0.01561
2717.36702,0.01528
2715.30685,0.01510
2713.24668,0.01508
2711.18651,0.01514
2709.12633,0.01521
2707.06616,0.01528
2705.00599,0.01514
2702.94582,0.01489
2700.88565,0.01478
2698.82547,0.01471
2696.76530,0.01460
2694.70513,0.01450
2692.64496,0.01462
2690.58478,0.01474
2688.52461,0.01452
2686.46444,0.01421
2684.40427,0.01418
2682.34410,0.01426
2680.28392,0.01409
2678.22375,0.01373
2676.16358,0.01343
2674.10341,0.01325
2672.04324,0.01331
2669.98306,0.01352
2667.92289,0.01346
2665.86272,0.01319
2663.80255,0.01313
2661.74238,0.01316
2659.68220,0.01306
2657.62203,0.01288
2655.56186,0.01281
2653.50169,0.01290
2651.44151,0.01299
2649.38134,0.01285
2647.32117,0.01245
2645.26100,0.01220
2643.20083,0.01228
2641.14065,0.01234
2639.08048,0.01214
2637.02031,0.01190
2634.96014,0.01187
2632.89997,0.01187
2630.83979,0.01172
2628.77962,0.01156
2626.71945,0.01154
2624.65928,0.01162
2622.59910,0.01162
2620.53893,0.01139
2618.47876,0.01125
2616.41859,0.01133
2614.35842,0.01133
2612.29824,0.01127
2610.23807,0.01124
2608.17790,0.01104
2606.11773,0.01077
2604.05756,0.01064
2601.99738,0.01069
2599.93721,0.01079
2597.87704,0.01084
2595.81687,0.01095
2593.75670,0.01116
2591.69652,0.01115
2589.63635,0.01080
2587.57618,0.01068
2585.51601,0.01108
2583.45583,0.01113
2581.39566,0.01041
2579.33549,0.00960
2577.27532,0.00933
2575.21515,0.00931
2573.15497,0.00925
2571.09480,0.00942
2569.03463,0.00976
2566.97446,0.01011
2564.91429,0.01031
2562.85411,0.01024
2560.79394,0.01002
2558.73377,0.00969
2556.67360,0.00943
2554.61342,0.00932
2552.55325,0.00936
2550.49308,0.00963
2548.43291,0.00989
2546.37274,0.00980
2544.31256,0.00970
2542.25239,0.01006
2540.19222,0.01038
2538.13205,0.01023
2536.07188,0.01005
2534.01170,0.01000
2531.95153,0.00989
2529.89136,0.00968
2527.83119,0.00954
2525.77102,0.00957
2523.71084,0.00965
2521.65067,0.00975
2519.59050,0.00969
2517.53033,0.00962
2515.47015,0.00974
2513.40998,0.00971
2511.34981,0.00946
2509.28964,0.00952
2507.22947,0.00996
2505.16929,0.01008
2503.10912,0.00971
2501.04895,0.00960
2498.98878,0.00998
2496.92861,0.01018
2494.86843,0.01001
2492.80826,0.00976
2490.74809,0.00969
2488.68792,0.00990
2486.62775,0.01005
2484.56757,0.01016
2482.50740,0.01058
2480.44723,0.01087
2478.38706,0.01074
2476.32688,0.01057
2474.26671,0.01031
2472.20654,0.00997
2470.14637,0.00999
2468.08620,0.01048
2466.02602,0.01109
2463.96585,0.01138
2461.90568,0.01126
2459.84551,0.01093
2457.78534,0.01079
2455.72516,0.01097
2453.66499,0.01102
2451.60482,0.01077
2449.54465,0.01035
2447.48447,0.01001
2445.42430,0.00998
2443.36413,0.01010
2441.30396,0.01017
2439.24379,0.01016
2437.18361,0.01010
2435.12344,0.01041
2433.06327,0.01093
2431.00310,0.01084
2428.94293,0.01047
2426.88275,0.01043
2424.82258,0.01036
2422.76241,0.01000
2420.70224,0.00962
2418.64207,0.00942
2416.58189,0.00940
2414.52172,0.00947
2412.46155,0.00989
2410.40138,0.01054
2408.34120,0.01073
2406.28103,0.01051
2404.22086,0.01040
2402.16069,0.01044
2400.10052,0.01048
2398.04034,0.01025
2395.98017,0.01010
2393.92000,0.01003
2391.85983,0.01014
2389.79966,0.01044
2387.73948,0.01069
2385.67931,0.01063
2383.61914,0.01027
2381.55897,0.00984
2379.49880,0.00965
2377.43862,0.00985
2375.37845,0.01053
2373.31828,0.01155
2371.25811,0.01246
2369.19793,0.01265
2367.13776,0.01161
2365.07759,0.00965
2363.01742,0.00849
2360.95725,0.00827
2358.89707,0.00722
2356.83690,0.00573
2354.77673,0.00590
2352.71656,0.00790
2350.65639,0.00982
2348.59621,0.01045
2346.53604,0.01009
2344.47587,0.00954
2342.41570,0.00952
2340.35552,0.01006
2338.29535,0.01051
2336.23518,0.01065
2334.17501,0.01068
2332.11484,0.01054
2330.05466,0.01045
2327.99449,0.01051
2325.93432,0.01029
2323.87415,0.00962
2321.81398,0.00883
2319.75380,0.00818
2317.69363,0.00822
2315.63346,0.00924
2313.57329,0.01021
2311.51312,0.01019
2309.45294,0.00981
2307.39277,0.00977
2305.33260,0.00988
2303.27243,0.00982
2301.21225,0.00957
2299.15208,0.00937
2297.09191,0.00943
2295.03174,0.00953
2292.97157,0.00944
2290.91139,0.00921
2288.85122,0.00901
2286.79105,0.00892
2284.73088,0.00894
2282.67071,0.00894
2280.61053,0.00868
2278.55036,0.00819
2276.49019,0.00790
2274.43002,0.00812
2272.36984,0.00869
2270.30967,0.00904
2268.24950,0.00869
2266.18933,0.00771
2264.12916,0.00671
2262.06898,0.00653
2260.00881,0.00727
2257.94864,0.00807
2255.88847,0.00832
2253.82830,0.00823
2251.76812,0.00827
2249.70795,0.00845
2247.64778,0.00831
2245.58761,0.00754
2243.52744,0.00649
2241.46726,0.00582
2239.40709,0.00586
2237.34692,0.00611
2235.28675,0.00673
2233.22657,0.00751
2231.16640,0.00734
2229.10623,0.00684
2227.04606,0.00659
2224.98589,0.00617
2222.92571,0.00637
2220.86554,0.00752
2218.80537,0.00866
2216.74520,0.00877
2214.68503,0.00764
2212.62485,0.00697
2210.56468,0.00726
2208.50451,0.00692
2206.44434,0.00560
2204.38417,0.00458
2202.32399,0.00511
2200.26382,0.00631
2198.20365,0.00624
2196.14348,0.00564
2194.08330,0.00562
2192.02313,0.00566
2189.96296,0.00616
2187.90279,0.00633
2185.84262,0.00492
2183.78244,0.00400
2181.72227,0.00490
2179.66210,0.00572
2177.60193,0.00577
2175.54176,0.00650
2173.48158,0.00791
2171.42141,0.00815
2169.36124,0.00666
2167.30107,0.00490
2165.24089,0.00498
2163.18072,0.00671
2161.12055,0.00673
2159.06038,0.00504
2157.00021,0.00502
2154.94003,0.00558
2152.87986,0.00466
2150.81969,0.00418
2148.75952,0.00478
2146.69935,0.00460
2144.63917,0.00401
2142.57900,0.00397
2140.51883,0.00420
2138.45866,0.00419
2136.39849,0.00411
2134.33831,0.00411
2132.27814,0.00396
2130.21797,0.00400
2128.15780,0.00460
2126.09762,0.00551
2124.03745,0.00573
2121.97728,0.00526
2119.91711,0.00522
2117.85694,0.00541
2115.79676,0.00527
2113.73659,0.00516
2111.67642,0.00524
2109.61625,0.00541
2107.55608,0.00551
2105.49590,0.00529
2103.43573,0.00494
2101.37556,0.00470
2099.31539,0.00458
2097.25521,0.00470
2095.19504,0.00482
2093.13487,0.00463
2091.07470,0.00481
2089.01453,0.00557
2086.95435,0.00589
2084.89418,0.00548
2082.83401,0.00495
2080.77384,0.00441
2078.71367,0.00388
2076.65349,0.00389
2074.59332,0.00456
2072.53315,0.00552
2070.47298,0.00611
2068.41281,0.00593
2066.35263,0.00527
2064.29246,0.00457
2062.23229,0.00396
2060.17212,0.00343
2058.11194,0.00353
2056.05177,0.00438
2053.99160,0.00532
2051.93143,0.00578
2049.87126,0.00539
2047.81108,0.00382
2045.75091,0.00161
2043.69074,0.00064
2041.63057,0.00169
2039.57040,0.00307
2037.51022,0.00362
2035.45005,0.00441
2033.38988,0.00543
2031.32971,0.00494
2029.26954,0.00278
2027.20936,0.00097
2025.14919,0.00077
2023.08902,0.00090
2021.02885,0.00043
2018.96867,0.00000
2016.90850,0.00026
2014.84833,0.00117
2012.78816,0.00173
2010.72799,0.00202
2008.66781,0.00237
2006.60764,0.00210
2004.54747,0.00174
2002.48730,0.00220
2000.42713,0.00335
1998.36695,0.00390
1996.30678,0.00296
1994.24661,0.00197
1992.18644,0.00217
1990.12626,0.00345
1988.06609,0.00439
1986.00592,0.00424
1983.94575,0.00416
1981.88558,0.00492
1979.82540,0.00542
1977.76523,0.00515
1975.70506,0.00489
1973.64489,0.00427
1971.58472,0.00325
1969.52454,0.00287
1967.46437,0.00271
1965.40420,0.00188
1963.34403,0.00073
1961.28386,0.00071
1959.22368,0.00169
1957.16351,0.00229
1955.10334,0.00276
1953.04317,0.00337
1950.98299,0.00385
1948.92282,0.00423
1946.86265,0.00410
1944.80248,0.00306
1942.74231,0.00175
1940.68213,0.00154
1938.62196,0.00174
1936.56179,0.00198
1934.50162,0.00281
1932.44145,0.00352
1930.38127,0.00329
1928.32110,0.00290
1926.26093,0.00307
1924.20076,0.00295
1922.14059,0.00283
1920.08041,0.00298
1918.02024,0.00287
1915.96007,0.00308
1913.89990,0.00323
1911.83972,0.00305
1909.77955,0.00272
1907.71938,0.00253
1905.65921,0.00260
1903.59904,0.00286
1901.53886,0.00314
1899.47869,0.00324
1897.41852,0.00298
1895.35835,0.00263
1893.29818,0.00286
1891.23800,0.00303
1889.17783,0.00299
1887.11766,0.00327
1885.05749,0.00320
1882.99731,0.00278
1880.93714,0.00259
1878.87697,0.00280
1876.81680,0.00312
1874.75663,0.00348
1872.69645,0.00390
1870.63628,0.00355
1868.57611,0.00271
1866.51594,0.00266
1864.45577,0.00288
1862.39559,0.00270
1860.33542,0.00252
1858.27525,0.00279
1856.21508,0.00325
1854.15491,0.00352
1852.09473,0.00350
1850.03456,0.00322
1847.97439,0.00279
1845.91422,0.00218
1843.85404,0.00217
1841.79387,0.00344
1839.73370,0.00409
1837.67353,0.00374
1835.61336,0.00353
1833.55318,0.00357
1831.49301,0.00331
1829.43284,0.00338
1827.37267,0.00370
1825.31250,0.00319
1823.25232,0.00292
1821.19215,0.00303
1819.13198,0.00285
1817.07181,0.00276
1815.01163,0.00291
1812.95146,0.00280
1810.89129,0.00271
1808.83112,0.00329
1806.77095,0.00400
1804.71077,0.00417
1802.65060,0.00378
1800.59043,0.00337
1798.53026,0.00346
1796.47009,0.00366
1794.40991,0.00305
1792.34974,0.00217
1790.28957,0.00299
1788.22940,0.00409
1786.16923,0.00390
1784.10905,0.00354
1782.04888,0.00358
1779.98871,0.00396
1777.92854,0.00467
1775.86836,0.00477
1773.80819,0.00386
1771.74802,0.00332
1769.68785,0.00362
1767.62768,0.00363
1765.56750,0.00380
1763.50733,0.00355
1761.44716,0.00354
1759.38699,0.00436
1757.32682,0.00474
1755.26664,0.00525
1753.20647,0.00517
1751.14630,0.00413
1749.08613,0.00403
1747.02596,0.00487
1744.96578,0.00539
1742.90561,0.00541
1740.84544,0.00547
1738.78527,0.00643
1736.72509,0.00679
1734.66492,0.00517
1732.60475,0.00519
1730.54458,0.00620
1728.48441,0.00639
1726.42423,0.00641
1724.36406,0.00659
1722.30389,0.00729
1720.24372,0.00695
1718.18355,0.00506
1716.12337,0.00481
1714.06320,0.00614
1712.00303,0.00702
1709.94286,0.00713
1707.88268,0.00686
1705.82251,0.00708
1703.76234,0.00828
1701.70217,0.00806
1699.64200,0.00760
1697.58182,0.00780
1695.52165,0.00740
1693.46148,0.00842
1691.40131,0.00892
1689.34114,0.00913
1687.28096,0.00948
1685.22079,0.00824
1683.16062,0.00849
1681.10045,0.01059
1679.04028,0.01134
1676.98010,0.01067
1674.91993,0.01044
1672.85976,0.01137
1670.79959,0.01104
1668.73941,0.01119
1666.67924,0.01270
1664.61907,0.01248
1662.55890,0.01150
1660.49873,0.01246
1658.43855,0.01397
1656.37838,0.01378
1654.31821,0.01148
1652.25804,0.01218
1650.19787,0.01510
1648.13769,0.01400
1646.07752,0.01233
1644.01735,0.01329
1641.95718,0.01416
1639.89701,0.01419
1637.83683,0.01302
1635.77666,0.01154
1633.71649,0.01274
1631.65632,0.01405
1629.59614,0.01364
1627.53597,0.01325
1625.47580,0.01306
1623.41563,0.01270
1621.35546,0.01362
1619.29528,0.01375
1617.23511,0.01226
1615.17494,0.01246
1613.11477,0.01332
1611.05460,0.01279
1608.99442,0.01203
1606.93425,0.01185
1604.87408,0.01173
1602.81391,0.01150
1600.75373,0.01150
1598.69356,0.01154
1596.63339,0.01129
1594.57322,0.01085
1592.51305,0.01042
1590.45287,0.01001
1588.39270,0.00973
1586.33253,0.00946
1584.27236,0.00910
1582.21219,0.00895
1580.15201,0.00891
1578.09184,0.00782
1576.03167,0.00694
1573.97150,0.00820
1571.91133,0.00800
1569.85115,0.00614
1567.79098,0.00621
1565.73081,0.00717
1563.67064,0.00809
1561.61046,0.00718
1559.55029,0.00381
1557.49012,0.00435
1555.42995,0.00614
1553.36978,0.00620
1551.30960,0.00571
1549.24943,0.00553
1547.18926,0.00562
1545.12909,0.00482
1543.06892,0.00351
1541.00874,0.00197
1538.94857,0.00283
1536.88840,0.00513
1534.82823,0.00439
1532.76805,0.00325
1530.70788,0.00399
1528.64771,0.00396
1526.58754,0.00359
1524.52737,0.00367
1522.46719,0.00290
1520.40702,0.00293
1518.34685,0.00333
1516.28668,0.00303
1514.22651,0.00350
1512.16633,0.00392
1510.10616,0.00310
1508.04599,0.00050
1505.98582,0.00026
1503.92565,0.00303
1501.86547,0.00375
1499.80530,0.00245
1497.74513,0.00146
1495.68496,0.00227
1493.62478,0.00339
1491.56461,0.00242
1489.50444,0.00122
1487.44427,0.00186
1485.38410,0.00270
1483.32392,0.00268
1481.26375,0.00261
1479.20358,0.00304
1477.14341,0.00289
1475.08324,0.00186
1473.02306,0.00102
1470.96289,0.00236
1468.90272,0.00400
1466.84255,0.00354
1464.78238,0.00296
1462.72220,0.00418
1460.66203,0.00465
1458.60186,0.00284
1456.54169,0.00202
1454.48151,0.00366
1452.42134,0.00432
1450.36117,0.00374
1448.30100,0.00310
1446.24083,0.00323
1444.18065,0.00369
1442.12048,0.00408
1440.06031,0.00425
1438.00014,0.00332
1435.93997,0.00297
1433.87979,0.00401
1431.81962,0.00404
1429.75945,0.00365
1427.69928,0.00404
1425.63910,0.00428
1423.57893,0.00455
1421.51876,0.00466
1419.45859,0.00387
1417.39842,0.00418
1415.33824,0.00510
1413.27807,0.00521
1411.21790,0.00505
1409.15773,0.00515
1407.09756,0.00494
1405.03738,0.00458
1402.97721,0.00484
1400.91704,0.00462
1398.85687,0.00390
1396.79670,0.00364
1394.73652,0.00360
1392.67635,0.00418
1390.61618,0.00444
1388.55601,0.00377
1386.49583,0.00363
1384.43566,0.00426
1382.37549,0.00444
1380.31532,0.00435
1378.25515,0.00440
1376.19497,0.00419
1374.13480,0.00387
1372.07463,0.00420
1370.01446,0.00432
1367.95429,0.00414
1365.89411,0.00404
1363.83394,0.00354
1361.77377,0.00338
1359.71360,0.00376
1357.65343,0.00373
1355.59325,0.00340
1353.53308,0.00318
1351.47291,0.00302
1349.41274,0.00291
1347.35256,0.00301
1345.29239,0.00321
1343.23222,0.00325
1341.17205,0.00274
1339.11188,0.00229
1337.05170,0.00260
1334.99153,0.00297
1332.93136,0.00291
1330.87119,0.00273
1328.81102,0.00275
1326.75084,0.00291
1324.69067,0.00306
1322.63050,0.00312
1320.57033,0.00301
1318.51015,0.00294
1316.44998,0.00302
1314.38981,0.00299
1312.32964,0.00303
1310.26947,0.00322
1308.20929,0.00323
1306.14912,0.00305
1304.08895,0.00295
1302.02878,0.00306
1299.96861,0.00321
1297.90843,0.00315
1295.84826,0.00294
1293.78809,0.00288
1291.72792,0.00302
1289.66775,0.00309
1287.60757,0.00305
1285.54740,0.00312
1283.48723,0.00327
1281.42706,0.00343
1279.36688,0.00354
1277.30671,0.00362
1275.24654,0.00365
1273.18637,0.00357
1271.12620,0.00345
1269.06602,0.00354
1267.00585,0.00375
1264.94568,0.00370
1262.88551,0.00339
1260.82534,0.00324
1258.76516,0.00343
1256.70499,0.00364
1254.64482,0.00376
1252.58465,0.00385
1250.52447,0.00371
1248.46430,0.00339
1246.40413,0.00312
1244.34396,0.00290
1242.28379,0.00273
1240.22361,0.00268
1238.16344,0.00264
1236.10327,0.00251
1234.04310,0.00234
1231.98293,0.00213
1229.92275,0.00194
1227.86258,0.00183
1225.80241,0.00179
1223.74224,0.00175
1221.68207,0.00165
1219.62189,0.00147
1217.56172,0.00134
1215.50155,0.00131
1213.44138,0.00120
1211.38120,0.00092
1209.32103,0.00066
1207.26086,0.00057
1205.20069,0.00055
1203.14052,0.00060
1201.08034,0.00076
1199.02017,0.00084
1196.96000,0.00086
1194.89983,0.00101
1192.83966,0.00124
1190.77948,0.00149
1188.71931,0.00187
1186.65914,0.00235
1184.59897,0.00286
1182.53880,0.00339
1180.47862,0.00383
1178.41845,0.00421
1176.35828,0.00481
1174.29811,0.00564
1172.23793,0.00643
1170.17776,0.00710
1168.11759,0.00766
1166.05742,0.00822
1163.99725,0.00893
1161.93707,0.00970
1159.87690,0.01025
1157.81673,0.01061
1155.75656,0.01113
1153.69639,0.01191
1151.63621,0.01270
1149.57604,0.01332
1147.51587,0.01385
1145.45570,0.01463
1143.39552,0.01556
1141.33535,0.01618
1139.27518,0.01671
1137.21501,0.01760
1135.15484,0.01865
1133.09466,0.01950
1131.03449,0.02032
1128.97432,0.02124
1126.91415,0.02196
1124.85398,0.02246
1122.79380,0.02306
1120.73363,0.02388
1118.67346,0.02484
1116.61329,0.02587
1114.55312,0.02686
1112.49294,0.02761
1110.43277,0.02823
1108.37260,0.02894
1106.31243,0.02969
1104.25225,0.03053
1102.19208,0.03138
1100.13191,0.03210
1098.07174,0.03285
1096.01157,0.03358
1093.95139,0.03420
1091.89122,0.03484
1089.83105,0.03550
1087.77088,0.03625
1085.71071,0.03703
1083.65053,0.03752
1081.59036,0.03781
1079.53019,0.03828
1077.47002,0.03881
1075.40985,0.03917
1073.34967,0.03937
1071.28950,0.03972
1069.22933,0.04017
1067.16916,0.04033
1065.10898,0.04024
1063.04881,0.04010
1060.98864,0.04002
1058.92847,0.03984
1056.86830,0.03942
1054.80812,0.03902
1052.74795,0.03872
1050.68778,0.03836
1048.62761,0.03776
1046.56744,0.03696
1044.50726,0.03615
1042.44709,0.03550
1040.38692,0.03499
1038.32675,0.03443
1036.26657,0.03377
1034.20640,0.03306
1032.14623,0.03226
1030.08606,0.03132
1028.02589,0.03024
1025.96571,0.02923
1023.90554,0.02859
1021.84537,0.02810
1019.78520,0.02714
1017.72503,0.02597
1015.66485,0.02538
1013.60468,0.02527
1011.54451,0.02500
1009.48434,0.02462
1007.42417,0.02441
1005.36399,0.02419
1003.30382,0.02396
1001.24365,0.02406
999.18348,0.02444
997.12330,0.02485
995.06313,0.02535
993.00296,0.02600
990.94279,0.02661
988.88262,0.02697
986.82244,0.02722
984.76227,0.02723
982.70210,0.02686
980.64193,0.02659
978.58176,0.02647
976.52158,0.02597
974.46141,0.02519
972.40124,0.02455
970.34107,0.02399
968.28089,0.02318
966.22072,0.02210
964.16055,0.02101
962.10038,0.02001
960.04021,0.01901
957.98003,0.01807
955.91986,0.01733
953.85969,0.01664
951.79952,0.01590
949.73935,0.01532
947.67917,0.01506
945.61900,0.01484
943.55883,0.01437
941.49866,0.01379
939.43849,0.01340
937.37831,0.01329
935.31814,0.01322
933.25797,0.01297
931.19780,0.01265
929.13762,0.01241
927.07745,0.01229
925.01728,0.01227
922.95711,0.01222
920.89694,0.01208
918.83676,0.01198
916.77659,0.01171
914.71642,0.01122
912.65625,0.01093
910.59608,0.01093
908.53590,0.01079
906.47573,0.01045
904.41556,0.01026
902.35539,0.01027
900.29522,0.01040
898.23504,0.01066
896.17487,0.01097
894.11470,0.01102
892.05453,0.01078
889.99435,0.01073
887.93418,0.01095
885.87401,0.01126
883.81384,0.01149
881.75367,0.01152
879.69349,0.01170
877.63332,0.01228
875.57315,0.01281
873.51298,0.01294
871.45281,0.01284
869.39263,0.01261
867.33246,0.01248
865.27229,0.01250
863.21212,0.01247
861.15194,0.01244
859.09177,0.01258
857.03160,0.01270
854.97143,0.01257
852.91126,0.01276
850.85108,0.01332
848.79091,0.01312
846.73074,0.01192
844.67057,0.01079
842.61040,0.01037
840.55022,0.01045
838.49005,0.01029
836.42988,0.00947
834.36971,0.00865
832.30954,0.00824
830.24936,0.00810
828.18919,0.00828
826.12902,0.00816
824.06885,0.00724
822.00867,0.00617
819.94850,0.00578
817.88833,0.00590
815.82816,0.00583
813.76799,0.00543
811.70781,0.00509
809.64764,0.00527
807.58747,0.00566
805.52730,0.00555
803.46713,0.00492
801.40695,0.00409
799.34678,0.00360
797.28661,0.00359
795.22644,0.00380
793.16627,0.00400
791.10609,0.00410
789.04592,0.00421
786.98575,0.00417
784.92558,0.00379
782.86540,0.00351
780.80523,0.00373
778.74506,0.00379
776.68489,0.00322
774.62472,0.00260
772.56454,0.00247
770.50437,0.00283
768.44420,0.00318
766.38403,0.00319
764.32386,0.00321
762.26368,0.00333
760.20351,0.00310
758.14334,0.00227
756.08317,0.00177
754.02299,0.00201
751.96282,0.00195
749.90265,0.00169
747.84248,0.00171
745.78231,0.00175
743.72213,0.00189
741.66196,0.00225
739.60179,0.00277
737.54162,0.00317
735.48145,0.00279
733.42127,0.00188
731.36110,0.00163
729.30093,0.00197
727.24076,0.00200
725.18059,0.00195
723.12041,0.00257
721.06024,0.00296
719.00007,0.00296
716.93990,0.00300
714.87972,0.00283
712.81955,0.00247
710.75938,0.00251
708.69921,0.00273
706.63904,0.00238
704.57886,0.00177
702.51869,0.00188
700.45852,0.00247
698.39835,0.00273
696.33818,0.00284
694.27800,0.00323
692.21783,0.00358
690.15766,0.00347
688.09749,0.00305
686.03731,0.00280
683.97714,0.00271
681.91697,0.00278
679.85680,0.00287
677.79663,0.00252
675.73645,0.00212
673.67628,0.00236
671.61611,0.00291
669.55594,0.00335
667.49577,0.00353
665.43559,0.00318
663.37542,0.00289
661.31525,0.00216
659.25508,0.00123
657.19491,0.00118
655.13473,0.00211
653.07456,0.00294
651.01439,0.00283
648.95422,0.00230
646.89404,0.00240
644.83387,0.00288
642.77370,0.00322
640.71353,0.00343
638.65336,0.00318
636.59318,0.00246
634.53301,0.00165
632.47284,0.00119
630.41267,0.00185
628.35250,0.00357
626.29232,0.00495
624.23215,0.00466
622.17198,0.00275
620.11181,0.00086
618.05164,0.00164
615.99146,0.00477
613.93129,0.00627
611.87112,0.00437
609.81095,0.00144
607.75077,0.00115
605.69060,0.00279
603.63043,0.00207
601.57026,0.00000
599.51009,0.00000
