3996.73391,0.00030
3994.67373,0.00027
3992.61356,0.00011
3990.55339,0.00007
3988.49322,0.00009
3986.43305,0.00004
3984.37287,0.00000
3982.31270,0.00008
3980.25253,0.00015
3978.19236,0.00016
3976.13219,0.00031
3974.07201,0.00055
3972.01184,0.00060
3969.95167,0.00052
3967.89150,0.00039
3965.83133,0.00033
3963.77115,0.00058
3961.71098,0.00088
3959.65081,0.00075
3957.59064,0.00033
3955.53046,0.00009
3953.47029,0.00013
3951.41012,0.00025
3949.34995,0.00045
3947.28978,0.00075
3945.22960,0.00096
3943.16943,0.00093
3941.10926,0.00096
3939.04909,0.00124
3936.98892,0.00135
3934.92874,0.00112
3932.86857,0.00088
3930.80840,0.00079
3928.74823,0.00071
3926.68805,0.00076
3924.62788,0.00098
3922.56771,0.00129
3920.50754,0.00156
3918.44737,0.00153
3916.38719,0.00105
3914.32702,0.00052
3912.26685,0.00023
3910.20668,0.00009
3908.14651,0.00027
3906.08633,0.00079
3904.02616,0.00121
3901.96599,0.00122
3899.90582,0.00097
3897.84565,0.00073
3895.78547,0.00063
3893.72530,0.00048
3891.66513,0.00023
3889.60496,0.00035
3887.54478,0.00093
3885.48461,0.00128
3883.42444,0.00128
3881.36427,0.00129
3879.30410,0.00132
3877.24392,0.00126
3875.18375,0.00115
3873.12358,0.00105
3871.06341,0.00087
3869.00324,0.00053
3866.94306,0.00035
3864.88289,0.00041
3862.82272,0.00057
3860.76255,0.00078
3858.70237,0.00104
3856.64220,0.00149
3854.58203,0.00188
3852.52186,0.00166
3850.46169,0.00129
3848.40151,0.00122
3846.34134,0.00101
3844.28117,0.00056
3842.22100,0.00046
3840.16083,0.00091
3838.10065,0.00138
3836.04048,0.00133
3833.98031,0.00075
3831.92014,0.00028
3829.85997,0.00034
3827.79979,0.00059
3825.73962,0.00078
3823.67945,0.00090
3821.61928,0.00065
3819.55910,0.00026
3817.49893,0.00032
3815.43876,0.00067
3813.37859,0.00105
3811.31842,0.00135
3809.25824,0.00128
3807.19807,0.00086
3805.13790,0.00062
3803.07773,0.00060
3801.01756,0.00056
3798.95738,0.00052
3796.89721,0.00040
3794.83704,0.00033
3792.77687,0.00054
3790.71670,0.00087
3788.65652,0.00111
3786.59635,0.00114
3784.53618,0.00092
3782.47601,0.00078
3780.41583,0.00061
3778.35566,0.00018
3776.29549,0.00009
3774.23532,0.00064
3772.17515,0.00115
3770.11497,0.00137
3768.05480,0.00160
3765.99463,0.00167
3763.93446,0.00136
3761.87429,0.00106
3759.81411,0.00107
3757.75394,0.00134
3755.69377,0.00154
3753.63360,0.00133
3751.57342,0.00080
3749.51325,0.00083
3747.45308,0.00163
3745.39291,0.00219
3743.33274,0.00199
3741.27256,0.00185
3739.21239,0.00210
3737.15222,0.00212
3735.09205,0.00145
3733.03188,0.00066
3730.97170,0.00065
3728.91153,0.00117
3726.85136,0.00154
3724.79119,0.00160
3722.73102,0.00154
3720.67084,0.00135
3718.61067,0.00115
3716.55050,0.00104
3714.49033,0.00105
3712.43015,0.00103
3710.36998,0.00097
3708.30981,0.00111
3706.24964,0.00140
3704.18947,0.00141
3702.12929,0.00113
3700.06912,0.00101
3698.00895,0.00126
3695.94878,0.00192
3693.88861,0.00256
3691.82843,0.00239
3689.76826,0.00160
3687.70809,0.00109
3685.64792,0.00088
3683.58775,0.00070
3681.52757,0.00067
3679.46740,0.00099
3677.40723,0.00147
3675.34706,0.00162
3673.28688,0.00169
3671.22671,0.00210
3669.16654,0.00250
3667.10637,0.00272
3665.04620,0.00291
3662.98602,0.00317
3660.92585,0.00354
3658.86568,0.00389
3656.80551,0.00434
3654.74534,0.00504
3652.68516,0.00550
3650.62499,0.00567
3648.56482,0.00612
3646.50465,0.00675
3644.44447,0.00733
3642.38430,0.00783
3640.32413,0.00831
3638.26396,0.00883
3636.20379,0.00922
3634.14361,0.00955
3632.08344,0.01018
3630.02327,0.01095
3627.96310,0.01147
3625.90293,0.01207
3623.84275,0.01310
3621.78258,0.01400
3619.72241,0.01406
3617.66224,0.01384
3615.60207,0.01433
3613.54189,0.01555
3611.48172,0.01698
3609.42155,0.01796
3607.36138,0.01826
3605.30120,0.01834
3603.24103,0.01869
3601.18086,0.01927
3599.12069,0.01978
3597.06052,0.02032
3595.00034,0.02109
3592.94017,0.02206
3590.88000,0.02307
3588.81983,0.02417
3586.75966,0.02519
3584.69948,0.02575
3582.63931,0.02601
3580.57914,0.02630
3578.51897,0.02683
3576.45879,0.02774
3574.39862,0.02877
3572.33845,0.02943
3570.27828,0.02982
3568.21811,0.03048
3566.15793,0.03133
3564.09776,0.03192
3562.03759,0.03234
3559.97742,0.03275
3557.91725,0.03324
3555.85707,0.03392
3553.79690,0.03472
3551.73673,0.03559
3549.67656,0.03636
3547.61639,0.03701
3545.55621,0.03784
3543.49604,0.03882
3541.43587,0.03963
3539.37570,0.04028
3537.31552,0.04091
3535.25535,0.04142
3533.19518,0.04180
3531.13501,0.04232
3529.07484,0.04315
3527.01466,0.04414
3524.95449,0.04502
3522.89432,0.04558
3520.83415,0.04606
3518.77398,0.04657
3516.71380,0.04690
3514.65363,0.04714
3512.59346,0.04767
3510.53329,0.04840
3508.47312,0.04897
3506.41294,0.04944
3504.35277,0.05005
3502.29260,0.05084
3500.23243,0.05172
3498.17225,0.05242
3496.11208,0.05287
3494.05191,0.05351
3491.99174,0.05432
3489.93157,0.05470
3487.87139,0.05470
3485.81122,0.05490
3483.75105,0.05552
3481.69088,0.05628
3479.63071,0.05696
3477.57053,0.05759
3475.51036,0.05804
3473.45019,0.05841
3471.39002,0.05897
3469.32984,0.05948
3467.26967,0.05996
3465.20950,0.06069
3463.14933,0.06150
3461.08916,0.06214
3459.02898,0.06266
3456.96881,0.06307
3454.90864,0.06336
3452.84847,0.06362
3450.78830,0.06389
3448.72812,0.06419
3446.66795,0.06480
3444.60778,0.06562
3442.54761,0.06631
3440.48744,0.06671
3438.42726,0.06681
3436.36709,0.06701
3434.30692,0.06740
3432.24675,0.06763
3430.18657,0.06785
3428.12640,0.06824
3426.06623,0.06856
3424.00606,0.06905
3421.94589,0.07004
3419.88571,0.07093
3417.82554,0.07111
3415.76537,0.07095
3413.70520,0.07106
3411.64503,0.07144
3409.58485,0.07188
3407.52468,0.07242
3405.46451,0.07295
3403.40434,0.07311
3401.34416,0.07304
3399.28399,0.07345
3397.22382,0.07405
3395.16365,0.07448
3393.10348,0.07481
3391.04330,0.07522
3388.98313,0.07555
3386.92296,0.07577
3384.86279,0.07575
3382.80262,0.07560
3380.74244,0.07585
3378.68227,0.07634
3376.62210,0.07651
3374.56193,0.07651
3372.50176,0.07662
3370.44158,0.07677
3368.38141,0.07713
3366.32124,0.07768
3364.26107,0.07810
3362.20089,0.07865
3360.14072,0.07951
3358.08055,0.07992
3356.02038,0.07961
3353.96021,0.07922
3351.90003,0.07913
3349.83986,0.07929
3347.77969,0.07938
3345.71952,0.07915
3343.65935,0.07902
3341.59917,0.07920
3339.53900,0.07942
3337.47883,0.07953
3335.41866,0.07965
3333.35849,0.07991
3331.29831,0.08024
3329.23814,0.08043
3327.17797,0.08032
3325.11780,0.08013
3323.05762,0.08011
3320.99745,0.08012
3318.93728,0.08004
3316.87711,0.07993
3314.81694,0.07980
3312.75676,0.07975
3310.69659,0.07990
3308.63642,0.08005
3306.57625,0.08014
3304.51608,0.08030
3302.45590,0.08056
3300.39573,0.08077
3298.33556,0.08068
3296.27539,0.08034
3294.21521,0.08031
3292.15504,0.08082
3290.09487,0.08126
3288.03470,0.08129
3285.97453,0.08128
3283.91435,0.08141
3281.85418,0.08149
3279.79401,0.08151
3277.73384,0.08162
3275.67367,0.08169
3273.61349,0.08151
3271.55332,0.08126
3269.49315,0.08133
3267.43298,0.08155
3265.37281,0.08172
3263.31263,0.08181
3261.25246,0.08180
3259.19229,0.08178
3257.13212,0.08168
3255.07194,0.08154
3253.01177,0.08156
3250.95160,0.08156
3248.89143,0.08136
3246.83126,0.08128
3244.77108,0.08160
3242.71091,0.08198
3240.65074,0.08207
3238.59057,0.08204
3236.53040,0.08199
3234.47022,0.08194
3232.41005,0.08186
3230.34988,0.08161
3228.28971,0.08123
3226.22954,0.08091
3224.16936,0.08066
3222.10919,0.08058
3220.04902,0.08078
3217.98885,0.08107
3215.92867,0.08118
3213.86850,0.08095
3211.80833,0.08064
3209.74816,0.08053
3207.68799,0.08032
3205.62781,0.07979
3203.56764,0.07943
3201.50747,0.07961
3199.44730,0.07980
3197.38713,0.07950
3195.32695,0.07904
3193.26678,0.07889
3191.20661,0.07887
3189.14644,0.07863
3187.08626,0.07817
3185.02609,0.07784
3182.96592,0.07787
3180.90575,0.07798
3178.84558,0.07782
3176.78540,0.07753
3174.72523,0.07730
3172.66506,0.07706
3170.60489,0.07681
3168.54472,0.07659
3166.48454,0.07640
3164.42437,0.07604
3162.36420,0.07542
3160.30403,0.07502
3158.24386,0.07517
3156.18368,0.07530
3154.12351,0.07512
3152.06334,0.07501
3150.00317,0.07482
3147.94299,0.07432
3145.88282,0.07370
3143.82265,0.07319
3141.76248,0.07294
3139.70231,0.07283
3137.64213,0.07267
3135.58196,0.07233
3133.52179,0.07186
3131.46162,0.07127
3129.40145,0.07073
3127.34127,0.07052
3125.28110,0.07039
3123.22093,0.07015
3121.16076,0.06989
3119.10058,0.06961
3117.04041,0.06941
3114.98024,0.06937
3112.92007,0.06910
3110.85990,0.06852
3108.79972,0.06819
3106.73955,0.06819
3104.67938,0.06791
3102.61921,0.06732
3100.55904,0.06680
3098.49886,0.06646
3096.43869,0.06626
3094.37852,0.06598
3092.31835,0.06543
3090.25818,0.06501
3088.19800,0.06494
3086.13783,0.06470
3084.07766,0.06411
3082.01749,0.06356
3079.95731,0.06320
3077.89714,0.06295
3075.83697,0.06273
3073.77680,0.06266
3071.71663,0.06246
3069.65645,0.06190
3067.59628,0.06148
3065.53611,0.06135
3063.47594,0.06111
3061.41577,0.06057
3059.35559,0.06002
3057.29542,0.05968
3055.23525,0.05928
3053.17508,0.05874
3051.11491,0.05831
3049.05473,0.05805
3046.99456,0.05767
3044.93439,0.05716
3042.87422,0.05685
3040.81404,0.05664
3038.75387,0.05630
3036.69370,0.05591
3034.63353,0.05541
3032.57336,0.05493
3030.51318,0.05455
3028.45301,0.05417
3026.39284,0.05385
3024.33267,0.05356
3022.27250,0.05319
3020.21232,0.05283
3018.15215,0.05250
3016.09198,0.05214
3014.03181,0.05180
3011.97163,0.05151
3009.91146,0.05128
3007.85129,0.05104
3005.79112,0.05061
3003.73095,0.05011
3001.67077,0.04979
2999.61060,0.04946
2997.55043,0.04892
2995.49026,0.04847
2993.43009,0.04833
2991.36991,0.04816
2989.30974,0.04777
2987.24957,0.04747
2985.18940,0.04734
2983.12923,0.04705
2981.06905,0.04659
2979.00888,0.04643
2976.94871,0.04660
2974.88854,0.04679
2972.82836,0.04688
2970.76819,0.04673
2968.70802,0.04643
2966.64785,0.04637
2964.58768,0.04652
2962.52750,0.04658
2960.46733,0.04648
2958.40716,0.04643
2956.34699,0.04657
2954.28682,0.04661
2952.22664,0.04632
2950.16647,0.04606
2948.10630,0.04620
2946.04613,0.04646
2943.98596,0.04651
2941.92578,0.04660
2939.86561,0.04692
2937.80544,0.04719
2935.74527,0.04716
2933.68509,0.04688
2931.62492,0.04651
2929.56475,0.04621
2927.50458,0.04618
2925.44441,0.04628
2923.38423,0.04614
2921.32406,0.04577
2919.26389,0.04556
2917.20372,0.04553
2915.14355,0.04517
2913.08337,0.04467
2911.02320,0.04461
2908.96303,0.04478
2906.90286,0.04476
2904.84268,0.04440
2902.78251,0.04390
2900.72234,0.04361
2898.66217,0.04365
2896.60200,0.04386
2894.54182,0.04392
2892.48165,0.04372
2890.42148,0.04360
2888.36131,0.04357
2886.30114,0.04330
2884.24096,0.04286
2882.18079,0.04257
2880.12062,0.04252
2878.06045,0.04251
2876.00028,0.04231
2873.94010,0.04190
2871.87993,0.04148
2869.81976,0.04131
2867.75959,0.04135
2865.69941,0.04124
2863.63924,0.04084
2861.57907,0.04036
2859.51890,0.04001
2857.45873,0.03979
2855.39855,0.03961
2853.33838,0.03944
2851.27821,0.03918
2849.21804,0.03879
2847.15787,0.03841
2845.09769,0.03813
2843.03752,0.03795
2840.97735,0.03771
2838.91718,0.03725
2836.85700,0.03679
2834.79683,0.03668
2832.73666,0.03674
2830.67649,0.03656
2828.61632,0.03623
2826.55614,0.03592
2824.49597,0.03566
2822.43580,0.03554
2820.37563,0.03549
2818.31546,0.03523
2816.25528,0.03475
2814.19511,0.03446
2812.13494,0.03431
2810.07477,0.03412
2808.01460,0.03388
2805.95442,0.03356
2803.89425,0.03337
2801.83408,0.03348
2799.77391,0.03358
2797.71373,0.03343
2795.65356,0.03308
2793.59339,0.03271
2791.53322,0.03254
2789.47305,0.03251
2787.41287,0.03240
2785.35270,0.03217
2783.29253,0.03185
2781.23236,0.03148
2779.17219,0.03130
2777.11201,0.03142
2775.05184,0.03155
2772.99167,0.03138
2770.93150,0.03109
2768.87133,0.03082
2766.81115,0.03050
2764.75098,0.03024
2762.69081,0.03010
2760.63064,0.03005
2758.57046,0.02995
2756.51029,0.02972
2754.45012,0.02963
2752.38995,0.02963
2750.32978,0.02942
2748.26960,0.02924
2746.20943,0.02939
2744.14926,0.02954
2742.08909,0.02937
2740.02892,0.02901
2737.96874,0.02870
2735.90857,0.02849
2733.84840,0.02839
2731.78823,0.02836
2729.72805,0.02825
2727.66788,0.02796
2725.60771,0.02779
2723.54754,0.02786
2721.48737,0.02781
2719.42719,0.02753
2717.36702,0.02727
2715.30685,0.02719
2713.24668,0.02710
2711.18651,0.02679
2709.12633,0.02634
2707.06616,0.02603
2705.00599,0.02595
2702.94582,0.02586
2700.88565,0.02559
2698.82547,0.02531
2696.76530,0.02508
2694.70513,0.02490
2692.64496,0.02489
2690.58478,0.02492
2688.52461,0.02476
2686.46444,0.02449
2684.40427,0.02427
2682.34410,0.02415
2680.28392,0.02390
2678.22375,0.02348
2676.16358,0.02327
2674.10341,0.02337
2672.04324,0.02340
2669.98306,0.02312
2667.92289,0.02262
2665.86272,0.02230
2663.80255,0.02231
2661.74238,0.02211
2659.68220,0.02161
2657.62203,0.02127
2655.56186,0.02110
2653.50169,0.02100
2651.44151,0.02094
2649.38134,0.02084
2647.32117,0.02064
2645.26100,0.02029
2643.20083,0.02007
2641.14065,0.02012
2639.08048,0.02005
2637.02031,0.01979
2634.96014,0.01958
2632.89997,0.01942
2630.83979,0.01917
2628.77962,0.01888
2626.71945,0.01880
2624.65928,0.01866
2622.59910,0.01821
2620.53893,0.01783
2618.47876,0.01766
2616.41859,0.01760
2614.35842,0.01747
2612.29824,0.01723
2610.23807,0.01716
2608.17790,0.01725
2606.11773,0.01703
2604.05756,0.01648
2601.99738,0.01640
2599.93721,0.01680
2597.87704,0.01693
2595.81687,0.01682
2593.75670,0.01671
2591.69652,0.01641
2589.63635,0.01602
2587.57618,0.01579
2585.51601,0.01579
2583.45583,0.01592
2581.39566,0.01585
2579.33549,0.01561
2577.27532,0.01560
2575.21515,0.01574
2573.15497,0.01571
2571.09480,0.01539
2569.03463,0.01493
2566.97446,0.01488
2564.91429,0.01527
2562.85411,0.01542
2560.79394,0.01514
2558.73377,0.01489
2556.67360,0.01508
2554.61342,0.01529
2552.55325,0.01497
2550.49308,0.01451
2548.43291,0.01443
2546.37274,0.01446
2544.31256,0.01432
2542.25239,0.01431
2540.19222,0.01458
2538.13205,0.01498
2536.07188,0.01515
2534.01170,0.01505
2531.95153,0.01503
2529.89136,0.01517
2527.83119,0.01545
2525.77102,0.01572
2523.71084,0.01571
2521.65067,0.01538
2519.59050,0.01503
2517.53033,0.01483
2515.47015,0.01485
2513.40998,0.01508
2511.34981,0.01523
2509.28964,0.01505
2507.22947,0.01483
2505.16929,0.01464
2503.10912,0.01453
2501.04895,0.01484
2498.98878,0.01517
2496.92861,0.01522
2494.86843,0.01511
2492.80826,0.01473
2490.74809,0.01426
2488.68792,0.01432
2486.62775,0.01461
2484.56757,0.01445
2482.50740,0.01442
2480.44723,0.01503
2478.38706,0.01555
2476.32688,0.01551
2474.26671,0.01521
2472.20654,0.01503
2470.14637,0.01504
2468.08620,0.01509
2466.02602,0.01493
2463.96585,0.01479
2461.90568,0.01504
2459.84551,0.01527
2457.78534,0.01515
2455.72516,0.01502
2453.66499,0.01511
2451.60482,0.01516
2449.54465,0.01499
2447.48447,0.01490
2445.42430,0.01501
2443.36413,0.01502
2441.30396,0.01472
2439.24379,0.01463
2437.18361,0.01507
2435.12344,0.01536
2433.06327,0.01527
2431.00310,0.01527
2428.94293,0.01523
2426.88275,0.01491
2424.82258,0.01470
2422.76241,0.01501
2420.70224,0.01551
2418.64207,0.01566
2416.58189,0.01544
2414.52172,0.01510
2412.46155,0.01488
2410.40138,0.01502
2408.34120,0.01516
2406.28103,0.01487
2404.22086,0.01458
2402.16069,0.01469
2400.10052,0.01493
2398.04034,0.01500
2395.98017,0.01474
2393.92000,0.01456
2391.85983,0.01451
2389.79966,0.01440
2387.73948,0.01444
2385.67931,0.01476
2383.61914,0.01521
2381.55897,0.01573
2379.49880,0.01635
2377.43862,0.01684
2375.37845,0.01737
2373.31828,0.01828
2371.25811,0.01884
2369.19793,0.01711
2367.13776,0.01192
2365.07759,0.00674
2363.01742,0.00691
2360.95725,0.01001
2358.89707,0.01172
2356.83690,0.01126
2354.77673,0.01108
2352.71656,0.01213
2350.65639,0.01232
2348.59621,0.01292
2346.53604,0.01557
2344.47587,0.01606
2342.41570,0.01476
2340.35552,0.01327
2338.29535,0.01206
2336.23518,0.01204
2334.17501,0.01281
2332.11484,0.01305
2330.05466,0.01232
2327.99449,0.01223
2325.93432,0.01272
2323.87415,0.01352
2321.81398,0.01417
2319.75380,0.01463
2317.69363,0.01439
2315.63346,0.01418
2313.57329,0.01428
2311.51312,0.01411
2309.45294,0.01382
2307.39277,0.01399
2305.33260,0.01429
2303.27243,0.01421
2301.21225,0.01385
2299.15208,0.01324
2297.09191,0.01272
2295.03174,0.01249
2292.97157,0.01237
2290.91139,0.01247
2288.85122,0.01280
2286.79105,0.01295
2284.73088,0.01271
2282.67071,0.01232
2280.61053,0.01204
2278.55036,0.01170
2276.49019,0.01119
2274.43002,0.01073
2272.36984,0.01050
2270.30967,0.01048
2268.24950,0.01053
2266.18933,0.01039
2264.12916,0.01012
2262.06898,0.01010
2260.00881,0.01037
2257.94864,0.01059
2255.88847,0.01062
2253.82830,0.01032
2251.76812,0.00990
2249.70795,0.00991
2247.64778,0.01007
2245.58761,0.00940
2243.52744,0.00820
2241.46726,0.00771
2239.40709,0.00807
2237.34692,0.00828
2235.28675,0.00830
2233.22657,0.00881
2231.16640,0.00952
2229.10623,0.00964
2227.04606,0.00870
2224.98589,0.00753
2222.92571,0.00763
2220.86554,0.00825
2218.80537,0.00805
2216.74520,0.00773
2214.68503,0.00798
2212.62485,0.00863
2210.56468,0.00911
2208.50451,0.00837
2206.44434,0.00693
2204.38417,0.00633
2202.32399,0.00662
2200.26382,0.00723
2198.20365,0.00748
2196.14348,0.00697
2194.08330,0.00602
2192.02313,0.00526
2189.96296,0.00496
2187.90279,0.00516
2185.84262,0.00586
2183.78244,0.00537
2181.72227,0.00401
2179.66210,0.00456
2177.60193,0.00593
2175.54176,0.00593
2173.48158,0.00516
2171.42141,0.00487
2169.36124,0.00511
2167.30107,0.00530
2165.24089,0.00539
2163.18072,0.00530
2161.12055,0.00492
2159.06038,0.00461
2157.00021,0.00398
2154.94003,0.00354
2152.87986,0.00455
2150.81969,0.00556
2148.75952,0.00556
2146.69935,0.00556
2144.63917,0.00565
2142.57900,0.00543
2140.51883,0.00549
2138.45866,0.00599
2136.39849,0.00591
2134.33831,0.00556
2132.27814,0.00581
2130.21797,0.00596
2128.15780,0.00598
2126.09762,0.00633
2124.03745,0.00648
2121.97728,0.00633
2119.91711,0.00619
2117.85694,0.00598
2115.79676,0.00595
2113.73659,0.00620
2111.67642,0.00615
2109.61625,0.00606
2107.55608,0.00604
2105.49590,0.00574
2103.43573,0.00565
2101.37556,0.00563
2099.31539,0.00506
2097.25521,0.00439
2095.19504,0.00456
2093.13487,0.00551
2091.07470,0.00520
2089.01453,0.00389
2086.95435,0.00393
2084.89418,0.00509
2082.83401,0.00557
2080.77384,0.00504
2078.71367,0.00469
2076.65349,0.00489
2074.59332,0.00474
2072.53315,0.00431
2070.47298,0.00421
2068.41281,0.00408
2066.35263,0.00391
2064.29246,0.00381
2062.23229,0.00368
2060.17212,0.00348
2058.11194,0.00313
2056.05177,0.00311
2053.99160,0.00368
2051.93143,0.00381
2049.87126,0.00286
2047.81108,0.00214
2045.75091,0.00256
2043.69074,0.00301
2041.63057,0.00272
2039.57040,0.00181
2037.51022,0.00109
2035.45005,0.00169
2033.38988,0.00281
2031.32971,0.00300
2029.26954,0.00277
2027.20936,0.00238
2025.14919,0.00158
2023.08902,0.00145
2021.02885,0.00228
2018.96867,0.00270
2016.90850,0.00200
2014.84833,0.00113
2012.78816,0.00128
2010.72799,0.00222
2008.66781,0.00267
2006.60764,0.00204
2004.54747,0.00105
2002.48730,0.00076
2000.42713,0.00123
1998.36695,0.00150
1996.30678,0.00163
1994.24661,0.00245
1992.18644,0.00314
1990.12626,0.00252
1988.06609,0.00126
1986.00592,0.00060
1983.94575,0.00107
1981.88558,0.00217
1979.82540,0.00249
1977.76523,0.00188
1975.70506,0.00194
1973.64489,0.00290
1971.58472,0.00345
1969.52454,0.00290
1967.46437,0.00128
1965.40420,0.00008
1963.34403,0.00034
1961.28386,0.00099
1959.22368,0.00146
1957.16351,0.00182
1955.10334,0.00168
1953.04317,0.00132
1950.98299,0.00149
1948.92282,0.00183
1946.86265,0.00155
1944.80248,0.00119
1942.74231,0.00168
1940.68213,0.00242
1938.62196,0.00256
1936.56179,0.00271
1934.50162,0.00308
1932.44145,0.00285
1930.38127,0.00217
1928.32110,0.00168
1926.26093,0.00144
1924.20076,0.00159
1922.14059,0.00224
1920.08041,0.00272
1918.02024,0.00256
1915.96007,0.00235
1913.89990,0.00235
1911.83972,0.00225
1909.77955,0.00208
1907.71938,0.00184
1905.65921,0.00166
1903.59904,0.00176
1901.53886,0.00163
1899.47869,0.00088
1897.41852,0.00036
1895.35835,0.00088
1893.29818,0.00192
1891.23800,0.00252
1889.17783,0.00257
1887.11766,0.00249
1885.05749,0.00222
1882.99731,0.00175
1880.93714,0.00147
1878.87697,0.00151
1876.81680,0.00161
1874.75663,0.00161
1872.69645,0.00139
1870.63628,0.00088
1868.57611,0.00049
1866.51594,0.00074
1864.45577,0.00138
1862.39559,0.00191
1860.33542,0.00222
1858.27525,0.00222
1856.21508,0.00192
1854.15491,0.00159
1852.09473,0.00133
1850.03456,0.00114
1847.97439,0.00106
1845.91422,0.00109
1843.85404,0.00118
1841.79387,0.00134
1839.73370,0.00150
1837.67353,0.00163
1835.61336,0.00168
1833.55318,0.00167
1831.49301,0.00172
1829.43284,0.00193
1827.37267,0.00220
1825.31250,0.00236
1823.25232,0.00234
1821.19215,0.00232
1819.13198,0.00237
1817.07181,0.00229
1815.01163,0.00208
1812.95146,0.00204
1810.89129,0.00208
1808.83112,0.00194
1806.77095,0.00178
1804.71077,0.00180
1802.65060,0.00194
1800.59043,0.00217
1798.53026,0.00239
1796.47009,0.00236
1794.40991,0.00208
1792.34974,0.00185
1790.28957,0.00202
1788.22940,0.00240
1786.16923,0.00251
1784.10905,0.00239
1782.04888,0.00234
1779.98871,0.00238
1777.92854,0.00241
1775.86836,0.00227
1773.80819,0.00190
1771.74802,0.00175
1769.68785,0.00214
1767.62768,0.00270
1765.56750,0.00309
1763.50733,0.00322
1761.44716,0.00325
1759.38699,0.00341
1757.32682,0.00377
1755.26664,0.00420
1753.20647,0.00464
1751.14630,0.00513
1749.08613,0.00552
1747.02596,0.00577
1744.96578,0.00602
1742.90561,0.00609
1740.84544,0.00602
1738.78527,0.00617
1736.72509,0.00644
1734.66492,0.00667
1732.60475,0.00707
1730.54458,0.00752
1728.48441,0.00782
1726.42423,0.00802
1724.36406,0.00829
1722.30389,0.00861
1720.24372,0.00873
1718.18355,0.00870
1716.12337,0.00901
1714.06320,0.00962
1712.00303,0.01012
1709.94286,0.01027
1707.88268,0.01016
1705.82251,0.01017
1703.76234,0.01051
1701.70217,0.01108
1699.64200,0.01191
1697.58182,0.01283
1695.52165,0.01363
1693.46148,0.01429
1691.40131,0.01478
1689.34114,0.01514
1687.28096,0.01543
1685.22079,0.01586
1683.16062,0.01679
1681.10045,0.01775
1679.04028,0.01822
1676.98010,0.01837
1674.91993,0.01869
1672.85976,0.01927
1670.79959,0.01993
1668.73941,0.02074
1666.67924,0.02150
1664.61907,0.02203
1662.55890,0.02262
1660.49873,0.02330
1658.43855,0.02376
1656.37838,0.02381
1654.31821,0.02369
1652.25804,0.02398
1650.19787,0.02433
1648.13769,0.02458
1646.07752,0.02518
1644.01735,0.02574
1641.95718,0.02560
1639.89701,0.02497
1637.83683,0.02453
1635.77666,0.02486
1633.71649,0.02561
1631.65632,0.02586
1629.59614,0.02554
1627.53597,0.02512
1625.47580,0.02485
1623.41563,0.02474
1621.35546,0.02483
1619.29528,0.02489
1617.23511,0.02487
1615.17494,0.02503
1613.11477,0.02521
1611.05460,0.02518
1608.99442,0.02495
1606.93425,0.02457
1604.87408,0.02405
1602.81391,0.02338
1600.75373,0.02265
1598.69356,0.02196
1596.63339,0.02123
1594.57322,0.02045
1592.51305,0.01970
1590.45287,0.01890
1588.39270,0.01801
1586.33253,0.01706
1584.27236,0.01612
1582.21219,0.01523
1580.15201,0.01444
1578.09184,0.01357
1576.03167,0.01270
1573.97150,0.01220
1571.91133,0.01170
1569.85115,0.01096
1567.79098,0.01043
1565.73081,0.01022
1563.67064,0.00997
1561.61046,0.00935
1559.55029,0.00845
1557.49012,0.00815
1555.42995,0.00839
1553.36978,0.00827
1551.30960,0.00765
1549.24943,0.00700
1547.18926,0.00652
1545.12909,0.00607
1543.06892,0.00535
1541.00874,0.00439
1538.94857,0.00403
1536.88840,0.00420
1534.82823,0.00419
1532.76805,0.00409
1530.70788,0.00397
1528.64771,0.00359
1526.58754,0.00311
1524.52737,0.00281
1522.46719,0.00268
1520.40702,0.00266
1518.34685,0.00269
1516.28668,0.00276
1514.22651,0.00278
1512.16633,0.00262
1510.10616,0.00223
1508.04599,0.00164
1505.98582,0.00118
1503.92565,0.00120
1501.86547,0.00137
1499.80530,0.00131
1497.74513,0.00105
1495.68496,0.00081
1493.62478,0.00070
1491.56461,0.00066
1489.50444,0.00077
1487.44427,0.00106
1485.38410,0.00130
1483.32392,0.00138
1481.26375,0.00144
1479.20358,0.00160
1477.14341,0.00174
1475.08324,0.00190
1473.02306,0.00246
1470.96289,0.00335
1468.90272,0.00396
1466.84255,0.00425
1464.78238,0.00453
1462.72220,0.00484
1460.66203,0.00501
1458.60186,0.00528
1456.54169,0.00601
1454.48151,0.00660
1452.42134,0.00664
1450.36117,0.00640
1448.30100,0.00624
1446.24083,0.00625
1444.18065,0.00621
1442.12048,0.00607
1440.06031,0.00589
1438.00014,0.00579
1435.93997,0.00591
1433.87979,0.00609
1431.81962,0.00613
1429.75945,0.00623
1427.69928,0.00646
1425.63910,0.00667
1423.57893,0.00694
1421.51876,0.00732
1419.45859,0.00778
1417.39842,0.00815
1415.33824,0.00819
1413.27807,0.00806
1411.21790,0.00795
1409.15773,0.00784
1407.09756,0.00769
1405.03738,0.00747
1402.97721,0.00725
1400.91704,0.00708
1398.85687,0.00703
1396.79670,0.00706
1394.73652,0.00701
1392.67635,0.00689
1390.61618,0.00690
1388.55601,0.00707
1386.49583,0.00725
1384.43566,0.00741
1382.37549,0.00763
1380.31532,0.00788
1378.25515,0.00817
1376.19497,0.00843
1374.13480,0.00863
1372.07463,0.00872
1370.01446,0.00869
1367.95429,0.00854
1365.89411,0.00829
1363.83394,0.00805
1361.77377,0.00783
1359.71360,0.00746
1357.65343,0.00699
1355.59325,0.00670
1353.53308,0.00659
1351.47291,0.00648
1349.41274,0.00627
1347.35256,0.00609
1345.29239,0.00599
1343.23222,0.00602
1341.17205,0.00619
1339.11188,0.00640
1337.05170,0.00641
1334.99153,0.00620
1332.93136,0.00587
1330.87119,0.00563
1328.81102,0.00551
1326.75084,0.00535
1324.69067,0.00511
1322.63050,0.00488
1320.57033,0.00478
1318.51015,0.00477
1316.44998,0.00464
1314.38981,0.00449
1312.32964,0.00446
1310.26947,0.00442
1308.20929,0.00431
1306.14912,0.00424
1304.08895,0.00425
1302.02878,0.00423
1299.96861,0.00416
1297.90843,0.00421
1295.84826,0.00448
1293.78809,0.00473
1291.72792,0.00470
1289.66775,0.00448
1287.60757,0.00441
1285.54740,0.00449
1283.48723,0.00453
1281.42706,0.00454
1279.36688,0.00461
1277.30671,0.00476
1275.24654,0.00492
1273.18637,0.00497
1271.12620,0.00490
1269.06602,0.00476
1267.00585,0.00466
1264.94568,0.00475
1262.88551,0.00492
1260.82534,0.00495
1258.76516,0.00485
1256.70499,0.00470
1254.64482,0.00453
1252.58465,0.00432
1250.52447,0.00412
1248.46430,0.00398
1246.40413,0.00385
1244.34396,0.00369
1242.28379,0.00354
1240.22361,0.00336
1238.16344,0.00314
1236.10327,0.00295
1234.04310,0.00291
1231.98293,0.00304
1229.92275,0.00304
1227.86258,0.00288
1225.80241,0.00286
1223.74224,0.00284
1221.68207,0.00257
1219.62189,0.00220
1217.56172,0.00190
1215.50155,0.00167
1213.44138,0.00151
1211.38120,0.00136
1209.32103,0.00105
1207.26086,0.00062
1205.20069,0.00037
1203.14052,0.00026
1201.08034,0.00008
1199.02017,0.00000
1196.96000,0.00007
1194.89983,0.00013
1192.83966,0.00031
1190.77948,0.00068
1188.71931,0.00126
1186.65914,0.00202
1184.59897,0.00273
1182.53880,0.00348
1180.47862,0.00444
1178.41845,0.00565
1176.35828,0.00706
1174.29811,0.00845
1172.23793,0.00963
1170.17776,0.01079
1168.11759,0.01211
1166.05742,0.01346
1163.99725,0.01474
1161.93707,0.01605
1159.87690,0.01723
1157.81673,0.01806
1155.75656,0.01878
1153.69639,0.01972
1151.63621,0.02095
1149.57604,0.02237
1147.51587,0.02379
1145.45570,0.02524
1143.39552,0.02680
1141.33535,0.02844
1139.27518,0.03007
1137.21501,0.03152
1135.15484,0.03292
1133.09466,0.03459
1131.03449,0.03622
1128.97432,0.03742
1126.91415,0.03865
1124.85398,0.04018
1122.79380,0.04167
1120.73363,0.04289
1118.67346,0.04412
1116.61329,0.04558
1114.55312,0.04723
1112.49294,0.04898
1110.43277,0.05077
1108.37260,0.05268
1106.31243,0.05492
1104.25225,0.05735
1102.19208,0.05970
1100.13191,0.06208
1098.07174,0.06471
1096.01157,0.06739
1093.95139,0.06975
1091.89122,0.07165
1089.83105,0.07345
1087.77088,0.07549
1085.71071,0.07770
1083.65053,0.08001
1081.59036,0.08240
1079.53019,0.08472
1077.47002,0.08675
1075.40985,0.08846
1073.34967,0.08994
1071.28950,0.09128
1069.22933,0.09241
1067.16916,0.09329
1065.10898,0.09408
1063.04881,0.09473
1060.98864,0.09522
1058.92847,0.09562
1056.86830,0.09577
1054.80812,0.09567
1052.74795,0.09544
1050.68778,0.09511
1048.62761,0.09465
1046.56744,0.09384
1044.50726,0.09262
1042.44709,0.09129
1040.38692,0.09003
1038.32675,0.08852
1036.26657,0.08666
1034.20640,0.08482
1032.14623,0.08316
1030.08606,0.08151
1028.02589,0.07988
1025.96571,0.07815
1023.90554,0.07619
1021.84537,0.07435
1019.78520,0.07274
1017.72503,0.07109
1015.66485,0.06926
1013.60468,0.06731
1011.54451,0.06549
1009.48434,0.06391
1007.42417,0.06259
1005.36399,0.06135
1003.30382,0.06005
1001.24365,0.05906
999.18348,0.05882
997.12330,0.05916
995.06313,0.05971
993.00296,0.06050
990.94279,0.06165
988.88262,0.06278
986.82244,0.06358
984.76227,0.06394
982.70210,0.06362
980.64193,0.06269
978.58176,0.06122
976.52158,0.05911
974.46141,0.05667
972.40124,0.05415
970.34107,0.05153
968.28089,0.04899
966.22072,0.04646
964.16055,0.04379
962.10038,0.04128
960.04021,0.03917
957.98003,0.03742
955.91986,0.03597
953.85969,0.03459
951.79952,0.03329
949.73935,0.03227
947.67917,0.03166
945.61900,0.03122
943.55883,0.03063
941.49866,0.02992
939.43849,0.02931
937.37831,0.02900
935.31814,0.02894
933.25797,0.02887
931.19780,0.02869
929.13762,0.02834
927.07745,0.02782
925.01728,0.02745
922.95711,0.02701
920.89694,0.02607
918.83676,0.02479
916.77659,0.02355
914.71642,0.02263
912.65625,0.02192
910.59608,0.02096
908.53590,0.01976
906.47573,0.01894
904.41556,0.01879
902.35539,0.01905
900.29522,0.01938
898.23504,0.01945
896.17487,0.01931
894.11470,0.01918
892.05453,0.01910
889.99435,0.01908
887.93418,0.01906
885.87401,0.01909
883.81384,0.01939
881.75367,0.02006
879.69349,0.02087
877.63332,0.02139
875.57315,0.02172
873.51298,0.02229
871.45281,0.02279
869.39263,0.02287
867.33246,0.02294
865.27229,0.02335
863.21212,0.02354
861.15194,0.02329
859.09177,0.02314
857.03160,0.02296
854.97143,0.02248
852.91126,0.02178
850.85108,0.02082
848.79091,0.01978
846.73074,0.01880
844.67057,0.01778
842.61040,0.01702
840.55022,0.01657
838.49005,0.01610
836.42988,0.01538
834.36971,0.01432
832.30954,0.01313
830.24936,0.01214
828.18919,0.01144
826.12902,0.01087
824.06885,0.01048
822.00867,0.01009
819.94850,0.00924
817.88833,0.00837
815.82816,0.00811
813.76799,0.00816
811.70781,0.00806
809.64764,0.00778
807.58747,0.00725
805.52730,0.00657
803.46713,0.00603
801.40695,0.00576
799.34678,0.00555
797.28661,0.00508
795.22644,0.00461
793.16627,0.00454
791.10609,0.00453
789.04592,0.00430
786.98575,0.00433
784.92558,0.00477
782.86540,0.00516
780.80523,0.00530
778.74506,0.00513
776.68489,0.00497
774.62472,0.00513
772.56454,0.00517
770.50437,0.00517
768.44420,0.00551
766.38403,0.00603
764.32386,0.00618
762.26368,0.00562
760.20351,0.00462
758.14334,0.00360
756.08317,0.00318
754.02299,0.00342
751.96282,0.00354
749.90265,0.00337
747.84248,0.00314
745.78231,0.00268
743.72213,0.00169
741.66196,0.00092
739.60179,0.00106
737.54162,0.00157
735.48145,0.00175
733.42127,0.00143
731.36110,0.00131
729.30093,0.00193
727.24076,0.00239
725.18059,0.00212
723.12041,0.00175
721.06024,0.00211
719.00007,0.00234
716.93990,0.00265
714.87972,0.00321
712.81955,0.00358
710.75938,0.00369
708.69921,0.00347
706.63904,0.00314
704.57886,0.00314
702.51869,0.00356
700.45852,0.00429
698.39835,0.00500
696.33818,0.00525
694.27800,0.00497
692.21783,0.00448
690.15766,0.00410
688.09749,0.00353
686.03731,0.00231
683.97714,0.00114
681.91697,0.00091
679.85680,0.00142
677.79663,0.00180
675.73645,0.00144
673.67628,0.00061
671.61611,0.00081
669.55594,0.00467
667.49577,0.00703
665.43559,0.00291
663.37542,0.00148
661.31525,0.00129
659.25508,0.00138
657.19491,0.00157
655.13473,0.00165
653.07456,0.00181
651.01439,0.00234
648.95422,0.00356
646.89404,0.00471
644.83387,0.00496
642.77370,0.00466
640.71353,0.00450
638.65336,0.00447
636.59318,0.00477
634.53301,0.00536
632.47284,0.00542
630.41267,0.00491
628.35250,0.00469
626.29232,0.00477
624.23215,0.00432
622.17198,0.00437
620.11181,0.00546
618.05164,0.00605
615.99146,0.00527
613.93129,0.00283
611.87112,0.00000
609.81095,0.00047
607.75077,0.00394
605.69060,0.00465
603.63043,0.00291
601.57026,0.00153
599.51009,0.00000
