3996.73391,0.00016
3994.67373,0.00027
3992.61356,0.00027
3990.55339,0.00043
3988.49322,0.00066
3986.43305,0.00066
3984.37287,0.00037
3982.31270,0.00021
3980.25253,0.00042
3978.19236,0.00062
3976.13219,0.00055
3974.07201,0.00037
3972.01184,0.00020
3969.95167,0.00005
3967.89150,0.00000
3965.83133,0.00013
3963.77115,0.00049
3961.71098,0.00087
3959.65081,0.00088
3957.59064,0.00065
3955.53046,0.00054
3953.47029,0.00053
3951.41012,0.00038
3949.34995,0.00035
3947.28978,0.00069
3945.22960,0.00091
3943.16943,0.00065
3941.10926,0.00035
3939.04909,0.00045
3936.98892,0.00072
3934.92874,0.00081
3932.86857,0.00065
3930.80840,0.00033
3928.74823,0.00004
3926.68805,0.00000
3924.62788,0.00036
3922.56771,0.00099
3920.50754,0.00140
3918.44737,0.00144
3916.38719,0.00138
3914.32702,0.00135
3912.26685,0.00115
3910.20668,0.00086
3908.14651,0.00082
3906.08633,0.00095
3904.02616,0.00084
3901.96599,0.00051
3899.90582,0.00060
3897.84565,0.00125
3895.78547,0.00165
3893.72530,0.00140
3891.66513,0.00109
3889.60496,0.00113
3887.54478,0.00117
3885.48461,0.00096
3883.42444,0.00069
3881.36427,0.00061
3879.30410,0.00060
3877.24392,0.00048
3875.18375,0.00034
3873.12358,0.00042
3871.06341,0.00072
3869.00324,0.00081
3866.94306,0.00069
3864.88289,0.00088
3862.82272,0.00127
3860.76255,0.00133
3858.70237,0.00109
3856.64220,0.00070
3854.58203,0.00038
3852.52186,0.00062
3850.46169,0.00099
3848.40151,0.00096
3846.34134,0.00077
3844.28117,0.00062
3842.22100,0.00033
3840.16083,0.00000
3838.10065,0.00020
3836.04048,0.00078
3833.98031,0.00105
3831.92014,0.00094
3829.85997,0.00085
3827.79979,0.00096
3825.73962,0.00102
3823.67945,0.00082
3821.61928,0.00053
3819.55910,0.00031
3817.49893,0.00042
3815.43876,0.00089
3813.37859,0.00106
3811.31842,0.00065
3809.25824,0.00025
3807.19807,0.00027
3805.13790,0.00060
3803.07773,0.00088
3801.01756,0.00111
3798.95738,0.00138
3796.89721,0.00136
3794.83704,0.00101
3792.77687,0.00080
3790.71670,0.00083
3788.65652,0.00080
3786.59635,0.00060
3784.53618,0.00045
3782.47601,0.00044
3780.41583,0.00046
3778.35566,0.00054
3776.29549,0.00064
3774.23532,0.00074
3772.17515,0.00096
3770.11497,0.00114
3768.05480,0.00094
3765.99463,0.00060
3763.93446,0.00059
3761.87429,0.00082
3759.81411,0.00098
3757.75394,0.00101
3755.69377,0.00083
3753.63360,0.00046
3751.57342,0.00022
3749.51325,0.00035
3747.45308,0.00057
3745.39291,0.00080
3743.33274,0.00097
3741.27256,0.00097
3739.21239,0.00085
3737.15222,0.00045
3735.09205,0.00000
3733.03188,0.00016
3730.97170,0.00075
3728.91153,0.00106
3726.85136,0.00109
3724.79119,0.00126
3722.73102,0.00152
3720.67084,0.00141
3718.61067,0.00091
3716.55050,0.00050
3714.49033,0.00062
3712.43015,0.00123
3710.36998,0.00166
3708.30981,0.00137
3706.24964,0.00088
3704.18947,0.00081
3702.12929,0.00118
3700.06912,0.00169
3698.00895,0.00214
3695.94878,0.00235
3693.88861,0.00216
3691.82843,0.00180
3689.76826,0.00172
3687.70809,0.00185
3685.64792,0.00179
3683.58775,0.00162
3681.52757,0.00157
3679.46740,0.00174
3677.40723,0.00193
3675.34706,0.00183
3673.28688,0.00158
3671.22671,0.00154
3669.16654,0.00196
3667.10637,0.00259
3665.04620,0.00297
3662.98602,0.00308
3660.92585,0.00325
3658.86568,0.00368
3656.80551,0.00421
3654.74534,0.00449
3652.68516,0.00444
3650.62499,0.00455
3648.56482,0.00508
3646.50465,0.00552
3644.44447,0.00572
3642.38430,0.00597
3640.32413,0.00639
3638.26396,0.00704
3636.20379,0.00791
3634.14361,0.00849
3632.08344,0.00834
3630.02327,0.00794
3627.96310,0.00822
3625.90293,0.00898
3623.84275,0.00947
3621.78258,0.00954
3619.72241,0.00948
3617.66224,0.00994
3615.60207,0.01095
3613.54189,0.01192
3611.48172,0.01243
3609.42155,0.01262
3607.36138,0.01288
3605.30120,0.01343
3603.24103,0.01420
3601.18086,0.01490
3599.12069,0.01550
3597.06052,0.01615
3595.00034,0.01686
3592.94017,0.01728
3590.88000,0.01730
3588.81983,0.01731
3586.75966,0.01765
3584.69948,0.01811
3582.63931,0.01855
3580.57914,0.01911
3578.51897,0.01964
3576.45879,0.02004
3574.39862,0.02037
3572.33845,0.02057
3570.27828,0.02075
3568.21811,0.02125
3566.15793,0.02195
3564.09776,0.02236
3562.03759,0.02273
3559.97742,0.02335
3557.91725,0.02396
3555.85707,0.02444
3553.79690,0.02486
3551.73673,0.02526
3549.67656,0.02570
3547.61639,0.02617
3545.55621,0.02661
3543.49604,0.02703
3541.43587,0.02737
3539.37570,0.02769
3537.31552,0.02816
3535.25535,0.02873
3533.19518,0.02927
3531.13501,0.02979
3529.07484,0.03032
3527.01466,0.03084
3524.95449,0.03130
3522.89432,0.03162
3520.83415,0.03167
3518.77398,0.03167
3516.71380,0.03197
3514.65363,0.03261
3512.59346,0.03346
3510.53329,0.03425
3508.47312,0.03475
3506.41294,0.03503
3504.35277,0.03532
3502.29260,0.03559
3500.23243,0.03577
3498.17225,0.03617
3496.11208,0.03687
3494.05191,0.03739
3491.99174,0.03761
3489.93157,0.03790
3487.87139,0.03828
3485.81122,0.03865
3483.75105,0.03909
3481.69088,0.03945
3479.63071,0.03951
3477.57053,0.03932
3475.51036,0.03929
3473.45019,0.03969
3471.39002,0.04027
3469.32984,0.04084
3467.26967,0.04132
3465.20950,0.04154
3463.14933,0.04179
3461.08916,0.04240
3459.02898,0.04315
3456.96881,0.04369
3454.90864,0.04391
3452.84847,0.04388
3450.78830,0.04392
3448.72812,0.04412
3446.66795,0.04434
3444.60778,0.04469
3442.54761,0.04537
3440.48744,0.04625
3438.42726,0.04699
3436.36709,0.04737
3434.30692,0.04724
3432.24675,0.04678
3430.18657,0.04669
3428.12640,0.04729
3426.06623,0.04805
3424.00606,0.04850
3421.94589,0.04887
3419.88571,0.04907
3417.82554,0.04898
3415.76537,0.04926
3413.70520,0.04983
3411.64503,0.04987
3409.58485,0.04958
3407.52468,0.04968
3405.46451,0.05019
3403.40434,0.05066
3401.34416,0.05072
3399.28399,0.05052
3397.22382,0.05040
3395.16365,0.05063
3393.10348,0.05104
3391.04330,0.05138
3388.98313,0.05145
3386.92296,0.05149
3384.86279,0.05183
3382.80262,0.05216
3380.74244,0.05224
3378.68227,0.05235
3376.62210,0.05266
3374.56193,0.05303
3372.50176,0.05321
3370.44158,0.05311
3368.38141,0.05291
3366.32124,0.05299
3364.26107,0.05337
3362.20089,0.05379
3360.14072,0.05415
3358.08055,0.05431
3356.02038,0.05439
3353.96021,0.05453
3351.90003,0.05449
3349.83986,0.05452
3347.77969,0.05487
3345.71952,0.05499
3343.65935,0.05470
3341.59917,0.05456
3339.53900,0.05481
3337.47883,0.05501
3335.41866,0.05498
3333.35849,0.05490
3331.29831,0.05480
3329.23814,0.05486
3327.17797,0.05508
3325.11780,0.05521
3323.05762,0.05536
3320.99745,0.05564
3318.93728,0.05576
3316.87711,0.05559
3314.81694,0.05536
3312.75676,0.05538
3310.69659,0.05558
3308.63642,0.05559
3306.57625,0.05549
3304.51608,0.05550
3302.45590,0.05544
3300.39573,0.05521
3298.33556,0.05508
3296.27539,0.05531
3294.21521,0.05571
3292.15504,0.05590
3290.09487,0.05589
3288.03470,0.05593
3285.97453,0.05614
3283.91435,0.05643
3281.85418,0.05650
3279.79401,0.05642
3277.73384,0.05641
3275.67367,0.05640
3273.61349,0.05638
3271.55332,0.05646
3269.49315,0.05661
3267.43298,0.05673
3265.37281,0.05681
3263.31263,0.05672
3261.25246,0.05667
3259.19229,0.05686
3257.13212,0.05690
3255.07194,0.05662
3253.01177,0.05629
3250.95160,0.05617
3248.89143,0.05638
3246.83126,0.05670
3244.77108,0.05679
3242.71091,0.05656
3240.65074,0.05638
3238.59057,0.05650
3236.53040,0.05666
3234.47022,0.05655
3232.41005,0.05628
3230.34988,0.05623
3228.28971,0.05650
3226.22954,0.05661
3224.16936,0.05628
3222.10919,0.05583
3220.04902,0.05558
3217.98885,0.05551
3215.92867,0.05547
3213.86850,0.05540
3211.80833,0.05546
3209.74816,0.05566
3207.68799,0.05579
3205.62781,0.05568
3203.56764,0.05532
3201.50747,0.05488
3199.44730,0.05472
3197.38713,0.05482
3195.32695,0.05473
3193.26678,0.05464
3191.20661,0.05487
3189.14644,0.05506
3187.08626,0.05480
3185.02609,0.05430
3182.96592,0.05390
3180.90575,0.05367
3178.84558,0.05351
3176.78540,0.05340
3174.72523,0.05331
3172.66506,0.05326
3170.60489,0.05326
3168.54472,0.05314
3166.48454,0.05294
3164.42437,0.05290
3162.36420,0.05307
3160.30403,0.05313
3158.24386,0.05270
3156.18368,0.05211
3154.12351,0.05188
3152.06334,0.05189
3150.00317,0.05167
3147.94299,0.05119
3145.88282,0.05082
3143.82265,0.05066
3141.76248,0.05070
3139.70231,0.05096
3137.64213,0.05106
3135.58196,0.05088
3133.52179,0.05062
3131.46162,0.05023
3129.40145,0.04973
3127.34127,0.04945
3125.28110,0.04948
3123.22093,0.04943
3121.16076,0.04914
3119.10058,0.04885
3117.04041,0.04879
3114.98024,0.04865
3112.92007,0.04832
3110.85990,0.04817
3108.79972,0.04808
3106.73955,0.04776
3104.67938,0.04741
3102.61921,0.04724
3100.55904,0.04698
3098.49886,0.04653
3096.43869,0.04618
3094.37852,0.04607
3092.31835,0.04601
3090.25818,0.04583
3088.19800,0.04556
3086.13783,0.04542
3084.07766,0.04546
3082.01749,0.04542
3079.95731,0.04512
3077.89714,0.04470
3075.83697,0.04429
3073.77680,0.04379
3071.71663,0.04337
3069.65645,0.04330
3067.59628,0.04329
3065.53611,0.04308
3063.47594,0.04284
3061.41577,0.04267
3059.35559,0.04248
3057.29542,0.04222
3055.23525,0.04180
3053.17508,0.04131
3051.11491,0.04105
3049.05473,0.04110
3046.99456,0.04118
3044.93439,0.04101
3042.87422,0.04064
3040.81404,0.04031
3038.75387,0.04019
3036.69370,0.04009
3034.63353,0.03972
3032.57336,0.03922
3030.51318,0.03882
3028.45301,0.03848
3026.39284,0.03830
3024.33267,0.03829
3022.27250,0.03815
3020.21232,0.03798
3018.15215,0.03790
3016.09198,0.03772
3014.03181,0.03742
3011.97163,0.03710
3009.91146,0.03684
3007.85129,0.03660
3005.79112,0.03636
3003.73095,0.03624
3001.67077,0.03620
2999.61060,0.03609
2997.55043,0.03584
2995.49026,0.03547
2993.43009,0.03522
2991.36991,0.03511
2989.30974,0.03492
2987.24957,0.03458
2985.18940,0.03421
2983.12923,0.03406
2981.06905,0.03420
2979.00888,0.03431
2976.94871,0.03415
2974.88854,0.03399
2972.82836,0.03389
2970.76819,0.03371
2968.70802,0.03356
2966.64785,0.03353
2964.58768,0.03353
2962.52750,0.03347
2960.46733,0.03340
2958.40716,0.03340
2956.34699,0.03326
2954.28682,0.03300
2952.22664,0.03307
2950.16647,0.03344
2948.10630,0.03359
2946.04613,0.03361
2943.98596,0.03374
2941.92578,0.03378
2939.86561,0.03366
2937.80544,0.03346
2935.74527,0.03337
2933.68509,0.03348
2931.62492,0.03347
2929.56475,0.03321
2927.50458,0.03300
2925.44441,0.03283
2923.38423,0.03267
2921.32406,0.03258
2919.26389,0.03235
2917.20372,0.03200
2915.14355,0.03182
2913.08337,0.03177
2911.02320,0.03171
2908.96303,0.03163
2906.90286,0.03148
2904.84268,0.03139
2902.78251,0.03140
2900.72234,0.03129
2898.66217,0.03113
2896.60200,0.03114
2894.54182,0.03115
2892.48165,0.03105
2890.42148,0.03097
2888.36131,0.03096
2886.30114,0.03102
2884.24096,0.03105
2882.18079,0.03093
2880.12062,0.03073
2878.06045,0.03055
2876.00028,0.03042
2873.94010,0.03029
2871.87993,0.03013
2869.81976,0.02982
2867.75959,0.02943
2865.69941,0.02930
2863.63924,0.02938
2861.57907,0.02935
2859.51890,0.02920
2857.45873,0.02915
2855.39855,0.02910
2853.33838,0.02890
2851.27821,0.02868
2849.21804,0.02848
2847.15787,0.02816
2845.09769,0.02773
2843.03752,0.02740
2840.97735,0.02727
2838.91718,0.02733
2836.85700,0.02739
2834.79683,0.02726
2832.73666,0.02705
2830.67649,0.02699
2828.61632,0.02704
2826.55614,0.02695
2824.49597,0.02672
2822.43580,0.02664
2820.37563,0.02664
2818.31546,0.02658
2816.25528,0.02652
2814.19511,0.02633
2812.13494,0.02599
2810.07477,0.02564
2808.01460,0.02526
2805.95442,0.02507
2803.89425,0.02522
2801.83408,0.02545
2799.77391,0.02547
2797.71373,0.02522
2795.65356,0.02484
2793.59339,0.02451
2791.53322,0.02430
2789.47305,0.02430
2787.41287,0.02439
2785.35270,0.02426
2783.29253,0.02397
2781.23236,0.02391
2779.17219,0.02395
2777.11201,0.02382
2775.05184,0.02374
2772.99167,0.02375
2770.93150,0.02365
2768.87133,0.02354
2766.81115,0.02360
2764.75098,0.02358
2762.69081,0.02331
2760.63064,0.02301
2758.57046,0.02280
2756.51029,0.02269
2754.45012,0.02268
2752.38995,0.02268
2750.32978,0.02259
2748.26960,0.02242
2746.20943,0.02225
2744.14926,0.02216
2742.08909,0.02217
2740.02892,0.02211
2737.96874,0.02192
2735.90857,0.02175
2733.84840,0.02167
2731.78823,0.02164
2729.72805,0.02152
2727.66788,0.02139
2725.60771,0.02127
2723.54754,0.02113
2721.48737,0.02112
2719.42719,0.02117
2717.36702,0.02119
2715.30685,0.02101
2713.24668,0.02062
2711.18651,0.02031
2709.12633,0.02014
2707.06616,0.02010
2705.00599,0.02013
2702.94582,0.02005
2700.88565,0.01983
2698.82547,0.01959
2696.76530,0.01947
2694.70513,0.01945
2692.64496,0.01937
2690.58478,0.01920
2688.52461,0.01907
2686.46444,0.01896
2684.40427,0.01879
2682.34410,0.01867
2680.28392,0.01859
2678.22375,0.01840
2676.16358,0.01817
2674.10341,0.01800
2672.04324,0.01786
2669.98306,0.01779
2667.92289,0.01783
2665.86272,0.01782
2663.80255,0.01768
2661.74238,0.01753
2659.68220,0.01734
2657.62203,0.01704
2655.56186,0.01692
2653.50169,0.01690
2651.44151,0.01678
2649.38134,0.01656
2647.32117,0.01626
2645.26100,0.01599
2643.20083,0.01582
2641.14065,0.01573
2639.08048,0.01571
2637.02031,0.01566
2634.96014,0.01560
2632.89997,0.01547
2630.83979,0.01531
2628.77962,0.01530
2626.71945,0.01524
2624.65928,0.01492
2622.59910,0.01465
2620.53893,0.01458
2618.47876,0.01467
2616.41859,0.01467
2614.35842,0.01448
2612.29824,0.01437
2610.23807,0.01435
2608.17790,0.01417
2606.11773,0.01379
2604.05756,0.01351
2601.99738,0.01352
2599.93721,0.01360
2597.87704,0.01356
2595.81687,0.01338
2593.75670,0.01311
2591.69652,0.01273
2589.63635,0.01244
2587.57618,0.01252
2585.51601,0.01290
2583.45583,0.01329
2581.39566,0.01332
2579.33549,0.01304
2577.27532,0.01298
2575.21515,0.01302
2573.15497,0.01250
2571.09480,0.01171
2569.03463,0.01146
2566.97446,0.01177
2564.91429,0.01225
2562.85411,0.01258
2560.79394,0.01262
2558.73377,0.01236
2556.67360,0.01193
2554.61342,0.01157
2552.55325,0.01165
2550.49308,0.01231
2548.43291,0.01291
2546.37274,0.01292
2544.31256,0.01252
2542.25239,0.01206
2540.19222,0.01199
2538.13205,0.01234
2536.07188,0.01265
2534.01170,0.01277
2531.95153,0.01271
2529.89136,0.01244
2527.83119,0.01220
2525.77102,0.01230
2523.71084,0.01269
2521.65067,0.01291
2519.59050,0.01270
2517.53033,0.01235
2515.47015,0.01208
2513.40998,0.01197
2511.34981,0.01210
2509.28964,0.01235
2507.22947,0.01241
2505.16929,0.01213
2503.10912,0.01186
2501.04895,0.01185
2498.98878,0.01192
2496.92861,0.01195
2494.86843,0.01208
2492.80826,0.01240
2490.74809,0.01263
2488.68792,0.01259
2486.62775,0.01266
2484.56757,0.01295
2482.50740,0.01309
2480.44723,0.01294
2478.38706,0.01281
2476.32688,0.01283
2474.26671,0.01301
2472.20654,0.01342
2470.14637,0.01363
2468.08620,0.01333
2466.02602,0.01307
2463.96585,0.01325
2461.90568,0.01349
2459.84551,0.01368
2457.78534,0.01396
2455.72516,0.01411
2453.66499,0.01405
2451.60482,0.01390
2449.54465,0.01362
2447.48447,0.01331
2445.42430,0.01318
2443.36413,0.01324
2441.30396,0.01345
2439.24379,0.01359
2437.18361,0.01353
2435.12344,0.01345
2433.06327,0.01347
2431.00310,0.01350
2428.94293,0.01357
2426.88275,0.01377
2424.82258,0.01394
2422.76241,0.01386
2420.70224,0.01360
2418.64207,0.01347
2416.58189,0.01353
2414.52172,0.01352
2412.46155,0.01347
2410.40138,0.01352
2408.34120,0.01355
2406.28103,0.01341
2404.22086,0.01323
2402.16069,0.01330
2400.10052,0.01347
2398.04034,0.01324
2395.98017,0.01302
2393.92000,0.01296
2391.85983,0.01316
2389.79966,0.01354
2387.73948,0.01381
2385.67931,0.01375
2383.61914,0.01356
2381.55897,0.01356
2379.49880,0.01366
2377.43862,0.01343
2375.37845,0.01291
2373.31828,0.01279
2371.25811,0.01356
2369.19793,0.01495
2367.13776,0.01663
2365.07759,0.01818
2363.01742,0.01903
2360.95725,0.01841
2358.89707,0.01594
2356.83690,0.01366
2354.77673,0.01332
2352.71656,0.01422
2350.65639,0.01522
2348.59621,0.01555
2346.53604,0.01477
2344.47587,0.01291
2342.41570,0.01149
2340.35552,0.01183
2338.29535,0.01300
2336.23518,0.01409
2334.17501,0.01494
2332.11484,0.01542
2330.05466,0.01572
2327.99449,0.01593
2325.93432,0.01599
2323.87415,0.01560
2321.81398,0.01474
2319.75380,0.01394
2317.69363,0.01329
2315.63346,0.01274
2313.57329,0.01236
2311.51312,0.01214
2309.45294,0.01233
2307.39277,0.01287
2305.33260,0.01320
2303.27243,0.01314
2301.21225,0.01293
2299.15208,0.01272
2297.09191,0.01248
2295.03174,0.01231
2292.97157,0.01236
2290.91139,0.01256
2288.85122,0.01269
2286.79105,0.01234
2284.73088,0.01165
2282.67071,0.01140
2280.61053,0.01168
2278.55036,0.01182
2276.49019,0.01161
2274.43002,0.01130
2272.36984,0.01095
2270.30967,0.01056
2268.24950,0.01029
2266.18933,0.01017
2264.12916,0.01001
2262.06898,0.00987
2260.00881,0.00998
2257.94864,0.01002
2255.88847,0.00989
2253.82830,0.00999
2251.76812,0.01023
2249.70795,0.01009
2247.64778,0.00963
2245.58761,0.00914
2243.52744,0.00875
2241.46726,0.00850
2239.40709,0.00866
2237.34692,0.00892
2235.28675,0.00878
2233.22657,0.00847
2231.16640,0.00808
2229.10623,0.00786
2227.04606,0.00818
2224.98589,0.00862
2222.92571,0.00844
2220.86554,0.00818
2218.80537,0.00854
2216.74520,0.00885
2214.68503,0.00863
2212.62485,0.00814
2210.56468,0.00791
2208.50451,0.00819
2206.44434,0.00839
2204.38417,0.00834
2202.32399,0.00837
2200.26382,0.00852
2198.20365,0.00901
2196.14348,0.00883
2194.08330,0.00749
2192.02313,0.00671
2189.96296,0.00665
2187.90279,0.00683
2185.84262,0.00754
2183.78244,0.00779
2181.72227,0.00734
2179.66210,0.00672
2177.60193,0.00536
2175.54176,0.00434
2173.48158,0.00551
2171.42141,0.00781
2169.36124,0.00920
2167.30107,0.00904
2165.24089,0.00799
2163.18072,0.00698
2161.12055,0.00637
2159.06038,0.00587
2157.00021,0.00514
2154.94003,0.00430
2152.87986,0.00410
2150.81969,0.00474
2148.75952,0.00493
2146.69935,0.00473
2144.63917,0.00510
2142.57900,0.00552
2140.51883,0.00532
2138.45866,0.00441
2136.39849,0.00367
2134.33831,0.00366
2132.27814,0.00380
2130.21797,0.00409
2128.15780,0.00462
2126.09762,0.00497
2124.03745,0.00543
2121.97728,0.00609
2119.91711,0.00618
2117.85694,0.00573
2115.79676,0.00559
2113.73659,0.00585
2111.67642,0.00589
2109.61625,0.00585
2107.55608,0.00583
2105.49590,0.00549
2103.43573,0.00545
2101.37556,0.00605
2099.31539,0.00583
2097.25521,0.00484
2095.19504,0.00476
2093.13487,0.00562
2091.07470,0.00614
2089.01453,0.00604
2086.95435,0.00585
2084.89418,0.00575
2082.83401,0.00539
2080.77384,0.00463
2078.71367,0.00391
2076.65349,0.00368
2074.59332,0.00389
2072.53315,0.00427
2070.47298,0.00468
2068.41281,0.00511
2066.35263,0.00545
2064.29246,0.00539
2062.23229,0.00500
2060.17212,0.00466
2058.11194,0.00429
2056.05177,0.00411
2053.99160,0.00464
2051.93143,0.00530
2049.87126,0.00547
2047.81108,0.00517
2045.75091,0.00443
2043.69074,0.00387
2041.63057,0.00395
2039.57040,0.00400
2037.51022,0.00362
2035.45005,0.00384
2033.38988,0.00482
2031.32971,0.00497
2029.26954,0.00369
2027.20936,0.00238
2025.14919,0.00229
2023.08902,0.00254
2021.02885,0.00171
2018.96867,0.00039
2016.90850,0.00000
2014.84833,0.00081
2012.78816,0.00219
2010.72799,0.00296
2008.66781,0.00318
2006.60764,0.00369
2004.54747,0.00388
2002.48730,0.00321
2000.42713,0.00262
1998.36695,0.00290
1996.30678,0.00364
1994.24661,0.00393
1992.18644,0.00366
1990.12626,0.00359
1988.06609,0.00355
1986.00592,0.00321
1983.94575,0.00363
1981.88558,0.00457
1979.82540,0.00419
1977.76523,0.00302
1975.70506,0.00248
1973.64489,0.00178
1971.58472,0.00096
1969.52454,0.00073
1967.46437,0.00075
1965.40420,0.00043
1963.34403,0.00000
1961.28386,0.00040
1959.22368,0.00138
1957.16351,0.00228
1955.10334,0.00289
1953.04317,0.00278
1950.98299,0.00228
1948.92282,0.00223
1946.86265,0.00278
1944.80248,0.00313
1942.74231,0.00252
1940.68213,0.00173
1938.62196,0.00145
1936.56179,0.00138
1934.50162,0.00165
1932.44145,0.00252
1930.38127,0.00337
1928.32110,0.00325
1926.26093,0.00220
1924.20076,0.00150
1922.14059,0.00170
1920.08041,0.00196
1918.02024,0.00196
1915.96007,0.00198
1913.89990,0.00197
1911.83972,0.00197
1909.77955,0.00229
1907.71938,0.00291
1905.65921,0.00332
1903.59904,0.00334
1901.53886,0.00309
1899.47869,0.00268
1897.41852,0.00231
1895.35835,0.00220
1893.29818,0.00227
1891.23800,0.00219
1889.17783,0.00193
1887.11766,0.00185
1885.05749,0.00207
1882.99731,0.00232
1880.93714,0.00240
1878.87697,0.00243
1876.81680,0.00257
1874.75663,0.00280
1872.69645,0.00295
1870.63628,0.00291
1868.57611,0.00277
1866.51594,0.00269
1864.45577,0.00260
1862.39559,0.00250
1860.33542,0.00253
1858.27525,0.00258
1856.21508,0.00255
1854.15491,0.00248
1852.09473,0.00233
1850.03456,0.00231
1847.97439,0.00270
1845.91422,0.00307
1843.85404,0.00307
1841.79387,0.00295
1839.73370,0.00291
1837.67353,0.00296
1835.61336,0.00302
1833.55318,0.00291
1831.49301,0.00260
1829.43284,0.00242
1827.37267,0.00251
1825.31250,0.00270
1823.25232,0.00285
1821.19215,0.00276
1819.13198,0.00252
1817.07181,0.00248
1815.01163,0.00278
1812.95146,0.00314
1810.89129,0.00325
1808.83112,0.00310
1806.77095,0.00303
1804.71077,0.00322
1802.65060,0.00349
1800.59043,0.00358
1798.53026,0.00347
1796.47009,0.00335
1794.40991,0.00337
1792.34974,0.00354
1790.28957,0.00380
1788.22940,0.00397
1786.16923,0.00395
1784.10905,0.00371
1782.04888,0.00342
1779.98871,0.00330
1777.92854,0.00335
1775.86836,0.00349
1773.80819,0.00366
1771.74802,0.00375
1769.68785,0.00378
1767.62768,0.00392
1765.56750,0.00419
1763.50733,0.00453
1761.44716,0.00482
1759.38699,0.00491
1757.32682,0.00493
1755.26664,0.00513
1753.20647,0.00542
1751.14630,0.00566
1749.08613,0.00594
1747.02596,0.00621
1744.96578,0.00637
1742.90561,0.00652
1740.84544,0.00673
1738.78527,0.00684
1736.72509,0.00671
1734.66492,0.00660
1732.60475,0.00682
1730.54458,0.00721
1728.48441,0.00757
1726.42423,0.00786
1724.36406,0.00814
1722.30389,0.00841
1720.24372,0.00850
1718.18355,0.00838
1716.12337,0.00842
1714.06320,0.00883
1712.00303,0.00933
1709.94286,0.00970
1707.88268,0.00991
1705.82251,0.01012
1703.76234,0.01033
1701.70217,0.01042
1699.64200,0.01055
1697.58182,0.01101
1695.52165,0.01173
1693.46148,0.01235
1691.40131,0.01276
1689.34114,0.01303
1687.28096,0.01307
1685.22079,0.01315
1683.16062,0.01384
1681.10045,0.01480
1679.04028,0.01546
1676.98010,0.01584
1674.91993,0.01623
1672.85976,0.01672
1670.79959,0.01713
1668.73941,0.01749
1666.67924,0.01793
1664.61907,0.01839
1662.55890,0.01882
1660.49873,0.01918
1658.43855,0.01941
1656.37838,0.01942
1654.31821,0.01940
1652.25804,0.01967
1650.19787,0.01979
1648.13769,0.01971
1646.07752,0.01977
1644.01735,0.01992
1641.95718,0.01995
1639.89701,0.01985
1637.83683,0.01962
1635.77666,0.01942
1633.71649,0.01938
1631.65632,0.01927
1629.59614,0.01912
1627.53597,0.01917
1625.47580,0.01928
1623.41563,0.01917
1621.35546,0.01892
1619.29528,0.01873
1617.23511,0.01854
1615.17494,0.01831
1613.11477,0.01808
1611.05460,0.01787
1608.99442,0.01774
1606.93425,0.01768
1604.87408,0.01749
1602.81391,0.01707
1600.75373,0.01652
1598.69356,0.01589
1596.63339,0.01519
1594.57322,0.01454
1592.51305,0.01405
1590.45287,0.01361
1588.39270,0.01303
1586.33253,0.01235
1584.27236,0.01175
1582.21219,0.01120
1580.15201,0.01058
1578.09184,0.00985
1576.03167,0.00926
1573.97150,0.00903
1571.91133,0.00882
1569.85115,0.00846
1567.79098,0.00810
1565.73081,0.00777
1563.67064,0.00741
1561.61046,0.00691
1559.55029,0.00626
1557.49012,0.00576
1555.42995,0.00556
1553.36978,0.00552
1551.30960,0.00545
1549.24943,0.00529
1547.18926,0.00510
1545.12909,0.00481
1543.06892,0.00429
1541.00874,0.00367
1538.94857,0.00340
1536.88840,0.00326
1534.82823,0.00293
1532.76805,0.00271
1530.70788,0.00276
1528.64771,0.00273
1526.58754,0.00255
1524.52737,0.00247
1522.46719,0.00250
1520.40702,0.00238
1518.34685,0.00210
1516.28668,0.00198
1514.22651,0.00206
1512.16633,0.00200
1510.10616,0.00177
1508.04599,0.00157
1505.98582,0.00154
1503.92565,0.00158
1501.86547,0.00152
1499.80530,0.00139
1497.74513,0.00128
1495.68496,0.00124
1493.62478,0.00121
1491.56461,0.00121
1489.50444,0.00127
1487.44427,0.00141
1485.38410,0.00149
1483.32392,0.00150
1481.26375,0.00157
1479.20358,0.00172
1477.14341,0.00179
1475.08324,0.00196
1473.02306,0.00251
1470.96289,0.00310
1468.90272,0.00329
1466.84255,0.00325
1464.78238,0.00328
1462.72220,0.00339
1460.66203,0.00336
1458.60186,0.00320
1456.54169,0.00330
1454.48151,0.00370
1452.42134,0.00402
1450.36117,0.00421
1448.30100,0.00438
1446.24083,0.00451
1444.18065,0.00448
1442.12048,0.00431
1440.06031,0.00412
1438.00014,0.00400
1435.93997,0.00394
1433.87979,0.00388
1431.81962,0.00383
1429.75945,0.00395
1427.69928,0.00428
1425.63910,0.00462
1423.57893,0.00481
1421.51876,0.00490
1419.45859,0.00506
1417.39842,0.00528
1415.33824,0.00533
1413.27807,0.00524
1411.21790,0.00519
1409.15773,0.00519
1407.09756,0.00509
1405.03738,0.00483
1402.97721,0.00454
1400.91704,0.00437
1398.85687,0.00433
1396.79670,0.00430
1394.73652,0.00422
1392.67635,0.00415
1390.61618,0.00415
1388.55601,0.00420
1386.49583,0.00426
1384.43566,0.00432
1382.37549,0.00439
1380.31532,0.00449
1378.25515,0.00458
1376.19497,0.00458
1374.13480,0.00450
1372.07463,0.00442
1370.01446,0.00433
1367.95429,0.00421
1365.89411,0.00413
1363.83394,0.00411
1361.77377,0.00406
1359.71360,0.00393
1357.65343,0.00378
1355.59325,0.00368
1353.53308,0.00358
1351.47291,0.00343
1349.41274,0.00328
1347.35256,0.00318
1345.29239,0.00318
1343.23222,0.00324
1341.17205,0.00323
1339.11188,0.00320
1337.05170,0.00325
1334.99153,0.00328
1332.93136,0.00321
1330.87119,0.00310
1328.81102,0.00299
1326.75084,0.00289
1324.69067,0.00292
1322.63050,0.00305
1320.57033,0.00304
1318.51015,0.00283
1316.44998,0.00264
1314.38981,0.00260
1312.32964,0.00264
1310.26947,0.00277
1308.20929,0.00288
1306.14912,0.00283
1304.08895,0.00272
1302.02878,0.00271
1299.96861,0.00280
1297.90843,0.00292
1295.84826,0.00312
1293.78809,0.00333
1291.72792,0.00345
1289.66775,0.00355
1287.60757,0.00367
1285.54740,0.00362
1283.48723,0.00343
1281.42706,0.00338
1279.36688,0.00351
1277.30671,0.00367
1275.24654,0.00379
1273.18637,0.00392
1271.12620,0.00400
1269.06602,0.00402
1267.00585,0.00405
1264.94568,0.00401
1262.88551,0.00389
1260.82534,0.00381
1258.76516,0.00375
1256.70499,0.00367
1254.64482,0.00358
1252.58465,0.00345
1250.52447,0.00327
1248.46430,0.00307
1246.40413,0.00290
1244.34396,0.00284
1242.28379,0.00289
1240.22361,0.00283
1238.16344,0.00256
1236.10327,0.00233
1234.04310,0.00227
1231.98293,0.00229
1229.92275,0.00233
1227.86258,0.00227
1225.80241,0.00203
1223.74224,0.00167
1221.68207,0.00129
1219.62189,0.00097
1217.56172,0.00078
1215.50155,0.00071
1213.44138,0.00058
1211.38120,0.00031
1209.32103,0.00010
1207.26086,0.00000
1205.20069,-0.00006
1203.14052,-0.00001
1201.08034,0.00015
1199.02017,0.00037
1196.96000,0.00074
1194.89983,0.00122
1192.83966,0.00157
1190.77948,0.00183
1188.71931,0.00223
1186.65914,0.00280
1184.59897,0.00350
1182.53880,0.00440
1180.47862,0.00542
1178.41845,0.00645
1176.35828,0.00765
1174.29811,0.00904
1172.23793,0.01036
1170.17776,0.01158
1168.11759,0.01283
1166.05742,0.01395
1163.99725,0.01484
1161.93707,0.01571
1159.87690,0.01664
1157.81673,0.01748
1155.75656,0.01836
1153.69639,0.01932
1151.63621,0.02029
1149.57604,0.02133
1147.51587,0.02248
1145.45570,0.02380
1143.39552,0.02521
1141.33535,0.02656
1139.27518,0.02786
1137.21501,0.02930
1135.15484,0.03087
1133.09466,0.03241
1131.03449,0.03386
1128.97432,0.03508
1126.91415,0.03603
1124.85398,0.03701
1122.79380,0.03820
1120.73363,0.03947
1118.67346,0.04075
1116.61329,0.04212
1114.55312,0.04366
1112.49294,0.04520
1110.43277,0.04662
1108.37260,0.04812
1106.31243,0.04974
1104.25225,0.05127
1102.19208,0.05287
1100.13191,0.05460
1098.07174,0.05618
1096.01157,0.05761
1093.95139,0.05915
1091.89122,0.06069
1089.83105,0.06204
1087.77088,0.06343
1085.71071,0.06486
1083.65053,0.06605
1081.59036,0.06719
1079.53019,0.06856
1077.47002,0.06984
1075.40985,0.07077
1073.34967,0.07152
1071.28950,0.07224
1069.22933,0.07280
1067.16916,0.07313
1065.10898,0.07324
1063.04881,0.07319
1060.98864,0.07309
1058.92847,0.07280
1056.86830,0.07225
1054.80812,0.07176
1052.74795,0.07148
1050.68778,0.07106
1048.62761,0.07035
1046.56744,0.06950
1044.50726,0.06844
1042.44709,0.06709
1040.38692,0.06556
1038.32675,0.06402
1036.26657,0.06258
1034.20640,0.06105
1032.14623,0.05932
1030.08606,0.05774
1028.02589,0.05649
1025.96571,0.05524
1023.90554,0.05397
1021.84537,0.05292
1019.78520,0.05198
1017.72503,0.05098
1015.66485,0.04975
1013.60468,0.04826
1011.54451,0.04694
1009.48434,0.04599
1007.42417,0.04527
1005.36399,0.04468
1003.30382,0.04423
1001.24365,0.04401
999.18348,0.04401
997.12330,0.04440
995.06313,0.04520
993.00296,0.04622
990.94279,0.04739
988.88262,0.04836
986.82244,0.04880
984.76227,0.04904
982.70210,0.04909
980.64193,0.04862
978.58176,0.04768
976.52158,0.04637
974.46141,0.04485
972.40124,0.04325
970.34107,0.04140
968.28089,0.03934
966.22072,0.03737
964.16055,0.03553
962.10038,0.03371
960.04021,0.03212
957.98003,0.03065
955.91986,0.02912
953.85969,0.02784
951.79952,0.02690
949.73935,0.02610
947.67917,0.02543
945.61900,0.02488
943.55883,0.02447
941.49866,0.02439
939.43849,0.02448
937.37831,0.02455
935.31814,0.02453
933.25797,0.02425
931.19780,0.02389
929.13762,0.02364
927.07745,0.02344
925.01728,0.02319
922.95711,0.02267
920.89694,0.02181
918.83676,0.02095
916.77659,0.02035
914.71642,0.01969
912.65625,0.01877
910.59608,0.01794
908.53590,0.01747
906.47573,0.01713
904.41556,0.01663
902.35539,0.01631
900.29522,0.01648
898.23504,0.01650
896.17487,0.01641
894.11470,0.01667
892.05453,0.01690
889.99435,0.01693
887.93418,0.01705
885.87401,0.01749
883.81384,0.01816
881.75367,0.01880
879.69349,0.01930
877.63332,0.01965
875.57315,0.02002
873.51298,0.02061
871.45281,0.02123
869.39263,0.02151
867.33246,0.02137
865.27229,0.02124
863.21212,0.02133
861.15194,0.02138
859.09177,0.02123
857.03160,0.02088
854.97143,0.02049
852.91126,0.01998
850.85108,0.01931
848.79091,0.01873
846.73074,0.01805
844.67057,0.01715
842.61040,0.01639
840.55022,0.01567
838.49005,0.01474
836.42988,0.01372
834.36971,0.01296
832.30954,0.01264
830.24936,0.01223
828.18919,0.01134
826.12902,0.01048
824.06885,0.01019
822.00867,0.01023
819.94850,0.01000
817.88833,0.00947
815.82816,0.00920
813.76799,0.00922
811.70781,0.00891
809.64764,0.00790
807.58747,0.00687
805.52730,0.00647
803.46713,0.00624
801.40695,0.00576
799.34678,0.00537
797.28661,0.00543
795.22644,0.00551
793.16627,0.00522
791.10609,0.00472
789.04592,0.00425
786.98575,0.00412
784.92558,0.00414
782.86540,0.00399
780.80523,0.00397
778.74506,0.00413
776.68489,0.00433
774.62472,0.00431
772.56454,0.00396
770.50437,0.00396
768.44420,0.00433
766.38403,0.00459
764.32386,0.00456
762.26368,0.00397
760.20351,0.00329
758.14334,0.00309
756.08317,0.00293
754.02299,0.00236
751.96282,0.00158
749.90265,0.00118
747.84248,0.00107
745.78231,0.00097
743.72213,0.00113
741.66196,0.00139
739.60179,0.00150
737.54162,0.00147
735.48145,0.00113
733.42127,0.00069
731.36110,0.00054
729.30093,0.00083
727.24076,0.00127
725.18059,0.00157
723.12041,0.00178
721.06024,0.00176
719.00007,0.00192
716.93990,0.00240
714.87972,0.00282
712.81955,0.00255
710.75938,0.00183
708.69921,0.00161
706.63904,0.00202
704.57886,0.00255
702.51869,0.00275
700.45852,0.00245
698.39835,0.00190
696.33818,0.00139
694.27800,0.00122
692.21783,0.00143
690.15766,0.00175
688.09749,0.00211
686.03731,0.00243
683.97714,0.00258
681.91697,0.00253
679.85680,0.00240
677.79663,0.00227
675.73645,0.00230
673.67628,0.00235
671.61611,0.00178
669.55594,0.00090
667.49577,0.00077
665.43559,0.00123
663.37542,0.00169
661.31525,0.00130
659.25508,0.00067
657.19491,0.00079
655.13473,0.00128
653.07456,0.00143
651.01439,0.00160
648.95422,0.00216
646.89404,0.00312
644.83387,0.00420
642.77370,0.00448
640.71353,0.00330
638.65336,0.00126
636.59318,0.00000
634.53301,0.00019
632.47284,0.00103
630.41267,0.00157
628.35250,0.00215
626.29232,0.00269
624.23215,0.00149
622.17198,-0.00051
620.11181,-0.00106
618.05164,0.00005
615.99146,0.00159
613.93129,0.00098
611.87112,-0.00174
609.81095,-0.00336
607.75077,-0.00290
605.69060,-0.00170
603.63043,-0.00008
601.57026,0.00088
599.51009,0.00000
