3996.73391,0.00032
3994.67373,0.00020
3992.61356,0.00000
3990.55339,0.00011
3988.49322,0.00065
3986.43305,0.00109
3984.37287,0.00093
3982.31270,0.00051
3980.25253,0.00038
3978.19236,0.00045
3976.13219,0.00043
3974.07201,0.00030
3972.01184,0.00023
3969.95167,0.00023
3967.89150,0.00024
3965.83133,0.00042
3963.77115,0.00086
3961.71098,0.00112
3959.65081,0.00086
3957.59064,0.00044
3955.53046,0.00026
3953.47029,0.00033
3951.41012,0.00054
3949.34995,0.00075
3947.28978,0.00075
3945.22960,0.00040
3943.16943,0.00005
3941.10926,0.00010
3939.04909,0.00040
3936.98892,0.00058
3934.92874,0.00059
3932.86857,0.00067
3930.80840,0.00077
3928.74823,0.00053
3926.68805,0.00011
3924.62788,0.00000
3922.56771,0.00031
3920.50754,0.00066
3918.44737,0.00076
3916.38719,0.00072
3914.32702,0.00069
3912.26685,0.00045
3910.20668,0.00009
3908.14651,0.00008
3906.08633,0.00045
3904.02616,0.00067
3901.96599,0.00058
3899.90582,0.00066
3897.84565,0.00099
3895.78547,0.00111
3893.72530,0.00088
3891.66513,0.00066
3889.60496,0.00054
3887.54478,0.00039
3885.48461,0.00040
3883.42444,0.00058
3881.36427,0.00061
3879.30410,0.00042
3877.24392,0.00025
3875.18375,0.00033
3873.12358,0.00065
3871.06341,0.00104
3869.00324,0.00108
3866.94306,0.00063
3864.88289,0.00027
3862.82272,0.00018
3860.76255,0.00011
3858.70237,0.00004
3856.64220,0.00000
3854.58203,0.00018
3852.52186,0.00092
3850.46169,0.00162
3848.40151,0.00174
3846.34134,0.00140
3844.28117,0.00087
3842.22100,0.00051
3840.16083,0.00052
3838.10065,0.00079
3836.04048,0.00089
3833.98031,0.00061
3831.92014,0.00029
3829.85997,0.00022
3827.79979,0.00036
3825.73962,0.00058
3823.67945,0.00077
3821.61928,0.00085
3819.55910,0.00083
3817.49893,0.00092
3815.43876,0.00108
3813.37859,0.00089
3811.31842,0.00050
3809.25824,0.00053
3807.19807,0.00088
3805.13790,0.00096
3803.07773,0.00082
3801.01756,0.00083
3798.95738,0.00081
3796.89721,0.00059
3794.83704,0.00047
3792.77687,0.00055
3790.71670,0.00068
3788.65652,0.00080
3786.59635,0.00084
3784.53618,0.00072
3782.47601,0.00052
3780.41583,0.00046
3778.35566,0.00057
3776.29549,0.00061
3774.23532,0.00051
3772.17515,0.00046
3770.11497,0.00056
3768.05480,0.00055
3765.99463,0.00029
3763.93446,0.00000
3761.87429,0.00007
3759.81411,0.00063
3757.75394,0.00123
3755.69377,0.00142
3753.63360,0.00140
3751.57342,0.00132
3749.51325,0.00107
3747.45308,0.00084
3745.39291,0.00113
3743.33274,0.00167
3741.27256,0.00164
3739.21239,0.00139
3737.15222,0.00144
3735.09205,0.00141
3733.03188,0.00094
3730.97170,0.00046
3728.91153,0.00026
3726.85136,0.00040
3724.79119,0.00089
3722.73102,0.00146
3720.67084,0.00156
3718.61067,0.00105
3716.55050,0.00052
3714.49033,0.00061
3712.43015,0.00131
3710.36998,0.00192
3708.30981,0.00176
3706.24964,0.00102
3704.18947,0.00032
3702.12929,0.00009
3700.06912,0.00036
3698.00895,0.00089
3695.94878,0.00147
3693.88861,0.00191
3691.82843,0.00193
3689.76826,0.00169
3687.70809,0.00160
3685.64792,0.00150
3683.58775,0.00127
3681.52757,0.00128
3679.46740,0.00163
3677.40723,0.00182
3675.34706,0.00150
3673.28688,0.00108
3671.22671,0.00113
3669.16654,0.00172
3667.10637,0.00228
3665.04620,0.00248
3662.98602,0.00262
3660.92585,0.00296
3658.86568,0.00334
3656.80551,0.00362
3654.74534,0.00379
3652.68516,0.00386
3650.62499,0.00396
3648.56482,0.00427
3646.50465,0.00467
3644.44447,0.00505
3642.38430,0.00554
3640.32413,0.00614
3638.26396,0.00683
3636.20379,0.00755
3634.14361,0.00790
3632.08344,0.00783
3630.02327,0.00786
3627.96310,0.00836
3625.90293,0.00901
3623.84275,0.00936
3621.78258,0.00932
3619.72241,0.00912
3617.66224,0.00931
3615.60207,0.01006
3613.54189,0.01104
3611.48172,0.01193
3609.42155,0.01260
3607.36138,0.01311
3605.30120,0.01341
3603.24103,0.01364
3601.18086,0.01410
3599.12069,0.01471
3597.06052,0.01527
3595.00034,0.01575
3592.94017,0.01616
3590.88000,0.01648
3588.81983,0.01700
3586.75966,0.01780
3584.69948,0.01837
3582.63931,0.01859
3580.57914,0.01895
3578.51897,0.01946
3576.45879,0.01980
3574.39862,0.02003
3572.33845,0.02028
3570.27828,0.02061
3568.21811,0.02118
3566.15793,0.02186
3564.09776,0.02247
3562.03759,0.02317
3559.97742,0.02378
3557.91725,0.02397
3555.85707,0.02388
3553.79690,0.02387
3551.73673,0.02413
3549.67656,0.02468
3547.61639,0.02537
3545.55621,0.02605
3543.49604,0.02650
3541.43587,0.02659
3539.37570,0.02680
3537.31552,0.02763
3535.25535,0.02857
3533.19518,0.02892
3531.13501,0.02897
3529.07484,0.02929
3527.01466,0.02986
3524.95449,0.03047
3522.89432,0.03114
3520.83415,0.03186
3518.77398,0.03231
3516.71380,0.03242
3514.65363,0.03263
3512.59346,0.03322
3510.53329,0.03385
3508.47312,0.03421
3506.41294,0.03439
3504.35277,0.03458
3502.29260,0.03478
3500.23243,0.03502
3498.17225,0.03556
3496.11208,0.03638
3494.05191,0.03702
3491.99174,0.03738
3489.93157,0.03780
3487.87139,0.03818
3485.81122,0.03830
3483.75105,0.03832
3481.69088,0.03849
3479.63071,0.03879
3477.57053,0.03902
3475.51036,0.03918
3473.45019,0.03944
3471.39002,0.03985
3469.32984,0.04043
3467.26967,0.04112
3465.20950,0.04163
3463.14933,0.04201
3461.08916,0.04274
3459.02898,0.04353
3456.96881,0.04362
3454.90864,0.04321
3452.84847,0.04316
3450.78830,0.04361
3448.72812,0.04422
3446.66795,0.04470
3444.60778,0.04493
3442.54761,0.04522
3440.48744,0.04577
3438.42726,0.04627
3436.36709,0.04652
3434.30692,0.04655
3432.24675,0.04648
3430.18657,0.04646
3428.12640,0.04673
3426.06623,0.04723
3424.00606,0.04784
3421.94589,0.04842
3419.88571,0.04855
3417.82554,0.04828
3415.76537,0.04828
3413.70520,0.04871
3411.64503,0.04904
3409.58485,0.04914
3407.52468,0.04943
3405.46451,0.04995
3403.40434,0.05028
3401.34416,0.05032
3399.28399,0.05026
3397.22382,0.05032
3395.16365,0.05069
3393.10348,0.05120
3391.04330,0.05145
3388.98313,0.05139
3386.92296,0.05139
3384.86279,0.05164
3382.80262,0.05201
3380.74244,0.05231
3378.68227,0.05231
3376.62210,0.05217
3374.56193,0.05229
3372.50176,0.05253
3370.44158,0.05260
3368.38141,0.05249
3366.32124,0.05244
3364.26107,0.05266
3362.20089,0.05288
3360.14072,0.05300
3358.08055,0.05311
3356.02038,0.05326
3353.96021,0.05358
3351.90003,0.05375
3349.83986,0.05353
3347.77969,0.05352
3345.71952,0.05383
3343.65935,0.05390
3341.59917,0.05378
3339.53900,0.05377
3337.47883,0.05380
3335.41866,0.05388
3333.35849,0.05391
3331.29831,0.05379
3329.23814,0.05373
3327.17797,0.05378
3325.11780,0.05384
3323.05762,0.05416
3320.99745,0.05467
3318.93728,0.05498
3316.87711,0.05507
3314.81694,0.05509
3312.75676,0.05505
3310.69659,0.05497
3308.63642,0.05484
3306.57625,0.05478
3304.51608,0.05479
3302.45590,0.05471
3300.39573,0.05458
3298.33556,0.05461
3296.27539,0.05490
3294.21521,0.05523
3292.15504,0.05536
3290.09487,0.05535
3288.03470,0.05524
3285.97453,0.05525
3283.91435,0.05548
3281.85418,0.05560
3279.79401,0.05551
3277.73384,0.05546
3275.67367,0.05549
3273.61349,0.05549
3271.55332,0.05557
3269.49315,0.05572
3267.43298,0.05570
3265.37281,0.05556
3263.31263,0.05548
3261.25246,0.05562
3259.19229,0.05602
3257.13212,0.05638
3255.07194,0.05635
3253.01177,0.05605
3250.95160,0.05580
3248.89143,0.05567
3246.83126,0.05571
3244.77108,0.05571
3242.71091,0.05547
3240.65074,0.05544
3238.59057,0.05569
3236.53040,0.05570
3234.47022,0.05543
3232.41005,0.05523
3230.34988,0.05524
3228.28971,0.05539
3226.22954,0.05554
3224.16936,0.05546
3222.10919,0.05519
3220.04902,0.05513
3217.98885,0.05529
3215.92867,0.05525
3213.86850,0.05497
3211.80833,0.05475
3209.74816,0.05473
3207.68799,0.05491
3205.62781,0.05504
3203.56764,0.05484
3201.50747,0.05447
3199.44730,0.05426
3197.38713,0.05426
3195.32695,0.05432
3193.26678,0.05429
3191.20661,0.05420
3189.14644,0.05396
3187.08626,0.05354
3185.02609,0.05325
3182.96592,0.05311
3180.90575,0.05290
3178.84558,0.05263
3176.78540,0.05233
3174.72523,0.05227
3172.66506,0.05272
3170.60489,0.05308
3168.54472,0.05284
3166.48454,0.05243
3164.42437,0.05229
3162.36420,0.05234
3160.30403,0.05216
3158.24386,0.05166
3156.18368,0.05131
3154.12351,0.05132
3152.06334,0.05129
3150.00317,0.05100
3147.94299,0.05063
3145.88282,0.05034
3143.82265,0.05019
3141.76248,0.05013
3139.70231,0.05001
3137.64213,0.04972
3135.58196,0.04940
3133.52179,0.04922
3131.46162,0.04902
3129.40145,0.04867
3127.34127,0.04838
3125.28110,0.04830
3123.22093,0.04834
3121.16076,0.04821
3119.10058,0.04791
3117.04041,0.04785
3114.98024,0.04789
3112.92007,0.04773
3110.85990,0.04741
3108.79972,0.04694
3106.73955,0.04652
3104.67938,0.04638
3102.61921,0.04637
3100.55904,0.04631
3098.49886,0.04613
3096.43869,0.04575
3094.37852,0.04529
3092.31835,0.04504
3090.25818,0.04502
3088.19800,0.04484
3086.13783,0.04436
3084.07766,0.04399
3082.01749,0.04393
3079.95731,0.04394
3077.89714,0.04373
3075.83697,0.04326
3073.77680,0.04287
3071.71663,0.04268
3069.65645,0.04240
3067.59628,0.04207
3065.53611,0.04196
3063.47594,0.04194
3061.41577,0.04167
3059.35559,0.04124
3057.29542,0.04095
3055.23525,0.04080
3053.17508,0.04077
3051.11491,0.04083
3049.05473,0.04076
3046.99456,0.04041
3044.93439,0.04000
3042.87422,0.03964
3040.81404,0.03937
3038.75387,0.03928
3036.69370,0.03920
3034.63353,0.03891
3032.57336,0.03853
3030.51318,0.03827
3028.45301,0.03791
3026.39284,0.03748
3024.33267,0.03731
3022.27250,0.03729
3020.21232,0.03719
3018.15215,0.03701
3016.09198,0.03690
3014.03181,0.03687
3011.97163,0.03667
3009.91146,0.03622
3007.85129,0.03581
3005.79112,0.03560
3003.73095,0.03535
3001.67077,0.03504
2999.61060,0.03486
2997.55043,0.03469
2995.49026,0.03432
2993.43009,0.03406
2991.36991,0.03402
2989.30974,0.03396
2987.24957,0.03382
2985.18940,0.03359
2983.12923,0.03331
2981.06905,0.03326
2979.00888,0.03329
2976.94871,0.03319
2974.88854,0.03319
2972.82836,0.03319
2970.76819,0.03301
2968.70802,0.03284
2966.64785,0.03279
2964.58768,0.03285
2962.52750,0.03298
2960.46733,0.03305
2958.40716,0.03295
2956.34699,0.03268
2954.28682,0.03236
2952.22664,0.03227
2950.16647,0.03246
2948.10630,0.03264
2946.04613,0.03281
2943.98596,0.03306
2941.92578,0.03305
2939.86561,0.03268
2937.80544,0.03243
2935.74527,0.03257
2933.68509,0.03274
2931.62492,0.03267
2929.56475,0.03245
2927.50458,0.03224
2925.44441,0.03214
2923.38423,0.03218
2921.32406,0.03211
2919.26389,0.03166
2917.20372,0.03118
2915.14355,0.03102
2913.08337,0.03090
2911.02320,0.03078
2908.96303,0.03074
2906.90286,0.03054
2904.84268,0.03041
2902.78251,0.03050
2900.72234,0.03033
2898.66217,0.02999
2896.60200,0.02988
2894.54182,0.02988
2892.48165,0.02993
2890.42148,0.03006
2888.36131,0.03005
2886.30114,0.02990
2884.24096,0.02989
2882.18079,0.02998
2880.12062,0.02976
2878.06045,0.02938
2876.00028,0.02932
2873.94010,0.02947
2871.87993,0.02939
2869.81976,0.02907
2867.75959,0.02870
2865.69941,0.02845
2863.63924,0.02837
2861.57907,0.02831
2859.51890,0.02818
2857.45873,0.02808
2855.39855,0.02799
2853.33838,0.02786
2851.27821,0.02769
2849.21804,0.02749
2847.15787,0.02718
2845.09769,0.02679
2843.03752,0.02650
2840.97735,0.02644
2838.91718,0.02649
2836.85700,0.02642
2834.79683,0.02613
2832.73666,0.02588
2830.67649,0.02573
2828.61632,0.02558
2826.55614,0.02540
2824.49597,0.02526
2822.43580,0.02526
2820.37563,0.02531
2818.31546,0.02532
2816.25528,0.02538
2814.19511,0.02532
2812.13494,0.02507
2810.07477,0.02476
2808.01460,0.02447
2805.95442,0.02424
2803.89425,0.02422
2801.83408,0.02431
2799.77391,0.02432
2797.71373,0.02420
2795.65356,0.02396
2793.59339,0.02365
2791.53322,0.02336
2789.47305,0.02327
2787.41287,0.02328
2785.35270,0.02320
2783.29253,0.02305
2781.23236,0.02302
2779.17219,0.02313
2777.11201,0.02314
2775.05184,0.02309
2772.99167,0.02294
2770.93150,0.02255
2768.87133,0.02218
2766.81115,0.02209
2764.75098,0.02205
2762.69081,0.02186
2760.63064,0.02177
2758.57046,0.02190
2756.51029,0.02189
2754.45012,0.02161
2752.38995,0.02150
2750.32978,0.02163
2748.26960,0.02162
2746.20943,0.02149
2744.14926,0.02138
2742.08909,0.02125
2740.02892,0.02112
2737.96874,0.02095
2735.90857,0.02067
2733.84840,0.02042
2731.78823,0.02028
2729.72805,0.02016
2727.66788,0.02013
2725.60771,0.02008
2723.54754,0.01998
2721.48737,0.02005
2719.42719,0.02015
2717.36702,0.02013
2715.30685,0.01991
2713.24668,0.01950
2711.18651,0.01921
2709.12633,0.01908
2707.06616,0.01900
2705.00599,0.01906
2702.94582,0.01909
2700.88565,0.01896
2698.82547,0.01879
2696.76530,0.01856
2694.70513,0.01830
2692.64496,0.01823
2690.58478,0.01824
2688.52461,0.01807
2686.46444,0.01780
2684.40427,0.01766
2682.34410,0.01761
2680.28392,0.01746
2678.22375,0.01723
2676.16358,0.01708
2674.10341,0.01696
2672.04324,0.01680
2669.98306,0.01667
2667.92289,0.01667
2665.86272,0.01674
2663.80255,0.01667
2661.74238,0.01651
2659.68220,0.01630
2657.62203,0.01602
2655.56186,0.01579
2653.50169,0.01563
2651.44151,0.01548
2649.38134,0.01540
2647.32117,0.01530
2645.26100,0.01509
2643.20083,0.01475
2641.14065,0.01451
2639.08048,0.01463
2637.02031,0.01471
2634.96014,0.01453
2632.89997,0.01437
2630.83979,0.01431
2628.77962,0.01421
2626.71945,0.01406
2624.65928,0.01391
2622.59910,0.01374
2620.53893,0.01348
2618.47876,0.01329
2616.41859,0.01312
2614.35842,0.01285
2612.29824,0.01269
2610.23807,0.01260
2608.17790,0.01238
2606.11773,0.01210
2604.05756,0.01201
2601.99738,0.01208
2599.93721,0.01201
2597.87704,0.01190
2595.81687,0.01196
2593.75670,0.01191
2591.69652,0.01160
2589.63635,0.01138
2587.57618,0.01141
2585.51601,0.01153
2583.45583,0.01164
2581.39566,0.01156
2579.33549,0.01116
2577.27532,0.01093
2575.21515,0.01100
2573.15497,0.01086
2571.09480,0.01073
2569.03463,0.01091
2566.97446,0.01126
2564.91429,0.01162
2562.85411,0.01171
2560.79394,0.01131
2558.73377,0.01083
2556.67360,0.01066
2554.61342,0.01066
2552.55325,0.01080
2550.49308,0.01128
2548.43291,0.01175
2546.37274,0.01190
2544.31256,0.01173
2542.25239,0.01116
2540.19222,0.01075
2538.13205,0.01095
2536.07188,0.01125
2534.01170,0.01116
2531.95153,0.01065
2529.89136,0.01008
2527.83119,0.01000
2525.77102,0.01043
2523.71084,0.01093
2521.65067,0.01122
2519.59050,0.01115
2517.53033,0.01091
2515.47015,0.01091
2513.40998,0.01115
2511.34981,0.01136
2509.28964,0.01139
2507.22947,0.01133
2505.16929,0.01123
2503.10912,0.01126
2501.04895,0.01136
2498.98878,0.01130
2496.92861,0.01123
2494.86843,0.01145
2492.80826,0.01177
2490.74809,0.01182
2488.68792,0.01170
2486.62775,0.01183
2484.56757,0.01211
2482.50740,0.01213
2480.44723,0.01179
2478.38706,0.01146
2476.32688,0.01129
2474.26671,0.01137
2472.20654,0.01182
2470.14637,0.01225
2468.08620,0.01220
2466.02602,0.01189
2463.96585,0.01178
2461.90568,0.01195
2459.84551,0.01233
2457.78534,0.01273
2455.72516,0.01293
2453.66499,0.01296
2451.60482,0.01274
2449.54465,0.01236
2447.48447,0.01214
2445.42430,0.01204
2443.36413,0.01201
2441.30396,0.01196
2439.24379,0.01181
2437.18361,0.01186
2435.12344,0.01196
2433.06327,0.01188
2431.00310,0.01199
2428.94293,0.01222
2426.88275,0.01220
2424.82258,0.01218
2422.76241,0.01249
2420.70224,0.01277
2418.64207,0.01272
2416.58189,0.01261
2414.52172,0.01250
2412.46155,0.01243
2410.40138,0.01243
2408.34120,0.01220
2406.28103,0.01174
2404.22086,0.01134
2402.16069,0.01120
2400.10052,0.01145
2398.04034,0.01171
2395.98017,0.01188
2393.92000,0.01181
2391.85983,0.01169
2389.79966,0.01179
2387.73948,0.01214
2385.67931,0.01249
2383.61914,0.01269
2381.55897,0.01282
2379.49880,0.01287
2377.43862,0.01278
2375.37845,0.01274
2373.31828,0.01288
2371.25811,0.01358
2369.19793,0.01498
2367.13776,0.01615
2365.07759,0.01724
2363.01742,0.01921
2360.95725,0.01962
2358.89707,0.01818
2356.83690,0.01630
2354.77673,0.01503
2352.71656,0.01432
2350.65639,0.01345
2348.59621,0.01333
2346.53604,0.01456
2344.47587,0.01324
2342.41570,0.01120
2340.35552,0.01078
2338.29535,0.01156
2336.23518,0.01284
2334.17501,0.01372
2332.11484,0.01392
2330.05466,0.01410
2327.99449,0.01506
2325.93432,0.01564
2323.87415,0.01541
2321.81398,0.01430
2319.75380,0.01347
2317.69363,0.01281
2315.63346,0.01216
2313.57329,0.01137
2311.51312,0.01093
2309.45294,0.01113
2307.39277,0.01139
2305.33260,0.01144
2303.27243,0.01146
2301.21225,0.01163
2299.15208,0.01173
2297.09191,0.01147
2295.03174,0.01103
2292.97157,0.01095
2290.91139,0.01139
2288.85122,0.01182
2286.79105,0.01151
2284.73088,0.01054
2282.67071,0.00988
2280.61053,0.01003
2278.55036,0.01051
2276.49019,0.01063
2274.43002,0.01006
2272.36984,0.00915
2270.30967,0.00842
2268.24950,0.00819
2266.18933,0.00861
2264.12916,0.00905
2262.06898,0.00889
2260.00881,0.00862
2257.94864,0.00875
2255.88847,0.00894
2253.82830,0.00889
2251.76812,0.00881
2249.70795,0.00889
2247.64778,0.00911
2245.58761,0.00908
2243.52744,0.00847
2241.46726,0.00760
2239.40709,0.00715
2237.34692,0.00722
2235.28675,0.00760
2233.22657,0.00766
2231.16640,0.00690
2229.10623,0.00625
2227.04606,0.00661
2224.98589,0.00741
2222.92571,0.00755
2220.86554,0.00729
2218.80537,0.00743
2216.74520,0.00737
2214.68503,0.00674
2212.62485,0.00588
2210.56468,0.00530
2208.50451,0.00572
2206.44434,0.00644
2204.38417,0.00661
2202.32399,0.00663
2200.26382,0.00682
2198.20365,0.00710
2196.14348,0.00699
2194.08330,0.00643
2192.02313,0.00602
2189.96296,0.00591
2187.90279,0.00607
2185.84262,0.00614
2183.78244,0.00563
2181.72227,0.00501
2179.66210,0.00463
2177.60193,0.00364
2175.54176,0.00251
2173.48158,0.00342
2171.42141,0.00597
2169.36124,0.00772
2167.30107,0.00770
2165.24089,0.00638
2163.18072,0.00507
2161.12055,0.00408
2159.06038,0.00238
2157.00021,0.00064
2154.94003,0.00004
2152.87986,0.00070
2150.81969,0.00215
2148.75952,0.00336
2146.69935,0.00410
2144.63917,0.00452
2142.57900,0.00436
2140.51883,0.00370
2138.45866,0.00295
2136.39849,0.00245
2134.33831,0.00252
2132.27814,0.00313
2130.21797,0.00369
2128.15780,0.00379
2126.09762,0.00371
2124.03745,0.00386
2121.97728,0.00442
2119.91711,0.00497
2117.85694,0.00506
2115.79676,0.00503
2113.73659,0.00504
2111.67642,0.00468
2109.61625,0.00442
2107.55608,0.00447
2105.49590,0.00423
2103.43573,0.00402
2101.37556,0.00417
2099.31539,0.00395
2097.25521,0.00366
2095.19504,0.00406
2093.13487,0.00454
2091.07470,0.00447
2089.01453,0.00440
2086.95435,0.00460
2084.89418,0.00457
2082.83401,0.00387
2080.77384,0.00291
2078.71367,0.00264
2076.65349,0.00297
2074.59332,0.00296
2072.53315,0.00280
2070.47298,0.00300
2068.41281,0.00334
2066.35263,0.00343
2064.29246,0.00328
2062.23229,0.00349
2060.17212,0.00407
2058.11194,0.00421
2056.05177,0.00414
2053.99160,0.00444
2051.93143,0.00447
2049.87126,0.00375
2047.81108,0.00280
2045.75091,0.00236
2043.69074,0.00242
2041.63057,0.00223
2039.57040,0.00216
2037.51022,0.00295
2035.45005,0.00378
2033.38988,0.00348
2031.32971,0.00221
2029.26954,0.00154
2027.20936,0.00158
2025.14919,0.00078
2023.08902,0.00000
2021.02885,0.00057
2018.96867,0.00109
2016.90850,0.00070
2014.84833,0.00098
2012.78816,0.00211
2010.72799,0.00200
2008.66781,0.00074
2006.60764,0.00080
2004.54747,0.00206
2002.48730,0.00246
2000.42713,0.00226
1998.36695,0.00239
1996.30678,0.00242
1994.24661,0.00222
1992.18644,0.00223
1990.12626,0.00296
1988.06609,0.00418
1986.00592,0.00438
1983.94575,0.00370
1981.88558,0.00327
1979.82540,0.00248
1977.76523,0.00126
1975.70506,0.00105
1973.64489,0.00181
1971.58472,0.00261
1969.52454,0.00316
1967.46437,0.00331
1965.40420,0.00258
1963.34403,0.00123
1961.28386,0.00043
1959.22368,0.00033
1957.16351,0.00049
1955.10334,0.00114
1953.04317,0.00217
1950.98299,0.00269
1948.92282,0.00218
1946.86265,0.00136
1944.80248,0.00061
1942.74231,0.00000
1940.68213,0.00044
1938.62196,0.00167
1936.56179,0.00217
1934.50162,0.00192
1932.44145,0.00203
1930.38127,0.00248
1928.32110,0.00235
1926.26093,0.00177
1924.20076,0.00174
1922.14059,0.00225
1920.08041,0.00248
1918.02024,0.00240
1915.96007,0.00242
1913.89990,0.00236
1911.83972,0.00206
1909.77955,0.00211
1907.71938,0.00281
1905.65921,0.00334
1903.59904,0.00318
1901.53886,0.00258
1899.47869,0.00205
1897.41852,0.00189
1895.35835,0.00201
1893.29818,0.00223
1891.23800,0.00241
1889.17783,0.00251
1887.11766,0.00254
1885.05749,0.00257
1882.99731,0.00276
1880.93714,0.00293
1878.87697,0.00282
1876.81680,0.00265
1874.75663,0.00264
1872.69645,0.00263
1870.63628,0.00250
1868.57611,0.00245
1866.51594,0.00253
1864.45577,0.00263
1862.39559,0.00278
1860.33542,0.00291
1858.27525,0.00286
1856.21508,0.00263
1854.15491,0.00236
1852.09473,0.00219
1850.03456,0.00231
1847.97439,0.00267
1845.91422,0.00288
1843.85404,0.00290
1841.79387,0.00294
1839.73370,0.00294
1837.67353,0.00285
1835.61336,0.00278
1833.55318,0.00276
1831.49301,0.00277
1829.43284,0.00276
1827.37267,0.00270
1825.31250,0.00266
1823.25232,0.00262
1821.19215,0.00248
1819.13198,0.00230
1817.07181,0.00223
1815.01163,0.00236
1812.95146,0.00270
1810.89129,0.00305
1808.83112,0.00312
1806.77095,0.00301
1804.71077,0.00312
1802.65060,0.00345
1800.59043,0.00366
1798.53026,0.00358
1796.47009,0.00335
1794.40991,0.00321
1792.34974,0.00332
1790.28957,0.00360
1788.22940,0.00376
1786.16923,0.00370
1784.10905,0.00348
1782.04888,0.00324
1779.98871,0.00317
1777.92854,0.00329
1775.86836,0.00355
1773.80819,0.00383
1771.74802,0.00398
1769.68785,0.00392
1767.62768,0.00393
1765.56750,0.00417
1763.50733,0.00460
1761.44716,0.00508
1759.38699,0.00535
1757.32682,0.00541
1755.26664,0.00553
1753.20647,0.00574
1751.14630,0.00592
1749.08613,0.00615
1747.02596,0.00640
1744.96578,0.00660
1742.90561,0.00681
1740.84544,0.00691
1738.78527,0.00677
1736.72509,0.00658
1734.66492,0.00674
1732.60475,0.00729
1730.54458,0.00765
1728.48441,0.00770
1726.42423,0.00769
1724.36406,0.00780
1722.30389,0.00807
1720.24372,0.00846
1718.18355,0.00888
1716.12337,0.00916
1714.06320,0.00928
1712.00303,0.00943
1709.94286,0.00974
1707.88268,0.01015
1705.82251,0.01048
1703.76234,0.01058
1701.70217,0.01061
1699.64200,0.01103
1697.58182,0.01176
1695.52165,0.01230
1693.46148,0.01258
1691.40131,0.01283
1689.34114,0.01312
1687.28096,0.01340
1685.22079,0.01390
1683.16062,0.01479
1681.10045,0.01546
1679.04028,0.01563
1676.98010,0.01574
1674.91993,0.01621
1672.85976,0.01693
1670.79959,0.01752
1668.73941,0.01787
1666.67924,0.01803
1664.61907,0.01825
1662.55890,0.01876
1660.49873,0.01934
1658.43855,0.01964
1656.37838,0.01973
1654.31821,0.01992
1652.25804,0.02037
1650.19787,0.02060
1648.13769,0.02058
1646.07752,0.02051
1644.01735,0.02042
1641.95718,0.02029
1639.89701,0.02008
1637.83683,0.01982
1635.77666,0.01971
1633.71649,0.01971
1631.65632,0.01951
1629.59614,0.01919
1627.53597,0.01907
1625.47580,0.01929
1623.41563,0.01956
1621.35546,0.01951
1619.29528,0.01916
1617.23511,0.01873
1615.17494,0.01840
1613.11477,0.01821
1611.05460,0.01809
1608.99442,0.01796
1606.93425,0.01778
1604.87408,0.01753
1602.81391,0.01716
1600.75373,0.01666
1598.69356,0.01602
1596.63339,0.01529
1594.57322,0.01458
1592.51305,0.01407
1590.45287,0.01368
1588.39270,0.01316
1586.33253,0.01253
1584.27236,0.01188
1582.21219,0.01120
1580.15201,0.01060
1578.09184,0.01015
1576.03167,0.00974
1573.97150,0.00927
1571.91133,0.00873
1569.85115,0.00827
1567.79098,0.00799
1565.73081,0.00776
1563.67064,0.00753
1561.61046,0.00727
1559.55029,0.00700
1557.49012,0.00671
1555.42995,0.00632
1553.36978,0.00593
1551.30960,0.00561
1549.24943,0.00535
1547.18926,0.00521
1545.12909,0.00517
1543.06892,0.00493
1541.00874,0.00429
1538.94857,0.00376
1536.88840,0.00357
1534.82823,0.00340
1532.76805,0.00316
1530.70788,0.00298
1528.64771,0.00298
1526.58754,0.00304
1524.52737,0.00302
1522.46719,0.00298
1520.40702,0.00289
1518.34685,0.00257
1516.28668,0.00229
1514.22651,0.00221
1512.16633,0.00208
1510.10616,0.00180
1508.04599,0.00153
1505.98582,0.00144
1503.92565,0.00148
1501.86547,0.00151
1499.80530,0.00160
1497.74513,0.00171
1495.68496,0.00164
1493.62478,0.00142
1491.56461,0.00141
1489.50444,0.00163
1487.44427,0.00172
1485.38410,0.00163
1483.32392,0.00156
1481.26375,0.00158
1479.20358,0.00167
1477.14341,0.00180
1475.08324,0.00218
1473.02306,0.00285
1470.96289,0.00327
1468.90272,0.00330
1466.84255,0.00337
1464.78238,0.00357
1462.72220,0.00370
1460.66203,0.00376
1458.60186,0.00389
1456.54169,0.00409
1454.48151,0.00425
1452.42134,0.00436
1450.36117,0.00440
1448.30100,0.00437
1446.24083,0.00429
1444.18065,0.00417
1442.12048,0.00408
1440.06031,0.00402
1438.00014,0.00396
1435.93997,0.00391
1433.87979,0.00387
1431.81962,0.00399
1429.75945,0.00429
1427.69928,0.00455
1425.63910,0.00473
1423.57893,0.00490
1421.51876,0.00517
1419.45859,0.00556
1417.39842,0.00579
1415.33824,0.00560
1413.27807,0.00527
1411.21790,0.00514
1409.15773,0.00524
1407.09756,0.00527
1405.03738,0.00501
1402.97721,0.00460
1400.91704,0.00441
1398.85687,0.00451
1396.79670,0.00463
1394.73652,0.00449
1392.67635,0.00416
1390.61618,0.00390
1388.55601,0.00389
1386.49583,0.00403
1384.43566,0.00417
1382.37549,0.00430
1380.31532,0.00450
1378.25515,0.00481
1376.19497,0.00509
1374.13480,0.00518
1372.07463,0.00502
1370.01446,0.00478
1367.95429,0.00457
1365.89411,0.00442
1363.83394,0.00431
1361.77377,0.00415
1359.71360,0.00392
1357.65343,0.00372
1355.59325,0.00364
1353.53308,0.00357
1351.47291,0.00343
1349.41274,0.00327
1347.35256,0.00317
1345.29239,0.00318
1343.23222,0.00331
1341.17205,0.00352
1339.11188,0.00365
1337.05170,0.00358
1334.99153,0.00334
1332.93136,0.00303
1330.87119,0.00282
1328.81102,0.00282
1326.75084,0.00292
1324.69067,0.00301
1322.63050,0.00303
1320.57033,0.00299
1318.51015,0.00296
1316.44998,0.00295
1314.38981,0.00293
1312.32964,0.00283
1310.26947,0.00277
1308.20929,0.00287
1306.14912,0.00301
1304.08895,0.00311
1302.02878,0.00324
1299.96861,0.00338
1297.90843,0.00343
1295.84826,0.00343
1293.78809,0.00345
1291.72792,0.00357
1289.66775,0.00373
1287.60757,0.00383
1285.54740,0.00384
1283.48723,0.00384
1281.42706,0.00383
1279.36688,0.00381
1277.30671,0.00388
1275.24654,0.00398
1273.18637,0.00406
1271.12620,0.00414
1269.06602,0.00428
1267.00585,0.00439
1264.94568,0.00429
1262.88551,0.00406
1260.82534,0.00401
1258.76516,0.00421
1256.70499,0.00441
1254.64482,0.00431
1252.58465,0.00393
1250.52447,0.00360
1248.46430,0.00342
1246.40413,0.00321
1244.34396,0.00306
1242.28379,0.00308
1240.22361,0.00296
1238.16344,0.00268
1236.10327,0.00254
1234.04310,0.00258
1231.98293,0.00255
1229.92275,0.00242
1227.86258,0.00232
1225.80241,0.00209
1223.74224,0.00168
1221.68207,0.00135
1219.62189,0.00113
1217.56172,0.00082
1215.50155,0.00056
1213.44138,0.00042
1211.38120,0.00032
1209.32103,0.00022
1207.26086,0.00007
1205.20069,0.00000
1203.14052,0.00016
1201.08034,0.00045
1199.02017,0.00073
1196.96000,0.00108
1194.89983,0.00152
1192.83966,0.00188
1190.77948,0.00217
1188.71931,0.00256
1186.65914,0.00318
1184.59897,0.00401
1182.53880,0.00493
1180.47862,0.00595
1178.41845,0.00704
1176.35828,0.00819
1174.29811,0.00941
1172.23793,0.01063
1170.17776,0.01184
1168.11759,0.01311
1166.05742,0.01428
1163.99725,0.01532
1161.93707,0.01640
1159.87690,0.01744
1157.81673,0.01823
1155.75656,0.01893
1153.69639,0.01979
1151.63621,0.02089
1149.57604,0.02210
1147.51587,0.02334
1145.45570,0.02460
1143.39552,0.02592
1141.33535,0.02738
1139.27518,0.02886
1137.21501,0.03036
1135.15484,0.03200
1133.09466,0.03357
1131.03449,0.03496
1128.97432,0.03627
1126.91415,0.03744
1124.85398,0.03838
1122.79380,0.03935
1120.73363,0.04064
1118.67346,0.04208
1116.61329,0.04341
1114.55312,0.04480
1112.49294,0.04639
1110.43277,0.04800
1108.37260,0.04957
1106.31243,0.05113
1104.25225,0.05266
1102.19208,0.05429
1100.13191,0.05608
1098.07174,0.05776
1096.01157,0.05923
1093.95139,0.06071
1091.89122,0.06200
1089.83105,0.06308
1087.77088,0.06447
1085.71071,0.06609
1083.65053,0.06752
1081.59036,0.06875
1079.53019,0.07004
1077.47002,0.07139
1075.40985,0.07242
1073.34967,0.07317
1071.28950,0.07397
1069.22933,0.07458
1067.16916,0.07484
1065.10898,0.07502
1063.04881,0.07512
1060.98864,0.07487
1058.92847,0.07430
1056.86830,0.07376
1054.80812,0.07344
1052.74795,0.07315
1050.68778,0.07270
1048.62761,0.07210
1046.56744,0.07122
1044.50726,0.06986
1042.44709,0.06819
1040.38692,0.06662
1038.32675,0.06534
1036.26657,0.06405
1034.20640,0.06247
1032.14623,0.06076
1030.08606,0.05916
1028.02589,0.05778
1025.96571,0.05660
1023.90554,0.05550
1021.84537,0.05438
1019.78520,0.05324
1017.72503,0.05220
1015.66485,0.05122
1013.60468,0.05005
1011.54451,0.04871
1009.48434,0.04747
1007.42417,0.04658
1005.36399,0.04601
1003.30382,0.04566
1001.24365,0.04567
999.18348,0.04598
997.12330,0.04634
995.06313,0.04672
993.00296,0.04742
990.94279,0.04847
988.88262,0.04934
986.82244,0.04995
984.76227,0.05047
982.70210,0.05053
980.64193,0.04989
978.58176,0.04873
976.52158,0.04725
974.46141,0.04572
972.40124,0.04413
970.34107,0.04226
968.28089,0.04027
966.22072,0.03834
964.16055,0.03636
962.10038,0.03452
960.04021,0.03311
957.98003,0.03180
955.91986,0.03030
953.85969,0.02903
951.79952,0.02831
949.73935,0.02769
947.67917,0.02693
945.61900,0.02622
943.55883,0.02571
941.49866,0.02540
939.43849,0.02523
937.37831,0.02526
935.31814,0.02539
933.25797,0.02545
931.19780,0.02527
929.13762,0.02487
927.07745,0.02462
925.01728,0.02440
922.95711,0.02369
920.89694,0.02275
918.83676,0.02210
916.77659,0.02153
914.71642,0.02069
912.65625,0.01974
910.59608,0.01891
908.53590,0.01833
906.47573,0.01816
904.41556,0.01797
902.35539,0.01758
900.29522,0.01760
898.23504,0.01786
896.17487,0.01786
894.11470,0.01762
892.05453,0.01743
889.99435,0.01748
887.93418,0.01767
885.87401,0.01803
883.81384,0.01866
881.75367,0.01941
879.69349,0.02014
877.63332,0.02075
875.57315,0.02125
873.51298,0.02181
871.45281,0.02227
869.39263,0.02235
867.33246,0.02243
865.27229,0.02274
863.21212,0.02276
861.15194,0.02219
859.09177,0.02152
857.03160,0.02130
854.97143,0.02126
852.91126,0.02083
850.85108,0.01998
848.79091,0.01910
846.73074,0.01843
844.67057,0.01789
842.61040,0.01739
840.55022,0.01675
838.49005,0.01569
836.42988,0.01458
834.36971,0.01391
832.30954,0.01347
830.24936,0.01264
828.18919,0.01140
826.12902,0.01060
824.06885,0.01056
822.00867,0.01057
819.94850,0.01031
817.88833,0.01001
815.82816,0.00968
813.76799,0.00915
811.70781,0.00840
809.64764,0.00772
807.58747,0.00742
805.52730,0.00748
803.46713,0.00745
801.40695,0.00700
799.34678,0.00653
797.28661,0.00649
795.22644,0.00631
793.16627,0.00570
791.10609,0.00538
789.04592,0.00555
786.98575,0.00571
784.92558,0.00545
782.86540,0.00480
780.80523,0.00437
778.74506,0.00450
776.68489,0.00477
774.62472,0.00465
772.56454,0.00419
770.50437,0.00431
768.44420,0.00492
766.38403,0.00509
764.32386,0.00486
762.26368,0.00441
760.20351,0.00402
758.14334,0.00382
756.08317,0.00358
754.02299,0.00357
751.96282,0.00367
749.90265,0.00362
747.84248,0.00326
745.78231,0.00260
743.72213,0.00224
741.66196,0.00199
739.60179,0.00173
737.54162,0.00193
735.48145,0.00211
733.42127,0.00198
731.36110,0.00223
729.30093,0.00275
727.24076,0.00268
725.18059,0.00235
723.12041,0.00264
721.06024,0.00314
719.00007,0.00307
716.93990,0.00288
714.87972,0.00287
712.81955,0.00281
710.75938,0.00269
708.69921,0.00276
706.63904,0.00294
704.57886,0.00297
702.51869,0.00287
700.45852,0.00283
698.39835,0.00298
696.33818,0.00312
694.27800,0.00300
692.21783,0.00256
690.15766,0.00211
688.09749,0.00194
686.03731,0.00196
683.97714,0.00208
681.91697,0.00237
679.85680,0.00262
677.79663,0.00255
675.73645,0.00234
673.67628,0.00154
671.61611,0.00000
669.55594,0.00120
667.49577,0.00332
665.43559,0.00002
663.37542,-0.00001
661.31525,0.00114
659.25508,0.00195
657.19491,0.00207
655.13473,0.00136
653.07456,0.00072
651.01439,0.00111
648.95422,0.00196
646.89404,0.00240
644.83387,0.00265
642.77370,0.00251
640.71353,0.00170
638.65336,0.00052
636.59318,0.00000
634.53301,0.00059
632.47284,0.00173
630.41267,0.00270
628.35250,0.00328
626.29232,0.00323
624.23215,0.00215
622.17198,0.00100
620.11181,0.00025
618.05164,-0.00053
615.99146,0.00005
613.93129,0.00039
611.87112,-0.00085
609.81095,-0.00228
607.75077,-0.00307
605.69060,-0.00280
603.63043,-0.00155
601.57026,0.00003
599.51009,0.00000
